3997.91411	0.07419
3995.98555	0.07431
3994.05698	0.07475
3992.12842	0.07512
3990.19985	0.07510
3988.27129	0.07491
3986.34272	0.07510
3984.41416	0.07579
3982.48560	0.07647
3980.55703	0.07679
3978.62847	0.07665
3976.69990	0.07631
3974.77134	0.07645
3972.84277	0.07704
3970.91421	0.07756
3968.98564	0.07785
3967.05708	0.07775
3965.12852	0.07750
3963.19995	0.07748
3961.27139	0.07765
3959.34282	0.07794
3957.41426	0.07840
3955.48569	0.07897
3953.55713	0.07914
3951.62856	0.07877
3949.70000	0.07838
3947.77144	0.07824
3945.84287	0.07834
3943.91431	0.07844
3941.98574	0.07824
3940.05718	0.07796
3938.12861	0.07799
3936.20005	0.07828
3934.27148	0.07865
3932.34292	0.07886
3930.41436	0.07847
3928.48579	0.07783
3926.55723	0.07752
3924.62866	0.07760
3922.70010	0.07790
3920.77153	0.07827
3918.84297	0.07856
3916.91440	0.07853
3914.98584	0.07804
3913.05728	0.07755
3911.12871	0.07733
3909.20015	0.07707
3907.27158	0.07678
3905.34302	0.07683
3903.41445	0.07721
3901.48589	0.07748
3899.55732	0.07759
3897.62876	0.07768
3895.70020	0.07771
3893.77163	0.07787
3891.84307	0.07814
3889.91450	0.07799
3887.98594	0.07772
3886.05737	0.07817
3884.12881	0.07891
3882.20024	0.07902
3880.27168	0.07893
3878.34312	0.07887
3876.41455	0.07849
3874.48599	0.07820
3872.55742	0.07843
3870.62886	0.07922
3868.70029	0.08004
3866.77173	0.08017
3864.84316	0.08050
3862.91460	0.08163
3860.98604	0.08221
3859.05747	0.08175
3857.12891	0.08112
3855.20034	0.08080
3853.27178	0.08155
3851.34321	0.08352
3849.41465	0.08403
3847.48608	0.08351
3845.55752	0.08327
3843.62896	0.08373
3841.70039	0.08475
3839.77183	0.08602
3837.84326	0.08750
3835.91470	0.08844
3833.98613	0.08866
3832.05757	0.08904
3830.12900	0.08951
3828.20044	0.08968
3826.27187	0.09013
3824.34331	0.09094
3822.41475	0.09157
3820.48618	0.09279
3818.55762	0.09429
3816.62905	0.09489
3814.70049	0.09558
3812.77192	0.09630
3810.84336	0.09649
3808.91479	0.09686
3806.98623	0.09814
3805.05767	0.09982
3803.12910	0.10093
3801.20054	0.10200
3799.27197	0.10331
3797.34341	0.10456
3795.41484	0.10598
3793.48628	0.10696
3791.55771	0.10768
3789.62915	0.10869
3787.70059	0.11000
3785.77202	0.11183
3783.84346	0.11369
3781.91489	0.11486
3779.98633	0.11612
3778.05776	0.11790
3776.12920	0.11933
3774.20063	0.12061
3772.27207	0.12213
3770.34351	0.12394
3768.41494	0.12623
3766.48638	0.12861
3764.55781	0.13076
3762.62925	0.13248
3760.70068	0.13387
3758.77212	0.13575
3756.84355	0.13844
3754.91499	0.14088
3752.98643	0.14295
3751.05786	0.14620
3749.12930	0.15079
3747.20073	0.15329
3745.27217	0.15466
3743.34360	0.15794
3741.41504	0.16196
3739.48647	0.16487
3737.55791	0.16758
3735.62935	0.17137
3733.70078	0.17695
3731.77222	0.18221
3729.84365	0.18615
3727.91509	0.19008
3725.98652	0.19518
3724.05796	0.20147
3722.12939	0.20832
3720.20083	0.21569
3718.27227	0.22331
3716.34370	0.23119
3714.41514	0.23898
3712.48657	0.24743
3710.55801	0.25907
3708.62944	0.27289
3706.70088	0.28504
3704.77231	0.29631
3702.84375	0.30938
3700.91519	0.32671
3698.98662	0.34585
3697.05806	0.36362
3695.12949	0.38183
3693.20093	0.40088
3691.27236	0.42178
3689.34380	0.44941
3687.41523	0.48411
3685.48667	0.51508
3683.55811	0.54175
3681.62954	0.56972
3679.70098	0.60068
3677.77241	0.63303
3675.84385	0.67122
3673.91528	0.72392
3671.98672	0.76787
3670.05815	0.80632
3668.12959	0.85950
3666.20103	0.90823
3664.27246	0.94799
3662.34390	0.99053
3660.41533	1.03733
3658.48677	1.08375
3656.55820	1.13222
3654.62964	1.18570
3652.70107	1.23109
3650.77251	1.27035
3648.84395	1.32349
3646.91538	1.39049
3644.98682	1.44143
3643.05825	1.48018
3641.12969	1.51917
3639.20112	1.56181
3637.27256	1.60480
3635.34399	1.64726
3633.41543	1.68984
3631.48687	1.72872
3629.55830	1.76687
3627.62974	1.81843
3625.70117	1.86980
3623.77261	1.90512
3621.84404	1.93727
3619.91548	1.97295
3617.98691	2.01673
3616.05835	2.06059
3614.12979	2.09795
3612.20122	2.13654
3610.27266	2.17473
3608.34409	2.21337
3606.41553	2.25570
3604.48696	2.29544
3602.55840	2.32964
3600.62983	2.36603
3598.70127	2.40713
3596.77271	2.44730
3594.84414	2.48723
3592.91558	2.52890
3590.98701	2.56743
3589.05845	2.60298
3587.12988	2.64563
3585.20132	2.69217
3583.27275	2.73344
3581.34419	2.77348
3579.41562	2.81542
3577.48706	2.85802
3575.55850	2.89889
3573.62993	2.93996
3571.70137	2.98209
3569.77280	3.02417
3567.84424	3.06818
3565.91567	3.12030
3563.98711	3.17096
3562.05854	3.21214
3560.12998	3.25239
3558.20142	3.29486
3556.27285	3.33870
3554.34429	3.38378
3552.41572	3.43167
3550.48716	3.47941
3548.55859	3.52461
3546.63003	3.57090
3544.70146	3.61970
3542.77290	3.66712
3540.84434	3.71470
3538.91577	3.76418
3536.98721	3.81112
3535.05864	3.85641
3533.13008	3.90291
3531.20151	3.95169
3529.27295	4.00164
3527.34438	4.05243
3525.41582	4.10157
3523.48726	4.14577
3521.55869	4.18939
3519.63013	4.23592
3517.70156	4.28355
3515.77300	4.32909
3513.84443	4.37665
3511.91587	4.43009
3509.98730	4.48390
3508.05874	4.53364
3506.13018	4.58106
3504.20161	4.62756
3502.27305	4.67496
3500.34448	4.72497
3498.41592	4.77677
3496.48735	4.83171
3494.55879	4.88333
3492.63022	4.92411
3490.70166	4.96117
3488.77310	5.00298
3486.84453	5.05191
3484.91597	5.10707
3482.98740	5.16684
3481.05884	5.22875
3479.13027	5.28319
3477.20171	5.32631
3475.27314	5.36715
3473.34458	5.41083
3471.41602	5.45367
3469.48745	5.49533
3467.55889	5.54213
3465.63032	5.59622
3463.70176	5.65429
3461.77319	5.71635
3459.84463	5.78207
3457.91606	5.83494
3455.98750	5.87178
3454.05894	5.91160
3452.13037	5.96550
3450.20181	6.02589
3448.27324	6.07673
3446.34468	6.12485
3444.41611	6.18124
3442.48755	6.24699
3440.55898	6.31132
3438.63042	6.34905
3436.70186	6.35987
3434.77329	6.38162
3432.84473	6.44061
3430.91616	6.50949
3428.98760	6.55351
3427.05903	6.59587
3425.13047	6.67240
3423.20190	6.75118
3421.27334	6.80470
3419.34478	6.84307
3417.41621	6.87906
3415.48765	6.93205
3413.55908	7.00371
3411.63052	7.08433
3409.70195	7.13807
3407.77339	7.15660
3405.84482	7.16982
3403.91626	7.19190
3401.98770	7.24358
3400.05913	7.32890
3398.13057	7.37328
3396.20200	7.35276
3394.27344	7.34730
3392.34487	7.39316
3390.41631	7.49093
3388.48774	7.58486
3386.55918	7.62896
3384.63062	7.64037
3382.70205	7.65562
3380.77349	7.69709
3378.84492	7.75849
3376.91636	7.82864
3374.98779	7.84396
3373.05923	7.80534
3371.13066	7.80396
3369.20210	7.87728
3367.27354	7.91986
3365.34497	7.88167
3363.41641	7.87527
3361.48784	7.91782
3359.55928	7.97510
3357.63071	8.06683
3355.70215	8.17634
3353.77358	8.21546
3351.84502	8.19474
3349.91646	8.23884
3347.98789	8.35461
3346.05933	8.32344
3344.13076	8.12690
3342.20220	7.99966
3340.27363	8.03396
3338.34507	8.15574
3336.41650	8.19464
3334.48794	8.19124
3332.55937	8.23599
3330.63081	8.26471
3328.70225	8.27264
3326.77368	8.30608
3324.84512	8.34003
3322.91655	8.33796
3320.98799	8.33407
3319.05942	8.33081
3317.13086	8.33418
3315.20229	8.34456
3313.27373	8.37765
3311.34517	8.44241
3309.41660	8.46379
3307.48804	8.39176
3305.55947	8.36445
3303.63091	8.49378
3301.70234	8.53874
3299.77378	8.40723
3297.84521	8.34688
3295.91665	8.37761
3293.98809	8.37499
3292.05952	8.33312
3290.13096	8.34378
3288.20239	8.42009
3286.27383	8.49261
3284.34526	8.57726
3282.41670	8.65728
3280.48813	8.55716
3278.55957	8.40226
3276.63101	8.41366
3274.70244	8.54191
3272.77388	8.60797
3270.84531	8.55572
3268.91675	8.52834
3266.98818	8.58132
3265.05962	8.59607
3263.13105	8.54903
3261.20249	8.51832
3259.27393	8.45630
3257.34536	8.38329
3255.41680	8.41445
3253.48823	8.56327
3251.55967	8.65822
3249.63110	8.59261
3247.70254	8.58448
3245.77397	8.64850
3243.84541	8.54198
3241.91685	8.32794
3239.98828	8.24918
3238.05972	8.31318
3236.13115	8.33597
3234.20259	8.27198
3232.27402	8.24787
3230.34546	8.30603
3228.41689	8.37342
3226.48833	8.38410
3224.55977	8.38697
3222.63120	8.36798
3220.70264	8.22915
3218.77407	8.08421
3216.84551	8.07611
3214.91694	8.17692
3212.98838	8.25628
3211.05981	8.24444
3209.13125	8.15520
3207.20269	8.02113
3205.27412	7.99152
3203.34556	8.09117
3201.41699	8.13740
3199.48843	8.09687
3197.55986	8.03820
3195.63130	7.94019
3193.70273	7.86213
3191.77417	7.87389
3189.84561	7.87594
3187.91704	7.75209
3185.98848	7.60963
3184.05991	7.56365
3182.13135	7.56190
3180.20278	7.53512
3178.27422	7.49811
3176.34565	7.43574
3174.41709	7.32750
3172.48853	7.21759
3170.55996	7.11672
3168.63140	7.02578
3166.70283	6.98837
3164.77427	7.01113
3162.84570	7.00771
3160.91714	6.91269
3158.98857	6.80001
3157.06001	6.73230
3155.13145	6.68506
3153.20288	6.61427
3151.27432	6.51533
3149.34575	6.42355
3147.41719	6.34948
3145.48862	6.28264
3143.56006	6.21865
3141.63149	6.13958
3139.70293	6.04330
3137.77437	5.96498
3135.84580	5.90857
3133.91724	5.84502
3131.98867	5.76800
3130.06011	5.68615
3128.13154	5.60675
3126.20298	5.53469
3124.27441	5.46259
3122.34585	5.38289
3120.41729	5.30381
3118.48872	5.23097
3116.56016	5.16214
3114.63159	5.09173
3112.70303	5.01754
3110.77446	4.94586
3108.84590	4.87324
3106.91733	4.79532
3104.98877	4.72074
3103.06021	4.65192
3101.13164	4.58237
3099.20308	4.51250
3097.27451	4.44400
3095.34595	4.37400
3093.41738	4.30241
3091.48882	4.23047
3089.56025	4.15862
3087.63169	4.08836
3085.70312	4.02120
3083.77456	3.95704
3081.84600	3.89441
3079.91743	3.83157
3077.98887	3.76906
3076.06030	3.70813
3074.13174	3.64720
3072.20317	3.58582
3070.27461	3.52510
3068.34604	3.46340
3066.41748	3.40054
3064.48892	3.34029
3062.56035	3.28424
3060.63179	3.23039
3058.70322	3.17671
3056.77466	3.12269
3054.84609	3.06813
3052.91753	3.01366
3050.98896	2.96078
3049.06040	2.90850
3047.13184	2.85589
3045.20327	2.80476
3043.27471	2.75545
3041.34614	2.70636
3039.41758	2.65706
3037.48901	2.60799
3035.56045	2.56023
3033.63188	2.51423
3031.70332	2.46893
3029.77476	2.42439
3027.84619	2.38115
3025.91763	2.33854
3023.98906	2.29580
3022.06050	2.25360
3020.13193	2.21310
3018.20337	2.17302
3016.27480	2.13210
3014.34624	2.09179
3012.41768	2.05291
3010.48911	2.01454
3008.56055	1.97654
3006.63198	1.93949
3004.70342	1.90301
3002.77485	1.86689
3000.84629	1.83173
2998.91772	1.79764
2996.98916	1.76439
2995.06060	1.73146
2993.13203	1.69843
2991.20347	1.66604
2989.27490	1.63472
2987.34634	1.60363
2985.41777	1.57252
2983.48921	1.54220
2981.56064	1.51280
2979.63208	1.48376
2977.70352	1.45494
2975.77495	1.42647
2973.84639	1.39840
2971.91782	1.37087
2969.98926	1.34385
2968.06069	1.31731
2966.13213	1.29182
2964.20356	1.26729
2962.27500	1.24276
2960.34644	1.21824
2958.41787	1.19467
2956.48931	1.17196
2954.56074	1.14946
2952.63218	1.12734
2950.70361	1.10567
2948.77505	1.08433
2946.84648	1.06324
2944.91792	1.04228
2942.98936	1.02148
2941.06079	1.00126
2939.13223	0.98203
2937.20366	0.96335
2935.27510	0.94465
2933.34653	0.92608
2931.41797	0.90788
2929.48940	0.88996
2927.56084	0.87252
2925.63228	0.85576
2923.70371	0.83976
2921.77515	0.82439
2919.84658	0.80932
2917.91802	0.79416
2915.98945	0.77869
2914.06089	0.76333
2912.13232	0.74881
2910.20376	0.73495
2908.27520	0.72094
2906.34663	0.70702
2904.41807	0.69388
2902.48950	0.68129
2900.56094	0.66878
2898.63237	0.65665
2896.70381	0.64520
2894.77524	0.63404
2892.84668	0.62276
2890.91812	0.61129
2888.98955	0.59983
2887.06099	0.58876
2885.13242	0.57818
2883.20386	0.56779
2881.27529	0.55738
2879.34673	0.54696
2877.41816	0.53681
2875.48960	0.52712
2873.56104	0.51781
2871.63247	0.50868
2869.70391	0.49959
2867.77534	0.49062
2865.84678	0.48197
2863.91821	0.47336
2861.98965	0.46468
2860.06108	0.45626
2858.13252	0.44817
2856.20396	0.44020
2854.27539	0.43240
2852.34683	0.42492
2850.41826	0.41787
2848.48970	0.41102
2846.56113	0.40419
2844.63257	0.39765
2842.70400	0.39140
2840.77544	0.38509
2838.84687	0.37914
2836.91831	0.37394
2834.98975	0.36894
2833.06118	0.36349
2831.13262	0.35766
2829.20405	0.35188
2827.27549	0.34650
2825.34692	0.34150
2823.41836	0.33651
2821.48979	0.33125
2819.56123	0.32588
2817.63267	0.32061
2815.70410	0.31573
2813.77554	0.31133
2811.84697	0.30685
2809.91841	0.30205
2807.98984	0.29726
2806.06128	0.29260
2804.13271	0.28818
2802.20415	0.28403
2800.27559	0.28000
2798.34702	0.27612
2796.41846	0.27230
2794.48989	0.26839
2792.56133	0.26443
2790.63276	0.26041
2788.70420	0.25643
2786.77563	0.25277
2784.84707	0.24948
2782.91851	0.24632
2780.98994	0.24309
2779.06138	0.23983
2777.13281	0.23659
2775.20425	0.23330
2773.27568	0.23008
2771.34712	0.22708
2769.41855	0.22422
2767.48999	0.22143
2765.56143	0.21868
2763.63286	0.21589
2761.70430	0.21316
2759.77573	0.21055
2757.84717	0.20801
2755.91860	0.20550
2753.99004	0.20295
2752.06147	0.20050
2750.13291	0.19832
2748.20435	0.19624
2746.27578	0.19398
2744.34722	0.19167
2742.41865	0.18943
2740.49009	0.18727
2738.56152	0.18520
2736.63296	0.18315
2734.70439	0.18123
2732.77583	0.17961
2730.84727	0.17809
2728.91870	0.17637
2726.99014	0.17445
2725.06157	0.17246
2723.13301	0.17057
2721.20444	0.16894
2719.27588	0.16751
2717.34731	0.16619
2715.41875	0.16476
2713.49019	0.16310
2711.56162	0.16155
2709.63306	0.16033
2707.70449	0.15919
2705.77593	0.15790
2703.84736	0.15659
2701.91880	0.15542
2699.99023	0.15443
2698.06167	0.15352
2696.13311	0.15248
2694.20454	0.15121
2692.27598	0.14989
2690.34741	0.14870
2688.41885	0.14769
2686.49028	0.14684
2684.56172	0.14606
2682.63315	0.14525
2680.70459	0.14435
2678.77603	0.14342
2676.84746	0.14252
2674.91890	0.14171
2672.99033	0.14102
2671.06177	0.14034
2669.13320	0.13946
2667.20464	0.13853
2665.27607	0.13795
2663.34751	0.13763
2661.41895	0.13723
2659.49038	0.13670
2657.56182	0.13611
2655.63325	0.13566
2653.70469	0.13536
2651.77612	0.13499
2649.84756	0.13457
2647.91899	0.13420
2645.99043	0.13382
2644.06187	0.13342
2642.13330	0.13309
2640.20474	0.13286
2638.27617	0.13265
2636.34761	0.13244
2634.41904	0.13230
2632.49048	0.13214
2630.56191	0.13191
2628.63335	0.13167
2626.70479	0.13141
2624.77622	0.13128
2622.84766	0.13137
2620.91909	0.13145
2618.99053	0.13145
2617.06196	0.13147
2615.13340	0.13144
2613.20483	0.13136
2611.27627	0.13136
2609.34771	0.13153
2607.41914	0.13168
2605.49058	0.13171
2603.56201	0.13180
2601.63345	0.13212
2599.70488	0.13253
2597.77632	0.13284
2595.84775	0.13299
2593.91919	0.13305
2591.99062	0.13312
2590.06206	0.13328
2588.13350	0.13357
2586.20493	0.13396
2584.27637	0.13452
2582.34780	0.13515
2580.41924	0.13558
2578.49067	0.13587
2576.56211	0.13617
2574.63354	0.13654
2572.70498	0.13698
2570.77642	0.13743
2568.84785	0.13792
2566.91929	0.13848
2564.99072	0.13895
2563.06216	0.13936
2561.13359	0.13990
2559.20503	0.14059
2557.27646	0.14128
2555.34790	0.14178
2553.41934	0.14224
2551.49077	0.14293
2549.56221	0.14382
2547.63364	0.14460
2545.70508	0.14519
2543.77651	0.14563
2541.84795	0.14605
2539.91938	0.14672
2537.99082	0.14763
2536.06226	0.14849
2534.13369	0.14921
2532.20513	0.14991
2530.27656	0.15066
2528.34800	0.15149
2526.41943	0.15245
2524.49087	0.15339
2522.56230	0.15418
2520.63374	0.15485
2518.70518	0.15559
2516.77661	0.15641
2514.84805	0.15722
2512.91948	0.15796
2510.99092	0.15880
2509.06235	0.15980
2507.13379	0.16077
2505.20522	0.16159
2503.27666	0.16242
2501.34810	0.16334
2499.41953	0.16426
2497.49097	0.16508
2495.56240	0.16591
2493.63384	0.16692
2491.70527	0.16797
2489.77671	0.16887
2487.84814	0.16972
2485.91958	0.17053
2483.99102	0.17137
2482.06245	0.17247
2480.13389	0.17363
2478.20532	0.17466
2476.27676	0.17565
2474.34819	0.17662
2472.41963	0.17757
2470.49106	0.17846
2468.56250	0.17929
2466.63394	0.18024
2464.70537	0.18133
2462.77681	0.18234
2460.84824	0.18336
2458.91968	0.18448
2456.99111	0.18557
2455.06255	0.18660
2453.13398	0.18758
2451.20542	0.18857
2449.27686	0.18961
2447.34829	0.19061
2445.41973	0.19161
2443.49116	0.19264
2441.56260	0.19371
2439.63403	0.19491
2437.70547	0.19618
2435.77690	0.19729
2433.84834	0.19823
2431.91978	0.19929
2429.99121	0.20058
2428.06265	0.20187
2426.13408	0.20300
2424.20552	0.20409
2422.27695	0.20529
2420.34839	0.20648
2418.41982	0.20761
2416.49126	0.20876
2414.56270	0.20994
2412.63413	0.21123
2410.70557	0.21259
2408.77700	0.21388
2406.84844	0.21508
2404.91987	0.21627
2402.99131	0.21753
2401.06274	0.21886
2399.13418	0.22017
2397.20562	0.22147
2395.27705	0.22284
2393.34849	0.22418
2391.41992	0.22545
2389.49136	0.22668
2387.56279	0.22775
2385.63423	0.22866
2383.70566	0.22957
2381.77710	0.23033
2379.84854	0.23081
2377.91997	0.23122
2375.99141	0.23168
2374.06284	0.23197
2372.13428	0.23171
2370.20571	0.23149
2368.27715	0.23206
2366.34858	0.23222
2364.42002	0.23146
2362.49146	0.23115
2360.56289	0.23154
2358.63433	0.23382
2356.70576	0.23900
2354.77720	0.24334
2352.84863	0.24563
2350.92007	0.24824
2348.99150	0.25054
2347.06294	0.25141
2345.13437	0.25128
2343.20581	0.25153
2341.27725	0.25328
2339.34868	0.25579
2337.42012	0.25764
2335.49155	0.25901
2333.56299	0.26046
2331.63442	0.26193
2329.70586	0.26409
2327.77729	0.26720
2325.84873	0.26995
2323.92017	0.27208
2321.99160	0.27442
2320.06304	0.27708
2318.13447	0.27971
2316.20591	0.28226
2314.27734	0.28463
2312.34878	0.28661
2310.42021	0.28848
2308.49165	0.29055
2306.56309	0.29283
2304.63452	0.29515
2302.70596	0.29727
2300.77739	0.29938
2298.84883	0.30165
2296.92026	0.30393
2294.99170	0.30621
2293.06313	0.30848
2291.13457	0.31063
2289.20601	0.31280
2287.27744	0.31504
2285.34888	0.31726
2283.42031	0.31944
2281.49175	0.32155
2279.56318	0.32355
2277.63462	0.32548
2275.70605	0.32741
2273.77749	0.32938
2271.84893	0.33139
2269.92036	0.33351
2267.99180	0.33581
2266.06323	0.33821
2264.13467	0.34059
2262.20610	0.34280
2260.27754	0.34492
2258.34897	0.34709
2256.42041	0.34926
2254.49185	0.35145
2252.56328	0.35374
2250.63472	0.35604
2248.70615	0.35826
2246.77759	0.36045
2244.84902	0.36260
2242.92046	0.36469
2240.99189	0.36695
2239.06333	0.36939
2237.13477	0.37174
2235.20620	0.37394
2233.27764	0.37621
2231.34907	0.37855
2229.42051	0.38078
2227.49194	0.38296
2225.56338	0.38528
2223.63481	0.38766
2221.70625	0.38997
2219.77769	0.39228
2217.84912	0.39459
2215.92056	0.39679
2213.99199	0.39897
2212.06343	0.40122
2210.13486	0.40345
2208.20630	0.40567
2206.27773	0.40793
2204.34917	0.41011
2202.42061	0.41210
2200.49204	0.41400
2198.56348	0.41604
2196.63491	0.41817
2194.70635	0.42019
2192.77778	0.42204
2190.84922	0.42381
2188.92065	0.42568
2186.99209	0.42773
2185.06353	0.42977
2183.13496	0.43148
2181.20640	0.43299
2179.27783	0.43458
2177.34927	0.43627
2175.42070	0.43790
2173.49214	0.43942
2171.56357	0.44097
2169.63501	0.44262
2167.70645	0.44411
2165.77788	0.44533
2163.84932	0.44644
2161.92075	0.44758
2159.99219	0.44877
2158.06362	0.44992
2156.13506	0.45096
2154.20649	0.45180
2152.27793	0.45245
2150.34937	0.45308
2148.42080	0.45376
2146.49224	0.45445
2144.56367	0.45511
2142.63511	0.45560
2140.70654	0.45583
2138.77798	0.45599
2136.84941	0.45621
2134.92085	0.45644
2132.99229	0.45661
2131.06372	0.45666
2129.13516	0.45654
2127.20659	0.45627
2125.27803	0.45588
2123.34946	0.45539
2121.42090	0.45486
2119.49233	0.45434
2117.56377	0.45383
2115.63521	0.45319
2113.70664	0.45235
2111.77808	0.45140
2109.84951	0.45047
2107.92095	0.44958
2105.99238	0.44860
2104.06382	0.44743
2102.13525	0.44607
2100.20669	0.44462
2098.27812	0.44313
2096.34956	0.44164
2094.42100	0.44022
2092.49243	0.43870
2090.56387	0.43698
2088.63530	0.43511
2086.70674	0.43323
2084.77817	0.43136
2082.84961	0.42946
2080.92104	0.42740
2078.99248	0.42520
2077.06392	0.42310
2075.13535	0.42119
2073.20679	0.41919
2071.27822	0.41697
2069.34966	0.41468
2067.42109	0.41234
2065.49253	0.40992
2063.56396	0.40748
2061.63540	0.40503
2059.70684	0.40254
2057.77827	0.40002
2055.84971	0.39752
2053.92114	0.39505
2051.99258	0.39259
2050.06401	0.39003
2048.13545	0.38737
2046.20688	0.38470
2044.27832	0.38212
2042.34976	0.37951
2040.42119	0.37675
2038.49263	0.37388
2036.56406	0.37117
2034.63550	0.36856
2032.70693	0.36579
2030.77837	0.36288
2028.84980	0.36000
2026.92124	0.35728
2024.99268	0.35461
2023.06411	0.35182
2021.13555	0.34899
2019.20698	0.34629
2017.27842	0.34365
2015.34985	0.34086
2013.42129	0.33803
2011.49272	0.33521
2009.56416	0.33247
2007.63560	0.32977
2005.70703	0.32709
2003.77847	0.32448
2001.84990	0.32190
1999.92134	0.31924
1997.99277	0.31654
1996.06421	0.31393
1994.13564	0.31139
1992.20708	0.30886
1990.27852	0.30639
1988.34995	0.30393
1986.42139	0.30138
1984.49282	0.29895
1982.56426	0.29665
1980.63569	0.29432
1978.70713	0.29202
1976.77856	0.28982
1974.85000	0.28765
1972.92144	0.28544
1970.99287	0.28328
1969.06431	0.28121
1967.13574	0.27910
1965.20718	0.27701
1963.27861	0.27505
1961.35005	0.27316
1959.42148	0.27122
1957.49292	0.26933
1955.56436	0.26752
1953.63579	0.26577
1951.70723	0.26405
1949.77866	0.26241
1947.85010	0.26084
1945.92153	0.25932
1943.99297	0.25787
1942.06440	0.25654
1940.13584	0.25522
1938.20728	0.25382
1936.27871	0.25240
1934.35015	0.25104
1932.42158	0.24978
1930.49302	0.24854
1928.56445	0.24733
1926.63589	0.24618
1924.70732	0.24515
1922.77876	0.24424
1920.85020	0.24340
1918.92163	0.24260
1916.99307	0.24174
1915.06450	0.24077
1913.13594	0.23980
1911.20737	0.23904
1909.27881	0.23845
1907.35024	0.23785
1905.42168	0.23716
1903.49312	0.23649
1901.56455	0.23589
1899.63599	0.23540
1897.70742	0.23505
1895.77886	0.23476
1893.85029	0.23441
1891.92173	0.23395
1889.99316	0.23362
1888.06460	0.23343
1886.13604	0.23329
1884.20747	0.23309
1882.27891	0.23287
1880.35034	0.23278
1878.42178	0.23275
1876.49321	0.23267
1874.56465	0.23259
1872.63608	0.23269
1870.70752	0.23290
1868.77896	0.23324
1866.85039	0.23346
1864.92183	0.23348
1862.99326	0.23365
1861.06470	0.23397
1859.13613	0.23434
1857.20757	0.23467
1855.27900	0.23508
1853.35044	0.23556
1851.42187	0.23607
1849.49331	0.23654
1847.56475	0.23711
1845.63618	0.23793
1843.70762	0.23894
1841.77905	0.23980
1839.85049	0.24031
1837.92192	0.24101
1835.99336	0.24197
1834.06479	0.24302
1832.13623	0.24400
1830.20767	0.24527
1828.27910	0.24670
1826.35054	0.24779
1824.42197	0.24906
1822.49341	0.25041
1820.56484	0.25171
1818.63628	0.25317
1816.70771	0.25490
1814.77915	0.25659
1812.85059	0.25828
1810.92202	0.26020
1808.99346	0.26227
1807.06489	0.26424
1805.13633	0.26606
1803.20776	0.26807
1801.27920	0.27046
1799.35063	0.27333
1797.42207	0.27609
1795.49351	0.27869
1793.56494	0.28152
1791.63638	0.28510
1789.70781	0.28867
1787.77925	0.29140
1785.85068	0.29445
1783.92212	0.29800
1781.99355	0.30195
1780.06499	0.30626
1778.13643	0.31065
1776.20786	0.31470
1774.27930	0.31904
1772.35073	0.32495
1770.42217	0.33136
1768.49360	0.33672
1766.56504	0.34187
1764.63647	0.34717
1762.70791	0.35291
1760.77935	0.36027
1758.85078	0.36738
1756.92222	0.37459
1754.99365	0.38253
1753.06509	0.38978
1751.13652	0.39810
1749.20796	0.40846
1747.27939	0.41912
1745.35083	0.42875
1743.42227	0.43860
1741.49370	0.44923
1739.56514	0.46192
1737.63657	0.47468
1735.70801	0.48559
1733.77944	0.50200
1731.85088	0.52218
1729.92231	0.53808
1727.99375	0.55385
1726.06519	0.57074
1724.13662	0.58917
1722.20806	0.60898
1720.27949	0.62705
1718.35093	0.64797
1716.42236	0.67937
1714.49380	0.70991
1712.56523	0.73484
1710.63667	0.75877
1708.70811	0.78407
1706.77954	0.81249
1704.85098	0.84658
1702.92241	0.87713
1700.99385	0.90672
1699.06528	0.95038
1697.13672	0.99072
1695.20815	1.03208
1693.27959	1.07188
1691.35103	1.10346
1689.42246	1.13937
1687.49390	1.17659
1685.56533	1.21192
1683.63677	1.26669
1681.70820	1.32370
1679.77964	1.36016
1677.85107	1.39475
1675.92251	1.43390
1673.99395	1.48166
1672.06538	1.52425
1670.13682	1.56633
1668.20825	1.62014
1666.27969	1.66244
1664.35112	1.69710
1662.42256	1.73947
1660.49399	1.78675
1658.56543	1.82399
1656.63687	1.85445
1654.70830	1.88331
1652.77974	1.93414
1650.85117	1.98523
1648.92261	2.00460
1646.99404	2.03094
1645.06548	2.06497
1643.13691	2.08891
1641.20835	2.10405
1639.27979	2.11718
1637.35122	2.12631
1635.42266	2.12949
1633.49409	2.12659
1631.56553	2.11812
1629.63696	2.10489
1627.70840	2.08073
1625.77983	2.05379
1623.85127	2.02180
1621.92271	1.98075
1619.99414	1.94220
1618.06558	1.90265
1616.13701	1.84457
1614.20845	1.78650
1612.27988	1.74367
1610.35132	1.69801
1608.42275	1.64714
1606.49419	1.59636
1604.56562	1.54912
1602.63706	1.50322
1600.70850	1.45750
1598.77993	1.41445
1596.85137	1.37406
1594.92280	1.33506
1592.99424	1.29698
1591.06567	1.26196
1589.13711	1.22919
1587.20854	1.19825
1585.27998	1.16907
1583.35142	1.14104
1581.42285	1.11470
1579.49429	1.09179
1577.56572	1.07071
1575.63716	1.04415
1573.70859	1.02021
1571.78003	1.00414
1569.85146	0.98637
1567.92290	0.96593
1565.99434	0.94957
1564.06577	0.93518
1562.13721	0.92301
1560.20864	0.91269
1558.28008	0.89324
1556.35151	0.87455
1554.42295	0.86372
1552.49438	0.85326
1550.56582	0.84298
1548.63726	0.83282
1546.70869	0.82396
1544.78013	0.81570
1542.85156	0.80732
1540.92300	0.79834
1538.99443	0.78663
1537.06587	0.77848
1535.13730	0.77310
1533.20874	0.76625
1531.28018	0.75894
1529.35161	0.75339
1527.42305	0.74774
1525.49448	0.74158
1523.56592	0.73614
1521.63735	0.73049
1519.70879	0.72422
1517.78022	0.71916
1515.85166	0.71413
1513.92310	0.70914
1511.99453	0.70493
1510.06597	0.70106
1508.13740	0.69737
1506.20884	0.69248
1504.28027	0.68822
1502.35171	0.68542
1500.42314	0.68284
1498.49458	0.68004
1496.56602	0.67664
1494.63745	0.67313
1492.70889	0.67030
1490.78032	0.66784
1488.85176	0.66476
1486.92319	0.66123
1484.99463	0.65808
1483.06606	0.65535
1481.13750	0.65271
1479.20894	0.65013
1477.28037	0.64774
1475.35181	0.64543
1473.42324	0.64300
1471.49468	0.63969
1469.56611	0.63641
1467.63755	0.63387
1465.70898	0.63160
1463.78042	0.62928
1461.85186	0.62721
1459.92329	0.62553
1457.99473	0.62366
1456.06616	0.62085
1454.13760	0.61816
1452.20903	0.61610
1450.28047	0.61418
1448.35190	0.61249
1446.42334	0.61098
1444.49478	0.60950
1442.56621	0.60803
1440.63765	0.60648
1438.70908	0.60491
1436.78052	0.60324
1434.85195	0.60170
1432.92339	0.60047
1430.99482	0.59922
1429.06626	0.59766
1427.13770	0.59605
1425.20913	0.59457
1423.28057	0.59312
1421.35200	0.59169
1419.42344	0.59026
1417.49487	0.58879
1415.56631	0.58729
1413.63774	0.58579
1411.70918	0.58419
1409.78062	0.58261
1407.85205	0.58129
1405.92349	0.58014
1403.99492	0.57884
1402.06636	0.57744
1400.13779	0.57631
1398.20923	0.57526
1396.28066	0.57396
1394.35210	0.57259
1392.42354	0.57133
1390.49497	0.57005
1388.56641	0.56879
1386.63784	0.56764
1384.70928	0.56658
1382.78071	0.56558
1380.85215	0.56461
1378.92358	0.56369
1376.99502	0.56275
1375.06646	0.56180
1373.13789	0.56084
1371.20933	0.55974
1369.28076	0.55864
1367.35220	0.55770
1365.42363	0.55678
1363.49507	0.55575
1361.56650	0.55484
1359.63794	0.55414
1357.70937	0.55340
1355.78081	0.55248
1353.85225	0.55150
1351.92368	0.55052
1349.99512	0.54961
1348.06655	0.54878
1346.13799	0.54799
1344.20942	0.54721
1342.28086	0.54634
1340.35229	0.54538
1338.42373	0.54434
1336.49517	0.54335
1334.56660	0.54253
1332.63804	0.54172
1330.70947	0.54076
1328.78091	0.53969
1326.85234	0.53866
1324.92378	0.53772
1322.99521	0.53693
1321.06665	0.53620
1319.13809	0.53524
1317.20952	0.53408
1315.28096	0.53321
1313.35239	0.53266
1311.42383	0.53196
1309.49526	0.53098
1307.56670	0.52999
1305.63813	0.52913
1303.70957	0.52834
1301.78101	0.52760
1299.85244	0.52679
1297.92388	0.52587
1295.99531	0.52499
1294.06675	0.52422
1292.13818	0.52354
1290.20962	0.52287
1288.28105	0.52212
1286.35249	0.52133
1284.42393	0.52063
1282.49536	0.51995
1280.56680	0.51927
1278.63823	0.51854
1276.70967	0.51766
1274.78110	0.51688
1272.85254	0.51630
1270.92397	0.51558
1268.99541	0.51460
1267.06685	0.51375
1265.13828	0.51310
1263.20972	0.51234
1261.28115	0.51155
1259.35259	0.51088
1257.42402	0.51011
1255.49546	0.50930
1253.56689	0.50869
1251.63833	0.50823
1249.70977	0.50769
1247.78120	0.50700
1245.85264	0.50629
1243.92407	0.50563
1241.99551	0.50487
1240.06694	0.50395
1238.13838	0.50314
1236.20981	0.50249
1234.28125	0.50174
1232.35269	0.50090
1230.42412	0.50009
1228.49556	0.49926
1226.56699	0.49840
1224.63843	0.49760
1222.70986	0.49693
1220.78130	0.49626
1218.85273	0.49537
1216.92417	0.49427
1214.99561	0.49333
1213.06704	0.49254
1211.13848	0.49166
1209.20991	0.49075
1207.28135	0.48989
1205.35278	0.48900
1203.42422	0.48815
1201.49565	0.48739
1199.56709	0.48656
1197.63853	0.48551
1195.70996	0.48436
1193.78140	0.48324
1191.85283	0.48216
1189.92427	0.48116
1187.99570	0.48033
1186.06714	0.47953
1184.13857	0.47862
1182.21001	0.47763
1180.28145	0.47660
1178.35288	0.47554
1176.42432	0.47452
1174.49575	0.47357
1172.56719	0.47263
1170.63862	0.47170
1168.71006	0.47093
1166.78149	0.47013
1164.85293	0.46915
1162.92437	0.46809
1160.99580	0.46714
1159.06724	0.46644
1157.13867	0.46589
1155.21011	0.46531
1153.28154	0.46469
1151.35298	0.46398
1149.42441	0.46301
1147.49585	0.46186
1145.56729	0.46094
1143.63872	0.46036
1141.71016	0.45972
1139.78159	0.45891
1137.85303	0.45820
1135.92446	0.45758
1133.99590	0.45676
1132.06733	0.45571
1130.13877	0.45459
1128.21021	0.45366
1126.28164	0.45308
1124.35308	0.45265
1122.42451	0.45211
1120.49595	0.45147
1118.56738	0.45081
1116.63882	0.45018
1114.71025	0.44953
1112.78169	0.44893
1110.85312	0.44865
1108.92456	0.44856
1106.99600	0.44825
1105.06743	0.44779
1103.13887	0.44730
1101.21030	0.44685
1099.28174	0.44652
1097.35317	0.44613
1095.42461	0.44571
1093.49604	0.44547
1091.56748	0.44529
1089.63892	0.44495
1087.71035	0.44442
1085.78179	0.44389
1083.85322	0.44374
1081.92466	0.44390
1079.99609	0.44374
1078.06753	0.44325
1076.13896	0.44309
1074.21040	0.44320
1072.28184	0.44321
1070.35327	0.44323
1068.42471	0.44327
1066.49614	0.44315
1064.56758	0.44302
1062.63901	0.44326
1060.71045	0.44385
1058.78188	0.44436
1056.85332	0.44464
1054.92476	0.44492
1052.99619	0.44530
1051.06763	0.44570
1049.13906	0.44612
1047.21050	0.44658
1045.28193	0.44704
1043.35337	0.44736
1041.42480	0.44765
1039.49624	0.44818
1037.56768	0.44888
1035.63911	0.44971
1033.71055	0.45074
1031.78198	0.45181
1029.85342	0.45286
1027.92485	0.45389
1025.99629	0.45487
1024.06772	0.45592
1022.13916	0.45702
1020.21060	0.45801
1018.28203	0.45900
1016.35347	0.46004
1014.42490	0.46127
1012.49634	0.46279
1010.56777	0.46434
1008.63921	0.46586
1006.71064	0.46749
1004.78208	0.46930
1002.85352	0.47134
1000.92495	0.47344
998.99639	0.47541
997.06782	0.47730
995.13926	0.47933
993.21069	0.48167
991.28213	0.48412
989.35356	0.48642
987.42500	0.48871
985.49644	0.49126
983.56787	0.49411
981.63931	0.49706
979.71074	0.49998
977.78218	0.50294
975.85361	0.50605
973.92505	0.50928
971.99648	0.51272
970.06792	0.51634
968.13936	0.52001
966.21079	0.52375
964.28223	0.52761
962.35366	0.53169
960.42510	0.53593
958.49653	0.54031
956.56797	0.54494
954.63940	0.54970
952.71084	0.55439
950.78228	0.55916
948.85371	0.56417
946.92515	0.56948
944.99658	0.57490
943.06802	0.58053
941.13945	0.58657
939.21089	0.59250
937.28232	0.59854
935.35376	0.60562
933.42520	0.61309
931.49663	0.61982
929.56807	0.62618
927.63950	0.63269
925.71094	0.63952
923.78237	0.64722
921.85381	0.65565
919.92524	0.66356
917.99668	0.67076
916.06812	0.67838
914.13955	0.68710
912.21099	0.69674
910.28242	0.70606
908.35386	0.71452
906.42529	0.72334
904.49673	0.73312
902.56816	0.74254
900.63960	0.75129
898.71104	0.76144
896.78247	0.77302
894.85391	0.78293
892.92534	0.79100
890.99678	0.80016
889.06821	0.81107
887.13965	0.82227
885.21108	0.83301
883.28252	0.84357
881.35396	0.85493
879.42539	0.86690
877.49683	0.87836
875.56826	0.88957
873.63970	0.90141
871.71113	0.91378
869.78257	0.92513
867.85400	0.93551
865.92544	0.94688
863.99687	0.95899
862.06831	0.97092
860.13975	0.98318
858.21118	0.99579
856.28262	1.00779
854.35405	1.01850
852.42549	1.02830
850.49692	1.03879
848.56836	1.04994
846.63979	1.06034
844.71123	1.07281
842.78267	1.08956
840.85410	1.10575
838.92554	1.11732
836.99697	1.12761
835.06841	1.13736
833.13984	1.14409
831.21128	1.15326
829.28271	1.16937
827.35415	1.18743
825.42559	1.20003
823.49702	1.20766
821.56846	1.22049
819.63989	1.24238
817.71133	1.26223
815.78276	1.27539
813.85420	1.29145
811.92563	1.30813
809.99707	1.32045
808.06851	1.33927
806.13994	1.36014
804.21138	1.37588
802.28281	1.39946
800.35425	1.42596
798.42568	1.46566
796.49712	1.52013
794.56855	1.48933
792.63999	1.40796
790.71143	1.41236
788.78286	1.47987
786.85430	1.53047
784.92573	1.62810
782.99717	1.68142
781.06860	1.61224
779.14004	1.61632
777.21147	1.62506
775.28291	1.59110
773.35435	1.62765
771.42578	1.69208
769.49722	1.55535
767.56865	1.48319
765.64009	1.56367
763.71152	1.93485
761.78296	4.57070
759.85439	4.55913
757.92583	1.45222
755.99727	1.32325
754.06870	1.44142
752.14014	1.43747
750.21157	1.31134
748.28301	1.33355
746.35444	1.47912
744.42588	1.48325
742.49731	1.18720
740.56875	0.96861
738.64019	0.91104
736.71162	0.88274
734.78306	0.75774
732.85449	0.59390
730.92593	0.46709
728.99736	0.36581
727.06880	0.23390
725.14023	0.16166
723.21167	0.25074
721.28311	0.35947
719.35454	0.26723
717.42598	0.26828
715.49741	0.23166
713.56885	0.14508
711.64028	0.18538
709.71172	0.41024
707.78315	0.53971
705.85459	0.53613
703.92603	0.55521
701.99746	0.49127
700.06890	0.45068
698.14033	0.55935
696.21177	0.65440
694.28320	0.58819
692.35464	0.45961
690.42607	0.34795
688.49751	0.35495
686.56895	0.48870
684.64038	0.61591
682.71182	0.55430
680.78325	0.48612
678.85469	0.48512
676.92612	0.53599
674.99756	0.55097
673.06899	0.51435
671.14043	0.50294
669.21187	0.44512
667.28330	0.34398
665.35474	0.27239
663.42617	0.29260
661.49761	0.44101
659.56904	0.62566
657.64048	0.65929
655.71191	0.57502
653.78335	0.46769
651.85479	0.36760
649.92622	0.27709
647.99766	0.21802
646.06909	0.16337
644.14053	0.13264
642.21196	0.21185
640.28340	0.37244
638.35483	0.51033
636.42627	0.59413
634.49771	0.55778
632.56914	0.48359
630.64058	0.39232
628.71201	0.34960
626.78345	0.38507
624.85488	0.38729
622.92632	0.31913
620.99775	0.29426
619.06919	0.34575
617.14062	0.42400
615.21206	0.46786
613.28350	0.44995
611.35493	0.40329
609.42637	0.36343
607.49780	0.40265
605.56924	0.50135
603.64067	0.48804
601.71211	0.38753
599.78354	0.32403
597.85498	0.32591
595.92642	0.36293
593.99785	0.38271
592.06929	0.34599
590.14072	0.30991
588.21216	0.35082
586.28359	0.41323
584.35503	0.36019
582.42646	0.34090
580.49790	0.42530
578.56934	0.44083
576.64077	0.36280
574.71221	0.32377
572.78364	0.30138
570.85508	0.25455
568.92651	0.26189
566.99795	0.38387
565.06938	0.53044
563.14082	0.50308
561.21226	0.39405
559.28369	0.29273
557.35513	0.21535
555.42656	0.18650
553.49800	0.19456
551.56943	0.21794
549.64087	0.23922
547.71230	0.22278
545.78374	0.19929
543.85518	0.21208
541.92661	0.23766
539.99805	0.26702
538.06948	0.29878
536.14092	0.31701
534.21235	0.30783
532.28379	0.23838
530.35522	0.16491
528.42666	0.18593
526.49810	0.26882
524.56953	0.29831
522.64097	0.25314
520.71240	0.21120
518.78384	0.20620
516.85527	0.20252
514.92671	0.18871
512.99814	0.19248
511.06958	0.24820
509.14102	0.32318
507.21245	0.30145
505.28389	0.26870
503.35532	0.31060
501.42676	0.32186
499.49819	0.26127
