3997.91411	0.07253
3995.98555	0.07287
3994.05698	0.07337
3992.12842	0.07432
3990.19985	0.07495
3988.27129	0.07492
3986.34272	0.07499
3984.41416	0.07537
3982.48560	0.07567
3980.55703	0.07562
3978.62847	0.07532
3976.69990	0.07532
3974.77134	0.07587
3972.84277	0.07661
3970.91421	0.07722
3968.98564	0.07748
3967.05708	0.07725
3965.12852	0.07676
3963.19995	0.07656
3961.27139	0.07695
3959.34282	0.07761
3957.41426	0.07793
3955.48569	0.07787
3953.55713	0.07795
3951.62856	0.07829
3949.70000	0.07866
3947.77144	0.07896
3945.84287	0.07888
3943.91431	0.07868
3941.98574	0.07887
3940.05718	0.07879
3938.12861	0.07829
3936.20005	0.07823
3934.27148	0.07904
3932.34292	0.08034
3930.41436	0.08107
3928.48579	0.08048
3926.55723	0.07959
3924.62866	0.07953
3922.70010	0.07972
3920.77153	0.07963
3918.84297	0.07999
3916.91440	0.08045
3914.98584	0.07950
3913.05728	0.07764
3911.12871	0.07663
3909.20015	0.07673
3907.27158	0.07757
3905.34302	0.07943
3903.41445	0.08193
3901.48589	0.08356
3899.55732	0.08358
3897.62876	0.08145
3895.70020	0.07874
3893.77163	0.07837
3891.84307	0.08045
3889.91450	0.08181
3887.98594	0.08087
3886.05737	0.08035
3884.12881	0.08106
3882.20024	0.08189
3880.27168	0.08282
3878.34312	0.08216
3876.41455	0.08035
3874.48599	0.08078
3872.55742	0.08321
3870.62886	0.08558
3868.70029	0.08674
3866.77173	0.08591
3864.84316	0.08556
3862.91460	0.08617
3860.98604	0.08513
3859.05747	0.08366
3857.12891	0.08428
3855.20034	0.08745
3853.27178	0.09249
3851.34321	0.09368
3849.41465	0.08939
3847.48608	0.08589
3845.55752	0.08503
3843.62896	0.08705
3841.70039	0.09078
3839.77183	0.09409
3837.84326	0.09588
3835.91470	0.09553
3833.98613	0.09400
3832.05757	0.09269
3830.12900	0.09188
3828.20044	0.09198
3826.27187	0.09335
3824.34331	0.09515
3822.41475	0.09773
3820.48618	0.10186
3818.55762	0.10367
3816.62905	0.10277
3814.70049	0.10107
3812.77192	0.09842
3810.84336	0.09722
3808.91479	0.09878
3806.98623	0.10247
3805.05767	0.10567
3803.12910	0.10753
3801.20054	0.11024
3799.27197	0.11190
3797.34341	0.11115
3795.41484	0.10993
3793.48628	0.10850
3791.55771	0.10780
3789.62915	0.10816
3787.70059	0.10922
3785.77202	0.11125
3783.84346	0.11356
3781.91489	0.11522
3779.98633	0.11734
3778.05776	0.11965
3776.12920	0.12003
3774.20063	0.12007
3772.27207	0.12206
3770.34351	0.12606
3768.41494	0.13012
3766.48638	0.13215
3764.55781	0.13315
3762.62925	0.13424
3760.70068	0.13676
3758.77212	0.14111
3756.84355	0.14460
3754.91499	0.14663
3752.98643	0.15030
3751.05786	0.15710
3749.12930	0.16342
3747.20073	0.16534
3745.27217	0.16681
3743.34360	0.16953
3741.41504	0.17146
3739.48647	0.17374
3737.55791	0.17854
3735.62935	0.18641
3733.70078	0.19400
3731.77222	0.19708
3729.84365	0.19844
3727.91509	0.20129
3725.98652	0.20679
3724.05796	0.21372
3722.12939	0.21988
3720.20083	0.22533
3718.27227	0.23060
3716.34370	0.23618
3714.41514	0.24330
3712.48657	0.25455
3710.55801	0.27112
3708.62944	0.28556
3706.70088	0.29426
3704.77231	0.30328
3702.84375	0.31611
3700.91519	0.33312
3698.98662	0.35109
3697.05806	0.36835
3695.12949	0.38688
3693.20093	0.40676
3691.27236	0.42939
3689.34380	0.45878
3687.41523	0.49238
3685.48667	0.52015
3683.55811	0.54451
3681.62954	0.57210
3679.70098	0.60452
3677.77241	0.63933
3675.84385	0.67990
3673.91528	0.73236
3671.98672	0.77464
3670.05815	0.81303
3668.12959	0.86432
3666.20103	0.90912
3664.27246	0.94720
3662.34390	0.98969
3660.41533	1.03617
3658.48677	1.08202
3656.55820	1.13044
3654.62964	1.18456
3652.70107	1.23111
3650.77251	1.27316
3648.84395	1.33158
3646.91538	1.40016
3644.98682	1.44712
3643.05825	1.48227
3641.12969	1.51940
3639.20112	1.56198
3637.27256	1.60587
3635.34399	1.64922
3633.41543	1.69319
3631.48687	1.73483
3629.55830	1.77695
3627.62974	1.83003
3625.70117	1.87741
3623.77261	1.90859
3621.84404	1.93934
3619.91548	1.97716
3617.98691	2.02437
3616.05835	2.06782
3614.12979	2.10228
3612.20122	2.13907
3610.27266	2.17701
3608.34409	2.21554
3606.41553	2.25663
3604.48696	2.29499
3602.55840	2.33003
3600.62983	2.36849
3598.70127	2.40996
3596.77271	2.45017
3594.84414	2.49074
3592.91558	2.53111
3590.98701	2.56830
3589.05845	2.60478
3587.12988	2.64911
3585.20132	2.69558
3583.27275	2.73367
3581.34419	2.76936
3579.41562	2.80808
3577.48706	2.84945
3575.55850	2.89092
3573.62993	2.93256
3571.70137	2.97444
3569.77280	3.01681
3567.84424	3.06308
3565.91567	3.11768
3563.98711	3.16563
3562.05854	3.20339
3560.12998	3.24453
3558.20142	3.28850
3556.27285	3.33043
3554.34429	3.37074
3552.41572	3.41562
3550.48716	3.46625
3548.55859	3.51491
3546.63003	3.56054
3544.70146	3.61036
3542.77290	3.66124
3540.84434	3.70573
3538.91577	3.74763
3536.98721	3.79196
3535.05864	3.84048
3533.13008	3.89023
3531.20151	3.94014
3529.27295	3.99084
3527.34438	4.04171
3525.41582	4.09156
3523.48726	4.13962
3521.55869	4.18572
3519.63013	4.22846
3517.70156	4.27128
3515.77300	4.32032
3513.84443	4.37363
3511.91587	4.42136
3509.98730	4.46505
3508.05874	4.51427
3506.13018	4.56445
3504.20161	4.60658
3502.27305	4.64709
3500.34448	4.69665
3498.41592	4.75037
3496.48735	4.80092
3494.55879	4.85037
3492.63022	4.90394
3490.70166	4.95897
3488.77310	5.00565
3486.84453	5.04409
3484.91597	5.08546
3482.98740	5.13166
3481.05884	5.17965
3479.13027	5.23140
3477.20171	5.28572
3475.27314	5.33912
3473.34458	5.39098
3471.41602	5.43675
3469.48745	5.47514
3467.55889	5.51833
3465.63032	5.56845
3463.70176	5.61922
3461.77319	5.67140
3459.84463	5.72494
3457.91606	5.77726
3455.98750	5.82478
3454.05894	5.86702
3452.13037	5.91493
3450.20181	5.97506
3448.27324	6.03330
3446.34468	6.07155
3444.41611	6.10114
3442.48755	6.15198
3440.55898	6.21434
3438.63042	6.27119
3436.70186	6.32657
3434.77329	6.37777
3432.84473	6.41681
3430.91616	6.45240
3428.98760	6.50313
3427.05903	6.55944
3425.13047	6.62406
3423.20190	6.69332
3421.27334	6.74056
3419.34478	6.76740
3417.41621	6.79928
3415.48765	6.85852
3413.55908	6.93271
3411.63052	6.98767
3409.70195	7.00890
3407.77339	7.03579
3405.84482	7.09625
3403.91626	7.16290
3401.98770	7.20199
3400.05913	7.21959
3398.13057	7.25188
3396.20200	7.30723
3394.27344	7.34578
3392.34487	7.36930
3390.41631	7.43318
3388.48774	7.50430
3386.55918	7.53793
3384.63062	7.53563
3382.70205	7.51041
3380.77349	7.51709
3378.84492	7.57701
3376.91636	7.62064
3374.98779	7.62781
3373.05923	7.66155
3371.13066	7.69278
3369.20210	7.72652
3367.27354	7.79047
3365.34497	7.84840
3363.41641	7.91127
3361.48784	7.96570
3359.55928	7.95133
3357.63071	7.90712
3355.70215	7.90644
3353.77358	7.91550
3351.84502	7.88881
3349.91646	7.83862
3347.98789	7.86544
3346.05933	7.96778
3344.13076	8.00123
3342.20220	7.98515
3340.27363	7.98383
3338.34507	7.99106
3336.41650	8.02788
3334.48794	8.04828
3332.55937	7.98145
3330.63081	7.92688
3328.70225	7.94156
3326.77368	7.98892
3324.84512	8.00992
3322.91655	7.95263
3320.98799	7.92848
3319.05942	8.02696
3317.13086	8.19546
3315.20229	8.31186
3313.27373	8.33976
3311.34517	8.27407
3309.41660	8.11325
3307.48804	8.00477
3305.55947	8.03430
3303.63091	8.11451
3301.70234	8.15922
3299.77378	8.19307
3297.84521	8.22371
3295.91665	8.27307
3293.98809	8.28679
3292.05952	8.22943
3290.13096	8.18937
3288.20239	8.13988
3286.27383	8.07261
3284.34526	8.08082
3282.41670	8.17876
3280.48813	8.18293
3278.55957	8.04488
3276.63101	7.96629
3274.70244	8.00940
3272.77388	8.09048
3270.84531	8.13641
3268.91675	8.14849
3266.98818	8.17349
3265.05962	8.21034
3263.13105	8.19503
3261.20249	8.20432
3259.27393	8.28230
3257.34536	8.27728
3255.41680	8.19988
3253.48823	8.21499
3251.55967	8.31105
3249.63110	8.34391
3247.70254	8.24412
3245.77397	8.10791
3243.84541	8.12141
3241.91685	8.26082
3239.98828	8.30824
3238.05972	8.21543
3236.13115	8.10499
3234.20259	8.04916
3232.27402	8.02693
3230.34546	8.08162
3228.41689	8.21908
3226.48833	8.23316
3224.55977	8.08064
3222.63120	7.98997
3220.70264	8.04224
3218.77407	8.10889
3216.84551	8.07622
3214.91694	7.96862
3212.98838	7.88326
3211.05981	7.89378
3209.13125	7.92202
3207.20269	7.89147
3205.27412	7.86581
3203.34556	7.88371
3201.41699	7.91022
3199.48843	7.87637
3197.55986	7.78290
3195.63130	7.70244
3193.70273	7.65183
3191.77417	7.62291
3189.84561	7.61415
3187.91704	7.58701
3185.98848	7.51327
3184.05991	7.41574
3182.13135	7.34790
3180.20278	7.31148
3178.27422	7.26566
3176.34565	7.23227
3174.41709	7.20938
3172.48853	7.16078
3170.55996	7.08713
3168.63140	6.99252
3166.70283	6.89606
3164.77427	6.82345
3162.84570	6.78016
3160.91714	6.74595
3158.98857	6.69811
3157.06001	6.64078
3155.13145	6.57789
3153.20288	6.49182
3151.27432	6.39780
3149.34575	6.33311
3147.41719	6.28487
3145.48862	6.21948
3143.56006	6.14869
3141.63149	6.09511
3139.70293	6.03605
3137.77437	5.96268
3135.84580	5.89602
3133.91724	5.82337
3131.98867	5.73480
3130.06011	5.65292
3128.13154	5.58506
3126.20298	5.51789
3124.27441	5.44144
3122.34585	5.35827
3120.41729	5.28255
3118.48872	5.21604
3116.56016	5.14180
3114.63159	5.05716
3112.70303	4.98125
3110.77446	4.91741
3108.84590	4.85208
3106.91733	4.78227
3104.98877	4.71161
3103.06021	4.64075
3101.13164	4.56720
3099.20308	4.49325
3097.27451	4.42243
3095.34595	4.35359
3093.41738	4.28691
3091.48882	4.21992
3089.56025	4.15164
3087.63169	4.08568
3085.70312	4.02205
3083.77456	3.95808
3081.84600	3.89228
3079.91743	3.82600
3077.98887	3.76283
3076.06030	3.70263
3074.13174	3.64222
3072.20317	3.58143
3070.27461	3.52197
3068.34604	3.46332
3066.41748	3.40355
3064.48892	3.34360
3062.56035	3.28642
3060.63179	3.23187
3058.70322	3.17667
3056.77466	3.11958
3054.84609	3.06272
3052.91753	3.00853
3050.98896	2.95802
3049.06040	2.90897
3047.13184	2.85815
3045.20327	2.80646
3043.27471	2.75641
3041.34614	2.70737
3039.41758	2.65822
3037.48901	2.60989
3035.56045	2.56309
3033.63188	2.51701
3031.70332	2.47100
3029.77476	2.42554
3027.84619	2.38112
3025.91763	2.33751
3023.98906	2.29470
3022.06050	2.25315
3020.13193	2.21238
3018.20337	2.17179
3016.27480	2.13165
3014.34624	2.09254
3012.41768	2.05429
3010.48911	2.01604
3008.56055	1.97780
3006.63198	1.94014
3004.70342	1.90359
3002.77485	1.86844
3000.84629	1.83376
2998.91772	1.79890
2996.98916	1.76484
2995.06060	1.73190
2993.13203	1.69924
2991.20347	1.66711
2989.27490	1.63577
2987.34634	1.60431
2985.41777	1.57293
2983.48921	1.54296
2981.56064	1.51425
2979.63208	1.48549
2977.70352	1.45656
2975.77495	1.42807
2973.84639	1.39997
2971.91782	1.37215
2969.98926	1.34495
2968.06069	1.31827
2966.13213	1.29212
2964.20356	1.26679
2962.27500	1.24194
2960.34644	1.21760
2958.41787	1.19416
2956.48931	1.17136
2954.56074	1.14908
2952.63218	1.12703
2950.70361	1.10493
2948.77505	1.08333
2946.84648	1.06237
2944.91792	1.04146
2942.98936	1.02043
2941.06079	0.99984
2939.13223	0.97996
2937.20366	0.96027
2935.27510	0.94087
2933.34653	0.92242
2931.41797	0.90470
2929.48940	0.88691
2927.56084	0.86905
2925.63228	0.85193
2923.70371	0.83602
2921.77515	0.82063
2919.84658	0.80526
2917.91802	0.79012
2915.98945	0.77546
2914.06089	0.76134
2912.13232	0.74725
2910.20376	0.73288
2908.27520	0.71888
2906.34663	0.70583
2904.41807	0.69336
2902.48950	0.68089
2900.56094	0.66821
2898.63237	0.65552
2896.70381	0.64344
2894.77524	0.63212
2892.84668	0.62091
2890.91812	0.60951
2888.98955	0.59826
2887.06099	0.58751
2885.13242	0.57724
2883.20386	0.56696
2881.27529	0.55656
2879.34673	0.54620
2877.41816	0.53613
2875.48960	0.52663
2873.56104	0.51734
2871.63247	0.50786
2869.70391	0.49852
2867.77534	0.48944
2865.84678	0.48033
2863.91821	0.47145
2861.98965	0.46290
2860.06108	0.45453
2858.13252	0.44639
2856.20396	0.43841
2854.27539	0.43068
2852.34683	0.42342
2850.41826	0.41636
2848.48970	0.40937
2846.56113	0.40267
2844.63257	0.39629
2842.70400	0.39023
2840.77544	0.38461
2838.84687	0.37938
2836.91831	0.37422
2834.98975	0.36902
2833.06118	0.36380
2831.13262	0.35834
2829.20405	0.35278
2827.27549	0.34746
2825.34692	0.34224
2823.41836	0.33698
2821.48979	0.33183
2819.56123	0.32674
2817.63267	0.32167
2815.70410	0.31670
2813.77554	0.31183
2811.84697	0.30723
2809.91841	0.30267
2807.98984	0.29792
2806.06128	0.29336
2804.13271	0.28908
2802.20415	0.28474
2800.27559	0.28049
2798.34702	0.27657
2796.41846	0.27270
2794.48989	0.26868
2792.56133	0.26469
2790.63276	0.26085
2788.70420	0.25723
2786.77563	0.25394
2784.84707	0.25079
2782.91851	0.24746
2780.98994	0.24397
2779.06138	0.24047
2777.13281	0.23708
2775.20425	0.23384
2773.27568	0.23085
2771.34712	0.22805
2769.41855	0.22527
2767.48999	0.22248
2765.56143	0.21967
2763.63286	0.21680
2761.70430	0.21392
2759.77573	0.21113
2757.84717	0.20847
2755.91860	0.20588
2753.99004	0.20336
2752.06147	0.20091
2750.13291	0.19858
2748.20435	0.19638
2746.27578	0.19421
2744.34722	0.19208
2742.41865	0.18996
2740.49009	0.18785
2738.56152	0.18583
2736.63296	0.18384
2734.70439	0.18182
2732.77583	0.17999
2730.84727	0.17843
2728.91870	0.17688
2726.99014	0.17504
2725.06157	0.17312
2723.13301	0.17147
2721.20444	0.17001
2719.27588	0.16849
2717.34731	0.16684
2715.41875	0.16525
2713.49019	0.16390
2711.56162	0.16266
2709.63306	0.16127
2707.70449	0.15980
2705.77593	0.15843
2703.84736	0.15710
2701.91880	0.15579
2699.99023	0.15464
2698.06167	0.15354
2696.13311	0.15238
2694.20454	0.15124
2692.27598	0.15019
2690.34741	0.14915
2688.41885	0.14816
2686.49028	0.14735
2684.56172	0.14663
2682.63315	0.14576
2680.70459	0.14478
2678.77603	0.14381
2676.84746	0.14285
2674.91890	0.14199
2672.99033	0.14130
2671.06177	0.14070
2669.13320	0.14011
2667.20464	0.13953
2665.27607	0.13886
2663.34751	0.13817
2661.41895	0.13767
2659.49038	0.13725
2657.56182	0.13670
2655.63325	0.13614
2653.70469	0.13566
2651.77612	0.13521
2649.84756	0.13473
2647.91899	0.13427
2645.99043	0.13398
2644.06187	0.13383
2642.13330	0.13354
2640.20474	0.13314
2638.27617	0.13280
2636.34761	0.13252
2634.41904	0.13232
2632.49048	0.13214
2630.56191	0.13192
2628.63335	0.13170
2626.70479	0.13161
2624.77622	0.13163
2622.84766	0.13160
2620.91909	0.13149
2618.99053	0.13146
2617.06196	0.13157
2615.13340	0.13175
2613.20483	0.13186
2611.27627	0.13184
2609.34771	0.13186
2607.41914	0.13206
2605.49058	0.13226
2603.56201	0.13232
2601.63345	0.13232
2599.70488	0.13242
2597.77632	0.13258
2595.84775	0.13270
2593.91919	0.13288
2591.99062	0.13321
2590.06206	0.13361
2588.13350	0.13404
2586.20493	0.13448
2584.27637	0.13493
2582.34780	0.13529
2580.41924	0.13553
2578.49067	0.13586
2576.56211	0.13640
2574.63354	0.13698
2572.70498	0.13744
2570.77642	0.13782
2568.84785	0.13824
2566.91929	0.13867
2564.99072	0.13908
2563.06216	0.13971
2561.13359	0.14047
2559.20503	0.14110
2557.27646	0.14163
2555.34790	0.14215
2553.41934	0.14270
2551.49077	0.14338
2549.56221	0.14419
2547.63364	0.14492
2545.70508	0.14544
2543.77651	0.14596
2541.84795	0.14666
2539.91938	0.14747
2537.99082	0.14821
2536.06226	0.14882
2534.13369	0.14945
2532.20513	0.15012
2530.27656	0.15079
2528.34800	0.15162
2526.41943	0.15257
2524.49087	0.15346
2522.56230	0.15438
2520.63374	0.15532
2518.70518	0.15624
2516.77661	0.15711
2514.84805	0.15791
2512.91948	0.15871
2510.99092	0.15952
2509.06235	0.16030
2507.13379	0.16115
2505.20522	0.16209
2503.27666	0.16301
2501.34810	0.16391
2499.41953	0.16488
2497.49097	0.16583
2495.56240	0.16664
2493.63384	0.16733
2491.70527	0.16805
2489.77671	0.16898
2487.84814	0.17006
2485.91958	0.17108
2483.99102	0.17205
2482.06245	0.17300
2480.13389	0.17385
2478.20532	0.17476
2476.27676	0.17580
2474.34819	0.17687
2472.41963	0.17783
2470.49106	0.17866
2468.56250	0.17953
2466.63394	0.18051
2464.70537	0.18152
2462.77681	0.18253
2460.84824	0.18361
2458.91968	0.18474
2456.99111	0.18586
2455.06255	0.18687
2453.13398	0.18782
2451.20542	0.18879
2449.27686	0.18990
2447.34829	0.19116
2445.41973	0.19244
2443.49116	0.19355
2441.56260	0.19451
2439.63403	0.19557
2437.70547	0.19679
2435.77690	0.19793
2433.84834	0.19894
2431.91978	0.19994
2429.99121	0.20103
2428.06265	0.20219
2426.13408	0.20342
2424.20552	0.20468
2422.27695	0.20584
2420.34839	0.20689
2418.41982	0.20804
2416.49126	0.20927
2414.56270	0.21048
2412.63413	0.21166
2410.70557	0.21286
2408.77700	0.21410
2406.84844	0.21541
2404.91987	0.21672
2402.99131	0.21798
2401.06274	0.21926
2399.13418	0.22054
2397.20562	0.22184
2395.27705	0.22319
2393.34849	0.22455
2391.41992	0.22589
2389.49136	0.22733
2387.56279	0.22922
2385.63423	0.23180
2383.70566	0.23504
2381.77710	0.23902
2379.84854	0.24381
2377.91997	0.24929
2375.99141	0.25534
2374.06284	0.26223
2372.13428	0.27024
2370.20571	0.27937
2368.27715	0.28914
2366.34858	0.29839
2364.42002	0.30564
2362.49146	0.31062
2360.56289	0.31398
2358.63433	0.31504
2356.70576	0.31275
2354.77720	0.30794
2352.84863	0.30206
2350.92007	0.29578
2348.99150	0.29200
2347.06294	0.29301
2345.13437	0.29934
2343.20581	0.30822
2341.27725	0.31370
2339.34868	0.31522
2337.42012	0.31571
2335.49155	0.31591
2333.56299	0.31583
2331.63442	0.31612
2329.70586	0.31631
2327.77729	0.31613
2325.84873	0.31568
2323.92017	0.31470
2321.99160	0.31354
2320.06304	0.31261
2318.13447	0.31163
2316.20591	0.31049
2314.27734	0.30967
2312.34878	0.30958
2310.42021	0.30996
2308.49165	0.31011
2306.56309	0.30984
2304.63452	0.30980
2302.70596	0.31048
2300.77739	0.31152
2298.84883	0.31253
2296.92026	0.31349
2294.99170	0.31445
2293.06313	0.31553
2291.13457	0.31666
2289.20601	0.31779
2287.27744	0.31891
2285.34888	0.32007
2283.42031	0.32150
2281.49175	0.32349
2279.56318	0.32594
2277.63462	0.32830
2275.70605	0.33036
2273.77749	0.33242
2271.84893	0.33462
2269.92036	0.33683
2267.99180	0.33897
2266.06323	0.34100
2264.13467	0.34302
2262.20610	0.34508
2260.27754	0.34710
2258.34897	0.34912
2256.42041	0.35124
2254.49185	0.35334
2252.56328	0.35536
2250.63472	0.35743
2248.70615	0.35953
2246.77759	0.36157
2244.84902	0.36358
2242.92046	0.36568
2240.99189	0.36792
2239.06333	0.37026
2237.13477	0.37259
2235.20620	0.37485
2233.27764	0.37712
2231.34907	0.37942
2229.42051	0.38172
2227.49194	0.38404
2225.56338	0.38645
2223.63481	0.38874
2221.70625	0.39079
2219.77769	0.39290
2217.84912	0.39513
2215.92056	0.39731
2213.99199	0.39942
2212.06343	0.40154
2210.13486	0.40370
2208.20630	0.40595
2206.27773	0.40823
2204.34917	0.41040
2202.42061	0.41249
2200.49204	0.41462
2198.56348	0.41684
2196.63491	0.41895
2194.70635	0.42081
2192.77778	0.42262
2190.84922	0.42452
2188.92065	0.42642
2186.99209	0.42835
2185.06353	0.43022
2183.13496	0.43186
2181.20640	0.43345
2179.27783	0.43519
2177.34927	0.43697
2175.42070	0.43863
2173.49214	0.44021
2171.56357	0.44175
2169.63501	0.44316
2167.70645	0.44437
2165.77788	0.44558
2163.84932	0.44684
2161.92075	0.44799
2159.99219	0.44916
2158.06362	0.45043
2156.13506	0.45157
2154.20649	0.45242
2152.27793	0.45313
2150.34937	0.45381
2148.42080	0.45450
2146.49224	0.45521
2144.56367	0.45578
2142.63511	0.45621
2140.70654	0.45652
2138.77798	0.45671
2136.84941	0.45684
2134.92085	0.45698
2132.99229	0.45711
2131.06372	0.45713
2129.13516	0.45703
2127.20659	0.45687
2125.27803	0.45656
2123.34946	0.45605
2121.42090	0.45556
2119.49233	0.45512
2117.56377	0.45456
2115.63521	0.45381
2113.70664	0.45288
2111.77808	0.45189
2109.84951	0.45101
2107.92095	0.45014
2105.99238	0.44905
2104.06382	0.44777
2102.13525	0.44639
2100.20669	0.44500
2098.27812	0.44359
2096.34956	0.44210
2094.42100	0.44052
2092.49243	0.43890
2090.56387	0.43730
2088.63530	0.43568
2086.70674	0.43395
2084.77817	0.43200
2082.84961	0.42994
2080.92104	0.42793
2078.99248	0.42602
2077.06392	0.42410
2075.13535	0.42199
2073.20679	0.41967
2071.27822	0.41735
2069.34966	0.41513
2067.42109	0.41297
2065.49253	0.41074
2063.56396	0.40825
2061.63540	0.40556
2059.70684	0.40294
2057.77827	0.40049
2055.84971	0.39809
2053.92114	0.39552
2051.99258	0.39286
2050.06401	0.39025
2048.13545	0.38770
2046.20688	0.38513
2044.27832	0.38251
2042.34976	0.37985
2040.42119	0.37714
2038.49263	0.37434
2036.56406	0.37155
2034.63550	0.36885
2032.70693	0.36608
2030.77837	0.36322
2028.84980	0.36041
2026.92124	0.35767
2024.99268	0.35490
2023.06411	0.35213
2021.13555	0.34936
2019.20698	0.34665
2017.27842	0.34400
2015.34985	0.34125
2013.42129	0.33844
2011.49272	0.33571
2009.56416	0.33301
2007.63560	0.33026
2005.70703	0.32747
2003.77847	0.32473
2001.84990	0.32208
1999.92134	0.31946
1997.99277	0.31683
1996.06421	0.31438
1994.13564	0.31222
1992.20708	0.31010
1990.27852	0.30757
1988.34995	0.30485
1986.42139	0.30214
1984.49282	0.29950
1982.56426	0.29704
1980.63569	0.29469
1978.70713	0.29238
1976.77856	0.29008
1974.85000	0.28788
1972.92144	0.28581
1970.99287	0.28384
1969.06431	0.28202
1967.13574	0.28027
1965.20718	0.27819
1963.27861	0.27589
1961.35005	0.27378
1959.42148	0.27187
1957.49292	0.27008
1955.56436	0.26839
1953.63579	0.26666
1951.70723	0.26483
1949.77866	0.26316
1947.85010	0.26171
1945.92153	0.26041
1943.99297	0.25925
1942.06440	0.25795
1940.13584	0.25609
1938.20728	0.25420
1936.27871	0.25282
1934.35015	0.25170
1932.42158	0.25057
1930.49302	0.24936
1928.56445	0.24813
1926.63589	0.24702
1924.70732	0.24627
1922.77876	0.24567
1920.85020	0.24478
1918.92163	0.24379
1916.99307	0.24277
1915.06450	0.24160
1913.13594	0.24065
1911.20737	0.24011
1909.27881	0.23957
1907.35024	0.23876
1905.42168	0.23783
1903.49312	0.23710
1901.56455	0.23656
1899.63599	0.23614
1897.70742	0.23592
1895.77886	0.23572
1893.85029	0.23529
1891.92173	0.23490
1889.99316	0.23487
1888.06460	0.23459
1886.13604	0.23402
1884.20747	0.23369
1882.27891	0.23349
1880.35034	0.23331
1878.42178	0.23319
1876.49321	0.23319
1874.56465	0.23326
1872.63608	0.23362
1870.70752	0.23456
1868.77896	0.23594
1866.85039	0.23622
1864.92183	0.23527
1862.99326	0.23469
1861.06470	0.23477
1859.13613	0.23508
1857.20757	0.23533
1855.27900	0.23566
1853.35044	0.23612
1851.42187	0.23679
1849.49331	0.23767
1847.56475	0.23879
1845.63618	0.24018
1843.70762	0.24138
1841.77905	0.24160
1839.85049	0.24144
1837.92192	0.24202
1835.99336	0.24295
1834.06479	0.24385
1832.13623	0.24514
1830.20767	0.24723
1828.27910	0.24894
1826.35054	0.24979
1824.42197	0.25088
1822.49341	0.25182
1820.56484	0.25265
1818.63628	0.25385
1816.70771	0.25550
1814.77915	0.25721
1812.85059	0.25911
1810.92202	0.26138
1808.99346	0.26351
1807.06489	0.26537
1805.13633	0.26725
1803.20776	0.26969
1801.27920	0.27268
1799.35063	0.27567
1797.42207	0.27805
1795.49351	0.28056
1793.56494	0.28398
1791.63638	0.28799
1789.70781	0.29078
1787.77925	0.29265
1785.85068	0.29566
1783.92212	0.29956
1781.99355	0.30376
1780.06499	0.30808
1778.13643	0.31227
1776.20786	0.31646
1774.27930	0.32157
1772.35073	0.32839
1770.42217	0.33476
1768.49360	0.33931
1766.56504	0.34373
1764.63647	0.34873
1762.70791	0.35482
1760.77935	0.36252
1758.85078	0.36944
1756.92222	0.37639
1754.99365	0.38408
1753.06509	0.39136
1751.13652	0.40051
1749.20796	0.41180
1747.27939	0.42209
1745.35083	0.43072
1743.42227	0.44006
1741.49370	0.45076
1739.56514	0.46352
1737.63657	0.47606
1735.70801	0.48715
1733.77944	0.50416
1731.85088	0.52394
1729.92231	0.53901
1727.99375	0.55426
1726.06519	0.57093
1724.13662	0.58945
1722.20806	0.60960
1720.27949	0.62867
1718.35093	0.65166
1716.42236	0.68475
1714.49380	0.71449
1712.56523	0.73792
1710.63667	0.76114
1708.70811	0.78678
1706.77954	0.81632
1704.85098	0.85114
1702.92241	0.88172
1700.99385	0.91218
1699.06528	0.95729
1697.13672	0.99758
1695.20815	1.03745
1693.27959	1.07557
1691.35103	1.10666
1689.42246	1.14325
1687.49390	1.18162
1685.56533	1.21824
1683.63677	1.27409
1681.70820	1.33044
1679.77964	1.36580
1677.85107	1.40021
1675.92251	1.44018
1673.99395	1.48880
1672.06538	1.53153
1670.13682	1.57326
1668.20825	1.62622
1666.27969	1.66746
1664.35112	1.70134
1662.42256	1.74377
1660.49399	1.79098
1658.56543	1.82722
1656.63687	1.85701
1654.70830	1.88602
1652.77974	1.93686
1650.85117	1.99062
1648.92261	2.01510
1646.99404	2.04383
1645.06548	2.07260
1643.13691	2.09123
1641.20835	2.10510
1639.27979	2.11839
1637.35122	2.12779
1635.42266	2.13179
1633.49409	2.12851
1631.56553	2.11874
1629.63696	2.10561
1627.70840	2.08239
1625.77983	2.05515
1623.85127	2.02268
1621.92271	1.98086
1619.99414	1.94090
1618.06558	1.90194
1616.13701	1.84580
1614.20845	1.78655
1612.27988	1.74165
1610.35132	1.69583
1608.42275	1.64585
1606.49419	1.59540
1604.56562	1.54796
1602.63706	1.50188
1600.70850	1.45632
1598.77993	1.41381
1596.85137	1.37415
1594.92280	1.33599
1592.99424	1.29862
1591.06567	1.26396
1589.13711	1.23122
1587.20854	1.19995
1585.27998	1.17047
1583.35142	1.14264
1581.42285	1.11678
1579.49429	1.09431
1577.56572	1.07387
1575.63716	1.04779
1573.70859	1.02350
1571.78003	1.00757
1569.85146	0.99071
1567.92290	0.97054
1565.99434	0.95387
1564.06577	0.93963
1562.13721	0.92775
1560.20864	0.91812
1558.28008	0.90059
1556.35151	0.88254
1554.42295	0.87123
1552.49438	0.86037
1550.56582	0.84982
1548.63726	0.83935
1546.70869	0.83058
1544.78013	0.82351
1542.85156	0.81697
1540.92300	0.80960
1538.99443	0.79705
1537.06587	0.78615
1535.13730	0.77956
1533.20874	0.77247
1531.28018	0.76448
1529.35161	0.75866
1527.42305	0.75410
1525.49448	0.74951
1523.56592	0.74500
1521.63735	0.73983
1519.70879	0.73319
1517.78022	0.72724
1515.85166	0.72124
1513.92310	0.71534
1511.99453	0.71107
1510.06597	0.70842
1508.13740	0.70694
1506.20884	0.70193
1504.28027	0.69400
1502.35171	0.68915
1500.42314	0.68602
1498.49458	0.68343
1496.56602	0.68017
1494.63745	0.67610
1492.70889	0.67295
1490.78032	0.67105
1488.85176	0.66865
1486.92319	0.66469
1484.99463	0.66063
1483.06606	0.65735
1481.13750	0.65454
1479.20894	0.65190
1477.28037	0.64979
1475.35181	0.64830
1473.42324	0.64669
1471.49468	0.64285
1469.56611	0.63804
1467.63755	0.63468
1465.70898	0.63252
1463.78042	0.63027
1461.85186	0.62795
1459.92329	0.62684
1457.99473	0.62641
1456.06616	0.62379
1454.13760	0.61991
1452.20903	0.61738
1450.28047	0.61586
1448.35190	0.61470
1446.42334	0.61293
1444.49478	0.61075
1442.56621	0.60893
1440.63765	0.60752
1438.70908	0.60652
1436.78052	0.60557
1434.85195	0.60399
1432.92339	0.60225
1430.99482	0.60082
1429.06626	0.59916
1427.13770	0.59741
1425.20913	0.59618
1423.28057	0.59515
1421.35200	0.59415
1419.42344	0.59335
1417.49487	0.59174
1415.56631	0.58915
1413.63774	0.58695
1411.70918	0.58547
1409.78062	0.58427
1407.85205	0.58310
1405.92349	0.58210
1403.99492	0.58091
1402.06636	0.57939
1400.13779	0.57823
1398.20923	0.57744
1396.28066	0.57666
1394.35210	0.57533
1392.42354	0.57331
1390.49497	0.57163
1388.56641	0.57067
1386.63784	0.56954
1384.70928	0.56782
1382.78071	0.56635
1380.85215	0.56539
1378.92358	0.56454
1376.99502	0.56371
1375.06646	0.56316
1373.13789	0.56239
1371.20933	0.56109
1369.28076	0.55977
1367.35220	0.55860
1365.42363	0.55775
1363.49507	0.55735
1361.56650	0.55666
1359.63794	0.55520
1357.70937	0.55381
1355.78081	0.55294
1353.85225	0.55223
1351.92368	0.55139
1349.99512	0.55046
1348.06655	0.54944
1346.13799	0.54841
1344.20942	0.54743
1342.28086	0.54673
1340.35229	0.54649
1338.42373	0.54598
1336.49517	0.54469
1334.56660	0.54331
1332.63804	0.54225
1330.70947	0.54130
1328.78091	0.54024
1326.85234	0.53913
1324.92378	0.53813
1322.99521	0.53733
1321.06665	0.53670
1319.13809	0.53614
1317.20952	0.53539
1315.28096	0.53439
1313.35239	0.53330
1311.42383	0.53221
1309.49526	0.53126
1307.56670	0.53044
1305.63813	0.52957
1303.70957	0.52855
1301.78101	0.52751
1299.85244	0.52663
1297.92388	0.52596
1295.99531	0.52530
1294.06675	0.52446
1292.13818	0.52354
1290.20962	0.52271
1288.28105	0.52195
1286.35249	0.52123
1284.42393	0.52051
1282.49536	0.51977
1280.56680	0.51904
1278.63823	0.51828
1276.70967	0.51744
1274.78110	0.51658
1272.85254	0.51590
1270.92397	0.51537
1268.99541	0.51472
1267.06685	0.51383
1265.13828	0.51280
1263.20972	0.51186
1261.28115	0.51111
1259.35259	0.51057
1257.42402	0.51008
1255.49546	0.50936
1253.56689	0.50860
1251.63833	0.50809
1249.70977	0.50767
1247.78120	0.50710
1245.85264	0.50643
1243.92407	0.50585
1241.99551	0.50530
1240.06694	0.50457
1238.13838	0.50372
1236.20981	0.50279
1234.28125	0.50187
1232.35269	0.50102
1230.42412	0.50022
1228.49556	0.49949
1226.56699	0.49881
1224.63843	0.49807
1222.70986	0.49717
1220.78130	0.49620
1218.85273	0.49529
1216.92417	0.49446
1214.99561	0.49360
1213.06704	0.49270
1211.13848	0.49176
1209.20991	0.49084
1207.28135	0.49005
1205.35278	0.48923
1203.42422	0.48832
1201.49565	0.48749
1199.56709	0.48667
1197.63853	0.48570
1195.70996	0.48466
1193.78140	0.48368
1191.85283	0.48268
1189.92427	0.48162
1187.99570	0.48057
1186.06714	0.47957
1184.13857	0.47855
1182.21001	0.47749
1180.28145	0.47644
1178.35288	0.47538
1176.42432	0.47429
1174.49575	0.47331
1172.56719	0.47246
1170.63862	0.47164
1168.71006	0.47091
1166.78149	0.47011
1164.85293	0.46908
1162.92437	0.46816
1160.99580	0.46761
1159.06724	0.46712
1157.13867	0.46628
1155.21011	0.46523
1153.28154	0.46440
1151.35298	0.46382
1149.42441	0.46314
1147.49585	0.46232
1145.56729	0.46162
1143.63872	0.46093
1141.71016	0.46006
1139.78159	0.45910
1137.85303	0.45819
1135.92446	0.45738
1133.99590	0.45667
1132.06733	0.45595
1130.13877	0.45518
1128.21021	0.45429
1126.28164	0.45330
1124.35308	0.45246
1122.42451	0.45176
1120.49595	0.45106
1118.56738	0.45034
1116.63882	0.44961
1114.71025	0.44910
1112.78169	0.44892
1110.85312	0.44874
1108.92456	0.44840
1106.99600	0.44809
1105.06743	0.44779
1103.13887	0.44739
1101.21030	0.44707
1099.28174	0.44682
1097.35317	0.44640
1095.42461	0.44583
1093.49604	0.44545
1091.56748	0.44534
1089.63892	0.44520
1087.71035	0.44490
1085.78179	0.44462
1083.85322	0.44443
1081.92466	0.44410
1079.99609	0.44363
1078.06753	0.44324
1076.13896	0.44300
1074.21040	0.44318
1072.28184	0.44382
1070.35327	0.44441
1068.42471	0.44467
1066.49614	0.44468
1064.56758	0.44446
1062.63901	0.44435
1060.71045	0.44471
1058.78188	0.44531
1056.85332	0.44571
1054.92476	0.44589
1052.99619	0.44606
1051.06763	0.44633
1049.13906	0.44662
1047.21050	0.44706
1045.28193	0.44763
1043.35337	0.44796
1041.42480	0.44819
1039.49624	0.44880
1037.56768	0.44963
1035.63911	0.45040
1033.71055	0.45117
1031.78198	0.45200
1029.85342	0.45294
1027.92485	0.45404
1025.99629	0.45519
1024.06772	0.45624
1022.13916	0.45728
1020.21060	0.45842
1018.28203	0.45952
1016.35347	0.46059
1014.42490	0.46186
1012.49634	0.46335
1010.56777	0.46484
1008.63921	0.46633
1006.71064	0.46788
1004.78208	0.46944
1002.85352	0.47120
1000.92495	0.47321
998.99639	0.47522
997.06782	0.47716
995.13926	0.47916
993.21069	0.48142
991.28213	0.48390
989.35356	0.48648
987.42500	0.48907
985.49644	0.49155
983.56787	0.49412
981.63931	0.49684
979.71074	0.49958
977.78218	0.50247
975.85361	0.50571
973.92505	0.50919
971.99648	0.51252
970.06792	0.51575
968.13936	0.51927
966.21079	0.52316
964.28223	0.52728
962.35366	0.53129
960.42510	0.53519
958.49653	0.53946
956.56797	0.54412
954.63940	0.54869
952.71084	0.55309
950.78228	0.55770
948.85371	0.56255
946.92515	0.56739
944.99658	0.57248
943.06802	0.57827
941.13945	0.58464
939.21089	0.59100
937.28232	0.59698
935.35376	0.60297
933.42520	0.60974
931.49663	0.61717
929.56807	0.62417
927.63950	0.63083
925.71094	0.63832
923.78237	0.64647
921.85381	0.65399
919.92524	0.66093
917.99668	0.66875
916.06812	0.67776
914.13955	0.68651
912.21099	0.69412
910.28242	0.70161
908.35386	0.70985
906.42529	0.71831
904.49673	0.72727
902.56816	0.73686
900.63960	0.74601
898.71104	0.75544
896.78247	0.76607
894.85391	0.77700
892.92534	0.78759
890.99678	0.79791
889.06821	0.80824
887.13965	0.81845
885.21108	0.82860
883.28252	0.83919
881.35396	0.84967
879.42539	0.86054
877.49683	0.87304
875.56826	0.88531
873.63970	0.89506
871.71113	0.90478
869.78257	0.91654
867.85400	0.92851
865.92544	0.93995
863.99687	0.95121
862.06831	0.96225
860.13975	0.97426
858.21118	0.98805
856.28262	1.00165
854.35405	1.01370
852.42549	1.02522
850.49692	1.03645
848.56836	1.04649
846.63979	1.05631
844.71123	1.06784
842.78267	1.07850
840.85410	1.08512
838.92554	1.09130
836.99697	1.10240
835.06841	1.11631
833.13984	1.12804
831.21128	1.13944
829.28271	1.15426
827.35415	1.16879
825.42559	1.17313
823.49702	1.17170
821.56846	1.17968
819.63989	1.19486
817.71133	1.20683
815.78276	1.21953
813.85420	1.23462
811.92563	1.23846
809.99707	1.23619
808.06851	1.24608
806.13994	1.26531
804.21138	1.28044
802.28281	1.27846
800.35425	1.26554
798.42568	1.26643
796.49712	1.27589
794.56855	1.28544
792.63999	1.29626
790.71143	1.29240
788.78286	1.30635
786.85430	1.35006
784.92573	1.34717
782.99717	1.31897
781.06860	1.34739
779.14004	1.38397
777.21147	1.32898
775.28291	1.24709
773.35435	1.22589
771.42578	1.24907
769.49722	1.26602
767.56865	1.30670
765.64009	1.34979
763.71152	1.27638
761.78296	1.18038
759.85439	1.21190
757.92583	1.40935
755.99727	1.44151
754.06870	1.16802
752.14014	1.02566
750.21157	1.04147
748.28301	1.12907
746.35444	1.12637
744.42588	1.01045
742.49731	0.91933
740.56875	0.87670
738.64019	0.83849
736.71162	0.82688
734.78306	0.91102
732.85449	1.01248
730.92593	0.72437
728.99736	0.43554
727.06880	0.27368
725.14023	0.18978
723.21167	0.15855
721.28311	0.07952
719.35454	-0.07844
717.42598	-0.20735
715.49741	-0.23049
713.56885	-0.16659
711.64028	-0.17143
709.71172	-0.34186
707.78315	-0.65243
705.85459	-0.73447
703.92603	-0.26313
701.99746	-0.10812
700.06890	-0.08811
698.14033	-0.01436
696.21177	0.09808
694.28320	0.20184
692.35464	0.28959
690.42607	0.36239
688.49751	0.39612
686.56895	0.32631
684.64038	0.23424
682.71182	0.16943
680.78325	0.09753
678.85469	0.02029
676.92612	0.06294
674.99756	0.19535
673.06899	0.24942
671.14043	0.18642
669.21187	0.16578
667.28330	0.22933
665.35474	0.18576
663.42617	0.11013
661.49761	0.14535
659.56904	0.28834
657.64048	0.41959
655.71191	0.30383
653.78335	0.04398
651.85479	-0.09903
649.92622	-0.07164
647.99766	-0.03365
646.06909	-0.02760
644.14053	-0.01073
642.21196	0.02694
640.28340	0.04634
638.35483	0.06156
636.42627	0.07720
634.49771	0.06313
632.56914	0.04677
630.64058	0.09362
628.71201	0.18437
626.78345	0.22389
624.85488	0.19180
622.92632	0.14036
620.99775	0.11252
619.06919	0.11528
617.14062	0.13004
615.21206	0.15877
613.28350	0.18026
611.35493	0.14223
609.42637	0.09190
607.49780	0.07891
605.56924	0.11774
603.64067	0.18643
601.71211	0.16498
599.78354	0.09258
597.85498	0.10842
595.92642	0.11195
593.99785	0.04554
592.06929	0.01618
590.14072	0.04548
588.21216	0.07711
586.28359	0.08347
584.35503	0.09172
582.42646	0.11485
580.49790	0.13463
578.56934	0.12763
576.64077	0.15697
574.71221	0.22656
572.78364	0.24077
570.85508	0.21687
568.92651	0.16139
566.99795	0.11400
565.06938	0.10511
563.14082	0.09746
561.21226	0.09367
559.28369	0.09476
557.35513	0.10177
555.42656	0.13600
553.49800	0.17170
551.56943	0.14155
549.64087	0.07826
547.71230	0.06348
545.78374	0.08995
543.85518	0.10744
541.92661	0.11985
539.99805	0.12752
538.06948	0.13580
536.14092	0.14712
534.21235	0.17491
532.28379	0.20186
530.35522	0.13606
528.42666	0.07118
526.49810	0.07357
524.56953	0.12140
522.64097	0.19923
520.71240	0.28280
518.78384	0.30269
516.85527	0.23644
514.92671	0.16508
512.99814	0.11865
511.06958	0.08264
509.14102	0.04322
507.21245	-0.01743
505.28389	-0.05581
503.35532	-0.01127
501.42676	0.10289
499.49819	0.20129
