3997.91411	0.07092
3995.98555	0.07146
3994.05698	0.07186
3992.12842	0.07224
3990.19985	0.07259
3988.27129	0.07284
3986.34272	0.07335
3984.41416	0.07378
3982.48560	0.07383
3980.55703	0.07405
3978.62847	0.07427
3976.69990	0.07415
3974.77134	0.07414
3972.84277	0.07434
3970.91421	0.07439
3968.98564	0.07430
3967.05708	0.07445
3965.12852	0.07477
3963.19995	0.07494
3961.27139	0.07525
3959.34282	0.07581
3957.41426	0.07614
3955.48569	0.07611
3953.55713	0.07601
3951.62856	0.07628
3949.70000	0.07687
3947.77144	0.07704
3945.84287	0.07651
3943.91431	0.07629
3941.98574	0.07673
3940.05718	0.07665
3938.12861	0.07611
3936.20005	0.07616
3934.27148	0.07673
3932.34292	0.07749
3930.41436	0.07817
3928.48579	0.07803
3926.55723	0.07718
3924.62866	0.07648
3922.70010	0.07604
3920.77153	0.07571
3918.84297	0.07584
3916.91440	0.07633
3914.98584	0.07623
3913.05728	0.07545
3911.12871	0.07482
3909.20015	0.07461
3907.27158	0.07480
3905.34302	0.07580
3903.41445	0.07790
3901.48589	0.07974
3899.55732	0.07980
3897.62876	0.07843
3895.70020	0.07665
3893.77163	0.07555
3891.84307	0.07590
3889.91450	0.07653
3887.98594	0.07623
3886.05737	0.07650
3884.12881	0.07760
3882.20024	0.07806
3880.27168	0.07782
3878.34312	0.07708
3876.41455	0.07654
3874.48599	0.07719
3872.55742	0.07839
3870.62886	0.07910
3868.70029	0.07929
3866.77173	0.07909
3864.84316	0.07947
3862.91460	0.08019
3860.98604	0.07997
3859.05747	0.07955
3857.12891	0.07990
3855.20034	0.08117
3853.27178	0.08366
3851.34321	0.08529
3849.41465	0.08373
3847.48608	0.08213
3845.55752	0.08216
3843.62896	0.08356
3841.70039	0.08526
3839.77183	0.08692
3837.84326	0.08872
3835.91470	0.08955
3833.98613	0.08903
3832.05757	0.08827
3830.12900	0.08812
3828.20044	0.08870
3826.27187	0.08953
3824.34331	0.09001
3822.41475	0.09074
3820.48618	0.09268
3818.55762	0.09399
3816.62905	0.09441
3814.70049	0.09521
3812.77192	0.09516
3810.84336	0.09467
3808.91479	0.09511
3806.98623	0.09676
3805.05767	0.09873
3803.12910	0.10059
3801.20054	0.10311
3799.27197	0.10461
3797.34341	0.10435
3795.41484	0.10426
3793.48628	0.10434
3791.55771	0.10457
3789.62915	0.10534
3787.70059	0.10654
3785.77202	0.10828
3783.84346	0.11046
3781.91489	0.11237
3779.98633	0.11416
3778.05776	0.11599
3776.12920	0.11692
3774.20063	0.11762
3772.27207	0.11931
3770.34351	0.12191
3768.41494	0.12423
3766.48638	0.12561
3764.55781	0.12685
3762.62925	0.12840
3760.70068	0.13067
3758.77212	0.13405
3756.84355	0.13735
3754.91499	0.13958
3752.98643	0.14231
3751.05786	0.14743
3749.12930	0.15262
3747.20073	0.15411
3745.27217	0.15534
3743.34360	0.15815
3741.41504	0.16059
3739.48647	0.16285
3737.55791	0.16638
3735.62935	0.17225
3733.70078	0.17947
3731.77222	0.18411
3729.84365	0.18659
3727.91509	0.18960
3725.98652	0.19463
3724.05796	0.20106
3722.12939	0.20734
3720.20083	0.21375
3718.27227	0.22060
3716.34370	0.22759
3714.41514	0.23483
3712.48657	0.24439
3710.55801	0.25818
3708.62944	0.27196
3706.70088	0.28252
3704.77231	0.29284
3702.84375	0.30525
3700.91519	0.32142
3698.98662	0.33909
3697.05806	0.35573
3695.12949	0.37350
3693.20093	0.39280
3691.27236	0.41420
3689.34380	0.44186
3687.41523	0.47545
3685.48667	0.50464
3683.55811	0.52978
3681.62954	0.55694
3679.70098	0.58774
3677.77241	0.62042
3675.84385	0.65952
3673.91528	0.71204
3671.98672	0.75450
3670.05815	0.79175
3668.12959	0.84279
3666.20103	0.88942
3664.27246	0.92836
3662.34390	0.97048
3660.41533	1.01694
3658.48677	1.06334
3656.55820	1.11228
3654.62964	1.16627
3652.70107	1.21163
3650.77251	1.25163
3648.84395	1.30743
3646.91538	1.37493
3644.98682	1.42296
3643.05825	1.46011
3641.12969	1.49969
3639.20112	1.54388
3637.27256	1.58836
3635.34399	1.63138
3633.41543	1.67368
3631.48687	1.71376
3629.55830	1.75573
3627.62974	1.80984
3625.70117	1.85846
3623.77261	1.89119
3621.84404	1.92370
3619.91548	1.96154
3617.98691	2.00721
3616.05835	2.05120
3614.12979	2.08751
3612.20122	2.12541
3610.27266	2.16419
3608.34409	2.20399
3606.41553	2.24709
3604.48696	2.28706
3602.55840	2.32256
3600.62983	2.36054
3598.70127	2.40050
3596.77271	2.43876
3594.84414	2.47862
3592.91558	2.52152
3590.98701	2.56244
3589.05845	2.60008
3587.12988	2.64391
3585.20132	2.69163
3583.27275	2.73317
3581.34419	2.77242
3579.41562	2.81300
3577.48706	2.85443
3575.55850	2.89635
3573.62993	2.93929
3571.70137	2.98083
3569.77280	3.02094
3567.84424	3.06441
3565.91567	3.11766
3563.98711	3.16819
3562.05854	3.20860
3560.12998	3.25038
3558.20142	3.29516
3556.27285	3.33938
3554.34429	3.38353
3552.41572	3.43076
3550.48716	3.47998
3548.55859	3.52778
3546.63003	3.57401
3544.70146	3.62210
3542.77290	3.67025
3540.84434	3.71520
3538.91577	3.76093
3536.98721	3.80971
3535.05864	3.86025
3533.13008	3.90879
3531.20151	3.95587
3529.27295	4.00337
3527.34438	4.05186
3525.41582	4.10069
3523.48726	4.14752
3521.55869	4.19402
3519.63013	4.24284
3517.70156	4.29247
3515.77300	4.33858
3513.84443	4.38308
3511.91587	4.43073
3509.98730	4.48265
3508.05874	4.53669
3506.13018	4.58730
3504.20161	4.63287
3502.27305	4.67920
3500.34448	4.72803
3498.41592	4.77413
3496.48735	4.81826
3494.55879	4.86386
3492.63022	4.91073
3490.70166	4.95780
3488.77310	5.00428
3486.84453	5.05078
3484.91597	5.10154
3482.98740	5.15971
3481.05884	5.22308
3479.13027	5.27797
3477.20171	5.31472
3475.27314	5.34932
3473.34458	5.40116
3471.41602	5.46320
3469.48745	5.51719
3467.55889	5.56503
3465.63032	5.61355
3463.70176	5.66331
3461.77319	5.71064
3459.84463	5.75047
3457.91606	5.79651
3455.98750	5.86293
3454.05894	5.93351
3452.13037	5.98776
3450.20181	6.02245
3448.27324	6.04937
3446.34468	6.08649
3444.41611	6.13446
3442.48755	6.19762
3440.55898	6.27693
3438.63042	6.35327
3436.70186	6.41355
3434.77329	6.45905
3432.84473	6.49500
3430.91616	6.52537
3428.98760	6.55997
3427.05903	6.61178
3425.13047	6.68797
3423.20190	6.76285
3421.27334	6.80964
3419.34478	6.83823
3417.41621	6.87078
3415.48765	6.90210
3413.55908	6.93263
3411.63052	6.98790
3409.70195	7.04483
3407.77339	7.08331
3405.84482	7.13994
3403.91626	7.23053
3401.98770	7.29780
3400.05913	7.32213
3398.13057	7.34606
3396.20200	7.39406
3394.27344	7.45631
3392.34487	7.46738
3390.41631	7.43818
3388.48774	7.45290
3386.55918	7.52139
3384.63062	7.56811
3382.70205	7.58730
3380.77349	7.62163
3378.84492	7.68097
3376.91636	7.78643
3374.98779	7.89720
3373.05923	7.96203
3371.13066	7.93392
3369.20210	7.86318
3367.27354	7.86051
3365.34497	7.90750
3363.41641	7.92835
3361.48784	7.94060
3359.55928	7.98628
3357.63071	7.99505
3355.70215	7.96061
3353.77358	7.98056
3351.84502	8.07579
3349.91646	8.16689
3347.98789	8.20172
3346.05933	8.21242
3344.13076	8.24264
3342.20220	8.25234
3340.27363	8.20408
3338.34507	8.15840
3336.41650	8.12028
3334.48794	8.07374
3332.55937	8.02037
3330.63081	8.00947
3328.70225	8.08980
3326.77368	8.19326
3324.84512	8.19450
3322.91655	8.14754
3320.98799	8.18826
3319.05942	8.25131
3317.13086	8.25822
3315.20229	8.25590
3313.27373	8.28068
3311.34517	8.30267
3309.41660	8.33303
3307.48804	8.38971
3305.55947	8.42073
3303.63091	8.42910
3301.70234	8.39914
3299.77378	8.32988
3297.84521	8.27716
3295.91665	8.27350
3293.98809	8.29623
3292.05952	8.34925
3290.13096	8.47512
3288.20239	8.61283
3286.27383	8.60339
3284.34526	8.46778
3282.41670	8.39674
3280.48813	8.40806
3278.55957	8.43252
3276.63101	8.45838
3274.70244	8.48934
3272.77388	8.47555
3270.84531	8.39539
3268.91675	8.33285
3266.98818	8.35355
3265.05962	8.43174
3263.13105	8.43587
3261.20249	8.37353
3259.27393	8.33350
3257.34536	8.24768
3255.41680	8.13542
3253.48823	8.15044
3251.55967	8.26389
3249.63110	8.36337
3247.70254	8.52387
3245.77397	8.69098
3243.84541	8.61066
3241.91685	8.38641
3239.98828	8.31442
3238.05972	8.39811
3236.13115	8.40629
3234.20259	8.26806
3232.27402	8.15297
3230.34546	8.13374
3228.41689	8.16211
3226.48833	8.23861
3224.55977	8.37225
3222.63120	8.44510
3220.70264	8.31549
3218.77407	8.13376
3216.84551	8.08661
3214.91694	8.12951
3212.98838	8.13239
3211.05981	8.05915
3209.13125	8.00209
3207.20269	7.97942
3205.27412	7.92671
3203.34556	7.87754
3201.41699	7.89673
3199.48843	7.95340
3197.55986	7.92365
3195.63130	7.81086
3193.70273	7.77695
3191.77417	7.81269
3189.84561	7.77859
3187.91704	7.69683
3185.98848	7.63691
3184.05991	7.58020
3182.13135	7.50713
3180.20278	7.41906
3178.27422	7.33808
3176.34565	7.27885
3174.41709	7.22266
3172.48853	7.15632
3170.55996	7.08725
3168.63140	7.04274
3166.70283	7.02066
3164.77427	6.98089
3162.84570	6.91822
3160.91714	6.85324
3158.98857	6.79339
3157.06001	6.72977
3155.13145	6.66999
3153.20288	6.61601
3151.27432	6.53809
3149.34575	6.43658
3147.41719	6.33920
3145.48862	6.25380
3143.56006	6.17079
3141.63149	6.08865
3139.70293	6.01641
3137.77437	5.95278
3135.84580	5.88886
3133.91724	5.82576
3131.98867	5.76150
3130.06011	5.69576
3128.13154	5.63623
3126.20298	5.57371
3124.27441	5.49938
3122.34585	5.41584
3120.41729	5.32988
3118.48872	5.25239
3116.56016	5.18084
3114.63159	5.11146
3112.70303	5.04883
3110.77446	4.98501
3108.84590	4.91458
3106.91733	4.84433
3104.98877	4.77244
3103.06021	4.69848
3101.13164	4.62922
3099.20308	4.56608
3097.27451	4.50519
3095.34595	4.44182
3093.41738	4.37677
3091.48882	4.31314
3089.56025	4.24894
3087.63169	4.18416
3085.70312	4.12209
3083.77456	4.06142
3081.84600	3.99948
3079.91743	3.93771
3077.98887	3.87692
3076.06030	3.81617
3074.13174	3.75720
3072.20317	3.70006
3070.27461	3.64296
3068.34604	3.58682
3066.41748	3.53179
3064.48892	3.47682
3062.56035	3.42110
3060.63179	3.36435
3058.70322	3.30814
3056.77466	3.25427
3054.84609	3.20272
3052.91753	3.15227
3050.98896	3.10186
3049.06040	3.05050
3047.13184	2.99821
3045.20327	2.94552
3043.27471	2.89327
3041.34614	2.84307
3039.41758	2.79535
3037.48901	2.74939
3035.56045	2.70484
3033.63188	2.66020
3031.70332	2.61412
3029.77476	2.56890
3027.84619	2.52566
3025.91763	2.48249
3023.98906	2.43935
3022.06050	2.39690
3020.13193	2.35484
3018.20337	2.31380
3016.27480	2.27384
3014.34624	2.23425
3012.41768	2.19484
3010.48911	2.15545
3008.56055	2.11691
3006.63198	2.07997
3004.70342	2.04414
3002.77485	2.00944
3000.84629	1.97577
2998.91772	1.94222
2996.98916	1.90868
2995.06060	1.87595
2993.13203	1.84482
2991.20347	1.81469
2989.27490	1.78446
2987.34634	1.75496
2985.41777	1.72700
2983.48921	1.69980
2981.56064	1.67274
2979.63208	1.64588
2977.70352	1.61960
2975.77495	1.59426
2973.84639	1.56951
2971.91782	1.54510
2969.98926	1.52133
2968.06069	1.49863
2966.13213	1.47646
2964.20356	1.45346
2962.27500	1.42964
2960.34644	1.40572
2958.41787	1.38170
2956.48931	1.35763
2954.56074	1.33393
2952.63218	1.31070
2950.70361	1.28763
2948.77505	1.26488
2946.84648	1.24291
2944.91792	1.22172
2942.98936	1.20110
2941.06079	1.18077
2939.13223	1.16086
2937.20366	1.14132
2935.27510	1.12139
2933.34653	1.10112
2931.41797	1.08139
2929.48940	1.06199
2927.56084	1.04226
2925.63228	1.02305
2923.70371	1.00527
2921.77515	0.98808
2919.84658	0.97085
2917.91802	0.95363
2915.98945	0.93655
2914.06089	0.91984
2912.13232	0.90304
2910.20376	0.88604
2908.27520	0.86961
2906.34663	0.85420
2904.41807	0.83955
2902.48950	0.82530
2900.56094	0.81148
2898.63237	0.79809
2896.70381	0.78492
2894.77524	0.77189
2892.84668	0.75907
2890.91812	0.74675
2888.98955	0.73509
2887.06099	0.72386
2885.13242	0.71303
2883.20386	0.70276
2881.27529	0.69293
2879.34673	0.68339
2877.41816	0.67390
2875.48960	0.66404
2873.56104	0.65383
2871.63247	0.64354
2869.70391	0.63280
2867.77534	0.62109
2865.84678	0.60864
2863.91821	0.59636
2861.98965	0.58476
2860.06108	0.57353
2858.13252	0.56257
2856.20396	0.55237
2854.27539	0.54300
2852.34683	0.53394
2850.41826	0.52515
2848.48970	0.51683
2846.56113	0.50860
2844.63257	0.50039
2842.70400	0.49274
2840.77544	0.48568
2838.84687	0.47873
2836.91831	0.47184
2834.98975	0.46530
2833.06118	0.45888
2831.13262	0.45246
2829.20405	0.44634
2827.27549	0.44043
2825.34692	0.43453
2823.41836	0.42861
2821.48979	0.42276
2819.56123	0.41696
2817.63267	0.41097
2815.70410	0.40487
2813.77554	0.39906
2811.84697	0.39356
2809.91841	0.38799
2807.98984	0.38226
2806.06128	0.37666
2804.13271	0.37138
2802.20415	0.36634
2800.27559	0.36134
2798.34702	0.35634
2796.41846	0.35141
2794.48989	0.34652
2792.56133	0.34164
2790.63276	0.33693
2788.70420	0.33245
2786.77563	0.32802
2784.84707	0.32354
2782.91851	0.31913
2780.98994	0.31492
2779.06138	0.31093
2777.13281	0.30702
2775.20425	0.30300
2773.27568	0.29893
2771.34712	0.29497
2769.41855	0.29123
2767.48999	0.28771
2765.56143	0.28418
2763.63286	0.28061
2761.70430	0.27705
2759.77573	0.27349
2757.84717	0.27015
2755.91860	0.26718
2753.99004	0.26423
2752.06147	0.26105
2750.13291	0.25786
2748.20435	0.25490
2746.27578	0.25205
2744.34722	0.24907
2742.41865	0.24614
2740.49009	0.24358
2738.56152	0.24110
2736.63296	0.23836
2734.70439	0.23563
2732.77583	0.23315
2730.84727	0.23080
2728.91870	0.22845
2726.99014	0.22609
2725.06157	0.22381
2723.13301	0.22159
2721.20444	0.21936
2719.27588	0.21725
2717.34731	0.21533
2715.41875	0.21342
2713.49019	0.21133
2711.56162	0.20927
2709.63306	0.20755
2707.70449	0.20603
2705.77593	0.20445
2703.84736	0.20277
2701.91880	0.20105
2699.99023	0.19935
2698.06167	0.19772
2696.13311	0.19630
2694.20454	0.19507
2692.27598	0.19377
2690.34741	0.19224
2688.41885	0.19067
2686.49028	0.18927
2684.56172	0.18808
2682.63315	0.18697
2680.70459	0.18577
2678.77603	0.18440
2676.84746	0.18317
2674.91890	0.18220
2672.99033	0.18120
2671.06177	0.17999
2669.13320	0.17869
2667.20464	0.17754
2665.27607	0.17660
2663.34751	0.17575
2661.41895	0.17485
2659.49038	0.17387
2657.56182	0.17291
2655.63325	0.17211
2653.70469	0.17154
2651.77612	0.17090
2649.84756	0.17005
2647.91899	0.16923
2645.99043	0.16857
2644.06187	0.16801
2642.13330	0.16742
2640.20474	0.16678
2638.27617	0.16619
2636.34761	0.16563
2634.41904	0.16504
2632.49048	0.16444
2630.56191	0.16385
2628.63335	0.16338
2626.70479	0.16306
2624.77622	0.16274
2622.84766	0.16240
2620.91909	0.16207
2618.99053	0.16169
2617.06196	0.16121
2615.13340	0.16085
2613.20483	0.16070
2611.27627	0.16061
2609.34771	0.16047
2607.41914	0.16025
2605.49058	0.16007
2603.56201	0.16000
2601.63345	0.15993
2599.70488	0.15983
2597.77632	0.15979
2595.84775	0.15975
2593.91919	0.15970
2591.99062	0.15969
2590.06206	0.15970
2588.13350	0.15982
2586.20493	0.16003
2584.27637	0.16016
2582.34780	0.16032
2580.41924	0.16059
2578.49067	0.16076
2576.56211	0.16089
2574.63354	0.16113
2572.70498	0.16150
2570.77642	0.16195
2568.84785	0.16238
2566.91929	0.16268
2564.99072	0.16289
2563.06216	0.16316
2561.13359	0.16360
2559.20503	0.16409
2557.27646	0.16444
2555.34790	0.16480
2553.41934	0.16531
2551.49077	0.16576
2549.56221	0.16613
2547.63364	0.16668
2545.70508	0.16726
2543.77651	0.16769
2541.84795	0.16820
2539.91938	0.16885
2537.99082	0.16940
2536.06226	0.16991
2534.13369	0.17051
2532.20513	0.17109
2530.27656	0.17174
2528.34800	0.17265
2526.41943	0.17353
2524.49087	0.17410
2522.56230	0.17451
2520.63374	0.17506
2518.70518	0.17580
2516.77661	0.17658
2514.84805	0.17737
2512.91948	0.17820
2510.99092	0.17900
2509.06235	0.17975
2507.13379	0.18048
2505.20522	0.18116
2503.27666	0.18180
2501.34810	0.18255
2499.41953	0.18343
2497.49097	0.18423
2495.56240	0.18500
2493.63384	0.18583
2491.70527	0.18659
2489.77671	0.18723
2487.84814	0.18786
2485.91958	0.18860
2483.99102	0.18948
2482.06245	0.19039
2480.13389	0.19125
2478.20532	0.19213
2476.27676	0.19296
2474.34819	0.19369
2472.41963	0.19445
2470.49106	0.19526
2468.56250	0.19606
2466.63394	0.19682
2464.70537	0.19756
2462.77681	0.19841
2460.84824	0.19942
2458.91968	0.20052
2456.99111	0.20153
2455.06255	0.20243
2453.13398	0.20338
2451.20542	0.20437
2449.27686	0.20528
2447.34829	0.20614
2445.41973	0.20703
2443.49116	0.20805
2441.56260	0.20916
2439.63403	0.21018
2437.70547	0.21098
2435.77690	0.21178
2433.84834	0.21277
2431.91978	0.21382
2429.99121	0.21484
2428.06265	0.21585
2426.13408	0.21690
2424.20552	0.21801
2422.27695	0.21904
2420.34839	0.21999
2418.41982	0.22107
2416.49126	0.22225
2414.56270	0.22334
2412.63413	0.22437
2410.70557	0.22550
2408.77700	0.22665
2406.84844	0.22776
2404.91987	0.22887
2402.99131	0.22995
2401.06274	0.23108
2399.13418	0.23227
2397.20562	0.23347
2395.27705	0.23463
2393.34849	0.23576
2391.41992	0.23694
2389.49136	0.23823
2387.56279	0.23964
2385.63423	0.24112
2383.70566	0.24282
2381.77710	0.24494
2379.84854	0.24741
2377.91997	0.24996
2375.99141	0.25253
2374.06284	0.25536
2372.13428	0.25866
2370.20571	0.26261
2368.27715	0.26718
2366.34858	0.27184
2364.42002	0.27574
2362.49146	0.27863
2360.56289	0.28058
2358.63433	0.28132
2356.70576	0.28134
2354.77720	0.28105
2352.84863	0.28013
2350.92007	0.27843
2348.99150	0.27725
2347.06294	0.27792
2345.13437	0.28119
2343.20581	0.28559
2341.27725	0.28833
2339.34868	0.29035
2337.42012	0.29247
2335.49155	0.29406
2333.56299	0.29509
2331.63442	0.29572
2329.70586	0.29593
2327.77729	0.29665
2325.84873	0.29789
2323.92017	0.29869
2321.99160	0.29929
2320.06304	0.30011
2318.13447	0.30095
2316.20591	0.30174
2314.27734	0.30266
2312.34878	0.30388
2310.42021	0.30542
2308.49165	0.30682
2306.56309	0.30792
2304.63452	0.30905
2302.70596	0.31021
2300.77739	0.31142
2298.84883	0.31289
2296.92026	0.31460
2294.99170	0.31629
2293.06313	0.31796
2291.13457	0.31970
2289.20601	0.32150
2287.27744	0.32324
2285.34888	0.32497
2283.42031	0.32680
2281.49175	0.32872
2279.56318	0.33067
2277.63462	0.33263
2275.70605	0.33461
2273.77749	0.33673
2271.84893	0.33891
2269.92036	0.34104
2267.99180	0.34320
2266.06323	0.34538
2264.13467	0.34749
2262.20610	0.34963
2260.27754	0.35175
2258.34897	0.35376
2256.42041	0.35569
2254.49185	0.35769
2252.56328	0.35975
2250.63472	0.36179
2248.70615	0.36382
2246.77759	0.36608
2244.84902	0.36851
2242.92046	0.37077
2240.99189	0.37286
2239.06333	0.37503
2237.13477	0.37724
2235.20620	0.37932
2233.27764	0.38143
2231.34907	0.38365
2229.42051	0.38592
2227.49194	0.38821
2225.56338	0.39047
2223.63481	0.39265
2221.70625	0.39479
2219.77769	0.39694
2217.84912	0.39912
2215.92056	0.40133
2213.99199	0.40357
2212.06343	0.40582
2210.13486	0.40797
2208.20630	0.40994
2206.27773	0.41181
2204.34917	0.41381
2202.42061	0.41599
2200.49204	0.41814
2198.56348	0.42014
2196.63491	0.42207
2194.70635	0.42402
2192.77778	0.42596
2190.84922	0.42784
2188.92065	0.42965
2186.99209	0.43148
2185.06353	0.43333
2183.13496	0.43503
2181.20640	0.43657
2179.27783	0.43809
2177.34927	0.43971
2175.42070	0.44138
2173.49214	0.44290
2171.56357	0.44426
2169.63501	0.44564
2167.70645	0.44699
2165.77788	0.44823
2163.84932	0.44935
2161.92075	0.45038
2159.99219	0.45137
2158.06362	0.45235
2156.13506	0.45320
2154.20649	0.45398
2152.27793	0.45480
2150.34937	0.45560
2148.42080	0.45624
2146.49224	0.45672
2144.56367	0.45706
2142.63511	0.45734
2140.70654	0.45766
2138.77798	0.45801
2136.84941	0.45816
2134.92085	0.45813
2132.99229	0.45822
2131.06372	0.45839
2129.13516	0.45831
2127.20659	0.45789
2125.27803	0.45734
2123.34946	0.45685
2121.42090	0.45639
2119.49233	0.45573
2117.56377	0.45494
2115.63521	0.45420
2113.70664	0.45354
2111.77808	0.45272
2109.84951	0.45167
2107.92095	0.45053
2105.99238	0.44938
2104.06382	0.44828
2102.13525	0.44712
2100.20669	0.44573
2098.27812	0.44420
2096.34956	0.44267
2094.42100	0.44109
2092.49243	0.43935
2090.56387	0.43748
2088.63530	0.43562
2086.70674	0.43385
2084.77817	0.43205
2082.84961	0.43021
2080.92104	0.42830
2078.99248	0.42622
2077.06392	0.42396
2075.13535	0.42170
2073.20679	0.41950
2071.27822	0.41729
2069.34966	0.41508
2067.42109	0.41283
2065.49253	0.41052
2063.56396	0.40816
2061.63540	0.40566
2059.70684	0.40305
2057.77827	0.40040
2055.84971	0.39776
2053.92114	0.39515
2051.99258	0.39259
2050.06401	0.39003
2048.13545	0.38743
2046.20688	0.38476
2044.27832	0.38209
2042.34976	0.37938
2040.42119	0.37663
2038.49263	0.37394
2036.56406	0.37131
2034.63550	0.36865
2032.70693	0.36594
2030.77837	0.36319
2028.84980	0.36026
2026.92124	0.35724
2024.99268	0.35438
2023.06411	0.35173
2021.13555	0.34912
2019.20698	0.34647
2017.27842	0.34375
2015.34985	0.34085
2013.42129	0.33793
2011.49272	0.33515
2009.56416	0.33245
2007.63560	0.32974
2005.70703	0.32702
2003.77847	0.32434
2001.84990	0.32177
1999.92134	0.31930
1997.99277	0.31678
1996.06421	0.31423
1994.13564	0.31179
1992.20708	0.30942
1990.27852	0.30689
1988.34995	0.30433
1986.42139	0.30180
1984.49282	0.29922
1982.56426	0.29677
1980.63569	0.29459
1978.70713	0.29251
1976.77856	0.29032
1974.85000	0.28804
1972.92144	0.28580
1970.99287	0.28370
1969.06431	0.28182
1967.13574	0.28004
1965.20718	0.27801
1963.27861	0.27578
1961.35005	0.27369
1959.42148	0.27177
1957.49292	0.26998
1955.56436	0.26837
1953.63579	0.26680
1951.70723	0.26516
1949.77866	0.26354
1947.85010	0.26202
1945.92153	0.26063
1943.99297	0.25931
1942.06440	0.25786
1940.13584	0.25622
1938.20728	0.25468
1936.27871	0.25334
1934.35015	0.25207
1932.42158	0.25086
1930.49302	0.24968
1928.56445	0.24856
1926.63589	0.24751
1924.70732	0.24656
1922.77876	0.24569
1920.85020	0.24476
1918.92163	0.24386
1916.99307	0.24296
1915.06450	0.24197
1913.13594	0.24114
1911.20737	0.24060
1909.27881	0.24006
1907.35024	0.23943
1905.42168	0.23876
1903.49312	0.23812
1901.56455	0.23753
1899.63599	0.23695
1897.70742	0.23641
1895.77886	0.23604
1893.85029	0.23584
1891.92173	0.23570
1889.99316	0.23562
1888.06460	0.23537
1886.13604	0.23497
1884.20747	0.23463
1882.27891	0.23438
1880.35034	0.23429
1878.42178	0.23432
1876.49321	0.23436
1874.56465	0.23439
1872.63608	0.23458
1870.70752	0.23503
1868.77896	0.23569
1866.85039	0.23588
1864.92183	0.23558
1862.99326	0.23544
1861.06470	0.23557
1859.13613	0.23589
1857.20757	0.23630
1855.27900	0.23681
1853.35044	0.23729
1851.42187	0.23783
1849.49331	0.23845
1847.56475	0.23921
1845.63618	0.24013
1843.70762	0.24114
1841.77905	0.24184
1839.85049	0.24226
1837.92192	0.24303
1835.99336	0.24394
1834.06479	0.24486
1832.13623	0.24600
1830.20767	0.24765
1828.27910	0.24925
1826.35054	0.25026
1824.42197	0.25144
1822.49341	0.25262
1820.56484	0.25373
1818.63628	0.25507
1816.70771	0.25669
1814.77915	0.25832
1812.85059	0.26016
1810.92202	0.26228
1808.99346	0.26426
1807.06489	0.26603
1805.13633	0.26780
1803.20776	0.26996
1801.27920	0.27253
1799.35063	0.27543
1797.42207	0.27806
1795.49351	0.28054
1793.56494	0.28343
1791.63638	0.28709
1789.70781	0.29040
1787.77925	0.29282
1785.85068	0.29579
1783.92212	0.29944
1781.99355	0.30346
1780.06499	0.30760
1778.13643	0.31171
1776.20786	0.31573
1774.27930	0.32031
1772.35073	0.32647
1770.42217	0.33279
1768.49360	0.33776
1766.56504	0.34251
1764.63647	0.34765
1762.70791	0.35365
1760.77935	0.36125
1758.85078	0.36818
1756.92222	0.37500
1754.99365	0.38256
1753.06509	0.38962
1751.13652	0.39813
1749.20796	0.40879
1747.27939	0.41920
1745.35083	0.42828
1743.42227	0.43786
1741.49370	0.44836
1739.56514	0.46077
1737.63657	0.47331
1735.70801	0.48442
1733.77944	0.50111
1731.85088	0.52072
1729.92231	0.53585
1727.99375	0.55108
1726.06519	0.56770
1724.13662	0.58606
1722.20806	0.60580
1720.27949	0.62397
1718.35093	0.64565
1716.42236	0.67799
1714.49380	0.70827
1712.56523	0.73244
1710.63667	0.75605
1708.70811	0.78186
1706.77954	0.81154
1704.85098	0.84718
1702.92241	0.87905
1700.99385	0.91068
1699.06528	0.95778
1697.13672	1.00132
1695.20815	1.04645
1693.27959	1.09061
1691.35103	1.12666
1689.42246	1.16866
1687.49390	1.21302
1685.56533	1.25566
1683.63677	1.32189
1681.70820	1.39127
1679.77964	1.43593
1677.85107	1.47875
1675.92251	1.52806
1673.99395	1.58881
1672.06538	1.64346
1670.13682	1.69760
1668.20825	1.76767
1666.27969	1.82587
1664.35112	1.87701
1662.42256	1.94228
1660.49399	2.01695
1658.56543	2.07542
1656.63687	2.12132
1654.70830	2.16152
1652.77974	2.22253
1650.85117	2.28123
1648.92261	2.30286
1646.99404	2.32802
1645.06548	2.34991
1643.13691	2.36152
1641.20835	2.36720
1639.27979	2.37347
1637.35122	2.37696
1635.42266	2.37288
1633.49409	2.36086
1631.56553	2.34416
1629.63696	2.32380
1627.70840	2.28988
1625.77983	2.25031
1623.85127	2.20378
1621.92271	2.14916
1619.99414	2.10148
1618.06558	2.05545
1616.13701	1.98784
1614.20845	1.91766
1612.27988	1.86535
1610.35132	1.81292
1608.42275	1.75690
1606.49419	1.70127
1604.56562	1.64931
1602.63706	1.59906
1600.70850	1.55075
1598.77993	1.50696
1596.85137	1.46600
1594.92280	1.42649
1592.99424	1.38867
1591.06567	1.35431
1589.13711	1.32281
1587.20854	1.29424
1585.27998	1.26814
1583.35142	1.24404
1581.42285	1.22269
1579.49429	1.20505
1577.56572	1.18974
1575.63716	1.17172
1573.70859	1.15625
1571.78003	1.14662
1569.85146	1.13773
1567.92290	1.12942
1565.99434	1.12474
1564.06577	1.12264
1562.13721	1.12198
1560.20864	1.12418
1558.28008	1.13283
1556.35151	1.14050
1554.42295	1.14439
1552.49438	1.14838
1550.56582	1.15058
1548.63726	1.14950
1546.70869	1.14488
1544.78013	1.13663
1542.85156	1.12493
1540.92300	1.10594
1538.99443	1.07322
1537.06587	1.04848
1535.13730	1.03165
1533.20874	1.00909
1531.28018	0.98470
1529.35161	0.96687
1527.42305	0.95025
1525.49448	0.93331
1523.56592	0.91949
1521.63735	0.90694
1519.70879	0.89417
1517.78022	0.88301
1515.85166	0.86944
1513.92310	0.85459
1511.99453	0.84156
1510.06597	0.83020
1508.13740	0.81978
1506.20884	0.80310
1504.28027	0.78757
1502.35171	0.77904
1500.42314	0.77214
1498.49458	0.76500
1496.56602	0.75623
1494.63745	0.74710
1492.70889	0.74025
1490.78032	0.73462
1488.85176	0.72827
1486.92319	0.72205
1484.99463	0.71693
1483.06606	0.71312
1481.13750	0.71054
1479.20894	0.70890
1477.28037	0.70821
1475.35181	0.70862
1473.42324	0.70995
1471.49468	0.71049
1469.56611	0.70911
1467.63755	0.70734
1465.70898	0.70618
1463.78042	0.70543
1461.85186	0.70498
1459.92329	0.70529
1457.99473	0.70667
1456.06616	0.70762
1454.13760	0.70562
1452.20903	0.70275
1450.28047	0.70004
1448.35190	0.69738
1446.42334	0.69429
1444.49478	0.69116
1442.56621	0.68827
1440.63765	0.68536
1438.70908	0.68238
1436.78052	0.67860
1434.85195	0.67401
1432.92339	0.67045
1430.99482	0.66827
1429.06626	0.66730
1427.13770	0.66737
1425.20913	0.66822
1423.28057	0.66953
1421.35200	0.67063
1419.42344	0.67160
1417.49487	0.67194
1415.56631	0.67101
1413.63774	0.67027
1411.70918	0.67055
1409.78062	0.67174
1407.85205	0.67352
1405.92349	0.67578
1403.99492	0.67788
1402.06636	0.67868
1400.13779	0.67820
1398.20923	0.67656
1396.28066	0.67377
1394.35210	0.66972
1392.42354	0.66482
1390.49497	0.66013
1388.56641	0.65555
1386.63784	0.65012
1384.70928	0.64408
1382.78071	0.63833
1380.85215	0.63300
1378.92358	0.62846
1376.99502	0.62518
1375.06646	0.62311
1373.13789	0.62174
1371.20933	0.62074
1369.28076	0.61994
1367.35220	0.61892
1365.42363	0.61746
1363.49507	0.61587
1361.56650	0.61426
1359.63794	0.61246
1357.70937	0.61074
1355.78081	0.60922
1353.85225	0.60796
1351.92368	0.60702
1349.99512	0.60629
1348.06655	0.60561
1346.13799	0.60481
1344.20942	0.60385
1342.28086	0.60296
1340.35229	0.60231
1338.42373	0.60167
1336.49517	0.60097
1334.56660	0.60054
1332.63804	0.60048
1330.70947	0.60074
1328.78091	0.60137
1326.85234	0.60232
1324.92378	0.60346
1322.99521	0.60468
1321.06665	0.60572
1319.13809	0.60645
1317.20952	0.60687
1315.28096	0.60700
1313.35239	0.60683
1311.42383	0.60645
1309.49526	0.60592
1307.56670	0.60535
1305.63813	0.60482
1303.70957	0.60434
1301.78101	0.60373
1299.85244	0.60280
1297.92388	0.60155
1295.99531	0.60016
1294.06675	0.59886
1292.13818	0.59763
1290.20962	0.59626
1288.28105	0.59485
1286.35249	0.59349
1284.42393	0.59204
1282.49536	0.59046
1280.56680	0.58872
1278.63823	0.58686
1276.70967	0.58523
1274.78110	0.58406
1272.85254	0.58321
1270.92397	0.58237
1268.99541	0.58154
1267.06685	0.58086
1265.13828	0.58005
1263.20972	0.57895
1261.28115	0.57785
1259.35259	0.57696
1257.42402	0.57622
1255.49546	0.57566
1253.56689	0.57548
1251.63833	0.57563
1249.70977	0.57573
1247.78120	0.57557
1245.85264	0.57522
1243.92407	0.57469
1241.99551	0.57377
1240.06694	0.57221
1238.13838	0.57002
1236.20981	0.56754
1234.28125	0.56494
1232.35269	0.56219
1230.42412	0.55948
1228.49556	0.55691
1226.56699	0.55449
1224.63843	0.55244
1222.70986	0.55070
1220.78130	0.54895
1218.85273	0.54713
1216.92417	0.54545
1214.99561	0.54406
1213.06704	0.54299
1211.13848	0.54218
1209.20991	0.54146
1207.28135	0.54070
1205.35278	0.53990
1203.42422	0.53907
1201.49565	0.53806
1199.56709	0.53689
1197.63853	0.53589
1195.70996	0.53519
1193.78140	0.53450
1191.85283	0.53366
1189.92427	0.53297
1187.99570	0.53255
1186.06714	0.53238
1184.13857	0.53254
1182.21001	0.53298
1180.28145	0.53371
1178.35288	0.53500
1176.42432	0.53681
1174.49575	0.53856
1172.56719	0.53967
1170.63862	0.54004
1168.71006	0.54002
1166.78149	0.54004
1164.85293	0.54008
1162.92437	0.54008
1160.99580	0.54018
1159.06724	0.54023
1157.13867	0.53996
1155.21011	0.53933
1153.28154	0.53829
1151.35298	0.53679
1149.42441	0.53475
1147.49585	0.53221
1145.56729	0.52943
1143.63872	0.52676
1141.71016	0.52447
1139.78159	0.52271
1137.85303	0.52147
1135.92446	0.52073
1133.99590	0.52065
1132.06733	0.52108
1130.13877	0.52145
1128.21021	0.52154
1126.28164	0.52152
1124.35308	0.52122
1122.42451	0.52072
1120.49595	0.52076
1118.56738	0.52148
1116.63882	0.52218
1114.71025	0.52259
1112.78169	0.52303
1110.85312	0.52366
1108.92456	0.52440
1106.99600	0.52532
1105.06743	0.52642
1103.13887	0.52736
1101.21030	0.52810
1099.28174	0.52907
1097.35317	0.53066
1095.42461	0.53325
1093.49604	0.53714
1091.56748	0.54218
1089.63892	0.54843
1087.71035	0.55632
1085.78179	0.56531
1083.85322	0.57408
1081.92466	0.58173
1079.99609	0.58726
1078.06753	0.58954
1076.13896	0.58862
1074.21040	0.58533
1072.28184	0.57994
1070.35327	0.57285
1068.42471	0.56509
1066.49614	0.55776
1064.56758	0.55135
1062.63901	0.54592
1060.71045	0.54134
1058.78188	0.53724
1056.85332	0.53331
1054.92476	0.52944
1052.99619	0.52594
1051.06763	0.52321
1049.13906	0.52124
1047.21050	0.52014
1045.28193	0.52010
1043.35337	0.52069
1041.42480	0.52126
1039.49624	0.52154
1037.56768	0.52153
1035.63911	0.52127
1033.71055	0.52047
1031.78198	0.51898
1029.85342	0.51703
1027.92485	0.51489
1025.99629	0.51277
1024.06772	0.51078
1022.13916	0.50912
1020.21060	0.50817
1018.28203	0.50795
1016.35347	0.50786
1014.42490	0.50734
1012.49634	0.50660
1010.56777	0.50608
1008.63921	0.50585
1006.71064	0.50597
1004.78208	0.50664
1002.85352	0.50796
1000.92495	0.51019
998.99639	0.51350
997.06782	0.51774
995.13926	0.52246
993.21069	0.52696
991.28213	0.53031
989.35356	0.53202
987.42500	0.53263
985.49644	0.53277
983.56787	0.53250
981.63931	0.53198
979.71074	0.53195
977.78218	0.53292
975.85361	0.53465
973.92505	0.53693
971.99648	0.53969
970.06792	0.54293
968.13936	0.54675
966.21079	0.55102
964.28223	0.55562
962.35366	0.56028
960.42510	0.56505
958.49653	0.57040
956.56797	0.57618
954.63940	0.58202
952.71084	0.58796
950.78228	0.59403
948.85371	0.60039
946.92515	0.60711
944.99658	0.61376
943.06802	0.61982
941.13945	0.62551
939.21089	0.63156
937.28232	0.63801
935.35376	0.64432
933.42520	0.65036
931.49663	0.65637
929.56807	0.66246
927.63950	0.66834
925.71094	0.67419
923.78237	0.68050
921.85381	0.68710
919.92524	0.69372
917.99668	0.70011
916.06812	0.70705
914.13955	0.71566
912.21099	0.72508
910.28242	0.73404
908.35386	0.74243
906.42529	0.75084
904.49673	0.75971
902.56816	0.76897
900.63960	0.77830
898.71104	0.78769
896.78247	0.79781
894.85391	0.80843
892.92534	0.81862
890.99678	0.82859
889.06821	0.83878
887.13965	0.84900
885.21108	0.85943
883.28252	0.87112
881.35396	0.88368
879.42539	0.89525
877.49683	0.90667
875.56826	0.91970
873.63970	0.93257
871.71113	0.94384
869.78257	0.95490
867.85400	0.96670
865.92544	0.97946
863.99687	0.99228
862.06831	1.00404
860.13975	1.01508
858.21118	1.02583
856.28262	1.03598
854.35405	1.04633
852.42549	1.05854
850.49692	1.07265
848.56836	1.08656
846.63979	1.09794
844.71123	1.10743
842.78267	1.11880
840.85410	1.13288
838.92554	1.14451
836.99697	1.15197
835.06841	1.16058
833.13984	1.17459
831.21128	1.19178
829.28271	1.20716
827.35415	1.22187
825.42559	1.23643
823.49702	1.24999
821.56846	1.26085
819.63989	1.26303
817.71133	1.26727
815.78276	1.28762
813.85420	1.31078
811.92563	1.32557
809.99707	1.34116
808.06851	1.35062
806.13994	1.35039
804.21138	1.36547
802.28281	1.40643
800.35425	1.44832
798.42568	1.47273
796.49712	1.48219
794.56855	1.46955
792.63999	1.44059
790.71143	1.43053
788.78286	1.45038
786.85430	1.45348
784.92573	1.46199
782.99717	1.51553
781.06860	1.53846
779.14004	1.50517
777.21147	1.50340
775.28291	1.57884
773.35435	1.70548
771.42578	1.91366
769.49722	2.27667
767.56865	2.24091
765.64009	1.82931
763.71152	1.64008
761.78296	1.54663
759.85439	1.52005
757.92583	1.59863
755.99727	1.74952
754.06870	1.60261
752.14014	1.37863
750.21157	1.31118
748.28301	1.30203
746.35444	1.33817
744.42588	1.42864
742.49731	1.30694
740.56875	1.13815
738.64019	1.08832
736.71162	0.98492
734.78306	0.80161
732.85449	0.69685
730.92593	0.69205
728.99736	0.77573
727.06880	0.88577
725.14023	0.69668
723.21167	0.52948
721.28311	0.50931
719.35454	0.44998
717.42598	0.39536
715.49741	0.42283
713.56885	0.46577
711.64028	0.48515
709.71172	0.49320
707.78315	0.40514
705.85459	0.28832
703.92603	0.24625
701.99746	0.14722
700.06890	-0.00816
698.14033	-0.02619
696.21177	0.10468
694.28320	0.19948
692.35464	0.15165
690.42607	0.12454
688.49751	0.18126
686.56895	0.30630
684.64038	0.32602
682.71182	0.29585
680.78325	0.31883
678.85469	0.35749
676.92612	0.33854
674.99756	0.27362
673.06899	0.21240
671.14043	0.20753
669.21187	0.19719
667.28330	-0.09291
665.35474	-0.51862
663.42617	-0.17644
661.49761	0.09696
659.56904	0.14704
657.64048	0.14302
655.71191	0.19893
653.78335	0.25763
651.85479	0.24799
649.92622	0.17418
647.99766	0.09658
646.06909	0.04138
644.14053	0.00845
642.21196	0.04312
640.28340	0.23646
638.35483	3.83013
636.42627	3.81856
634.49771	0.64841
632.56914	0.49999
630.64058	0.50449
628.71201	0.48388
626.78345	0.41419
624.85488	0.31061
622.92632	0.17491
620.99775	0.07537
619.06919	0.07360
617.14062	0.14785
615.21206	0.22537
613.28350	0.22150
611.35493	0.25161
609.42637	0.38935
607.49780	0.55257
605.56924	0.72797
603.64067	0.66543
601.71211	0.45809
599.78354	0.32685
597.85498	0.25619
595.92642	0.18138
593.99785	0.07350
592.06929	0.01530
590.14072	0.02696
588.21216	0.10792
586.28359	0.16963
584.35503	0.15166
582.42646	0.14769
580.49790	0.20556
578.56934	0.23887
576.64077	0.24442
574.71221	0.26571
572.78364	0.23591
570.85508	0.14411
568.92651	0.11428
566.99795	0.13982
565.06938	0.17638
563.14082	0.20126
561.21226	0.18022
559.28369	0.15984
557.35513	0.16165
555.42656	0.19037
553.49800	0.23074
551.56943	0.24387
549.64087	0.23967
547.71230	0.24597
545.78374	0.23990
543.85518	0.23394
541.92661	0.26956
539.99805	0.24004
538.06948	0.09466
536.14092	0.03116
534.21235	0.03854
532.28379	0.05987
530.35522	0.07290
528.42666	0.12393
526.49810	0.20678
524.56953	0.21115
522.64097	0.15681
520.71240	0.12573
518.78384	0.12683
516.85527	0.16638
514.92671	0.23045
512.99814	0.18881
511.06958	0.07033
509.14102	-0.00878
507.21245	0.02403
505.28389	0.13863
503.35532	0.19151
501.42676	0.18901
499.49819	0.17644
