3997.91411	0.07166
3995.98555	0.07205
3994.05698	0.07211
3992.12842	0.07224
3990.19985	0.07287
3988.27129	0.07353
3986.34272	0.07378
3984.41416	0.07377
3982.48560	0.07358
3980.55703	0.07357
3978.62847	0.07384
3976.69990	0.07390
3974.77134	0.07372
3972.84277	0.07380
3970.91421	0.07404
3968.98564	0.07404
3967.05708	0.07398
3965.12852	0.07435
3963.19995	0.07512
3961.27139	0.07577
3959.34282	0.07593
3957.41426	0.07568
3955.48569	0.07550
3953.55713	0.07542
3951.62856	0.07529
3949.70000	0.07531
3947.77144	0.07559
3945.84287	0.07593
3943.91431	0.07590
3941.98574	0.07547
3940.05718	0.07530
3938.12861	0.07562
3936.20005	0.07585
3934.27148	0.07579
3932.34292	0.07593
3930.41436	0.07625
3928.48579	0.07629
3926.55723	0.07627
3924.62866	0.07646
3922.70010	0.07649
3920.77153	0.07598
3918.84297	0.07533
3916.91440	0.07497
3914.98584	0.07465
3913.05728	0.07433
3911.12871	0.07401
3909.20015	0.07377
3907.27158	0.07405
3905.34302	0.07499
3903.41445	0.07634
3901.48589	0.07725
3899.55732	0.07729
3897.62876	0.07659
3895.70020	0.07567
3893.77163	0.07550
3891.84307	0.07622
3889.91450	0.07668
3887.98594	0.07618
3886.05737	0.07614
3884.12881	0.07691
3882.20024	0.07712
3880.27168	0.07680
3878.34312	0.07617
3876.41455	0.07583
3874.48599	0.07658
3872.55742	0.07748
3870.62886	0.07773
3868.70029	0.07804
3866.77173	0.07841
3864.84316	0.07900
3862.91460	0.07971
3860.98604	0.07945
3859.05747	0.07848
3857.12891	0.07801
3855.20034	0.07874
3853.27178	0.08085
3851.34321	0.08252
3849.41465	0.08199
3847.48608	0.08103
3845.55752	0.08050
3843.62896	0.08075
3841.70039	0.08203
3839.77183	0.08402
3837.84326	0.08575
3835.91470	0.08626
3833.98613	0.08612
3832.05757	0.08615
3830.12900	0.08661
3828.20044	0.08746
3826.27187	0.08833
3824.34331	0.08888
3822.41475	0.08989
3820.48618	0.09191
3818.55762	0.09305
3816.62905	0.09347
3814.70049	0.09428
3812.77192	0.09450
3810.84336	0.09436
3808.91479	0.09468
3806.98623	0.09588
3805.05767	0.09782
3803.12910	0.09960
3801.20054	0.10132
3799.27197	0.10238
3797.34341	0.10271
3795.41484	0.10339
3793.48628	0.10408
3791.55771	0.10494
3789.62915	0.10625
3787.70059	0.10741
3785.77202	0.10859
3783.84346	0.11022
3781.91489	0.11192
3779.98633	0.11374
3778.05776	0.11548
3776.12920	0.11625
3774.20063	0.11693
3772.27207	0.11845
3770.34351	0.12066
3768.41494	0.12288
3766.48638	0.12471
3764.55781	0.12701
3762.62925	0.12952
3760.70068	0.13185
3758.77212	0.13448
3756.84355	0.13693
3754.91499	0.13901
3752.98643	0.14181
3751.05786	0.14568
3749.12930	0.14904
3747.20073	0.15082
3745.27217	0.15279
3743.34360	0.15642
3741.41504	0.16038
3739.48647	0.16389
3737.55791	0.16816
3735.62935	0.17363
3733.70078	0.17928
3731.77222	0.18362
3729.84365	0.18738
3727.91509	0.19174
3725.98652	0.19740
3724.05796	0.20397
3722.12939	0.21048
3720.20083	0.21669
3718.27227	0.22273
3716.34370	0.22912
3714.41514	0.23613
3712.48657	0.24529
3710.55801	0.25883
3708.62944	0.27350
3706.70088	0.28494
3704.77231	0.29530
3702.84375	0.30804
3700.91519	0.32536
3698.98662	0.34383
3697.05806	0.36057
3695.12949	0.37852
3693.20093	0.39816
3691.27236	0.41961
3689.34380	0.44695
3687.41523	0.48023
3685.48667	0.50926
3683.55811	0.53442
3681.62954	0.56204
3679.70098	0.59337
3677.77241	0.62625
3675.84385	0.66545
3673.91528	0.71785
3671.98672	0.76032
3670.05815	0.79822
3668.12959	0.85041
3666.20103	0.89826
3664.27246	0.93839
3662.34390	0.98143
3660.41533	1.02782
3658.48677	1.07342
3656.55820	1.12178
3654.62964	1.17589
3652.70107	1.22157
3650.77251	1.26046
3648.84395	1.31337
3646.91538	1.38013
3644.98682	1.43103
3643.05825	1.47055
3641.12969	1.51070
3639.20112	1.55454
3637.27256	1.59880
3635.34399	1.64233
3633.41543	1.68539
3631.48687	1.72495
3629.55830	1.76555
3627.62974	1.81950
3625.70117	1.86972
3623.77261	1.90372
3621.84404	1.93610
3619.91548	1.97274
3617.98691	2.01712
3616.05835	2.06032
3614.12979	2.09637
3612.20122	2.13424
3610.27266	2.17333
3608.34409	2.21378
3606.41553	2.25628
3604.48696	2.29481
3602.55840	2.32941
3600.62983	2.36739
3598.70127	2.40891
3596.77271	2.44944
3594.84414	2.49000
3592.91558	2.53059
3590.98701	2.56836
3589.05845	2.60449
3587.12988	2.64833
3585.20132	2.69693
3583.27275	2.73803
3581.34419	2.77582
3579.41562	2.81635
3577.48706	2.85879
3575.55850	2.90135
3573.62993	2.94473
3571.70137	2.98556
3569.77280	3.02406
3567.84424	3.06728
3565.91567	3.12061
3563.98711	3.17055
3562.05854	3.21144
3560.12998	3.25332
3558.20142	3.29750
3556.27285	3.34176
3554.34429	3.38580
3552.41572	3.43228
3550.48716	3.47879
3548.55859	3.52281
3546.63003	3.56934
3544.70146	3.62002
3542.77290	3.66900
3540.84434	3.71532
3538.91577	3.76217
3536.98721	3.81060
3535.05864	3.86118
3533.13008	3.91017
3531.20151	3.95716
3529.27295	4.00497
3527.34438	4.05350
3525.41582	4.09891
3523.48726	4.14309
3521.55869	4.19250
3519.63013	4.24238
3517.70156	4.28630
3515.77300	4.32731
3513.84443	4.37300
3511.91587	4.42467
3509.98730	4.47978
3508.05874	4.53579
3506.13018	4.58716
3504.20161	4.63498
3502.27305	4.68631
3500.34448	4.73517
3498.41592	4.77570
3496.48735	4.82179
3494.55879	4.87803
3492.63022	4.93258
3490.70166	4.98193
3488.77310	5.03006
3486.84453	5.07644
3484.91597	5.11848
3482.98740	5.15721
3481.05884	5.19534
3479.13027	5.24073
3477.20171	5.30212
3475.27314	5.36501
3473.34458	5.41165
3471.41602	5.45141
3469.48745	5.49849
3467.55889	5.55577
3465.63032	5.61458
3463.70176	5.66872
3461.77319	5.71834
3459.84463	5.76485
3457.91606	5.81337
3455.98750	5.86377
3454.05894	5.91290
3452.13037	5.95865
3450.20181	6.00140
3448.27324	6.04578
3446.34468	6.10003
3444.41611	6.16704
3442.48755	6.23047
3440.55898	6.27155
3438.63042	6.30143
3436.70186	6.33528
3434.77329	6.37567
3432.84473	6.42958
3430.91616	6.50752
3428.98760	6.59745
3427.05903	6.65952
3425.13047	6.69836
3423.20190	6.73894
3421.27334	6.78348
3419.34478	6.82815
3417.41621	6.88246
3415.48765	6.94854
3413.55908	7.00175
3411.63052	7.05512
3409.70195	7.11173
3407.77339	7.14107
3405.84482	7.15500
3403.91626	7.19364
3401.98770	7.24856
3400.05913	7.29976
3398.13057	7.38070
3396.20200	7.49939
3394.27344	7.57314
3392.34487	7.56738
3390.41631	7.57232
3388.48774	7.59018
3386.55918	7.57849
3384.63062	7.56649
3382.70205	7.60550
3380.77349	7.69861
3378.84492	7.76908
3376.91636	7.79044
3374.98779	7.82513
3373.05923	7.88213
3371.13066	7.87291
3369.20210	7.80463
3367.27354	7.78548
3365.34497	7.86047
3363.41641	7.97128
3361.48784	8.06102
3359.55928	8.12110
3357.63071	8.13615
3355.70215	8.17295
3353.77358	8.25523
3351.84502	8.31470
3349.91646	8.30379
3347.98789	8.26703
3346.05933	8.25699
3344.13076	8.24849
3342.20220	8.26399
3340.27363	8.34904
3338.34507	8.42405
3336.41650	8.35949
3334.48794	8.25522
3332.55937	8.22614
3330.63081	8.22702
3328.70225	8.21567
3326.77368	8.22535
3324.84512	8.28644
3322.91655	8.34309
3320.98799	8.34689
3319.05942	8.34664
3317.13086	8.35270
3315.20229	8.32578
3313.27373	8.34492
3311.34517	8.42762
3309.41660	8.46221
3307.48804	8.43426
3305.55947	8.39220
3303.63091	8.34734
3301.70234	8.34150
3299.77378	8.37859
3297.84521	8.37700
3295.91665	8.37518
3293.98809	8.41065
3292.05952	8.43884
3290.13096	8.45920
3288.20239	8.52796
3286.27383	8.63459
3284.34526	8.64460
3282.41670	8.59183
3280.48813	8.58766
3278.55957	8.62870
3276.63101	8.62069
3274.70244	8.50494
3272.77388	8.37697
3270.84531	8.33224
3268.91675	8.33388
3266.98818	8.26890
3265.05962	8.19447
3263.13105	8.27417
3261.20249	8.48658
3259.27393	8.56345
3257.34536	8.43768
3255.41680	8.34923
3253.48823	8.39108
3251.55967	8.45967
3249.63110	8.44409
3247.70254	8.38581
3245.77397	8.36939
3243.84541	8.43506
3241.91685	8.49599
3239.98828	8.45547
3238.05972	8.37152
3236.13115	8.28034
3234.20259	8.22978
3232.27402	8.32720
3230.34546	8.48683
3228.41689	8.49452
3226.48833	8.47286
3224.55977	8.56390
3222.63120	8.65669
3220.70264	8.61834
3218.77407	8.45187
3216.84551	8.32068
3214.91694	8.28931
3212.98838	8.24357
3211.05981	8.16753
3209.13125	8.11201
3207.20269	8.06076
3205.27412	8.05030
3203.34556	8.08872
3201.41699	8.08987
3199.48843	8.07469
3197.55986	8.11597
3195.63130	8.09827
3193.70273	7.95711
3191.77417	7.82263
3189.84561	7.76873
3187.91704	7.78480
3185.98848	7.78139
3184.05991	7.70353
3182.13135	7.60508
3180.20278	7.53334
3178.27422	7.48934
3176.34565	7.43462
3174.41709	7.35411
3172.48853	7.26284
3170.55996	7.18748
3168.63140	7.16843
3166.70283	7.15805
3164.77427	7.07499
3162.84570	6.96580
3160.91714	6.88907
3158.98857	6.82222
3157.06001	6.75232
3155.13145	6.70119
3153.20288	6.64716
3151.27432	6.55645
3149.34575	6.45670
3147.41719	6.37611
3145.48862	6.30089
3143.56006	6.21896
3141.63149	6.13997
3139.70293	6.07270
3137.77437	6.01902
3135.84580	5.96771
3133.91724	5.90095
3131.98867	5.81609
3130.06011	5.72881
3128.13154	5.65857
3126.20298	5.60230
3124.27441	5.53897
3122.34585	5.45594
3120.41729	5.36232
3118.48872	5.27773
3116.56016	5.20599
3114.63159	5.13952
3112.70303	5.07662
3110.77446	5.01301
3108.84590	4.94184
3106.91733	4.86690
3104.98877	4.79465
3103.06021	4.72576
3101.13164	4.66027
3099.20308	4.59451
3097.27451	4.52344
3095.34595	4.45153
3093.41738	4.38178
3091.48882	4.31012
3089.56025	4.23815
3087.63169	4.16912
3085.70312	4.10290
3083.77456	4.04200
3081.84600	3.98379
3079.91743	3.91909
3077.98887	3.85165
3076.06030	3.79107
3074.13174	3.73345
3072.20317	3.67311
3070.27461	3.61261
3068.34604	3.55401
3066.41748	3.49607
3064.48892	3.43844
3062.56035	3.38178
3060.63179	3.32558
3058.70322	3.26835
3056.77466	3.21045
3054.84609	3.15386
3052.91753	3.09955
3050.98896	3.04712
3049.06040	2.99578
3047.13184	2.94468
3045.20327	2.89389
3043.27471	2.84400
3041.34614	2.79420
3039.41758	2.74517
3037.48901	2.69829
3035.56045	2.65207
3033.63188	2.60533
3031.70332	2.55847
3029.77476	2.51226
3027.84619	2.46746
3025.91763	2.42414
3023.98906	2.38187
3022.06050	2.34031
3020.13193	2.29895
3018.20337	2.25763
3016.27480	2.21688
3014.34624	2.17737
3012.41768	2.13933
3010.48911	2.10203
3008.56055	2.06501
3006.63198	2.02771
3004.70342	1.99033
3002.77485	1.95445
3000.84629	1.91955
2998.91772	1.88466
2996.98916	1.85055
2995.06060	1.81702
2993.13203	1.78330
2991.20347	1.75026
2989.27490	1.71869
2987.34634	1.68820
2985.41777	1.65827
2983.48921	1.62820
2981.56064	1.59804
2979.63208	1.56859
2977.70352	1.53999
2975.77495	1.51186
2973.84639	1.48399
2971.91782	1.45659
2969.98926	1.42960
2968.06069	1.40302
2966.13213	1.37705
2964.20356	1.35127
2962.27500	1.32569
2960.34644	1.30117
2958.41787	1.27754
2956.48931	1.25395
2954.56074	1.23064
2952.63218	1.20809
2950.70361	1.18609
2948.77505	1.16455
2946.84648	1.14334
2944.91792	1.12235
2942.98936	1.10171
2941.06079	1.08116
2939.13223	1.06062
2937.20366	1.04065
2935.27510	1.02136
2933.34653	1.00261
2931.41797	0.98430
2929.48940	0.96643
2927.56084	0.94930
2925.63228	0.93272
2923.70371	0.91589
2921.77515	0.89894
2919.84658	0.88293
2917.91802	0.86733
2915.98945	0.85105
2914.06089	0.83504
2912.13232	0.82006
2910.20376	0.80535
2908.27520	0.79054
2906.34663	0.77623
2904.41807	0.76284
2902.48950	0.75023
2900.56094	0.73782
2898.63237	0.72526
2896.70381	0.71290
2894.77524	0.70084
2892.84668	0.68878
2890.91812	0.67689
2888.98955	0.66529
2887.06099	0.65376
2885.13242	0.64244
2883.20386	0.63144
2881.27529	0.62066
2879.34673	0.61021
2877.41816	0.59999
2875.48960	0.58971
2873.56104	0.57947
2871.63247	0.56951
2869.70391	0.55983
2867.77534	0.55021
2865.84678	0.54073
2863.91821	0.53152
2861.98965	0.52240
2860.06108	0.51332
2858.13252	0.50442
2856.20396	0.49576
2854.27539	0.48750
2852.34683	0.47930
2850.41826	0.47105
2848.48970	0.46328
2846.56113	0.45595
2844.63257	0.44882
2842.70400	0.44208
2840.77544	0.43568
2838.84687	0.42935
2836.91831	0.42309
2834.98975	0.41699
2833.06118	0.41104
2831.13262	0.40523
2829.20405	0.39945
2827.27549	0.39354
2825.34692	0.38755
2823.41836	0.38153
2821.48979	0.37549
2819.56123	0.36973
2817.63267	0.36436
2815.70410	0.35914
2813.77554	0.35396
2811.84697	0.34872
2809.91841	0.34347
2807.98984	0.33848
2806.06128	0.33378
2804.13271	0.32911
2802.20415	0.32431
2800.27559	0.31951
2798.34702	0.31484
2796.41846	0.31030
2794.48989	0.30592
2792.56133	0.30174
2790.63276	0.29771
2788.70420	0.29360
2786.77563	0.28932
2784.84707	0.28514
2782.91851	0.28118
2780.98994	0.27729
2779.06138	0.27354
2777.13281	0.27008
2775.20425	0.26674
2773.27568	0.26326
2771.34712	0.25979
2769.41855	0.25646
2767.48999	0.25326
2765.56143	0.25018
2763.63286	0.24711
2761.70430	0.24407
2759.77573	0.24122
2757.84717	0.23838
2755.91860	0.23552
2753.99004	0.23263
2752.06147	0.22952
2750.13291	0.22648
2748.20435	0.22387
2746.27578	0.22150
2744.34722	0.21916
2742.41865	0.21681
2740.49009	0.21436
2738.56152	0.21199
2736.63296	0.20983
2734.70439	0.20775
2732.77583	0.20559
2730.84727	0.20341
2728.91870	0.20123
2726.99014	0.19901
2725.06157	0.19688
2723.13301	0.19502
2721.20444	0.19332
2719.27588	0.19170
2717.34731	0.19013
2715.41875	0.18841
2713.49019	0.18659
2711.56162	0.18494
2709.63306	0.18345
2707.70449	0.18171
2705.77593	0.17976
2703.84736	0.17809
2701.91880	0.17679
2699.99023	0.17553
2698.06167	0.17416
2696.13311	0.17271
2694.20454	0.17121
2692.27598	0.16977
2690.34741	0.16839
2688.41885	0.16705
2686.49028	0.16587
2684.56172	0.16486
2682.63315	0.16391
2680.70459	0.16287
2678.77603	0.16172
2676.84746	0.16056
2674.91890	0.15951
2672.99033	0.15860
2671.06177	0.15780
2669.13320	0.15697
2667.20464	0.15609
2665.27607	0.15516
2663.34751	0.15423
2661.41895	0.15343
2659.49038	0.15267
2657.56182	0.15199
2655.63325	0.15148
2653.70469	0.15097
2651.77612	0.15035
2649.84756	0.14964
2647.91899	0.14897
2645.99043	0.14840
2644.06187	0.14796
2642.13330	0.14752
2640.20474	0.14709
2638.27617	0.14682
2636.34761	0.14657
2634.41904	0.14621
2632.49048	0.14583
2630.56191	0.14547
2628.63335	0.14513
2626.70479	0.14478
2624.77622	0.14441
2622.84766	0.14424
2620.91909	0.14418
2618.99053	0.14404
2617.06196	0.14389
2615.13340	0.14378
2613.20483	0.14362
2611.27627	0.14347
2609.34771	0.14341
2607.41914	0.14352
2605.49058	0.14366
2603.56201	0.14360
2601.63345	0.14358
2599.70488	0.14384
2597.77632	0.14411
2595.84775	0.14417
2593.91919	0.14423
2591.99062	0.14433
2590.06206	0.14443
2588.13350	0.14462
2586.20493	0.14496
2584.27637	0.14534
2582.34780	0.14562
2580.41924	0.14584
2578.49067	0.14608
2576.56211	0.14645
2574.63354	0.14691
2572.70498	0.14724
2570.77642	0.14750
2568.84785	0.14785
2566.91929	0.14839
2564.99072	0.14909
2563.06216	0.14968
2561.13359	0.15005
2559.20503	0.15041
2557.27646	0.15094
2555.34790	0.15167
2553.41934	0.15243
2551.49077	0.15303
2549.56221	0.15352
2547.63364	0.15407
2545.70508	0.15478
2543.77651	0.15558
2541.84795	0.15616
2539.91938	0.15662
2537.99082	0.15728
2536.06226	0.15798
2534.13369	0.15870
2532.20513	0.15965
2530.27656	0.16068
2528.34800	0.16149
2526.41943	0.16207
2524.49087	0.16266
2522.56230	0.16349
2520.63374	0.16443
2518.70518	0.16527
2516.77661	0.16602
2514.84805	0.16677
2512.91948	0.16751
2510.99092	0.16823
2509.06235	0.16904
2507.13379	0.16994
2505.20522	0.17083
2503.27666	0.17177
2501.34810	0.17276
2499.41953	0.17363
2497.49097	0.17441
2495.56240	0.17520
2493.63384	0.17601
2491.70527	0.17697
2489.77671	0.17799
2487.84814	0.17887
2485.91958	0.17970
2483.99102	0.18068
2482.06245	0.18173
2480.13389	0.18264
2478.20532	0.18351
2476.27676	0.18446
2474.34819	0.18544
2472.41963	0.18650
2470.49106	0.18762
2468.56250	0.18861
2466.63394	0.18950
2464.70537	0.19046
2462.77681	0.19139
2460.84824	0.19232
2458.91968	0.19335
2456.99111	0.19434
2455.06255	0.19527
2453.13398	0.19627
2451.20542	0.19734
2449.27686	0.19837
2447.34829	0.19933
2445.41973	0.20022
2443.49116	0.20111
2441.56260	0.20213
2439.63403	0.20331
2437.70547	0.20446
2435.77690	0.20554
2433.84834	0.20665
2431.91978	0.20775
2429.99121	0.20890
2428.06265	0.21015
2426.13408	0.21140
2424.20552	0.21249
2422.27695	0.21348
2420.34839	0.21445
2418.41982	0.21542
2416.49126	0.21645
2414.56270	0.21761
2412.63413	0.21888
2410.70557	0.22015
2408.77700	0.22130
2406.84844	0.22246
2404.91987	0.22378
2402.99131	0.22513
2401.06274	0.22633
2399.13418	0.22744
2397.20562	0.22860
2395.27705	0.22988
2393.34849	0.23121
2391.41992	0.23251
2389.49136	0.23389
2387.56279	0.23549
2385.63423	0.23745
2383.70566	0.23996
2381.77710	0.24309
2379.84854	0.24669
2377.91997	0.25069
2375.99141	0.25532
2374.06284	0.26079
2372.13428	0.26700
2370.20571	0.27375
2368.27715	0.28044
2366.34858	0.28697
2364.42002	0.29395
2362.49146	0.29993
2360.56289	0.30343
2358.63433	0.30459
2356.70576	0.30273
2354.77720	0.29851
2352.84863	0.29398
2350.92007	0.28982
2348.99150	0.28738
2347.06294	0.28834
2345.13437	0.29336
2343.20581	0.29990
2341.27725	0.30357
2339.34868	0.30490
2337.42012	0.30587
2335.49155	0.30671
2333.56299	0.30702
2331.63442	0.30729
2329.70586	0.30778
2327.77729	0.30827
2325.84873	0.30864
2323.92017	0.30885
2321.99160	0.30890
2320.06304	0.30858
2318.13447	0.30775
2316.20591	0.30698
2314.27734	0.30692
2312.34878	0.30757
2310.42021	0.30847
2308.49165	0.30914
2306.56309	0.30946
2304.63452	0.30980
2302.70596	0.31067
2300.77739	0.31207
2298.84883	0.31343
2296.92026	0.31464
2294.99170	0.31600
2293.06313	0.31744
2291.13457	0.31880
2289.20601	0.32028
2287.27744	0.32185
2285.34888	0.32325
2283.42031	0.32459
2281.49175	0.32633
2279.56318	0.32857
2277.63462	0.33088
2275.70605	0.33301
2273.77749	0.33509
2271.84893	0.33725
2269.92036	0.33943
2267.99180	0.34151
2266.06323	0.34352
2264.13467	0.34556
2262.20610	0.34759
2260.27754	0.34957
2258.34897	0.35156
2256.42041	0.35362
2254.49185	0.35577
2252.56328	0.35788
2250.63472	0.35995
2248.70615	0.36214
2246.77759	0.36437
2244.84902	0.36644
2242.92046	0.36859
2240.99189	0.37104
2239.06333	0.37340
2237.13477	0.37547
2235.20620	0.37753
2233.27764	0.37976
2231.34907	0.38201
2229.42051	0.38419
2227.49194	0.38646
2225.56338	0.38885
2223.63481	0.39116
2221.70625	0.39321
2219.77769	0.39517
2217.84912	0.39737
2215.92056	0.39971
2213.99199	0.40185
2212.06343	0.40389
2210.13486	0.40606
2208.20630	0.40823
2206.27773	0.41029
2204.34917	0.41235
2202.42061	0.41450
2200.49204	0.41678
2198.56348	0.41905
2196.63491	0.42107
2194.70635	0.42281
2192.77778	0.42451
2190.84922	0.42639
2188.92065	0.42831
2186.99209	0.43015
2185.06353	0.43192
2183.13496	0.43365
2181.20640	0.43533
2179.27783	0.43695
2177.34927	0.43862
2175.42070	0.44033
2173.49214	0.44188
2171.56357	0.44322
2169.63501	0.44468
2167.70645	0.44620
2165.77788	0.44749
2163.84932	0.44855
2161.92075	0.44960
2159.99219	0.45066
2158.06362	0.45162
2156.13506	0.45252
2154.20649	0.45342
2152.27793	0.45423
2150.34937	0.45497
2148.42080	0.45568
2146.49224	0.45633
2144.56367	0.45692
2142.63511	0.45745
2140.70654	0.45781
2138.77798	0.45800
2136.84941	0.45805
2134.92085	0.45804
2132.99229	0.45801
2131.06372	0.45792
2129.13516	0.45769
2127.20659	0.45739
2125.27803	0.45705
2123.34946	0.45660
2121.42090	0.45609
2119.49233	0.45554
2117.56377	0.45495
2115.63521	0.45431
2113.70664	0.45356
2111.77808	0.45270
2109.84951	0.45170
2107.92095	0.45055
2105.99238	0.44932
2104.06382	0.44805
2102.13525	0.44668
2100.20669	0.44526
2098.27812	0.44391
2096.34956	0.44266
2094.42100	0.44125
2092.49243	0.43947
2090.56387	0.43760
2088.63530	0.43581
2086.70674	0.43400
2084.77817	0.43219
2082.84961	0.43041
2080.92104	0.42845
2078.99248	0.42632
2077.06392	0.42420
2075.13535	0.42212
2073.20679	0.42002
2071.27822	0.41779
2069.34966	0.41545
2067.42109	0.41311
2065.49253	0.41077
2063.56396	0.40831
2061.63540	0.40589
2059.70684	0.40356
2057.77827	0.40106
2055.84971	0.39830
2053.92114	0.39560
2051.99258	0.39319
2050.06401	0.39074
2048.13545	0.38805
2046.20688	0.38525
2044.27832	0.38250
2042.34976	0.37980
2040.42119	0.37702
2038.49263	0.37422
2036.56406	0.37154
2034.63550	0.36890
2032.70693	0.36624
2030.77837	0.36355
2028.84980	0.36066
2026.92124	0.35765
2024.99268	0.35478
2023.06411	0.35204
2021.13555	0.34934
2019.20698	0.34667
2017.27842	0.34400
2015.34985	0.34124
2013.42129	0.33847
2011.49272	0.33570
2009.56416	0.33289
2007.63560	0.33012
2005.70703	0.32748
2003.77847	0.32487
2001.84990	0.32222
1999.92134	0.31963
1997.99277	0.31700
1996.06421	0.31433
1994.13564	0.31180
1992.20708	0.30941
1990.27852	0.30693
1988.34995	0.30434
1986.42139	0.30185
1984.49282	0.29956
1982.56426	0.29732
1980.63569	0.29498
1978.70713	0.29260
1976.77856	0.29032
1974.85000	0.28812
1972.92144	0.28593
1970.99287	0.28382
1969.06431	0.28185
1967.13574	0.27987
1965.20718	0.27778
1963.27861	0.27573
1961.35005	0.27383
1959.42148	0.27196
1957.49292	0.27010
1955.56436	0.26830
1953.63579	0.26656
1951.70723	0.26481
1949.77866	0.26315
1947.85010	0.26162
1945.92153	0.26023
1943.99297	0.25884
1942.06440	0.25729
1940.13584	0.25569
1938.20728	0.25425
1936.27871	0.25293
1934.35015	0.25167
1932.42158	0.25046
1930.49302	0.24917
1928.56445	0.24789
1926.63589	0.24677
1924.70732	0.24586
1922.77876	0.24500
1920.85020	0.24407
1918.92163	0.24322
1916.99307	0.24242
1915.06450	0.24153
1913.13594	0.24059
1911.20737	0.23979
1909.27881	0.23914
1907.35024	0.23851
1905.42168	0.23788
1903.49312	0.23731
1901.56455	0.23679
1899.63599	0.23625
1897.70742	0.23575
1895.77886	0.23538
1893.85029	0.23508
1891.92173	0.23469
1889.99316	0.23443
1888.06460	0.23421
1886.13604	0.23393
1884.20747	0.23373
1882.27891	0.23363
1880.35034	0.23357
1878.42178	0.23348
1876.49321	0.23340
1874.56465	0.23340
1872.63608	0.23357
1870.70752	0.23389
1868.77896	0.23443
1866.85039	0.23470
1864.92183	0.23454
1862.99326	0.23451
1861.06470	0.23473
1859.13613	0.23511
1857.20757	0.23551
1855.27900	0.23595
1853.35044	0.23634
1851.42187	0.23676
1849.49331	0.23734
1847.56475	0.23811
1845.63618	0.23906
1843.70762	0.24014
1841.77905	0.24095
1839.85049	0.24144
1837.92192	0.24219
1835.99336	0.24309
1834.06479	0.24398
1832.13623	0.24496
1830.20767	0.24644
1828.27910	0.24803
1826.35054	0.24916
1824.42197	0.25043
1822.49341	0.25165
1820.56484	0.25273
1818.63628	0.25395
1816.70771	0.25552
1814.77915	0.25723
1812.85059	0.25915
1810.92202	0.26136
1808.99346	0.26343
1807.06489	0.26529
1805.13633	0.26718
1803.20776	0.26937
1801.27920	0.27185
1799.35063	0.27467
1797.42207	0.27721
1795.49351	0.27955
1793.56494	0.28235
1791.63638	0.28604
1789.70781	0.28955
1787.77925	0.29218
1785.85068	0.29530
1783.92212	0.29900
1781.99355	0.30300
1780.06499	0.30727
1778.13643	0.31157
1776.20786	0.31557
1774.27930	0.31988
1772.35073	0.32570
1770.42217	0.33208
1768.49360	0.33754
1766.56504	0.34272
1764.63647	0.34799
1762.70791	0.35379
1760.77935	0.36124
1758.85078	0.36849
1756.92222	0.37582
1754.99365	0.38373
1753.06509	0.39090
1751.13652	0.39932
1749.20796	0.40976
1747.27939	0.42025
1745.35083	0.42968
1743.42227	0.43950
1741.49370	0.45021
1739.56514	0.46294
1737.63657	0.47576
1735.70801	0.48684
1733.77944	0.50318
1731.85088	0.52268
1729.92231	0.53818
1727.99375	0.55399
1726.06519	0.57108
1724.13662	0.58964
1722.20806	0.60962
1720.27949	0.62819
1718.35093	0.64980
1716.42236	0.68158
1714.49380	0.71224
1712.56523	0.73716
1710.63667	0.76099
1708.70811	0.78650
1706.77954	0.81557
1704.85098	0.85023
1702.92241	0.88119
1700.99385	0.91170
1699.06528	0.95654
1697.13672	0.99751
1695.20815	1.03914
1693.27959	1.07936
1691.35103	1.11177
1689.42246	1.14886
1687.49390	1.18751
1685.56533	1.22462
1683.63677	1.28142
1681.70820	1.34009
1679.77964	1.37806
1677.85107	1.41418
1675.92251	1.45529
1673.99395	1.50565
1672.06538	1.55010
1670.13682	1.59299
1668.20825	1.64797
1666.27969	1.69204
1664.35112	1.72860
1662.42256	1.77342
1660.49399	1.82260
1658.56543	1.86048
1656.63687	1.89217
1654.70830	1.92420
1652.77974	1.97807
1650.85117	2.02919
1648.92261	2.04933
1646.99404	2.07521
1645.06548	2.10549
1643.13691	2.12725
1641.20835	2.14235
1639.27979	2.15615
1637.35122	2.16660
1635.42266	2.17188
1633.49409	2.16813
1631.56553	2.15656
1629.63696	2.14169
1627.70840	2.11783
1625.77983	2.09033
1623.85127	2.05533
1621.92271	2.01074
1619.99414	1.96966
1618.06558	1.92934
1616.13701	1.87280
1614.20845	1.81482
1612.27988	1.76981
1610.35132	1.72264
1608.42275	1.67169
1606.49419	1.62112
1604.56562	1.57396
1602.63706	1.52838
1600.70850	1.48376
1598.77993	1.44215
1596.85137	1.40245
1594.92280	1.36359
1592.99424	1.32570
1591.06567	1.29060
1589.13711	1.25733
1587.20854	1.22570
1585.27998	1.19570
1583.35142	1.16694
1581.42285	1.14005
1579.49429	1.11669
1577.56572	1.09550
1575.63716	1.06922
1573.70859	1.04526
1571.78003	1.02897
1569.85146	1.01104
1567.92290	0.99035
1565.99434	0.97379
1564.06577	0.95945
1562.13721	0.94758
1560.20864	0.93796
1558.28008	0.91991
1556.35151	0.90153
1554.42295	0.89026
1552.49438	0.87960
1550.56582	0.86931
1548.63726	0.85895
1546.70869	0.84975
1544.78013	0.84161
1542.85156	0.83382
1540.92300	0.82504
1538.99443	0.81171
1537.06587	0.80143
1535.13730	0.79503
1533.20874	0.78729
1531.28018	0.77853
1529.35161	0.77193
1527.42305	0.76600
1525.49448	0.75970
1523.56592	0.75374
1521.63735	0.74765
1519.70879	0.74089
1517.78022	0.73494
1515.85166	0.72900
1513.92310	0.72332
1511.99453	0.71887
1510.06597	0.71541
1508.13740	0.71254
1506.20884	0.70729
1504.28027	0.70122
1502.35171	0.69746
1500.42314	0.69446
1498.49458	0.69131
1496.56602	0.68762
1494.63745	0.68405
1492.70889	0.68121
1490.78032	0.67889
1488.85176	0.67648
1486.92319	0.67380
1484.99463	0.67111
1483.06606	0.66878
1481.13750	0.66681
1479.20894	0.66486
1477.28037	0.66293
1475.35181	0.66114
1473.42324	0.65951
1471.49468	0.65726
1469.56611	0.65468
1467.63755	0.65246
1465.70898	0.65036
1463.78042	0.64800
1461.85186	0.64581
1459.92329	0.64433
1457.99473	0.64290
1456.06616	0.63979
1454.13760	0.63617
1452.20903	0.63344
1450.28047	0.63114
1448.35190	0.62912
1446.42334	0.62708
1444.49478	0.62489
1442.56621	0.62279
1440.63765	0.62095
1438.70908	0.61947
1436.78052	0.61798
1434.85195	0.61614
1432.92339	0.61415
1430.99482	0.61232
1429.06626	0.61070
1427.13770	0.60920
1425.20913	0.60778
1423.28057	0.60644
1421.35200	0.60517
1419.42344	0.60389
1417.49487	0.60239
1415.56631	0.60060
1413.63774	0.59883
1411.70918	0.59718
1409.78062	0.59566
1407.85205	0.59426
1405.92349	0.59293
1403.99492	0.59153
1402.06636	0.59009
1400.13779	0.58875
1398.20923	0.58745
1396.28066	0.58623
1394.35210	0.58491
1392.42354	0.58331
1390.49497	0.58178
1388.56641	0.58052
1386.63784	0.57927
1384.70928	0.57782
1382.78071	0.57644
1380.85215	0.57534
1378.92358	0.57446
1376.99502	0.57368
1375.06646	0.57303
1373.13789	0.57237
1371.20933	0.57154
1369.28076	0.57064
1367.35220	0.56974
1365.42363	0.56890
1363.49507	0.56819
1361.56650	0.56739
1359.63794	0.56628
1357.70937	0.56509
1355.78081	0.56403
1353.85225	0.56306
1351.92368	0.56198
1349.99512	0.56080
1348.06655	0.55975
1346.13799	0.55876
1344.20942	0.55771
1342.28086	0.55670
1340.35229	0.55578
1338.42373	0.55479
1336.49517	0.55371
1334.56660	0.55271
1332.63804	0.55178
1330.70947	0.55090
1328.78091	0.55015
1326.85234	0.54950
1324.92378	0.54874
1322.99521	0.54789
1321.06665	0.54707
1319.13809	0.54630
1317.20952	0.54561
1315.28096	0.54505
1313.35239	0.54445
1311.42383	0.54367
1309.49526	0.54273
1307.56670	0.54174
1305.63813	0.54073
1303.70957	0.53968
1301.78101	0.53879
1299.85244	0.53801
1297.92388	0.53718
1295.99531	0.53631
1294.06675	0.53558
1292.13818	0.53509
1290.20962	0.53464
1288.28105	0.53400
1286.35249	0.53337
1284.42393	0.53286
1282.49536	0.53237
1280.56680	0.53187
1278.63823	0.53137
1276.70967	0.53090
1274.78110	0.53040
1272.85254	0.52992
1270.92397	0.52947
1268.99541	0.52896
1267.06685	0.52849
1265.13828	0.52807
1263.20972	0.52768
1261.28115	0.52725
1259.35259	0.52683
1257.42402	0.52645
1255.49546	0.52604
1253.56689	0.52559
1251.63833	0.52518
1249.70977	0.52493
1247.78120	0.52470
1245.85264	0.52428
1243.92407	0.52369
1241.99551	0.52307
1240.06694	0.52252
1238.13838	0.52212
1236.20981	0.52165
1234.28125	0.52090
1232.35269	0.52012
1230.42412	0.51945
1228.49556	0.51880
1226.56699	0.51813
1224.63843	0.51745
1222.70986	0.51665
1220.78130	0.51576
1218.85273	0.51502
1216.92417	0.51441
1214.99561	0.51373
1213.06704	0.51298
1211.13848	0.51231
1209.20991	0.51162
1207.28135	0.51089
1205.35278	0.51037
1203.42422	0.51009
1201.49565	0.50971
1199.56709	0.50912
1197.63853	0.50842
1195.70996	0.50771
1193.78140	0.50704
1191.85283	0.50643
1189.92427	0.50594
1187.99570	0.50571
1186.06714	0.50568
1184.13857	0.50557
1182.21001	0.50536
1180.28145	0.50533
1178.35288	0.50558
1176.42432	0.50599
1174.49575	0.50657
1172.56719	0.50733
1170.63862	0.50819
1168.71006	0.50908
1166.78149	0.50994
1164.85293	0.51082
1162.92437	0.51167
1160.99580	0.51229
1159.06724	0.51272
1157.13867	0.51283
1155.21011	0.51233
1153.28154	0.51132
1151.35298	0.50985
1149.42441	0.50788
1147.49585	0.50571
1145.56729	0.50340
1143.63872	0.50083
1141.71016	0.49824
1139.78159	0.49594
1137.85303	0.49409
1135.92446	0.49252
1133.99590	0.49106
1132.06733	0.48975
1130.13877	0.48843
1128.21021	0.48724
1126.28164	0.48637
1124.35308	0.48562
1122.42451	0.48490
1120.49595	0.48431
1118.56738	0.48405
1116.63882	0.48422
1114.71025	0.48477
1112.78169	0.48552
1110.85312	0.48627
1108.92456	0.48698
1106.99600	0.48778
1105.06743	0.48891
1103.13887	0.49014
1101.21030	0.49123
1099.28174	0.49253
1097.35317	0.49443
1095.42461	0.49704
1093.49604	0.50046
1091.56748	0.50502
1089.63892	0.51107
1087.71035	0.51849
1085.78179	0.52693
1083.85322	0.53568
1081.92466	0.54350
1079.99609	0.54940
1078.06753	0.55282
1076.13896	0.55311
1074.21040	0.55024
1072.28184	0.54526
1070.35327	0.53902
1068.42471	0.53192
1066.49614	0.52473
1064.56758	0.51829
1062.63901	0.51286
1060.71045	0.50814
1058.78188	0.50397
1056.85332	0.50038
1054.92476	0.49716
1052.99619	0.49431
1051.06763	0.49209
1049.13906	0.49077
1047.21050	0.49029
1045.28193	0.49028
1043.35337	0.49059
1041.42480	0.49106
1039.49624	0.49133
1037.56768	0.49153
1035.63911	0.49187
1033.71055	0.49191
1031.78198	0.49135
1029.85342	0.49031
1027.92485	0.48902
1025.99629	0.48779
1024.06772	0.48696
1022.13916	0.48670
1020.21060	0.48669
1018.28203	0.48672
1016.35347	0.48696
1014.42490	0.48711
1012.49634	0.48683
1010.56777	0.48666
1008.63921	0.48709
1006.71064	0.48799
1004.78208	0.48925
1002.85352	0.49085
1000.92495	0.49304
998.99639	0.49617
997.06782	0.50016
995.13926	0.50445
993.21069	0.50839
991.28213	0.51153
989.35356	0.51361
987.42500	0.51453
985.49644	0.51457
983.56787	0.51445
981.63931	0.51480
979.71074	0.51591
977.78218	0.51772
975.85361	0.52006
973.92505	0.52285
971.99648	0.52596
970.06792	0.52939
968.13936	0.53319
966.21079	0.53726
964.28223	0.54173
962.35366	0.54661
960.42510	0.55179
958.49653	0.55737
956.56797	0.56355
954.63940	0.57014
952.71084	0.57646
950.78228	0.58252
948.85371	0.58888
946.92515	0.59526
944.99658	0.60124
943.06802	0.60721
941.13945	0.61347
939.21089	0.61978
937.28232	0.62591
935.35376	0.63158
933.42520	0.63683
931.49663	0.64234
929.56807	0.64855
927.63950	0.65507
925.71094	0.66142
923.78237	0.66759
921.85381	0.67391
919.92524	0.68071
917.99668	0.68782
916.06812	0.69515
914.13955	0.70279
912.21099	0.71027
910.28242	0.71766
908.35386	0.72549
906.42529	0.73369
904.49673	0.74226
902.56816	0.75217
900.63960	0.76336
898.71104	0.77426
896.78247	0.78378
894.85391	0.79268
892.92534	0.80273
890.99678	0.81341
889.06821	0.82387
887.13965	0.83528
885.21108	0.84681
883.28252	0.85767
881.35396	0.86945
879.42539	0.88180
877.49683	0.89365
875.56826	0.90625
873.63970	0.91876
871.71113	0.92949
869.78257	0.93985
867.85400	0.95102
865.92544	0.96213
863.99687	0.97208
862.06831	0.98195
860.13975	0.99421
858.21118	1.00906
856.28262	1.02364
854.35405	1.03534
852.42549	1.04460
850.49692	1.05474
848.56836	1.06741
846.63979	1.08065
844.71123	1.09216
842.78267	1.10164
840.85410	1.11178
838.92554	1.12285
836.99697	1.13499
835.06841	1.14973
833.13984	1.16133
831.21128	1.16930
829.28271	1.18225
827.35415	1.19763
825.42559	1.20940
823.49702	1.22521
821.56846	1.24676
819.63989	1.26021
817.71133	1.26122
815.78276	1.26112
813.85420	1.27530
811.92563	1.30692
809.99707	1.33201
808.06851	1.33854
806.13994	1.35102
804.21138	1.37391
802.28281	1.39624
800.35425	1.41471
798.42568	1.41059
796.49712	1.38752
794.56855	1.38653
792.63999	1.42666
790.71143	1.50210
788.78286	1.61667
786.85430	1.70923
784.92573	1.64812
782.99717	1.55858
781.06860	1.54325
779.14004	1.54391
777.21147	1.54226
775.28291	1.61006
773.35435	1.75435
771.42578	1.84166
769.49722	1.72902
767.56865	1.56354
765.64009	1.50108
763.71152	1.52812
761.78296	1.60280
759.85439	1.68036
757.92583	1.55075
755.99727	1.48983
754.06870	1.81320
752.14014	2.08635
750.21157	1.61204
748.28301	1.49507
746.35444	1.44186
744.42588	1.29001
742.49731	1.13617
740.56875	1.01287
738.64019	0.93209
736.71162	0.90905
734.78306	0.92598
732.85449	0.91097
730.92593	0.87937
728.99736	0.82580
727.06880	0.66832
725.14023	0.48115
723.21167	0.41058
721.28311	0.56771
719.35454	0.73306
717.42598	0.39680
715.49741	0.21242
713.56885	0.21760
711.64028	0.31062
709.71172	0.26516
707.78315	0.13801
705.85459	0.16555
703.92603	0.39835
701.99746	0.39085
700.06890	0.06168
698.14033	-0.12396
696.21177	-0.02206
694.28320	0.16335
692.35464	0.17057
690.42607	0.07111
688.49751	0.05906
686.56895	0.04288
684.64038	-0.02870
682.71182	-0.04858
680.78325	-0.03933
678.85469	-0.01549
676.92612	0.18620
674.99756	4.04999
673.06899	4.03841
671.14043	0.62652
669.21187	0.30615
667.28330	0.18286
665.35474	0.23742
663.42617	0.32524
661.49761	0.34013
659.56904	0.42563
657.64048	0.35450
655.71191	0.17118
653.78335	0.23195
651.85479	0.32823
649.92622	0.13180
647.99766	0.04300
646.06909	0.17929
644.14053	0.31526
642.21196	0.26692
640.28340	0.15770
638.35483	0.06535
636.42627	0.02527
634.49771	0.05824
632.56914	0.09496
630.64058	0.11688
628.71201	0.19107
626.78345	0.27328
624.85488	0.20112
622.92632	0.11140
620.99775	0.10703
619.06919	0.15389
617.14062	0.21857
615.21206	0.25510
613.28350	0.21033
611.35493	0.11751
609.42637	0.04343
607.49780	0.04169
605.56924	0.07874
603.64067	0.10342
601.71211	0.10515
599.78354	0.06380
597.85498	0.06085
595.92642	0.15184
593.99785	0.35374
592.06929	0.59521
590.14072	0.43939
588.21216	0.30256
586.28359	0.26324
584.35503	0.23169
582.42646	0.20280
580.49790	0.20744
578.56934	0.21795
576.64077	0.22864
574.71221	0.17496
572.78364	0.05638
570.85508	-0.00362
568.92651	-0.01557
566.99795	-0.09564
565.06938	-0.19428
563.14082	-0.12251
561.21226	0.03871
559.28369	0.13709
557.35513	0.12254
555.42656	0.09596
553.49800	0.10789
551.56943	0.15849
549.64087	0.19395
547.71230	0.16351
545.78374	0.07592
543.85518	0.01881
541.92661	0.02327
539.99805	0.02774
538.06948	0.00967
536.14092	0.03475
534.21235	0.11689
532.28379	0.16078
530.35522	0.13229
528.42666	0.06351
526.49810	0.01948
524.56953	0.04263
522.64097	0.06837
520.71240	0.09240
518.78384	0.13144
516.85527	0.14030
514.92671	0.14250
512.99814	0.16942
511.06958	0.21660
509.14102	0.27173
507.21245	0.28167
505.28389	0.17764
503.35532	0.09204
501.42676	0.08717
499.49819	0.10561
