3997.91411	0.06681
3995.98555	0.06679
3994.05698	0.06703
3992.12842	0.06746
3990.19985	0.06779
3988.27129	0.06803
3986.34272	0.06838
3984.41416	0.06885
3982.48560	0.06923
3980.55703	0.06923
3978.62847	0.06890
3976.69990	0.06888
3974.77134	0.06939
3972.84277	0.07005
3970.91421	0.07045
3968.98564	0.07027
3967.05708	0.06994
3965.12852	0.06993
3963.19995	0.06999
3961.27139	0.07013
3959.34282	0.07043
3957.41426	0.07063
3955.48569	0.07077
3953.55713	0.07055
3951.62856	0.07012
3949.70000	0.07032
3947.77144	0.07106
3945.84287	0.07114
3943.91431	0.07063
3941.98574	0.07072
3940.05718	0.07130
3938.12861	0.07161
3936.20005	0.07150
3934.27148	0.07090
3932.34292	0.07010
3930.41436	0.07008
3928.48579	0.07063
3926.55723	0.07047
3924.62866	0.06989
3922.70010	0.06977
3920.77153	0.06993
3918.84297	0.06992
3916.91440	0.06976
3914.98584	0.06967
3913.05728	0.06974
3911.12871	0.06987
3909.20015	0.07003
3907.27158	0.07012
3905.34302	0.06993
3903.41445	0.06977
3901.48589	0.06989
3899.55732	0.06997
3897.62876	0.06991
3895.70020	0.06979
3893.77163	0.06959
3891.84307	0.06952
3889.91450	0.06989
3887.98594	0.06989
3886.05737	0.06940
3884.12881	0.06926
3882.20024	0.06952
3880.27168	0.06995
3878.34312	0.07029
3876.41455	0.07021
3874.48599	0.06993
3872.55742	0.06968
3870.62886	0.06984
3868.70029	0.07061
3866.77173	0.07098
3864.84316	0.07073
3862.91460	0.07063
3860.98604	0.07107
3859.05747	0.07193
3857.12891	0.07242
3855.20034	0.07210
3853.27178	0.07199
3851.34321	0.07321
3849.41465	0.07428
3847.48608	0.07493
3845.55752	0.07536
3843.62896	0.07569
3841.70039	0.07623
3839.77183	0.07668
3837.84326	0.07713
3835.91470	0.07825
3833.98613	0.07935
3832.05757	0.07976
3830.12900	0.07982
3828.20044	0.08009
3826.27187	0.08080
3824.34331	0.08127
3822.41475	0.08135
3820.48618	0.08237
3818.55762	0.08382
3816.62905	0.08440
3814.70049	0.08549
3812.77192	0.08695
3810.84336	0.08783
3808.91479	0.08868
3806.98623	0.09000
3805.05767	0.09144
3803.12910	0.09239
3801.20054	0.09328
3799.27197	0.09427
3797.34341	0.09508
3795.41484	0.09625
3793.48628	0.09765
3791.55771	0.09889
3789.62915	0.10022
3787.70059	0.10160
3785.77202	0.10312
3783.84346	0.10487
3781.91489	0.10624
3779.98633	0.10736
3778.05776	0.10918
3776.12920	0.11115
3774.20063	0.11261
3772.27207	0.11383
3770.34351	0.11514
3768.41494	0.11682
3766.48638	0.11866
3764.55781	0.12062
3762.62925	0.12272
3760.70068	0.12452
3758.77212	0.12636
3756.84355	0.12879
3754.91499	0.13098
3752.98643	0.13246
3751.05786	0.13420
3749.12930	0.13746
3747.20073	0.14078
3745.27217	0.14392
3743.34360	0.14877
3741.41504	0.15306
3739.48647	0.15520
3737.55791	0.15709
3735.62935	0.16037
3733.70078	0.16637
3731.77222	0.17307
3729.84365	0.17815
3727.91509	0.18243
3725.98652	0.18762
3724.05796	0.19409
3722.12939	0.20072
3720.20083	0.20741
3718.27227	0.21442
3716.34370	0.22138
3714.41514	0.22795
3712.48657	0.23567
3710.55801	0.24768
3708.62944	0.26270
3706.70088	0.27568
3704.77231	0.28693
3702.84375	0.29919
3700.91519	0.31519
3698.98662	0.33335
3697.05806	0.35071
3695.12949	0.36866
3693.20093	0.38743
3691.27236	0.40742
3689.34380	0.43309
3687.41523	0.46638
3685.48667	0.49763
3683.55811	0.52456
3681.62954	0.55212
3679.70098	0.58226
3677.77241	0.61335
3675.84385	0.65001
3673.91528	0.70106
3671.98672	0.74387
3670.05815	0.78124
3668.12959	0.83341
3666.20103	0.88286
3664.27246	0.92407
3662.34390	0.96697
3660.41533	1.01278
3658.48677	1.05786
3656.55820	1.10543
3654.62964	1.15868
3652.70107	1.20391
3650.77251	1.24252
3648.84395	1.29553
3646.91538	1.36356
3644.98682	1.41601
3643.05825	1.45592
3641.12969	1.49507
3639.20112	1.53763
3637.27256	1.58121
3635.34399	1.62435
3633.41543	1.66715
3631.48687	1.70613
3629.55830	1.74369
3627.62974	1.79396
3625.70117	1.84605
3623.77261	1.88271
3621.84404	1.91489
3619.91548	1.95068
3617.98691	1.99580
3616.05835	2.03971
3614.12979	2.07524
3612.20122	2.11310
3610.27266	2.15316
3608.34409	2.19443
3606.41553	2.23830
3604.48696	2.27908
3602.55840	2.31503
3600.62983	2.35167
3598.70127	2.38995
3596.77271	2.42834
3594.84414	2.46912
3592.91558	2.51196
3590.98701	2.55237
3589.05845	2.58921
3587.12988	2.63139
3585.20132	2.67917
3583.27275	2.72252
3581.34419	2.76257
3579.41562	2.80263
3577.48706	2.84352
3575.55850	2.88582
3573.62993	2.92967
3571.70137	2.97225
3569.77280	3.01201
3567.84424	3.05278
3565.91567	3.10446
3563.98711	3.15797
3562.05854	3.20146
3560.12998	3.24335
3558.20142	3.28744
3556.27285	3.33190
3554.34429	3.37563
3552.41572	3.42102
3550.48716	3.46809
3548.55859	3.51418
3546.63003	3.55889
3544.70146	3.60442
3542.77290	3.65136
3540.84434	3.69952
3538.91577	3.74763
3536.98721	3.79387
3535.05864	3.84109
3533.13008	3.88904
3531.20151	3.93681
3529.27295	3.98561
3527.34438	4.03573
3525.41582	4.08390
3523.48726	4.12984
3521.55869	4.17846
3519.63013	4.22848
3517.70156	4.27778
3515.77300	4.32652
3513.84443	4.37488
3511.91587	4.42083
3509.98730	4.46484
3508.05874	4.51245
3506.13018	4.56226
3504.20161	4.60945
3502.27305	4.65963
3500.34448	4.71278
3498.41592	4.75866
3496.48735	4.80053
3494.55879	4.84534
3492.63022	4.89289
3490.70166	4.94403
3488.77310	4.99808
3486.84453	5.04795
3484.91597	5.09135
3482.98740	5.13550
3481.05884	5.18555
3479.13027	5.23714
3477.20171	5.28860
3475.27314	5.34039
3473.34458	5.38365
3471.41602	5.42217
3469.48745	5.47001
3467.55889	5.52170
3465.63032	5.56946
3463.70176	5.62058
3461.77319	5.67191
3459.84463	5.71628
3457.91606	5.76054
3455.98750	5.81623
3454.05894	5.87812
3452.13037	5.92927
3450.20181	5.97451
3448.27324	6.02035
3446.34468	6.06031
3444.41611	6.09690
3442.48755	6.14492
3440.55898	6.20514
3438.63042	6.24598
3436.70186	6.25366
3434.77329	6.27920
3432.84473	6.35539
3430.91616	6.44390
3428.98760	6.50480
3427.05903	6.54395
3425.13047	6.58157
3423.20190	6.62403
3421.27334	6.69159
3419.34478	6.77687
3417.41621	6.85162
3415.48765	6.90114
3413.55908	6.91043
3411.63052	6.92013
3409.70195	6.95185
3407.77339	6.97252
3405.84482	6.98903
3403.91626	7.05065
3401.98770	7.13607
3400.05913	7.18634
3398.13057	7.21534
3396.20200	7.24888
3394.27344	7.28038
3392.34487	7.31551
3390.41631	7.37011
3388.48774	7.42052
3386.55918	7.45814
3384.63062	7.47204
3382.70205	7.48852
3380.77349	7.55149
3378.84492	7.60712
3376.91636	7.60995
3374.98779	7.60888
3373.05923	7.64910
3371.13066	7.65954
3369.20210	7.64009
3367.27354	7.67137
3365.34497	7.72472
3363.41641	7.73763
3361.48784	7.72976
3359.55928	7.75283
3357.63071	7.81329
3355.70215	7.87747
3353.77358	7.89738
3351.84502	7.89330
3349.91646	7.85739
3347.98789	7.81886
3346.05933	7.84735
3344.13076	7.89389
3342.20220	7.91308
3340.27363	7.91228
3338.34507	7.91923
3336.41650	7.93678
3334.48794	7.95233
3332.55937	7.97541
3330.63081	8.02587
3328.70225	8.12068
3326.77368	8.20263
3324.84512	8.18412
3322.91655	8.11603
3320.98799	8.04673
3319.05942	7.95625
3317.13086	7.92648
3315.20229	7.98250
3313.27373	8.04113
3311.34517	8.06040
3309.41660	8.08357
3307.48804	8.11637
3305.55947	8.10306
3303.63091	8.08492
3301.70234	8.13012
3299.77378	8.20782
3297.84521	8.21443
3295.91665	8.17715
3293.98809	8.19269
3292.05952	8.22627
3290.13096	8.17650
3288.20239	8.13492
3286.27383	8.25929
3284.34526	8.41970
3282.41670	8.39699
3280.48813	8.26899
3278.55957	8.18774
3276.63101	8.13664
3274.70244	8.09727
3272.77388	8.14559
3270.84531	8.24215
3268.91675	8.26914
3266.98818	8.28300
3265.05962	8.32543
3263.13105	8.28688
3261.20249	8.23276
3259.27393	8.20565
3257.34536	8.12183
3255.41680	8.04846
3253.48823	8.07582
3251.55967	8.21758
3249.63110	8.36431
3247.70254	8.32906
3245.77397	8.20397
3243.84541	8.20835
3241.91685	8.30932
3239.98828	8.30316
3238.05972	8.19914
3236.13115	8.12936
3234.20259	8.05550
3232.27402	7.96424
3230.34546	7.92682
3228.41689	7.92577
3226.48833	7.93626
3224.55977	7.99822
3222.63120	8.06215
3220.70264	8.05177
3218.77407	8.05321
3216.84551	8.03702
3214.91694	7.91246
3212.98838	7.82643
3211.05981	7.85111
3209.13125	7.85004
3207.20269	7.78792
3205.27412	7.76732
3203.34556	7.75640
3201.41699	7.69329
3199.48843	7.62451
3197.55986	7.61521
3195.63130	7.65408
3193.70273	7.65895
3191.77417	7.61844
3189.84561	7.56756
3187.91704	7.51677
3185.98848	7.48306
3184.05991	7.43878
3182.13135	7.33514
3180.20278	7.22404
3178.27422	7.16423
3176.34565	7.13580
3174.41709	7.09917
3172.48853	7.04717
3170.55996	7.00676
3168.63140	6.97231
3166.70283	6.91671
3164.77427	6.84835
3162.84570	6.78202
3160.91714	6.71355
3158.98857	6.64071
3157.06001	6.57396
3155.13145	6.51025
3153.20288	6.44342
3151.27432	6.37538
3149.34575	6.31501
3147.41719	6.27897
3145.48862	6.24091
3143.56006	6.16568
3141.63149	6.07444
3139.70293	5.98797
3137.77437	5.91340
3135.84580	5.85666
3133.91724	5.80220
3131.98867	5.73571
3130.06011	5.65986
3128.13154	5.57865
3126.20298	5.49851
3124.27441	5.42656
3122.34585	5.36306
3120.41729	5.29718
3118.48872	5.22030
3116.56016	5.14474
3114.63159	5.07957
3112.70303	5.01860
3110.77446	4.95471
3108.84590	4.88702
3106.91733	4.81907
3104.98877	4.74969
3103.06021	4.68058
3101.13164	4.61612
3099.20308	4.55375
3097.27451	4.49027
3095.34595	4.42670
3093.41738	4.36279
3091.48882	4.29611
3089.56025	4.22959
3087.63169	4.16796
3085.70312	4.10767
3083.77456	4.04310
3081.84600	3.97840
3079.91743	3.91945
3077.98887	3.86465
3076.06030	3.80829
3074.13174	3.74823
3072.20317	3.68897
3070.27461	3.63248
3068.34604	3.57609
3066.41748	3.51998
3064.48892	3.46559
3062.56035	3.41035
3060.63179	3.35324
3058.70322	3.29838
3056.77466	3.24701
3054.84609	3.19507
3052.91753	3.14058
3050.98896	3.08659
3049.06040	3.03576
3047.13184	2.98669
3045.20327	2.93739
3043.27471	2.88846
3041.34614	2.83998
3039.41758	2.79115
3037.48901	2.74399
3035.56045	2.69884
3033.63188	2.65307
3031.70332	2.60725
3029.77476	2.56322
3027.84619	2.52032
3025.91763	2.47734
3023.98906	2.43416
3022.06050	2.39118
3020.13193	2.34895
3018.20337	2.30806
3016.27480	2.26786
3014.34624	2.22776
3012.41768	2.18849
3010.48911	2.15037
3008.56055	2.11307
3006.63198	2.07629
3004.70342	2.03979
3002.77485	2.00405
3000.84629	1.96988
2998.91772	1.93700
2996.98916	1.90425
2995.06060	1.87137
2993.13203	1.83940
2991.20347	1.80907
2989.27490	1.77986
2987.34634	1.75129
2985.41777	1.72328
2983.48921	1.69577
2981.56064	1.66875
2979.63208	1.64261
2977.70352	1.61713
2975.77495	1.59161
2973.84639	1.56600
2971.91782	1.54106
2969.98926	1.51746
2968.06069	1.49463
2966.13213	1.47185
2964.20356	1.44924
2962.27500	1.42661
2960.34644	1.40330
2958.41787	1.37962
2956.48931	1.35625
2954.56074	1.33267
2952.63218	1.30870
2950.70361	1.28531
2948.77505	1.26295
2946.84648	1.24136
2944.91792	1.22010
2942.98936	1.19890
2941.06079	1.17827
2939.13223	1.15847
2937.20366	1.13891
2935.27510	1.11932
2933.34653	1.09987
2931.41797	1.08098
2929.48940	1.06275
2927.56084	1.04421
2925.63228	1.02517
2923.70371	1.00673
2921.77515	0.98908
2919.84658	0.97127
2917.91802	0.95270
2915.98945	0.93408
2914.06089	0.91654
2912.13232	0.90016
2910.20376	0.88427
2908.27520	0.86841
2906.34663	0.85284
2904.41807	0.83803
2902.48950	0.82367
2900.56094	0.80930
2898.63237	0.79523
2896.70381	0.78151
2894.77524	0.76784
2892.84668	0.75479
2890.91812	0.74302
2888.98955	0.73195
2887.06099	0.72094
2885.13242	0.71008
2883.20386	0.69961
2881.27529	0.68976
2879.34673	0.68050
2877.41816	0.67147
2875.48960	0.66218
2873.56104	0.65227
2871.63247	0.64166
2869.70391	0.63048
2867.77534	0.61913
2865.84678	0.60761
2863.91821	0.59561
2861.98965	0.58350
2860.06108	0.57206
2858.13252	0.56150
2856.20396	0.55164
2854.27539	0.54229
2852.34683	0.53320
2850.41826	0.52420
2848.48970	0.51527
2846.56113	0.50646
2844.63257	0.49812
2842.70400	0.49037
2840.77544	0.48302
2838.84687	0.47608
2836.91831	0.46959
2834.98975	0.46322
2833.06118	0.45684
2831.13262	0.45064
2829.20405	0.44459
2827.27549	0.43846
2825.34692	0.43222
2823.41836	0.42604
2821.48979	0.41992
2819.56123	0.41383
2817.63267	0.40803
2815.70410	0.40245
2813.77554	0.39666
2811.84697	0.39085
2809.91841	0.38533
2807.98984	0.38001
2806.06128	0.37479
2804.13271	0.36963
2802.20415	0.36449
2800.27559	0.35948
2798.34702	0.35461
2796.41846	0.34961
2794.48989	0.34455
2792.56133	0.33975
2790.63276	0.33516
2788.70420	0.33045
2786.77563	0.32563
2784.84707	0.32113
2782.91851	0.31707
2780.98994	0.31304
2779.06138	0.30891
2777.13281	0.30491
2775.20425	0.30104
2773.27568	0.29721
2771.34712	0.29345
2769.41855	0.28971
2767.48999	0.28601
2765.56143	0.28246
2763.63286	0.27903
2761.70430	0.27567
2759.77573	0.27223
2757.84717	0.26873
2755.91860	0.26554
2753.99004	0.26254
2752.06147	0.25943
2750.13291	0.25641
2748.20435	0.25355
2746.27578	0.25055
2744.34722	0.24752
2742.41865	0.24462
2740.49009	0.24183
2738.56152	0.23922
2736.63296	0.23671
2734.70439	0.23415
2732.77583	0.23159
2730.84727	0.22911
2728.91870	0.22668
2726.99014	0.22441
2725.06157	0.22230
2723.13301	0.22013
2721.20444	0.21776
2719.27588	0.21542
2717.34731	0.21336
2715.41875	0.21159
2713.49019	0.20982
2711.56162	0.20791
2709.63306	0.20606
2707.70449	0.20430
2705.77593	0.20264
2703.84736	0.20105
2701.91880	0.19941
2699.99023	0.19774
2698.06167	0.19617
2696.13311	0.19472
2694.20454	0.19326
2692.27598	0.19184
2690.34741	0.19057
2688.41885	0.18935
2686.49028	0.18808
2684.56172	0.18683
2682.63315	0.18561
2680.70459	0.18443
2678.77603	0.18322
2676.84746	0.18189
2674.91890	0.18056
2672.99033	0.17947
2671.06177	0.17862
2669.13320	0.17767
2667.20464	0.17645
2665.27607	0.17532
2663.34751	0.17445
2661.41895	0.17360
2659.49038	0.17278
2657.56182	0.17204
2655.63325	0.17121
2653.70469	0.17027
2651.77612	0.16933
2649.84756	0.16845
2647.91899	0.16776
2645.99043	0.16731
2644.06187	0.16689
2642.13330	0.16625
2640.20474	0.16549
2638.27617	0.16486
2636.34761	0.16441
2634.41904	0.16390
2632.49048	0.16318
2630.56191	0.16259
2628.63335	0.16225
2626.70479	0.16193
2624.77622	0.16154
2622.84766	0.16112
2620.91909	0.16077
2618.99053	0.16051
2617.06196	0.16028
2615.13340	0.15991
2613.20483	0.15945
2611.27627	0.15923
2609.34771	0.15931
2607.41914	0.15941
2605.49058	0.15937
2603.56201	0.15912
2601.63345	0.15873
2599.70488	0.15850
2597.77632	0.15853
2595.84775	0.15858
2593.91919	0.15864
2591.99062	0.15875
2590.06206	0.15882
2588.13350	0.15890
2586.20493	0.15897
2584.27637	0.15901
2582.34780	0.15909
2580.41924	0.15926
2578.49067	0.15952
2576.56211	0.15985
2574.63354	0.16018
2572.70498	0.16044
2570.77642	0.16063
2568.84785	0.16083
2566.91929	0.16111
2564.99072	0.16146
2563.06216	0.16187
2561.13359	0.16234
2559.20503	0.16285
2557.27646	0.16328
2555.34790	0.16361
2553.41934	0.16401
2551.49077	0.16458
2549.56221	0.16524
2547.63364	0.16586
2545.70508	0.16637
2543.77651	0.16677
2541.84795	0.16712
2539.91938	0.16747
2537.99082	0.16790
2536.06226	0.16850
2534.13369	0.16928
2532.20513	0.17010
2530.27656	0.17087
2528.34800	0.17164
2526.41943	0.17243
2524.49087	0.17313
2522.56230	0.17369
2520.63374	0.17414
2518.70518	0.17468
2516.77661	0.17551
2514.84805	0.17647
2512.91948	0.17717
2510.99092	0.17764
2509.06235	0.17823
2507.13379	0.17906
2505.20522	0.17994
2503.27666	0.18071
2501.34810	0.18147
2499.41953	0.18230
2497.49097	0.18315
2495.56240	0.18393
2493.63384	0.18461
2491.70527	0.18532
2489.77671	0.18612
2487.84814	0.18697
2485.91958	0.18778
2483.99102	0.18851
2482.06245	0.18921
2480.13389	0.19007
2478.20532	0.19113
2476.27676	0.19208
2474.34819	0.19289
2472.41963	0.19372
2470.49106	0.19449
2468.56250	0.19510
2466.63394	0.19567
2464.70537	0.19646
2462.77681	0.19748
2460.84824	0.19851
2458.91968	0.19951
2456.99111	0.20053
2455.06255	0.20150
2453.13398	0.20239
2451.20542	0.20329
2449.27686	0.20411
2447.34829	0.20485
2445.41973	0.20572
2443.49116	0.20683
2441.56260	0.20795
2439.63403	0.20895
2437.70547	0.20987
2435.77690	0.21083
2433.84834	0.21193
2431.91978	0.21305
2429.99121	0.21398
2428.06265	0.21488
2426.13408	0.21592
2424.20552	0.21699
2422.27695	0.21803
2420.34839	0.21904
2418.41982	0.22005
2416.49126	0.22109
2414.56270	0.22215
2412.63413	0.22319
2410.70557	0.22430
2408.77700	0.22551
2406.84844	0.22669
2404.91987	0.22782
2402.99131	0.22904
2401.06274	0.23025
2399.13418	0.23136
2397.20562	0.23251
2395.27705	0.23360
2393.34849	0.23461
2391.41992	0.23585
2389.49136	0.23733
2387.56279	0.23889
2385.63423	0.24055
2383.70566	0.24241
2381.77710	0.24457
2379.84854	0.24711
2377.91997	0.24981
2375.99141	0.25244
2374.06284	0.25539
2372.13428	0.25916
2370.20571	0.26355
2368.27715	0.26798
2366.34858	0.27181
2364.42002	0.27468
2362.49146	0.27740
2360.56289	0.27981
2358.63433	0.28021
2356.70576	0.27976
2354.77720	0.28015
2352.84863	0.27992
2350.92007	0.27850
2348.99150	0.27756
2347.06294	0.27819
2345.13437	0.28085
2343.20581	0.28456
2341.27725	0.28732
2339.34868	0.28902
2337.42012	0.29000
2335.49155	0.29086
2333.56299	0.29214
2331.63442	0.29385
2329.70586	0.29552
2327.77729	0.29692
2325.84873	0.29807
2323.92017	0.29902
2321.99160	0.29984
2320.06304	0.30046
2318.13447	0.30097
2316.20591	0.30164
2314.27734	0.30262
2312.34878	0.30368
2310.42021	0.30476
2308.49165	0.30596
2306.56309	0.30716
2304.63452	0.30828
2302.70596	0.30953
2300.77739	0.31109
2298.84883	0.31283
2296.92026	0.31440
2294.99170	0.31584
2293.06313	0.31745
2291.13457	0.31915
2289.20601	0.32083
2287.27744	0.32251
2285.34888	0.32414
2283.42031	0.32576
2281.49175	0.32755
2279.56318	0.32958
2277.63462	0.33172
2275.70605	0.33378
2273.77749	0.33572
2271.84893	0.33771
2269.92036	0.33979
2267.99180	0.34188
2266.06323	0.34392
2264.13467	0.34594
2262.20610	0.34796
2260.27754	0.35002
2258.34897	0.35216
2256.42041	0.35434
2254.49185	0.35644
2252.56328	0.35844
2250.63472	0.36047
2248.70615	0.36269
2246.77759	0.36505
2244.84902	0.36730
2242.92046	0.36930
2240.99189	0.37127
2239.06333	0.37347
2237.13477	0.37586
2235.20620	0.37815
2233.27764	0.38025
2231.34907	0.38236
2229.42051	0.38454
2227.49194	0.38675
2225.56338	0.38899
2223.63481	0.39121
2221.70625	0.39339
2219.77769	0.39557
2217.84912	0.39773
2215.92056	0.39989
2213.99199	0.40205
2212.06343	0.40417
2210.13486	0.40623
2208.20630	0.40829
2206.27773	0.41046
2204.34917	0.41262
2202.42061	0.41463
2200.49204	0.41660
2198.56348	0.41860
2196.63491	0.42059
2194.70635	0.42247
2192.77778	0.42431
2190.84922	0.42620
2188.92065	0.42810
2186.99209	0.42988
2185.06353	0.43160
2183.13496	0.43335
2181.20640	0.43507
2179.27783	0.43669
2177.34927	0.43824
2175.42070	0.43976
2173.49214	0.44124
2171.56357	0.44263
2169.63501	0.44397
2167.70645	0.44528
2165.77788	0.44644
2163.84932	0.44753
2161.92075	0.44867
2159.99219	0.44982
2158.06362	0.45077
2156.13506	0.45163
2154.20649	0.45254
2152.27793	0.45336
2150.34937	0.45403
2148.42080	0.45470
2146.49224	0.45529
2144.56367	0.45582
2142.63511	0.45632
2140.70654	0.45665
2138.77798	0.45675
2136.84941	0.45664
2134.92085	0.45646
2132.99229	0.45640
2131.06372	0.45643
2129.13516	0.45646
2127.20659	0.45637
2125.27803	0.45607
2123.34946	0.45556
2121.42090	0.45498
2119.49233	0.45435
2117.56377	0.45362
2115.63521	0.45278
2113.70664	0.45183
2111.77808	0.45088
2109.84951	0.44998
2107.92095	0.44906
2105.99238	0.44802
2104.06382	0.44680
2102.13525	0.44536
2100.20669	0.44376
2098.27812	0.44220
2096.34956	0.44078
2094.42100	0.43938
2092.49243	0.43787
2090.56387	0.43625
2088.63530	0.43448
2086.70674	0.43257
2084.77817	0.43064
2082.84961	0.42876
2080.92104	0.42683
2078.99248	0.42481
2077.06392	0.42273
2075.13535	0.42051
2073.20679	0.41822
2071.27822	0.41601
2069.34966	0.41379
2067.42109	0.41144
2065.49253	0.40902
2063.56396	0.40660
2061.63540	0.40410
2059.70684	0.40154
2057.77827	0.39909
2055.84971	0.39667
2053.92114	0.39407
2051.99258	0.39126
2050.06401	0.38841
2048.13545	0.38576
2046.20688	0.38326
2044.27832	0.38066
2042.34976	0.37789
2040.42119	0.37518
2038.49263	0.37263
2036.56406	0.37005
2034.63550	0.36732
2032.70693	0.36452
2030.77837	0.36169
2028.84980	0.35881
2026.92124	0.35592
2024.99268	0.35306
2023.06411	0.35033
2021.13555	0.34767
2019.20698	0.34490
2017.27842	0.34198
2015.34985	0.33910
2013.42129	0.33641
2011.49272	0.33379
2009.56416	0.33112
2007.63560	0.32843
2005.70703	0.32585
2003.77847	0.32329
2001.84990	0.32063
1999.92134	0.31787
1997.99277	0.31513
1996.06421	0.31250
1994.13564	0.31000
1992.20708	0.30756
1990.27852	0.30511
1988.34995	0.30274
1986.42139	0.30039
1984.49282	0.29801
1982.56426	0.29568
1980.63569	0.29342
1978.70713	0.29117
1976.77856	0.28892
1974.85000	0.28677
1972.92144	0.28469
1970.99287	0.28259
1969.06431	0.28044
1967.13574	0.27830
1965.20718	0.27617
1963.27861	0.27420
1961.35005	0.27237
1959.42148	0.27054
1957.49292	0.26878
1955.56436	0.26710
1953.63579	0.26538
1951.70723	0.26362
1949.77866	0.26190
1947.85010	0.26031
1945.92153	0.25886
1943.99297	0.25740
1942.06440	0.25591
1940.13584	0.25451
1938.20728	0.25316
1936.27871	0.25172
1934.35015	0.25032
1932.42158	0.24914
1930.49302	0.24804
1928.56445	0.24685
1926.63589	0.24562
1924.70732	0.24458
1922.77876	0.24373
1920.85020	0.24286
1918.92163	0.24192
1916.99307	0.24104
1915.06450	0.24028
1913.13594	0.23948
1911.20737	0.23864
1909.27881	0.23791
1907.35024	0.23731
1905.42168	0.23673
1903.49312	0.23615
1901.56455	0.23560
1899.63599	0.23512
1897.70742	0.23474
1895.77886	0.23436
1893.85029	0.23401
1891.92173	0.23364
1889.99316	0.23336
1888.06460	0.23327
1886.13604	0.23326
1884.20747	0.23315
1882.27891	0.23294
1880.35034	0.23271
1878.42178	0.23251
1876.49321	0.23242
1874.56465	0.23234
1872.63608	0.23235
1870.70752	0.23245
1868.77896	0.23275
1866.85039	0.23306
1864.92183	0.23322
1862.99326	0.23343
1861.06470	0.23368
1859.13613	0.23402
1857.20757	0.23444
1855.27900	0.23496
1853.35044	0.23544
1851.42187	0.23595
1849.49331	0.23650
1847.56475	0.23702
1845.63618	0.23756
1843.70762	0.23844
1841.77905	0.23952
1839.85049	0.24030
1837.92192	0.24112
1835.99336	0.24197
1834.06479	0.24285
1832.13623	0.24370
1830.20767	0.24482
1828.27910	0.24620
1826.35054	0.24737
1824.42197	0.24868
1822.49341	0.25009
1820.56484	0.25149
1818.63628	0.25293
1816.70771	0.25460
1814.77915	0.25624
1812.85059	0.25786
1810.92202	0.25974
1808.99346	0.26183
1807.06489	0.26396
1805.13633	0.26598
1803.20776	0.26804
1801.27920	0.27024
1799.35063	0.27283
1797.42207	0.27533
1795.49351	0.27767
1793.56494	0.28026
1791.63638	0.28380
1789.70781	0.28764
1787.77925	0.29062
1785.85068	0.29373
1783.92212	0.29726
1781.99355	0.30112
1780.06499	0.30523
1778.13643	0.30950
1776.20786	0.31343
1774.27930	0.31738
1772.35073	0.32275
1770.42217	0.32909
1768.49360	0.33476
1766.56504	0.34014
1764.63647	0.34549
1762.70791	0.35122
1760.77935	0.35860
1758.85078	0.36562
1756.92222	0.37256
1754.99365	0.38025
1753.06509	0.38712
1751.13652	0.39485
1749.20796	0.40487
1747.27939	0.41549
1745.35083	0.42507
1743.42227	0.43497
1741.49370	0.44559
1739.56514	0.45799
1737.63657	0.47048
1735.70801	0.48127
1733.77944	0.49717
1731.85088	0.51650
1729.92231	0.53223
1727.99375	0.54830
1726.06519	0.56545
1724.13662	0.58389
1722.20806	0.60348
1720.27949	0.62118
1718.35093	0.64174
1716.42236	0.67319
1714.49380	0.70419
1712.56523	0.72939
1710.63667	0.75358
1708.70811	0.77938
1706.77954	0.80833
1704.85098	0.84304
1702.92241	0.87454
1700.99385	0.90575
1699.06528	0.95212
1697.13672	0.99533
1695.20815	1.04090
1693.27959	1.08615
1691.35103	1.12274
1689.42246	1.16463
1687.49390	1.20864
1685.56533	1.25073
1683.63677	1.31670
1681.70820	1.38686
1679.77964	1.43158
1677.85107	1.47330
1675.92251	1.52168
1673.99395	1.58276
1672.06538	1.63668
1670.13682	1.68880
1668.20825	1.75988
1666.27969	1.82053
1664.35112	1.87186
1662.42256	1.93714
1660.49399	2.01301
1658.56543	2.07212
1656.63687	2.11780
1654.70830	2.15705
1652.77974	2.21535
1650.85117	2.27118
1648.92261	2.28875
1646.99404	2.30683
1645.06548	2.32805
1643.13691	2.34552
1641.20835	2.35445
1639.27979	2.36015
1637.35122	2.36200
1635.42266	2.35898
1633.49409	2.34843
1631.56553	2.33090
1629.63696	2.30930
1627.70840	2.27581
1625.77983	2.23826
1623.85127	2.19230
1621.92271	2.13658
1619.99414	2.08786
1618.06558	2.04075
1616.13701	1.97375
1614.20845	1.90733
1612.27988	1.85774
1610.35132	1.80457
1608.42275	1.74595
1606.49419	1.68936
1604.56562	1.63839
1602.63706	1.58951
1600.70850	1.54196
1598.77993	1.49820
1596.85137	1.45691
1594.92280	1.41675
1592.99424	1.37822
1591.06567	1.34358
1589.13711	1.31216
1587.20854	1.28372
1585.27998	1.25800
1583.35142	1.23445
1581.42285	1.21313
1579.49429	1.19491
1577.56572	1.17902
1575.63716	1.16146
1573.70859	1.14719
1571.78003	1.13796
1569.85146	1.12888
1567.92290	1.12066
1565.99434	1.11630
1564.06577	1.11415
1562.13721	1.11289
1560.20864	1.11326
1558.28008	1.11992
1556.35151	1.12972
1554.42295	1.13601
1552.49438	1.14151
1550.56582	1.14466
1548.63726	1.14454
1546.70869	1.14088
1544.78013	1.13278
1542.85156	1.11952
1540.92300	1.09823
1538.99443	1.06594
1537.06587	1.04276
1535.13730	1.02629
1533.20874	1.00370
1531.28018	0.97982
1529.35161	0.96272
1527.42305	0.94617
1525.49448	0.92848
1523.56592	0.91361
1521.63735	0.90020
1519.70879	0.88744
1517.78022	0.87675
1515.85166	0.86402
1513.92310	0.85053
1511.99453	0.83819
1510.06597	0.82624
1508.13740	0.81405
1506.20884	0.79643
1504.28027	0.78294
1502.35171	0.77578
1500.42314	0.76883
1498.49458	0.76079
1496.56602	0.75161
1494.63745	0.74302
1492.70889	0.73625
1490.78032	0.72978
1488.85176	0.72252
1486.92319	0.71658
1484.99463	0.71232
1483.06606	0.70880
1481.13750	0.70573
1479.20894	0.70342
1477.28037	0.70216
1475.35181	0.70186
1473.42324	0.70241
1471.49468	0.70302
1469.56611	0.70263
1467.63755	0.70119
1465.70898	0.69942
1463.78042	0.69837
1461.85186	0.69835
1459.92329	0.69860
1457.99473	0.69877
1456.06616	0.69895
1454.13760	0.69833
1452.20903	0.69676
1450.28047	0.69467
1448.35190	0.69231
1446.42334	0.68955
1444.49478	0.68666
1442.56621	0.68381
1440.63765	0.68090
1438.70908	0.67769
1436.78052	0.67331
1434.85195	0.66874
1432.92339	0.66578
1430.99482	0.66385
1429.06626	0.66278
1427.13770	0.66268
1425.20913	0.66333
1423.28057	0.66446
1421.35200	0.66533
1419.42344	0.66574
1417.49487	0.66592
1415.56631	0.66557
1413.63774	0.66535
1411.70918	0.66598
1409.78062	0.66742
1407.85205	0.66925
1405.92349	0.67152
1403.99492	0.67393
1402.06636	0.67503
1400.13779	0.67441
1398.20923	0.67265
1396.28066	0.67014
1394.35210	0.66630
1392.42354	0.66146
1390.49497	0.65686
1388.56641	0.65203
1386.63784	0.64613
1384.70928	0.64008
1382.78071	0.63456
1380.85215	0.62933
1378.92358	0.62485
1376.99502	0.62149
1375.06646	0.61909
1373.13789	0.61759
1371.20933	0.61685
1369.28076	0.61622
1367.35220	0.61510
1365.42363	0.61342
1363.49507	0.61150
1361.56650	0.60970
1359.63794	0.60816
1357.70937	0.60689
1355.78081	0.60572
1353.85225	0.60449
1351.92368	0.60329
1349.99512	0.60236
1348.06655	0.60158
1346.13799	0.60073
1344.20942	0.59991
1342.28086	0.59911
1340.35229	0.59824
1338.42373	0.59752
1336.49517	0.59714
1334.56660	0.59692
1332.63804	0.59688
1330.70947	0.59719
1328.78091	0.59780
1326.85234	0.59863
1324.92378	0.59970
1322.99521	0.60092
1321.06665	0.60201
1319.13809	0.60290
1317.20952	0.60351
1315.28096	0.60370
1313.35239	0.60352
1311.42383	0.60308
1309.49526	0.60258
1307.56670	0.60207
1305.63813	0.60161
1303.70957	0.60124
1301.78101	0.60073
1299.85244	0.59994
1297.92388	0.59893
1295.99531	0.59760
1294.06675	0.59610
1292.13818	0.59473
1290.20962	0.59341
1288.28105	0.59203
1286.35249	0.59053
1284.42393	0.58897
1282.49536	0.58749
1280.56680	0.58607
1278.63823	0.58452
1276.70967	0.58291
1274.78110	0.58150
1272.85254	0.58047
1270.92397	0.57977
1268.99541	0.57904
1267.06685	0.57802
1265.13828	0.57689
1263.20972	0.57584
1261.28115	0.57481
1259.35259	0.57392
1257.42402	0.57341
1255.49546	0.57317
1253.56689	0.57307
1251.63833	0.57318
1249.70977	0.57340
1247.78120	0.57342
1245.85264	0.57311
1243.92407	0.57246
1241.99551	0.57135
1240.06694	0.56965
1238.13838	0.56752
1236.20981	0.56516
1234.28125	0.56253
1232.35269	0.55971
1230.42412	0.55704
1228.49556	0.55463
1226.56699	0.55241
1224.63843	0.55043
1222.70986	0.54858
1220.78130	0.54672
1218.85273	0.54490
1216.92417	0.54318
1214.99561	0.54175
1213.06704	0.54073
1211.13848	0.53988
1209.20991	0.53902
1207.28135	0.53839
1205.35278	0.53784
1203.42422	0.53693
1201.49565	0.53576
1199.56709	0.53471
1197.63853	0.53383
1195.70996	0.53301
1193.78140	0.53228
1191.85283	0.53165
1189.92427	0.53111
1187.99570	0.53065
1186.06714	0.53033
1184.13857	0.53029
1182.21001	0.53079
1180.28145	0.53188
1178.35288	0.53331
1176.42432	0.53479
1174.49575	0.53617
1172.56719	0.53727
1170.63862	0.53780
1168.71006	0.53777
1166.78149	0.53752
1164.85293	0.53730
1162.92437	0.53715
1160.99580	0.53705
1159.06724	0.53690
1157.13867	0.53653
1155.21011	0.53589
1153.28154	0.53486
1151.35298	0.53335
1149.42441	0.53135
1147.49585	0.52876
1145.56729	0.52576
1143.63872	0.52305
1141.71016	0.52096
1139.78159	0.51918
1137.85303	0.51779
1135.92446	0.51716
1133.99590	0.51715
1132.06733	0.51729
1130.13877	0.51728
1128.21021	0.51702
1126.28164	0.51668
1124.35308	0.51629
1122.42451	0.51588
1120.49595	0.51589
1118.56738	0.51646
1116.63882	0.51728
1114.71025	0.51801
1112.78169	0.51859
1110.85312	0.51941
1108.92456	0.52048
1106.99600	0.52144
1105.06743	0.52234
1103.13887	0.52323
1101.21030	0.52417
1099.28174	0.52550
1097.35317	0.52733
1095.42461	0.52973
1093.49604	0.53315
1091.56748	0.53810
1089.63892	0.54433
1087.71035	0.55149
1085.78179	0.55964
1083.85322	0.56810
1081.92466	0.57567
1079.99609	0.58126
1078.06753	0.58408
1076.13896	0.58378
1074.21040	0.58042
1072.28184	0.57490
1070.35327	0.56827
1068.42471	0.56117
1066.49614	0.55405
1064.56758	0.54728
1062.63901	0.54113
1060.71045	0.53583
1058.78188	0.53143
1056.85332	0.52759
1054.92476	0.52410
1052.99619	0.52100
1051.06763	0.51849
1049.13906	0.51683
1047.21050	0.51594
1045.28193	0.51534
1043.35337	0.51466
1041.42480	0.51399
1039.49624	0.51364
1037.56768	0.51360
1035.63911	0.51365
1033.71055	0.51341
1031.78198	0.51241
1029.85342	0.51072
1027.92485	0.50896
1025.99629	0.50738
1024.06772	0.50587
1022.13916	0.50456
1020.21060	0.50379
1018.28203	0.50362
1016.35347	0.50363
1014.42490	0.50334
1012.49634	0.50267
1010.56777	0.50214
1008.63921	0.50202
1006.71064	0.50214
1004.78208	0.50268
1002.85352	0.50407
1000.92495	0.50664
998.99639	0.51036
997.06782	0.51486
995.13926	0.51966
993.21069	0.52411
991.28213	0.52745
989.35356	0.52932
987.42500	0.52986
985.49644	0.52971
983.56787	0.52950
981.63931	0.52949
979.71074	0.52985
977.78218	0.53088
975.85361	0.53255
973.92505	0.53467
971.99648	0.53736
970.06792	0.54066
968.13936	0.54448
966.21079	0.54877
964.28223	0.55333
962.35366	0.55811
960.42510	0.56310
958.49653	0.56819
956.56797	0.57344
954.63940	0.57926
952.71084	0.58572
950.78228	0.59218
948.85371	0.59830
946.92515	0.60449
944.99658	0.61091
943.06802	0.61744
941.13945	0.62381
939.21089	0.62967
937.28232	0.63515
935.35376	0.64066
933.42520	0.64632
931.49663	0.65191
929.56807	0.65763
927.63950	0.66415
925.71094	0.67089
923.78237	0.67691
921.85381	0.68291
919.92524	0.68974
917.99668	0.69713
916.06812	0.70492
914.13955	0.71288
912.21099	0.72042
910.28242	0.72775
908.35386	0.73590
906.42529	0.74508
904.49673	0.75432
902.56816	0.76300
900.63960	0.77135
898.71104	0.78001
896.78247	0.78908
894.85391	0.79851
892.92534	0.80911
890.99678	0.82048
889.06821	0.83218
887.13965	0.84486
885.21108	0.85673
883.28252	0.86622
881.35396	0.87518
879.42539	0.88590
877.49683	0.89864
875.56826	0.91090
873.63970	0.92184
871.71113	0.93456
869.78257	0.94897
867.85400	0.96127
865.92544	0.97120
863.99687	0.98099
862.06831	0.99092
860.13975	1.00083
858.21118	1.01230
856.28262	1.02506
854.35405	1.03686
852.42549	1.04784
850.49692	1.05968
848.56836	1.07337
846.63979	1.08773
844.71123	1.09929
842.78267	1.10710
840.85410	1.11417
838.92554	1.12290
836.99697	1.13372
835.06841	1.14729
833.13984	1.16164
831.21128	1.17139
829.28271	1.17709
827.35415	1.18298
825.42559	1.19155
823.49702	1.20767
821.56846	1.22654
819.63989	1.23912
817.71133	1.25388
815.78276	1.27332
813.85420	1.28359
811.92563	1.28464
809.99707	1.28204
808.06851	1.28037
806.13994	1.29387
804.21138	1.31981
802.28281	1.34486
800.35425	1.36518
798.42568	1.36700
796.49712	1.35298
794.56855	1.35569
792.63999	1.37538
790.71143	1.36769
788.78286	1.33022
786.85430	1.31941
784.92573	1.34817
782.99717	1.40486
781.06860	1.51788
779.14004	1.58438
777.21147	1.48073
775.28291	1.36899
773.35435	1.31328
771.42578	1.31240
769.49722	1.31608
767.56865	1.28744
765.64009	1.25092
763.71152	1.21225
761.78296	1.15485
759.85439	1.09746
757.92583	1.09466
755.99727	1.16046
754.06870	1.22170
752.14014	1.21765
750.21157	1.26527
748.28301	1.53946
746.35444	2.07816
744.42588	1.40078
742.49731	1.11430
740.56875	1.06023
738.64019	0.97082
736.71162	0.75611
734.78306	0.61000
732.85449	0.57073
730.92593	0.60336
728.99736	0.59494
727.06880	0.42124
725.14023	0.20957
723.21167	0.11923
721.28311	0.18116
719.35454	0.20424
717.42598	0.03721
715.49741	0.02761
713.56885	0.17141
711.64028	0.26039
709.71172	0.28813
707.78315	0.31606
705.85459	0.50883
703.92603	0.50943
701.99746	0.32636
700.06890	0.26881
698.14033	0.25777
696.21177	0.25785
694.28320	0.24268
692.35464	0.16896
690.42607	0.09579
688.49751	0.11664
686.56895	0.20032
684.64038	0.26821
682.71182	0.31413
680.78325	0.42129
678.85469	0.56630
676.92612	0.55088
674.99756	0.40853
673.06899	0.26457
671.14043	0.17755
669.21187	0.18483
667.28330	0.26532
665.35474	0.43138
663.42617	0.61873
661.49761	0.50970
659.56904	0.34551
657.64048	0.30234
655.71191	0.32705
653.78335	0.32613
651.85479	0.31510
649.92622	0.29690
647.99766	0.25193
646.06909	0.26939
644.14053	0.34846
642.21196	0.43339
640.28340	0.42071
638.35483	0.27334
636.42627	0.19055
634.49771	0.20313
632.56914	0.25912
630.64058	0.36363
628.71201	0.47016
626.78345	0.41399
624.85488	0.33527
622.92632	0.34901
620.99775	0.46957
619.06919	0.54009
617.14062	0.42148
615.21206	0.37870
613.28350	0.41134
611.35493	0.37516
609.42637	0.26544
607.49780	0.20459
605.56924	0.23226
603.64067	0.31766
601.71211	0.41211
599.78354	0.50859
597.85498	0.56182
595.92642	0.54743
593.99785	0.46479
592.06929	0.37033
590.14072	0.31911
588.21216	0.26855
586.28359	0.24747
584.35503	0.35693
582.42646	0.60599
580.49790	0.52621
578.56934	0.26702
576.64077	0.14822
574.71221	0.15351
572.78364	0.18519
570.85508	0.16609
568.92651	0.15505
566.99795	0.24770
565.06938	0.38971
563.14082	0.33496
561.21226	0.25922
559.28369	0.28427
557.35513	0.37506
555.42656	0.35865
553.49800	0.28017
551.56943	0.27316
549.64087	0.31276
547.71230	0.38013
545.78374	0.43270
543.85518	0.36975
541.92661	0.28052
539.99805	0.24696
538.06948	0.25407
536.14092	0.27788
534.21235	0.27466
532.28379	0.22781
530.35522	0.21759
528.42666	0.31137
526.49810	0.60708
524.56953	3.14742
522.64097	0.60973
520.71240	0.31449
518.78384	0.24443
516.85527	0.28115
514.92671	0.32066
512.99814	0.30075
511.06958	0.29241
509.14102	0.27109
507.21245	0.18699
505.28389	0.15784
503.35532	0.33016
501.42676	1.16329
499.49819	0.62918
