3997.91411	0.07381
3995.98555	0.07410
3994.05698	0.07480
3992.12842	0.07541
3990.19985	0.07574
3988.27129	0.07605
3986.34272	0.07605
3984.41416	0.07567
3982.48560	0.07546
3980.55703	0.07572
3978.62847	0.07616
3976.69990	0.07638
3974.77134	0.07632
3972.84277	0.07594
3970.91421	0.07548
3968.98564	0.07551
3967.05708	0.07598
3965.12852	0.07643
3963.19995	0.07669
3961.27139	0.07700
3959.34282	0.07748
3957.41426	0.07768
3955.48569	0.07723
3953.55713	0.07659
3951.62856	0.07661
3949.70000	0.07733
3947.77144	0.07798
3945.84287	0.07807
3943.91431	0.07773
3941.98574	0.07735
3940.05718	0.07740
3938.12861	0.07765
3936.20005	0.07747
3934.27148	0.07723
3932.34292	0.07743
3930.41436	0.07762
3928.48579	0.07751
3926.55723	0.07715
3924.62866	0.07688
3922.70010	0.07704
3920.77153	0.07723
3918.84297	0.07723
3916.91440	0.07720
3914.98584	0.07706
3913.05728	0.07672
3911.12871	0.07648
3909.20015	0.07650
3907.27158	0.07670
3905.34302	0.07693
3903.41445	0.07698
3901.48589	0.07671
3899.55732	0.07633
3897.62876	0.07636
3895.70020	0.07652
3893.77163	0.07647
3891.84307	0.07644
3889.91450	0.07664
3887.98594	0.07673
3886.05737	0.07683
3884.12881	0.07701
3882.20024	0.07689
3880.27168	0.07703
3878.34312	0.07767
3876.41455	0.07784
3874.48599	0.07755
3872.55742	0.07722
3870.62886	0.07715
3868.70029	0.07765
3866.77173	0.07840
3864.84316	0.07934
3862.91460	0.08025
3860.98604	0.08025
3859.05747	0.07971
3857.12891	0.07935
3855.20034	0.07922
3853.27178	0.07957
3851.34321	0.08083
3849.41465	0.08165
3847.48608	0.08209
3845.55752	0.08267
3843.62896	0.08327
3841.70039	0.08377
3839.77183	0.08431
3837.84326	0.08496
3835.91470	0.08522
3833.98613	0.08550
3832.05757	0.08649
3830.12900	0.08755
3828.20044	0.08799
3826.27187	0.08834
3824.34331	0.08910
3822.41475	0.08994
3820.48618	0.09105
3818.55762	0.09211
3816.62905	0.09267
3814.70049	0.09363
3812.77192	0.09468
3810.84336	0.09544
3808.91479	0.09631
3806.98623	0.09748
3805.05767	0.09862
3803.12910	0.09943
3801.20054	0.10085
3799.27197	0.10273
3797.34341	0.10350
3795.41484	0.10416
3793.48628	0.10563
3791.55771	0.10715
3789.62915	0.10814
3787.70059	0.10889
3785.77202	0.11000
3783.84346	0.11156
3781.91489	0.11298
3779.98633	0.11398
3778.05776	0.11525
3776.12920	0.11693
3774.20063	0.11851
3772.27207	0.11992
3770.34351	0.12136
3768.41494	0.12337
3766.48638	0.12577
3764.55781	0.12824
3762.62925	0.13044
3760.70068	0.13216
3758.77212	0.13396
3756.84355	0.13650
3754.91499	0.13923
3752.98643	0.14140
3751.05786	0.14357
3749.12930	0.14669
3747.20073	0.14929
3745.27217	0.15137
3743.34360	0.15529
3741.41504	0.15964
3739.48647	0.16195
3737.55791	0.16361
3735.62935	0.16659
3733.70078	0.17209
3731.77222	0.17794
3729.84365	0.18202
3727.91509	0.18531
3725.98652	0.18992
3724.05796	0.19632
3722.12939	0.20352
3720.20083	0.21164
3718.27227	0.21997
3716.34370	0.22734
3714.41514	0.23385
3712.48657	0.24143
3710.55801	0.25343
3708.62944	0.26836
3706.70088	0.28089
3704.77231	0.29179
3702.84375	0.30412
3700.91519	0.32043
3698.98662	0.33879
3697.05806	0.35641
3695.12949	0.37478
3693.20093	0.39398
3691.27236	0.41452
3689.34380	0.44107
3687.41523	0.47529
3685.48667	0.50691
3683.55811	0.53386
3681.62954	0.56146
3679.70098	0.59170
3677.77241	0.62319
3675.84385	0.66107
3673.91528	0.71388
3671.98672	0.75751
3670.05815	0.79504
3668.12959	0.84685
3666.20103	0.89547
3664.27246	0.93624
3662.34390	0.97933
3660.41533	1.02557
3658.48677	1.07066
3656.55820	1.11818
3654.62964	1.17202
3652.70107	1.21766
3650.77251	1.25600
3648.84395	1.30865
3646.91538	1.37652
3644.98682	1.42877
3643.05825	1.46877
3641.12969	1.50806
3639.20112	1.55074
3637.27256	1.59419
3635.34399	1.63600
3633.41543	1.67732
3631.48687	1.71674
3629.55830	1.75700
3627.62974	1.81003
3625.70117	1.86057
3623.77261	1.89459
3621.84404	1.92674
3619.91548	1.96356
3617.98691	2.00819
3616.05835	2.05181
3614.12979	2.08833
3612.20122	2.12619
3610.27266	2.16403
3608.34409	2.20310
3606.41553	2.24684
3604.48696	2.28729
3602.55840	2.32227
3600.62983	2.36014
3598.70127	2.40074
3596.77271	2.43920
3594.84414	2.47930
3592.91558	2.52252
3590.98701	2.56186
3589.05845	2.59685
3587.12988	2.63978
3585.20132	2.68906
3583.27275	2.73175
3581.34419	2.77057
3579.41562	2.81018
3577.48706	2.85092
3575.55850	2.89292
3573.62993	2.93678
3571.70137	2.97892
3569.77280	3.01814
3567.84424	3.05948
3565.91567	3.11156
3563.98711	3.16358
3562.05854	3.20620
3560.12998	3.24924
3558.20142	3.29514
3556.27285	3.34065
3554.34429	3.38336
3552.41572	3.42639
3550.48716	3.47296
3548.55859	3.52043
3546.63003	3.56584
3544.70146	3.61335
3542.77290	3.66419
3540.84434	3.71141
3538.91577	3.75515
3536.98721	3.80152
3535.05864	3.85265
3533.13008	3.90208
3531.20151	3.94738
3529.27295	3.99277
3527.34438	4.04174
3525.41582	4.09152
3523.48726	4.13909
3521.55869	4.18865
3519.63013	4.24043
3517.70156	4.28929
3515.77300	4.33390
3513.84443	4.37852
3511.91587	4.42610
3509.98730	4.47795
3508.05874	4.53072
3506.13018	4.57830
3504.20161	4.62131
3502.27305	4.66546
3500.34448	4.71182
3498.41592	4.75740
3496.48735	4.80472
3494.55879	4.85232
3492.63022	4.89914
3490.70166	4.95060
3488.77310	5.00900
3486.84453	5.06984
3484.91597	5.12218
3482.98740	5.16261
3481.05884	5.20190
3479.13027	5.25019
3477.20171	5.30711
3475.27314	5.36585
3473.34458	5.41674
3471.41602	5.45576
3469.48745	5.49607
3467.55889	5.54757
3465.63032	5.59916
3463.70176	5.64424
3461.77319	5.68760
3459.84463	5.73137
3457.91606	5.77997
3455.98750	5.83935
3454.05894	5.90169
3452.13037	5.95219
3450.20181	5.98722
3448.27324	6.02895
3446.34468	6.09787
3444.41611	6.16195
3442.48755	6.20472
3440.55898	6.25386
3438.63042	6.30922
3436.70186	6.35482
3434.77329	6.39671
3432.84473	6.44306
3430.91616	6.50099
3428.98760	6.57699
3427.05903	6.64890
3425.13047	6.70722
3423.20190	6.75771
3421.27334	6.78626
3419.34478	6.80249
3417.41621	6.84318
3415.48765	6.89457
3413.55908	6.94525
3411.63052	7.00552
3409.70195	7.04917
3407.77339	7.09334
3405.84482	7.15051
3403.91626	7.19714
3401.98770	7.24065
3400.05913	7.30311
3398.13057	7.37024
3396.20200	7.41794
3394.27344	7.45618
3392.34487	7.48627
3390.41631	7.51566
3388.48774	7.55894
3386.55918	7.62613
3384.63062	7.66852
3382.70205	7.67071
3380.77349	7.67932
3378.84492	7.70162
3376.91636	7.74923
3374.98779	7.81669
3373.05923	7.89066
3371.13066	7.94211
3369.20210	7.96935
3367.27354	7.99130
3365.34497	7.98793
3363.41641	7.94775
3361.48784	7.90000
3359.55928	7.86790
3357.63071	7.90574
3355.70215	8.07232
3353.77358	8.24540
3351.84502	8.27480
3349.91646	8.23537
3347.98789	8.24829
3346.05933	8.24416
3344.13076	8.17795
3342.20220	8.14712
3340.27363	8.14625
3338.34507	8.11620
3336.41650	8.06368
3334.48794	8.09006
3332.55937	8.16223
3330.63081	8.19381
3328.70225	8.23069
3326.77368	8.24131
3324.84512	8.19551
3322.91655	8.20813
3320.98799	8.31443
3319.05942	8.38350
3317.13086	8.37370
3315.20229	8.30670
3313.27373	8.25346
3311.34517	8.28424
3309.41660	8.31729
3307.48804	8.29815
3305.55947	8.32707
3303.63091	8.43726
3301.70234	8.52630
3299.77378	8.60638
3297.84521	8.66308
3295.91665	8.58870
3293.98809	8.42319
3292.05952	8.30349
3290.13096	8.28481
3288.20239	8.32326
3286.27383	8.35718
3284.34526	8.36641
3282.41670	8.40257
3280.48813	8.43762
3278.55957	8.43985
3276.63101	8.41625
3274.70244	8.39686
3272.77388	8.46157
3270.84531	8.53682
3268.91675	8.51787
3266.98818	8.47482
3265.05962	8.49629
3263.13105	8.56541
3261.20249	8.59015
3259.27393	8.53000
3257.34536	8.53077
3255.41680	8.66367
3253.48823	8.75904
3251.55967	8.68962
3249.63110	8.56277
3247.70254	8.47449
3245.77397	8.38041
3243.84541	8.30068
3241.91685	8.29119
3239.98828	8.30103
3238.05972	8.32712
3236.13115	8.40352
3234.20259	8.42260
3232.27402	8.31758
3230.34546	8.21264
3228.41689	8.19209
3226.48833	8.21814
3224.55977	8.20773
3222.63120	8.14215
3220.70264	8.05556
3218.77407	8.00690
3216.84551	8.03154
3214.91694	8.10907
3212.98838	8.15212
3211.05981	8.08689
3209.13125	8.04305
3207.20269	8.08811
3205.27412	8.09486
3203.34556	8.03764
3201.41699	8.02502
3199.48843	8.05256
3197.55986	8.00688
3195.63130	7.90485
3193.70273	7.80023
3191.77417	7.68333
3189.84561	7.61905
3187.91704	7.62518
3185.98848	7.61615
3184.05991	7.56352
3182.13135	7.51128
3180.20278	7.47863
3178.27422	7.43208
3176.34565	7.34862
3174.41709	7.26265
3172.48853	7.21456
3170.55996	7.19457
3168.63140	7.16126
3166.70283	7.09490
3164.77427	7.01900
3162.84570	6.95327
3160.91714	6.86975
3158.98857	6.77216
3157.06001	6.70638
3155.13145	6.65771
3153.20288	6.57267
3151.27432	6.46538
3149.34575	6.38645
3147.41719	6.33890
3145.48862	6.29591
3143.56006	6.23277
3141.63149	6.14886
3139.70293	6.07000
3137.77437	6.00254
3135.84580	5.93524
3133.91724	5.86214
3131.98867	5.77465
3130.06011	5.68325
3128.13154	5.60584
3126.20298	5.53238
3124.27441	5.45143
3122.34585	5.37303
3120.41729	5.30782
3118.48872	5.24862
3116.56016	5.18282
3114.63159	5.11268
3112.70303	5.04459
3110.77446	4.97021
3108.84590	4.89078
3106.91733	4.82153
3104.98877	4.76005
3103.06021	4.69768
3101.13164	4.63118
3099.20308	4.55889
3097.27451	4.48793
3095.34595	4.42148
3093.41738	4.35182
3091.48882	4.27767
3089.56025	4.20871
3087.63169	4.14915
3085.70312	4.09091
3083.77456	4.02779
3081.84600	3.96274
3079.91743	3.89998
3077.98887	3.84047
3076.06030	3.78140
3074.13174	3.72108
3072.20317	3.66040
3070.27461	3.60036
3068.34604	3.54290
3066.41748	3.48784
3064.48892	3.43274
3062.56035	3.37710
3060.63179	3.32186
3058.70322	3.26717
3056.77466	3.21309
3054.84609	3.15930
3052.91753	3.10557
3050.98896	3.05349
3049.06040	3.00261
3047.13184	2.95051
3045.20327	2.89815
3043.27471	2.84849
3041.34614	2.80133
3039.41758	2.75439
3037.48901	2.70671
3035.56045	2.65872
3033.63188	2.61201
3031.70332	2.56777
3029.77476	2.52450
3027.84619	2.48033
3025.91763	2.43640
3023.98906	2.39398
3022.06050	2.35169
3020.13193	2.30898
3018.20337	2.26778
3016.27480	2.22841
3014.34624	2.18924
3012.41768	2.15019
3010.48911	2.11198
3008.56055	2.07456
3006.63198	2.03793
3004.70342	2.00229
3002.77485	1.96735
3000.84629	1.93255
2998.91772	1.89817
2996.98916	1.86455
2995.06060	1.83154
2993.13203	1.79912
2991.20347	1.76771
2989.27490	1.73703
2987.34634	1.70640
2985.41777	1.67653
2983.48921	1.64800
2981.56064	1.61985
2979.63208	1.59143
2977.70352	1.56346
2975.77495	1.53679
2973.84639	1.51082
2971.91782	1.48511
2969.98926	1.46009
2968.06069	1.43556
2966.13213	1.41131
2964.20356	1.38720
2962.27500	1.36289
2960.34644	1.33864
2958.41787	1.31477
2956.48931	1.29114
2954.56074	1.26778
2952.63218	1.24501
2950.70361	1.22239
2948.77505	1.19970
2946.84648	1.17770
2944.91792	1.15661
2942.98936	1.13625
2941.06079	1.11624
2939.13223	1.09614
2937.20366	1.07625
2935.27510	1.05668
2933.34653	1.03756
2931.41797	1.01910
2929.48940	1.00047
2927.56084	0.98149
2925.63228	0.96322
2923.70371	0.94575
2921.77515	0.92881
2919.84658	0.91263
2917.91802	0.89661
2915.98945	0.88004
2914.06089	0.86302
2912.13232	0.84644
2910.20376	0.83100
2908.27520	0.81605
2906.34663	0.80122
2904.41807	0.78690
2902.48950	0.77316
2900.56094	0.75975
2898.63237	0.74661
2896.70381	0.73387
2894.77524	0.72132
2892.84668	0.70872
2890.91812	0.69633
2888.98955	0.68489
2887.06099	0.67427
2885.13242	0.66352
2883.20386	0.65268
2881.27529	0.64207
2879.34673	0.63156
2877.41816	0.62141
2875.48960	0.61189
2873.56104	0.60244
2871.63247	0.59248
2869.70391	0.58210
2867.77534	0.57167
2865.84678	0.56110
2863.91821	0.55027
2861.98965	0.53979
2860.06108	0.53011
2858.13252	0.52103
2856.20396	0.51231
2854.27539	0.50385
2852.34683	0.49560
2850.41826	0.48755
2848.48970	0.47951
2846.56113	0.47139
2844.63257	0.46365
2842.70400	0.45664
2840.77544	0.45012
2838.84687	0.44380
2836.91831	0.43766
2834.98975	0.43171
2833.06118	0.42582
2831.13262	0.41968
2829.20405	0.41338
2827.27549	0.40719
2825.34692	0.40112
2823.41836	0.39518
2821.48979	0.38938
2819.56123	0.38385
2817.63267	0.37860
2815.70410	0.37335
2813.77554	0.36809
2811.84697	0.36278
2809.91841	0.35734
2807.98984	0.35195
2806.06128	0.34690
2804.13271	0.34208
2802.20415	0.33720
2800.27559	0.33237
2798.34702	0.32774
2796.41846	0.32318
2794.48989	0.31867
2792.56133	0.31427
2790.63276	0.31000
2788.70420	0.30590
2786.77563	0.30181
2784.84707	0.29766
2782.91851	0.29365
2780.98994	0.28982
2779.06138	0.28603
2777.13281	0.28229
2775.20425	0.27858
2773.27568	0.27502
2771.34712	0.27166
2769.41855	0.26820
2767.48999	0.26462
2765.56143	0.26128
2763.63286	0.25801
2761.70430	0.25473
2759.77573	0.25164
2757.84717	0.24860
2755.91860	0.24554
2753.99004	0.24262
2752.06147	0.23976
2750.13291	0.23694
2748.20435	0.23424
2746.27578	0.23147
2744.34722	0.22860
2742.41865	0.22588
2740.49009	0.22349
2738.56152	0.22123
2736.63296	0.21888
2734.70439	0.21658
2732.77583	0.21434
2730.84727	0.21211
2728.91870	0.20999
2726.99014	0.20794
2725.06157	0.20587
2723.13301	0.20376
2721.20444	0.20173
2719.27588	0.19985
2717.34731	0.19804
2715.41875	0.19612
2713.49019	0.19420
2711.56162	0.19251
2709.63306	0.19092
2707.70449	0.18920
2705.77593	0.18750
2703.84736	0.18602
2701.91880	0.18462
2699.99023	0.18308
2698.06167	0.18146
2696.13311	0.18013
2694.20454	0.17915
2692.27598	0.17815
2690.34741	0.17689
2688.41885	0.17562
2686.49028	0.17440
2684.56172	0.17317
2682.63315	0.17201
2680.70459	0.17098
2678.77603	0.16990
2676.84746	0.16877
2674.91890	0.16778
2672.99033	0.16683
2671.06177	0.16580
2669.13320	0.16483
2667.20464	0.16398
2665.27607	0.16317
2663.34751	0.16240
2661.41895	0.16165
2659.49038	0.16079
2657.56182	0.16000
2655.63325	0.15948
2653.70469	0.15895
2651.77612	0.15827
2649.84756	0.15763
2647.91899	0.15706
2645.99043	0.15647
2644.06187	0.15604
2642.13330	0.15566
2640.20474	0.15510
2638.27617	0.15453
2636.34761	0.15422
2634.41904	0.15401
2632.49048	0.15361
2630.56191	0.15299
2628.63335	0.15250
2626.70479	0.15229
2624.77622	0.15209
2622.84766	0.15184
2620.91909	0.15169
2618.99053	0.15152
2617.06196	0.15113
2615.13340	0.15084
2613.20483	0.15092
2611.27627	0.15101
2609.34771	0.15086
2607.41914	0.15068
2605.49058	0.15064
2603.56201	0.15074
2601.63345	0.15088
2599.70488	0.15090
2597.77632	0.15084
2595.84775	0.15084
2593.91919	0.15097
2591.99062	0.15119
2590.06206	0.15138
2588.13350	0.15148
2586.20493	0.15161
2584.27637	0.15194
2582.34780	0.15227
2580.41924	0.15256
2578.49067	0.15286
2576.56211	0.15315
2574.63354	0.15338
2572.70498	0.15361
2570.77642	0.15398
2568.84785	0.15437
2566.91929	0.15470
2564.99072	0.15520
2563.06216	0.15581
2561.13359	0.15619
2559.20503	0.15640
2557.27646	0.15678
2555.34790	0.15748
2553.41934	0.15821
2551.49077	0.15875
2549.56221	0.15923
2547.63364	0.15979
2545.70508	0.16038
2543.77651	0.16104
2541.84795	0.16170
2539.91938	0.16229
2537.99082	0.16288
2536.06226	0.16356
2534.13369	0.16427
2532.20513	0.16493
2530.27656	0.16568
2528.34800	0.16652
2526.41943	0.16727
2524.49087	0.16798
2522.56230	0.16872
2520.63374	0.16940
2518.70518	0.17011
2516.77661	0.17089
2514.84805	0.17175
2512.91948	0.17271
2510.99092	0.17360
2509.06235	0.17427
2507.13379	0.17487
2505.20522	0.17560
2503.27666	0.17642
2501.34810	0.17731
2499.41953	0.17831
2497.49097	0.17930
2495.56240	0.18009
2493.63384	0.18081
2491.70527	0.18166
2489.77671	0.18263
2487.84814	0.18351
2485.91958	0.18428
2483.99102	0.18511
2482.06245	0.18605
2480.13389	0.18695
2478.20532	0.18784
2476.27676	0.18882
2474.34819	0.18982
2472.41963	0.19075
2470.49106	0.19160
2468.56250	0.19248
2466.63394	0.19348
2464.70537	0.19446
2462.77681	0.19536
2460.84824	0.19633
2458.91968	0.19739
2456.99111	0.19846
2455.06255	0.19945
2453.13398	0.20038
2451.20542	0.20128
2449.27686	0.20227
2447.34829	0.20336
2445.41973	0.20439
2443.49116	0.20536
2441.56260	0.20636
2439.63403	0.20736
2437.70547	0.20837
2435.77690	0.20941
2433.84834	0.21047
2431.91978	0.21159
2429.99121	0.21269
2428.06265	0.21359
2426.13408	0.21446
2424.20552	0.21554
2422.27695	0.21674
2420.34839	0.21783
2418.41982	0.21885
2416.49126	0.21990
2414.56270	0.22099
2412.63413	0.22218
2410.70557	0.22352
2408.77700	0.22483
2406.84844	0.22602
2404.91987	0.22728
2402.99131	0.22860
2401.06274	0.22987
2399.13418	0.23103
2397.20562	0.23213
2395.27705	0.23334
2393.34849	0.23457
2391.41992	0.23571
2389.49136	0.23685
2387.56279	0.23799
2385.63423	0.23889
2383.70566	0.23934
2381.77710	0.23937
2379.84854	0.23934
2377.91997	0.23947
2375.99141	0.23937
2374.06284	0.23885
2372.13428	0.23837
2370.20571	0.23784
2368.27715	0.23624
2366.34858	0.23424
2364.42002	0.23417
2362.49146	0.23547
2360.56289	0.23636
2358.63433	0.23754
2356.70576	0.23978
2354.77720	0.24327
2352.84863	0.24804
2350.92007	0.25296
2348.99150	0.25607
2347.06294	0.25700
2345.13437	0.25687
2343.20581	0.25715
2341.27725	0.25830
2339.34868	0.26007
2337.42012	0.26222
2335.49155	0.26398
2333.56299	0.26498
2331.63442	0.26616
2329.70586	0.26825
2327.77729	0.27081
2325.84873	0.27325
2323.92017	0.27576
2321.99160	0.27870
2320.06304	0.28187
2318.13447	0.28486
2316.20591	0.28745
2314.27734	0.28964
2312.34878	0.29163
2310.42021	0.29389
2308.49165	0.29650
2306.56309	0.29910
2304.63452	0.30151
2302.70596	0.30362
2300.77739	0.30557
2298.84883	0.30774
2296.92026	0.31008
2294.99170	0.31220
2293.06313	0.31427
2291.13457	0.31657
2289.20601	0.31887
2287.27744	0.32096
2285.34888	0.32302
2283.42031	0.32512
2281.49175	0.32716
2279.56318	0.32918
2277.63462	0.33113
2275.70605	0.33293
2273.77749	0.33492
2271.84893	0.33718
2269.92036	0.33932
2267.99180	0.34133
2266.06323	0.34345
2264.13467	0.34564
2262.20610	0.34786
2260.27754	0.35004
2258.34897	0.35207
2256.42041	0.35405
2254.49185	0.35617
2252.56328	0.35840
2250.63472	0.36064
2248.70615	0.36283
2246.77759	0.36506
2244.84902	0.36733
2242.92046	0.36957
2240.99189	0.37182
2239.06333	0.37413
2237.13477	0.37646
2235.20620	0.37874
2233.27764	0.38099
2231.34907	0.38329
2229.42051	0.38548
2227.49194	0.38756
2225.56338	0.38967
2223.63481	0.39184
2221.70625	0.39402
2219.77769	0.39615
2217.84912	0.39826
2215.92056	0.40045
2213.99199	0.40272
2212.06343	0.40501
2210.13486	0.40717
2208.20630	0.40924
2206.27773	0.41138
2204.34917	0.41350
2202.42061	0.41556
2200.49204	0.41763
2198.56348	0.41969
2196.63491	0.42165
2194.70635	0.42356
2192.77778	0.42543
2190.84922	0.42719
2188.92065	0.42892
2186.99209	0.43072
2185.06353	0.43255
2183.13496	0.43429
2181.20640	0.43596
2179.27783	0.43766
2177.34927	0.43934
2175.42070	0.44084
2173.49214	0.44219
2171.56357	0.44353
2169.63501	0.44494
2167.70645	0.44636
2165.77788	0.44765
2163.84932	0.44876
2161.92075	0.44981
2159.99219	0.45095
2158.06362	0.45217
2156.13506	0.45319
2154.20649	0.45389
2152.27793	0.45449
2150.34937	0.45505
2148.42080	0.45559
2146.49224	0.45612
2144.56367	0.45672
2142.63511	0.45742
2140.70654	0.45791
2138.77798	0.45800
2136.84941	0.45789
2134.92085	0.45789
2132.99229	0.45808
2131.06372	0.45824
2129.13516	0.45814
2127.20659	0.45780
2125.27803	0.45747
2123.34946	0.45714
2121.42090	0.45670
2119.49233	0.45601
2117.56377	0.45506
2115.63521	0.45411
2113.70664	0.45334
2111.77808	0.45251
2109.84951	0.45153
2107.92095	0.45055
2105.99238	0.44948
2104.06382	0.44831
2102.13525	0.44714
2100.20669	0.44583
2098.27812	0.44428
2096.34956	0.44263
2094.42100	0.44098
2092.49243	0.43933
2090.56387	0.43767
2088.63530	0.43591
2086.70674	0.43404
2084.77817	0.43212
2082.84961	0.43025
2080.92104	0.42841
2078.99248	0.42635
2077.06392	0.42410
2075.13535	0.42192
2073.20679	0.41986
2071.27822	0.41769
2069.34966	0.41546
2067.42109	0.41325
2065.49253	0.41096
2063.56396	0.40849
2061.63540	0.40594
2059.70684	0.40343
2057.77827	0.40091
2055.84971	0.39824
2053.92114	0.39555
2051.99258	0.39301
2050.06401	0.39048
2048.13545	0.38790
2046.20688	0.38529
2044.27832	0.38264
2042.34976	0.37992
2040.42119	0.37717
2038.49263	0.37442
2036.56406	0.37171
2034.63550	0.36900
2032.70693	0.36628
2030.77837	0.36343
2028.84980	0.36042
2026.92124	0.35754
2024.99268	0.35489
2023.06411	0.35230
2021.13555	0.34958
2019.20698	0.34676
2017.27842	0.34399
2015.34985	0.34126
2013.42129	0.33854
2011.49272	0.33584
2009.56416	0.33317
2007.63560	0.33044
2005.70703	0.32760
2003.77847	0.32482
2001.84990	0.32226
1999.92134	0.31983
1997.99277	0.31736
1996.06421	0.31480
1994.13564	0.31215
1992.20708	0.30949
1990.27852	0.30698
1988.34995	0.30454
1986.42139	0.30205
1984.49282	0.29963
1982.56426	0.29742
1980.63569	0.29519
1978.70713	0.29286
1976.77856	0.29057
1974.85000	0.28841
1972.92144	0.28623
1970.99287	0.28406
1969.06431	0.28202
1967.13574	0.28003
1965.20718	0.27800
1963.27861	0.27604
1961.35005	0.27416
1959.42148	0.27229
1957.49292	0.27046
1955.56436	0.26870
1953.63579	0.26702
1951.70723	0.26541
1949.77866	0.26382
1947.85010	0.26216
1945.92153	0.26049
1943.99297	0.25892
1942.06440	0.25742
1940.13584	0.25595
1938.20728	0.25460
1936.27871	0.25335
1934.35015	0.25215
1932.42158	0.25104
1930.49302	0.24994
1928.56445	0.24873
1926.63589	0.24750
1924.70732	0.24646
1922.77876	0.24549
1920.85020	0.24451
1918.92163	0.24362
1916.99307	0.24278
1915.06450	0.24193
1913.13594	0.24106
1911.20737	0.24024
1909.27881	0.23953
1907.35024	0.23901
1905.42168	0.23849
1903.49312	0.23789
1901.56455	0.23732
1899.63599	0.23680
1897.70742	0.23632
1895.77886	0.23587
1893.85029	0.23552
1891.92173	0.23523
1889.99316	0.23495
1888.06460	0.23458
1886.13604	0.23428
1884.20747	0.23414
1882.27891	0.23411
1880.35034	0.23414
1878.42178	0.23409
1876.49321	0.23400
1874.56465	0.23397
1872.63608	0.23401
1870.70752	0.23402
1868.77896	0.23424
1866.85039	0.23462
1864.92183	0.23481
1862.99326	0.23495
1861.06470	0.23521
1859.13613	0.23559
1857.20757	0.23595
1855.27900	0.23644
1853.35044	0.23699
1851.42187	0.23749
1849.49331	0.23791
1847.56475	0.23837
1845.63618	0.23907
1843.70762	0.24006
1841.77905	0.24101
1839.85049	0.24168
1837.92192	0.24247
1835.99336	0.24335
1834.06479	0.24428
1832.13623	0.24522
1830.20767	0.24643
1828.27910	0.24783
1826.35054	0.24900
1824.42197	0.25036
1822.49341	0.25183
1820.56484	0.25322
1818.63628	0.25460
1816.70771	0.25615
1814.77915	0.25773
1812.85059	0.25938
1810.92202	0.26133
1808.99346	0.26347
1807.06489	0.26545
1805.13633	0.26727
1803.20776	0.26936
1801.27920	0.27176
1799.35063	0.27448
1797.42207	0.27707
1795.49351	0.27953
1793.56494	0.28216
1791.63638	0.28561
1789.70781	0.28929
1787.77925	0.29220
1785.85068	0.29547
1783.92212	0.29918
1781.99355	0.30299
1780.06499	0.30707
1778.13643	0.31147
1776.20786	0.31551
1774.27930	0.31951
1772.35073	0.32494
1770.42217	0.33128
1768.49360	0.33692
1766.56504	0.34234
1764.63647	0.34777
1762.70791	0.35358
1760.77935	0.36104
1758.85078	0.36816
1756.92222	0.37532
1754.99365	0.38326
1753.06509	0.39031
1751.13652	0.39827
1749.20796	0.40850
1747.27939	0.41914
1745.35083	0.42860
1743.42227	0.43834
1741.49370	0.44889
1739.56514	0.46131
1737.63657	0.47379
1735.70801	0.48458
1733.77944	0.50073
1731.85088	0.52062
1729.92231	0.53664
1727.99375	0.55265
1726.06519	0.56966
1724.13662	0.58815
1722.20806	0.60799
1720.27949	0.62581
1718.35093	0.64625
1716.42236	0.67762
1714.49380	0.70883
1712.56523	0.73429
1710.63667	0.75837
1708.70811	0.78376
1706.77954	0.81253
1704.85098	0.84724
1702.92241	0.87832
1700.99385	0.90867
1699.06528	0.95404
1697.13672	0.99657
1695.20815	1.04049
1693.27959	1.08285
1691.35103	1.11676
1689.42246	1.15570
1687.49390	1.19660
1685.56533	1.23564
1683.63677	1.29615
1681.70820	1.35981
1679.77964	1.40093
1677.85107	1.43990
1675.92251	1.48423
1673.99395	1.53879
1672.06538	1.58721
1670.13682	1.63495
1668.20825	1.69777
1666.27969	1.74881
1664.35112	1.79152
1662.42256	1.84490
1660.49399	1.90554
1658.56543	1.95360
1656.63687	1.99247
1654.70830	2.02791
1652.77974	2.08308
1650.85117	2.13534
1648.92261	2.15482
1646.99404	2.17988
1645.06548	2.20740
1643.13691	2.22430
1641.20835	2.23405
1639.27979	2.24360
1637.35122	2.24868
1635.42266	2.24461
1633.49409	2.23490
1631.56553	2.22292
1629.63696	2.20759
1627.70840	2.18038
1625.77983	2.14798
1623.85127	2.10887
1621.92271	2.06133
1619.99414	2.01791
1618.06558	1.97540
1616.13701	1.91474
1614.20845	1.85118
1612.27988	1.80209
1610.35132	1.75166
1608.42275	1.69705
1606.49419	1.64294
1604.56562	1.59361
1602.63706	1.54644
1600.70850	1.49970
1598.77993	1.45606
1596.85137	1.41549
1594.92280	1.37648
1592.99424	1.33852
1591.06567	1.30375
1589.13711	1.27154
1587.20854	1.24170
1585.27998	1.21404
1583.35142	1.18784
1581.42285	1.16349
1579.49429	1.14256
1577.56572	1.12386
1575.63716	1.10139
1573.70859	1.08202
1571.78003	1.06959
1569.85146	1.05648
1567.92290	1.04204
1565.99434	1.03133
1564.06577	1.02287
1562.13721	1.01583
1560.20864	1.01044
1558.28008	1.00434
1556.35151	0.99967
1554.42295	0.99632
1552.49438	0.99287
1550.56582	0.98873
1548.63726	0.98306
1546.70869	0.97613
1544.78013	0.96736
1542.85156	0.95648
1540.92300	0.94174
1538.99443	0.91977
1537.06587	0.90420
1535.13730	0.89373
1533.20874	0.87964
1531.28018	0.86420
1529.35161	0.85262
1527.42305	0.84160
1525.49448	0.83035
1523.56592	0.82082
1521.63735	0.81169
1519.70879	0.80251
1517.78022	0.79469
1515.85166	0.78564
1513.92310	0.77632
1511.99453	0.76834
1510.06597	0.76096
1508.13740	0.75353
1506.20884	0.74268
1504.28027	0.73366
1502.35171	0.72843
1500.42314	0.72372
1498.49458	0.71865
1496.56602	0.71255
1494.63745	0.70647
1492.70889	0.70165
1490.78032	0.69719
1488.85176	0.69206
1486.92319	0.68755
1484.99463	0.68401
1483.06606	0.68074
1481.13750	0.67751
1479.20894	0.67479
1477.28037	0.67291
1475.35181	0.67141
1473.42324	0.66996
1471.49468	0.66827
1469.56611	0.66640
1467.63755	0.66447
1465.70898	0.66255
1463.78042	0.66066
1461.85186	0.65906
1459.92329	0.65787
1457.99473	0.65696
1456.06616	0.65595
1454.13760	0.65421
1452.20903	0.65216
1450.28047	0.65001
1448.35190	0.64785
1446.42334	0.64566
1444.49478	0.64356
1442.56621	0.64154
1440.63765	0.63949
1438.70908	0.63727
1436.78052	0.63443
1434.85195	0.63142
1432.92339	0.62908
1430.99482	0.62718
1429.06626	0.62573
1427.13770	0.62495
1425.20913	0.62463
1423.28057	0.62452
1421.35200	0.62432
1419.42344	0.62387
1417.49487	0.62326
1415.56631	0.62228
1413.63774	0.62125
1411.70918	0.62069
1409.78062	0.62069
1407.85205	0.62091
1405.92349	0.62122
1403.99492	0.62156
1402.06636	0.62146
1400.13779	0.62073
1398.20923	0.61938
1396.28066	0.61742
1394.35210	0.61482
1392.42354	0.61192
1390.49497	0.60908
1388.56641	0.60613
1386.63784	0.60273
1384.70928	0.59913
1382.78071	0.59586
1380.85215	0.59291
1378.92358	0.59022
1376.99502	0.58797
1375.06646	0.58629
1373.13789	0.58501
1371.20933	0.58396
1369.28076	0.58307
1367.35220	0.58202
1365.42363	0.58053
1363.49507	0.57895
1361.56650	0.57766
1359.63794	0.57652
1357.70937	0.57538
1355.78081	0.57431
1353.85225	0.57338
1351.92368	0.57260
1349.99512	0.57194
1348.06655	0.57126
1346.13799	0.57045
1344.20942	0.56961
1342.28086	0.56879
1340.35229	0.56797
1338.42373	0.56718
1336.49517	0.56647
1334.56660	0.56590
1332.63804	0.56558
1330.70947	0.56548
1328.78091	0.56547
1326.85234	0.56551
1324.92378	0.56564
1322.99521	0.56578
1321.06665	0.56572
1319.13809	0.56543
1317.20952	0.56512
1315.28096	0.56488
1313.35239	0.56442
1311.42383	0.56369
1309.49526	0.56299
1307.56670	0.56241
1305.63813	0.56198
1303.70957	0.56158
1301.78101	0.56099
1299.85244	0.56024
1297.92388	0.55944
1295.99531	0.55858
1294.06675	0.55774
1292.13818	0.55688
1290.20962	0.55587
1288.28105	0.55479
1286.35249	0.55378
1284.42393	0.55291
1282.49536	0.55204
1280.56680	0.55107
1278.63823	0.55005
1276.70967	0.54908
1274.78110	0.54830
1272.85254	0.54779
1270.92397	0.54729
1268.99541	0.54666
1267.06685	0.54598
1265.13828	0.54531
1263.20972	0.54480
1261.28115	0.54436
1259.35259	0.54374
1257.42402	0.54309
1255.49546	0.54263
1253.56689	0.54236
1251.63833	0.54223
1249.70977	0.54212
1247.78120	0.54182
1245.85264	0.54140
1243.92407	0.54093
1241.99551	0.54038
1240.06694	0.53957
1238.13838	0.53840
1236.20981	0.53704
1234.28125	0.53570
1232.35269	0.53435
1230.42412	0.53297
1228.49556	0.53161
1226.56699	0.53027
1224.63843	0.52895
1222.70986	0.52774
1220.78130	0.52671
1218.85273	0.52567
1216.92417	0.52449
1214.99561	0.52345
1213.06704	0.52269
1211.13848	0.52200
1209.20991	0.52128
1207.28135	0.52063
1205.35278	0.51986
1203.42422	0.51891
1201.49565	0.51806
1199.56709	0.51749
1197.63853	0.51704
1195.70996	0.51649
1193.78140	0.51585
1191.85283	0.51538
1189.92427	0.51521
1187.99570	0.51506
1186.06714	0.51484
1184.13857	0.51472
1182.21001	0.51492
1180.28145	0.51553
1178.35288	0.51641
1176.42432	0.51730
1174.49575	0.51796
1172.56719	0.51834
1170.63862	0.51846
1168.71006	0.51833
1166.78149	0.51815
1164.85293	0.51808
1162.92437	0.51808
1160.99580	0.51796
1159.06724	0.51748
1157.13867	0.51657
1155.21011	0.51541
1153.28154	0.51417
1151.35298	0.51281
1149.42441	0.51103
1147.49585	0.50890
1145.56729	0.50678
1143.63872	0.50475
1141.71016	0.50272
1139.78159	0.50070
1137.85303	0.49877
1135.92446	0.49706
1133.99590	0.49549
1132.06733	0.49419
1130.13877	0.49328
1128.21021	0.49242
1126.28164	0.49146
1124.35308	0.49057
1122.42451	0.48971
1120.49595	0.48892
1118.56738	0.48844
1116.63882	0.48821
1114.71025	0.48808
1112.78169	0.48825
1110.85312	0.48863
1108.92456	0.48893
1106.99600	0.48942
1105.06743	0.49070
1103.13887	0.49262
1101.21030	0.49460
1099.28174	0.49661
1097.35317	0.49923
1095.42461	0.50263
1093.49604	0.50634
1091.56748	0.51026
1089.63892	0.51488
1087.71035	0.52028
1085.78179	0.52631
1083.85322	0.53287
1081.92466	0.53936
1079.99609	0.54489
1078.06753	0.54861
1076.13896	0.54968
1074.21040	0.54789
1072.28184	0.54388
1070.35327	0.53841
1068.42471	0.53198
1066.49614	0.52503
1064.56758	0.51824
1062.63901	0.51226
1060.71045	0.50713
1058.78188	0.50264
1056.85332	0.49856
1054.92476	0.49470
1052.99619	0.49134
1051.06763	0.48872
1049.13906	0.48662
1047.21050	0.48476
1045.28193	0.48315
1043.35337	0.48180
1041.42480	0.48070
1039.49624	0.47978
1037.56768	0.47894
1035.63911	0.47830
1033.71055	0.47792
1031.78198	0.47782
1029.85342	0.47783
1027.92485	0.47775
1025.99629	0.47778
1024.06772	0.47805
1022.13916	0.47839
1020.21060	0.47876
1018.28203	0.47935
1016.35347	0.48021
1014.42490	0.48115
1012.49634	0.48219
1010.56777	0.48361
1008.63921	0.48520
1006.71064	0.48672
1004.78208	0.48848
1002.85352	0.49067
1000.92495	0.49321
998.99639	0.49631
997.06782	0.50004
995.13926	0.50401
993.21069	0.50787
991.28213	0.51142
989.35356	0.51418
987.42500	0.51577
985.49644	0.51658
983.56787	0.51726
981.63931	0.51807
979.71074	0.51923
977.78218	0.52102
975.85361	0.52341
973.92505	0.52614
971.99648	0.52926
970.06792	0.53281
968.13936	0.53655
966.21079	0.54054
964.28223	0.54512
962.35366	0.55006
960.42510	0.55516
958.49653	0.56077
956.56797	0.56683
954.63940	0.57292
952.71084	0.57914
950.78228	0.58566
948.85371	0.59208
946.92515	0.59806
944.99658	0.60421
943.06802	0.61076
941.13945	0.61701
939.21089	0.62293
937.28232	0.62905
935.35376	0.63532
933.42520	0.64136
931.49663	0.64722
929.56807	0.65290
927.63950	0.65834
925.71094	0.66378
923.78237	0.66959
921.85381	0.67653
919.92524	0.68451
917.99668	0.69183
916.06812	0.69842
914.13955	0.70583
912.21099	0.71402
910.28242	0.72227
908.35386	0.73046
906.42529	0.73883
904.49673	0.74757
902.56816	0.75649
900.63960	0.76520
898.71104	0.77410
896.78247	0.78430
894.85391	0.79578
892.92534	0.80730
890.99678	0.81869
889.06821	0.83050
887.13965	0.84193
885.21108	0.85223
883.28252	0.86240
881.35396	0.87405
879.42539	0.88672
877.49683	0.89839
875.56826	0.90952
873.63970	0.92110
871.71113	0.93216
869.78257	0.94289
867.85400	0.95498
865.92544	0.96792
863.99687	0.97991
862.06831	0.99150
860.13975	1.00330
858.21118	1.01504
856.28262	1.02656
854.35405	1.03726
852.42549	1.04849
850.49692	1.06148
848.56836	1.07429
846.63979	1.08662
844.71123	1.09893
842.78267	1.11014
840.85410	1.12195
838.92554	1.13547
836.99697	1.14781
835.06841	1.15792
833.13984	1.17004
831.21128	1.18579
829.28271	1.20184
827.35415	1.21428
825.42559	1.22242
823.49702	1.23322
821.56846	1.25042
819.63989	1.27065
817.71133	1.28444
815.78276	1.28926
813.85420	1.29627
811.92563	1.30700
809.99707	1.31947
808.06851	1.34117
806.13994	1.37343
804.21138	1.40625
802.28281	1.45073
800.35425	1.52067
798.42568	1.58231
796.49712	1.57403
794.56855	1.50942
792.63999	1.48417
790.71143	1.53404
788.78286	1.59775
786.85430	1.60772
784.92573	1.60423
782.99717	1.56940
781.06860	1.52005
779.14004	1.60962
777.21147	1.98896
775.28291	4.65170
773.35435	4.64013
771.42578	4.62855
769.49722	2.39619
767.56865	1.84824
765.64009	1.67094
763.71152	1.69018
761.78296	1.75140
759.85439	1.49148
757.92583	1.30000
755.99727	1.26619
754.06870	1.34790
752.14014	1.55862
750.21157	1.58367
748.28301	1.25876
746.35444	1.10894
744.42588	1.11360
742.49731	1.11007
740.56875	1.04973
738.64019	0.95430
736.71162	0.80935
734.78306	0.66741
732.85449	0.59608
730.92593	0.61843
728.99736	0.63804
727.06880	0.55759
725.14023	0.45363
723.21167	0.35992
721.28311	0.27261
719.35454	0.23608
717.42598	0.24329
715.49741	0.21137
713.56885	0.11263
711.64028	-0.08550
709.71172	-0.25118
707.78315	-0.09987
705.85459	0.11956
703.92603	0.30874
701.99746	0.21713
700.06890	0.16140
698.14033	0.10467
696.21177	-0.00668
694.28320	-0.07832
692.35464	-0.11918
690.42607	-0.17560
688.49751	-0.25023
686.56895	-0.27374
684.64038	-0.11564
682.71182	0.04988
680.78325	0.03897
678.85469	-0.03548
676.92612	-0.08965
674.99756	-0.06655
673.06899	-0.01300
671.14043	-0.00170
669.21187	-0.02403
667.28330	0.00853
665.35474	0.06594
663.42617	0.07800
661.49761	0.05740
659.56904	0.07108
657.64048	0.13875
655.71191	0.19762
653.78335	0.15969
651.85479	0.07909
649.92622	-0.00354
647.99766	0.01086
646.06909	0.07169
644.14053	0.12155
642.21196	0.18992
640.28340	0.21421
638.35483	0.15357
636.42627	0.06548
634.49771	-0.00251
632.56914	0.00125
630.64058	0.04654
628.71201	0.05833
626.78345	0.07785
624.85488	0.12715
622.92632	0.14044
620.99775	0.10583
619.06919	0.10065
617.14062	0.14689
615.21206	0.21292
613.28350	0.19932
611.35493	0.13491
609.42637	0.09957
607.49780	0.07086
605.56924	0.01036
603.64067	-0.05472
601.71211	-0.02980
599.78354	0.02370
597.85498	0.02329
595.92642	0.00872
593.99785	-0.04715
592.06929	-0.03206
590.14072	0.01386
588.21216	0.01247
586.28359	0.03641
584.35503	0.11488
582.42646	0.13592
580.49790	0.11718
578.56934	0.07561
576.64077	0.02620
574.71221	0.03017
572.78364	0.08143
570.85508	0.13137
568.92651	0.14605
566.99795	0.14048
565.06938	0.12859
563.14082	0.11736
561.21226	0.10450
559.28369	0.09852
557.35513	0.12164
555.42656	0.15832
553.49800	0.16589
551.56943	0.11143
549.64087	0.03099
547.71230	0.02077
545.78374	0.08350
543.85518	0.16091
541.92661	0.20774
539.99805	0.15656
538.06948	0.07474
536.14092	0.04748
534.21235	0.05244
532.28379	0.08864
530.35522	0.12420
528.42666	0.07002
526.49810	0.04126
524.56953	0.11154
522.64097	0.18546
520.71240	0.20413
518.78384	0.19626
516.85527	0.17942
514.92671	0.12245
512.99814	0.06539
511.06958	0.05860
509.14102	0.07722
507.21245	0.08668
505.28389	0.08906
503.35532	0.08082
501.42676	0.07284
499.49819	0.07866
