3997.91411	0.07231
3995.98555	0.07272
3994.05698	0.07273
3992.12842	0.07272
3990.19985	0.07291
3988.27129	0.07317
3986.34272	0.07338
3984.41416	0.07363
3982.48560	0.07393
3980.55703	0.07431
3978.62847	0.07466
3976.69990	0.07489
3974.77134	0.07532
3972.84277	0.07573
3970.91421	0.07562
3968.98564	0.07565
3967.05708	0.07612
3965.12852	0.07638
3963.19995	0.07646
3961.27139	0.07686
3959.34282	0.07738
3957.41426	0.07760
3955.48569	0.07757
3953.55713	0.07739
3951.62856	0.07737
3949.70000	0.07759
3947.77144	0.07765
3945.84287	0.07737
3943.91431	0.07715
3941.98574	0.07733
3940.05718	0.07726
3938.12861	0.07670
3936.20005	0.07626
3934.27148	0.07621
3932.34292	0.07685
3930.41436	0.07788
3928.48579	0.07803
3926.55723	0.07759
3924.62866	0.07783
3922.70010	0.07805
3920.77153	0.07758
3918.84297	0.07747
3916.91440	0.07780
3914.98584	0.07750
3913.05728	0.07626
3911.12871	0.07496
3909.20015	0.07449
3907.27158	0.07504
3905.34302	0.07667
3903.41445	0.07955
3901.48589	0.08212
3899.55732	0.08248
3897.62876	0.08072
3895.70020	0.07845
3893.77163	0.07757
3891.84307	0.07862
3889.91450	0.07969
3887.98594	0.07922
3886.05737	0.07910
3884.12881	0.07993
3882.20024	0.08044
3880.27168	0.08087
3878.34312	0.08035
3876.41455	0.07887
3874.48599	0.07899
3872.55742	0.08075
3870.62886	0.08243
3868.70029	0.08312
3866.77173	0.08214
3864.84316	0.08178
3862.91460	0.08286
3860.98604	0.08283
3859.05747	0.08197
3857.12891	0.08231
3855.20034	0.08458
3853.27178	0.08914
3851.34321	0.09145
3849.41465	0.08818
3847.48608	0.08490
3845.55752	0.08383
3843.62896	0.08498
3841.70039	0.08736
3839.77183	0.09017
3837.84326	0.09308
3835.91470	0.09401
3833.98613	0.09263
3832.05757	0.09125
3830.12900	0.09072
3828.20044	0.09080
3826.27187	0.09132
3824.34331	0.09209
3822.41475	0.09400
3820.48618	0.09754
3818.55762	0.09895
3816.62905	0.09864
3814.70049	0.09871
3812.77192	0.09721
3810.84336	0.09550
3808.91479	0.09598
3806.98623	0.09891
3805.05767	0.10204
3803.12910	0.10390
3801.20054	0.10647
3799.27197	0.10818
3797.34341	0.10749
3795.41484	0.10710
3793.48628	0.10708
3791.55771	0.10711
3789.62915	0.10778
3787.70059	0.10899
3785.77202	0.11065
3783.84346	0.11251
3781.91489	0.11417
3779.98633	0.11627
3778.05776	0.11847
3776.12920	0.11897
3774.20063	0.11914
3772.27207	0.12093
3770.34351	0.12416
3768.41494	0.12743
3766.48638	0.12955
3764.55781	0.13114
3762.62925	0.13251
3760.70068	0.13433
3758.77212	0.13730
3756.84355	0.14024
3754.91499	0.14240
3752.98643	0.14564
3751.05786	0.15190
3749.12930	0.15849
3747.20073	0.16057
3745.27217	0.16173
3743.34360	0.16487
3741.41504	0.16777
3739.48647	0.17046
3737.55791	0.17535
3735.62935	0.18336
3733.70078	0.19145
3731.77222	0.19537
3729.84365	0.19759
3727.91509	0.20085
3725.98652	0.20618
3724.05796	0.21295
3722.12939	0.21924
3720.20083	0.22443
3718.27227	0.22898
3716.34370	0.23411
3714.41514	0.24096
3712.48657	0.25173
3710.55801	0.26776
3708.62944	0.28249
3706.70088	0.29225
3704.77231	0.30206
3702.84375	0.31501
3700.91519	0.33185
3698.98662	0.34942
3697.05806	0.36582
3695.12949	0.38360
3693.20093	0.40295
3691.27236	0.42475
3689.34380	0.45324
3687.41523	0.48644
3685.48667	0.51405
3683.55811	0.53815
3681.62954	0.56546
3679.70098	0.59732
3677.77241	0.63108
3675.84385	0.67093
3673.91528	0.72356
3671.98672	0.76552
3670.05815	0.80291
3668.12959	0.85452
3666.20103	0.90079
3664.27246	0.93913
3662.34390	0.98080
3660.41533	1.02635
3658.48677	1.07212
3656.55820	1.12183
3654.62964	1.17675
3652.70107	1.22240
3650.77251	1.26384
3648.84395	1.32270
3646.91538	1.39112
3644.98682	1.43751
3643.05825	1.47312
3641.12969	1.51139
3639.20112	1.55469
3637.27256	1.59871
3635.34399	1.64221
3633.41543	1.68679
3631.48687	1.72836
3629.55830	1.76936
3627.62974	1.82280
3625.70117	1.87293
3623.77261	1.90678
3621.84404	1.93854
3619.91548	1.97525
3617.98691	2.02090
3616.05835	2.06474
3614.12979	2.10107
3612.20122	2.13959
3610.27266	2.17839
3608.34409	2.21778
3606.41553	2.25987
3604.48696	2.29843
3602.55840	2.33349
3600.62983	2.37185
3598.70127	2.41263
3596.77271	2.45229
3594.84414	2.49361
3592.91558	2.53587
3590.98701	2.57334
3589.05845	2.60790
3587.12988	2.65140
3585.20132	2.70063
3583.27275	2.74230
3581.34419	2.77981
3579.41562	2.81884
3577.48706	2.86041
3575.55850	2.90288
3573.62993	2.94497
3571.70137	2.98547
3569.77280	3.02610
3567.84424	3.07153
3565.91567	3.12656
3563.98711	3.17714
3562.05854	3.21629
3560.12998	3.25666
3558.20142	3.30197
3556.27285	3.34665
3554.34429	3.38851
3552.41572	3.43330
3550.48716	3.48079
3548.55859	3.52739
3546.63003	3.57432
3544.70146	3.62315
3542.77290	3.67147
3540.84434	3.71629
3538.91577	3.75838
3536.98721	3.80201
3535.05864	3.85286
3533.13008	3.90533
3531.20151	3.95418
3529.27295	4.00367
3527.34438	4.05548
3525.41582	4.10545
3523.48726	4.15245
3521.55869	4.20102
3519.63013	4.25137
3517.70156	4.29910
3515.77300	4.34467
3513.84443	4.39388
3511.91587	4.44498
3509.98730	4.49265
3508.05874	4.53769
3506.13018	4.58439
3504.20161	4.63473
3502.27305	4.68531
3500.34448	4.73140
3498.41592	4.77467
3496.48735	4.82001
3494.55879	4.86926
3492.63022	4.92365
3490.70166	4.97932
3488.77310	5.02955
3486.84453	5.07588
3484.91597	5.12202
3482.98740	5.16419
3481.05884	5.20196
3479.13027	5.24468
3477.20171	5.29551
3475.27314	5.34690
3473.34458	5.39749
3471.41602	5.44853
3469.48745	5.49613
3467.55889	5.54500
3465.63032	5.60069
3463.70176	5.65807
3461.77319	5.71053
3459.84463	5.76329
3457.91606	5.82047
3455.98750	5.87248
3454.05894	5.91804
3452.13037	5.97223
3450.20181	6.02681
3448.27324	6.06363
3446.34468	6.10800
3444.41611	6.16860
3442.48755	6.22069
3440.55898	6.26831
3438.63042	6.32072
3436.70186	6.36524
3434.77329	6.40193
3432.84473	6.44205
3430.91616	6.47887
3428.98760	6.51339
3427.05903	6.56488
3425.13047	6.64347
3423.20190	6.72260
3421.27334	6.77700
3419.34478	6.81577
3417.41621	6.86734
3415.48765	6.93792
3413.55908	7.00257
3411.63052	7.06066
3409.70195	7.12130
3407.77339	7.17766
3405.84482	7.21021
3403.91626	7.23587
3401.98770	7.27357
3400.05913	7.29597
3398.13057	7.30092
3396.20200	7.32399
3394.27344	7.37453
3392.34487	7.42305
3390.41631	7.45458
3388.48774	7.47929
3386.55918	7.53410
3384.63062	7.61707
3382.70205	7.69019
3380.77349	7.72275
3378.84492	7.70267
3376.91636	7.68025
3374.98779	7.69457
3373.05923	7.71621
3371.13066	7.72901
3369.20210	7.77663
3367.27354	7.82921
3365.34497	7.87145
3363.41641	7.91654
3361.48784	7.94075
3359.55928	7.98038
3357.63071	8.01912
3355.70215	8.02516
3353.77358	8.02264
3351.84502	8.03080
3349.91646	8.02999
3347.98789	8.03510
3346.05933	8.08013
3344.13076	8.12471
3342.20220	8.12357
3340.27363	8.10008
3338.34507	8.08736
3336.41650	8.08267
3334.48794	8.09748
3332.55937	8.10090
3330.63081	8.10532
3328.70225	8.13558
3326.77368	8.15786
3324.84512	8.16856
3322.91655	8.12396
3320.98799	8.01982
3319.05942	7.97235
3317.13086	8.07176
3315.20229	8.22723
3313.27373	8.27703
3311.34517	8.22209
3309.41660	8.15561
3307.48804	8.11720
3305.55947	8.12316
3303.63091	8.18259
3301.70234	8.21980
3299.77378	8.21955
3297.84521	8.21797
3295.91665	8.18127
3293.98809	8.14084
3292.05952	8.17280
3290.13096	8.23039
3288.20239	8.23485
3286.27383	8.22952
3284.34526	8.23611
3282.41670	8.21401
3280.48813	8.21106
3278.55957	8.29641
3276.63101	8.39105
3274.70244	8.46026
3272.77388	8.55432
3270.84531	8.58252
3268.91675	8.50713
3266.98818	8.48256
3265.05962	8.53478
3263.13105	8.53308
3261.20249	8.53331
3259.27393	8.54229
3257.34536	8.45745
3255.41680	8.35687
3253.48823	8.30152
3251.55967	8.31469
3249.63110	8.43724
3247.70254	8.54106
3245.77397	8.46838
3243.84541	8.34365
3241.91685	8.23402
3239.98828	8.14528
3238.05972	8.15220
3236.13115	8.21395
3234.20259	8.23327
3232.27402	8.23788
3230.34546	8.28419
3228.41689	8.33028
3226.48833	8.30920
3224.55977	8.23017
3222.63120	8.13449
3220.70264	8.06567
3218.77407	8.05523
3216.84551	8.02951
3214.91694	7.97303
3212.98838	8.01629
3211.05981	8.13285
3209.13125	8.15087
3207.20269	8.08373
3205.27412	8.01545
3203.34556	7.89927
3201.41699	7.75562
3199.48843	7.71421
3197.55986	7.80173
3195.63130	7.86366
3193.70273	7.80497
3191.77417	7.73682
3189.84561	7.70184
3187.91704	7.66230
3185.98848	7.60870
3184.05991	7.53405
3182.13135	7.45571
3180.20278	7.39845
3178.27422	7.36326
3176.34565	7.34434
3174.41709	7.31628
3172.48853	7.26354
3170.55996	7.19837
3168.63140	7.11616
3166.70283	7.00749
3164.77427	6.91652
3162.84570	6.88039
3160.91714	6.84207
3158.98857	6.75985
3157.06001	6.68561
3155.13145	6.63089
3153.20288	6.55898
3151.27432	6.47853
3149.34575	6.39054
3147.41719	6.29351
3145.48862	6.22210
3143.56006	6.17656
3141.63149	6.12589
3139.70293	6.05180
3137.77437	5.96789
3135.84580	5.89386
3133.91724	5.82268
3131.98867	5.75999
3130.06011	5.71281
3128.13154	5.65233
3126.20298	5.56600
3124.27441	5.47717
3122.34585	5.39834
3120.41729	5.32608
3118.48872	5.25666
3116.56016	5.18757
3114.63159	5.11636
3112.70303	5.04504
3110.77446	4.97665
3108.84590	4.90710
3106.91733	4.83352
3104.98877	4.76106
3103.06021	4.69311
3101.13164	4.62660
3099.20308	4.55921
3097.27451	4.48926
3095.34595	4.41866
3093.41738	4.35177
3091.48882	4.28997
3089.56025	4.23194
3087.63169	4.17218
3085.70312	4.10918
3083.77456	4.04674
3081.84600	3.98519
3079.91743	3.92068
3077.98887	3.85441
3076.06030	3.79301
3074.13174	3.73572
3072.20317	3.67838
3070.27461	3.62089
3068.34604	3.56243
3066.41748	3.50293
3064.48892	3.44516
3062.56035	3.38992
3060.63179	3.33598
3058.70322	3.28154
3056.77466	3.22646
3054.84609	3.17277
3052.91753	3.11953
3050.98896	3.06558
3049.06040	3.01301
3047.13184	2.96296
3045.20327	2.91410
3043.27471	2.86494
3041.34614	2.81563
3039.41758	2.76801
3037.48901	2.72258
3035.56045	2.67721
3033.63188	2.63104
3031.70332	2.58516
3029.77476	2.54004
3027.84619	2.49584
3025.91763	2.45245
3023.98906	2.40943
3022.06050	2.36712
3020.13193	2.32524
3018.20337	2.28335
3016.27480	2.24263
3014.34624	2.20353
3012.41768	2.16478
3010.48911	2.12604
3008.56055	2.08834
3006.63198	2.05157
3004.70342	2.01496
3002.77485	1.97895
3000.84629	1.94403
2998.91772	1.90978
2996.98916	1.87613
2995.06060	1.84362
2993.13203	1.81215
2991.20347	1.78108
2989.27490	1.75073
2987.34634	1.72130
2985.41777	1.69242
2983.48921	1.66400
2981.56064	1.63605
2979.63208	1.60849
2977.70352	1.58154
2975.77495	1.55506
2973.84639	1.52841
2971.91782	1.50209
2969.98926	1.47714
2968.06069	1.45289
2966.13213	1.42848
2964.20356	1.40409
2962.27500	1.37967
2960.34644	1.35534
2958.41787	1.33134
2956.48931	1.30728
2954.56074	1.28332
2952.63218	1.26016
2950.70361	1.23750
2948.77505	1.21459
2946.84648	1.19189
2944.91792	1.17028
2942.98936	1.14920
2941.06079	1.12824
2939.13223	1.10818
2937.20366	1.08907
2935.27510	1.06988
2933.34653	1.04988
2931.41797	1.02968
2929.48940	1.01062
2927.56084	0.99215
2925.63228	0.97318
2923.70371	0.95480
2921.77515	0.93754
2919.84658	0.92052
2917.91802	0.90367
2915.98945	0.88720
2914.06089	0.87088
2912.13232	0.85512
2910.20376	0.84023
2908.27520	0.82556
2906.34663	0.81054
2904.41807	0.79544
2902.48950	0.78105
2900.56094	0.76766
2898.63237	0.75479
2896.70381	0.74196
2894.77524	0.72908
2892.84668	0.71636
2890.91812	0.70431
2888.98955	0.69288
2887.06099	0.68162
2885.13242	0.67062
2883.20386	0.66020
2881.27529	0.65029
2879.34673	0.64051
2877.41816	0.63062
2875.48960	0.62075
2873.56104	0.61082
2871.63247	0.60065
2869.70391	0.59035
2867.77534	0.57979
2865.84678	0.56873
2863.91821	0.55756
2861.98965	0.54664
2860.06108	0.53611
2858.13252	0.52605
2856.20396	0.51643
2854.27539	0.50741
2852.34683	0.49893
2850.41826	0.49074
2848.48970	0.48293
2846.56113	0.47545
2844.63257	0.46802
2842.70400	0.46087
2840.77544	0.45427
2838.84687	0.44808
2836.91831	0.44217
2834.98975	0.43640
2833.06118	0.43059
2831.13262	0.42472
2829.20405	0.41884
2827.27549	0.41279
2825.34692	0.40669
2823.41836	0.40087
2821.48979	0.39516
2819.56123	0.38940
2817.63267	0.38392
2815.70410	0.37860
2813.77554	0.37311
2811.84697	0.36765
2809.91841	0.36232
2807.98984	0.35704
2806.06128	0.35188
2804.13271	0.34678
2802.20415	0.34178
2800.27559	0.33699
2798.34702	0.33229
2796.41846	0.32766
2794.48989	0.32317
2792.56133	0.31866
2790.63276	0.31410
2788.70420	0.30967
2786.77563	0.30555
2784.84707	0.30165
2782.91851	0.29772
2780.98994	0.29382
2779.06138	0.29007
2777.13281	0.28634
2775.20425	0.28263
2773.27568	0.27904
2771.34712	0.27538
2769.41855	0.27165
2767.48999	0.26820
2765.56143	0.26496
2763.63286	0.26148
2761.70430	0.25795
2759.77573	0.25468
2757.84717	0.25165
2755.91860	0.24881
2753.99004	0.24597
2752.06147	0.24301
2750.13291	0.24006
2748.20435	0.23731
2746.27578	0.23460
2744.34722	0.23181
2742.41865	0.22911
2740.49009	0.22659
2738.56152	0.22416
2736.63296	0.22183
2734.70439	0.21952
2732.77583	0.21707
2730.84727	0.21462
2728.91870	0.21233
2726.99014	0.21028
2725.06157	0.20829
2723.13301	0.20627
2721.20444	0.20435
2719.27588	0.20235
2717.34731	0.20010
2715.41875	0.19796
2713.49019	0.19616
2711.56162	0.19461
2709.63306	0.19313
2707.70449	0.19152
2705.77593	0.18980
2703.84736	0.18810
2701.91880	0.18654
2699.99023	0.18509
2698.06167	0.18375
2696.13311	0.18248
2694.20454	0.18119
2692.27598	0.17986
2690.34741	0.17857
2688.41885	0.17734
2686.49028	0.17612
2684.56172	0.17493
2682.63315	0.17384
2680.70459	0.17277
2678.77603	0.17163
2676.84746	0.17055
2674.91890	0.16959
2672.99033	0.16866
2671.06177	0.16770
2669.13320	0.16667
2667.20464	0.16571
2665.27607	0.16498
2663.34751	0.16440
2661.41895	0.16383
2659.49038	0.16307
2657.56182	0.16217
2655.63325	0.16132
2653.70469	0.16057
2651.77612	0.15995
2649.84756	0.15936
2647.91899	0.15866
2645.99043	0.15798
2644.06187	0.15753
2642.13330	0.15719
2640.20474	0.15680
2638.27617	0.15639
2636.34761	0.15586
2634.41904	0.15527
2632.49048	0.15478
2630.56191	0.15431
2628.63335	0.15399
2626.70479	0.15397
2624.77622	0.15386
2622.84766	0.15355
2620.91909	0.15328
2618.99053	0.15311
2617.06196	0.15290
2615.13340	0.15268
2613.20483	0.15252
2611.27627	0.15242
2609.34771	0.15240
2607.41914	0.15243
2605.49058	0.15234
2603.56201	0.15221
2601.63345	0.15226
2599.70488	0.15231
2597.77632	0.15230
2595.84775	0.15242
2593.91919	0.15264
2591.99062	0.15282
2590.06206	0.15295
2588.13350	0.15312
2586.20493	0.15334
2584.27637	0.15353
2582.34780	0.15368
2580.41924	0.15378
2578.49067	0.15392
2576.56211	0.15429
2574.63354	0.15480
2572.70498	0.15513
2570.77642	0.15535
2568.84785	0.15567
2566.91929	0.15608
2564.99072	0.15653
2563.06216	0.15691
2561.13359	0.15718
2559.20503	0.15755
2557.27646	0.15810
2555.34790	0.15869
2553.41934	0.15927
2551.49077	0.15995
2549.56221	0.16067
2547.63364	0.16132
2545.70508	0.16186
2543.77651	0.16233
2541.84795	0.16283
2539.91938	0.16343
2537.99082	0.16409
2536.06226	0.16475
2534.13369	0.16530
2532.20513	0.16577
2530.27656	0.16643
2528.34800	0.16729
2526.41943	0.16811
2524.49087	0.16883
2522.56230	0.16947
2520.63374	0.17011
2518.70518	0.17091
2516.77661	0.17184
2514.84805	0.17267
2512.91948	0.17329
2510.99092	0.17391
2509.06235	0.17475
2507.13379	0.17576
2505.20522	0.17673
2503.27666	0.17755
2501.34810	0.17826
2499.41953	0.17898
2497.49097	0.17993
2495.56240	0.18095
2493.63384	0.18176
2491.70527	0.18248
2489.77671	0.18329
2487.84814	0.18415
2485.91958	0.18505
2483.99102	0.18601
2482.06245	0.18700
2480.13389	0.18797
2478.20532	0.18889
2476.27676	0.18970
2474.34819	0.19047
2472.41963	0.19138
2470.49106	0.19243
2468.56250	0.19342
2466.63394	0.19426
2464.70537	0.19511
2462.77681	0.19605
2460.84824	0.19701
2458.91968	0.19797
2456.99111	0.19900
2455.06255	0.20010
2453.13398	0.20121
2451.20542	0.20221
2449.27686	0.20306
2447.34829	0.20393
2445.41973	0.20490
2443.49116	0.20588
2441.56260	0.20686
2439.63403	0.20784
2437.70547	0.20882
2435.77690	0.20986
2433.84834	0.21093
2431.91978	0.21195
2429.99121	0.21298
2428.06265	0.21406
2426.13408	0.21511
2424.20552	0.21610
2422.27695	0.21707
2420.34839	0.21816
2418.41982	0.21957
2416.49126	0.22104
2414.56270	0.22216
2412.63413	0.22311
2410.70557	0.22412
2408.77700	0.22518
2406.84844	0.22630
2404.91987	0.22743
2402.99131	0.22866
2401.06274	0.23002
2399.13418	0.23131
2397.20562	0.23244
2395.27705	0.23358
2393.34849	0.23481
2391.41992	0.23624
2389.49136	0.23783
2387.56279	0.23968
2385.63423	0.24228
2383.70566	0.24623
2381.77710	0.25173
2379.84854	0.25842
2377.91997	0.26579
2375.99141	0.27396
2374.06284	0.28345
2372.13428	0.29412
2370.20571	0.30583
2368.27715	0.31853
2366.34858	0.33115
2364.42002	0.34219
2362.49146	0.35079
2360.56289	0.35650
2358.63433	0.35820
2356.70576	0.35486
2354.77720	0.34665
2352.84863	0.33495
2350.92007	0.32302
2348.99150	0.31597
2347.06294	0.31662
2345.13437	0.32543
2343.20581	0.33758
2341.27725	0.34419
2339.34868	0.34479
2337.42012	0.34378
2335.49155	0.34316
2333.56299	0.34291
2331.63442	0.34311
2329.70586	0.34295
2327.77729	0.34188
2325.84873	0.34020
2323.92017	0.33817
2321.99160	0.33585
2320.06304	0.33313
2318.13447	0.33002
2316.20591	0.32723
2314.27734	0.32564
2312.34878	0.32509
2310.42021	0.32471
2308.49165	0.32396
2306.56309	0.32290
2304.63452	0.32196
2302.70596	0.32163
2300.77739	0.32188
2298.84883	0.32231
2296.92026	0.32287
2294.99170	0.32354
2293.06313	0.32414
2291.13457	0.32478
2289.20601	0.32556
2287.27744	0.32639
2285.34888	0.32723
2283.42031	0.32842
2281.49175	0.33021
2279.56318	0.33239
2277.63462	0.33467
2275.70605	0.33694
2273.77749	0.33905
2271.84893	0.34102
2269.92036	0.34305
2267.99180	0.34520
2266.06323	0.34732
2264.13467	0.34938
2262.20610	0.35144
2260.27754	0.35346
2258.34897	0.35540
2256.42041	0.35732
2254.49185	0.35922
2252.56328	0.36115
2250.63472	0.36320
2248.70615	0.36525
2246.77759	0.36729
2244.84902	0.36940
2242.92046	0.37151
2240.99189	0.37360
2239.06333	0.37577
2237.13477	0.37798
2235.20620	0.38012
2233.27764	0.38223
2231.34907	0.38441
2229.42051	0.38662
2227.49194	0.38880
2225.56338	0.39098
2223.63481	0.39312
2221.70625	0.39531
2219.77769	0.39763
2217.84912	0.39988
2215.92056	0.40199
2213.99199	0.40404
2212.06343	0.40607
2210.13486	0.40819
2208.20630	0.41035
2206.27773	0.41242
2204.34917	0.41457
2202.42061	0.41686
2200.49204	0.41905
2198.56348	0.42098
2196.63491	0.42283
2194.70635	0.42470
2192.77778	0.42656
2190.84922	0.42836
2188.92065	0.43008
2186.99209	0.43178
2185.06353	0.43354
2183.13496	0.43526
2181.20640	0.43692
2179.27783	0.43860
2177.34927	0.44030
2175.42070	0.44185
2173.49214	0.44323
2171.56357	0.44467
2169.63501	0.44622
2167.70645	0.44756
2165.77788	0.44861
2163.84932	0.44978
2161.92075	0.45112
2159.99219	0.45234
2158.06362	0.45336
2156.13506	0.45428
2154.20649	0.45513
2152.27793	0.45596
2150.34937	0.45669
2148.42080	0.45725
2146.49224	0.45775
2144.56367	0.45827
2142.63511	0.45872
2140.70654	0.45897
2138.77798	0.45910
2136.84941	0.45930
2134.92085	0.45949
2132.99229	0.45943
2131.06372	0.45924
2129.13516	0.45907
2127.20659	0.45876
2125.27803	0.45825
2123.34946	0.45775
2121.42090	0.45738
2119.49233	0.45691
2117.56377	0.45624
2115.63521	0.45543
2113.70664	0.45460
2111.77808	0.45376
2109.84951	0.45280
2107.92095	0.45161
2105.99238	0.45033
2104.06382	0.44912
2102.13525	0.44793
2100.20669	0.44665
2098.27812	0.44518
2096.34956	0.44360
2094.42100	0.44204
2092.49243	0.44049
2090.56387	0.43888
2088.63530	0.43711
2086.70674	0.43513
2084.77817	0.43307
2082.84961	0.43103
2080.92104	0.42901
2078.99248	0.42707
2077.06392	0.42505
2075.13535	0.42280
2073.20679	0.42055
2071.27822	0.41846
2069.34966	0.41634
2067.42109	0.41403
2065.49253	0.41170
2063.56396	0.40929
2061.63540	0.40670
2059.70684	0.40404
2057.77827	0.40148
2055.84971	0.39903
2053.92114	0.39657
2051.99258	0.39394
2050.06401	0.39113
2048.13545	0.38833
2046.20688	0.38573
2044.27832	0.38326
2042.34976	0.38068
2040.42119	0.37796
2038.49263	0.37523
2036.56406	0.37246
2034.63550	0.36968
2032.70693	0.36700
2030.77837	0.36431
2028.84980	0.36142
2026.92124	0.35853
2024.99268	0.35573
2023.06411	0.35294
2021.13555	0.35013
2019.20698	0.34742
2017.27842	0.34478
2015.34985	0.34200
2013.42129	0.33915
2011.49272	0.33637
2009.56416	0.33366
2007.63560	0.33094
2005.70703	0.32820
2003.77847	0.32548
2001.84990	0.32277
1999.92134	0.32019
1997.99277	0.31778
1996.06421	0.31536
1994.13564	0.31303
1992.20708	0.31079
1990.27852	0.30830
1988.34995	0.30568
1986.42139	0.30317
1984.49282	0.30074
1982.56426	0.29827
1980.63569	0.29578
1978.70713	0.29342
1976.77856	0.29121
1974.85000	0.28905
1972.92144	0.28690
1970.99287	0.28489
1969.06431	0.28312
1967.13574	0.28133
1965.20718	0.27916
1963.27861	0.27690
1961.35005	0.27483
1959.42148	0.27291
1957.49292	0.27111
1955.56436	0.26935
1953.63579	0.26765
1951.70723	0.26598
1949.77866	0.26430
1947.85010	0.26278
1945.92153	0.26150
1943.99297	0.26037
1942.06440	0.25903
1940.13584	0.25719
1938.20728	0.25531
1936.27871	0.25378
1934.35015	0.25246
1932.42158	0.25125
1930.49302	0.25015
1928.56445	0.24908
1926.63589	0.24804
1924.70732	0.24730
1922.77876	0.24672
1920.85020	0.24585
1918.92163	0.24484
1916.99307	0.24381
1915.06450	0.24267
1913.13594	0.24171
1911.20737	0.24115
1909.27881	0.24069
1907.35024	0.24003
1905.42168	0.23926
1903.49312	0.23858
1901.56455	0.23798
1899.63599	0.23745
1897.70742	0.23708
1895.77886	0.23685
1893.85029	0.23654
1891.92173	0.23608
1889.99316	0.23586
1888.06460	0.23566
1886.13604	0.23533
1884.20747	0.23511
1882.27891	0.23488
1880.35034	0.23463
1878.42178	0.23448
1876.49321	0.23450
1874.56465	0.23459
1872.63608	0.23483
1870.70752	0.23546
1868.77896	0.23652
1866.85039	0.23686
1864.92183	0.23627
1862.99326	0.23591
1861.06470	0.23611
1859.13613	0.23652
1857.20757	0.23681
1855.27900	0.23715
1853.35044	0.23755
1851.42187	0.23807
1849.49331	0.23877
1847.56475	0.23971
1845.63618	0.24089
1843.70762	0.24212
1841.77905	0.24273
1839.85049	0.24287
1837.92192	0.24345
1835.99336	0.24432
1834.06479	0.24528
1832.13623	0.24654
1830.20767	0.24846
1828.27910	0.25025
1826.35054	0.25118
1824.42197	0.25217
1822.49341	0.25312
1820.56484	0.25404
1818.63628	0.25531
1816.70771	0.25701
1814.77915	0.25872
1812.85059	0.26056
1810.92202	0.26276
1808.99346	0.26489
1807.06489	0.26670
1805.13633	0.26851
1803.20776	0.27085
1801.27920	0.27365
1799.35063	0.27654
1797.42207	0.27899
1795.49351	0.28141
1793.56494	0.28449
1791.63638	0.28831
1789.70781	0.29140
1787.77925	0.29358
1785.85068	0.29662
1783.92212	0.30043
1781.99355	0.30452
1780.06499	0.30874
1778.13643	0.31282
1776.20786	0.31678
1774.27930	0.32148
1772.35073	0.32791
1770.42217	0.33430
1768.49360	0.33920
1766.56504	0.34399
1764.63647	0.34921
1762.70791	0.35531
1760.77935	0.36293
1758.85078	0.36981
1756.92222	0.37676
1754.99365	0.38435
1753.06509	0.39129
1751.13652	0.40001
1749.20796	0.41126
1747.27939	0.42192
1745.35083	0.43088
1743.42227	0.44041
1741.49370	0.45116
1739.56514	0.46374
1737.63657	0.47609
1735.70801	0.48717
1733.77944	0.50429
1731.85088	0.52399
1729.92231	0.53873
1727.99375	0.55369
1726.06519	0.57021
1724.13662	0.58859
1722.20806	0.60857
1720.27949	0.62738
1718.35093	0.65006
1716.42236	0.68289
1714.49380	0.71273
1712.56523	0.73650
1710.63667	0.76008
1708.70811	0.78605
1706.77954	0.81586
1704.85098	0.85122
1702.92241	0.88270
1700.99385	0.91439
1699.06528	0.96166
1697.13672	1.00461
1695.20815	1.04824
1693.27959	1.09074
1691.35103	1.12534
1689.42246	1.16585
1687.49390	1.20905
1685.56533	1.25108
1683.63677	1.31527
1681.70820	1.38077
1679.77964	1.42232
1677.85107	1.46238
1675.92251	1.50935
1673.99395	1.56751
1672.06538	1.61893
1670.13682	1.66897
1668.20825	1.73371
1666.27969	1.78769
1664.35112	1.83467
1662.42256	1.89257
1660.49399	1.95711
1658.56543	2.00868
1656.63687	2.05077
1654.70830	2.08781
1652.77974	2.14355
1650.85117	2.19800
1648.92261	2.22008
1646.99404	2.24807
1645.06548	2.27524
1643.13691	2.28967
1641.20835	2.29762
1639.27979	2.30617
1637.35122	2.31113
1635.42266	2.30728
1633.49409	2.29537
1631.56553	2.28099
1629.63696	2.26471
1627.70840	2.23611
1625.77983	2.20151
1623.85127	2.15938
1621.92271	2.10829
1619.99414	2.06275
1618.06558	2.01892
1616.13701	1.95607
1614.20845	1.89047
1612.27988	1.84008
1610.35132	1.78851
1608.42275	1.73341
1606.49419	1.67946
1604.56562	1.62980
1602.63706	1.58204
1600.70850	1.53540
1598.77993	1.49221
1596.85137	1.45174
1594.92280	1.41265
1592.99424	1.37480
1591.06567	1.33982
1589.13711	1.30709
1587.20854	1.27724
1585.27998	1.25010
1583.35142	1.22455
1581.42285	1.20106
1579.49429	1.18127
1577.56572	1.16420
1575.63716	1.14377
1573.70859	1.12520
1571.78003	1.11326
1569.85146	1.10171
1567.92290	1.08889
1565.99434	1.07923
1564.06577	1.07238
1562.13721	1.06779
1560.20864	1.06643
1558.28008	1.06664
1556.35151	1.06479
1554.42295	1.06287
1552.49438	1.06152
1550.56582	1.05922
1548.63726	1.05473
1546.70869	1.04839
1544.78013	1.04032
1542.85156	1.03019
1540.92300	1.01499
1538.99443	0.98853
1537.06587	0.96724
1535.13730	0.95307
1533.20874	0.93547
1531.28018	0.91642
1529.35161	0.90226
1527.42305	0.88933
1525.49448	0.87635
1523.56592	0.86543
1521.63735	0.85502
1519.70879	0.84416
1517.78022	0.83467
1515.85166	0.82362
1513.92310	0.81193
1511.99453	0.80212
1510.06597	0.79390
1508.13740	0.78644
1506.20884	0.77357
1504.28027	0.76039
1502.35171	0.75281
1500.42314	0.74698
1498.49458	0.74125
1496.56602	0.73425
1494.63745	0.72664
1492.70889	0.72087
1490.78032	0.71668
1488.85176	0.71206
1486.92319	0.70658
1484.99463	0.70170
1483.06606	0.69803
1481.13750	0.69525
1479.20894	0.69326
1477.28037	0.69233
1475.35181	0.69228
1473.42324	0.69263
1471.49468	0.69168
1469.56611	0.68876
1467.63755	0.68580
1465.70898	0.68374
1463.78042	0.68220
1461.85186	0.68095
1459.92329	0.68070
1457.99473	0.68164
1456.06616	0.68114
1454.13760	0.67762
1452.20903	0.67421
1450.28047	0.67143
1448.35190	0.66880
1446.42334	0.66589
1444.49478	0.66296
1442.56621	0.66012
1440.63765	0.65738
1438.70908	0.65500
1436.78052	0.65218
1434.85195	0.64842
1432.92339	0.64534
1430.99482	0.64348
1429.06626	0.64224
1427.13770	0.64141
1425.20913	0.64131
1423.28057	0.64192
1421.35200	0.64274
1419.42344	0.64352
1417.49487	0.64337
1415.56631	0.64193
1413.63774	0.64076
1411.70918	0.64041
1409.78062	0.64072
1407.85205	0.64151
1405.92349	0.64279
1403.99492	0.64391
1402.06636	0.64401
1400.13779	0.64351
1398.20923	0.64251
1396.28066	0.64037
1394.35210	0.63683
1392.42354	0.63258
1390.49497	0.62874
1388.56641	0.62522
1386.63784	0.62099
1384.70928	0.61611
1382.78071	0.61153
1380.85215	0.60742
1378.92358	0.60391
1376.99502	0.60127
1375.06646	0.59948
1373.13789	0.59797
1371.20933	0.59660
1369.28076	0.59552
1367.35220	0.59429
1365.42363	0.59291
1363.49507	0.59188
1361.56650	0.59069
1359.63794	0.58889
1357.70937	0.58732
1355.78081	0.58626
1353.85225	0.58539
1351.92368	0.58458
1349.99512	0.58397
1348.06655	0.58335
1346.13799	0.58246
1344.20942	0.58157
1342.28086	0.58101
1340.35229	0.58076
1338.42373	0.58024
1336.49517	0.57923
1334.56660	0.57836
1332.63804	0.57804
1330.70947	0.57814
1328.78091	0.57846
1326.85234	0.57889
1324.92378	0.57932
1322.99521	0.57971
1321.06665	0.58016
1319.13809	0.58068
1317.20952	0.58094
1315.28096	0.58081
1313.35239	0.58062
1311.42383	0.58033
1309.49526	0.57972
1307.56670	0.57892
1305.63813	0.57821
1303.70957	0.57759
1301.78101	0.57693
1299.85244	0.57610
1297.92388	0.57513
1295.99531	0.57409
1294.06675	0.57304
1292.13818	0.57193
1290.20962	0.57075
1288.28105	0.56953
1286.35249	0.56824
1284.42393	0.56696
1282.49536	0.56583
1280.56680	0.56486
1278.63823	0.56385
1276.70967	0.56277
1274.78110	0.56185
1272.85254	0.56114
1270.92397	0.56041
1268.99541	0.55949
1267.06685	0.55842
1265.13828	0.55749
1263.20972	0.55679
1261.28115	0.55615
1259.35259	0.55560
1257.42402	0.55502
1255.49546	0.55441
1253.56689	0.55408
1251.63833	0.55404
1249.70977	0.55415
1247.78120	0.55425
1245.85264	0.55410
1243.92407	0.55361
1241.99551	0.55282
1240.06694	0.55161
1238.13838	0.54998
1236.20981	0.54817
1234.28125	0.54637
1232.35269	0.54461
1230.42412	0.54277
1228.49556	0.54076
1226.56699	0.53882
1224.63843	0.53730
1222.70986	0.53617
1220.78130	0.53503
1218.85273	0.53372
1216.92417	0.53253
1214.99561	0.53165
1213.06704	0.53088
1211.13848	0.53002
1209.20991	0.52918
1207.28135	0.52844
1205.35278	0.52759
1203.42422	0.52654
1201.49565	0.52554
1199.56709	0.52484
1197.63853	0.52424
1195.70996	0.52359
1193.78140	0.52314
1191.85283	0.52293
1189.92427	0.52275
1187.99570	0.52247
1186.06714	0.52212
1184.13857	0.52202
1182.21001	0.52243
1180.28145	0.52320
1178.35288	0.52408
1176.42432	0.52502
1174.49575	0.52599
1172.56719	0.52662
1170.63862	0.52668
1168.71006	0.52653
1166.78149	0.52651
1164.85293	0.52649
1162.92437	0.52602
1160.99580	0.52513
1159.06724	0.52436
1157.13867	0.52384
1155.21011	0.52308
1153.28154	0.52181
1151.35298	0.52016
1149.42441	0.51817
1147.49585	0.51594
1145.56729	0.51367
1143.63872	0.51136
1141.71016	0.50912
1139.78159	0.50716
1137.85303	0.50535
1135.92446	0.50378
1133.99590	0.50279
1132.06733	0.50217
1130.13877	0.50132
1128.21021	0.50010
1126.28164	0.49898
1124.35308	0.49830
1122.42451	0.49761
1120.49595	0.49653
1118.56738	0.49548
1116.63882	0.49496
1114.71025	0.49483
1112.78169	0.49485
1110.85312	0.49493
1108.92456	0.49521
1106.99600	0.49587
1105.06743	0.49692
1103.13887	0.49826
1101.21030	0.49999
1099.28174	0.50227
1097.35317	0.50504
1095.42461	0.50804
1093.49604	0.51125
1091.56748	0.51508
1089.63892	0.51978
1087.71035	0.52520
1085.78179	0.53111
1083.85322	0.53738
1081.92466	0.54347
1079.99609	0.54849
1078.06753	0.55183
1076.13896	0.55297
1074.21040	0.55141
1072.28184	0.54730
1070.35327	0.54149
1068.42471	0.53481
1066.49614	0.52774
1064.56758	0.52093
1062.63901	0.51491
1060.71045	0.50964
1058.78188	0.50500
1056.85332	0.50097
1054.92476	0.49740
1052.99619	0.49421
1051.06763	0.49142
1049.13906	0.48914
1047.21050	0.48737
1045.28193	0.48577
1043.35337	0.48399
1041.42480	0.48231
1039.49624	0.48117
1037.56768	0.48040
1035.63911	0.47967
1033.71055	0.47913
1031.78198	0.47896
1029.85342	0.47886
1027.92485	0.47852
1025.99629	0.47831
1024.06772	0.47856
1022.13916	0.47923
1020.21060	0.48025
1018.28203	0.48130
1016.35347	0.48204
1014.42490	0.48271
1012.49634	0.48370
1010.56777	0.48502
1008.63921	0.48649
1006.71064	0.48809
1004.78208	0.48991
1002.85352	0.49212
1000.92495	0.49491
998.99639	0.49828
997.06782	0.50200
995.13926	0.50602
993.21069	0.51023
991.28213	0.51415
989.35356	0.51709
987.42500	0.51860
985.49644	0.51915
983.56787	0.51978
981.63931	0.52095
979.71074	0.52248
977.78218	0.52440
975.85361	0.52674
973.92505	0.52937
971.99648	0.53244
970.06792	0.53597
968.13936	0.53977
966.21079	0.54385
964.28223	0.54833
962.35366	0.55323
960.42510	0.55856
958.49653	0.56432
956.56797	0.57016
954.63940	0.57599
952.71084	0.58204
950.78228	0.58859
948.85371	0.59547
946.92515	0.60207
944.99658	0.60822
943.06802	0.61419
941.13945	0.62005
939.21089	0.62609
937.28232	0.63224
935.35376	0.63797
933.42520	0.64380
931.49663	0.65014
929.56807	0.65622
927.63950	0.66214
925.71094	0.66841
923.78237	0.67440
921.85381	0.67997
919.92524	0.68636
917.99668	0.69369
916.06812	0.70072
914.13955	0.70786
912.21099	0.71621
910.28242	0.72501
908.35386	0.73333
906.42529	0.74177
904.49673	0.75076
902.56816	0.75972
900.63960	0.76857
898.71104	0.77753
896.78247	0.78707
894.85391	0.79760
892.92534	0.80849
890.99678	0.81944
889.06821	0.82997
887.13965	0.83963
885.21108	0.84977
883.28252	0.86103
881.35396	0.87247
879.42539	0.88475
877.49683	0.89831
875.56826	0.91174
873.63970	0.92434
871.71113	0.93515
869.78257	0.94379
867.85400	0.95273
865.92544	0.96403
863.99687	0.97824
862.06831	0.99396
860.13975	1.00726
858.21118	1.01760
856.28262	1.02746
854.35405	1.03771
852.42549	1.04962
850.49692	1.06287
848.56836	1.07519
846.63979	1.08664
844.71123	1.09674
842.78267	1.10536
840.85410	1.11670
838.92554	1.13106
836.99697	1.14354
835.06841	1.15523
833.13984	1.17114
831.21128	1.18673
829.28271	1.19354
827.35415	1.19714
825.42559	1.20864
823.49702	1.22848
821.56846	1.24974
819.63989	1.26600
817.71133	1.27418
815.78276	1.28192
813.85420	1.29676
811.92563	1.31356
809.99707	1.32655
808.06851	1.33229
806.13994	1.33933
804.21138	1.35683
802.28281	1.36972
800.35425	1.36934
798.42568	1.36904
796.49712	1.37287
794.56855	1.37566
792.63999	1.38336
790.71143	1.41390
788.78286	1.46603
786.85430	1.51148
784.92573	1.53960
782.99717	1.55709
781.06860	1.57816
779.14004	1.58403
777.21147	1.63845
775.28291	1.89581
773.35435	1.92371
771.42578	1.56330
769.49722	1.38649
767.56865	1.30724
765.64009	1.27190
763.71152	1.35868
761.78296	1.67518
759.85439	2.25344
757.92583	1.95750
755.99727	1.72979
754.06870	1.69074
752.14014	2.17041
750.21157	4.50127
748.28301	4.48970
746.35444	1.37113
744.42588	1.14970
742.49731	1.19705
740.56875	1.34220
738.64019	1.52056
736.71162	1.53790
734.78306	1.62054
732.85449	1.76328
730.92593	1.16617
728.99736	0.97366
727.06880	0.91443
725.14023	0.76893
723.21167	0.69915
721.28311	0.66960
719.35454	0.60829
717.42598	0.62884
715.49741	0.75015
713.56885	0.65847
711.64028	0.40902
709.71172	0.34524
707.78315	0.39365
705.85459	0.42813
703.92603	0.32490
701.99746	0.18097
700.06890	0.24802
698.14033	0.37263
696.21177	0.37605
694.28320	0.30266
692.35464	0.30193
690.42607	0.51422
688.49751	0.57912
686.56895	0.31327
684.64038	0.15855
682.71182	0.13830
680.78325	0.15636
678.85469	0.20749
676.92612	0.26023
674.99756	0.28467
673.06899	0.36548
671.14043	0.47015
669.21187	0.52845
667.28330	0.61577
665.35474	0.53683
663.42617	0.37577
661.49761	0.28333
659.56904	0.20363
657.64048	0.12582
655.71191	0.10885
653.78335	0.13391
651.85479	0.13841
649.92622	0.19382
647.99766	0.31725
646.06909	0.45353
644.14053	0.42808
642.21196	0.29932
640.28340	0.22784
638.35483	0.23600
636.42627	0.23100
634.49771	0.17131
632.56914	0.16583
630.64058	0.23010
628.71201	0.36614
626.78345	0.51675
624.85488	0.50626
622.92632	0.39588
620.99775	0.39326
619.06919	0.50374
617.14062	0.39523
615.21206	0.16655
613.28350	0.07127
611.35493	0.09288
609.42637	0.21683
607.49780	0.43571
605.56924	0.59837
603.64067	0.48919
601.71211	0.28569
599.78354	0.18995
597.85498	0.24694
595.92642	0.38858
593.99785	0.31690
592.06929	0.15700
590.14072	0.11893
588.21216	0.21210
586.28359	0.49670
584.35503	3.50613
582.42646	0.64693
580.49790	0.32968
578.56934	0.27486
576.64077	0.32824
574.71221	0.39059
572.78364	0.40643
570.85508	0.41160
568.92651	0.33221
566.99795	0.16139
565.06938	0.09998
563.14082	0.13025
561.21226	0.17099
559.28369	0.19189
557.35513	0.26331
555.42656	0.49542
553.49800	0.60977
551.56943	0.41301
549.64087	0.35705
547.71230	0.36206
545.78374	0.31111
543.85518	0.19926
541.92661	0.14658
539.99805	0.19605
538.06948	0.33625
536.14092	0.49013
534.21235	0.50994
532.28379	0.39907
530.35522	0.30260
528.42666	0.22028
526.49810	0.14084
524.56953	0.13300
522.64097	0.21824
520.71240	0.30435
518.78384	0.29272
516.85527	0.22889
514.92671	0.21327
512.99814	0.27252
511.06958	0.28978
509.14102	0.22959
507.21245	0.22805
505.28389	0.25040
503.35532	0.22578
501.42676	0.22077
499.49819	0.29555
