3997.91411	0.07182
3995.98555	0.07210
3994.05698	0.07263
3992.12842	0.07319
3990.19985	0.07357
3988.27129	0.07378
3986.34272	0.07417
3984.41416	0.07481
3982.48560	0.07535
3980.55703	0.07551
3978.62847	0.07507
3976.69990	0.07442
3974.77134	0.07436
3972.84277	0.07501
3970.91421	0.07580
3968.98564	0.07622
3967.05708	0.07614
3965.12852	0.07580
3963.19995	0.07558
3961.27139	0.07547
3959.34282	0.07552
3957.41426	0.07614
3955.48569	0.07699
3953.55713	0.07730
3951.62856	0.07708
3949.70000	0.07697
3947.77144	0.07716
3945.84287	0.07715
3943.91431	0.07692
3941.98574	0.07682
3940.05718	0.07667
3938.12861	0.07630
3936.20005	0.07584
3934.27148	0.07565
3932.34292	0.07587
3930.41436	0.07603
3928.48579	0.07583
3926.55723	0.07558
3924.62866	0.07573
3922.70010	0.07616
3920.77153	0.07654
3918.84297	0.07704
3916.91440	0.07744
3914.98584	0.07703
3913.05728	0.07627
3911.12871	0.07584
3909.20015	0.07537
3907.27158	0.07497
3905.34302	0.07529
3903.41445	0.07596
3901.48589	0.07579
3899.55732	0.07521
3897.62876	0.07528
3895.70020	0.07559
3893.77163	0.07583
3891.84307	0.07593
3889.91450	0.07547
3887.98594	0.07476
3886.05737	0.07478
3884.12881	0.07541
3882.20024	0.07573
3880.27168	0.07580
3878.34312	0.07592
3876.41455	0.07623
3874.48599	0.07668
3872.55742	0.07661
3870.62886	0.07620
3868.70029	0.07656
3866.77173	0.07712
3864.84316	0.07755
3862.91460	0.07844
3860.98604	0.07928
3859.05747	0.07964
3857.12891	0.07966
3855.20034	0.07945
3853.27178	0.07932
3851.34321	0.07986
3849.41465	0.08040
3847.48608	0.08067
3845.55752	0.08109
3843.62896	0.08159
3841.70039	0.08204
3839.77183	0.08268
3837.84326	0.08368
3835.91470	0.08451
3833.98613	0.08500
3832.05757	0.08570
3830.12900	0.08671
3828.20044	0.08764
3826.27187	0.08850
3824.34331	0.08937
3822.41475	0.09015
3820.48618	0.09122
3818.55762	0.09202
3816.62905	0.09196
3814.70049	0.09255
3812.77192	0.09390
3810.84336	0.09456
3808.91479	0.09484
3806.98623	0.09576
3805.05767	0.09743
3803.12910	0.09898
3801.20054	0.10036
3799.27197	0.10165
3797.34341	0.10271
3795.41484	0.10398
3793.48628	0.10519
3791.55771	0.10611
3789.62915	0.10717
3787.70059	0.10851
3785.77202	0.10999
3783.84346	0.11147
3781.91489	0.11276
3779.98633	0.11418
3778.05776	0.11622
3776.12920	0.11785
3774.20063	0.11871
3772.27207	0.11992
3770.34351	0.12184
3768.41494	0.12417
3766.48638	0.12643
3764.55781	0.12850
3762.62925	0.13022
3760.70068	0.13169
3758.77212	0.13378
3756.84355	0.13665
3754.91499	0.13908
3752.98643	0.14093
3751.05786	0.14324
3749.12930	0.14638
3747.20073	0.14910
3745.27217	0.15136
3743.34360	0.15468
3741.41504	0.15880
3739.48647	0.16215
3737.55791	0.16518
3735.62935	0.16900
3733.70078	0.17380
3731.77222	0.17809
3729.84365	0.18200
3727.91509	0.18622
3725.98652	0.19142
3724.05796	0.19769
3722.12939	0.20461
3720.20083	0.21229
3718.27227	0.22046
3716.34370	0.22877
3714.41514	0.23663
3712.48657	0.24488
3710.55801	0.25628
3708.62944	0.26987
3706.70088	0.28194
3704.77231	0.29309
3702.84375	0.30561
3700.91519	0.32199
3698.98662	0.34053
3697.05806	0.35860
3695.12949	0.37768
3693.20093	0.39725
3691.27236	0.41761
3689.34380	0.44408
3687.41523	0.47857
3685.48667	0.51055
3683.55811	0.53797
3681.62954	0.56603
3679.70098	0.59646
3677.77241	0.62781
3675.84385	0.66503
3673.91528	0.71712
3671.98672	0.76123
3670.05815	0.80007
3668.12959	0.85311
3666.20103	0.90231
3664.27246	0.94345
3662.34390	0.98682
3660.41533	1.03335
3658.48677	1.07897
3656.55820	1.12704
3654.62964	1.18121
3652.70107	1.22697
3650.77251	1.26596
3648.84395	1.31976
3646.91538	1.38727
3644.98682	1.43770
3643.05825	1.47633
3641.12969	1.51561
3639.20112	1.55874
3637.27256	1.60205
3635.34399	1.64454
3633.41543	1.68766
3631.48687	1.72777
3629.55830	1.76658
3627.62974	1.81807
3625.70117	1.86897
3623.77261	1.90293
3621.84404	1.93426
3619.91548	1.97062
3617.98691	2.01532
3616.05835	2.05948
3614.12979	2.09692
3612.20122	2.13584
3610.27266	2.17537
3608.34409	2.21527
3606.41553	2.25774
3604.48696	2.29739
3602.55840	2.33170
3600.62983	2.36798
3598.70127	2.40857
3596.77271	2.44905
3594.84414	2.49021
3592.91558	2.53268
3590.98701	2.57176
3589.05845	2.60608
3587.12988	2.64598
3585.20132	2.69365
3583.27275	2.73749
3581.34419	2.77660
3579.41562	2.81617
3577.48706	2.85850
3575.55850	2.90158
3573.62993	2.94454
3571.70137	2.98655
3569.77280	3.02693
3567.84424	3.06844
3565.91567	3.11897
3563.98711	3.17021
3562.05854	3.21277
3560.12998	3.25393
3558.20142	3.29646
3556.27285	3.33966
3554.34429	3.38396
3552.41572	3.43227
3550.48716	3.48170
3548.55859	3.52759
3546.63003	3.57238
3544.70146	3.62012
3542.77290	3.66872
3540.84434	3.71646
3538.91577	3.76414
3536.98721	3.81001
3535.05864	3.85667
3533.13008	3.90526
3531.20151	3.95337
3529.27295	3.99978
3527.34438	4.04608
3525.41582	4.09278
3523.48726	4.14228
3521.55869	4.19621
3519.63013	4.24542
3517.70156	4.28953
3515.77300	4.33671
3513.84443	4.38604
3511.91587	4.43206
3509.98730	4.47873
3508.05874	4.53103
3506.13018	4.58181
3504.20161	4.62602
3502.27305	4.67166
3500.34448	4.72779
3498.41592	4.78350
3496.48735	4.82633
3494.55879	4.86723
3492.63022	4.91697
3490.70166	4.96868
3488.77310	5.01554
3486.84453	5.06193
3484.91597	5.11304
3482.98740	5.16194
3481.05884	5.20794
3479.13027	5.25580
3477.20171	5.29994
3475.27314	5.34185
3473.34458	5.39174
3471.41602	5.45066
3469.48745	5.50819
3467.55889	5.55965
3465.63032	5.61133
3463.70176	5.66100
3461.77319	5.70191
3459.84463	5.74597
3457.91606	5.79833
3455.98750	5.85017
3454.05894	5.90198
3452.13037	5.95871
3450.20181	6.01542
3448.27324	6.06935
3446.34468	6.13482
3444.41611	6.19559
3442.48755	6.22709
3440.55898	6.24926
3438.63042	6.28829
3436.70186	6.34620
3434.77329	6.40306
3432.84473	6.45098
3430.91616	6.51331
3428.98760	6.57902
3427.05903	6.61489
3425.13047	6.64052
3423.20190	6.66817
3421.27334	6.71769
3419.34478	6.79908
3417.41621	6.87500
3415.48765	6.93494
3413.55908	6.97742
3411.63052	7.00665
3409.70195	7.04578
3407.77339	7.09867
3405.84482	7.15219
3403.91626	7.22738
3401.98770	7.30414
3400.05913	7.31687
3398.13057	7.28017
3396.20200	7.25663
3394.27344	7.28213
3392.34487	7.35859
3390.41631	7.45942
3388.48774	7.55057
3386.55918	7.65630
3384.63062	7.72484
3382.70205	7.71203
3380.77349	7.70833
3378.84492	7.73526
3376.91636	7.76629
3374.98779	7.77351
3373.05923	7.74806
3371.13066	7.72181
3369.20210	7.75649
3367.27354	7.85604
3365.34497	7.95842
3363.41641	8.02933
3361.48784	8.08906
3359.55928	8.10819
3357.63071	8.05484
3355.70215	8.04571
3353.77358	8.12099
3351.84502	8.20393
3349.91646	8.20740
3347.98789	8.12639
3346.05933	8.06045
3344.13076	8.07794
3342.20220	8.12281
3340.27363	8.13785
3338.34507	8.18232
3336.41650	8.20353
3334.48794	8.14111
3332.55937	8.13599
3330.63081	8.28934
3328.70225	8.43753
3326.77368	8.38665
3324.84512	8.20851
3322.91655	8.08273
3320.98799	8.09317
3319.05942	8.12000
3317.13086	8.12460
3315.20229	8.18567
3313.27373	8.25273
3311.34517	8.25583
3309.41660	8.27437
3307.48804	8.28480
3305.55947	8.20313
3303.63091	8.18362
3301.70234	8.28610
3299.77378	8.37701
3297.84521	8.34804
3295.91665	8.29715
3293.98809	8.33255
3292.05952	8.43534
3290.13096	8.57243
3288.20239	8.64520
3286.27383	8.57013
3284.34526	8.48143
3282.41670	8.53967
3280.48813	8.66195
3278.55957	8.64347
3276.63101	8.51988
3274.70244	8.56666
3272.77388	8.81340
3270.84531	8.86939
3268.91675	8.66745
3266.98818	8.53213
3265.05962	8.50808
3263.13105	8.48929
3261.20249	8.49153
3259.27393	8.52424
3257.34536	8.54751
3255.41680	8.49594
3253.48823	8.37950
3251.55967	8.36807
3249.63110	8.50133
3247.70254	8.64870
3245.77397	8.65296
3243.84541	8.55275
3241.91685	8.45998
3239.98828	8.39867
3238.05972	8.38871
3236.13115	8.37042
3234.20259	8.29957
3232.27402	8.23764
3230.34546	8.22848
3228.41689	8.25646
3226.48833	8.29225
3224.55977	8.35750
3222.63120	8.46605
3220.70264	8.44817
3218.77407	8.25411
3216.84551	8.13702
3214.91694	8.14169
3212.98838	8.13723
3211.05981	8.13275
3209.13125	8.21749
3207.20269	8.35097
3205.27412	8.36697
3203.34556	8.26778
3201.41699	8.16130
3199.48843	8.05847
3197.55986	7.98084
3195.63130	7.93169
3193.70273	7.89072
3191.77417	7.87920
3189.84561	7.90277
3187.91704	7.90120
3185.98848	7.81332
3184.05991	7.69934
3182.13135	7.63235
3180.20278	7.53811
3178.27422	7.39650
3176.34565	7.30804
3174.41709	7.24853
3172.48853	7.17301
3170.55996	7.10318
3168.63140	7.02835
3166.70283	6.97143
3164.77427	6.93724
3162.84570	6.87815
3160.91714	6.81840
3158.98857	6.78694
3157.06001	6.74127
3155.13145	6.66600
3153.20288	6.57832
3151.27432	6.50152
3149.34575	6.45024
3147.41719	6.40345
3145.48862	6.34732
3143.56006	6.26826
3141.63149	6.16293
3139.70293	6.07039
3137.77437	6.00536
3135.84580	5.93920
3133.91724	5.86174
3131.98867	5.78463
3130.06011	5.71485
3128.13154	5.64572
3126.20298	5.56813
3124.27441	5.49339
3122.34585	5.42172
3120.41729	5.34232
3118.48872	5.26272
3116.56016	5.18949
3114.63159	5.12344
3112.70303	5.06383
3110.77446	5.00108
3108.84590	4.92707
3106.91733	4.84748
3104.98877	4.77104
3103.06021	4.69837
3101.13164	4.62771
3099.20308	4.56053
3097.27451	4.49641
3095.34595	4.43008
3093.41738	4.35941
3091.48882	4.28839
3089.56025	4.21827
3087.63169	4.15021
3085.70312	4.08825
3083.77456	4.02972
3081.84600	3.96890
3079.91743	3.90385
3077.98887	3.83619
3076.06030	3.77028
3074.13174	3.70772
3072.20317	3.64740
3070.27461	3.58845
3068.34604	3.52973
3066.41748	3.47115
3064.48892	3.41362
3062.56035	3.35644
3060.63179	3.29891
3058.70322	3.24175
3056.77466	3.18595
3054.84609	3.13236
3052.91753	3.08071
3050.98896	3.02970
3049.06040	2.97856
3047.13184	2.92686
3045.20327	2.87487
3043.27471	2.82416
3041.34614	2.77492
3039.41758	2.72637
3037.48901	2.67892
3035.56045	2.63265
3033.63188	2.58745
3031.70332	2.54311
3029.77476	2.49852
3027.84619	2.45368
3025.91763	2.41018
3023.98906	2.36786
3022.06050	2.32533
3020.13193	2.28340
3018.20337	2.24321
3016.27480	2.20353
3014.34624	2.16363
3012.41768	2.12431
3010.48911	2.08558
3008.56055	2.04753
3006.63198	2.01083
3004.70342	1.97533
3002.77485	1.94029
3000.84629	1.90504
2998.91772	1.86988
2996.98916	1.83576
2995.06060	1.80258
2993.13203	1.76982
2991.20347	1.73765
2989.27490	1.70597
2987.34634	1.67442
2985.41777	1.64349
2983.48921	1.61334
2981.56064	1.58305
2979.63208	1.55284
2977.70352	1.52371
2975.77495	1.49534
2973.84639	1.46728
2971.91782	1.43984
2969.98926	1.41312
2968.06069	1.38677
2966.13213	1.36072
2964.20356	1.33500
2962.27500	1.30964
2960.34644	1.28486
2958.41787	1.26081
2956.48931	1.23755
2954.56074	1.21490
2952.63218	1.19228
2950.70361	1.16984
2948.77505	1.14804
2946.84648	1.12658
2944.91792	1.10523
2942.98936	1.08418
2941.06079	1.06377
2939.13223	1.04404
2937.20366	1.02451
2935.27510	1.00518
2933.34653	0.98664
2931.41797	0.96886
2929.48940	0.95119
2927.56084	0.93333
2925.63228	0.91597
2923.70371	0.89959
2921.77515	0.88333
2919.84658	0.86707
2917.91802	0.85147
2915.98945	0.83578
2914.06089	0.81985
2912.13232	0.80496
2910.20376	0.79109
2908.27520	0.77727
2906.34663	0.76331
2904.41807	0.74954
2902.48950	0.73622
2900.56094	0.72318
2898.63237	0.71036
2896.70381	0.69820
2894.77524	0.68662
2892.84668	0.67506
2890.91812	0.66305
2888.98955	0.65081
2887.06099	0.63899
2885.13242	0.62775
2883.20386	0.61682
2881.27529	0.60588
2879.34673	0.59504
2877.41816	0.58475
2875.48960	0.57469
2873.56104	0.56445
2871.63247	0.55441
2869.70391	0.54500
2867.77534	0.53601
2865.84678	0.52708
2863.91821	0.51811
2861.98965	0.50917
2860.06108	0.50044
2858.13252	0.49209
2856.20396	0.48404
2854.27539	0.47585
2852.34683	0.46747
2850.41826	0.45967
2848.48970	0.45264
2846.56113	0.44554
2844.63257	0.43830
2842.70400	0.43149
2840.77544	0.42502
2838.84687	0.41870
2836.91831	0.41268
2834.98975	0.40680
2833.06118	0.40084
2831.13262	0.39493
2829.20405	0.38903
2827.27549	0.38310
2825.34692	0.37736
2823.41836	0.37180
2821.48979	0.36621
2819.56123	0.36077
2817.63267	0.35556
2815.70410	0.35032
2813.77554	0.34504
2811.84697	0.33986
2809.91841	0.33474
2807.98984	0.32987
2806.06128	0.32518
2804.13271	0.32043
2802.20415	0.31574
2800.27559	0.31127
2798.34702	0.30688
2796.41846	0.30252
2794.48989	0.29820
2792.56133	0.29394
2790.63276	0.28980
2788.70420	0.28581
2786.77563	0.28194
2784.84707	0.27815
2782.91851	0.27445
2780.98994	0.27084
2779.06138	0.26730
2777.13281	0.26377
2775.20425	0.26022
2773.27568	0.25665
2771.34712	0.25321
2769.41855	0.25004
2767.48999	0.24702
2765.56143	0.24398
2763.63286	0.24100
2761.70430	0.23807
2759.77573	0.23514
2757.84717	0.23226
2755.91860	0.22943
2753.99004	0.22667
2752.06147	0.22409
2750.13291	0.22163
2748.20435	0.21917
2746.27578	0.21671
2744.34722	0.21414
2742.41865	0.21144
2740.49009	0.20892
2738.56152	0.20675
2736.63296	0.20465
2734.70439	0.20256
2732.77583	0.20055
2730.84727	0.19855
2728.91870	0.19656
2726.99014	0.19454
2725.06157	0.19245
2723.13301	0.19038
2721.20444	0.18853
2719.27588	0.18697
2717.34731	0.18539
2715.41875	0.18358
2713.49019	0.18176
2711.56162	0.18016
2709.63306	0.17870
2707.70449	0.17724
2705.77593	0.17575
2703.84736	0.17427
2701.91880	0.17286
2699.99023	0.17156
2698.06167	0.17033
2696.13311	0.16898
2694.20454	0.16741
2692.27598	0.16596
2690.34741	0.16484
2688.41885	0.16381
2686.49028	0.16261
2684.56172	0.16140
2682.63315	0.16037
2680.70459	0.15934
2678.77603	0.15826
2676.84746	0.15727
2674.91890	0.15642
2672.99033	0.15564
2671.06177	0.15491
2669.13320	0.15402
2667.20464	0.15304
2665.27607	0.15229
2663.34751	0.15173
2661.41895	0.15112
2659.49038	0.15042
2657.56182	0.14971
2655.63325	0.14912
2653.70469	0.14862
2651.77612	0.14811
2649.84756	0.14763
2647.91899	0.14712
2645.99043	0.14653
2644.06187	0.14597
2642.13330	0.14557
2640.20474	0.14531
2638.27617	0.14497
2636.34761	0.14455
2634.41904	0.14418
2632.49048	0.14386
2630.56191	0.14358
2628.63335	0.14333
2626.70479	0.14301
2624.77622	0.14282
2622.84766	0.14288
2620.91909	0.14283
2618.99053	0.14265
2617.06196	0.14265
2615.13340	0.14275
2613.20483	0.14271
2611.27627	0.14265
2609.34771	0.14266
2607.41914	0.14255
2605.49058	0.14231
2603.56201	0.14219
2601.63345	0.14237
2599.70488	0.14271
2597.77632	0.14290
2595.84775	0.14292
2593.91919	0.14308
2591.99062	0.14339
2590.06206	0.14377
2588.13350	0.14410
2586.20493	0.14435
2584.27637	0.14474
2582.34780	0.14522
2580.41924	0.14554
2578.49067	0.14577
2576.56211	0.14613
2574.63354	0.14666
2572.70498	0.14713
2570.77642	0.14742
2568.84785	0.14773
2566.91929	0.14825
2564.99072	0.14884
2563.06216	0.14931
2561.13359	0.14973
2559.20503	0.15024
2557.27646	0.15083
2555.34790	0.15136
2553.41934	0.15184
2551.49077	0.15250
2549.56221	0.15337
2547.63364	0.15419
2545.70508	0.15487
2543.77651	0.15552
2541.84795	0.15612
2539.91938	0.15672
2537.99082	0.15747
2536.06226	0.15823
2534.13369	0.15886
2532.20513	0.15953
2530.27656	0.16041
2528.34800	0.16129
2526.41943	0.16206
2524.49087	0.16277
2522.56230	0.16351
2520.63374	0.16435
2518.70518	0.16523
2516.77661	0.16603
2514.84805	0.16684
2512.91948	0.16776
2510.99092	0.16869
2509.06235	0.16963
2507.13379	0.17066
2505.20522	0.17162
2503.27666	0.17238
2501.34810	0.17315
2499.41953	0.17403
2497.49097	0.17492
2495.56240	0.17582
2493.63384	0.17669
2491.70527	0.17749
2489.77671	0.17836
2487.84814	0.17935
2485.91958	0.18034
2483.99102	0.18128
2482.06245	0.18223
2480.13389	0.18318
2478.20532	0.18413
2476.27676	0.18509
2474.34819	0.18603
2472.41963	0.18696
2470.49106	0.18794
2468.56250	0.18896
2466.63394	0.19001
2464.70537	0.19106
2462.77681	0.19202
2460.84824	0.19300
2458.91968	0.19411
2456.99111	0.19524
2455.06255	0.19632
2453.13398	0.19736
2451.20542	0.19834
2449.27686	0.19930
2447.34829	0.20033
2445.41973	0.20142
2443.49116	0.20244
2441.56260	0.20345
2439.63403	0.20460
2437.70547	0.20576
2435.77690	0.20676
2433.84834	0.20771
2431.91978	0.20881
2429.99121	0.21007
2428.06265	0.21130
2426.13408	0.21241
2424.20552	0.21349
2422.27695	0.21457
2420.34839	0.21567
2418.41982	0.21694
2416.49126	0.21832
2414.56270	0.21961
2412.63413	0.22073
2410.70557	0.22175
2408.77700	0.22288
2406.84844	0.22417
2404.91987	0.22540
2402.99131	0.22649
2401.06274	0.22760
2399.13418	0.22881
2397.20562	0.23002
2395.27705	0.23131
2393.34849	0.23268
2391.41992	0.23391
2389.49136	0.23500
2387.56279	0.23606
2385.63423	0.23697
2383.70566	0.23757
2381.77710	0.23775
2379.84854	0.23740
2377.91997	0.23654
2375.99141	0.23546
2374.06284	0.23455
2372.13428	0.23341
2370.20571	0.23142
2368.27715	0.22910
2366.34858	0.22708
2364.42002	0.22564
2362.49146	0.22493
2360.56289	0.22493
2358.63433	0.22726
2356.70576	0.23214
2354.77720	0.23687
2352.84863	0.24155
2350.92007	0.24688
2348.99150	0.25080
2347.06294	0.25199
2345.13437	0.25083
2343.20581	0.24960
2341.27725	0.25046
2339.34868	0.25236
2337.42012	0.25405
2335.49155	0.25577
2333.56299	0.25798
2331.63442	0.26028
2329.70586	0.26253
2327.77729	0.26530
2325.84873	0.26840
2323.92017	0.27144
2321.99160	0.27446
2320.06304	0.27760
2318.13447	0.28095
2316.20591	0.28421
2314.27734	0.28702
2312.34878	0.28913
2310.42021	0.29101
2308.49165	0.29346
2306.56309	0.29644
2304.63452	0.29927
2302.70596	0.30174
2300.77739	0.30411
2298.84883	0.30650
2296.92026	0.30885
2294.99170	0.31111
2293.06313	0.31334
2291.13457	0.31559
2289.20601	0.31784
2287.27744	0.32007
2285.34888	0.32228
2283.42031	0.32455
2281.49175	0.32677
2279.56318	0.32878
2277.63462	0.33063
2275.70605	0.33242
2273.77749	0.33429
2271.84893	0.33636
2269.92036	0.33864
2267.99180	0.34103
2266.06323	0.34339
2264.13467	0.34561
2262.20610	0.34766
2260.27754	0.34980
2258.34897	0.35213
2256.42041	0.35430
2254.49185	0.35623
2252.56328	0.35830
2250.63472	0.36069
2248.70615	0.36315
2246.77759	0.36537
2244.84902	0.36749
2242.92046	0.36972
2240.99189	0.37204
2239.06333	0.37437
2237.13477	0.37666
2235.20620	0.37888
2233.27764	0.38112
2231.34907	0.38345
2229.42051	0.38573
2227.49194	0.38793
2225.56338	0.39018
2223.63481	0.39247
2221.70625	0.39472
2219.77769	0.39698
2217.84912	0.39923
2215.92056	0.40134
2213.99199	0.40342
2212.06343	0.40557
2210.13486	0.40766
2208.20630	0.40965
2206.27773	0.41176
2204.34917	0.41401
2202.42061	0.41621
2200.49204	0.41826
2198.56348	0.42026
2196.63491	0.42230
2194.70635	0.42431
2192.77778	0.42623
2190.84922	0.42811
2188.92065	0.42995
2186.99209	0.43166
2185.06353	0.43328
2183.13496	0.43490
2181.20640	0.43664
2179.27783	0.43850
2177.34927	0.44036
2175.42070	0.44200
2173.49214	0.44333
2171.56357	0.44467
2169.63501	0.44619
2167.70645	0.44760
2165.77788	0.44879
2163.84932	0.44987
2161.92075	0.45097
2159.99219	0.45217
2158.06362	0.45332
2156.13506	0.45421
2154.20649	0.45488
2152.27793	0.45561
2150.34937	0.45632
2148.42080	0.45688
2146.49224	0.45743
2144.56367	0.45811
2142.63511	0.45876
2140.70654	0.45917
2138.77798	0.45941
2136.84941	0.45956
2134.92085	0.45966
2132.99229	0.45965
2131.06372	0.45952
2129.13516	0.45934
2127.20659	0.45909
2125.27803	0.45868
2123.34946	0.45817
2121.42090	0.45776
2119.49233	0.45737
2117.56377	0.45675
2115.63521	0.45584
2113.70664	0.45494
2111.77808	0.45413
2109.84951	0.45317
2107.92095	0.45205
2105.99238	0.45092
2104.06382	0.44985
2102.13525	0.44865
2100.20669	0.44715
2098.27812	0.44550
2096.34956	0.44395
2094.42100	0.44253
2092.49243	0.44109
2090.56387	0.43945
2088.63530	0.43758
2086.70674	0.43564
2084.77817	0.43366
2082.84961	0.43165
2080.92104	0.42961
2078.99248	0.42758
2077.06392	0.42560
2075.13535	0.42356
2073.20679	0.42147
2071.27822	0.41942
2069.34966	0.41730
2067.42109	0.41497
2065.49253	0.41249
2063.56396	0.40992
2061.63540	0.40737
2059.70684	0.40483
2057.77827	0.40231
2055.84971	0.39978
2053.92114	0.39719
2051.99258	0.39467
2050.06401	0.39214
2048.13545	0.38942
2046.20688	0.38661
2044.27832	0.38389
2042.34976	0.38127
2040.42119	0.37860
2038.49263	0.37588
2036.56406	0.37322
2034.63550	0.37058
2032.70693	0.36782
2030.77837	0.36502
2028.84980	0.36221
2026.92124	0.35945
2024.99268	0.35670
2023.06411	0.35390
2021.13555	0.35102
2019.20698	0.34814
2017.27842	0.34536
2015.34985	0.34272
2013.42129	0.34007
2011.49272	0.33725
2009.56416	0.33442
2007.63560	0.33166
2005.70703	0.32892
2003.77847	0.32627
2001.84990	0.32369
1999.92134	0.32108
1997.99277	0.31835
1996.06421	0.31564
1994.13564	0.31311
1992.20708	0.31072
1990.27852	0.30835
1988.34995	0.30594
1986.42139	0.30347
1984.49282	0.30105
1982.56426	0.29869
1980.63569	0.29627
1978.70713	0.29385
1976.77856	0.29158
1974.85000	0.28943
1972.92144	0.28722
1970.99287	0.28501
1969.06431	0.28289
1967.13574	0.28082
1965.20718	0.27880
1963.27861	0.27692
1961.35005	0.27507
1959.42148	0.27321
1957.49292	0.27143
1955.56436	0.26968
1953.63579	0.26788
1951.70723	0.26605
1949.77866	0.26435
1947.85010	0.26280
1945.92153	0.26125
1943.99297	0.25973
1942.06440	0.25841
1940.13584	0.25714
1938.20728	0.25574
1936.27871	0.25427
1934.35015	0.25291
1932.42158	0.25172
1930.49302	0.25049
1928.56445	0.24922
1926.63589	0.24813
1924.70732	0.24723
1922.77876	0.24628
1920.85020	0.24531
1918.92163	0.24443
1916.99307	0.24357
1915.06450	0.24273
1913.13594	0.24192
1911.20737	0.24126
1909.27881	0.24067
1907.35024	0.23999
1905.42168	0.23926
1903.49312	0.23861
1901.56455	0.23803
1899.63599	0.23745
1897.70742	0.23694
1895.77886	0.23647
1893.85029	0.23605
1891.92173	0.23571
1889.99316	0.23551
1888.06460	0.23541
1886.13604	0.23530
1884.20747	0.23512
1882.27891	0.23492
1880.35034	0.23484
1878.42178	0.23479
1876.49321	0.23475
1874.56465	0.23475
1872.63608	0.23486
1870.70752	0.23505
1868.77896	0.23529
1866.85039	0.23547
1864.92183	0.23560
1862.99326	0.23577
1861.06470	0.23600
1859.13613	0.23636
1857.20757	0.23667
1855.27900	0.23705
1853.35044	0.23756
1851.42187	0.23810
1849.49331	0.23859
1847.56475	0.23921
1845.63618	0.23998
1843.70762	0.24091
1841.77905	0.24178
1839.85049	0.24235
1837.92192	0.24314
1835.99336	0.24416
1834.06479	0.24520
1832.13623	0.24610
1830.20767	0.24721
1828.27910	0.24853
1826.35054	0.24965
1824.42197	0.25096
1822.49341	0.25235
1820.56484	0.25372
1818.63628	0.25522
1816.70771	0.25699
1814.77915	0.25878
1812.85059	0.26052
1810.92202	0.26234
1808.99346	0.26430
1807.06489	0.26632
1805.13633	0.26829
1803.20776	0.27042
1801.27920	0.27280
1799.35063	0.27551
1797.42207	0.27804
1795.49351	0.28041
1793.56494	0.28308
1791.63638	0.28671
1789.70781	0.29054
1787.77925	0.29350
1785.85068	0.29670
1783.92212	0.30036
1781.99355	0.30433
1780.06499	0.30851
1778.13643	0.31285
1776.20786	0.31691
1774.27930	0.32101
1772.35073	0.32651
1770.42217	0.33296
1768.49360	0.33864
1766.56504	0.34398
1764.63647	0.34931
1762.70791	0.35507
1760.77935	0.36243
1758.85078	0.36944
1756.92222	0.37656
1754.99365	0.38458
1753.06509	0.39190
1751.13652	0.40018
1749.20796	0.41056
1747.27939	0.42122
1745.35083	0.43077
1743.42227	0.44074
1741.49370	0.45162
1739.56514	0.46429
1737.63657	0.47685
1735.70801	0.48758
1733.77944	0.50382
1731.85088	0.52405
1729.92231	0.54029
1727.99375	0.55646
1726.06519	0.57346
1724.13662	0.59174
1722.20806	0.61149
1720.27949	0.62956
1718.35093	0.65043
1716.42236	0.68204
1714.49380	0.71286
1712.56523	0.73788
1710.63667	0.76194
1708.70811	0.78756
1706.77954	0.81624
1704.85098	0.85012
1702.92241	0.88028
1700.99385	0.90981
1699.06528	0.95368
1697.13672	0.99415
1695.20815	1.03577
1693.27959	1.07602
1691.35103	1.10774
1689.42246	1.14356
1687.49390	1.18058
1685.56533	1.21539
1683.63677	1.26974
1681.70820	1.32741
1679.77964	1.36456
1677.85107	1.39970
1675.92251	1.43979
1673.99395	1.48855
1672.06538	1.53107
1670.13682	1.57248
1668.20825	1.62632
1666.27969	1.66902
1664.35112	1.70352
1662.42256	1.74581
1660.49399	1.79442
1658.56543	1.83354
1656.63687	1.86538
1654.70830	1.89442
1652.77974	1.94164
1650.85117	1.99059
1648.92261	2.01233
1646.99404	2.04117
1645.06548	2.07612
1643.13691	2.09987
1641.20835	2.11418
1639.27979	2.12504
1637.35122	2.13085
1635.42266	2.13336
1633.49409	2.13292
1631.56553	2.12460
1629.63696	2.11110
1627.70840	2.08864
1625.77983	2.06219
1623.85127	2.02759
1621.92271	1.98428
1619.99414	1.94541
1618.06558	1.90736
1616.13701	1.85201
1614.20845	1.79379
1612.27988	1.74897
1610.35132	1.70219
1608.42275	1.65088
1606.49419	1.59983
1604.56562	1.55259
1602.63706	1.50646
1600.70850	1.46070
1598.77993	1.41837
1596.85137	1.37863
1594.92280	1.33975
1592.99424	1.30187
1591.06567	1.26697
1589.13711	1.23383
1587.20854	1.20253
1585.27998	1.17330
1583.35142	1.14518
1581.42285	1.11861
1579.49429	1.09545
1577.56572	1.07417
1575.63716	1.04757
1573.70859	1.02377
1571.78003	1.00786
1569.85146	0.99014
1567.92290	0.96962
1565.99434	0.95326
1564.06577	0.93901
1562.13721	0.92683
1560.20864	0.91595
1558.28008	0.89569
1556.35151	0.87739
1554.42295	0.86714
1552.49438	0.85709
1550.56582	0.84681
1548.63726	0.83634
1546.70869	0.82745
1544.78013	0.81944
1542.85156	0.81096
1540.92300	0.80118
1538.99443	0.78923
1537.06587	0.78172
1535.13730	0.77671
1533.20874	0.76971
1531.28018	0.76202
1529.35161	0.75640
1527.42305	0.75096
1525.49448	0.74491
1523.56592	0.73915
1521.63735	0.73309
1519.70879	0.72680
1517.78022	0.72184
1515.85166	0.71694
1513.92310	0.71205
1511.99453	0.70793
1510.06597	0.70440
1508.13740	0.70102
1506.20884	0.69578
1504.28027	0.69120
1502.35171	0.68838
1500.42314	0.68566
1498.49458	0.68253
1496.56602	0.67879
1494.63745	0.67527
1492.70889	0.67231
1490.78032	0.66942
1488.85176	0.66614
1486.92319	0.66297
1484.99463	0.66011
1483.06606	0.65744
1481.13750	0.65481
1479.20894	0.65227
1477.28037	0.64979
1475.35181	0.64720
1473.42324	0.64456
1471.49468	0.64144
1469.56611	0.63832
1467.63755	0.63580
1465.70898	0.63361
1463.78042	0.63128
1461.85186	0.62908
1459.92329	0.62735
1457.99473	0.62537
1456.06616	0.62231
1454.13760	0.61956
1452.20903	0.61766
1450.28047	0.61596
1448.35190	0.61422
1446.42334	0.61244
1444.49478	0.61082
1442.56621	0.60941
1440.63765	0.60808
1438.70908	0.60674
1436.78052	0.60514
1434.85195	0.60342
1432.92339	0.60188
1430.99482	0.60040
1429.06626	0.59892
1427.13770	0.59751
1425.20913	0.59606
1423.28057	0.59450
1421.35200	0.59294
1419.42344	0.59135
1417.49487	0.58983
1415.56631	0.58849
1413.63774	0.58714
1411.70918	0.58571
1409.78062	0.58431
1407.85205	0.58303
1405.92349	0.58176
1403.99492	0.58027
1402.06636	0.57875
1400.13779	0.57749
1398.20923	0.57638
1396.28066	0.57523
1394.35210	0.57389
1392.42354	0.57255
1390.49497	0.57141
1388.56641	0.57022
1386.63784	0.56880
1384.70928	0.56757
1382.78071	0.56674
1380.85215	0.56594
1378.92358	0.56506
1376.99502	0.56417
1375.06646	0.56316
1373.13789	0.56203
1371.20933	0.56101
1369.28076	0.56004
1367.35220	0.55902
1365.42363	0.55804
1363.49507	0.55707
1361.56650	0.55610
1359.63794	0.55522
1357.70937	0.55450
1355.78081	0.55375
1353.85225	0.55288
1351.92368	0.55192
1349.99512	0.55094
1348.06655	0.55001
1346.13799	0.54917
1344.20942	0.54838
1342.28086	0.54755
1340.35229	0.54664
1338.42373	0.54571
1336.49517	0.54483
1334.56660	0.54395
1332.63804	0.54312
1330.70947	0.54236
1328.78091	0.54160
1326.85234	0.54079
1324.92378	0.54003
1322.99521	0.53931
1321.06665	0.53856
1319.13809	0.53775
1317.20952	0.53695
1315.28096	0.53628
1313.35239	0.53560
1311.42383	0.53473
1309.49526	0.53386
1307.56670	0.53311
1305.63813	0.53244
1303.70957	0.53177
1301.78101	0.53099
1299.85244	0.53019
1297.92388	0.52960
1295.99531	0.52914
1294.06675	0.52857
1292.13818	0.52792
1290.20962	0.52734
1288.28105	0.52681
1286.35249	0.52620
1284.42393	0.52570
1282.49536	0.52530
1280.56680	0.52486
1278.63823	0.52440
1276.70967	0.52390
1274.78110	0.52338
1272.85254	0.52292
1270.92397	0.52247
1268.99541	0.52204
1267.06685	0.52174
1265.13828	0.52138
1263.20972	0.52088
1261.28115	0.52039
1259.35259	0.51994
1257.42402	0.51953
1255.49546	0.51924
1253.56689	0.51905
1251.63833	0.51883
1249.70977	0.51851
1247.78120	0.51816
1245.85264	0.51784
1243.92407	0.51756
1241.99551	0.51726
1240.06694	0.51688
1238.13838	0.51644
1236.20981	0.51593
1234.28125	0.51530
1232.35269	0.51470
1230.42412	0.51419
1228.49556	0.51368
1226.56699	0.51314
1224.63843	0.51257
1222.70986	0.51192
1220.78130	0.51128
1218.85273	0.51067
1216.92417	0.50999
1214.99561	0.50938
1213.06704	0.50894
1211.13848	0.50840
1209.20991	0.50770
1207.28135	0.50691
1205.35278	0.50607
1203.42422	0.50540
1201.49565	0.50497
1199.56709	0.50455
1197.63853	0.50405
1195.70996	0.50348
1193.78140	0.50297
1191.85283	0.50255
1189.92427	0.50217
1187.99570	0.50187
1186.06714	0.50170
1184.13857	0.50166
1182.21001	0.50168
1180.28145	0.50174
1178.35288	0.50180
1176.42432	0.50192
1174.49575	0.50231
1172.56719	0.50276
1170.63862	0.50298
1168.71006	0.50324
1166.78149	0.50380
1164.85293	0.50441
1162.92437	0.50472
1160.99580	0.50463
1159.06724	0.50425
1157.13867	0.50370
1155.21011	0.50286
1153.28154	0.50159
1151.35298	0.50012
1149.42441	0.49854
1147.49585	0.49665
1145.56729	0.49459
1143.63872	0.49255
1141.71016	0.49038
1139.78159	0.48808
1137.85303	0.48592
1135.92446	0.48401
1133.99590	0.48207
1132.06733	0.48005
1130.13877	0.47819
1128.21021	0.47661
1126.28164	0.47531
1124.35308	0.47427
1122.42451	0.47335
1120.49595	0.47250
1118.56738	0.47176
1116.63882	0.47136
1114.71025	0.47146
1112.78169	0.47168
1110.85312	0.47178
1108.92456	0.47205
1106.99600	0.47279
1105.06743	0.47392
1103.13887	0.47532
1101.21030	0.47729
1099.28174	0.47987
1097.35317	0.48267
1095.42461	0.48559
1093.49604	0.48898
1091.56748	0.49304
1089.63892	0.49776
1087.71035	0.50316
1085.78179	0.50920
1083.85322	0.51582
1081.92466	0.52261
1079.99609	0.52845
1078.06753	0.53240
1076.13896	0.53403
1074.21040	0.53271
1072.28184	0.52858
1070.35327	0.52283
1068.42471	0.51648
1066.49614	0.51008
1064.56758	0.50369
1062.63901	0.49746
1060.71045	0.49204
1058.78188	0.48768
1056.85332	0.48397
1054.92476	0.48075
1052.99619	0.47798
1051.06763	0.47545
1049.13906	0.47329
1047.21050	0.47153
1045.28193	0.46996
1043.35337	0.46848
1041.42480	0.46724
1039.49624	0.46643
1037.56768	0.46596
1035.63911	0.46574
1033.71055	0.46581
1031.78198	0.46606
1029.85342	0.46633
1027.92485	0.46666
1025.99629	0.46714
1024.06772	0.46782
1022.13916	0.46862
1020.21060	0.46942
1018.28203	0.47024
1016.35347	0.47130
1014.42490	0.47257
1012.49634	0.47387
1010.56777	0.47538
1008.63921	0.47708
1006.71064	0.47883
1004.78208	0.48089
1002.85352	0.48338
1000.92495	0.48625
998.99639	0.48943
997.06782	0.49275
995.13926	0.49617
993.21069	0.49979
991.28213	0.50323
989.35356	0.50585
987.42500	0.50759
985.49644	0.50878
983.56787	0.50962
981.63931	0.51057
979.71074	0.51233
977.78218	0.51474
975.85361	0.51731
973.92505	0.52027
971.99648	0.52371
970.06792	0.52731
968.13936	0.53113
966.21079	0.53536
964.28223	0.53997
962.35366	0.54489
960.42510	0.55011
958.49653	0.55573
956.56797	0.56164
954.63940	0.56764
952.71084	0.57392
950.78228	0.58076
948.85371	0.58775
946.92515	0.59425
944.99658	0.60021
943.06802	0.60570
941.13945	0.61111
939.21089	0.61713
937.28232	0.62347
935.35376	0.62936
933.42520	0.63457
931.49663	0.63937
929.56807	0.64458
927.63950	0.65098
925.71094	0.65795
923.78237	0.66454
921.85381	0.67113
919.92524	0.67818
917.99668	0.68572
916.06812	0.69355
914.13955	0.70142
912.21099	0.70957
910.28242	0.71730
908.35386	0.72436
906.42529	0.73234
904.49673	0.74151
902.56816	0.75099
900.63960	0.76088
898.71104	0.77157
896.78247	0.78228
894.85391	0.79212
892.92534	0.80155
890.99678	0.81142
889.06821	0.82206
887.13965	0.83285
885.21108	0.84405
883.28252	0.85612
881.35396	0.86752
879.42539	0.87858
877.49683	0.89049
875.56826	0.90158
873.63970	0.91192
871.71113	0.92361
869.78257	0.93553
867.85400	0.94670
865.92544	0.95823
863.99687	0.96980
862.06831	0.98179
860.13975	0.99455
858.21118	1.00638
856.28262	1.01716
854.35405	1.02768
852.42549	1.03754
850.49692	1.04849
848.56836	1.06224
846.63979	1.07690
844.71123	1.09030
842.78267	1.10154
840.85410	1.11267
838.92554	1.12496
836.99697	1.13558
835.06841	1.14545
833.13984	1.15669
831.21128	1.16610
829.28271	1.17379
827.35415	1.18272
825.42559	1.19266
823.49702	1.20809
821.56846	1.23109
819.63989	1.25344
817.71133	1.26806
815.78276	1.27862
813.85420	1.29706
811.92563	1.32354
809.99707	1.34245
808.06851	1.34915
806.13994	1.35360
804.21138	1.36434
802.28281	1.38390
800.35425	1.40708
798.42568	1.43168
796.49712	1.45972
794.56855	1.51042
792.63999	1.60287
790.71143	1.65769
788.78286	1.60983
786.85430	1.55544
784.92573	1.53115
782.99717	1.56217
781.06860	1.65318
779.14004	1.74487
777.21147	1.70440
775.28291	1.62499
773.35435	1.58178
771.42578	1.50337
769.49722	1.45242
767.56865	1.52253
765.64009	1.71267
763.71152	1.80936
761.78296	1.84365
759.85439	2.26915
757.92583	2.58835
755.99727	1.45893
754.06870	1.14053
752.14014	1.05547
750.21157	1.05024
748.28301	1.01436
746.35444	0.97279
744.42588	0.96726
742.49731	1.00504
740.56875	0.97988
738.64019	0.85138
736.71162	0.79555
734.78306	0.82099
732.85449	0.76227
730.92593	0.62969
728.99736	0.52982
727.06880	0.42169
725.14023	0.27294
723.21167	0.12610
721.28311	-0.08766
719.35454	-0.13865
717.42598	0.01093
715.49741	0.13806
713.56885	0.23097
711.64028	0.26301
709.71172	0.24398
707.78315	0.19752
705.85459	0.18583
703.92603	0.23166
701.99746	0.30239
700.06890	0.40669
698.14033	0.56246
696.21177	0.51602
694.28320	0.39375
692.35464	0.37748
690.42607	0.41309
688.49751	0.46320
686.56895	0.62268
684.64038	0.73667
682.71182	0.48945
680.78325	0.37535
678.85469	0.44743
676.92612	0.60322
674.99756	0.57985
673.06899	0.45352
671.14043	0.36845
669.21187	0.28371
667.28330	0.23944
665.35474	0.27689
663.42617	0.36855
661.49761	0.41301
659.56904	0.42158
657.64048	0.46136
655.71191	0.52597
653.78335	0.52386
651.85479	0.39263
649.92622	0.24314
647.99766	0.17756
646.06909	0.22485
644.14053	0.35579
642.21196	0.58841
640.28340	0.74047
638.35483	0.48295
636.42627	0.32829
634.49771	0.29050
632.56914	0.27067
630.64058	0.28863
628.71201	0.42823
626.78345	0.50053
624.85488	0.38641
622.92632	0.28489
620.99775	0.23008
619.06919	0.20744
617.14062	0.19195
615.21206	0.19457
613.28350	0.26115
611.35493	0.39585
609.42637	0.53425
607.49780	0.62947
605.56924	0.55839
603.64067	0.38238
601.71211	0.28577
599.78354	0.29399
597.85498	0.30079
595.92642	0.23979
593.99785	0.20343
592.06929	0.25721
590.14072	0.35079
588.21216	0.39944
586.28359	0.38825
584.35503	0.31937
582.42646	0.26186
580.49790	0.23988
578.56934	0.25693
576.64077	0.33203
574.71221	0.39052
572.78364	0.33891
570.85508	0.32180
568.92651	0.44315
566.99795	0.56663
565.06938	0.47317
563.14082	0.36335
561.21226	0.27981
559.28369	0.25554
557.35513	0.28096
555.42656	0.27724
553.49800	0.26461
551.56943	0.27877
549.64087	0.28136
547.71230	0.24611
545.78374	0.25257
543.85518	0.31651
541.92661	0.26187
539.99805	0.16817
538.06948	0.18775
536.14092	0.30256
534.21235	0.31495
532.28379	0.23049
530.35522	0.19276
528.42666	0.20610
526.49810	0.23842
524.56953	0.29600
522.64097	0.31859
520.71240	0.29779
518.78384	0.28787
516.85527	0.27735
514.92671	0.28318
512.99814	0.32609
511.06958	0.36482
509.14102	0.37355
507.21245	0.35340
505.28389	0.30306
503.35532	0.26962
501.42676	0.27581
499.49819	0.28499
