3997.91411	0.05998
3995.98555	0.06052
3994.05698	0.06170
3992.12842	0.06240
3990.19985	0.06260
3988.27129	0.06276
3986.34272	0.06259
3984.41416	0.06226
3982.48560	0.06227
3980.55703	0.06260
3978.62847	0.06314
3976.69990	0.06384
3974.77134	0.06436
3972.84277	0.06466
3970.91421	0.06496
3968.98564	0.06532
3967.05708	0.06571
3965.12852	0.06593
3963.19995	0.06592
3961.27139	0.06609
3959.34282	0.06632
3957.41426	0.06631
3955.48569	0.06624
3953.55713	0.06602
3951.62856	0.06583
3949.70000	0.06610
3947.77144	0.06645
3945.84287	0.06630
3943.91431	0.06629
3941.98574	0.06662
3940.05718	0.06652
3938.12861	0.06609
3936.20005	0.06603
3934.27148	0.06664
3932.34292	0.06775
3930.41436	0.06822
3928.48579	0.06755
3926.55723	0.06714
3924.62866	0.06760
3922.70010	0.06770
3920.77153	0.06708
3918.84297	0.06692
3916.91440	0.06704
3914.98584	0.06626
3913.05728	0.06510
3911.12871	0.06459
3909.20015	0.06457
3907.27158	0.06511
3905.34302	0.06670
3903.41445	0.06882
3901.48589	0.06996
3899.55732	0.06949
3897.62876	0.06792
3895.70020	0.06662
3893.77163	0.06649
3891.84307	0.06722
3889.91450	0.06733
3887.98594	0.06644
3886.05737	0.06649
3884.12881	0.06772
3882.20024	0.06834
3880.27168	0.06792
3878.34312	0.06689
3876.41455	0.06651
3874.48599	0.06758
3872.55742	0.06923
3870.62886	0.07054
3868.70029	0.07102
3866.77173	0.07053
3864.84316	0.07063
3862.91460	0.07133
3860.98604	0.07114
3859.05747	0.07059
3857.12891	0.07092
3855.20034	0.07247
3853.27178	0.07511
3851.34321	0.07580
3849.41465	0.07344
3847.48608	0.07172
3845.55752	0.07178
3843.62896	0.07348
3841.70039	0.07585
3839.77183	0.07819
3837.84326	0.08006
3835.91470	0.08016
3833.98613	0.07923
3832.05757	0.07854
3830.12900	0.07822
3828.20044	0.07862
3826.27187	0.07972
3824.34331	0.08093
3822.41475	0.08266
3820.48618	0.08541
3818.55762	0.08648
3816.62905	0.08608
3814.70049	0.08611
3812.77192	0.08558
3810.84336	0.08491
3808.91479	0.08548
3806.98623	0.08772
3805.05767	0.09029
3803.12910	0.09223
3801.20054	0.09398
3799.27197	0.09420
3797.34341	0.09367
3795.41484	0.09398
3793.48628	0.09434
3791.55771	0.09485
3789.62915	0.09607
3787.70059	0.09763
3785.77202	0.09910
3783.84346	0.10049
3781.91489	0.10203
3779.98633	0.10399
3778.05776	0.10566
3776.12920	0.10629
3774.20063	0.10707
3772.27207	0.10886
3770.34351	0.11175
3768.41494	0.11496
3766.48638	0.11696
3764.55781	0.11821
3762.62925	0.11962
3760.70068	0.12210
3758.77212	0.12589
3756.84355	0.12906
3754.91499	0.13088
3752.98643	0.13345
3751.05786	0.13826
3749.12930	0.14363
3747.20073	0.14616
3745.27217	0.14767
3743.34360	0.14998
3741.41504	0.15229
3739.48647	0.15502
3737.55791	0.15914
3735.62935	0.16491
3733.70078	0.17110
3731.77222	0.17516
3729.84365	0.17764
3727.91509	0.18060
3725.98652	0.18557
3724.05796	0.19230
3722.12939	0.19889
3720.20083	0.20482
3718.27227	0.21105
3716.34370	0.21811
3714.41514	0.22588
3712.48657	0.23620
3710.55801	0.25058
3708.62944	0.26361
3706.70088	0.27316
3704.77231	0.28319
3702.84375	0.29572
3700.91519	0.31204
3698.98662	0.32955
3697.05806	0.34594
3695.12949	0.36371
3693.20093	0.38325
3691.27236	0.40528
3689.34380	0.43364
3687.41523	0.46673
3685.48667	0.49491
3683.55811	0.51954
3681.62954	0.54697
3679.70098	0.57887
3677.77241	0.61261
3675.84385	0.65176
3673.91528	0.70311
3671.98672	0.74480
3670.05815	0.78239
3668.12959	0.83356
3666.20103	0.87945
3664.27246	0.91824
3662.34390	0.96089
3660.41533	1.00704
3658.48677	1.05243
3656.55820	1.10095
3654.62964	1.15529
3652.70107	1.20134
3650.77251	1.24167
3648.84395	1.29685
3646.91538	1.36340
3644.98682	1.41139
3643.05825	1.44853
3641.12969	1.48715
3639.20112	1.53007
3637.27256	1.57387
3635.34399	1.61697
3633.41543	1.66025
3631.48687	1.70115
3629.55830	1.74280
3627.62974	1.79646
3625.70117	1.84600
3623.77261	1.87943
3621.84404	1.91182
3619.91548	1.95005
3617.98691	1.99630
3616.05835	2.03974
3614.12979	2.07556
3612.20122	2.11337
3610.27266	2.15183
3608.34409	2.19080
3606.41553	2.23231
3604.48696	2.27145
3602.55840	2.30731
3600.62983	2.34575
3598.70127	2.38680
3596.77271	2.42673
3594.84414	2.46760
3592.91558	2.51035
3590.98701	2.54961
3589.05845	2.58456
3587.12988	2.62678
3585.20132	2.67509
3583.27275	2.71716
3581.34419	2.75666
3579.41562	2.79776
3577.48706	2.83980
3575.55850	2.88271
3573.62993	2.92667
3571.70137	2.96784
3569.77280	3.00609
3567.84424	3.04872
3565.91567	3.10257
3563.98711	3.15305
3562.05854	3.19354
3560.12998	3.23510
3558.20142	3.27955
3556.27285	3.32486
3554.34429	3.36940
3552.41572	3.41484
3550.48716	3.46224
3548.55859	3.51036
3546.63003	3.55914
3544.70146	3.60855
3542.77290	3.65569
3540.84434	3.70047
3538.91577	3.74582
3536.98721	3.79102
3535.05864	3.83747
3533.13008	3.88582
3531.20151	3.93344
3529.27295	3.98064
3527.34438	4.03152
3525.41582	4.08342
3523.48726	4.13189
3521.55869	4.17796
3519.63013	4.22219
3517.70156	4.26943
3515.77300	4.32089
3513.84443	4.37000
3511.91587	4.41487
3509.98730	4.46129
3508.05874	4.50915
3506.13018	4.55448
3504.20161	4.60310
3502.27305	4.65723
3500.34448	4.70977
3498.41592	4.75901
3496.48735	4.80526
3494.55879	4.85003
3492.63022	4.89797
3490.70166	4.94549
3488.77310	4.98993
3486.84453	5.03557
3484.91597	5.08165
3482.98740	5.12490
3481.05884	5.16905
3479.13027	5.21606
3477.20171	5.26034
3475.27314	5.30192
3473.34458	5.35151
3471.41602	5.41281
3469.48745	5.47334
3467.55889	5.52412
3465.63032	5.56921
3463.70176	5.61027
3461.77319	5.64563
3459.84463	5.69175
3457.91606	5.75773
3455.98750	5.82783
3454.05894	5.89019
3452.13037	5.94165
3450.20181	5.98014
3448.27324	6.01557
3446.34468	6.06233
3444.41611	6.11327
3442.48755	6.16013
3440.55898	6.20455
3438.63042	6.24953
3436.70186	6.28795
3434.77329	6.32347
3432.84473	6.37355
3430.91616	6.42773
3428.98760	6.47926
3427.05903	6.54389
3425.13047	6.62092
3423.20190	6.66888
3421.27334	6.69137
3419.34478	6.73577
3417.41621	6.79518
3415.48765	6.85181
3413.55908	6.91490
3411.63052	6.97869
3409.70195	7.00858
3407.77339	7.00536
3405.84482	7.00897
3403.91626	7.04982
3401.98770	7.09950
3400.05913	7.13787
3398.13057	7.21614
3396.20200	7.33515
3394.27344	7.40600
3392.34487	7.38135
3390.41631	7.33440
3388.48774	7.34020
3386.55918	7.41319
3384.63062	7.50027
3382.70205	7.57266
3380.77349	7.65001
3378.84492	7.70474
3376.91636	7.71295
3374.98779	7.69670
3373.05923	7.70247
3371.13066	7.70895
3369.20210	7.69122
3367.27354	7.68823
3365.34497	7.72231
3363.41641	7.74629
3361.48784	7.77047
3359.55928	7.87795
3357.63071	7.98640
3355.70215	7.96418
3353.77358	7.89029
3351.84502	7.88858
3349.91646	7.92241
3347.98789	7.94953
3346.05933	7.97324
3344.13076	7.95794
3342.20220	7.94010
3340.27363	7.94714
3338.34507	7.95793
3336.41650	8.00367
3334.48794	8.11676
3332.55937	8.18058
3330.63081	8.11403
3328.70225	8.02090
3326.77368	7.97657
3324.84512	7.98448
3322.91655	8.00127
3320.98799	7.99187
3319.05942	7.96437
3317.13086	7.93027
3315.20229	7.90332
3313.27373	7.94806
3311.34517	8.07103
3309.41660	8.16536
3307.48804	8.16746
3305.55947	8.13896
3303.63091	8.13302
3301.70234	8.15102
3299.77378	8.19777
3297.84521	8.21614
3295.91665	8.17597
3293.98809	8.12297
3292.05952	8.08995
3290.13096	8.08627
3288.20239	8.13608
3286.27383	8.23008
3284.34526	8.30133
3282.41670	8.33422
3280.48813	8.31592
3278.55957	8.27210
3276.63101	8.25367
3274.70244	8.26078
3272.77388	8.23575
3270.84531	8.15468
3268.91675	8.08684
3266.98818	8.06317
3265.05962	8.08395
3263.13105	8.11840
3261.20249	8.09909
3259.27393	8.05157
3257.34536	8.09461
3255.41680	8.17590
3253.48823	8.16314
3251.55967	8.13224
3249.63110	8.11212
3247.70254	8.06866
3245.77397	8.04848
3243.84541	8.07590
3241.91685	8.12489
3239.98828	8.15466
3238.05972	8.14273
3236.13115	8.10605
3234.20259	8.06197
3232.27402	8.04447
3230.34546	8.07607
3228.41689	8.09844
3226.48833	8.08728
3224.55977	8.09113
3222.63120	8.09314
3220.70264	8.03292
3218.77407	7.95215
3216.84551	7.94026
3214.91694	7.98535
3212.98838	7.99837
3211.05981	7.96688
3209.13125	7.94683
3207.20269	7.94659
3205.27412	7.93798
3203.34556	7.93475
3201.41699	7.98101
3199.48843	8.03456
3197.55986	7.99408
3195.63130	7.85214
3193.70273	7.67402
3191.77417	7.50762
3189.84561	7.43980
3187.91704	7.49944
3185.98848	7.55598
3184.05991	7.50311
3182.13135	7.38247
3180.20278	7.28498
3178.27422	7.23791
3176.34565	7.20040
3174.41709	7.15131
3172.48853	7.09947
3170.55996	7.05739
3168.63140	7.00635
3166.70283	6.94511
3164.77427	6.90880
3162.84570	6.86126
3160.91714	6.76720
3158.98857	6.68477
3157.06001	6.64415
3155.13145	6.60147
3153.20288	6.52707
3151.27432	6.44717
3149.34575	6.37625
3147.41719	6.30058
3145.48862	6.21913
3143.56006	6.14567
3141.63149	6.08383
3139.70293	6.01268
3137.77437	5.93081
3135.84580	5.86208
3133.91724	5.80837
3131.98867	5.75289
3130.06011	5.68600
3128.13154	5.60795
3126.20298	5.52874
3124.27441	5.45991
3122.34585	5.39305
3120.41729	5.31699
3118.48872	5.24142
3116.56016	5.17595
3114.63159	5.11025
3112.70303	5.03708
3110.77446	4.96076
3108.84590	4.88322
3106.91733	4.81191
3104.98877	4.75206
3103.06021	4.69745
3101.13164	4.63757
3099.20308	4.56709
3097.27451	4.49333
3095.34595	4.42615
3093.41738	4.36315
3091.48882	4.29747
3089.56025	4.23172
3087.63169	4.16975
3085.70312	4.11101
3083.77456	4.05287
3081.84600	3.99178
3079.91743	3.92738
3077.98887	3.86392
3076.06030	3.80579
3074.13174	3.75132
3072.20317	3.69454
3070.27461	3.63453
3068.34604	3.57585
3066.41748	3.51984
3064.48892	3.46548
3062.56035	3.41206
3060.63179	3.35830
3058.70322	3.30430
3056.77466	3.25042
3054.84609	3.19605
3052.91753	3.14166
3050.98896	3.08869
3049.06040	3.03715
3047.13184	2.98692
3045.20327	2.93826
3043.27471	2.88979
3041.34614	2.84091
3039.41758	2.79282
3037.48901	2.74556
3035.56045	2.69878
3033.63188	2.65331
3031.70332	2.60852
3029.77476	2.56362
3027.84619	2.52003
3025.91763	2.47718
3023.98906	2.43337
3022.06050	2.38971
3020.13193	2.34752
3018.20337	2.30666
3016.27480	2.26671
3014.34624	2.22690
3012.41768	2.18738
3010.48911	2.14898
3008.56055	2.11105
3006.63198	2.07328
3004.70342	2.03645
3002.77485	2.00097
3000.84629	1.96710
2998.91772	1.93422
2996.98916	1.90158
2995.06060	1.86940
2993.13203	1.83807
2991.20347	1.80760
2989.27490	1.77781
2987.34634	1.74842
2985.41777	1.71934
2983.48921	1.69114
2981.56064	1.66412
2979.63208	1.63760
2977.70352	1.61152
2975.77495	1.58638
2973.84639	1.56175
2971.91782	1.53721
2969.98926	1.51312
2968.06069	1.48962
2966.13213	1.46663
2964.20356	1.44391
2962.27500	1.42084
2960.34644	1.39718
2958.41787	1.37313
2956.48931	1.34895
2954.56074	1.32513
2952.63218	1.30158
2950.70361	1.27799
2948.77505	1.25497
2946.84648	1.23286
2944.91792	1.21118
2942.98936	1.19008
2941.06079	1.17004
2939.13223	1.15052
2937.20366	1.13071
2935.27510	1.11081
2933.34653	1.09110
2931.41797	1.07155
2929.48940	1.05207
2927.56084	1.03247
2925.63228	1.01344
2923.70371	0.99561
2921.77515	0.97811
2919.84658	0.96003
2917.91802	0.94179
2915.98945	0.92416
2914.06089	0.90721
2912.13232	0.89077
2910.20376	0.87473
2908.27520	0.85895
2906.34663	0.84325
2904.41807	0.82782
2902.48950	0.81330
2900.56094	0.79976
2898.63237	0.78665
2896.70381	0.77337
2894.77524	0.75985
2892.84668	0.74677
2890.91812	0.73463
2888.98955	0.72322
2887.06099	0.71221
2885.13242	0.70160
2883.20386	0.69133
2881.27529	0.68147
2879.34673	0.67218
2877.41816	0.66302
2875.48960	0.65344
2873.56104	0.64349
2871.63247	0.63323
2869.70391	0.62212
2867.77534	0.61009
2865.84678	0.59791
2863.91821	0.58604
2861.98965	0.57427
2860.06108	0.56275
2858.13252	0.55214
2856.20396	0.54214
2854.27539	0.53226
2852.34683	0.52280
2850.41826	0.51392
2848.48970	0.50534
2846.56113	0.49676
2844.63257	0.48843
2842.70400	0.48091
2840.77544	0.47413
2838.84687	0.46773
2836.91831	0.46176
2834.98975	0.45596
2833.06118	0.44982
2831.13262	0.44315
2829.20405	0.43658
2827.27549	0.43056
2825.34692	0.42463
2823.41836	0.41849
2821.48979	0.41235
2819.56123	0.40637
2817.63267	0.40059
2815.70410	0.39481
2813.77554	0.38901
2811.84697	0.38344
2809.91841	0.37819
2807.98984	0.37294
2806.06128	0.36761
2804.13271	0.36242
2802.20415	0.35717
2800.27559	0.35177
2798.34702	0.34659
2796.41846	0.34187
2794.48989	0.33738
2792.56133	0.33276
2790.63276	0.32793
2788.70420	0.32302
2786.77563	0.31843
2784.84707	0.31428
2782.91851	0.31025
2780.98994	0.30611
2779.06138	0.30189
2777.13281	0.29773
2775.20425	0.29379
2773.27568	0.29003
2771.34712	0.28627
2769.41855	0.28239
2767.48999	0.27857
2765.56143	0.27491
2763.63286	0.27126
2761.70430	0.26768
2759.77573	0.26438
2757.84717	0.26123
2755.91860	0.25808
2753.99004	0.25487
2752.06147	0.25162
2750.13291	0.24845
2748.20435	0.24547
2746.27578	0.24260
2744.34722	0.23977
2742.41865	0.23701
2740.49009	0.23426
2738.56152	0.23149
2736.63296	0.22887
2734.70439	0.22649
2732.77583	0.22413
2730.84727	0.22169
2728.91870	0.21926
2726.99014	0.21683
2725.06157	0.21455
2723.13301	0.21260
2721.20444	0.21074
2719.27588	0.20865
2717.34731	0.20635
2715.41875	0.20416
2713.49019	0.20227
2711.56162	0.20043
2709.63306	0.19850
2707.70449	0.19666
2705.77593	0.19501
2703.84736	0.19345
2701.91880	0.19184
2699.99023	0.19025
2698.06167	0.18890
2696.13311	0.18769
2694.20454	0.18639
2692.27598	0.18495
2690.34741	0.18335
2688.41885	0.18168
2686.49028	0.18029
2684.56172	0.17922
2682.63315	0.17811
2680.70459	0.17696
2678.77603	0.17597
2676.84746	0.17483
2674.91890	0.17340
2672.99033	0.17207
2671.06177	0.17103
2669.13320	0.17005
2667.20464	0.16904
2665.27607	0.16814
2663.34751	0.16730
2661.41895	0.16629
2659.49038	0.16517
2657.56182	0.16416
2655.63325	0.16332
2653.70469	0.16259
2651.77612	0.16197
2649.84756	0.16134
2647.91899	0.16063
2645.99043	0.15996
2644.06187	0.15936
2642.13330	0.15879
2640.20474	0.15820
2638.27617	0.15750
2636.34761	0.15676
2634.41904	0.15620
2632.49048	0.15580
2630.56191	0.15534
2628.63335	0.15485
2626.70479	0.15450
2624.77622	0.15415
2622.84766	0.15370
2620.91909	0.15334
2618.99053	0.15308
2617.06196	0.15277
2615.13340	0.15248
2613.20483	0.15229
2611.27627	0.15218
2609.34771	0.15211
2607.41914	0.15204
2605.49058	0.15184
2603.56201	0.15159
2601.63345	0.15145
2599.70488	0.15144
2597.77632	0.15144
2595.84775	0.15152
2593.91919	0.15162
2591.99062	0.15166
2590.06206	0.15176
2588.13350	0.15189
2586.20493	0.15188
2584.27637	0.15186
2582.34780	0.15199
2580.41924	0.15222
2578.49067	0.15259
2576.56211	0.15309
2574.63354	0.15345
2572.70498	0.15360
2570.77642	0.15376
2568.84785	0.15406
2566.91929	0.15440
2564.99072	0.15472
2563.06216	0.15508
2561.13359	0.15545
2559.20503	0.15580
2557.27646	0.15622
2555.34790	0.15671
2553.41934	0.15716
2551.49077	0.15761
2549.56221	0.15811
2547.63364	0.15869
2545.70508	0.15928
2543.77651	0.15979
2541.84795	0.16027
2539.91938	0.16089
2537.99082	0.16150
2536.06226	0.16202
2534.13369	0.16253
2532.20513	0.16309
2530.27656	0.16376
2528.34800	0.16457
2526.41943	0.16538
2524.49087	0.16604
2522.56230	0.16665
2520.63374	0.16733
2518.70518	0.16805
2516.77661	0.16882
2514.84805	0.16959
2512.91948	0.17028
2510.99092	0.17091
2509.06235	0.17153
2507.13379	0.17221
2505.20522	0.17292
2503.27666	0.17371
2501.34810	0.17467
2499.41953	0.17566
2497.49097	0.17645
2495.56240	0.17711
2493.63384	0.17786
2491.70527	0.17869
2489.77671	0.17947
2487.84814	0.18026
2485.91958	0.18121
2483.99102	0.18207
2482.06245	0.18270
2480.13389	0.18341
2478.20532	0.18432
2476.27676	0.18530
2474.34819	0.18625
2472.41963	0.18700
2470.49106	0.18758
2468.56250	0.18827
2466.63394	0.18923
2464.70537	0.19029
2462.77681	0.19124
2460.84824	0.19205
2458.91968	0.19288
2456.99111	0.19386
2455.06255	0.19482
2453.13398	0.19571
2451.20542	0.19666
2449.27686	0.19767
2447.34829	0.19871
2445.41973	0.19970
2443.49116	0.20061
2441.56260	0.20150
2439.63403	0.20243
2437.70547	0.20349
2435.77690	0.20470
2433.84834	0.20583
2431.91978	0.20665
2429.99121	0.20744
2428.06265	0.20838
2426.13408	0.20941
2424.20552	0.21048
2422.27695	0.21162
2420.34839	0.21276
2418.41982	0.21385
2416.49126	0.21495
2414.56270	0.21606
2412.63413	0.21708
2410.70557	0.21806
2408.77700	0.21914
2406.84844	0.22038
2404.91987	0.22168
2402.99131	0.22278
2401.06274	0.22379
2399.13418	0.22499
2397.20562	0.22623
2395.27705	0.22737
2393.34849	0.22848
2391.41992	0.22967
2389.49136	0.23108
2387.56279	0.23276
2385.63423	0.23462
2383.70566	0.23672
2381.77710	0.23927
2379.84854	0.24228
2377.91997	0.24555
2375.99141	0.24894
2374.06284	0.25270
2372.13428	0.25707
2370.20571	0.26186
2368.27715	0.26643
2366.34858	0.27017
2364.42002	0.27348
2362.49146	0.27688
2360.56289	0.27930
2358.63433	0.28094
2356.70576	0.28208
2354.77720	0.28120
2352.84863	0.27906
2350.92007	0.27692
2348.99150	0.27566
2347.06294	0.27628
2345.13437	0.27930
2343.20581	0.28361
2341.27725	0.28693
2339.34868	0.28868
2337.42012	0.28958
2335.49155	0.29054
2333.56299	0.29177
2331.63442	0.29322
2329.70586	0.29456
2327.77729	0.29560
2325.84873	0.29624
2323.92017	0.29651
2321.99160	0.29688
2320.06304	0.29747
2318.13447	0.29820
2316.20591	0.29903
2314.27734	0.29983
2312.34878	0.30061
2310.42021	0.30157
2308.49165	0.30262
2306.56309	0.30352
2304.63452	0.30442
2302.70596	0.30558
2300.77739	0.30684
2298.84883	0.30796
2296.92026	0.30919
2294.99170	0.31069
2293.06313	0.31225
2291.13457	0.31374
2289.20601	0.31530
2287.27744	0.31695
2285.34888	0.31856
2283.42031	0.32025
2281.49175	0.32213
2279.56318	0.32416
2277.63462	0.32630
2275.70605	0.32850
2273.77749	0.33069
2271.84893	0.33287
2269.92036	0.33494
2267.99180	0.33696
2266.06323	0.33899
2264.13467	0.34105
2262.20610	0.34318
2260.27754	0.34527
2258.34897	0.34723
2256.42041	0.34913
2254.49185	0.35109
2252.56328	0.35325
2250.63472	0.35556
2248.70615	0.35780
2246.77759	0.35995
2244.84902	0.36212
2242.92046	0.36425
2240.99189	0.36634
2239.06333	0.36843
2237.13477	0.37060
2235.20620	0.37293
2233.27764	0.37535
2231.34907	0.37768
2229.42051	0.37988
2227.49194	0.38204
2225.56338	0.38415
2223.63481	0.38628
2221.70625	0.38849
2219.77769	0.39072
2217.84912	0.39293
2215.92056	0.39512
2213.99199	0.39718
2212.06343	0.39918
2210.13486	0.40126
2208.20630	0.40342
2206.27773	0.40555
2204.34917	0.40758
2202.42061	0.40963
2200.49204	0.41176
2198.56348	0.41381
2196.63491	0.41575
2194.70635	0.41772
2192.77778	0.41968
2190.84922	0.42156
2188.92065	0.42338
2186.99209	0.42514
2185.06353	0.42693
2183.13496	0.42876
2181.20640	0.43046
2179.27783	0.43209
2177.34927	0.43371
2175.42070	0.43518
2173.49214	0.43658
2171.56357	0.43797
2169.63501	0.43927
2167.70645	0.44055
2165.77788	0.44190
2163.84932	0.44328
2161.92075	0.44450
2159.99219	0.44550
2158.06362	0.44630
2156.13506	0.44708
2154.20649	0.44798
2152.27793	0.44886
2150.34937	0.44955
2148.42080	0.45002
2146.49224	0.45044
2144.56367	0.45089
2142.63511	0.45137
2140.70654	0.45182
2138.77798	0.45209
2136.84941	0.45215
2134.92085	0.45213
2132.99229	0.45207
2131.06372	0.45197
2129.13516	0.45174
2127.20659	0.45137
2125.27803	0.45103
2123.34946	0.45066
2121.42090	0.45018
2119.49233	0.44963
2117.56377	0.44903
2115.63521	0.44829
2113.70664	0.44738
2111.77808	0.44639
2109.84951	0.44540
2107.92095	0.44438
2105.99238	0.44322
2104.06382	0.44192
2102.13525	0.44051
2100.20669	0.43907
2098.27812	0.43757
2096.34956	0.43596
2094.42100	0.43436
2092.49243	0.43282
2090.56387	0.43125
2088.63530	0.42958
2086.70674	0.42785
2084.77817	0.42602
2082.84961	0.42406
2080.92104	0.42200
2078.99248	0.41988
2077.06392	0.41764
2075.13535	0.41534
2073.20679	0.41309
2071.27822	0.41091
2069.34966	0.40872
2067.42109	0.40641
2065.49253	0.40400
2063.56396	0.40157
2061.63540	0.39924
2059.70684	0.39688
2057.77827	0.39428
2055.84971	0.39157
2053.92114	0.38898
2051.99258	0.38644
2050.06401	0.38372
2048.13545	0.38097
2046.20688	0.37830
2044.27832	0.37571
2042.34976	0.37314
2040.42119	0.37047
2038.49263	0.36769
2036.56406	0.36490
2034.63550	0.36212
2032.70693	0.35935
2030.77837	0.35658
2028.84980	0.35383
2026.92124	0.35114
2024.99268	0.34844
2023.06411	0.34573
2021.13555	0.34301
2019.20698	0.34026
2017.27842	0.33755
2015.34985	0.33481
2013.42129	0.33199
2011.49272	0.32918
2009.56416	0.32641
2007.63560	0.32365
2005.70703	0.32095
2003.77847	0.31832
2001.84990	0.31575
1999.92134	0.31324
1997.99277	0.31073
1996.06421	0.30823
1994.13564	0.30586
1992.20708	0.30359
1990.27852	0.30121
1988.34995	0.29869
1986.42139	0.29612
1984.49282	0.29359
1982.56426	0.29118
1980.63569	0.28887
1978.70713	0.28662
1976.77856	0.28433
1974.85000	0.28200
1972.92144	0.27973
1970.99287	0.27768
1969.06431	0.27589
1967.13574	0.27416
1965.20718	0.27222
1963.27861	0.27013
1961.35005	0.26805
1959.42148	0.26601
1957.49292	0.26413
1955.56436	0.26245
1953.63579	0.26087
1951.70723	0.25923
1949.77866	0.25756
1947.85010	0.25598
1945.92153	0.25463
1943.99297	0.25347
1942.06440	0.25216
1940.13584	0.25049
1938.20728	0.24881
1936.27871	0.24738
1934.35015	0.24605
1932.42158	0.24476
1930.49302	0.24355
1928.56445	0.24252
1926.63589	0.24161
1924.70732	0.24093
1922.77876	0.24028
1920.85020	0.23928
1918.92163	0.23819
1916.99307	0.23718
1915.06450	0.23613
1913.13594	0.23521
1911.20737	0.23462
1909.27881	0.23414
1907.35024	0.23346
1905.42168	0.23263
1903.49312	0.23190
1901.56455	0.23137
1899.63599	0.23098
1897.70742	0.23069
1895.77886	0.23042
1893.85029	0.23011
1891.92173	0.22980
1889.99316	0.22971
1888.06460	0.22949
1886.13604	0.22907
1884.20747	0.22882
1882.27891	0.22868
1880.35034	0.22852
1878.42178	0.22833
1876.49321	0.22825
1874.56465	0.22829
1872.63608	0.22857
1870.70752	0.22925
1868.77896	0.23019
1866.85039	0.23045
1864.92183	0.23003
1862.99326	0.22983
1861.06470	0.23003
1859.13613	0.23035
1857.20757	0.23058
1855.27900	0.23095
1853.35044	0.23144
1851.42187	0.23201
1849.49331	0.23270
1847.56475	0.23368
1845.63618	0.23495
1843.70762	0.23617
1841.77905	0.23661
1839.85049	0.23669
1837.92192	0.23737
1835.99336	0.23836
1834.06479	0.23938
1832.13623	0.24064
1830.20767	0.24240
1828.27910	0.24392
1826.35054	0.24486
1824.42197	0.24600
1822.49341	0.24709
1820.56484	0.24812
1818.63628	0.24935
1816.70771	0.25098
1814.77915	0.25277
1812.85059	0.25473
1810.92202	0.25693
1808.99346	0.25901
1807.06489	0.26089
1805.13633	0.26286
1803.20776	0.26525
1801.27920	0.26788
1799.35063	0.27059
1797.42207	0.27302
1795.49351	0.27549
1793.56494	0.27852
1791.63638	0.28224
1789.70781	0.28541
1787.77925	0.28772
1785.85068	0.29077
1783.92212	0.29452
1781.99355	0.29853
1780.06499	0.30270
1778.13643	0.30694
1776.20786	0.31105
1774.27930	0.31569
1772.35073	0.32188
1770.42217	0.32811
1768.49360	0.33289
1766.56504	0.33748
1764.63647	0.34257
1762.70791	0.34862
1760.77935	0.35627
1758.85078	0.36324
1756.92222	0.37012
1754.99365	0.37769
1753.06509	0.38482
1751.13652	0.39357
1749.20796	0.40448
1747.27939	0.41475
1745.35083	0.42344
1743.42227	0.43278
1741.49370	0.44331
1739.56514	0.45583
1737.63657	0.46843
1735.70801	0.47956
1733.77944	0.49609
1731.85088	0.51520
1729.92231	0.53004
1727.99375	0.54531
1726.06519	0.56203
1724.13662	0.58049
1722.20806	0.60053
1720.27949	0.61931
1718.35093	0.64146
1716.42236	0.67350
1714.49380	0.70335
1712.56523	0.72759
1710.63667	0.75153
1708.70811	0.77762
1706.77954	0.80719
1704.85098	0.84246
1702.92241	0.87406
1700.99385	0.90550
1699.06528	0.95294
1697.13672	0.99714
1695.20815	1.04210
1693.27959	1.08550
1691.35103	1.12103
1689.42246	1.16292
1687.49390	1.20753
1685.56533	1.25048
1683.63677	1.31636
1681.70820	1.38494
1679.77964	1.42920
1677.85107	1.47171
1675.92251	1.52084
1673.99395	1.58161
1672.06538	1.63619
1670.13682	1.68997
1668.20825	1.75916
1666.27969	1.81632
1664.35112	1.86733
1662.42256	1.93304
1660.49399	2.00633
1658.56543	2.06311
1656.63687	2.10868
1654.70830	2.14826
1652.77974	2.20826
1650.85117	2.26894
1648.92261	2.28963
1646.99404	2.30804
1645.06548	2.32619
1643.13691	2.34131
1641.20835	2.34999
1639.27979	2.35607
1637.35122	2.35768
1635.42266	2.35201
1633.49409	2.34024
1631.56553	2.32475
1629.63696	2.30491
1627.70840	2.27275
1625.77983	2.23727
1623.85127	2.19353
1621.92271	2.13855
1619.99414	2.08970
1618.06558	2.04292
1616.13701	1.97559
1614.20845	1.90664
1612.27988	1.85502
1610.35132	1.80183
1608.42275	1.74382
1606.49419	1.68719
1604.56562	1.63583
1602.63706	1.58624
1600.70850	1.53814
1598.77993	1.49450
1596.85137	1.45367
1594.92280	1.41417
1592.99424	1.37655
1591.06567	1.34242
1589.13711	1.31070
1587.20854	1.28176
1585.27998	1.25580
1583.35142	1.23221
1581.42285	1.21128
1579.49429	1.19395
1577.56572	1.17892
1575.63716	1.16130
1573.70859	1.14621
1571.78003	1.13703
1569.85146	1.12881
1567.92290	1.12030
1565.99434	1.11464
1564.06577	1.11202
1562.13721	1.11140
1560.20864	1.11404
1558.28008	1.12421
1556.35151	1.13243
1554.42295	1.13563
1552.49438	1.13950
1550.56582	1.14222
1548.63726	1.14196
1546.70869	1.13831
1544.78013	1.13066
1542.85156	1.11861
1540.92300	1.09862
1538.99443	1.06502
1537.06587	1.04010
1535.13730	1.02358
1533.20874	1.00168
1531.28018	0.97787
1529.35161	0.96047
1527.42305	0.94441
1525.49448	0.92788
1523.56592	0.91377
1521.63735	0.90061
1519.70879	0.88773
1517.78022	0.87667
1515.85166	0.86329
1513.92310	0.84914
1511.99453	0.83688
1510.06597	0.82578
1508.13740	0.81500
1506.20884	0.79787
1504.28027	0.78244
1502.35171	0.77398
1500.42314	0.76689
1498.49458	0.75933
1496.56602	0.75034
1494.63745	0.74135
1492.70889	0.73461
1490.78032	0.72899
1488.85176	0.72247
1486.92319	0.71585
1484.99463	0.71040
1483.06606	0.70638
1481.13750	0.70345
1479.20894	0.70143
1477.28037	0.70072
1475.35181	0.70138
1473.42324	0.70271
1471.49468	0.70276
1469.56611	0.70101
1467.63755	0.69897
1465.70898	0.69761
1463.78042	0.69704
1461.85186	0.69693
1459.92329	0.69752
1457.99473	0.69914
1456.06616	0.69987
1454.13760	0.69757
1452.20903	0.69473
1450.28047	0.69218
1448.35190	0.68971
1446.42334	0.68695
1444.49478	0.68422
1442.56621	0.68163
1440.63765	0.67893
1438.70908	0.67610
1436.78052	0.67231
1434.85195	0.66764
1432.92339	0.66415
1430.99482	0.66213
1429.06626	0.66122
1427.13770	0.66127
1425.20913	0.66226
1423.28057	0.66382
1421.35200	0.66509
1419.42344	0.66599
1417.49487	0.66592
1415.56631	0.66469
1413.63774	0.66399
1411.70918	0.66449
1409.78062	0.66590
1407.85205	0.66769
1405.92349	0.66979
1403.99492	0.67184
1402.06636	0.67285
1400.13779	0.67259
1398.20923	0.67112
1396.28066	0.66854
1394.35210	0.66440
1392.42354	0.65912
1390.49497	0.65426
1388.56641	0.64970
1386.63784	0.64427
1384.70928	0.63828
1382.78071	0.63263
1380.85215	0.62724
1378.92358	0.62261
1376.99502	0.61939
1375.06646	0.61740
1373.13789	0.61596
1371.20933	0.61488
1369.28076	0.61414
1367.35220	0.61309
1365.42363	0.61155
1363.49507	0.60997
1361.56650	0.60842
1359.63794	0.60676
1357.70937	0.60511
1355.78081	0.60362
1353.85225	0.60238
1351.92368	0.60135
1349.99512	0.60049
1348.06655	0.59974
1346.13799	0.59894
1344.20942	0.59810
1342.28086	0.59738
1340.35229	0.59694
1338.42373	0.59643
1336.49517	0.59564
1334.56660	0.59495
1332.63804	0.59469
1330.70947	0.59495
1328.78091	0.59571
1326.85234	0.59679
1324.92378	0.59788
1322.99521	0.59890
1321.06665	0.59990
1319.13809	0.60086
1317.20952	0.60156
1315.28096	0.60191
1313.35239	0.60197
1311.42383	0.60154
1309.49526	0.60070
1307.56670	0.59996
1305.63813	0.59954
1303.70957	0.59926
1301.78101	0.59880
1299.85244	0.59796
1297.92388	0.59677
1295.99531	0.59545
1294.06675	0.59418
1292.13818	0.59288
1290.20962	0.59146
1288.28105	0.58999
1286.35249	0.58846
1284.42393	0.58685
1282.49536	0.58518
1280.56680	0.58360
1278.63823	0.58217
1276.70967	0.58085
1274.78110	0.57959
1272.85254	0.57846
1270.92397	0.57755
1268.99541	0.57678
1267.06685	0.57599
1265.13828	0.57521
1263.20972	0.57446
1261.28115	0.57359
1259.35259	0.57250
1257.42402	0.57143
1255.49546	0.57081
1253.56689	0.57069
1251.63833	0.57081
1249.70977	0.57092
1247.78120	0.57092
1245.85264	0.57081
1243.92407	0.57031
1241.99551	0.56908
1240.06694	0.56725
1238.13838	0.56519
1236.20981	0.56305
1234.28125	0.56071
1232.35269	0.55808
1230.42412	0.55541
1228.49556	0.55290
1226.56699	0.55050
1224.63843	0.54829
1222.70986	0.54647
1220.78130	0.54489
1218.85273	0.54318
1216.92417	0.54144
1214.99561	0.54008
1213.06704	0.53909
1211.13848	0.53819
1209.20991	0.53745
1207.28135	0.53692
1205.35278	0.53632
1203.42422	0.53539
1201.49565	0.53420
1199.56709	0.53296
1197.63853	0.53183
1195.70996	0.53088
1193.78140	0.53018
1191.85283	0.52965
1189.92427	0.52918
1187.99570	0.52876
1186.06714	0.52849
1184.13857	0.52844
1182.21001	0.52868
1180.28145	0.52938
1178.35288	0.53061
1176.42432	0.53229
1174.49575	0.53380
1172.56719	0.53454
1170.63862	0.53465
1168.71006	0.53452
1166.78149	0.53435
1164.85293	0.53434
1162.92437	0.53450
1160.99580	0.53462
1159.06724	0.53460
1157.13867	0.53426
1155.21011	0.53342
1153.28154	0.53206
1151.35298	0.53040
1149.42441	0.52851
1147.49585	0.52618
1145.56729	0.52334
1143.63872	0.52058
1141.71016	0.51840
1139.78159	0.51678
1137.85303	0.51556
1135.92446	0.51474
1133.99590	0.51455
1132.06733	0.51496
1130.13877	0.51537
1128.21021	0.51539
1126.28164	0.51501
1124.35308	0.51456
1122.42451	0.51439
1120.49595	0.51440
1118.56738	0.51460
1116.63882	0.51514
1114.71025	0.51588
1112.78169	0.51670
1110.85312	0.51752
1108.92456	0.51829
1106.99600	0.51905
1105.06743	0.51992
1103.13887	0.52086
1101.21030	0.52179
1099.28174	0.52290
1097.35317	0.52449
1095.42461	0.52679
1093.49604	0.53012
1091.56748	0.53491
1089.63892	0.54138
1087.71035	0.54925
1085.78179	0.55788
1083.85322	0.56647
1081.92466	0.57400
1079.99609	0.57935
1078.06753	0.58196
1076.13896	0.58170
1074.21040	0.57827
1072.28184	0.57213
1070.35327	0.56467
1068.42471	0.55720
1066.49614	0.55024
1064.56758	0.54376
1062.63901	0.53799
1060.71045	0.53309
1058.78188	0.52879
1056.85332	0.52492
1054.92476	0.52163
1052.99619	0.51883
1051.06763	0.51626
1049.13906	0.51418
1047.21050	0.51317
1045.28193	0.51314
1043.35337	0.51335
1041.42480	0.51334
1039.49624	0.51320
1037.56768	0.51304
1035.63911	0.51291
1033.71055	0.51261
1031.78198	0.51172
1029.85342	0.50989
1027.92485	0.50756
1025.99629	0.50566
1024.06772	0.50435
1022.13916	0.50333
1020.21060	0.50248
1018.28203	0.50179
1016.35347	0.50133
1014.42490	0.50098
1012.49634	0.50061
1010.56777	0.50031
1008.63921	0.50010
1006.71064	0.50016
1004.78208	0.50088
1002.85352	0.50231
1000.92495	0.50457
998.99639	0.50805
997.06782	0.51262
995.13926	0.51754
993.21069	0.52190
991.28213	0.52508
989.35356	0.52685
987.42500	0.52736
985.49644	0.52725
983.56787	0.52714
981.63931	0.52733
979.71074	0.52789
977.78218	0.52886
975.85361	0.53045
973.92505	0.53278
971.99648	0.53553
970.06792	0.53854
968.13936	0.54219
966.21079	0.54645
964.28223	0.55092
962.35366	0.55574
960.42510	0.56105
958.49653	0.56644
956.56797	0.57205
954.63940	0.57821
952.71084	0.58443
950.78228	0.59040
948.85371	0.59654
946.92515	0.60285
944.99658	0.60913
943.06802	0.61557
941.13945	0.62205
939.21089	0.62816
937.28232	0.63392
935.35376	0.63976
933.42520	0.64574
931.49663	0.65182
929.56807	0.65801
927.63950	0.66393
925.71094	0.66951
923.78237	0.67532
921.85381	0.68182
919.92524	0.68854
917.99668	0.69519
916.06812	0.70258
914.13955	0.71070
912.21099	0.71859
910.28242	0.72651
908.35386	0.73533
906.42529	0.74415
904.49673	0.75257
902.56816	0.76131
900.63960	0.76984
898.71104	0.77911
896.78247	0.79055
894.85391	0.80175
892.92534	0.81113
890.99678	0.82075
889.06821	0.83113
887.13965	0.84160
885.21108	0.85277
883.28252	0.86509
881.35396	0.87788
879.42539	0.88927
877.49683	0.89859
875.56826	0.90768
873.63970	0.91823
871.71113	0.93019
869.78257	0.94269
867.85400	0.95535
865.92544	0.96733
863.99687	0.97846
862.06831	0.99016
860.13975	1.00270
858.21118	1.01493
856.28262	1.02567
854.35405	1.03604
852.42549	1.04877
850.49692	1.06314
848.56836	1.07563
846.63979	1.08553
844.71123	1.09614
842.78267	1.10940
840.85410	1.12239
838.92554	1.13432
836.99697	1.14756
835.06841	1.15947
833.13984	1.16858
831.21128	1.17592
829.28271	1.17914
827.35415	1.18364
825.42559	1.19974
823.49702	1.22669
821.56846	1.25040
819.63989	1.25845
817.71133	1.25734
815.78276	1.26483
813.85420	1.28089
811.92563	1.28586
809.99707	1.28462
808.06851	1.30237
806.13994	1.33190
804.21138	1.33547
802.28281	1.31300
800.35425	1.30476
798.42568	1.32629
796.49712	1.35188
794.56855	1.36511
792.63999	1.37896
790.71143	1.36735
788.78286	1.32616
786.85430	1.29626
784.92573	1.26693
782.99717	1.24394
781.06860	1.26582
779.14004	1.29416
777.21147	1.28233
775.28291	1.27541
773.35435	1.28229
771.42578	1.29079
769.49722	1.30555
767.56865	1.30640
765.64009	1.28330
763.71152	1.25906
761.78296	1.24917
759.85439	1.24662
757.92583	1.26380
755.99727	1.27362
754.06870	1.19275
752.14014	1.10951
750.21157	1.10549
748.28301	1.15141
746.35444	1.15742
744.42588	1.08404
742.49731	1.04513
740.56875	1.06198
738.64019	1.08306
736.71162	1.21404
734.78306	1.43464
732.85449	1.02003
730.92593	0.74694
728.99736	0.73467
727.06880	0.90000
725.14023	0.87845
723.21167	0.55337
721.28311	0.34442
719.35454	0.32266
717.42598	0.39319
715.49741	0.40835
713.56885	0.35221
711.64028	0.24294
709.71172	0.18683
707.78315	0.21305
705.85459	0.15507
703.92603	0.10144
701.99746	0.06781
700.06890	-0.08004
698.14033	-0.10302
696.21177	0.21521
694.28320	0.33304
692.35464	0.22265
690.42607	0.08119
688.49751	0.08761
686.56895	0.19965
684.64038	0.23281
682.71182	0.19215
680.78325	0.21115
678.85469	0.25411
676.92612	0.23950
674.99756	0.18593
673.06899	0.15220
671.14043	0.23865
669.21187	0.32203
667.28330	0.18530
665.35474	-0.04025
663.42617	-0.20128
661.49761	-0.17448
659.56904	-0.06248
657.64048	0.06491
655.71191	0.06510
653.78335	0.01279
651.85479	-0.04652
649.92622	-0.14757
647.99766	-0.11576
646.06909	-0.04371
644.14053	-0.00625
642.21196	0.04852
640.28340	0.13475
638.35483	0.18413
636.42627	0.22447
634.49771	0.26800
632.56914	0.22046
630.64058	0.14123
628.71201	0.07301
626.78345	0.04717
624.85488	0.12805
622.92632	0.39392
620.99775	3.72599
619.06919	3.71442
617.14062	0.23452
615.21206	0.10144
613.28350	0.07193
611.35493	0.09273
609.42637	0.15435
607.49780	0.24201
605.56924	0.28274
603.64067	0.20116
601.71211	0.11987
599.78354	0.09627
597.85498	0.15544
595.92642	0.24084
593.99785	0.20204
592.06929	0.12126
590.14072	0.14171
588.21216	0.20072
586.28359	0.21116
584.35503	0.20895
582.42646	0.34174
580.49790	1.00179
578.56934	0.96193
576.64077	0.51144
574.71221	0.32832
572.78364	0.21927
570.85508	0.17438
568.92651	0.16093
566.99795	0.14942
565.06938	0.13605
563.14082	0.16597
561.21226	0.21069
559.28369	0.16713
557.35513	0.08953
555.42656	0.08189
553.49800	0.13535
551.56943	0.16285
549.64087	0.08990
547.71230	0.00877
545.78374	0.01607
543.85518	0.05661
541.92661	0.13878
539.99805	0.25618
538.06948	0.27907
536.14092	0.19318
534.21235	0.11002
532.28379	0.04650
530.35522	0.03127
528.42666	0.06175
526.49810	0.10213
524.56953	0.10972
522.64097	0.10079
520.71240	0.10021
518.78384	0.10581
516.85527	0.12404
514.92671	0.13570
512.99814	0.12786
511.06958	0.11712
509.14102	0.11296
507.21245	0.10962
505.28389	0.10261
503.35532	0.11516
501.42676	0.13242
499.49819	0.11998
