3997.91411	0.06193
3995.98555	0.06193
3994.05698	0.06218
3992.12842	0.06285
3990.19985	0.06348
3988.27129	0.06376
3986.34272	0.06399
3984.41416	0.06447
3982.48560	0.06487
3980.55703	0.06462
3978.62847	0.06407
3976.69990	0.06406
3974.77134	0.06465
3972.84277	0.06519
3970.91421	0.06521
3968.98564	0.06497
3967.05708	0.06500
3965.12852	0.06545
3963.19995	0.06615
3961.27139	0.06673
3959.34282	0.06698
3957.41426	0.06700
3955.48569	0.06689
3953.55713	0.06667
3951.62856	0.06653
3949.70000	0.06657
3947.77144	0.06670
3945.84287	0.06673
3943.91431	0.06682
3941.98574	0.06733
3940.05718	0.06780
3938.12861	0.06788
3936.20005	0.06772
3934.27148	0.06734
3932.34292	0.06675
3930.41436	0.06619
3928.48579	0.06601
3926.55723	0.06618
3924.62866	0.06646
3922.70010	0.06665
3920.77153	0.06667
3918.84297	0.06648
3916.91440	0.06624
3914.98584	0.06618
3913.05728	0.06631
3911.12871	0.06627
3909.20015	0.06584
3907.27158	0.06532
3905.34302	0.06518
3903.41445	0.06569
3901.48589	0.06622
3899.55732	0.06638
3897.62876	0.06648
3895.70020	0.06619
3893.77163	0.06573
3891.84307	0.06560
3889.91450	0.06555
3887.98594	0.06532
3886.05737	0.06557
3884.12881	0.06637
3882.20024	0.06677
3880.27168	0.06688
3878.34312	0.06674
3876.41455	0.06625
3874.48599	0.06635
3872.55742	0.06720
3870.62886	0.06787
3868.70029	0.06799
3866.77173	0.06765
3864.84316	0.06778
3862.91460	0.06873
3860.98604	0.06929
3859.05747	0.06924
3857.12891	0.06932
3855.20034	0.06987
3853.27178	0.07138
3851.34321	0.07289
3849.41465	0.07235
3847.48608	0.07149
3845.55752	0.07154
3843.62896	0.07258
3841.70039	0.07388
3839.77183	0.07472
3837.84326	0.07561
3835.91470	0.07646
3833.98613	0.07659
3832.05757	0.07658
3830.12900	0.07708
3828.20044	0.07777
3826.27187	0.07853
3824.34331	0.07947
3822.41475	0.08054
3820.48618	0.08194
3818.55762	0.08290
3816.62905	0.08333
3814.70049	0.08377
3812.77192	0.08390
3810.84336	0.08420
3808.91479	0.08517
3806.98623	0.08666
3805.05767	0.08787
3803.12910	0.08865
3801.20054	0.09000
3799.27197	0.09171
3797.34341	0.09274
3795.41484	0.09375
3793.48628	0.09495
3791.55771	0.09595
3789.62915	0.09698
3787.70059	0.09843
3785.77202	0.10032
3783.84346	0.10209
3781.91489	0.10339
3779.98633	0.10489
3778.05776	0.10673
3776.12920	0.10785
3774.20063	0.10856
3772.27207	0.10977
3770.34351	0.11187
3768.41494	0.11441
3766.48638	0.11618
3764.55781	0.11771
3762.62925	0.11969
3760.70068	0.12185
3758.77212	0.12405
3756.84355	0.12613
3754.91499	0.12844
3752.98643	0.13156
3751.05786	0.13573
3749.12930	0.13981
3747.20073	0.14189
3745.27217	0.14377
3743.34360	0.14720
3741.41504	0.15025
3739.48647	0.15199
3737.55791	0.15401
3735.62935	0.15769
3733.70078	0.16315
3731.77222	0.16808
3729.84365	0.17155
3727.91509	0.17474
3725.98652	0.17929
3724.05796	0.18559
3722.12939	0.19281
3720.20083	0.20062
3718.27227	0.20873
3716.34370	0.21698
3714.41514	0.22496
3712.48657	0.23378
3710.55801	0.24589
3708.62944	0.25905
3706.70088	0.27017
3704.77231	0.28112
3702.84375	0.29385
3700.91519	0.31034
3698.98662	0.32884
3697.05806	0.34641
3695.12949	0.36489
3693.20093	0.38471
3691.27236	0.40633
3689.34380	0.43408
3687.41523	0.46779
3685.48667	0.49749
3683.55811	0.52350
3681.62954	0.55136
3679.70098	0.58255
3677.77241	0.61523
3675.84385	0.65355
3673.91528	0.70599
3671.98672	0.75023
3670.05815	0.78872
3668.12959	0.84050
3666.20103	0.88844
3664.27246	0.92846
3662.34390	0.97087
3660.41533	1.01696
3658.48677	1.06292
3656.55820	1.11159
3654.62964	1.16585
3652.70107	1.21233
3650.77251	1.25267
3648.84395	1.30683
3646.91538	1.37359
3644.98682	1.42391
3643.05825	1.46315
3641.12969	1.50289
3639.20112	1.54559
3637.27256	1.58795
3635.34399	1.62969
3633.41543	1.67265
3631.48687	1.71383
3629.55830	1.75504
3627.62974	1.80749
3625.70117	1.85659
3623.77261	1.89045
3621.84404	1.92353
3619.91548	1.96147
3617.98691	2.00650
3616.05835	2.04974
3614.12979	2.08676
3612.20122	2.12686
3610.27266	2.16729
3608.34409	2.20641
3606.41553	2.24735
3604.48696	2.28658
3602.55840	2.32239
3600.62983	2.36031
3598.70127	2.40124
3596.77271	2.44118
3594.84414	2.48086
3592.91558	2.52129
3590.98701	2.55959
3589.05845	2.59614
3587.12988	2.64030
3585.20132	2.68816
3583.27275	2.72818
3581.34419	2.76655
3579.41562	2.80877
3577.48706	2.85318
3575.55850	2.89730
3573.62993	2.94034
3571.70137	2.98074
3569.77280	3.01995
3567.84424	3.06224
3565.91567	3.11259
3563.98711	3.15978
3562.05854	3.19919
3560.12998	3.24262
3558.20142	3.29041
3556.27285	3.33632
3554.34429	3.37951
3552.41572	3.42428
3550.48716	3.47109
3548.55859	3.51787
3546.63003	3.56493
3544.70146	3.61507
3542.77290	3.66570
3540.84434	3.71210
3538.91577	3.75632
3536.98721	3.80118
3535.05864	3.84888
3533.13008	3.89638
3531.20151	3.94094
3529.27295	3.98623
3527.34438	4.03658
3525.41582	4.08766
3523.48726	4.13442
3521.55869	4.18076
3519.63013	4.22829
3517.70156	4.27547
3515.77300	4.32326
3513.84443	4.37278
3511.91587	4.42159
3509.98730	4.47070
3508.05874	4.52177
3506.13018	4.57126
3504.20161	4.61783
3502.27305	4.66289
3500.34448	4.70862
3498.41592	4.75647
3496.48735	4.80432
3494.55879	4.85080
3492.63022	4.89918
3490.70166	4.94984
3488.77310	4.99960
3486.84453	5.04762
3484.91597	5.09425
3482.98740	5.13974
3481.05884	5.18765
3479.13027	5.23904
3477.20171	5.28901
3475.27314	5.33558
3473.34458	5.38349
3471.41602	5.43538
3469.48745	5.48659
3467.55889	5.53350
3465.63032	5.57857
3463.70176	5.62387
3461.77319	5.66251
3459.84463	5.70098
3457.91606	5.75343
3455.98750	5.81724
3454.05894	5.88106
3452.13037	5.93008
3450.20181	5.96303
3448.27324	6.00387
3446.34468	6.06525
3444.41611	6.12693
3442.48755	6.18245
3440.55898	6.22900
3438.63042	6.25922
3436.70186	6.28549
3434.77329	6.32525
3432.84473	6.38043
3430.91616	6.42820
3428.98760	6.46262
3427.05903	6.51067
3425.13047	6.58174
3423.20190	6.63885
3421.27334	6.68330
3419.34478	6.74443
3417.41621	6.81060
3415.48765	6.87102
3413.55908	6.90417
3411.63052	6.89666
3409.70195	6.89748
3407.77339	6.95621
3405.84482	7.03878
3403.91626	7.09924
3401.98770	7.13784
3400.05913	7.17044
3398.13057	7.22140
3396.20200	7.30722
3394.27344	7.37402
3392.34487	7.36792
3390.41631	7.36303
3388.48774	7.39373
3386.55918	7.44905
3384.63062	7.48795
3382.70205	7.47348
3380.77349	7.47838
3378.84492	7.55226
3376.91636	7.64900
3374.98779	7.67652
3373.05923	7.66742
3371.13066	7.70394
3369.20210	7.76513
3367.27354	7.79568
3365.34497	7.80957
3363.41641	7.81707
3361.48784	7.78595
3359.55928	7.72318
3357.63071	7.69837
3355.70215	7.77612
3353.77358	7.87231
3351.84502	7.94854
3349.91646	8.04310
3347.98789	8.07539
3346.05933	8.03657
3344.13076	8.02834
3342.20220	8.05994
3340.27363	8.06797
3338.34507	8.05761
3336.41650	8.01436
3334.48794	7.98344
3332.55937	8.03461
3330.63081	8.07608
3328.70225	8.01969
3326.77368	7.95689
3324.84512	7.95657
3322.91655	7.95977
3320.98799	7.93523
3319.05942	7.93836
3317.13086	8.03597
3315.20229	8.17068
3313.27373	8.22219
3311.34517	8.19274
3309.41660	8.15239
3307.48804	8.07252
3305.55947	7.96279
3303.63091	7.96614
3301.70234	8.06695
3299.77378	8.13354
3297.84521	8.10743
3295.91665	8.03088
3293.98809	8.01615
3292.05952	8.09857
3290.13096	8.16772
3288.20239	8.10139
3286.27383	7.98521
3284.34526	7.95850
3282.41670	8.02781
3280.48813	8.12111
3278.55957	8.18681
3276.63101	8.19385
3274.70244	8.15884
3272.77388	8.12123
3270.84531	8.10278
3268.91675	8.14561
3266.98818	8.24140
3265.05962	8.28262
3263.13105	8.22854
3261.20249	8.18712
3259.27393	8.19583
3257.34536	8.19347
3255.41680	8.10437
3253.48823	7.99899
3251.55967	8.01545
3249.63110	8.10853
3247.70254	8.18870
3245.77397	8.26864
3243.84541	8.32145
3241.91685	8.27888
3239.98828	8.17483
3238.05972	8.10204
3236.13115	8.14079
3234.20259	8.26705
3232.27402	8.31568
3230.34546	8.18354
3228.41689	7.97893
3226.48833	7.88206
3224.55977	7.89700
3222.63120	7.91493
3220.70264	7.92375
3218.77407	7.94439
3216.84551	7.99800
3214.91694	8.04387
3212.98838	7.96939
3211.05981	7.89693
3209.13125	7.94920
3207.20269	7.96206
3205.27412	7.85007
3203.34556	7.76045
3201.41699	7.70399
3199.48843	7.64777
3197.55986	7.67556
3195.63130	7.75921
3193.70273	7.76109
3191.77417	7.67329
3189.84561	7.56996
3187.91704	7.49001
3185.98848	7.44865
3184.05991	7.41571
3182.13135	7.32335
3180.20278	7.22678
3178.27422	7.20099
3176.34565	7.18752
3174.41709	7.12773
3172.48853	7.05530
3170.55996	7.02422
3168.63140	7.01299
3166.70283	6.93371
3164.77427	6.81205
3162.84570	6.73553
3160.91714	6.68995
3158.98857	6.63950
3157.06001	6.58845
3155.13145	6.53565
3153.20288	6.46201
3151.27432	6.37267
3149.34575	6.30365
3147.41719	6.25090
3145.48862	6.18159
3143.56006	6.10859
3141.63149	6.05918
3139.70293	6.01393
3137.77437	5.94539
3135.84580	5.85987
3133.91724	5.77849
3131.98867	5.70750
3130.06011	5.64234
3128.13154	5.58431
3126.20298	5.52490
3124.27441	5.45306
3122.34585	5.37341
3120.41729	5.29721
3118.48872	5.22473
3116.56016	5.15054
3114.63159	5.07983
3112.70303	5.01323
3110.77446	4.94282
3108.84590	4.86916
3106.91733	4.79898
3104.98877	4.73241
3103.06021	4.66679
3101.13164	4.60087
3099.20308	4.53202
3097.27451	4.46273
3095.34595	4.39668
3093.41738	4.33209
3091.48882	4.26581
3089.56025	4.19848
3087.63169	4.13481
3085.70312	4.07413
3083.77456	4.01373
3081.84600	3.95454
3079.91743	3.89505
3077.98887	3.83435
3076.06030	3.77226
3074.13174	3.70874
3072.20317	3.64849
3070.27461	3.59310
3068.34604	3.53737
3066.41748	3.47908
3064.48892	3.42106
3062.56035	3.36539
3060.63179	3.31211
3058.70322	3.25902
3056.77466	3.20459
3054.84609	3.15054
3052.91753	3.09848
3050.98896	3.04736
3049.06040	2.99564
3047.13184	2.94330
3045.20327	2.89132
3043.27471	2.84072
3041.34614	2.79222
3039.41758	2.74580
3037.48901	2.70037
3035.56045	2.65470
3033.63188	2.60873
3031.70332	2.56297
3029.77476	2.51802
3027.84619	2.47451
3025.91763	2.43210
3023.98906	2.38999
3022.06050	2.34820
3020.13193	2.30697
3018.20337	2.26642
3016.27480	2.22662
3014.34624	2.18724
3012.41768	2.14850
3010.48911	2.11076
3008.56055	2.07341
3006.63198	2.03627
3004.70342	1.99957
3002.77485	1.96341
3000.84629	1.92854
2998.91772	1.89475
2996.98916	1.86136
2995.06060	1.82913
2993.13203	1.79778
2991.20347	1.76618
2989.27490	1.73505
2987.34634	1.70545
2985.41777	1.67701
2983.48921	1.64876
2981.56064	1.62043
2979.63208	1.59248
2977.70352	1.56485
2975.77495	1.53747
2973.84639	1.51112
2971.91782	1.48576
2969.98926	1.46082
2968.06069	1.43652
2966.13213	1.41244
2964.20356	1.38797
2962.27500	1.36389
2960.34644	1.34041
2958.41787	1.31668
2956.48931	1.29264
2954.56074	1.26886
2952.63218	1.24528
2950.70361	1.22217
2948.77505	1.20029
2946.84648	1.17934
2944.91792	1.15854
2942.98936	1.13793
2941.06079	1.11810
2939.13223	1.09860
2937.20366	1.07861
2935.27510	1.05872
2933.34653	1.03968
2931.41797	1.02136
2929.48940	1.00322
2927.56084	0.98467
2925.63228	0.96607
2923.70371	0.94845
2921.77515	0.93153
2919.84658	0.91467
2917.91802	0.89791
2915.98945	0.88120
2914.06089	0.86458
2912.13232	0.84842
2910.20376	0.83305
2908.27520	0.81813
2906.34663	0.80336
2904.41807	0.78920
2902.48950	0.77554
2900.56094	0.76200
2898.63237	0.74903
2896.70381	0.73663
2894.77524	0.72409
2892.84668	0.71159
2890.91812	0.69979
2888.98955	0.68855
2887.06099	0.67739
2885.13242	0.66623
2883.20386	0.65539
2881.27529	0.64499
2879.34673	0.63483
2877.41816	0.62491
2875.48960	0.61536
2873.56104	0.60602
2871.63247	0.59636
2869.70391	0.58612
2867.77534	0.57539
2865.84678	0.56440
2863.91821	0.55357
2861.98965	0.54309
2860.06108	0.53293
2858.13252	0.52303
2856.20396	0.51358
2854.27539	0.50469
2852.34683	0.49606
2850.41826	0.48773
2848.48970	0.47964
2846.56113	0.47150
2844.63257	0.46371
2842.70400	0.45668
2840.77544	0.45022
2838.84687	0.44399
2836.91831	0.43778
2834.98975	0.43157
2833.06118	0.42559
2831.13262	0.41987
2829.20405	0.41403
2827.27549	0.40800
2825.34692	0.40190
2823.41836	0.39588
2821.48979	0.38999
2819.56123	0.38413
2817.63267	0.37845
2815.70410	0.37312
2813.77554	0.36786
2811.84697	0.36247
2809.91841	0.35704
2807.98984	0.35169
2806.06128	0.34661
2804.13271	0.34173
2802.20415	0.33677
2800.27559	0.33177
2798.34702	0.32692
2796.41846	0.32223
2794.48989	0.31765
2792.56133	0.31316
2790.63276	0.30877
2788.70420	0.30451
2786.77563	0.30043
2784.84707	0.29638
2782.91851	0.29233
2780.98994	0.28829
2779.06138	0.28434
2777.13281	0.28072
2775.20425	0.27726
2773.27568	0.27359
2771.34712	0.26976
2769.41855	0.26615
2767.48999	0.26290
2765.56143	0.25969
2763.63286	0.25635
2761.70430	0.25299
2759.77573	0.24980
2757.84717	0.24676
2755.91860	0.24362
2753.99004	0.24048
2752.06147	0.23764
2750.13291	0.23488
2748.20435	0.23212
2746.27578	0.22956
2744.34722	0.22709
2742.41865	0.22437
2740.49009	0.22152
2738.56152	0.21889
2736.63296	0.21658
2734.70439	0.21448
2732.77583	0.21237
2730.84727	0.21012
2728.91870	0.20776
2726.99014	0.20548
2725.06157	0.20327
2723.13301	0.20107
2721.20444	0.19892
2719.27588	0.19696
2717.34731	0.19513
2715.41875	0.19325
2713.49019	0.19149
2711.56162	0.18995
2709.63306	0.18836
2707.70449	0.18664
2705.77593	0.18498
2703.84736	0.18333
2701.91880	0.18166
2699.99023	0.18022
2698.06167	0.17899
2696.13311	0.17757
2694.20454	0.17605
2692.27598	0.17481
2690.34741	0.17377
2688.41885	0.17255
2686.49028	0.17107
2684.56172	0.16965
2682.63315	0.16851
2680.70459	0.16761
2678.77603	0.16668
2676.84746	0.16556
2674.91890	0.16446
2672.99033	0.16347
2671.06177	0.16249
2669.13320	0.16143
2667.20464	0.16031
2665.27607	0.15917
2663.34751	0.15810
2661.41895	0.15723
2659.49038	0.15661
2657.56182	0.15608
2655.63325	0.15538
2653.70469	0.15465
2651.77612	0.15419
2649.84756	0.15379
2647.91899	0.15318
2645.99043	0.15249
2644.06187	0.15187
2642.13330	0.15128
2640.20474	0.15076
2638.27617	0.15019
2636.34761	0.14953
2634.41904	0.14895
2632.49048	0.14857
2630.56191	0.14833
2628.63335	0.14807
2626.70479	0.14768
2624.77622	0.14718
2622.84766	0.14682
2620.91909	0.14675
2618.99053	0.14681
2617.06196	0.14677
2615.13340	0.14659
2613.20483	0.14632
2611.27627	0.14612
2609.34771	0.14615
2607.41914	0.14614
2605.49058	0.14589
2603.56201	0.14569
2601.63345	0.14577
2599.70488	0.14591
2597.77632	0.14594
2595.84775	0.14598
2593.91919	0.14610
2591.99062	0.14629
2590.06206	0.14646
2588.13350	0.14649
2586.20493	0.14649
2584.27637	0.14664
2582.34780	0.14692
2580.41924	0.14727
2578.49067	0.14763
2576.56211	0.14797
2574.63354	0.14842
2572.70498	0.14889
2570.77642	0.14913
2568.84785	0.14919
2566.91929	0.14937
2564.99072	0.14993
2563.06216	0.15074
2561.13359	0.15136
2559.20503	0.15172
2557.27646	0.15211
2555.34790	0.15261
2553.41934	0.15305
2551.49077	0.15345
2549.56221	0.15393
2547.63364	0.15454
2545.70508	0.15514
2543.77651	0.15560
2541.84795	0.15598
2539.91938	0.15654
2537.99082	0.15730
2536.06226	0.15801
2534.13369	0.15868
2532.20513	0.15935
2530.27656	0.15998
2528.34800	0.16065
2526.41943	0.16134
2524.49087	0.16209
2522.56230	0.16299
2520.63374	0.16391
2518.70518	0.16472
2516.77661	0.16535
2514.84805	0.16585
2512.91948	0.16653
2510.99092	0.16738
2509.06235	0.16818
2507.13379	0.16904
2505.20522	0.17005
2503.27666	0.17105
2501.34810	0.17197
2499.41953	0.17277
2497.49097	0.17343
2495.56240	0.17414
2493.63384	0.17491
2491.70527	0.17568
2489.77671	0.17648
2487.84814	0.17731
2485.91958	0.17818
2483.99102	0.17914
2482.06245	0.18010
2480.13389	0.18100
2478.20532	0.18188
2476.27676	0.18273
2474.34819	0.18356
2472.41963	0.18445
2470.49106	0.18541
2468.56250	0.18642
2466.63394	0.18744
2464.70537	0.18843
2462.77681	0.18934
2460.84824	0.19024
2458.91968	0.19119
2456.99111	0.19214
2455.06255	0.19303
2453.13398	0.19401
2451.20542	0.19516
2449.27686	0.19620
2447.34829	0.19717
2445.41973	0.19809
2443.49116	0.19882
2441.56260	0.19956
2439.63403	0.20053
2437.70547	0.20166
2435.77690	0.20279
2433.84834	0.20383
2431.91978	0.20480
2429.99121	0.20583
2428.06265	0.20698
2426.13408	0.20812
2424.20552	0.20918
2422.27695	0.21021
2420.34839	0.21120
2418.41982	0.21223
2416.49126	0.21342
2414.56270	0.21464
2412.63413	0.21580
2410.70557	0.21694
2408.77700	0.21812
2406.84844	0.21932
2404.91987	0.22055
2402.99131	0.22172
2401.06274	0.22282
2399.13418	0.22398
2397.20562	0.22515
2395.27705	0.22634
2393.34849	0.22771
2391.41992	0.22907
2389.49136	0.23013
2387.56279	0.23096
2385.63423	0.23157
2383.70566	0.23181
2381.77710	0.23168
2379.84854	0.23119
2377.91997	0.23015
2375.99141	0.22846
2374.06284	0.22628
2372.13428	0.22355
2370.20571	0.21979
2368.27715	0.21548
2366.34858	0.21170
2364.42002	0.20832
2362.49146	0.20617
2360.56289	0.20625
2358.63433	0.20811
2356.70576	0.21280
2354.77720	0.22053
2352.84863	0.22912
2350.92007	0.23658
2348.99150	0.24107
2347.06294	0.24195
2345.13437	0.23959
2343.20581	0.23612
2341.27725	0.23510
2339.34868	0.23654
2337.42012	0.23888
2335.49155	0.24206
2333.56299	0.24546
2331.63442	0.24812
2329.70586	0.25076
2327.77729	0.25408
2325.84873	0.25716
2323.92017	0.26022
2321.99160	0.26404
2320.06304	0.26825
2318.13447	0.27216
2316.20591	0.27515
2314.27734	0.27762
2312.34878	0.28029
2310.42021	0.28305
2308.49165	0.28594
2306.56309	0.28928
2304.63452	0.29250
2302.70596	0.29502
2300.77739	0.29731
2298.84883	0.29985
2296.92026	0.30233
2294.99170	0.30457
2293.06313	0.30681
2291.13457	0.30907
2289.20601	0.31137
2287.27744	0.31372
2285.34888	0.31610
2283.42031	0.31838
2281.49175	0.32037
2279.56318	0.32219
2277.63462	0.32409
2275.70605	0.32606
2273.77749	0.32799
2271.84893	0.33000
2269.92036	0.33214
2267.99180	0.33428
2266.06323	0.33636
2264.13467	0.33849
2262.20610	0.34067
2260.27754	0.34278
2258.34897	0.34494
2256.42041	0.34724
2254.49185	0.34954
2252.56328	0.35181
2250.63472	0.35409
2248.70615	0.35643
2246.77759	0.35887
2244.84902	0.36127
2242.92046	0.36337
2240.99189	0.36536
2239.06333	0.36755
2237.13477	0.36977
2235.20620	0.37193
2233.27764	0.37418
2231.34907	0.37654
2229.42051	0.37892
2227.49194	0.38118
2225.56338	0.38331
2223.63481	0.38548
2221.70625	0.38772
2219.77769	0.38993
2217.84912	0.39207
2215.92056	0.39418
2213.99199	0.39632
2212.06343	0.39843
2210.13486	0.40051
2208.20630	0.40262
2206.27773	0.40475
2204.34917	0.40691
2202.42061	0.40908
2200.49204	0.41112
2198.56348	0.41304
2196.63491	0.41500
2194.70635	0.41703
2192.77778	0.41905
2190.84922	0.42105
2188.92065	0.42291
2186.99209	0.42456
2185.06353	0.42620
2183.13496	0.42794
2181.20640	0.42965
2179.27783	0.43128
2177.34927	0.43287
2175.42070	0.43439
2173.49214	0.43589
2171.56357	0.43733
2169.63501	0.43868
2167.70645	0.43999
2165.77788	0.44128
2163.84932	0.44245
2161.92075	0.44348
2159.99219	0.44455
2158.06362	0.44561
2156.13506	0.44652
2154.20649	0.44745
2152.27793	0.44842
2150.34937	0.44916
2148.42080	0.44978
2146.49224	0.45045
2144.56367	0.45096
2142.63511	0.45130
2140.70654	0.45173
2138.77798	0.45212
2136.84941	0.45229
2134.92085	0.45229
2132.99229	0.45219
2131.06372	0.45208
2129.13516	0.45187
2127.20659	0.45147
2125.27803	0.45104
2123.34946	0.45069
2121.42090	0.45027
2119.49233	0.44963
2117.56377	0.44895
2115.63521	0.44832
2113.70664	0.44765
2111.77808	0.44681
2109.84951	0.44582
2107.92095	0.44486
2105.99238	0.44382
2104.06382	0.44256
2102.13525	0.44116
2100.20669	0.43980
2098.27812	0.43837
2096.34956	0.43681
2094.42100	0.43523
2092.49243	0.43367
2090.56387	0.43206
2088.63530	0.43035
2086.70674	0.42862
2084.77817	0.42688
2082.84961	0.42510
2080.92104	0.42310
2078.99248	0.42095
2077.06392	0.41888
2075.13535	0.41679
2073.20679	0.41455
2071.27822	0.41233
2069.34966	0.41018
2067.42109	0.40795
2065.49253	0.40558
2063.56396	0.40313
2061.63540	0.40068
2059.70684	0.39823
2057.77827	0.39569
2055.84971	0.39309
2053.92114	0.39054
2051.99258	0.38807
2050.06401	0.38555
2048.13545	0.38297
2046.20688	0.38033
2044.27832	0.37770
2042.34976	0.37509
2040.42119	0.37236
2038.49263	0.36947
2036.56406	0.36660
2034.63550	0.36389
2032.70693	0.36117
2030.77837	0.35834
2028.84980	0.35546
2026.92124	0.35265
2024.99268	0.34998
2023.06411	0.34732
2021.13555	0.34454
2019.20698	0.34183
2017.27842	0.33920
2015.34985	0.33648
2013.42129	0.33378
2011.49272	0.33109
2009.56416	0.32832
2007.63560	0.32551
2005.70703	0.32273
2003.77847	0.32008
2001.84990	0.31758
1999.92134	0.31506
1997.99277	0.31241
1996.06421	0.30975
1994.13564	0.30725
1992.20708	0.30482
1990.27852	0.30235
1988.34995	0.29991
1986.42139	0.29748
1984.49282	0.29506
1982.56426	0.29269
1980.63569	0.29034
1978.70713	0.28804
1976.77856	0.28586
1974.85000	0.28377
1972.92144	0.28159
1970.99287	0.27930
1969.06431	0.27715
1967.13574	0.27518
1965.20718	0.27321
1963.27861	0.27123
1961.35005	0.26932
1959.42148	0.26747
1957.49292	0.26565
1955.56436	0.26387
1953.63579	0.26214
1951.70723	0.26050
1949.77866	0.25894
1947.85010	0.25737
1945.92153	0.25589
1943.99297	0.25450
1942.06440	0.25301
1940.13584	0.25140
1938.20728	0.24993
1936.27871	0.24862
1934.35015	0.24733
1932.42158	0.24607
1930.49302	0.24487
1928.56445	0.24371
1926.63589	0.24258
1924.70732	0.24165
1922.77876	0.24088
1920.85020	0.24001
1918.92163	0.23914
1916.99307	0.23826
1915.06450	0.23721
1913.13594	0.23626
1911.20737	0.23560
1909.27881	0.23500
1907.35024	0.23436
1905.42168	0.23371
1903.49312	0.23315
1901.56455	0.23266
1899.63599	0.23218
1897.70742	0.23181
1895.77886	0.23149
1893.85029	0.23105
1891.92173	0.23053
1889.99316	0.23021
1888.06460	0.23001
1886.13604	0.22976
1884.20747	0.22949
1882.27891	0.22932
1880.35034	0.22926
1878.42178	0.22923
1876.49321	0.22922
1874.56465	0.22919
1872.63608	0.22924
1870.70752	0.22944
1868.77896	0.22992
1866.85039	0.23031
1864.92183	0.23034
1862.99326	0.23035
1861.06470	0.23054
1859.13613	0.23086
1857.20757	0.23119
1855.27900	0.23168
1853.35044	0.23217
1851.42187	0.23267
1849.49331	0.23323
1847.56475	0.23391
1845.63618	0.23476
1843.70762	0.23576
1841.77905	0.23657
1839.85049	0.23710
1837.92192	0.23793
1835.99336	0.23896
1834.06479	0.23990
1832.13623	0.24086
1830.20767	0.24231
1828.27910	0.24392
1826.35054	0.24501
1824.42197	0.24610
1822.49341	0.24717
1820.56484	0.24829
1818.63628	0.24960
1816.70771	0.25124
1814.77915	0.25301
1812.85059	0.25488
1810.92202	0.25691
1808.99346	0.25892
1807.06489	0.26089
1805.13633	0.26286
1803.20776	0.26504
1801.27920	0.26746
1799.35063	0.27027
1797.42207	0.27291
1795.49351	0.27535
1793.56494	0.27806
1791.63638	0.28164
1789.70781	0.28520
1787.77925	0.28787
1785.85068	0.29087
1783.92212	0.29442
1781.99355	0.29840
1780.06499	0.30271
1778.13643	0.30706
1776.20786	0.31107
1774.27930	0.31533
1772.35073	0.32104
1770.42217	0.32722
1768.49360	0.33249
1766.56504	0.33764
1764.63647	0.34301
1762.70791	0.34890
1760.77935	0.35630
1758.85078	0.36331
1756.92222	0.37054
1754.99365	0.37854
1753.06509	0.38562
1751.13652	0.39374
1749.20796	0.40413
1747.27939	0.41470
1745.35083	0.42404
1743.42227	0.43376
1741.49370	0.44429
1739.56514	0.45662
1737.63657	0.46905
1735.70801	0.47993
1733.77944	0.49635
1731.85088	0.51622
1729.92231	0.53182
1727.99375	0.54738
1726.06519	0.56420
1724.13662	0.58278
1722.20806	0.60283
1720.27949	0.62100
1718.35093	0.64193
1716.42236	0.67353
1714.49380	0.70446
1712.56523	0.72959
1710.63667	0.75366
1708.70811	0.77929
1706.77954	0.80829
1704.85098	0.84312
1702.92241	0.87424
1700.99385	0.90475
1699.06528	0.95072
1697.13672	0.99382
1695.20815	1.03807
1693.27959	1.08096
1691.35103	1.11558
1689.42246	1.15532
1687.49390	1.19693
1685.56533	1.23695
1683.63677	1.29969
1681.70820	1.36545
1679.77964	1.40699
1677.85107	1.44594
1675.92251	1.49102
1673.99395	1.54757
1672.06538	1.59832
1670.13682	1.64809
1668.20825	1.71302
1666.27969	1.76570
1664.35112	1.80941
1662.42256	1.86377
1660.49399	1.92545
1658.56543	1.97411
1656.63687	2.01328
1654.70830	2.04822
1652.77974	2.10145
1650.85117	2.15316
1648.92261	2.17326
1646.99404	2.19841
1645.06548	2.22668
1643.13691	2.24633
1641.20835	2.25920
1639.27979	2.27029
1637.35122	2.27514
1635.42266	2.27406
1633.49409	2.26870
1631.56553	2.25648
1629.63696	2.23981
1627.70840	2.21070
1625.77983	2.17540
1623.85127	2.13360
1621.92271	2.08497
1619.99414	2.04095
1618.06558	1.99608
1616.13701	1.93312
1614.20845	1.87143
1612.27988	1.82486
1610.35132	1.77498
1608.42275	1.72006
1606.49419	1.66594
1604.56562	1.61608
1602.63706	1.56804
1600.70850	1.52185
1598.77993	1.47932
1596.85137	1.43840
1594.92280	1.39812
1592.99424	1.35923
1591.06567	1.32366
1589.13711	1.29043
1587.20854	1.25947
1585.27998	1.23079
1583.35142	1.20401
1581.42285	1.17939
1579.49429	1.15816
1577.56572	1.13909
1575.63716	1.11605
1573.70859	1.09594
1571.78003	1.08289
1569.85146	1.06927
1567.92290	1.05444
1565.99434	1.04356
1564.06577	1.03523
1562.13721	1.02875
1560.20864	1.02424
1558.28008	1.01910
1556.35151	1.01558
1554.42295	1.01343
1552.49438	1.01088
1550.56582	1.00716
1548.63726	1.00182
1546.70869	0.99538
1544.78013	0.98674
1542.85156	0.97492
1540.92300	0.95875
1538.99443	0.93598
1537.06587	0.92001
1535.13730	0.90897
1533.20874	0.89370
1531.28018	0.87701
1529.35161	0.86480
1527.42305	0.85336
1525.49448	0.84159
1523.56592	0.83161
1521.63735	0.82200
1519.70879	0.81190
1517.78022	0.80318
1515.85166	0.79354
1513.92310	0.78385
1511.99453	0.77568
1510.06597	0.76841
1508.13740	0.76130
1506.20884	0.74950
1504.28027	0.73885
1502.35171	0.73307
1500.42314	0.72821
1498.49458	0.72305
1496.56602	0.71693
1494.63745	0.71097
1492.70889	0.70653
1490.78032	0.70255
1488.85176	0.69768
1486.92319	0.69323
1484.99463	0.69008
1483.06606	0.68757
1481.13750	0.68518
1479.20894	0.68309
1477.28037	0.68187
1475.35181	0.68145
1473.42324	0.68132
1471.49468	0.68034
1469.56611	0.67851
1467.63755	0.67655
1465.70898	0.67459
1463.78042	0.67275
1461.85186	0.67128
1459.92329	0.67036
1457.99473	0.66981
1456.06616	0.66832
1454.13760	0.66569
1452.20903	0.66314
1450.28047	0.66051
1448.35190	0.65773
1446.42334	0.65478
1444.49478	0.65210
1442.56621	0.64975
1440.63765	0.64738
1438.70908	0.64484
1436.78052	0.64162
1434.85195	0.63822
1432.92339	0.63584
1430.99482	0.63414
1429.06626	0.63260
1427.13770	0.63125
1425.20913	0.63044
1423.28057	0.63015
1421.35200	0.62987
1419.42344	0.62953
1417.49487	0.62884
1415.56631	0.62755
1413.63774	0.62643
1411.70918	0.62584
1409.78062	0.62585
1407.85205	0.62630
1405.92349	0.62693
1403.99492	0.62742
1402.06636	0.62730
1400.13779	0.62660
1398.20923	0.62531
1396.28066	0.62326
1394.35210	0.62040
1392.42354	0.61717
1390.49497	0.61419
1388.56641	0.61123
1386.63784	0.60778
1384.70928	0.60410
1382.78071	0.60064
1380.85215	0.59734
1378.92358	0.59448
1376.99502	0.59230
1375.06646	0.59077
1373.13789	0.58953
1371.20933	0.58834
1369.28076	0.58719
1367.35220	0.58603
1365.42363	0.58494
1363.49507	0.58385
1361.56650	0.58254
1359.63794	0.58115
1357.70937	0.57999
1355.78081	0.57900
1353.85225	0.57800
1351.92368	0.57696
1349.99512	0.57602
1348.06655	0.57524
1346.13799	0.57449
1344.20942	0.57370
1342.28086	0.57287
1340.35229	0.57198
1338.42373	0.57108
1336.49517	0.57034
1334.56660	0.56980
1332.63804	0.56947
1330.70947	0.56929
1328.78091	0.56915
1326.85234	0.56914
1324.92378	0.56925
1322.99521	0.56940
1321.06665	0.56964
1319.13809	0.56978
1317.20952	0.56958
1315.28096	0.56924
1313.35239	0.56889
1311.42383	0.56830
1309.49526	0.56757
1307.56670	0.56692
1305.63813	0.56638
1303.70957	0.56595
1301.78101	0.56543
1299.85244	0.56453
1297.92388	0.56341
1295.99531	0.56238
1294.06675	0.56144
1292.13818	0.56051
1290.20962	0.55954
1288.28105	0.55867
1286.35249	0.55789
1284.42393	0.55692
1282.49536	0.55580
1280.56680	0.55478
1278.63823	0.55381
1276.70967	0.55287
1274.78110	0.55207
1272.85254	0.55143
1270.92397	0.55082
1268.99541	0.55013
1267.06685	0.54938
1265.13828	0.54858
1263.20972	0.54788
1261.28115	0.54730
1259.35259	0.54670
1257.42402	0.54604
1255.49546	0.54553
1253.56689	0.54535
1251.63833	0.54543
1249.70977	0.54556
1247.78120	0.54550
1245.85264	0.54511
1243.92407	0.54447
1241.99551	0.54362
1240.06694	0.54247
1238.13838	0.54119
1236.20981	0.53985
1234.28125	0.53836
1232.35269	0.53685
1230.42412	0.53531
1228.49556	0.53362
1226.56699	0.53186
1224.63843	0.53030
1222.70986	0.52906
1220.78130	0.52795
1218.85273	0.52669
1216.92417	0.52540
1214.99561	0.52443
1213.06704	0.52370
1211.13848	0.52302
1209.20991	0.52236
1207.28135	0.52171
1205.35278	0.52111
1203.42422	0.52054
1201.49565	0.51989
1199.56709	0.51917
1197.63853	0.51844
1195.70996	0.51758
1193.78140	0.51676
1191.85283	0.51621
1189.92427	0.51583
1187.99570	0.51549
1186.06714	0.51532
1184.13857	0.51534
1182.21001	0.51563
1180.28145	0.51633
1178.35288	0.51734
1176.42432	0.51846
1174.49575	0.51958
1172.56719	0.52059
1170.63862	0.52129
1168.71006	0.52149
1166.78149	0.52142
1164.85293	0.52160
1162.92437	0.52210
1160.99580	0.52241
1159.06724	0.52238
1157.13867	0.52207
1155.21011	0.52152
1153.28154	0.52063
1151.35298	0.51909
1149.42441	0.51692
1147.49585	0.51455
1145.56729	0.51210
1143.63872	0.50946
1141.71016	0.50676
1139.78159	0.50441
1137.85303	0.50262
1135.92446	0.50125
1133.99590	0.50015
1132.06733	0.49940
1130.13877	0.49883
1128.21021	0.49812
1126.28164	0.49715
1124.35308	0.49601
1122.42451	0.49518
1120.49595	0.49501
1118.56738	0.49518
1116.63882	0.49541
1114.71025	0.49576
1112.78169	0.49634
1110.85312	0.49719
1108.92456	0.49824
1106.99600	0.49922
1105.06743	0.50003
1103.13887	0.50092
1101.21030	0.50223
1099.28174	0.50402
1097.35317	0.50622
1095.42461	0.50908
1093.49604	0.51279
1091.56748	0.51728
1089.63892	0.52269
1087.71035	0.52920
1085.78179	0.53657
1083.85322	0.54438
1081.92466	0.55185
1079.99609	0.55772
1078.06753	0.56085
1076.13896	0.56089
1074.21040	0.55832
1072.28184	0.55375
1070.35327	0.54754
1068.42471	0.54038
1066.49614	0.53329
1064.56758	0.52679
1062.63901	0.52107
1060.71045	0.51635
1058.78188	0.51226
1056.85332	0.50835
1054.92476	0.50489
1052.99619	0.50211
1051.06763	0.49964
1049.13906	0.49755
1047.21050	0.49611
1045.28193	0.49520
1043.35337	0.49466
1041.42480	0.49437
1039.49624	0.49418
1037.56768	0.49388
1035.63911	0.49323
1033.71055	0.49237
1031.78198	0.49162
1029.85342	0.49085
1027.92485	0.48990
1025.99629	0.48896
1024.06772	0.48833
1022.13916	0.48810
1020.21060	0.48819
1018.28203	0.48827
1016.35347	0.48835
1014.42490	0.48872
1012.49634	0.48924
1010.56777	0.48962
1008.63921	0.49005
1006.71064	0.49083
1004.78208	0.49205
1002.85352	0.49387
1000.92495	0.49645
998.99639	0.49980
997.06782	0.50375
995.13926	0.50796
993.21069	0.51198
991.28213	0.51517
989.35356	0.51714
987.42500	0.51803
985.49644	0.51828
983.56787	0.51850
981.63931	0.51908
979.71074	0.52004
977.78218	0.52156
975.85361	0.52370
973.92505	0.52616
971.99648	0.52896
970.06792	0.53241
968.13936	0.53634
966.21079	0.54045
964.28223	0.54478
962.35366	0.54941
960.42510	0.55434
958.49653	0.55949
956.56797	0.56495
954.63940	0.57089
952.71084	0.57698
950.78228	0.58293
948.85371	0.58903
946.92515	0.59536
944.99658	0.60177
943.06802	0.60805
941.13945	0.61409
939.21089	0.61996
937.28232	0.62562
935.35376	0.63096
933.42520	0.63628
931.49663	0.64180
929.56807	0.64778
927.63950	0.65406
925.71094	0.65971
923.78237	0.66539
921.85381	0.67227
919.92524	0.67985
917.99668	0.68746
916.06812	0.69520
914.13955	0.70308
912.21099	0.71065
910.28242	0.71821
908.35386	0.72639
906.42529	0.73497
904.49673	0.74315
902.56816	0.75096
900.63960	0.75966
898.71104	0.76968
896.78247	0.78045
894.85391	0.79095
892.92534	0.80054
890.99678	0.80988
889.06821	0.81997
887.13965	0.83083
885.21108	0.84188
883.28252	0.85278
881.35396	0.86436
879.42539	0.87667
877.49683	0.88775
875.56826	0.89851
873.63970	0.91099
871.71113	0.92293
869.78257	0.93280
867.85400	0.94313
865.92544	0.95518
863.99687	0.96762
862.06831	0.98072
860.13975	0.99464
858.21118	1.00689
856.28262	1.01674
854.35405	1.02641
852.42549	1.03587
850.49692	1.04560
848.56836	1.05778
846.63979	1.07133
844.71123	1.08367
842.78267	1.09439
840.85410	1.10592
838.92554	1.11956
836.99697	1.13469
835.06841	1.14797
833.13984	1.15547
831.21128	1.16206
829.28271	1.17252
827.35415	1.18054
825.42559	1.18346
823.49702	1.19374
821.56846	1.21728
819.63989	1.23719
817.71133	1.23870
815.78276	1.23663
813.85420	1.24275
811.92563	1.25269
809.99707	1.26848
808.06851	1.28639
806.13994	1.29932
804.21138	1.30728
802.28281	1.31138
800.35425	1.30777
798.42568	1.29651
796.49712	1.29190
794.56855	1.30364
792.63999	1.31081
790.71143	1.27682
788.78286	1.23890
786.85430	1.24097
784.92573	1.28023
782.99717	1.32360
781.06860	1.31667
779.14004	1.27144
777.21147	1.23372
775.28291	1.23746
773.35435	1.24969
771.42578	1.19465
769.49722	1.13898
767.56865	1.14244
765.64009	1.14677
763.71152	1.13292
761.78296	1.13990
759.85439	1.10338
757.92583	1.03944
755.99727	1.03176
754.06870	1.03352
752.14014	1.00555
750.21157	0.99585
748.28301	1.00043
746.35444	0.98746
744.42588	0.96020
742.49731	0.91552
740.56875	0.81764
738.64019	0.72623
736.71162	0.68422
734.78306	0.64259
732.85449	0.58377
730.92593	0.46122
728.99736	0.28931
727.06880	0.19204
725.14023	0.12000
723.21167	-0.25418
721.28311	4.32770
719.35454	4.31613
717.42598	-0.50846
715.49741	0.06019
713.56885	0.14682
711.64028	0.16428
709.71172	0.25576
707.78315	0.26211
705.85459	0.21460
703.92603	0.24032
701.99746	0.33917
700.06890	0.46054
698.14033	0.50391
696.21177	0.46156
694.28320	0.46999
692.35464	0.51579
690.42607	0.48151
688.49751	0.45295
686.56895	0.49021
684.64038	0.52409
682.71182	0.49489
680.78325	0.44973
678.85469	0.41401
676.92612	0.33495
674.99756	0.23759
673.06899	0.21077
671.14043	0.26234
669.21187	0.32680
667.28330	0.37381
665.35474	0.41214
663.42617	0.40548
661.49761	0.35206
659.56904	0.32613
657.64048	0.36730
655.71191	0.43478
653.78335	0.44006
651.85479	0.35274
649.92622	0.26234
647.99766	0.25923
646.06909	0.29773
644.14053	0.29884
642.21196	0.33685
640.28340	0.50064
638.35483	0.66301
636.42627	0.56008
634.49771	0.44825
632.56914	0.45850
630.64058	0.58437
628.71201	0.62082
626.78345	0.52187
624.85488	0.45670
622.92632	0.38453
620.99775	0.35180
619.06919	0.34877
617.14062	0.33849
615.21206	0.39281
613.28350	0.52461
611.35493	0.54301
609.42637	0.44528
607.49780	0.39313
605.56924	0.38699
603.64067	0.36058
601.71211	0.33536
599.78354	0.39783
597.85498	0.46082
595.92642	0.37123
593.99785	0.32570
592.06929	0.40195
590.14072	0.53038
588.21216	0.55144
586.28359	0.46875
584.35503	0.42507
582.42646	0.39611
580.49790	0.31594
578.56934	0.25659
576.64077	0.26090
574.71221	0.31097
572.78364	0.38557
570.85508	0.42532
568.92651	0.41468
566.99795	0.40188
565.06938	0.34591
563.14082	0.23903
561.21226	0.17533
559.28369	0.19007
557.35513	0.26579
555.42656	0.33339
553.49800	0.35015
551.56943	0.39212
549.64087	0.49046
547.71230	0.47605
545.78374	0.35818
543.85518	0.32292
541.92661	0.32121
539.99805	0.28648
538.06948	0.28788
536.14092	0.33596
534.21235	0.32609
532.28379	0.27120
530.35522	0.24853
528.42666	0.27126
526.49810	0.29160
524.56953	0.27311
522.64097	0.25569
520.71240	0.25269
518.78384	0.25601
516.85527	0.29135
514.92671	0.35710
512.99814	0.40575
511.06958	0.46010
509.14102	0.53536
507.21245	0.58477
505.28389	0.53280
503.35532	0.40821
501.42676	0.31198
499.49819	0.26397
