3997.91411	0.07095
3995.98555	0.07113
3994.05698	0.07166
3992.12842	0.07257
3990.19985	0.07344
3988.27129	0.07370
3986.34272	0.07359
3984.41416	0.07366
3982.48560	0.07392
3980.55703	0.07429
3978.62847	0.07464
3976.69990	0.07493
3974.77134	0.07531
3972.84277	0.07530
3970.91421	0.07478
3968.98564	0.07465
3967.05708	0.07519
3965.12852	0.07562
3963.19995	0.07572
3961.27139	0.07597
3959.34282	0.07634
3957.41426	0.07635
3955.48569	0.07602
3953.55713	0.07582
3951.62856	0.07615
3949.70000	0.07661
3947.77144	0.07656
3945.84287	0.07626
3943.91431	0.07637
3941.98574	0.07690
3940.05718	0.07704
3938.12861	0.07666
3936.20005	0.07647
3934.27148	0.07652
3932.34292	0.07657
3930.41436	0.07678
3928.48579	0.07691
3926.55723	0.07662
3924.62866	0.07640
3922.70010	0.07627
3920.77153	0.07613
3918.84297	0.07629
3916.91440	0.07658
3914.98584	0.07655
3913.05728	0.07634
3911.12871	0.07612
3909.20015	0.07583
3907.27158	0.07582
3905.34302	0.07654
3903.41445	0.07791
3901.48589	0.07890
3899.55732	0.07840
3897.62876	0.07681
3895.70020	0.07562
3893.77163	0.07548
3891.84307	0.07604
3889.91450	0.07627
3887.98594	0.07578
3886.05737	0.07586
3884.12881	0.07670
3882.20024	0.07720
3880.27168	0.07725
3878.34312	0.07692
3876.41455	0.07667
3874.48599	0.07716
3872.55742	0.07814
3870.62886	0.07889
3868.70029	0.07884
3866.77173	0.07833
3864.84316	0.07877
3862.91460	0.07974
3860.98604	0.07965
3859.05747	0.07913
3857.12891	0.07923
3855.20034	0.08008
3853.27178	0.08188
3851.34321	0.08329
3849.41465	0.08256
3847.48608	0.08186
3845.55752	0.08209
3843.62896	0.08298
3841.70039	0.08423
3839.77183	0.08546
3837.84326	0.08643
3835.91470	0.08694
3833.98613	0.08690
3832.05757	0.08691
3830.12900	0.08735
3828.20044	0.08791
3826.27187	0.08851
3824.34331	0.08910
3822.41475	0.08992
3820.48618	0.09179
3818.55762	0.09319
3816.62905	0.09317
3814.70049	0.09340
3812.77192	0.09390
3810.84336	0.09426
3808.91479	0.09495
3806.98623	0.09642
3805.05767	0.09823
3803.12910	0.10010
3801.20054	0.10276
3799.27197	0.10456
3797.34341	0.10445
3795.41484	0.10455
3793.48628	0.10497
3791.55771	0.10540
3789.62915	0.10622
3787.70059	0.10744
3785.77202	0.10907
3783.84346	0.11106
3781.91489	0.11279
3779.98633	0.11432
3778.05776	0.11600
3776.12920	0.11719
3774.20063	0.11805
3772.27207	0.11943
3770.34351	0.12162
3768.41494	0.12414
3766.48638	0.12609
3764.55781	0.12762
3762.62925	0.12913
3760.70068	0.13109
3758.77212	0.13390
3756.84355	0.13684
3754.91499	0.13920
3752.98643	0.14189
3751.05786	0.14588
3749.12930	0.14969
3747.20073	0.15160
3745.27217	0.15376
3743.34360	0.15728
3741.41504	0.16040
3739.48647	0.16281
3737.55791	0.16588
3735.62935	0.17100
3733.70078	0.17806
3731.77222	0.18364
3729.84365	0.18681
3727.91509	0.18951
3725.98652	0.19389
3724.05796	0.20063
3722.12939	0.20824
3720.20083	0.21548
3718.27227	0.22234
3716.34370	0.22930
3714.41514	0.23644
3712.48657	0.24543
3710.55801	0.25882
3708.62944	0.27308
3706.70088	0.28433
3704.77231	0.29510
3702.84375	0.30775
3700.91519	0.32420
3698.98662	0.34249
3697.05806	0.35978
3695.12949	0.37757
3693.20093	0.39620
3691.27236	0.41682
3689.34380	0.44440
3687.41523	0.47873
3685.48667	0.50847
3683.55811	0.53391
3681.62954	0.56166
3679.70098	0.59321
3677.77241	0.62615
3675.84385	0.66484
3673.91528	0.71716
3671.98672	0.76004
3670.05815	0.79763
3668.12959	0.84914
3666.20103	0.89627
3664.27246	0.93575
3662.34390	0.97854
3660.41533	1.02536
3658.48677	1.07151
3656.55820	1.11966
3654.62964	1.17329
3652.70107	1.21903
3650.77251	1.25841
3648.84395	1.31235
3646.91538	1.38037
3644.98682	1.43097
3643.05825	1.46931
3641.12969	1.50873
3639.20112	1.55230
3637.27256	1.59577
3635.34399	1.63771
3633.41543	1.67984
3631.48687	1.71991
3629.55830	1.76064
3627.62974	1.81414
3625.70117	1.86435
3623.77261	1.89727
3621.84404	1.92821
3619.91548	1.96502
3617.98691	2.01105
3616.05835	2.05545
3614.12979	2.09223
3612.20122	2.13102
3610.27266	2.16991
3608.34409	2.20853
3606.41553	2.25061
3604.48696	2.29080
3602.55840	2.32652
3600.62983	2.36406
3598.70127	2.40343
3596.77271	2.44106
3594.84414	2.48027
3592.91558	2.52213
3590.98701	2.56187
3589.05845	2.59906
3587.12988	2.64269
3585.20132	2.69001
3583.27275	2.73081
3581.34419	2.76951
3579.41562	2.81134
3577.48706	2.85503
3575.55850	2.89805
3573.62993	2.94117
3571.70137	2.98159
3569.77280	3.01861
3567.84424	3.05962
3565.91567	3.11409
3563.98711	3.16851
3562.05854	3.21185
3560.12998	3.25354
3558.20142	3.29636
3556.27285	3.33995
3554.34429	3.38484
3552.41572	3.43188
3550.48716	3.47875
3548.55859	3.52345
3546.63003	3.56813
3544.70146	3.61603
3542.77290	3.66431
3540.84434	3.71013
3538.91577	3.75660
3536.98721	3.80500
3535.05864	3.85465
3533.13008	3.90247
3531.20151	3.94907
3529.27295	3.99687
3527.34438	4.04508
3525.41582	4.09083
3523.48726	4.13815
3521.55869	4.19344
3519.63013	4.24879
3517.70156	4.29534
3515.77300	4.33591
3513.84443	4.38044
3511.91587	4.43148
3509.98730	4.48194
3508.05874	4.53026
3506.13018	4.57898
3504.20161	4.62553
3502.27305	4.67082
3500.34448	4.72001
3498.41592	4.77131
3496.48735	4.81948
3494.55879	4.86451
3492.63022	4.91356
3490.70166	4.96864
3488.77310	5.02134
3486.84453	5.06518
3484.91597	5.10679
3482.98740	5.15488
3481.05884	5.20695
3479.13027	5.25636
3477.20171	5.30213
3475.27314	5.35115
3473.34458	5.40626
3471.41602	5.45569
3469.48745	5.49643
3467.55889	5.53972
3465.63032	5.58968
3463.70176	5.64606
3461.77319	5.69990
3459.84463	5.74883
3457.91606	5.80605
3455.98750	5.86965
3454.05894	5.92805
3452.13037	5.98628
3450.20181	6.04090
3448.27324	6.07883
3446.34468	6.11864
3444.41611	6.17360
3442.48755	6.22779
3440.55898	6.27122
3438.63042	6.31654
3436.70186	6.36752
3434.77329	6.41225
3432.84473	6.46263
3430.91616	6.52810
3428.98760	6.58771
3427.05903	6.63898
3425.13047	6.69851
3423.20190	6.73817
3421.27334	6.76936
3419.34478	6.83136
3417.41621	6.88596
3415.48765	6.90474
3413.55908	6.93222
3411.63052	7.00552
3409.70195	7.09127
3407.77339	7.15352
3405.84482	7.19360
3403.91626	7.22912
3401.98770	7.23851
3400.05913	7.22068
3398.13057	7.26054
3396.20200	7.36954
3394.27344	7.46378
3392.34487	7.50671
3390.41631	7.53318
3388.48774	7.56663
3386.55918	7.61246
3384.63062	7.63499
3382.70205	7.63449
3380.77349	7.65392
3378.84492	7.69131
3376.91636	7.73130
3374.98779	7.75828
3373.05923	7.80974
3371.13066	7.88579
3369.20210	7.92030
3367.27354	7.89832
3365.34497	7.87563
3363.41641	7.89167
3361.48784	7.93954
3359.55928	8.00324
3357.63071	8.06235
3355.70215	8.10964
3353.77358	8.13327
3351.84502	8.16056
3349.91646	8.18530
3347.98789	8.16964
3346.05933	8.13816
3344.13076	8.17403
3342.20220	8.28275
3340.27363	8.30995
3338.34507	8.23898
3336.41650	8.21273
3334.48794	8.29542
3332.55937	8.39764
3330.63081	8.40763
3328.70225	8.36328
3326.77368	8.33262
3324.84512	8.29955
3322.91655	8.27793
3320.98799	8.30412
3319.05942	8.31162
3317.13086	8.28856
3315.20229	8.31632
3313.27373	8.42113
3311.34517	8.44670
3309.41660	8.36713
3307.48804	8.37174
3305.55947	8.43319
3303.63091	8.42133
3301.70234	8.36336
3299.77378	8.37006
3297.84521	8.40497
3295.91665	8.40113
3293.98809	8.35170
3292.05952	8.28762
3290.13096	8.32024
3288.20239	8.42228
3286.27383	8.42579
3284.34526	8.32976
3282.41670	8.31554
3280.48813	8.41628
3278.55957	8.52322
3276.63101	8.60001
3274.70244	8.62628
3272.77388	8.59554
3270.84531	8.59009
3268.91675	8.59518
3266.98818	8.55666
3265.05962	8.49044
3263.13105	8.36259
3261.20249	8.26772
3259.27393	8.31352
3257.34536	8.41408
3255.41680	8.47271
3253.48823	8.48517
3251.55967	8.44652
3249.63110	8.38378
3247.70254	8.33184
3245.77397	8.31291
3243.84541	8.34239
3241.91685	8.36990
3239.98828	8.41064
3238.05972	8.48680
3236.13115	8.51855
3234.20259	8.48689
3232.27402	8.44124
3230.34546	8.43774
3228.41689	8.47532
3226.48833	8.51688
3224.55977	8.56115
3222.63120	8.60451
3220.70264	8.58871
3218.77407	8.46064
3216.84551	8.31802
3214.91694	8.26837
3212.98838	8.28887
3211.05981	8.29982
3209.13125	8.25387
3207.20269	8.19713
3205.27412	8.18983
3203.34556	8.16762
3201.41699	8.06985
3199.48843	7.99618
3197.55986	7.98183
3195.63130	7.90580
3193.70273	7.76922
3191.77417	7.68369
3189.84561	7.65638
3187.91704	7.62426
3185.98848	7.55575
3184.05991	7.48233
3182.13135	7.44552
3180.20278	7.45704
3178.27422	7.48233
3176.34565	7.44588
3174.41709	7.35500
3172.48853	7.28354
3170.55996	7.20317
3168.63140	7.09372
3166.70283	7.02012
3164.77427	6.98196
3162.84570	6.92604
3160.91714	6.84493
3158.98857	6.76849
3157.06001	6.71058
3155.13145	6.65446
3153.20288	6.57552
3151.27432	6.48574
3149.34575	6.41755
3147.41719	6.37024
3145.48862	6.32807
3143.56006	6.27410
3141.63149	6.18664
3139.70293	6.07840
3137.77437	5.99054
3135.84580	5.93022
3133.91724	5.86777
3131.98867	5.78364
3130.06011	5.69516
3128.13154	5.62589
3126.20298	5.56454
3124.27441	5.49551
3122.34585	5.42557
3120.41729	5.35561
3118.48872	5.28375
3116.56016	5.21372
3114.63159	5.14045
3112.70303	5.06336
3110.77446	4.98942
3108.84590	4.91813
3106.91733	4.84661
3104.98877	4.77984
3103.06021	4.71817
3101.13164	4.65105
3099.20308	4.57944
3097.27451	4.50982
3095.34595	4.44188
3093.41738	4.37507
3091.48882	4.30674
3089.56025	4.23761
3087.63169	4.17237
3085.70312	4.10972
3083.77456	4.04495
3081.84600	3.97924
3079.91743	3.91507
3077.98887	3.85173
3076.06030	3.78999
3074.13174	3.73105
3072.20317	3.67285
3070.27461	3.61277
3068.34604	3.55241
3066.41748	3.49450
3064.48892	3.43853
3062.56035	3.38316
3060.63179	3.32779
3058.70322	3.27205
3056.77466	3.21680
3054.84609	3.16334
3052.91753	3.11130
3050.98896	3.05911
3049.06040	3.00676
3047.13184	2.95492
3045.20327	2.90287
3043.27471	2.85182
3041.34614	2.80305
3039.41758	2.75539
3037.48901	2.70816
3035.56045	2.66173
3033.63188	2.61605
3031.70332	2.57071
3029.77476	2.52619
3027.84619	2.48233
3025.91763	2.43830
3023.98906	2.39498
3022.06050	2.35290
3020.13193	2.31112
3018.20337	2.26935
3016.27480	2.22814
3014.34624	2.18819
3012.41768	2.14966
3010.48911	2.11212
3008.56055	2.07547
3006.63198	2.03921
3004.70342	2.00240
3002.77485	1.96581
3000.84629	1.93096
2998.91772	1.89753
2996.98916	1.86424
2995.06060	1.83081
2993.13203	1.79777
2991.20347	1.76553
2989.27490	1.73410
2987.34634	1.70342
2985.41777	1.67377
2983.48921	1.64481
2981.56064	1.61584
2979.63208	1.58694
2977.70352	1.55856
2975.77495	1.53082
2973.84639	1.50388
2971.91782	1.47789
2969.98926	1.45245
2968.06069	1.42720
2966.13213	1.40195
2964.20356	1.37658
2962.27500	1.35178
2960.34644	1.32797
2958.41787	1.30426
2956.48931	1.28001
2954.56074	1.25599
2952.63218	1.23311
2950.70361	1.21085
2948.77505	1.18866
2946.84648	1.16685
2944.91792	1.14557
2942.98936	1.12458
2941.06079	1.10380
2939.13223	1.08335
2937.20366	1.06329
2935.27510	1.04345
2933.34653	1.02394
2931.41797	1.00527
2929.48940	0.98701
2927.56084	0.96852
2925.63228	0.95037
2923.70371	0.93309
2921.77515	0.91640
2919.84658	0.90007
2917.91802	0.88397
2915.98945	0.86798
2914.06089	0.85223
2912.13232	0.83701
2910.20376	0.82242
2908.27520	0.80804
2906.34663	0.79370
2904.41807	0.77966
2902.48950	0.76584
2900.56094	0.75214
2898.63237	0.73898
2896.70381	0.72647
2894.77524	0.71437
2892.84668	0.70232
2890.91812	0.69028
2888.98955	0.67854
2887.06099	0.66720
2885.13242	0.65634
2883.20386	0.64584
2881.27529	0.63527
2879.34673	0.62464
2877.41816	0.61427
2875.48960	0.60413
2873.56104	0.59401
2871.63247	0.58397
2869.70391	0.57392
2867.77534	0.56390
2865.84678	0.55406
2863.91821	0.54414
2861.98965	0.53394
2860.06108	0.52379
2858.13252	0.51428
2856.20396	0.50542
2854.27539	0.49691
2852.34683	0.48872
2850.41826	0.48093
2848.48970	0.47334
2846.56113	0.46582
2844.63257	0.45849
2842.70400	0.45168
2840.77544	0.44555
2838.84687	0.43954
2836.91831	0.43318
2834.98975	0.42682
2833.06118	0.42058
2831.13262	0.41440
2829.20405	0.40845
2827.27549	0.40264
2825.34692	0.39675
2823.41836	0.39100
2821.48979	0.38553
2819.56123	0.37995
2817.63267	0.37414
2815.70410	0.36864
2813.77554	0.36358
2811.84697	0.35857
2809.91841	0.35332
2807.98984	0.34789
2806.06128	0.34256
2804.13271	0.33753
2802.20415	0.33282
2800.27559	0.32831
2798.34702	0.32390
2796.41846	0.31957
2794.48989	0.31513
2792.56133	0.31044
2790.63276	0.30588
2788.70420	0.30167
2786.77563	0.29769
2784.84707	0.29369
2782.91851	0.28959
2780.98994	0.28563
2779.06138	0.28188
2777.13281	0.27821
2775.20425	0.27454
2773.27568	0.27082
2771.34712	0.26725
2769.41855	0.26405
2767.48999	0.26097
2765.56143	0.25774
2763.63286	0.25454
2761.70430	0.25140
2759.77573	0.24813
2757.84717	0.24498
2755.91860	0.24215
2753.99004	0.23936
2752.06147	0.23641
2750.13291	0.23354
2748.20435	0.23087
2746.27578	0.22815
2744.34722	0.22534
2742.41865	0.22284
2740.49009	0.22076
2738.56152	0.21849
2736.63296	0.21581
2734.70439	0.21328
2732.77583	0.21121
2730.84727	0.20925
2728.91870	0.20708
2726.99014	0.20489
2725.06157	0.20288
2723.13301	0.20086
2721.20444	0.19880
2719.27588	0.19685
2717.34731	0.19515
2715.41875	0.19358
2713.49019	0.19179
2711.56162	0.18985
2709.63306	0.18811
2707.70449	0.18663
2705.77593	0.18529
2703.84736	0.18388
2701.91880	0.18229
2699.99023	0.18068
2698.06167	0.17930
2696.13311	0.17812
2694.20454	0.17693
2692.27598	0.17566
2690.34741	0.17431
2688.41885	0.17289
2686.49028	0.17158
2684.56172	0.17047
2682.63315	0.16940
2680.70459	0.16829
2678.77603	0.16711
2676.84746	0.16602
2674.91890	0.16518
2672.99033	0.16434
2671.06177	0.16331
2669.13320	0.16227
2667.20464	0.16134
2665.27607	0.16052
2663.34751	0.15975
2661.41895	0.15897
2659.49038	0.15833
2657.56182	0.15770
2655.63325	0.15693
2653.70469	0.15622
2651.77612	0.15551
2649.84756	0.15475
2647.91899	0.15416
2645.99043	0.15370
2644.06187	0.15321
2642.13330	0.15274
2640.20474	0.15239
2638.27617	0.15210
2636.34761	0.15173
2634.41904	0.15128
2632.49048	0.15081
2630.56191	0.15036
2628.63335	0.14998
2626.70479	0.14976
2624.77622	0.14949
2622.84766	0.14915
2620.91909	0.14887
2618.99053	0.14869
2617.06196	0.14865
2615.13340	0.14865
2613.20483	0.14861
2611.27627	0.14853
2609.34771	0.14834
2607.41914	0.14813
2605.49058	0.14811
2603.56201	0.14814
2601.63345	0.14808
2599.70488	0.14812
2597.77632	0.14832
2595.84775	0.14845
2593.91919	0.14850
2591.99062	0.14862
2590.06206	0.14880
2588.13350	0.14900
2586.20493	0.14929
2584.27637	0.14961
2582.34780	0.14991
2580.41924	0.15022
2578.49067	0.15059
2576.56211	0.15102
2574.63354	0.15145
2572.70498	0.15184
2570.77642	0.15230
2568.84785	0.15281
2566.91929	0.15323
2564.99072	0.15359
2563.06216	0.15407
2561.13359	0.15461
2559.20503	0.15502
2557.27646	0.15534
2555.34790	0.15578
2553.41934	0.15641
2551.49077	0.15698
2549.56221	0.15748
2547.63364	0.15809
2545.70508	0.15881
2543.77651	0.15944
2541.84795	0.16007
2539.91938	0.16081
2537.99082	0.16149
2536.06226	0.16201
2534.13369	0.16246
2532.20513	0.16303
2530.27656	0.16387
2528.34800	0.16491
2526.41943	0.16594
2524.49087	0.16669
2522.56230	0.16720
2520.63374	0.16786
2518.70518	0.16873
2516.77661	0.16964
2514.84805	0.17049
2512.91948	0.17133
2510.99092	0.17213
2509.06235	0.17298
2507.13379	0.17384
2505.20522	0.17460
2503.27666	0.17536
2501.34810	0.17618
2499.41953	0.17702
2497.49097	0.17785
2495.56240	0.17866
2493.63384	0.17948
2491.70527	0.18040
2489.77671	0.18147
2487.84814	0.18246
2485.91958	0.18327
2483.99102	0.18408
2482.06245	0.18494
2480.13389	0.18584
2478.20532	0.18682
2476.27676	0.18771
2474.34819	0.18846
2472.41963	0.18933
2470.49106	0.19030
2468.56250	0.19122
2466.63394	0.19217
2464.70537	0.19318
2462.77681	0.19415
2460.84824	0.19517
2458.91968	0.19623
2456.99111	0.19722
2455.06255	0.19816
2453.13398	0.19913
2451.20542	0.20005
2449.27686	0.20093
2447.34829	0.20192
2445.41973	0.20305
2443.49116	0.20425
2441.56260	0.20546
2439.63403	0.20655
2437.70547	0.20740
2435.77690	0.20828
2433.84834	0.20928
2431.91978	0.21025
2429.99121	0.21127
2428.06265	0.21240
2426.13408	0.21362
2424.20552	0.21494
2422.27695	0.21616
2420.34839	0.21719
2418.41982	0.21821
2416.49126	0.21936
2414.56270	0.22054
2412.63413	0.22167
2410.70557	0.22278
2408.77700	0.22391
2406.84844	0.22508
2404.91987	0.22622
2402.99131	0.22731
2401.06274	0.22849
2399.13418	0.22979
2397.20562	0.23109
2395.27705	0.23240
2393.34849	0.23376
2391.41992	0.23514
2389.49136	0.23650
2387.56279	0.23791
2385.63423	0.23942
2383.70566	0.24109
2381.77710	0.24306
2379.84854	0.24533
2377.91997	0.24770
2375.99141	0.25010
2374.06284	0.25289
2372.13428	0.25643
2370.20571	0.26060
2368.27715	0.26505
2366.34858	0.26938
2364.42002	0.27299
2362.49146	0.27570
2360.56289	0.27774
2358.63433	0.27895
2356.70576	0.27910
2354.77720	0.27813
2352.84863	0.27697
2350.92007	0.27597
2348.99150	0.27541
2347.06294	0.27617
2345.13437	0.27910
2343.20581	0.28329
2341.27725	0.28642
2339.34868	0.28852
2337.42012	0.28982
2335.49155	0.29059
2333.56299	0.29142
2331.63442	0.29237
2329.70586	0.29325
2327.77729	0.29426
2325.84873	0.29532
2323.92017	0.29617
2321.99160	0.29694
2320.06304	0.29794
2318.13447	0.29917
2316.20591	0.30028
2314.27734	0.30123
2312.34878	0.30252
2310.42021	0.30415
2308.49165	0.30544
2306.56309	0.30648
2304.63452	0.30777
2302.70596	0.30919
2300.77739	0.31060
2298.84883	0.31209
2296.92026	0.31377
2294.99170	0.31559
2293.06313	0.31738
2291.13457	0.31911
2289.20601	0.32080
2287.27744	0.32234
2285.34888	0.32389
2283.42031	0.32575
2281.49175	0.32786
2279.56318	0.33000
2277.63462	0.33204
2275.70605	0.33395
2273.77749	0.33591
2271.84893	0.33805
2269.92036	0.34025
2267.99180	0.34235
2266.06323	0.34437
2264.13467	0.34649
2262.20610	0.34878
2260.27754	0.35107
2258.34897	0.35320
2256.42041	0.35523
2254.49185	0.35726
2252.56328	0.35926
2250.63472	0.36123
2248.70615	0.36339
2246.77759	0.36581
2244.84902	0.36821
2242.92046	0.37038
2240.99189	0.37241
2239.06333	0.37443
2237.13477	0.37656
2235.20620	0.37880
2233.27764	0.38110
2231.34907	0.38342
2229.42051	0.38576
2227.49194	0.38812
2225.56338	0.39047
2223.63481	0.39262
2221.70625	0.39455
2219.77769	0.39658
2217.84912	0.39894
2215.92056	0.40137
2213.99199	0.40360
2212.06343	0.40572
2210.13486	0.40787
2208.20630	0.40998
2206.27773	0.41202
2204.34917	0.41400
2202.42061	0.41596
2200.49204	0.41803
2198.56348	0.42013
2196.63491	0.42208
2194.70635	0.42392
2192.77778	0.42574
2190.84922	0.42763
2188.92065	0.42966
2186.99209	0.43170
2185.06353	0.43367
2183.13496	0.43548
2181.20640	0.43706
2179.27783	0.43846
2177.34927	0.44006
2175.42070	0.44183
2173.49214	0.44333
2171.56357	0.44463
2169.63501	0.44603
2167.70645	0.44735
2165.77788	0.44847
2163.84932	0.44955
2161.92075	0.45062
2159.99219	0.45162
2158.06362	0.45256
2156.13506	0.45352
2154.20649	0.45451
2152.27793	0.45543
2150.34937	0.45620
2148.42080	0.45690
2146.49224	0.45752
2144.56367	0.45793
2142.63511	0.45815
2140.70654	0.45839
2138.77798	0.45866
2136.84941	0.45876
2134.92085	0.45879
2132.99229	0.45893
2131.06372	0.45899
2129.13516	0.45878
2127.20659	0.45842
2125.27803	0.45809
2123.34946	0.45776
2121.42090	0.45733
2119.49233	0.45680
2117.56377	0.45613
2115.63521	0.45530
2113.70664	0.45441
2111.77808	0.45348
2109.84951	0.45248
2107.92095	0.45141
2105.99238	0.45023
2104.06382	0.44897
2102.13525	0.44764
2100.20669	0.44624
2098.27812	0.44483
2096.34956	0.44336
2094.42100	0.44182
2092.49243	0.44027
2090.56387	0.43862
2088.63530	0.43679
2086.70674	0.43488
2084.77817	0.43297
2082.84961	0.43109
2080.92104	0.42922
2078.99248	0.42722
2077.06392	0.42500
2075.13535	0.42277
2073.20679	0.42072
2071.27822	0.41865
2069.34966	0.41640
2067.42109	0.41408
2065.49253	0.41176
2063.56396	0.40936
2061.63540	0.40680
2059.70684	0.40413
2057.77827	0.40146
2055.84971	0.39884
2053.92114	0.39637
2051.99258	0.39399
2050.06401	0.39145
2048.13545	0.38881
2046.20688	0.38617
2044.27832	0.38340
2042.34976	0.38049
2040.42119	0.37764
2038.49263	0.37496
2036.56406	0.37236
2034.63550	0.36977
2032.70693	0.36712
2030.77837	0.36434
2028.84980	0.36146
2026.92124	0.35866
2024.99268	0.35601
2023.06411	0.35337
2021.13555	0.35049
2019.20698	0.34750
2017.27842	0.34473
2015.34985	0.34198
2013.42129	0.33918
2011.49272	0.33649
2009.56416	0.33385
2007.63560	0.33108
2005.70703	0.32825
2003.77847	0.32544
2001.84990	0.32275
1999.92134	0.32018
1997.99277	0.31760
1996.06421	0.31514
1994.13564	0.31277
1992.20708	0.31029
1990.27852	0.30769
1988.34995	0.30518
1986.42139	0.30267
1984.49282	0.30007
1982.56426	0.29761
1980.63569	0.29538
1978.70713	0.29325
1976.77856	0.29111
1974.85000	0.28897
1972.92144	0.28682
1970.99287	0.28466
1969.06431	0.28257
1967.13574	0.28064
1965.20718	0.27872
1963.27861	0.27672
1961.35005	0.27469
1959.42148	0.27271
1957.49292	0.27090
1955.56436	0.26926
1953.63579	0.26762
1951.70723	0.26586
1949.77866	0.26410
1947.85010	0.26247
1945.92153	0.26104
1943.99297	0.25967
1942.06440	0.25823
1940.13584	0.25669
1938.20728	0.25522
1936.27871	0.25393
1934.35015	0.25276
1932.42158	0.25160
1930.49302	0.25040
1928.56445	0.24923
1926.63589	0.24809
1924.70732	0.24709
1922.77876	0.24617
1920.85020	0.24515
1918.92163	0.24418
1916.99307	0.24333
1915.06450	0.24249
1913.13594	0.24165
1911.20737	0.24094
1909.27881	0.24034
1907.35024	0.23980
1905.42168	0.23920
1903.49312	0.23857
1901.56455	0.23797
1899.63599	0.23743
1897.70742	0.23696
1895.77886	0.23653
1893.85029	0.23618
1891.92173	0.23588
1889.99316	0.23574
1888.06460	0.23556
1886.13604	0.23528
1884.20747	0.23503
1882.27891	0.23479
1880.35034	0.23464
1878.42178	0.23464
1876.49321	0.23476
1874.56465	0.23482
1872.63608	0.23488
1870.70752	0.23506
1868.77896	0.23555
1866.85039	0.23591
1864.92183	0.23586
1862.99326	0.23583
1861.06470	0.23602
1859.13613	0.23646
1857.20757	0.23689
1855.27900	0.23730
1853.35044	0.23770
1851.42187	0.23822
1849.49331	0.23887
1847.56475	0.23963
1845.63618	0.24045
1843.70762	0.24131
1841.77905	0.24201
1839.85049	0.24250
1837.92192	0.24332
1835.99336	0.24431
1834.06479	0.24522
1832.13623	0.24614
1830.20767	0.24749
1828.27910	0.24902
1826.35054	0.25018
1824.42197	0.25144
1822.49341	0.25274
1820.56484	0.25402
1818.63628	0.25542
1816.70771	0.25709
1814.77915	0.25879
1812.85059	0.26055
1810.92202	0.26255
1808.99346	0.26458
1807.06489	0.26654
1805.13633	0.26849
1803.20776	0.27066
1801.27920	0.27307
1799.35063	0.27585
1797.42207	0.27849
1795.49351	0.28097
1793.56494	0.28382
1791.63638	0.28749
1789.70781	0.29098
1787.77925	0.29354
1785.85068	0.29658
1783.92212	0.30030
1781.99355	0.30430
1780.06499	0.30843
1778.13643	0.31267
1776.20786	0.31677
1774.27930	0.32127
1772.35073	0.32723
1770.42217	0.33353
1768.49360	0.33878
1766.56504	0.34385
1764.63647	0.34911
1762.70791	0.35497
1760.77935	0.36248
1758.85078	0.36956
1756.92222	0.37663
1754.99365	0.38441
1753.06509	0.39156
1751.13652	0.39998
1749.20796	0.41060
1747.27939	0.42122
1745.35083	0.43048
1743.42227	0.44005
1741.49370	0.45056
1739.56514	0.46312
1737.63657	0.47582
1735.70801	0.48693
1733.77944	0.50346
1731.85088	0.52328
1729.92231	0.53901
1727.99375	0.55483
1726.06519	0.57162
1724.13662	0.58989
1722.20806	0.60966
1720.27949	0.62786
1718.35093	0.64907
1716.42236	0.68088
1714.49380	0.71169
1712.56523	0.73666
1710.63667	0.76058
1708.70811	0.78614
1706.77954	0.81524
1704.85098	0.85014
1702.92241	0.88124
1700.99385	0.91182
1699.06528	0.95726
1697.13672	0.99899
1695.20815	1.04168
1693.27959	1.08313
1691.35103	1.11632
1689.42246	1.15445
1687.49390	1.19469
1685.56533	1.23327
1683.63677	1.29213
1681.70820	1.35329
1679.77964	1.39268
1677.85107	1.43018
1675.92251	1.47328
1673.99395	1.52652
1672.06538	1.57403
1670.13682	1.62069
1668.20825	1.68025
1666.27969	1.72768
1664.35112	1.76766
1662.42256	1.81782
1660.49399	1.87434
1658.56543	1.91870
1656.63687	1.95454
1654.70830	1.98795
1652.77974	2.04281
1650.85117	2.09551
1648.92261	2.11478
1646.99404	2.13941
1645.06548	2.16815
1643.13691	2.18847
1641.20835	2.20205
1639.27979	2.21434
1637.35122	2.22196
1635.42266	2.22095
1633.49409	2.21155
1631.56553	2.19858
1629.63696	2.18312
1627.70840	2.15681
1625.77983	2.12520
1623.85127	2.08575
1621.92271	2.03871
1619.99414	1.99770
1618.06558	1.95729
1616.13701	1.89745
1614.20845	1.83508
1612.27988	1.78751
1610.35132	1.73793
1608.42275	1.68420
1606.49419	1.63115
1604.56562	1.58188
1602.63706	1.53461
1600.70850	1.48887
1598.77993	1.44632
1596.85137	1.40549
1594.92280	1.36552
1592.99424	1.32741
1591.06567	1.29304
1589.13711	1.26085
1587.20854	1.23063
1585.27998	1.20262
1583.35142	1.17621
1581.42285	1.15177
1579.49429	1.13095
1577.56572	1.11228
1575.63716	1.08875
1573.70859	1.06761
1571.78003	1.05411
1569.85146	1.04006
1567.92290	1.02412
1565.99434	1.01163
1564.06577	1.00144
1562.13721	0.99348
1560.20864	0.98791
1558.28008	0.97898
1556.35151	0.96964
1554.42295	0.96393
1552.49438	0.95864
1550.56582	0.95257
1548.63726	0.94516
1546.70869	0.93753
1544.78013	0.92925
1542.85156	0.91948
1540.92300	0.90685
1538.99443	0.88793
1537.06587	0.87364
1535.13730	0.86401
1533.20874	0.85151
1531.28018	0.83800
1529.35161	0.82820
1527.42305	0.81900
1525.49448	0.80936
1523.56592	0.80124
1521.63735	0.79347
1519.70879	0.78505
1517.78022	0.77764
1515.85166	0.76949
1513.92310	0.76110
1511.99453	0.75381
1510.06597	0.74719
1508.13740	0.74091
1506.20884	0.73189
1504.28027	0.72392
1502.35171	0.71903
1500.42314	0.71469
1498.49458	0.71017
1496.56602	0.70482
1494.63745	0.69943
1492.70889	0.69522
1490.78032	0.69155
1488.85176	0.68725
1486.92319	0.68262
1484.99463	0.67855
1483.06606	0.67543
1481.13750	0.67299
1479.20894	0.67082
1477.28037	0.66886
1475.35181	0.66713
1473.42324	0.66559
1471.49468	0.66357
1469.56611	0.66107
1467.63755	0.65866
1465.70898	0.65649
1463.78042	0.65454
1461.85186	0.65312
1459.92329	0.65243
1457.99473	0.65215
1456.06616	0.65091
1454.13760	0.64841
1452.20903	0.64603
1450.28047	0.64382
1448.35190	0.64161
1446.42334	0.63918
1444.49478	0.63702
1442.56621	0.63517
1440.63765	0.63324
1438.70908	0.63150
1436.78052	0.62961
1434.85195	0.62715
1432.92339	0.62498
1430.99482	0.62337
1429.06626	0.62193
1427.13770	0.62059
1425.20913	0.61953
1423.28057	0.61879
1421.35200	0.61831
1419.42344	0.61792
1417.49487	0.61695
1415.56631	0.61533
1413.63774	0.61398
1411.70918	0.61307
1409.78062	0.61254
1407.85205	0.61243
1405.92349	0.61264
1403.99492	0.61265
1402.06636	0.61207
1400.13779	0.61111
1398.20923	0.60974
1396.28066	0.60791
1394.35210	0.60566
1392.42354	0.60315
1390.49497	0.60072
1388.56641	0.59836
1386.63784	0.59586
1384.70928	0.59323
1382.78071	0.59055
1380.85215	0.58786
1378.92358	0.58549
1376.99502	0.58381
1375.06646	0.58277
1373.13789	0.58180
1371.20933	0.58063
1369.28076	0.57952
1367.35220	0.57840
1365.42363	0.57726
1363.49507	0.57631
1361.56650	0.57529
1359.63794	0.57395
1357.70937	0.57261
1355.78081	0.57153
1353.85225	0.57064
1351.92368	0.56980
1349.99512	0.56901
1348.06655	0.56826
1346.13799	0.56745
1344.20942	0.56652
1342.28086	0.56557
1340.35229	0.56483
1338.42373	0.56413
1336.49517	0.56332
1334.56660	0.56262
1332.63804	0.56205
1330.70947	0.56153
1328.78091	0.56122
1326.85234	0.56101
1324.92378	0.56074
1322.99521	0.56047
1321.06665	0.56013
1319.13809	0.55970
1317.20952	0.55925
1315.28096	0.55875
1313.35239	0.55819
1311.42383	0.55755
1309.49526	0.55681
1307.56670	0.55611
1305.63813	0.55567
1303.70957	0.55539
1301.78101	0.55497
1299.85244	0.55423
1297.92388	0.55315
1295.99531	0.55196
1294.06675	0.55105
1292.13818	0.55035
1290.20962	0.54954
1288.28105	0.54878
1286.35249	0.54814
1284.42393	0.54731
1282.49536	0.54633
1280.56680	0.54553
1278.63823	0.54483
1276.70967	0.54410
1274.78110	0.54351
1272.85254	0.54300
1270.92397	0.54242
1268.99541	0.54190
1267.06685	0.54145
1265.13828	0.54085
1263.20972	0.54013
1261.28115	0.53941
1259.35259	0.53883
1257.42402	0.53847
1255.49546	0.53826
1253.56689	0.53819
1251.63833	0.53817
1249.70977	0.53803
1247.78120	0.53780
1245.85264	0.53761
1243.92407	0.53731
1241.99551	0.53672
1240.06694	0.53574
1238.13838	0.53446
1236.20981	0.53312
1234.28125	0.53186
1232.35269	0.53061
1230.42412	0.52941
1228.49556	0.52832
1226.56699	0.52717
1224.63843	0.52595
1222.70986	0.52492
1220.78130	0.52407
1218.85273	0.52318
1216.92417	0.52231
1214.99561	0.52154
1213.06704	0.52077
1211.13848	0.52004
1209.20991	0.51935
1207.28135	0.51864
1205.35278	0.51785
1203.42422	0.51704
1201.49565	0.51635
1199.56709	0.51573
1197.63853	0.51503
1195.70996	0.51428
1193.78140	0.51364
1191.85283	0.51319
1189.92427	0.51288
1187.99570	0.51258
1186.06714	0.51230
1184.13857	0.51216
1182.21001	0.51219
1180.28145	0.51247
1178.35288	0.51303
1176.42432	0.51381
1174.49575	0.51450
1172.56719	0.51485
1170.63862	0.51496
1168.71006	0.51507
1166.78149	0.51548
1164.85293	0.51591
1162.92437	0.51593
1160.99580	0.51579
1159.06724	0.51553
1157.13867	0.51489
1155.21011	0.51395
1153.28154	0.51282
1151.35298	0.51153
1149.42441	0.51000
1147.49585	0.50818
1145.56729	0.50616
1143.63872	0.50399
1141.71016	0.50173
1139.78159	0.49949
1137.85303	0.49752
1135.92446	0.49589
1133.99590	0.49444
1132.06733	0.49313
1130.13877	0.49202
1128.21021	0.49089
1126.28164	0.48972
1124.35308	0.48885
1122.42451	0.48819
1120.49595	0.48766
1118.56738	0.48740
1116.63882	0.48741
1114.71025	0.48756
1112.78169	0.48778
1110.85312	0.48820
1108.92456	0.48895
1106.99600	0.48997
1105.06743	0.49115
1103.13887	0.49239
1101.21030	0.49377
1099.28174	0.49546
1097.35317	0.49769
1095.42461	0.50067
1093.49604	0.50452
1091.56748	0.50922
1089.63892	0.51465
1087.71035	0.52067
1085.78179	0.52732
1083.85322	0.53453
1081.92466	0.54156
1079.99609	0.54741
1078.06753	0.55108
1076.13896	0.55188
1074.21040	0.54978
1072.28184	0.54518
1070.35327	0.53881
1068.42471	0.53174
1066.49614	0.52474
1064.56758	0.51823
1062.63901	0.51251
1060.71045	0.50760
1058.78188	0.50333
1056.85332	0.49943
1054.92476	0.49579
1052.99619	0.49270
1051.06763	0.49029
1049.13906	0.48824
1047.21050	0.48649
1045.28193	0.48529
1043.35337	0.48456
1041.42480	0.48407
1039.49624	0.48364
1037.56768	0.48334
1035.63911	0.48328
1033.71055	0.48316
1031.78198	0.48267
1029.85342	0.48206
1027.92485	0.48155
1025.99629	0.48121
1024.06772	0.48105
1022.13916	0.48114
1020.21060	0.48158
1018.28203	0.48221
1016.35347	0.48270
1014.42490	0.48303
1012.49634	0.48353
1010.56777	0.48438
1008.63921	0.48561
1006.71064	0.48716
1004.78208	0.48894
1002.85352	0.49106
1000.92495	0.49364
998.99639	0.49670
997.06782	0.50050
995.13926	0.50473
993.21069	0.50876
991.28213	0.51219
989.35356	0.51460
987.42500	0.51590
985.49644	0.51651
983.56787	0.51696
981.63931	0.51771
979.71074	0.51890
977.78218	0.52051
975.85361	0.52271
973.92505	0.52542
971.99648	0.52841
970.06792	0.53170
968.13936	0.53544
966.21079	0.53968
964.28223	0.54440
962.35366	0.54947
960.42510	0.55473
958.49653	0.56008
956.56797	0.56575
954.63940	0.57199
952.71084	0.57870
950.78228	0.58557
948.85371	0.59224
946.92515	0.59855
944.99658	0.60466
943.06802	0.61084
941.13945	0.61710
939.21089	0.62303
937.28232	0.62849
935.35376	0.63391
933.42520	0.63936
931.49663	0.64497
929.56807	0.65125
927.63950	0.65799
925.71094	0.66429
923.78237	0.67018
921.85381	0.67673
919.92524	0.68406
917.99668	0.69117
916.06812	0.69834
914.13955	0.70642
912.21099	0.71512
910.28242	0.72394
908.35386	0.73248
906.42529	0.74065
904.49673	0.74944
902.56816	0.75925
900.63960	0.76932
898.71104	0.77939
896.78247	0.78969
894.85391	0.79941
892.92534	0.80810
890.99678	0.81747
889.06821	0.82833
887.13965	0.83889
885.21108	0.84874
883.28252	0.85941
881.35396	0.87116
879.42539	0.88367
877.49683	0.89674
875.56826	0.90924
873.63970	0.92015
871.71113	0.93060
869.78257	0.94235
867.85400	0.95430
865.92544	0.96479
863.99687	0.97531
862.06831	0.98672
860.13975	0.99856
858.21118	1.01206
856.28262	1.02658
854.35405	1.03903
852.42549	1.04968
850.49692	1.06218
848.56836	1.07659
846.63979	1.08953
844.71123	1.09975
842.78267	1.10950
840.85410	1.12245
838.92554	1.13687
836.99697	1.14923
835.06841	1.16045
833.13984	1.16948
831.21128	1.17536
829.28271	1.18106
827.35415	1.19098
825.42559	1.20859
823.49702	1.22940
821.56846	1.24298
819.63989	1.24846
817.71133	1.25994
815.78276	1.28769
813.85420	1.31511
811.92563	1.32471
809.99707	1.32995
808.06851	1.34213
806.13994	1.35438
804.21138	1.36438
802.28281	1.38185
800.35425	1.39375
798.42568	1.39212
796.49712	1.40262
794.56855	1.41477
792.63999	1.41887
790.71143	1.48330
788.78286	1.63848
786.85430	1.66864
784.92573	1.56334
782.99717	1.57601
781.06860	1.70237
779.14004	1.78805
777.21147	1.76012
775.28291	1.71134
773.35435	1.62056
771.42578	1.56871
769.49722	1.58472
767.56865	1.62174
765.64009	1.60638
763.71152	1.62727
761.78296	1.63877
759.85439	1.53394
757.92583	1.42885
755.99727	1.33099
754.06870	1.26436
752.14014	1.23377
750.21157	1.31726
748.28301	1.49138
746.35444	1.43038
744.42588	1.22900
742.49731	1.07264
740.56875	0.96796
738.64019	0.92135
736.71162	0.89529
734.78306	0.87312
732.85449	0.82437
730.92593	0.67776
728.99736	0.53907
727.06880	0.46980
725.14023	0.42322
723.21167	0.35770
721.28311	0.29812
719.35454	0.29792
717.42598	0.35888
715.49741	0.33822
713.56885	0.21098
711.64028	0.16558
709.71172	0.21095
707.78315	0.20236
705.85459	0.14813
703.92603	0.18408
701.99746	0.30153
700.06890	0.50552
698.14033	0.57342
696.21177	0.17196
694.28320	-0.02044
692.35464	0.01351
690.42607	0.23034
688.49751	0.43950
686.56895	0.31925
684.64038	0.23341
682.71182	0.20325
680.78325	0.16943
678.85469	0.21518
676.92612	0.34313
674.99756	0.34193
673.06899	0.14861
671.14043	0.01334
669.21187	-0.09977
667.28330	-0.28025
665.35474	-0.48160
663.42617	-0.07118
661.49761	0.07719
659.56904	0.05106
657.64048	0.06296
655.71191	0.19758
653.78335	0.46734
651.85479	0.66360
649.92622	0.54154
647.99766	0.41357
646.06909	0.26259
644.14053	0.08795
642.21196	-0.05336
640.28340	-0.10403
638.35483	-0.02419
636.42627	0.10714
634.49771	0.19736
632.56914	0.25337
630.64058	0.31259
628.71201	0.35149
626.78345	0.26563
624.85488	0.19055
622.92632	0.23617
620.99775	0.35025
619.06919	0.29264
617.14062	0.15969
615.21206	0.11441
613.28350	0.08661
611.35493	0.09635
609.42637	0.27217
607.49780	0.51432
605.56924	0.44412
603.64067	0.26008
601.71211	0.16322
599.78354	0.16169
597.85498	0.21497
595.92642	0.16793
593.99785	0.05129
592.06929	0.04028
590.14072	0.09885
588.21216	0.11972
586.28359	0.09217
584.35503	0.09212
582.42646	0.15969
580.49790	0.25043
578.56934	0.26417
576.64077	0.21941
574.71221	0.15748
572.78364	0.08420
570.85508	0.04345
568.92651	0.11468
566.99795	0.21482
565.06938	0.22326
563.14082	0.24193
561.21226	0.22428
559.28369	0.17796
557.35513	0.22238
555.42656	0.29233
553.49800	0.28527
551.56943	0.28494
549.64087	0.28253
547.71230	0.20632
545.78374	0.14186
543.85518	0.14165
541.92661	0.10926
539.99805	-0.01772
538.06948	-0.05982
536.14092	0.00960
534.21235	0.07981
532.28379	0.10520
530.35522	0.09067
528.42666	0.08463
526.49810	0.13270
524.56953	0.19372
522.64097	0.20935
520.71240	0.20614
518.78384	0.21771
516.85527	0.19538
514.92671	0.11087
512.99814	0.06457
511.06958	0.11572
509.14102	0.22010
507.21245	0.29998
505.28389	0.32019
503.35532	0.28159
501.42676	0.22085
499.49819	0.20976
