3997.91411	0.05544
3995.98555	0.05567
3994.05698	0.05596
3992.12842	0.05636
3990.19985	0.05684
3988.27129	0.05719
3986.34272	0.05741
3984.41416	0.05750
3982.48560	0.05726
3980.55703	0.05723
3978.62847	0.05787
3976.69990	0.05866
3974.77134	0.05908
3972.84277	0.05915
3970.91421	0.05908
3968.98564	0.05895
3967.05708	0.05891
3965.12852	0.05913
3963.19995	0.05937
3961.27139	0.05941
3959.34282	0.05938
3957.41426	0.05946
3955.48569	0.05984
3953.55713	0.06028
3951.62856	0.06035
3949.70000	0.06048
3947.77144	0.06091
3945.84287	0.06104
3943.91431	0.06086
3941.98574	0.06055
3940.05718	0.06009
3938.12861	0.05977
3936.20005	0.05948
3934.27148	0.05911
3932.34292	0.05888
3930.41436	0.05881
3928.48579	0.05862
3926.55723	0.05822
3924.62866	0.05826
3922.70010	0.05897
3920.77153	0.05942
3918.84297	0.05920
3916.91440	0.05890
3914.98584	0.05878
3913.05728	0.05877
3911.12871	0.05894
3909.20015	0.05913
3907.27158	0.05906
3905.34302	0.05882
3903.41445	0.05849
3901.48589	0.05783
3899.55732	0.05740
3897.62876	0.05792
3895.70020	0.05874
3893.77163	0.05913
3891.84307	0.05914
3889.91450	0.05906
3887.98594	0.05869
3886.05737	0.05799
3884.12881	0.05766
3882.20024	0.05795
3880.27168	0.05826
3878.34312	0.05875
3876.41455	0.05912
3874.48599	0.05881
3872.55742	0.05863
3870.62886	0.05940
3868.70029	0.06034
3866.77173	0.06042
3864.84316	0.06026
3862.91460	0.06066
3860.98604	0.06134
3859.05747	0.06188
3857.12891	0.06206
3855.20034	0.06131
3853.27178	0.05979
3851.34321	0.06031
3849.41465	0.06257
3847.48608	0.06427
3845.55752	0.06536
3843.62896	0.06602
3841.70039	0.06626
3839.77183	0.06591
3837.84326	0.06572
3835.91470	0.06649
3833.98613	0.06741
3832.05757	0.06803
3830.12900	0.06900
3828.20044	0.07033
3826.27187	0.07131
3824.34331	0.07156
3822.41475	0.07140
3820.48618	0.07201
3818.55762	0.07362
3816.62905	0.07489
3814.70049	0.07610
3812.77192	0.07753
3810.84336	0.07856
3808.91479	0.07916
3806.98623	0.07976
3805.05767	0.08066
3803.12910	0.08136
3801.20054	0.08213
3799.27197	0.08394
3797.34341	0.08577
3795.41484	0.08736
3793.48628	0.08904
3791.55771	0.09032
3789.62915	0.09128
3787.70059	0.09226
3785.77202	0.09332
3783.84346	0.09447
3781.91489	0.09566
3779.98633	0.09706
3778.05776	0.09911
3776.12920	0.10124
3774.20063	0.10293
3772.27207	0.10430
3770.34351	0.10570
3768.41494	0.10767
3766.48638	0.10969
3764.55781	0.11142
3762.62925	0.11312
3760.70068	0.11480
3758.77212	0.11682
3756.84355	0.11925
3754.91499	0.12115
3752.98643	0.12244
3751.05786	0.12402
3749.12930	0.12714
3747.20073	0.13064
3745.27217	0.13307
3743.34360	0.13619
3741.41504	0.14024
3739.48647	0.14321
3737.55791	0.14561
3735.62935	0.14827
3733.70078	0.15174
3731.77222	0.15653
3729.84365	0.16182
3727.91509	0.16661
3725.98652	0.17165
3724.05796	0.17787
3722.12939	0.18524
3720.20083	0.19344
3718.27227	0.20201
3716.34370	0.21068
3714.41514	0.21876
3712.48657	0.22689
3710.55801	0.23765
3708.62944	0.25111
3706.70088	0.26379
3704.77231	0.27522
3702.84375	0.28752
3700.91519	0.30372
3698.98662	0.32258
3697.05806	0.34075
3695.12949	0.35927
3693.20093	0.37821
3691.27236	0.39812
3689.34380	0.42458
3687.41523	0.45970
3685.48667	0.49180
3683.55811	0.51894
3681.62954	0.54719
3679.70098	0.57845
3677.77241	0.61064
3675.84385	0.64780
3673.91528	0.69900
3671.98672	0.74284
3670.05815	0.78191
3668.12959	0.83504
3666.20103	0.88423
3664.27246	0.92538
3662.34390	0.96865
3660.41533	1.01492
3658.48677	1.06029
3656.55820	1.10801
3654.62964	1.16182
3652.70107	1.20786
3650.77251	1.24658
3648.84395	1.29823
3646.91538	1.36460
3644.98682	1.41642
3643.05825	1.45641
3641.12969	1.49655
3639.20112	1.54017
3637.27256	1.58362
3635.34399	1.62523
3633.41543	1.66586
3631.48687	1.70351
3629.55830	1.74169
3627.62974	1.79369
3625.70117	1.84580
3623.77261	1.88143
3621.84404	1.91378
3619.91548	1.95067
3617.98691	1.99608
3616.05835	2.03999
3614.12979	2.07630
3612.20122	2.11506
3610.27266	2.15522
3608.34409	2.19549
3606.41553	2.23726
3604.48696	2.27591
3602.55840	2.31114
3600.62983	2.34903
3598.70127	2.38955
3596.77271	2.42853
3594.84414	2.46808
3592.91558	2.51060
3590.98701	2.55178
3589.05845	2.58815
3587.12988	2.62807
3585.20132	2.67408
3583.27275	2.71695
3581.34419	2.75712
3579.41562	2.79819
3577.48706	2.84018
3575.55850	2.88328
3573.62993	2.92764
3571.70137	2.97009
3569.77280	3.00945
3567.84424	3.04829
3565.91567	3.09581
3563.98711	3.14697
3562.05854	3.19128
3560.12998	3.23459
3558.20142	3.27875
3556.27285	3.32199
3554.34429	3.36475
3552.41572	3.40986
3550.48716	3.45791
3548.55859	3.50593
3546.63003	3.55119
3544.70146	3.59812
3542.77290	3.64817
3540.84434	3.69564
3538.91577	3.74101
3536.98721	3.78541
3535.05864	3.83098
3533.13008	3.87937
3531.20151	3.92780
3529.27295	3.97344
3527.34438	4.02090
3525.41582	4.07038
3523.48726	4.11600
3521.55869	4.16353
3519.63013	4.21549
3517.70156	4.26624
3515.77300	4.31399
3513.84443	4.35946
3511.91587	4.40448
3509.98730	4.45099
3508.05874	4.49973
3506.13018	4.55145
3504.20161	4.60163
3502.27305	4.64835
3500.34448	4.69756
3498.41592	4.75055
3496.48735	4.80433
3494.55879	4.85196
3492.63022	4.89164
3490.70166	4.93603
3488.77310	4.98700
3486.84453	5.03208
3484.91597	5.07538
3482.98740	5.12310
3481.05884	5.17008
3479.13027	5.21827
3477.20171	5.27163
3475.27314	5.32598
3473.34458	5.37516
3471.41602	5.42266
3469.48745	5.47356
3467.55889	5.52355
3465.63032	5.56998
3463.70176	5.61666
3461.77319	5.66065
3459.84463	5.70054
3457.91606	5.74502
3455.98750	5.79616
3454.05894	5.85147
3452.13037	5.91768
3450.20181	5.98202
3448.27324	6.01442
3446.34468	6.03594
3444.41611	6.08658
3442.48755	6.14857
3440.55898	6.18827
3438.63042	6.22142
3436.70186	6.27455
3434.77329	6.34341
3432.84473	6.40944
3430.91616	6.45782
3428.98760	6.49198
3427.05903	6.53386
3425.13047	6.59727
3423.20190	6.65539
3421.27334	6.70797
3419.34478	6.77152
3417.41621	6.82320
3415.48765	6.86282
3413.55908	6.90561
3411.63052	6.93787
3409.70195	6.94206
3407.77339	6.95463
3405.84482	6.99930
3403.91626	7.05495
3401.98770	7.11159
3400.05913	7.16284
3398.13057	7.20167
3396.20200	7.22536
3394.27344	7.22185
3392.34487	7.23196
3390.41631	7.29875
3388.48774	7.36163
3386.55918	7.41035
3384.63062	7.47669
3382.70205	7.55255
3380.77349	7.62750
3378.84492	7.67684
3376.91636	7.68953
3374.98779	7.69501
3373.05923	7.75019
3371.13066	7.80306
3369.20210	7.79711
3367.27354	7.79632
3365.34497	7.82697
3363.41641	7.82634
3361.48784	7.79487
3359.55928	7.79934
3357.63071	7.83005
3355.70215	7.85769
3353.77358	7.85716
3351.84502	7.83193
3349.91646	7.79534
3347.98789	7.75656
3346.05933	7.77035
3344.13076	7.88398
3342.20220	7.98516
3340.27363	7.91236
3338.34507	7.81383
3336.41650	7.83845
3334.48794	7.92715
3332.55937	8.00352
3330.63081	8.04074
3328.70225	7.98206
3326.77368	7.88427
3324.84512	7.87493
3322.91655	7.93770
3320.98799	7.96480
3319.05942	7.96335
3317.13086	8.04993
3315.20229	8.18267
3313.27373	8.21271
3311.34517	8.13156
3309.41660	8.06748
3307.48804	8.05721
3305.55947	8.04632
3303.63091	8.05025
3301.70234	8.07779
3299.77378	8.14186
3297.84521	8.21550
3295.91665	8.19184
3293.98809	8.07687
3292.05952	8.00303
3290.13096	7.97918
3288.20239	7.98160
3286.27383	8.06990
3284.34526	8.18812
3282.41670	8.22583
3280.48813	8.16913
3278.55957	8.09080
3276.63101	8.02233
3274.70244	7.97780
3272.77388	8.00977
3270.84531	8.11207
3268.91675	8.21546
3266.98818	8.23625
3265.05962	8.18685
3263.13105	8.13356
3261.20249	8.12591
3259.27393	8.17115
3257.34536	8.19430
3255.41680	8.11897
3253.48823	8.02670
3251.55967	8.02562
3249.63110	8.05802
3247.70254	8.08474
3245.77397	8.14405
3243.84541	8.20920
3241.91685	8.19621
3239.98828	8.05802
3238.05972	7.91784
3236.13115	7.90500
3234.20259	7.97362
3232.27402	8.03836
3230.34546	8.07644
3228.41689	8.06522
3226.48833	8.01392
3224.55977	7.97115
3222.63120	8.02835
3220.70264	8.20480
3218.77407	8.32296
3216.84551	8.25560
3214.91694	8.13157
3212.98838	8.04683
3211.05981	7.95324
3209.13125	7.83976
3207.20269	7.80351
3205.27412	7.85971
3203.34556	7.92816
3201.41699	7.94725
3199.48843	7.87514
3197.55986	7.76123
3195.63130	7.69323
3193.70273	7.65448
3191.77417	7.59442
3189.84561	7.55433
3187.91704	7.54806
3185.98848	7.51672
3184.05991	7.46748
3182.13135	7.40631
3180.20278	7.33183
3178.27422	7.25978
3176.34565	7.18129
3174.41709	7.11780
3172.48853	7.08337
3170.55996	7.04875
3168.63140	6.98774
3166.70283	6.91021
3164.77427	6.86172
3162.84570	6.83894
3160.91714	6.78444
3158.98857	6.71406
3157.06001	6.66141
3155.13145	6.60458
3153.20288	6.53915
3151.27432	6.47212
3149.34575	6.39869
3147.41719	6.32465
3145.48862	6.25703
3143.56006	6.18968
3141.63149	6.10858
3139.70293	6.01520
3137.77437	5.93122
3135.84580	5.86415
3133.91724	5.80741
3131.98867	5.75172
3130.06011	5.68184
3128.13154	5.60082
3126.20298	5.52754
3124.27441	5.46800
3122.34585	5.40926
3120.41729	5.33724
3118.48872	5.25312
3116.56016	5.16777
3114.63159	5.09211
3112.70303	5.02682
3110.77446	4.96077
3108.84590	4.88901
3106.91733	4.81676
3104.98877	4.74645
3103.06021	4.67721
3101.13164	4.60885
3099.20308	4.54191
3097.27451	4.47675
3095.34595	4.41278
3093.41738	4.34721
3091.48882	4.27902
3089.56025	4.21210
3087.63169	4.14670
3085.70312	4.08022
3083.77456	4.01660
3081.84600	3.95712
3079.91743	3.89432
3077.98887	3.82797
3076.06030	3.76446
3074.13174	3.70408
3072.20317	3.64479
3070.27461	3.58537
3068.34604	3.52482
3066.41748	3.46592
3064.48892	3.41151
3062.56035	3.35798
3060.63179	3.30203
3058.70322	3.24574
3056.77466	3.18930
3054.84609	3.13228
3052.91753	3.07841
3050.98896	3.02794
3049.06040	2.97741
3047.13184	2.92706
3045.20327	2.87755
3043.27471	2.82794
3041.34614	2.77838
3039.41758	2.72955
3037.48901	2.68192
3035.56045	2.63514
3033.63188	2.58827
3031.70332	2.54111
3029.77476	2.49545
3027.84619	2.45217
3025.91763	2.40929
3023.98906	2.36665
3022.06050	2.32552
3020.13193	2.28511
3018.20337	2.24430
3016.27480	2.20322
3014.34624	2.16292
3012.41768	2.12378
3010.48911	2.08536
3008.56055	2.04791
3006.63198	2.01137
3004.70342	1.97492
3002.77485	1.93879
3000.84629	1.90389
2998.91772	1.86970
2996.98916	1.83567
2995.06060	1.80223
2993.13203	1.76948
2991.20347	1.73735
2989.27490	1.70564
2987.34634	1.67405
2985.41777	1.64319
2983.48921	1.61335
2981.56064	1.58395
2979.63208	1.55483
2977.70352	1.52606
2975.77495	1.49756
2973.84639	1.46932
2971.91782	1.44150
2969.98926	1.41412
2968.06069	1.38715
2966.13213	1.36081
2964.20356	1.33504
2962.27500	1.30969
2960.34644	1.28478
2958.41787	1.26048
2956.48931	1.23743
2954.56074	1.21535
2952.63218	1.19312
2950.70361	1.17085
2948.77505	1.14918
2946.84648	1.12819
2944.91792	1.10764
2942.98936	1.08683
2941.06079	1.06587
2939.13223	1.04567
2937.20366	1.02613
2935.27510	1.00686
2933.34653	0.98797
2931.41797	0.96926
2929.48940	0.95094
2927.56084	0.93342
2925.63228	0.91623
2923.70371	0.89926
2921.77515	0.88304
2919.84658	0.86695
2917.91802	0.85039
2915.98945	0.83402
2914.06089	0.81865
2912.13232	0.80440
2910.20376	0.79094
2908.27520	0.77764
2906.34663	0.76398
2904.41807	0.75007
2902.48950	0.73643
2900.56094	0.72315
2898.63237	0.71045
2896.70381	0.69857
2894.77524	0.68691
2892.84668	0.67506
2890.91812	0.66343
2888.98955	0.65210
2887.06099	0.64078
2885.13242	0.62950
2883.20386	0.61843
2881.27529	0.60752
2879.34673	0.59679
2877.41816	0.58629
2875.48960	0.57590
2873.56104	0.56561
2871.63247	0.55559
2869.70391	0.54595
2867.77534	0.53669
2865.84678	0.52755
2863.91821	0.51828
2861.98965	0.50911
2860.06108	0.50031
2858.13252	0.49169
2856.20396	0.48300
2854.27539	0.47460
2852.34683	0.46662
2850.41826	0.45862
2848.48970	0.45062
2846.56113	0.44301
2844.63257	0.43607
2842.70400	0.42960
2840.77544	0.42343
2838.84687	0.41750
2836.91831	0.41140
2834.98975	0.40518
2833.06118	0.39935
2831.13262	0.39356
2829.20405	0.38742
2827.27549	0.38140
2825.34692	0.37574
2823.41836	0.37016
2821.48979	0.36457
2819.56123	0.35902
2817.63267	0.35336
2815.70410	0.34769
2813.77554	0.34236
2811.84697	0.33737
2809.91841	0.33245
2807.98984	0.32749
2806.06128	0.32253
2804.13271	0.31759
2802.20415	0.31281
2800.27559	0.30836
2798.34702	0.30403
2796.41846	0.29963
2794.48989	0.29526
2792.56133	0.29090
2790.63276	0.28656
2788.70420	0.28239
2786.77563	0.27839
2784.84707	0.27443
2782.91851	0.27059
2780.98994	0.26695
2779.06138	0.26332
2777.13281	0.25969
2775.20425	0.25623
2773.27568	0.25297
2771.34712	0.24981
2769.41855	0.24658
2767.48999	0.24326
2765.56143	0.24001
2763.63286	0.23693
2761.70430	0.23391
2759.77573	0.23084
2757.84717	0.22778
2755.91860	0.22482
2753.99004	0.22210
2752.06147	0.21965
2750.13291	0.21726
2748.20435	0.21473
2746.27578	0.21219
2744.34722	0.20980
2742.41865	0.20743
2740.49009	0.20497
2738.56152	0.20257
2736.63296	0.20026
2734.70439	0.19795
2732.77583	0.19569
2730.84727	0.19356
2728.91870	0.19151
2726.99014	0.18953
2725.06157	0.18766
2723.13301	0.18590
2721.20444	0.18411
2719.27588	0.18225
2717.34731	0.18043
2715.41875	0.17863
2713.49019	0.17680
2711.56162	0.17509
2709.63306	0.17360
2707.70449	0.17212
2705.77593	0.17058
2703.84736	0.16906
2701.91880	0.16755
2699.99023	0.16608
2698.06167	0.16477
2696.13311	0.16347
2694.20454	0.16210
2692.27598	0.16080
2690.34741	0.15958
2688.41885	0.15844
2686.49028	0.15744
2684.56172	0.15642
2682.63315	0.15525
2680.70459	0.15410
2678.77603	0.15315
2676.84746	0.15219
2674.91890	0.15107
2672.99033	0.14997
2671.06177	0.14902
2669.13320	0.14803
2667.20464	0.14690
2665.27607	0.14585
2663.34751	0.14511
2661.41895	0.14460
2659.49038	0.14419
2657.56182	0.14371
2655.63325	0.14297
2653.70469	0.14211
2651.77612	0.14144
2649.84756	0.14089
2647.91899	0.14031
2645.99043	0.13967
2644.06187	0.13905
2642.13330	0.13861
2640.20474	0.13833
2638.27617	0.13802
2636.34761	0.13770
2634.41904	0.13740
2632.49048	0.13701
2630.56191	0.13664
2628.63335	0.13643
2626.70479	0.13631
2624.77622	0.13613
2622.84766	0.13585
2620.91909	0.13558
2618.99053	0.13547
2617.06196	0.13536
2615.13340	0.13522
2613.20483	0.13513
2611.27627	0.13505
2609.34771	0.13505
2607.41914	0.13525
2605.49058	0.13552
2603.56201	0.13567
2601.63345	0.13569
2599.70488	0.13567
2597.77632	0.13574
2595.84775	0.13591
2593.91919	0.13603
2591.99062	0.13622
2590.06206	0.13664
2588.13350	0.13700
2586.20493	0.13718
2584.27637	0.13741
2582.34780	0.13764
2580.41924	0.13776
2578.49067	0.13798
2576.56211	0.13839
2574.63354	0.13882
2572.70498	0.13922
2570.77642	0.13979
2568.84785	0.14038
2566.91929	0.14076
2564.99072	0.14115
2563.06216	0.14184
2561.13359	0.14261
2559.20503	0.14323
2557.27646	0.14376
2555.34790	0.14419
2553.41934	0.14461
2551.49077	0.14509
2549.56221	0.14566
2547.63364	0.14628
2545.70508	0.14690
2543.77651	0.14750
2541.84795	0.14819
2539.91938	0.14903
2537.99082	0.14979
2536.06226	0.15041
2534.13369	0.15113
2532.20513	0.15202
2530.27656	0.15286
2528.34800	0.15363
2526.41943	0.15449
2524.49087	0.15544
2522.56230	0.15631
2520.63374	0.15708
2518.70518	0.15778
2516.77661	0.15843
2514.84805	0.15912
2512.91948	0.15991
2510.99092	0.16077
2509.06235	0.16163
2507.13379	0.16243
2505.20522	0.16326
2503.27666	0.16426
2501.34810	0.16537
2499.41953	0.16635
2497.49097	0.16722
2495.56240	0.16811
2493.63384	0.16895
2491.70527	0.16977
2489.77671	0.17070
2487.84814	0.17169
2485.91958	0.17272
2483.99102	0.17384
2482.06245	0.17487
2480.13389	0.17569
2478.20532	0.17654
2476.27676	0.17750
2474.34819	0.17846
2472.41963	0.17938
2470.49106	0.18029
2468.56250	0.18123
2466.63394	0.18221
2464.70537	0.18322
2462.77681	0.18427
2460.84824	0.18530
2458.91968	0.18621
2456.99111	0.18718
2455.06255	0.18828
2453.13398	0.18926
2451.20542	0.19022
2449.27686	0.19127
2447.34829	0.19230
2445.41973	0.19336
2443.49116	0.19446
2441.56260	0.19550
2439.63403	0.19656
2437.70547	0.19773
2435.77690	0.19886
2433.84834	0.19987
2431.91978	0.20085
2429.99121	0.20198
2428.06265	0.20315
2426.13408	0.20427
2424.20552	0.20534
2422.27695	0.20642
2420.34839	0.20761
2418.41982	0.20888
2416.49126	0.21006
2414.56270	0.21110
2412.63413	0.21212
2410.70557	0.21330
2408.77700	0.21461
2406.84844	0.21585
2404.91987	0.21695
2402.99131	0.21811
2401.06274	0.21959
2399.13418	0.22112
2397.20562	0.22235
2395.27705	0.22342
2393.34849	0.22456
2391.41992	0.22571
2389.49136	0.22685
2387.56279	0.22797
2385.63423	0.22871
2383.70566	0.22861
2381.77710	0.22758
2379.84854	0.22580
2377.91997	0.22356
2375.99141	0.22092
2374.06284	0.21762
2372.13428	0.21331
2370.20571	0.20807
2368.27715	0.20255
2366.34858	0.19728
2364.42002	0.19317
2362.49146	0.19188
2360.56289	0.19310
2358.63433	0.19502
2356.70576	0.19833
2354.77720	0.20493
2352.84863	0.21476
2350.92007	0.22472
2348.99150	0.23076
2347.06294	0.23181
2345.13437	0.22872
2343.20581	0.22484
2341.27725	0.22510
2339.34868	0.22810
2337.42012	0.23007
2335.49155	0.23138
2333.56299	0.23341
2331.63442	0.23629
2329.70586	0.23952
2327.77729	0.24290
2325.84873	0.24649
2323.92017	0.25027
2321.99160	0.25469
2320.06304	0.25971
2318.13447	0.26452
2316.20591	0.26858
2314.27734	0.27200
2312.34878	0.27502
2310.42021	0.27797
2308.49165	0.28128
2306.56309	0.28480
2304.63452	0.28808
2302.70596	0.29103
2300.77739	0.29377
2298.84883	0.29643
2296.92026	0.29912
2294.99170	0.30179
2293.06313	0.30434
2291.13457	0.30684
2289.20601	0.30937
2287.27744	0.31184
2285.34888	0.31425
2283.42031	0.31656
2281.49175	0.31863
2279.56318	0.32046
2277.63462	0.32232
2275.70605	0.32436
2273.77749	0.32642
2271.84893	0.32849
2269.92036	0.33067
2267.99180	0.33291
2266.06323	0.33508
2264.13467	0.33723
2262.20610	0.33943
2260.27754	0.34168
2258.34897	0.34401
2256.42041	0.34631
2254.49185	0.34853
2252.56328	0.35080
2250.63472	0.35320
2248.70615	0.35564
2246.77759	0.35792
2244.84902	0.36005
2242.92046	0.36223
2240.99189	0.36452
2239.06333	0.36685
2237.13477	0.36922
2235.20620	0.37150
2233.27764	0.37366
2231.34907	0.37592
2229.42051	0.37824
2227.49194	0.38045
2225.56338	0.38268
2223.63481	0.38496
2221.70625	0.38719
2219.77769	0.38940
2217.84912	0.39158
2215.92056	0.39376
2213.99199	0.39594
2212.06343	0.39811
2210.13486	0.40033
2208.20630	0.40260
2206.27773	0.40486
2204.34917	0.40696
2202.42061	0.40885
2200.49204	0.41068
2198.56348	0.41259
2196.63491	0.41468
2194.70635	0.41675
2192.77778	0.41863
2190.84922	0.42051
2188.92065	0.42250
2186.99209	0.42446
2185.06353	0.42634
2183.13496	0.42818
2181.20640	0.42995
2179.27783	0.43156
2177.34927	0.43299
2175.42070	0.43440
2173.49214	0.43596
2171.56357	0.43746
2169.63501	0.43877
2167.70645	0.44014
2165.77788	0.44163
2163.84932	0.44294
2161.92075	0.44399
2159.99219	0.44495
2158.06362	0.44586
2156.13506	0.44681
2154.20649	0.44783
2152.27793	0.44875
2150.34937	0.44950
2148.42080	0.45013
2146.49224	0.45070
2144.56367	0.45115
2142.63511	0.45144
2140.70654	0.45165
2138.77798	0.45192
2136.84941	0.45221
2134.92085	0.45245
2132.99229	0.45257
2131.06372	0.45253
2129.13516	0.45228
2127.20659	0.45190
2125.27803	0.45157
2123.34946	0.45123
2121.42090	0.45069
2119.49233	0.44998
2117.56377	0.44927
2115.63521	0.44853
2113.70664	0.44773
2111.77808	0.44697
2109.84951	0.44614
2107.92095	0.44516
2105.99238	0.44408
2104.06382	0.44287
2102.13525	0.44146
2100.20669	0.43998
2098.27812	0.43859
2096.34956	0.43724
2094.42100	0.43572
2092.49243	0.43403
2090.56387	0.43230
2088.63530	0.43051
2086.70674	0.42867
2084.77817	0.42679
2082.84961	0.42487
2080.92104	0.42291
2078.99248	0.42099
2077.06392	0.41902
2075.13535	0.41692
2073.20679	0.41466
2071.27822	0.41224
2069.34966	0.40991
2067.42109	0.40772
2065.49253	0.40542
2063.56396	0.40292
2061.63540	0.40045
2059.70684	0.39807
2057.77827	0.39568
2055.84971	0.39316
2053.92114	0.39051
2051.99258	0.38782
2050.06401	0.38506
2048.13545	0.38238
2046.20688	0.37980
2044.27832	0.37714
2042.34976	0.37448
2040.42119	0.37194
2038.49263	0.36933
2036.56406	0.36652
2034.63550	0.36373
2032.70693	0.36099
2030.77837	0.35814
2028.84980	0.35520
2026.92124	0.35236
2024.99268	0.34959
2023.06411	0.34680
2021.13555	0.34398
2019.20698	0.34125
2017.27842	0.33865
2015.34985	0.33598
2013.42129	0.33317
2011.49272	0.33033
2009.56416	0.32756
2007.63560	0.32485
2005.70703	0.32216
2003.77847	0.31951
2001.84990	0.31688
1999.92134	0.31421
1997.99277	0.31159
1996.06421	0.30908
1994.13564	0.30656
1992.20708	0.30395
1990.27852	0.30136
1988.34995	0.29889
1986.42139	0.29647
1984.49282	0.29420
1982.56426	0.29203
1980.63569	0.28979
1978.70713	0.28751
1976.77856	0.28521
1974.85000	0.28292
1972.92144	0.28069
1970.99287	0.27850
1969.06431	0.27635
1967.13574	0.27430
1965.20718	0.27237
1963.27861	0.27042
1961.35005	0.26838
1959.42148	0.26639
1957.49292	0.26456
1955.56436	0.26289
1953.63579	0.26128
1951.70723	0.25964
1949.77866	0.25800
1947.85010	0.25637
1945.92153	0.25480
1943.99297	0.25324
1942.06440	0.25172
1940.13584	0.25029
1938.20728	0.24896
1936.27871	0.24766
1934.35015	0.24637
1932.42158	0.24512
1930.49302	0.24392
1928.56445	0.24281
1926.63589	0.24181
1924.70732	0.24085
1922.77876	0.23988
1920.85020	0.23893
1918.92163	0.23804
1916.99307	0.23721
1915.06450	0.23642
1913.13594	0.23559
1911.20737	0.23475
1909.27881	0.23384
1907.35024	0.23307
1905.42168	0.23248
1903.49312	0.23200
1901.56455	0.23162
1899.63599	0.23120
1897.70742	0.23066
1895.77886	0.23012
1893.85029	0.22975
1891.92173	0.22940
1889.99316	0.22907
1888.06460	0.22889
1886.13604	0.22880
1884.20747	0.22866
1882.27891	0.22850
1880.35034	0.22842
1878.42178	0.22838
1876.49321	0.22840
1874.56465	0.22842
1872.63608	0.22844
1870.70752	0.22833
1868.77896	0.22841
1866.85039	0.22886
1864.92183	0.22927
1862.99326	0.22947
1861.06470	0.22969
1859.13613	0.23012
1857.20757	0.23057
1855.27900	0.23105
1853.35044	0.23155
1851.42187	0.23210
1849.49331	0.23263
1847.56475	0.23314
1845.63618	0.23374
1843.70762	0.23460
1841.77905	0.23550
1839.85049	0.23611
1837.92192	0.23691
1835.99336	0.23797
1834.06479	0.23902
1832.13623	0.23986
1830.20767	0.24093
1828.27910	0.24236
1826.35054	0.24361
1824.42197	0.24490
1822.49341	0.24630
1820.56484	0.24780
1818.63628	0.24932
1816.70771	0.25090
1814.77915	0.25240
1812.85059	0.25395
1810.92202	0.25583
1808.99346	0.25795
1807.06489	0.26008
1805.13633	0.26209
1803.20776	0.26420
1801.27920	0.26650
1799.35063	0.26933
1797.42207	0.27211
1795.49351	0.27456
1793.56494	0.27718
1791.63638	0.28078
1789.70781	0.28462
1787.77925	0.28752
1785.85068	0.29060
1783.92212	0.29416
1781.99355	0.29801
1780.06499	0.30218
1778.13643	0.30667
1776.20786	0.31078
1774.27930	0.31476
1772.35073	0.32004
1770.42217	0.32633
1768.49360	0.33214
1766.56504	0.33779
1764.63647	0.34335
1762.70791	0.34903
1760.77935	0.35623
1758.85078	0.36336
1756.92222	0.37072
1754.99365	0.37880
1753.06509	0.38587
1751.13652	0.39385
1749.20796	0.40405
1747.27939	0.41450
1745.35083	0.42391
1743.42227	0.43387
1741.49370	0.44484
1739.56514	0.45773
1737.63657	0.47040
1735.70801	0.48088
1733.77944	0.49656
1731.85088	0.51644
1729.92231	0.53274
1727.99375	0.54924
1726.06519	0.56680
1724.13662	0.58549
1722.20806	0.60528
1720.27949	0.62309
1718.35093	0.64347
1716.42236	0.67483
1714.49380	0.70616
1712.56523	0.73162
1710.63667	0.75583
1708.70811	0.78137
1706.77954	0.80989
1704.85098	0.84397
1702.92241	0.87449
1700.99385	0.90384
1699.06528	0.94721
1697.13672	0.98776
1695.20815	1.02996
1693.27959	1.07103
1691.35103	1.10337
1689.42246	1.13952
1687.49390	1.17689
1685.56533	1.21244
1683.63677	1.26789
1681.70820	1.32608
1679.77964	1.36334
1677.85107	1.39843
1675.92251	1.43810
1673.99395	1.48672
1672.06538	1.52987
1670.13682	1.57216
1668.20825	1.62750
1666.27969	1.67171
1664.35112	1.70658
1662.42256	1.74815
1660.49399	1.79556
1658.56543	1.83332
1656.63687	1.86421
1654.70830	1.89309
1652.77974	1.94117
1650.85117	1.99099
1648.92261	2.01172
1646.99404	2.03904
1645.06548	2.07452
1643.13691	2.09894
1641.20835	2.11273
1639.27979	2.12351
1637.35122	2.12955
1635.42266	2.13187
1633.49409	2.13226
1631.56553	2.12539
1629.63696	2.11213
1627.70840	2.08803
1625.77983	2.06067
1623.85127	2.02708
1621.92271	1.98489
1619.99414	1.94666
1618.06558	1.90833
1616.13701	1.85200
1614.20845	1.79426
1612.27988	1.75087
1610.35132	1.70545
1608.42275	1.65472
1606.49419	1.60360
1604.56562	1.55698
1602.63706	1.51210
1600.70850	1.46720
1598.77993	1.42516
1596.85137	1.38530
1594.92280	1.34647
1592.99424	1.30921
1591.06567	1.27519
1589.13711	1.24277
1587.20854	1.21147
1585.27998	1.18157
1583.35142	1.15318
1581.42285	1.12697
1579.49429	1.10392
1577.56572	1.08202
1575.63716	1.05463
1573.70859	1.03092
1571.78003	1.01516
1569.85146	0.99719
1567.92290	0.97653
1565.99434	0.96015
1564.06577	0.94559
1562.13721	0.93273
1560.20864	0.92055
1558.28008	0.89911
1556.35151	0.88158
1554.42295	0.87162
1552.49438	0.86131
1550.56582	0.85088
1548.63726	0.84032
1546.70869	0.83100
1544.78013	0.82213
1542.85156	0.81262
1540.92300	0.80206
1538.99443	0.79010
1537.06587	0.78255
1535.13730	0.77706
1533.20874	0.76985
1531.28018	0.76235
1529.35161	0.75666
1527.42305	0.75082
1525.49448	0.74440
1523.56592	0.73836
1521.63735	0.73204
1519.70879	0.72594
1517.78022	0.72131
1515.85166	0.71656
1513.92310	0.71188
1511.99453	0.70767
1510.06597	0.70339
1508.13740	0.69906
1506.20884	0.69386
1504.28027	0.68989
1502.35171	0.68722
1500.42314	0.68441
1498.49458	0.68106
1496.56602	0.67747
1494.63745	0.67454
1492.70889	0.67201
1490.78032	0.66906
1488.85176	0.66574
1486.92319	0.66332
1484.99463	0.66141
1483.06606	0.65937
1481.13750	0.65710
1479.20894	0.65467
1477.28037	0.65236
1475.35181	0.65016
1473.42324	0.64772
1471.49468	0.64478
1469.56611	0.64242
1467.63755	0.64047
1465.70898	0.63819
1463.78042	0.63563
1461.85186	0.63357
1459.92329	0.63197
1457.99473	0.62994
1456.06616	0.62697
1454.13760	0.62456
1452.20903	0.62272
1450.28047	0.62066
1448.35190	0.61836
1446.42334	0.61621
1444.49478	0.61443
1442.56621	0.61271
1440.63765	0.61101
1438.70908	0.60947
1436.78052	0.60787
1434.85195	0.60637
1432.92339	0.60506
1430.99482	0.60372
1429.06626	0.60227
1427.13770	0.60076
1425.20913	0.59927
1423.28057	0.59790
1421.35200	0.59659
1419.42344	0.59515
1417.49487	0.59378
1415.56631	0.59247
1413.63774	0.59097
1411.70918	0.58928
1409.78062	0.58753
1407.85205	0.58582
1405.92349	0.58420
1403.99492	0.58266
1402.06636	0.58126
1400.13779	0.57983
1398.20923	0.57812
1396.28066	0.57636
1394.35210	0.57496
1392.42354	0.57388
1390.49497	0.57279
1388.56641	0.57157
1386.63784	0.57042
1384.70928	0.56944
1382.78071	0.56856
1380.85215	0.56771
1378.92358	0.56689
1376.99502	0.56606
1375.06646	0.56527
1373.13789	0.56469
1371.20933	0.56420
1369.28076	0.56353
1367.35220	0.56271
1365.42363	0.56176
1363.49507	0.56052
1361.56650	0.55921
1359.63794	0.55833
1357.70937	0.55767
1355.78081	0.55678
1353.85225	0.55575
1351.92368	0.55477
1349.99512	0.55378
1348.06655	0.55281
1346.13799	0.55182
1344.20942	0.55072
1342.28086	0.54963
1340.35229	0.54854
1338.42373	0.54747
1336.49517	0.54658
1334.56660	0.54583
1332.63804	0.54510
1330.70947	0.54436
1328.78091	0.54353
1326.85234	0.54257
1324.92378	0.54160
1322.99521	0.54073
1321.06665	0.53992
1319.13809	0.53920
1317.20952	0.53860
1315.28096	0.53799
1313.35239	0.53719
1311.42383	0.53629
1309.49526	0.53539
1307.56670	0.53442
1305.63813	0.53333
1303.70957	0.53240
1301.78101	0.53173
1299.85244	0.53089
1297.92388	0.52988
1295.99531	0.52902
1294.06675	0.52842
1292.13818	0.52796
1290.20962	0.52748
1288.28105	0.52683
1286.35249	0.52606
1284.42393	0.52551
1282.49536	0.52517
1280.56680	0.52472
1278.63823	0.52405
1276.70967	0.52350
1274.78110	0.52310
1272.85254	0.52273
1270.92397	0.52244
1268.99541	0.52213
1267.06685	0.52167
1265.13828	0.52110
1263.20972	0.52054
1261.28115	0.52014
1259.35259	0.51994
1257.42402	0.51975
1255.49546	0.51939
1253.56689	0.51886
1251.63833	0.51832
1249.70977	0.51801
1247.78120	0.51781
1245.85264	0.51751
1243.92407	0.51713
1241.99551	0.51676
1240.06694	0.51635
1238.13838	0.51587
1236.20981	0.51531
1234.28125	0.51466
1232.35269	0.51397
1230.42412	0.51344
1228.49556	0.51300
1226.56699	0.51236
1224.63843	0.51153
1222.70986	0.51070
1220.78130	0.50996
1218.85273	0.50933
1216.92417	0.50864
1214.99561	0.50789
1213.06704	0.50725
1211.13848	0.50673
1209.20991	0.50619
1207.28135	0.50550
1205.35278	0.50482
1203.42422	0.50433
1201.49565	0.50388
1199.56709	0.50324
1197.63853	0.50249
1195.70996	0.50168
1193.78140	0.50100
1191.85283	0.50070
1189.92427	0.50061
1187.99570	0.50044
1186.06714	0.50023
1184.13857	0.50005
1182.21001	0.49987
1180.28145	0.49982
1178.35288	0.50000
1176.42432	0.50043
1174.49575	0.50111
1172.56719	0.50191
1170.63862	0.50260
1168.71006	0.50311
1166.78149	0.50350
1164.85293	0.50402
1162.92437	0.50483
1160.99580	0.50559
1159.06724	0.50584
1157.13867	0.50561
1155.21011	0.50512
1153.28154	0.50428
1151.35298	0.50294
1149.42441	0.50115
1147.49585	0.49901
1145.56729	0.49663
1143.63872	0.49431
1141.71016	0.49205
1139.78159	0.48969
1137.85303	0.48754
1135.92446	0.48590
1133.99590	0.48462
1132.06733	0.48343
1130.13877	0.48220
1128.21021	0.48109
1126.28164	0.48019
1124.35308	0.47924
1122.42451	0.47834
1120.49595	0.47784
1118.56738	0.47768
1116.63882	0.47773
1114.71025	0.47803
1112.78169	0.47859
1110.85312	0.47925
1108.92456	0.48015
1106.99600	0.48119
1105.06743	0.48194
1103.13887	0.48264
1101.21030	0.48380
1099.28174	0.48534
1097.35317	0.48718
1095.42461	0.48995
1093.49604	0.49384
1091.56748	0.49857
1089.63892	0.50442
1087.71035	0.51130
1085.78179	0.51871
1083.85322	0.52656
1081.92466	0.53417
1079.99609	0.54016
1078.06753	0.54343
1076.13896	0.54363
1074.21040	0.54118
1072.28184	0.53680
1070.35327	0.53085
1068.42471	0.52385
1066.49614	0.51678
1064.56758	0.51038
1062.63901	0.50482
1060.71045	0.50011
1058.78188	0.49600
1056.85332	0.49225
1054.92476	0.48905
1052.99619	0.48647
1051.06763	0.48430
1049.13906	0.48262
1047.21050	0.48172
1045.28193	0.48164
1043.35337	0.48201
1041.42480	0.48238
1039.49624	0.48262
1037.56768	0.48281
1035.63911	0.48294
1033.71055	0.48283
1031.78198	0.48227
1029.85342	0.48130
1027.92485	0.48020
1025.99629	0.47933
1024.06772	0.47892
1022.13916	0.47873
1020.21060	0.47870
1018.28203	0.47902
1016.35347	0.47940
1014.42490	0.47962
1012.49634	0.47986
1010.56777	0.48027
1008.63921	0.48085
1006.71064	0.48171
1004.78208	0.48305
1002.85352	0.48501
1000.92495	0.48757
998.99639	0.49075
997.06782	0.49467
995.13926	0.49893
993.21069	0.50283
991.28213	0.50602
989.35356	0.50823
987.42500	0.50939
985.49644	0.50987
983.56787	0.51007
981.63931	0.51045
979.71074	0.51147
977.78218	0.51325
975.85361	0.51560
973.92505	0.51835
971.99648	0.52151
970.06792	0.52510
968.13936	0.52914
966.21079	0.53344
964.28223	0.53787
962.35366	0.54258
960.42510	0.54750
958.49653	0.55258
956.56797	0.55820
954.63940	0.56428
952.71084	0.57041
950.78228	0.57674
948.85371	0.58341
946.92515	0.58993
944.99658	0.59582
943.06802	0.60138
941.13945	0.60714
939.21089	0.61305
937.28232	0.61888
935.35376	0.62479
933.42520	0.63085
931.49663	0.63648
929.56807	0.64150
927.63950	0.64741
925.71094	0.65470
923.78237	0.66129
921.85381	0.66700
919.92524	0.67384
917.99668	0.68135
916.06812	0.68765
914.13955	0.69320
912.21099	0.69975
910.28242	0.70750
908.35386	0.71602
906.42529	0.72545
904.49673	0.73537
902.56816	0.74481
900.63960	0.75341
898.71104	0.76224
896.78247	0.77203
894.85391	0.78210
892.92534	0.79241
890.99678	0.80287
889.06821	0.81337
887.13965	0.82397
885.21108	0.83402
883.28252	0.84419
881.35396	0.85633
879.42539	0.87011
877.49683	0.88253
875.56826	0.89288
873.63970	0.90424
871.71113	0.91752
869.78257	0.93055
867.85400	0.94173
865.92544	0.95120
863.99687	0.96075
862.06831	0.97146
860.13975	0.98272
858.21118	0.99509
856.28262	1.00849
854.35405	1.02073
852.42549	1.03164
850.49692	1.04312
848.56836	1.05553
846.63979	1.06694
844.71123	1.07517
842.78267	1.08239
840.85410	1.09249
838.92554	1.10444
836.99697	1.11466
835.06841	1.12302
833.13984	1.13541
831.21128	1.15359
829.28271	1.17012
827.35415	1.17921
825.42559	1.18069
823.49702	1.18326
821.56846	1.19410
819.63989	1.20644
817.71133	1.21514
815.78276	1.22269
813.85420	1.22681
811.92563	1.23132
809.99707	1.24580
808.06851	1.26707
806.13994	1.28554
804.21138	1.29301
802.28281	1.28667
800.35425	1.27599
798.42568	1.28398
796.49712	1.30648
794.56855	1.31154
792.63999	1.30227
790.71143	1.27884
788.78286	1.24489
786.85430	1.23551
784.92573	1.25626
782.99717	1.26453
781.06860	1.24805
779.14004	1.23671
777.21147	1.21609
775.28291	1.16403
773.35435	1.12139
771.42578	1.13349
769.49722	1.18955
767.56865	1.24369
765.64009	1.24828
763.71152	1.20901
761.78296	1.16888
759.85439	1.14201
757.92583	1.13610
755.99727	1.14836
754.06870	1.16023
752.14014	1.12340
750.21157	1.04288
748.28301	0.97553
746.35444	0.93502
744.42588	0.93227
742.49731	0.99282
740.56875	1.07948
738.64019	0.98540
736.71162	0.74479
734.78306	0.54948
732.85449	0.44527
730.92593	0.44194
728.99736	0.33731
727.06880	-0.29397
725.14023	4.35084
723.21167	4.33927
721.28311	4.32770
719.35454	4.31613
717.42598	-0.39869
715.49741	-0.03404
713.56885	0.25521
711.64028	0.55401
709.71172	0.73088
707.78315	0.71323
705.85459	0.61361
703.92603	0.52553
701.99746	0.50420
700.06890	0.52354
698.14033	0.52765
696.21177	0.47356
694.28320	0.39468
692.35464	0.35624
690.42607	0.41115
688.49751	0.54030
686.56895	0.61052
684.64038	0.51513
682.71182	0.42033
680.78325	0.41794
678.85469	0.48085
676.92612	0.53446
674.99756	0.51011
673.06899	0.39973
671.14043	0.32888
669.21187	0.37549
667.28330	0.42955
665.35474	0.38788
663.42617	0.37239
661.49761	0.40667
659.56904	0.43439
657.64048	0.42333
655.71191	0.42211
653.78335	0.46591
651.85479	0.49910
649.92622	0.45998
647.99766	0.40442
646.06909	0.38896
644.14053	0.41547
642.21196	0.44806
640.28340	0.44455
638.35483	0.43876
636.42627	0.48655
634.49771	0.53094
632.56914	0.44690
630.64058	0.32418
628.71201	0.27479
626.78345	0.30870
624.85488	0.33990
622.92632	0.33745
620.99775	0.36664
619.06919	0.39890
617.14062	0.36981
615.21206	0.38602
613.28350	0.48505
611.35493	0.50505
609.42637	0.44183
607.49780	0.38222
605.56924	0.32264
603.64067	0.29902
601.71211	0.28900
599.78354	0.26350
597.85498	0.25690
595.92642	0.27294
593.99785	0.28031
592.06929	0.31064
590.14072	0.39694
588.21216	0.47076
586.28359	0.44887
584.35503	0.41144
582.42646	0.37944
580.49790	0.35985
578.56934	0.42436
576.64077	0.48588
574.71221	0.44200
572.78364	0.42338
570.85508	0.41520
568.92651	0.35788
566.99795	0.32105
565.06938	0.32342
563.14082	0.35128
561.21226	0.41305
559.28369	0.47896
557.35513	0.49322
555.42656	0.47663
553.49800	0.45259
551.56943	0.41502
549.64087	0.38863
547.71230	0.37125
545.78374	0.35475
543.85518	0.35039
541.92661	0.33292
539.99805	0.30227
538.06948	0.29342
536.14092	0.32723
534.21235	0.37160
532.28379	0.37708
530.35522	0.37833
528.42666	0.43597
526.49810	0.46422
524.56953	0.36321
522.64097	0.27771
520.71240	0.24755
518.78384	0.27026
516.85527	0.34408
514.92671	0.42695
512.99814	0.42990
511.06958	0.38383
509.14102	0.36122
507.21245	0.35130
505.28389	0.34957
503.35532	0.36147
501.42676	0.34408
499.49819	0.29700
