3997.91411	0.07372
3995.98555	0.07404
3994.05698	0.07389
3992.12842	0.07369
3990.19985	0.07399
3988.27129	0.07445
3986.34272	0.07465
3984.41416	0.07475
3982.48560	0.07504
3980.55703	0.07580
3978.62847	0.07666
3976.69990	0.07714
3974.77134	0.07769
3972.84277	0.07812
3970.91421	0.07774
3968.98564	0.07751
3967.05708	0.07806
3965.12852	0.07842
3963.19995	0.07853
3961.27139	0.07896
3959.34282	0.07925
3957.41426	0.07891
3955.48569	0.07841
3953.55713	0.07815
3951.62856	0.07854
3949.70000	0.07940
3947.77144	0.07980
3945.84287	0.07962
3943.91431	0.07980
3941.98574	0.08022
3940.05718	0.07953
3938.12861	0.07832
3936.20005	0.07804
3934.27148	0.07862
3932.34292	0.07960
3930.41436	0.08045
3928.48579	0.08024
3926.55723	0.07965
3924.62866	0.07993
3922.70010	0.08026
3920.77153	0.07996
3918.84297	0.07994
3916.91440	0.08022
3914.98584	0.07970
3913.05728	0.07814
3911.12871	0.07687
3909.20015	0.07677
3907.27158	0.07776
3905.34302	0.07998
3903.41445	0.08331
3901.48589	0.08561
3899.55732	0.08528
3897.62876	0.08296
3895.70020	0.08052
3893.77163	0.07995
3891.84307	0.08136
3889.91450	0.08203
3887.98594	0.08072
3886.05737	0.08058
3884.12881	0.08229
3882.20024	0.08333
3880.27168	0.08336
3878.34312	0.08218
3876.41455	0.08069
3874.48599	0.08150
3872.55742	0.08417
3870.62886	0.08648
3868.70029	0.08728
3866.77173	0.08642
3864.84316	0.08641
3862.91460	0.08735
3860.98604	0.08638
3859.05747	0.08455
3857.12891	0.08461
3855.20034	0.08772
3853.27178	0.09400
3851.34321	0.09664
3849.41465	0.09198
3847.48608	0.08775
3845.55752	0.08653
3843.62896	0.08804
3841.70039	0.09096
3839.77183	0.09419
3837.84326	0.09718
3835.91470	0.09792
3833.98613	0.09632
3832.05757	0.09464
3830.12900	0.09363
3828.20044	0.09365
3826.27187	0.09473
3824.34331	0.09599
3822.41475	0.09842
3820.48618	0.10293
3818.55762	0.10460
3816.62905	0.10344
3814.70049	0.10229
3812.77192	0.09993
3810.84336	0.09813
3808.91479	0.09907
3806.98623	0.10265
3805.05767	0.10613
3803.12910	0.10823
3801.20054	0.11137
3799.27197	0.11331
3797.34341	0.11225
3795.41484	0.11099
3793.48628	0.10977
3791.55771	0.10905
3789.62915	0.10958
3787.70059	0.11108
3785.77202	0.11308
3783.84346	0.11484
3781.91489	0.11624
3779.98633	0.11847
3778.05776	0.12087
3776.12920	0.12126
3774.20063	0.12120
3772.27207	0.12280
3770.34351	0.12621
3768.41494	0.13010
3766.48638	0.13287
3764.55781	0.13483
3762.62925	0.13606
3760.70068	0.13776
3758.77212	0.14107
3756.84355	0.14428
3754.91499	0.14644
3752.98643	0.15002
3751.05786	0.15730
3749.12930	0.16455
3747.20073	0.16613
3745.27217	0.16736
3743.34360	0.17168
3741.41504	0.17541
3739.48647	0.17858
3737.55791	0.18435
3735.62935	0.19377
3733.70078	0.20342
3731.77222	0.20787
3729.84365	0.20991
3727.91509	0.21334
3725.98652	0.21902
3724.05796	0.22562
3722.12939	0.23136
3720.20083	0.23570
3718.27227	0.23873
3716.34370	0.24207
3714.41514	0.24799
3712.48657	0.25947
3710.55801	0.27758
3708.62944	0.29365
3706.70088	0.30325
3704.77231	0.31268
3702.84375	0.32549
3700.91519	0.34233
3698.98662	0.36005
3697.05806	0.37648
3695.12949	0.39402
3693.20093	0.41323
3691.27236	0.43543
3689.34380	0.46439
3687.41523	0.49705
3685.48667	0.52374
3683.55811	0.54714
3681.62954	0.57359
3679.70098	0.60494
3677.77241	0.63938
3675.84385	0.68089
3673.91528	0.73478
3671.98672	0.77707
3670.05815	0.81484
3668.12959	0.86601
3666.20103	0.91092
3664.27246	0.94860
3662.34390	0.99033
3660.41533	1.03614
3658.48677	1.08204
3656.55820	1.13201
3654.62964	1.18803
3652.70107	1.23494
3650.77251	1.27692
3648.84395	1.33541
3646.91538	1.40245
3644.98682	1.44857
3643.05825	1.48541
3641.12969	1.52506
3639.20112	1.56927
3637.27256	1.61395
3635.34399	1.65779
3633.41543	1.70209
3631.48687	1.74369
3629.55830	1.78617
3627.62974	1.84140
3625.70117	1.89140
3623.77261	1.92464
3621.84404	1.95679
3619.91548	1.99390
3617.98691	2.03854
3616.05835	2.08067
3614.12979	2.11521
3612.20122	2.15214
3610.27266	2.19059
3608.34409	2.23051
3606.41553	2.27382
3604.48696	2.31366
3602.55840	2.34923
3600.62983	2.38868
3598.70127	2.43043
3596.77271	2.46884
3594.84414	2.50825
3592.91558	2.55039
3590.98701	2.58999
3589.05845	2.62652
3587.12988	2.66876
3585.20132	2.71374
3583.27275	2.75133
3581.34419	2.78623
3579.41562	2.82512
3577.48706	2.86868
3575.55850	2.91340
3573.62993	2.95719
3571.70137	2.99822
3569.77280	3.03831
3567.84424	3.08376
3565.91567	3.14025
3563.98711	3.19125
3562.05854	3.22858
3560.12998	3.26662
3558.20142	3.30970
3556.27285	3.35339
3554.34429	3.39616
3552.41572	3.44255
3550.48716	3.49165
3548.55859	3.53843
3546.63003	3.58338
3544.70146	3.63109
3542.77290	3.68082
3540.84434	3.72812
3538.91577	3.77315
3536.98721	3.81912
3535.05864	3.86977
3533.13008	3.91913
3531.20151	3.96362
3529.27295	4.00830
3527.34438	4.05680
3525.41582	4.10673
3523.48726	4.15432
3521.55869	4.20124
3519.63013	4.24789
3517.70156	4.29437
3515.77300	4.34436
3513.84443	4.39848
3511.91587	4.45061
3509.98730	4.50212
3508.05874	4.55500
3506.13018	4.60387
3504.20161	4.65189
3502.27305	4.70015
3500.34448	4.74346
3498.41592	4.78617
3496.48735	4.83388
3494.55879	4.88411
3492.63022	4.93491
3490.70166	4.98807
3488.77310	5.04530
3486.84453	5.10182
3484.91597	5.14889
3482.98740	5.18834
3481.05884	5.22888
3479.13027	5.27549
3477.20171	5.32508
3475.27314	5.37427
3473.34458	5.42710
3471.41602	5.47935
3469.48745	5.52388
3467.55889	5.56858
3465.63032	5.62407
3463.70176	5.68524
3461.77319	5.73585
3459.84463	5.77590
3457.91606	5.82022
3455.98750	5.88040
3454.05894	5.94485
3452.13037	5.99876
3450.20181	6.05026
3448.27324	6.10174
3446.34468	6.15049
3444.41611	6.19852
3442.48755	6.25502
3440.55898	6.31537
3438.63042	6.37014
3436.70186	6.42395
3434.77329	6.47671
3432.84473	6.51909
3430.91616	6.55257
3428.98760	6.60370
3427.05903	6.66388
3425.13047	6.71231
3423.20190	6.75907
3421.27334	6.80861
3419.34478	6.86597
3417.41621	6.94237
3415.48765	7.01944
3413.55908	7.06899
3411.63052	7.10187
3409.70195	7.12920
3407.77339	7.16485
3405.84482	7.22590
3403.91626	7.29422
3401.98770	7.33992
3400.05913	7.38379
3398.13057	7.44714
3396.20200	7.50144
3394.27344	7.53420
3392.34487	7.56527
3390.41631	7.61944
3388.48774	7.67598
3386.55918	7.69979
3384.63062	7.67780
3382.70205	7.64252
3380.77349	7.66864
3378.84492	7.77279
3376.91636	7.86492
3374.98779	7.90151
3373.05923	7.94876
3371.13066	7.98225
3369.20210	7.98042
3367.27354	7.98832
3365.34497	8.02465
3363.41641	8.07220
3361.48784	8.13000
3359.55928	8.24366
3357.63071	8.38228
3355.70215	8.36915
3353.77358	8.19454
3351.84502	8.10968
3349.91646	8.14439
3347.98789	8.18462
3346.05933	8.21533
3344.13076	8.25219
3342.20220	8.27478
3340.27363	8.27511
3338.34507	8.29926
3336.41650	8.31326
3334.48794	8.28154
3332.55937	8.26643
3330.63081	8.27511
3328.70225	8.23150
3326.77368	8.21774
3324.84512	8.28355
3322.91655	8.30451
3320.98799	8.34976
3319.05942	8.49965
3317.13086	8.60592
3315.20229	8.55753
3313.27373	8.45136
3311.34517	8.34700
3309.41660	8.27189
3307.48804	8.27418
3305.55947	8.35333
3303.63091	8.45447
3301.70234	8.48719
3299.77378	8.49418
3297.84521	8.49150
3295.91665	8.41126
3293.98809	8.31919
3292.05952	8.33429
3290.13096	8.48990
3288.20239	8.71825
3286.27383	8.83886
3284.34526	8.72031
3282.41670	8.55438
3280.48813	8.46431
3278.55957	8.39012
3276.63101	8.32185
3274.70244	8.31548
3272.77388	8.33917
3270.84531	8.30665
3268.91675	8.23585
3266.98818	8.20492
3265.05962	8.26340
3263.13105	8.35051
3261.20249	8.40288
3259.27393	8.43302
3257.34536	8.45657
3255.41680	8.51690
3253.48823	8.56910
3251.55967	8.49520
3249.63110	8.39698
3247.70254	8.42912
3245.77397	8.50478
3243.84541	8.45159
3241.91685	8.37845
3239.98828	8.47466
3238.05972	8.63734
3236.13115	8.66078
3234.20259	8.56753
3232.27402	8.41290
3230.34546	8.29037
3228.41689	8.34530
3226.48833	8.53959
3224.55977	8.63043
3222.63120	8.56170
3220.70264	8.50372
3218.77407	8.48333
3216.84551	8.40096
3214.91694	8.27778
3212.98838	8.21585
3211.05981	8.22028
3209.13125	8.22875
3207.20269	8.18991
3205.27412	8.11412
3203.34556	8.06566
3201.41699	8.09135
3199.48843	8.14963
3197.55986	8.16840
3195.63130	8.11114
3193.70273	7.98121
3191.77417	7.85137
3189.84561	7.78595
3187.91704	7.75732
3185.98848	7.68806
3184.05991	7.57020
3182.13135	7.47687
3180.20278	7.44959
3178.27422	7.44684
3176.34565	7.41464
3174.41709	7.34095
3172.48853	7.26214
3170.55996	7.21860
3168.63140	7.18076
3166.70283	7.10138
3164.77427	7.00116
3162.84570	6.92795
3160.91714	6.88029
3158.98857	6.83246
3157.06001	6.77100
3155.13145	6.67791
3153.20288	6.57612
3151.27432	6.51543
3149.34575	6.47501
3147.41719	6.41966
3145.48862	6.36775
3143.56006	6.31131
3141.63149	6.23008
3139.70293	6.13420
3137.77437	6.03653
3135.84580	5.95484
3133.91724	5.89302
3131.98867	5.82908
3130.06011	5.75429
3128.13154	5.67392
3126.20298	5.58944
3124.27441	5.50808
3122.34585	5.43237
3120.41729	5.36276
3118.48872	5.29389
3116.56016	5.21596
3114.63159	5.14038
3112.70303	5.07524
3110.77446	5.00939
3108.84590	4.93783
3106.91733	4.86453
3104.98877	4.79324
3103.06021	4.72398
3101.13164	4.65102
3099.20308	4.57620
3097.27451	4.50738
3095.34595	4.43954
3093.41738	4.36770
3091.48882	4.29758
3089.56025	4.23037
3087.63169	4.16287
3085.70312	4.09747
3083.77456	4.03705
3081.84600	3.97761
3079.91743	3.91446
3077.98887	3.84891
3076.06030	3.78411
3074.13174	3.72172
3072.20317	3.66200
3070.27461	3.60329
3068.34604	3.54405
3066.41748	3.48528
3064.48892	3.42784
3062.56035	3.36968
3060.63179	3.31112
3058.70322	3.25526
3056.77466	3.20103
3054.84609	3.14626
3052.91753	3.09326
3050.98896	3.04208
3049.06040	2.98953
3047.13184	2.93589
3045.20327	2.88348
3043.27471	2.83347
3041.34614	2.78492
3039.41758	2.73681
3037.48901	2.68989
3035.56045	2.64381
3033.63188	2.59756
3031.70332	2.55160
3029.77476	2.50682
3027.84619	2.46290
3025.91763	2.41878
3023.98906	2.37464
3022.06050	2.33122
3020.13193	2.28943
3018.20337	2.24991
3016.27480	2.21129
3014.34624	2.17205
3012.41768	2.13276
3010.48911	2.09404
3008.56055	2.05578
3006.63198	2.01846
3004.70342	1.98246
3002.77485	1.94712
3000.84629	1.91219
2998.91772	1.87780
2996.98916	1.84405
2995.06060	1.81060
2993.13203	1.77713
2991.20347	1.74407
2989.27490	1.71177
2987.34634	1.68041
2985.41777	1.64989
2983.48921	1.61972
2981.56064	1.58979
2979.63208	1.56027
2977.70352	1.53126
2975.77495	1.50264
2973.84639	1.47447
2971.91782	1.44683
2969.98926	1.41937
2968.06069	1.39202
2966.13213	1.36539
2964.20356	1.33979
2962.27500	1.31461
2960.34644	1.28972
2958.41787	1.26575
2956.48931	1.24269
2954.56074	1.21991
2952.63218	1.19700
2950.70361	1.17443
2948.77505	1.15263
2946.84648	1.13136
2944.91792	1.11027
2942.98936	1.08916
2941.06079	1.06809
2939.13223	1.04764
2937.20366	1.02797
2935.27510	1.00867
2933.34653	0.98953
2931.41797	0.97055
2929.48940	0.95210
2927.56084	0.93460
2925.63228	0.91748
2923.70371	0.90050
2921.77515	0.88383
2919.84658	0.86741
2917.91802	0.85161
2915.98945	0.83659
2914.06089	0.82175
2912.13232	0.80682
2910.20376	0.79232
2908.27520	0.77851
2906.34663	0.76489
2904.41807	0.75131
2902.48950	0.73826
2900.56094	0.72571
2898.63237	0.71307
2896.70381	0.70023
2894.77524	0.68776
2892.84668	0.67601
2890.91812	0.66473
2888.98955	0.65355
2887.06099	0.64233
2885.13242	0.63123
2883.20386	0.62039
2881.27529	0.60967
2879.34673	0.59887
2877.41816	0.58813
2875.48960	0.57771
2873.56104	0.56766
2871.63247	0.55787
2869.70391	0.54822
2867.77534	0.53863
2865.84678	0.52920
2863.91821	0.52004
2861.98965	0.51108
2860.06108	0.50222
2858.13252	0.49332
2856.20396	0.48444
2854.27539	0.47618
2852.34683	0.46870
2850.41826	0.46139
2848.48970	0.45403
2846.56113	0.44683
2844.63257	0.43988
2842.70400	0.43335
2840.77544	0.42724
2838.84687	0.42133
2836.91831	0.41563
2834.98975	0.41008
2833.06118	0.40423
2831.13262	0.39802
2829.20405	0.39188
2827.27549	0.38599
2825.34692	0.38033
2823.41836	0.37490
2821.48979	0.36953
2819.56123	0.36408
2817.63267	0.35868
2815.70410	0.35341
2813.77554	0.34817
2811.84697	0.34302
2809.91841	0.33803
2807.98984	0.33309
2806.06128	0.32817
2804.13271	0.32336
2802.20415	0.31868
2800.27559	0.31399
2798.34702	0.30926
2796.41846	0.30481
2794.48989	0.30068
2792.56133	0.29657
2790.63276	0.29243
2788.70420	0.28842
2786.77563	0.28454
2784.84707	0.28083
2782.91851	0.27710
2780.98994	0.27314
2779.06138	0.26926
2777.13281	0.26567
2775.20425	0.26229
2773.27568	0.25913
2771.34712	0.25590
2769.41855	0.25253
2767.48999	0.24932
2765.56143	0.24617
2763.63286	0.24290
2761.70430	0.23977
2759.77573	0.23688
2757.84717	0.23409
2755.91860	0.23137
2753.99004	0.22869
2752.06147	0.22603
2750.13291	0.22348
2748.20435	0.22101
2746.27578	0.21841
2744.34722	0.21576
2742.41865	0.21337
2740.49009	0.21109
2738.56152	0.20882
2736.63296	0.20671
2734.70439	0.20464
2732.77583	0.20248
2730.84727	0.20035
2728.91870	0.19833
2726.99014	0.19635
2725.06157	0.19436
2723.13301	0.19238
2721.20444	0.19052
2719.27588	0.18865
2717.34731	0.18671
2715.41875	0.18491
2713.49019	0.18337
2711.56162	0.18199
2709.63306	0.18059
2707.70449	0.17907
2705.77593	0.17750
2703.84736	0.17586
2701.91880	0.17417
2699.99023	0.17261
2698.06167	0.17130
2696.13311	0.17019
2694.20454	0.16905
2692.27598	0.16779
2690.34741	0.16658
2688.41885	0.16539
2686.49028	0.16412
2684.56172	0.16294
2682.63315	0.16193
2680.70459	0.16095
2678.77603	0.15986
2676.84746	0.15877
2674.91890	0.15792
2672.99033	0.15720
2671.06177	0.15638
2669.13320	0.15541
2667.20464	0.15440
2665.27607	0.15354
2663.34751	0.15293
2661.41895	0.15234
2659.49038	0.15162
2657.56182	0.15089
2655.63325	0.15024
2653.70469	0.14969
2651.77612	0.14925
2649.84756	0.14877
2647.91899	0.14822
2645.99043	0.14767
2644.06187	0.14724
2642.13330	0.14686
2640.20474	0.14636
2638.27617	0.14582
2636.34761	0.14540
2634.41904	0.14504
2632.49048	0.14476
2630.56191	0.14449
2628.63335	0.14417
2626.70479	0.14393
2624.77622	0.14385
2622.84766	0.14386
2620.91909	0.14382
2618.99053	0.14366
2617.06196	0.14345
2615.13340	0.14335
2613.20483	0.14343
2611.27627	0.14352
2609.34771	0.14354
2607.41914	0.14357
2605.49058	0.14350
2603.56201	0.14336
2601.63345	0.14349
2599.70488	0.14380
2597.77632	0.14408
2595.84775	0.14436
2593.91919	0.14454
2591.99062	0.14468
2590.06206	0.14491
2588.13350	0.14512
2586.20493	0.14515
2584.27637	0.14522
2582.34780	0.14548
2580.41924	0.14577
2578.49067	0.14610
2576.56211	0.14662
2574.63354	0.14733
2572.70498	0.14795
2570.77642	0.14830
2568.84785	0.14848
2566.91929	0.14876
2564.99072	0.14928
2563.06216	0.14981
2561.13359	0.15030
2559.20503	0.15089
2557.27646	0.15158
2555.34790	0.15233
2553.41934	0.15312
2551.49077	0.15385
2549.56221	0.15441
2547.63364	0.15492
2545.70508	0.15549
2543.77651	0.15611
2541.84795	0.15676
2539.91938	0.15746
2537.99082	0.15825
2536.06226	0.15913
2534.13369	0.15988
2532.20513	0.16045
2530.27656	0.16117
2528.34800	0.16199
2526.41943	0.16274
2524.49087	0.16348
2522.56230	0.16424
2520.63374	0.16498
2518.70518	0.16575
2516.77661	0.16669
2514.84805	0.16771
2512.91948	0.16856
2510.99092	0.16933
2509.06235	0.17017
2507.13379	0.17099
2505.20522	0.17183
2503.27666	0.17273
2501.34810	0.17376
2499.41953	0.17489
2497.49097	0.17586
2495.56240	0.17668
2493.63384	0.17758
2491.70527	0.17856
2489.77671	0.17948
2487.84814	0.18035
2485.91958	0.18120
2483.99102	0.18208
2482.06245	0.18301
2480.13389	0.18396
2478.20532	0.18488
2476.27676	0.18582
2474.34819	0.18680
2472.41963	0.18783
2470.49106	0.18891
2468.56250	0.18995
2466.63394	0.19091
2464.70537	0.19198
2462.77681	0.19312
2460.84824	0.19407
2458.91968	0.19486
2456.99111	0.19583
2455.06255	0.19700
2453.13398	0.19812
2451.20542	0.19915
2449.27686	0.20024
2447.34829	0.20134
2445.41973	0.20226
2443.49116	0.20299
2441.56260	0.20379
2439.63403	0.20484
2437.70547	0.20605
2435.77690	0.20733
2433.84834	0.20850
2431.91978	0.20946
2429.99121	0.21039
2428.06265	0.21145
2426.13408	0.21266
2424.20552	0.21394
2422.27695	0.21519
2420.34839	0.21636
2418.41982	0.21756
2416.49126	0.21880
2414.56270	0.21994
2412.63413	0.22109
2410.70557	0.22232
2408.77700	0.22354
2406.84844	0.22464
2404.91987	0.22571
2402.99131	0.22690
2401.06274	0.22824
2399.13418	0.22963
2397.20562	0.23094
2395.27705	0.23214
2393.34849	0.23333
2391.41992	0.23473
2389.49136	0.23652
2387.56279	0.23904
2385.63423	0.24314
2383.70566	0.24959
2381.77710	0.25846
2379.84854	0.26932
2377.91997	0.28185
2375.99141	0.29634
2374.06284	0.31308
2372.13428	0.33183
2370.20571	0.35188
2368.27715	0.37222
2366.34858	0.39229
2364.42002	0.41031
2362.49146	0.42272
2360.56289	0.42917
2358.63433	0.43063
2356.70576	0.42479
2354.77720	0.41056
2352.84863	0.39064
2350.92007	0.36948
2348.99150	0.35612
2347.06294	0.35618
2345.13437	0.36994
2343.20581	0.38925
2341.27725	0.40009
2339.34868	0.40126
2337.42012	0.39936
2335.49155	0.39764
2333.56299	0.39565
2331.63442	0.39367
2329.70586	0.39182
2327.77729	0.38901
2325.84873	0.38452
2323.92017	0.37904
2321.99160	0.37325
2320.06304	0.36687
2318.13447	0.35992
2316.20591	0.35363
2314.27734	0.34943
2312.34878	0.34713
2310.42021	0.34510
2308.49165	0.34222
2306.56309	0.33861
2304.63452	0.33514
2302.70596	0.33291
2300.77739	0.33190
2298.84883	0.33133
2296.92026	0.33096
2294.99170	0.33072
2293.06313	0.33041
2291.13457	0.32995
2289.20601	0.32948
2287.27744	0.32915
2285.34888	0.32907
2283.42031	0.32964
2281.49175	0.33136
2279.56318	0.33401
2277.63462	0.33668
2275.70605	0.33906
2273.77749	0.34127
2271.84893	0.34330
2269.92036	0.34524
2267.99180	0.34733
2266.06323	0.34949
2264.13467	0.35154
2262.20610	0.35340
2260.27754	0.35508
2258.34897	0.35680
2256.42041	0.35863
2254.49185	0.36041
2252.56328	0.36202
2250.63472	0.36362
2248.70615	0.36539
2246.77759	0.36743
2244.84902	0.36970
2242.92046	0.37192
2240.99189	0.37391
2239.06333	0.37577
2237.13477	0.37778
2235.20620	0.38000
2233.27764	0.38228
2231.34907	0.38453
2229.42051	0.38677
2227.49194	0.38901
2225.56338	0.39121
2223.63481	0.39329
2221.70625	0.39536
2219.77769	0.39752
2217.84912	0.39963
2215.92056	0.40176
2213.99199	0.40403
2212.06343	0.40633
2210.13486	0.40865
2208.20630	0.41085
2206.27773	0.41285
2204.34917	0.41487
2202.42061	0.41704
2200.49204	0.41919
2198.56348	0.42117
2196.63491	0.42313
2194.70635	0.42512
2192.77778	0.42708
2190.84922	0.42906
2188.92065	0.43100
2186.99209	0.43274
2185.06353	0.43432
2183.13496	0.43590
2181.20640	0.43757
2179.27783	0.43927
2177.34927	0.44098
2175.42070	0.44264
2173.49214	0.44427
2171.56357	0.44580
2169.63501	0.44712
2167.70645	0.44825
2165.77788	0.44934
2163.84932	0.45048
2161.92075	0.45165
2159.99219	0.45282
2158.06362	0.45399
2156.13506	0.45504
2154.20649	0.45589
2152.27793	0.45668
2150.34937	0.45746
2148.42080	0.45811
2146.49224	0.45856
2144.56367	0.45893
2142.63511	0.45940
2140.70654	0.45987
2138.77798	0.46011
2136.84941	0.46023
2134.92085	0.46031
2132.99229	0.46024
2131.06372	0.46016
2129.13516	0.46008
2127.20659	0.45983
2125.27803	0.45948
2123.34946	0.45906
2121.42090	0.45855
2119.49233	0.45797
2117.56377	0.45732
2115.63521	0.45657
2113.70664	0.45572
2111.77808	0.45485
2109.84951	0.45395
2107.92095	0.45293
2105.99238	0.45176
2104.06382	0.45056
2102.13525	0.44927
2100.20669	0.44792
2098.27812	0.44657
2096.34956	0.44509
2094.42100	0.44334
2092.49243	0.44150
2090.56387	0.43976
2088.63530	0.43806
2086.70674	0.43633
2084.77817	0.43456
2082.84961	0.43268
2080.92104	0.43060
2078.99248	0.42856
2077.06392	0.42660
2075.13535	0.42449
2073.20679	0.42222
2071.27822	0.41992
2069.34966	0.41765
2067.42109	0.41538
2065.49253	0.41307
2063.56396	0.41057
2061.63540	0.40795
2059.70684	0.40547
2057.77827	0.40309
2055.84971	0.40068
2053.92114	0.39825
2051.99258	0.39569
2050.06401	0.39287
2048.13545	0.39004
2046.20688	0.38739
2044.27832	0.38486
2042.34976	0.38234
2040.42119	0.37974
2038.49263	0.37699
2036.56406	0.37412
2034.63550	0.37129
2032.70693	0.36850
2030.77837	0.36571
2028.84980	0.36297
2026.92124	0.36032
2024.99268	0.35759
2023.06411	0.35474
2021.13555	0.35192
2019.20698	0.34925
2017.27842	0.34661
2015.34985	0.34375
2013.42129	0.34077
2011.49272	0.33786
2009.56416	0.33505
2007.63560	0.33232
2005.70703	0.32967
2003.77847	0.32705
2001.84990	0.32441
1999.92134	0.32181
1997.99277	0.31924
1996.06421	0.31671
1994.13564	0.31439
1992.20708	0.31221
1990.27852	0.30971
1988.34995	0.30702
1986.42139	0.30437
1984.49282	0.30180
1982.56426	0.29941
1980.63569	0.29710
1978.70713	0.29473
1976.77856	0.29242
1974.85000	0.29025
1972.92144	0.28806
1970.99287	0.28592
1969.06431	0.28409
1967.13574	0.28240
1965.20718	0.28031
1963.27861	0.27798
1961.35005	0.27589
1959.42148	0.27397
1957.49292	0.27214
1955.56436	0.27044
1953.63579	0.26869
1951.70723	0.26686
1949.77866	0.26512
1947.85010	0.26357
1945.92153	0.26232
1943.99297	0.26139
1942.06440	0.26028
1940.13584	0.25848
1938.20728	0.25653
1936.27871	0.25500
1934.35015	0.25367
1932.42158	0.25233
1930.49302	0.25114
1928.56445	0.25015
1926.63589	0.24921
1924.70732	0.24848
1922.77876	0.24787
1920.85020	0.24703
1918.92163	0.24615
1916.99307	0.24519
1915.06450	0.24392
1913.13594	0.24280
1911.20737	0.24216
1909.27881	0.24167
1907.35024	0.24104
1905.42168	0.24026
1903.49312	0.23954
1901.56455	0.23889
1899.63599	0.23825
1897.70742	0.23770
1895.77886	0.23737
1893.85029	0.23710
1891.92173	0.23690
1889.99316	0.23700
1888.06460	0.23684
1886.13604	0.23627
1884.20747	0.23586
1882.27891	0.23565
1880.35034	0.23549
1878.42178	0.23547
1876.49321	0.23554
1874.56465	0.23556
1872.63608	0.23580
1870.70752	0.23664
1868.77896	0.23792
1866.85039	0.23817
1864.92183	0.23730
1862.99326	0.23677
1861.06470	0.23695
1859.13613	0.23739
1857.20757	0.23767
1855.27900	0.23796
1853.35044	0.23840
1851.42187	0.23901
1849.49331	0.23980
1847.56475	0.24093
1845.63618	0.24235
1843.70762	0.24362
1841.77905	0.24397
1839.85049	0.24389
1837.92192	0.24451
1835.99336	0.24550
1834.06479	0.24640
1832.13623	0.24764
1830.20767	0.24965
1828.27910	0.25135
1826.35054	0.25213
1824.42197	0.25308
1822.49341	0.25395
1820.56484	0.25483
1818.63628	0.25615
1816.70771	0.25788
1814.77915	0.25961
1812.85059	0.26157
1810.92202	0.26393
1808.99346	0.26611
1807.06489	0.26785
1805.13633	0.26956
1803.20776	0.27191
1801.27920	0.27488
1799.35063	0.27798
1797.42207	0.28051
1795.49351	0.28303
1793.56494	0.28633
1791.63638	0.29031
1789.70781	0.29313
1787.77925	0.29496
1785.85068	0.29798
1783.92212	0.30202
1781.99355	0.30630
1780.06499	0.31060
1778.13643	0.31476
1776.20786	0.31885
1774.27930	0.32375
1772.35073	0.33039
1770.42217	0.33671
1768.49360	0.34139
1766.56504	0.34599
1764.63647	0.35114
1762.70791	0.35738
1760.77935	0.36522
1758.85078	0.37211
1756.92222	0.37902
1754.99365	0.38675
1753.06509	0.39408
1751.13652	0.40339
1749.20796	0.41506
1747.27939	0.42571
1745.35083	0.43454
1743.42227	0.44403
1741.49370	0.45463
1739.56514	0.46714
1737.63657	0.47987
1735.70801	0.49161
1733.77944	0.50923
1731.85088	0.52890
1729.92231	0.54350
1727.99375	0.55824
1726.06519	0.57444
1724.13662	0.59283
1722.20806	0.61314
1720.27949	0.63231
1718.35093	0.65535
1716.42236	0.68845
1714.49380	0.71814
1712.56523	0.74162
1710.63667	0.76496
1708.70811	0.79070
1706.77954	0.82032
1704.85098	0.85544
1702.92241	0.88643
1700.99385	0.91727
1699.06528	0.96310
1697.13672	1.00433
1695.20815	1.04480
1693.27959	1.08339
1691.35103	1.11515
1689.42246	1.15234
1687.49390	1.19106
1685.56533	1.22854
1683.63677	1.28627
1681.70820	1.34413
1679.77964	1.38009
1677.85107	1.41510
1675.92251	1.45655
1673.99395	1.50733
1672.06538	1.55122
1670.13682	1.59394
1668.20825	1.64885
1666.27969	1.69181
1664.35112	1.72686
1662.42256	1.76986
1660.49399	1.81736
1658.56543	1.85445
1656.63687	1.88584
1654.70830	1.91778
1652.77974	1.97103
1650.85117	2.02071
1648.92261	2.04124
1646.99404	2.07064
1645.06548	2.10394
1643.13691	2.12427
1641.20835	2.13793
1639.27979	2.15180
1637.35122	2.16181
1635.42266	2.16524
1633.49409	2.16056
1631.56553	2.14961
1629.63696	2.13678
1627.70840	2.11505
1625.77983	2.08750
1623.85127	2.05191
1621.92271	2.00817
1619.99414	1.96945
1618.06558	1.93275
1616.13701	1.87820
1614.20845	1.81844
1612.27988	1.77187
1610.35132	1.72429
1608.42275	1.67336
1606.49419	1.62275
1604.56562	1.57507
1602.63706	1.52874
1600.70850	1.48377
1598.77993	1.44243
1596.85137	1.40317
1594.92280	1.36442
1592.99424	1.32642
1591.06567	1.29122
1589.13711	1.25777
1587.20854	1.22584
1585.27998	1.19572
1583.35142	1.16728
1581.42285	1.14097
1579.49429	1.11808
1577.56572	1.09737
1575.63716	1.07094
1573.70859	1.04567
1571.78003	1.02875
1569.85146	1.01146
1567.92290	0.99112
1565.99434	0.97377
1564.06577	0.95873
1562.13721	0.94666
1560.20864	0.93749
1558.28008	0.92017
1556.35151	0.90105
1554.42295	0.88862
1552.49438	0.87696
1550.56582	0.86591
1548.63726	0.85495
1546.70869	0.84581
1544.78013	0.83875
1542.85156	0.83219
1540.92300	0.82398
1538.99443	0.81038
1537.06587	0.79920
1535.13730	0.79248
1533.20874	0.78523
1531.28018	0.77689
1529.35161	0.77041
1527.42305	0.76493
1525.49448	0.75952
1523.56592	0.75468
1521.63735	0.74957
1519.70879	0.74300
1517.78022	0.73700
1515.85166	0.73093
1513.92310	0.72467
1511.99453	0.71983
1510.06597	0.71671
1508.13740	0.71509
1506.20884	0.71068
1504.28027	0.70322
1502.35171	0.69826
1500.42314	0.69501
1498.49458	0.69240
1496.56602	0.68900
1494.63745	0.68481
1492.70889	0.68174
1490.78032	0.68015
1488.85176	0.67836
1486.92319	0.67479
1484.99463	0.67089
1483.06606	0.66799
1481.13750	0.66576
1479.20894	0.66364
1477.28037	0.66187
1475.35181	0.66076
1473.42324	0.65972
1471.49468	0.65675
1469.56611	0.65260
1467.63755	0.64941
1465.70898	0.64702
1463.78042	0.64447
1461.85186	0.64211
1459.92329	0.64093
1457.99473	0.64037
1456.06616	0.63753
1454.13760	0.63301
1452.20903	0.62967
1450.28047	0.62727
1448.35190	0.62526
1446.42334	0.62290
1444.49478	0.62030
1442.56621	0.61808
1440.63765	0.61644
1438.70908	0.61542
1436.78052	0.61448
1434.85195	0.61263
1432.92339	0.61048
1430.99482	0.60889
1429.06626	0.60737
1427.13770	0.60569
1425.20913	0.60440
1423.28057	0.60335
1421.35200	0.60227
1419.42344	0.60144
1417.49487	0.60014
1415.56631	0.59787
1413.63774	0.59573
1411.70918	0.59406
1409.78062	0.59254
1407.85205	0.59103
1405.92349	0.58971
1403.99492	0.58821
1402.06636	0.58651
1400.13779	0.58536
1398.20923	0.58460
1396.28066	0.58362
1394.35210	0.58216
1392.42354	0.58016
1390.49497	0.57840
1388.56641	0.57739
1386.63784	0.57643
1384.70928	0.57484
1382.78071	0.57328
1380.85215	0.57213
1378.92358	0.57112
1376.99502	0.57022
1375.06646	0.56965
1373.13789	0.56883
1371.20933	0.56760
1369.28076	0.56664
1367.35220	0.56588
1365.42363	0.56510
1363.49507	0.56451
1361.56650	0.56365
1359.63794	0.56213
1357.70937	0.56067
1355.78081	0.55964
1353.85225	0.55878
1351.92368	0.55782
1349.99512	0.55687
1348.06655	0.55597
1346.13799	0.55504
1344.20942	0.55412
1342.28086	0.55343
1340.35229	0.55301
1338.42373	0.55231
1336.49517	0.55106
1334.56660	0.54977
1332.63804	0.54884
1330.70947	0.54817
1328.78091	0.54745
1326.85234	0.54660
1324.92378	0.54565
1322.99521	0.54473
1321.06665	0.54407
1319.13809	0.54354
1317.20952	0.54277
1315.28096	0.54189
1313.35239	0.54109
1311.42383	0.54036
1309.49526	0.53958
1307.56670	0.53871
1305.63813	0.53780
1303.70957	0.53680
1301.78101	0.53578
1299.85244	0.53506
1297.92388	0.53453
1295.99531	0.53394
1294.06675	0.53327
1292.13818	0.53259
1290.20962	0.53198
1288.28105	0.53142
1286.35249	0.53087
1284.42393	0.53032
1282.49536	0.52972
1280.56680	0.52906
1278.63823	0.52843
1276.70967	0.52799
1274.78110	0.52780
1272.85254	0.52761
1270.92397	0.52717
1268.99541	0.52647
1267.06685	0.52574
1265.13828	0.52521
1263.20972	0.52486
1261.28115	0.52460
1259.35259	0.52434
1257.42402	0.52395
1255.49546	0.52360
1253.56689	0.52339
1251.63833	0.52311
1249.70977	0.52282
1247.78120	0.52258
1245.85264	0.52225
1243.92407	0.52175
1241.99551	0.52125
1240.06694	0.52080
1238.13838	0.52025
1236.20981	0.51969
1234.28125	0.51923
1232.35269	0.51869
1230.42412	0.51801
1228.49556	0.51732
1226.56699	0.51667
1224.63843	0.51612
1222.70986	0.51561
1220.78130	0.51493
1218.85273	0.51418
1216.92417	0.51357
1214.99561	0.51303
1213.06704	0.51246
1211.13848	0.51191
1209.20991	0.51128
1207.28135	0.51057
1205.35278	0.50997
1203.42422	0.50941
1201.49565	0.50875
1199.56709	0.50814
1197.63853	0.50768
1195.70996	0.50733
1193.78140	0.50699
1191.85283	0.50659
1189.92427	0.50622
1187.99570	0.50584
1186.06714	0.50535
1184.13857	0.50502
1182.21001	0.50514
1180.28145	0.50551
1178.35288	0.50579
1176.42432	0.50609
1174.49575	0.50660
1172.56719	0.50717
1170.63862	0.50758
1168.71006	0.50803
1166.78149	0.50867
1164.85293	0.50921
1162.92437	0.50939
1160.99580	0.50936
1159.06724	0.50920
1157.13867	0.50882
1155.21011	0.50821
1153.28154	0.50727
1151.35298	0.50593
1149.42441	0.50423
1147.49585	0.50209
1145.56729	0.49970
1143.63872	0.49736
1141.71016	0.49514
1139.78159	0.49306
1137.85303	0.49108
1135.92446	0.48916
1133.99590	0.48726
1132.06733	0.48547
1130.13877	0.48407
1128.21021	0.48307
1126.28164	0.48215
1124.35308	0.48110
1122.42451	0.47999
1120.49595	0.47897
1118.56738	0.47827
1116.63882	0.47788
1114.71025	0.47771
1112.78169	0.47783
1110.85312	0.47819
1108.92456	0.47869
1106.99600	0.47942
1105.06743	0.48031
1103.13887	0.48145
1101.21030	0.48302
1099.28174	0.48484
1097.35317	0.48711
1095.42461	0.49020
1093.49604	0.49384
1091.56748	0.49782
1089.63892	0.50272
1087.71035	0.50889
1085.78179	0.51575
1083.85322	0.52279
1081.92466	0.52968
1079.99609	0.53553
1078.06753	0.53919
1076.13896	0.54003
1074.21040	0.53817
1072.28184	0.53397
1070.35327	0.52782
1068.42471	0.52091
1066.49614	0.51438
1064.56758	0.50825
1062.63901	0.50245
1060.71045	0.49738
1058.78188	0.49302
1056.85332	0.48913
1054.92476	0.48563
1052.99619	0.48260
1051.06763	0.48023
1049.13906	0.47867
1047.21050	0.47762
1045.28193	0.47663
1043.35337	0.47574
1041.42480	0.47515
1039.49624	0.47468
1037.56768	0.47424
1035.63911	0.47407
1033.71055	0.47407
1031.78198	0.47409
1029.85342	0.47412
1027.92485	0.47413
1025.99629	0.47411
1024.06772	0.47409
1022.13916	0.47412
1020.21060	0.47446
1018.28203	0.47531
1016.35347	0.47630
1014.42490	0.47706
1012.49634	0.47796
1010.56777	0.47927
1008.63921	0.48063
1006.71064	0.48205
1004.78208	0.48382
1002.85352	0.48610
1000.92495	0.48887
998.99639	0.49201
997.06782	0.49552
995.13926	0.49932
993.21069	0.50317
991.28213	0.50662
989.35356	0.50914
987.42500	0.51067
985.49644	0.51158
983.56787	0.51249
981.63931	0.51383
979.71074	0.51534
977.78218	0.51709
975.85361	0.51952
973.92505	0.52244
971.99648	0.52573
970.06792	0.52946
968.13936	0.53337
966.21079	0.53753
964.28223	0.54227
962.35366	0.54722
960.42510	0.55204
958.49653	0.55714
956.56797	0.56302
954.63940	0.56947
952.71084	0.57591
950.78228	0.58239
948.85371	0.58893
946.92515	0.59523
944.99658	0.60135
943.06802	0.60749
941.13945	0.61374
939.21089	0.61987
937.28232	0.62584
935.35376	0.63175
933.42520	0.63752
931.49663	0.64334
929.56807	0.64900
927.63950	0.65456
925.71094	0.66075
923.78237	0.66732
921.85381	0.67393
919.92524	0.68076
917.99668	0.68750
916.06812	0.69470
914.13955	0.70308
912.21099	0.71147
910.28242	0.71945
908.35386	0.72803
906.42529	0.73732
904.49673	0.74688
902.56816	0.75607
900.63960	0.76461
898.71104	0.77386
896.78247	0.78472
894.85391	0.79557
892.92534	0.80517
890.99678	0.81476
889.06821	0.82539
887.13965	0.83646
885.21108	0.84717
883.28252	0.85830
881.35396	0.87071
879.42539	0.88319
877.49683	0.89500
875.56826	0.90646
873.63970	0.91736
871.71113	0.92900
869.78257	0.94152
867.85400	0.95315
865.92544	0.96413
863.99687	0.97504
862.06831	0.98611
860.13975	0.99676
858.21118	1.00700
856.28262	1.01854
854.35405	1.03069
852.42549	1.04170
850.49692	1.05345
848.56836	1.06758
846.63979	1.08214
844.71123	1.09548
842.78267	1.10695
840.85410	1.11739
838.92554	1.12910
836.99697	1.14151
835.06841	1.15419
833.13984	1.16850
831.21128	1.18155
829.28271	1.19165
827.35415	1.20191
825.42559	1.21303
823.49702	1.22614
821.56846	1.24050
819.63989	1.25214
817.71133	1.25996
815.78276	1.26880
813.85420	1.28857
811.92563	1.31572
809.99707	1.32957
808.06851	1.33472
806.13994	1.35715
804.21138	1.38810
802.28281	1.40384
800.35425	1.41221
798.42568	1.43743
796.49712	1.48291
794.56855	1.50793
792.63999	1.48579
790.71143	1.46832
788.78286	1.49778
786.85430	1.56064
784.92573	1.66474
782.99717	1.71002
781.06860	1.57067
779.14004	1.51123
777.21147	1.55723
775.28291	1.58070
773.35435	1.60809
771.42578	1.65907
769.49722	1.61641
767.56865	1.50620
765.64009	1.40914
763.71152	1.32393
761.78296	1.26950
759.85439	1.28677
757.92583	1.33832
755.99727	1.26980
754.06870	1.17015
752.14014	1.13246
750.21157	1.12752
748.28301	1.13947
746.35444	1.15938
744.42588	1.17548
742.49731	1.14116
740.56875	1.03422
738.64019	0.92252
736.71162	0.83777
734.78306	0.80586
732.85449	0.82360
730.92593	0.77031
728.99736	0.65488
727.06880	0.62810
725.14023	0.62686
723.21167	0.51742
721.28311	0.40827
719.35454	0.35062
717.42598	0.36276
715.49741	0.39406
713.56885	0.37237
711.64028	0.35184
709.71172	0.31662
707.78315	0.23811
705.85459	0.20033
703.92603	0.20573
701.99746	0.18231
700.06890	0.20471
698.14033	0.23263
696.21177	0.20041
694.28320	0.09498
692.35464	-0.03645
690.42607	-0.03932
688.49751	0.04503
686.56895	0.08683
684.64038	0.09058
682.71182	0.15174
680.78325	0.22148
678.85469	0.21195
676.92612	0.14571
674.99756	0.10286
673.06899	0.17031
671.14043	0.37336
669.21187	0.45953
667.28330	0.31857
665.35474	0.28928
663.42617	0.33992
661.49761	0.25690
659.56904	0.15850
657.64048	0.15149
655.71191	0.15768
653.78335	0.12869
651.85479	0.07285
649.92622	0.05697
647.99766	0.07540
646.06909	0.11967
644.14053	0.20773
642.21196	0.25246
640.28340	0.15307
638.35483	-0.00853
636.42627	-0.05120
634.49771	0.04933
632.56914	0.18285
630.64058	0.28729
628.71201	0.26967
626.78345	0.20151
624.85488	0.15565
622.92632	0.14160
620.99775	0.16899
619.06919	0.19410
617.14062	0.15785
615.21206	0.15165
613.28350	0.16681
611.35493	0.15211
609.42637	0.20301
607.49780	0.29814
605.56924	0.22078
603.64067	0.06299
601.71211	0.01951
599.78354	0.09219
597.85498	0.15531
595.92642	0.14869
593.99785	0.13852
592.06929	0.13326
590.14072	0.07752
588.21216	0.01333
586.28359	0.00631
584.35503	0.04184
582.42646	0.05602
580.49790	0.05430
578.56934	0.07327
576.64077	0.11699
574.71221	0.18208
572.78364	0.22847
570.85508	0.22613
568.92651	0.14593
566.99795	0.03135
565.06938	0.03920
563.14082	0.12806
561.21226	0.21552
559.28369	0.21724
557.35513	0.12162
555.42656	0.07345
553.49800	0.14512
551.56943	0.25666
549.64087	0.23537
547.71230	0.11883
545.78374	0.03984
543.85518	0.04744
541.92661	0.12362
539.99805	0.20797
538.06948	0.27026
536.14092	0.27608
534.21235	0.19308
532.28379	0.09125
530.35522	0.07110
528.42666	0.10763
526.49810	0.13256
524.56953	0.13657
522.64097	0.12276
520.71240	0.10583
518.78384	0.11207
516.85527	0.12083
514.92671	0.10727
512.99814	0.08474
511.06958	0.07123
509.14102	0.09705
507.21245	0.14487
505.28389	0.15936
503.35532	0.14117
501.42676	0.12589
499.49819	0.11480
