3997.91411	0.06855
3995.98555	0.06944
3994.05698	0.07019
3992.12842	0.07067
3990.19985	0.07096
3988.27129	0.07109
3986.34272	0.07100
3984.41416	0.07091
3982.48560	0.07110
3980.55703	0.07154
3978.62847	0.07210
3976.69990	0.07262
3974.77134	0.07285
3972.84277	0.07290
3970.91421	0.07309
3968.98564	0.07327
3967.05708	0.07322
3965.12852	0.07309
3963.19995	0.07304
3961.27139	0.07307
3959.34282	0.07306
3957.41426	0.07310
3955.48569	0.07351
3953.55713	0.07390
3951.62856	0.07395
3949.70000	0.07393
3947.77144	0.07375
3945.84287	0.07358
3943.91431	0.07401
3941.98574	0.07456
3940.05718	0.07432
3938.12861	0.07356
3936.20005	0.07278
3934.27148	0.07259
3932.34292	0.07355
3930.41436	0.07466
3928.48579	0.07448
3926.55723	0.07379
3924.62866	0.07367
3922.70010	0.07374
3920.77153	0.07387
3918.84297	0.07455
3916.91440	0.07507
3914.98584	0.07443
3913.05728	0.07301
3911.12871	0.07192
3909.20015	0.07172
3907.27158	0.07239
3905.34302	0.07377
3903.41445	0.07518
3901.48589	0.07558
3899.55732	0.07535
3897.62876	0.07436
3895.70020	0.07296
3893.77163	0.07295
3891.84307	0.07431
3889.91450	0.07489
3887.98594	0.07428
3886.05737	0.07442
3884.12881	0.07513
3882.20024	0.07503
3880.27168	0.07508
3878.34312	0.07544
3876.41455	0.07515
3874.48599	0.07502
3872.55742	0.07550
3870.62886	0.07624
3868.70029	0.07683
3866.77173	0.07670
3864.84316	0.07703
3862.91460	0.07808
3860.98604	0.07801
3859.05747	0.07709
3857.12891	0.07699
3855.20034	0.07799
3853.27178	0.08021
3851.34321	0.08210
3849.41465	0.08088
3847.48608	0.07923
3845.55752	0.07881
3843.62896	0.07970
3841.70039	0.08155
3839.77183	0.08369
3837.84326	0.08597
3835.91470	0.08710
3833.98613	0.08625
3832.05757	0.08515
3830.12900	0.08488
3828.20044	0.08524
3826.27187	0.08612
3824.34331	0.08721
3822.41475	0.08887
3820.48618	0.09175
3818.55762	0.09309
3816.62905	0.09234
3814.70049	0.09175
3812.77192	0.09129
3810.84336	0.09106
3808.91479	0.09189
3806.98623	0.09412
3805.05767	0.09636
3803.12910	0.09781
3801.20054	0.09992
3799.27197	0.10163
3797.34341	0.10197
3795.41484	0.10243
3793.48628	0.10266
3791.55771	0.10259
3789.62915	0.10306
3787.70059	0.10437
3785.77202	0.10640
3783.84346	0.10865
3781.91489	0.11037
3779.98633	0.11213
3778.05776	0.11438
3776.12920	0.11579
3774.20063	0.11645
3772.27207	0.11762
3770.34351	0.11985
3768.41494	0.12235
3766.48638	0.12394
3764.55781	0.12548
3762.62925	0.12728
3760.70068	0.12939
3758.77212	0.13239
3756.84355	0.13517
3754.91499	0.13693
3752.98643	0.13942
3751.05786	0.14428
3749.12930	0.14972
3747.20073	0.15178
3745.27217	0.15272
3743.34360	0.15556
3741.41504	0.15885
3739.48647	0.16137
3737.55791	0.16477
3735.62935	0.17024
3733.70078	0.17690
3731.77222	0.18140
3729.84365	0.18338
3727.91509	0.18552
3725.98652	0.19036
3724.05796	0.19740
3722.12939	0.20431
3720.20083	0.21101
3718.27227	0.21767
3716.34370	0.22426
3714.41514	0.23130
3712.48657	0.24065
3710.55801	0.25448
3708.62944	0.26876
3706.70088	0.27927
3704.77231	0.28912
3702.84375	0.30162
3700.91519	0.31855
3698.98662	0.33681
3697.05806	0.35374
3695.12949	0.37171
3693.20093	0.39125
3691.27236	0.41316
3689.34380	0.44152
3687.41523	0.47539
3685.48667	0.50431
3683.55811	0.52926
3681.62954	0.55658
3679.70098	0.58806
3677.77241	0.62173
3675.84385	0.66116
3673.91528	0.71312
3671.98672	0.75544
3670.05815	0.79273
3668.12959	0.84364
3666.20103	0.89057
3664.27246	0.93022
3662.34390	0.97280
3660.41533	1.01898
3658.48677	1.06453
3656.55820	1.11279
3654.62964	1.16666
3652.70107	1.21211
3650.77251	1.25217
3648.84395	1.30838
3646.91538	1.37699
3644.98682	1.42620
3643.05825	1.46406
3641.12969	1.50311
3639.20112	1.54552
3637.27256	1.58847
3635.34399	1.63159
3633.41543	1.67503
3631.48687	1.71528
3629.55830	1.75596
3627.62974	1.80935
3625.70117	1.85839
3623.77261	1.89071
3621.84404	1.92335
3619.91548	1.96348
3617.98691	2.01113
3616.05835	2.05382
3614.12979	2.08878
3612.20122	2.12751
3610.27266	2.16760
3608.34409	2.20731
3606.41553	2.24920
3604.48696	2.28896
3602.55840	2.32452
3600.62983	2.36153
3598.70127	2.40200
3596.77271	2.44286
3594.84414	2.48412
3592.91558	2.52641
3590.98701	2.56663
3589.05845	2.60322
3587.12988	2.64497
3585.20132	2.69190
3583.27275	2.73358
3581.34419	2.77235
3579.41562	2.81333
3577.48706	2.85671
3575.55850	2.90022
3573.62993	2.94350
3571.70137	2.98484
3569.77280	3.02373
3567.84424	3.06519
3565.91567	3.11737
3563.98711	3.16879
3562.05854	3.21006
3560.12998	3.25097
3558.20142	3.29557
3556.27285	3.34129
3554.34429	3.38575
3552.41572	3.43126
3550.48716	3.47807
3548.55859	3.52492
3546.63003	3.57200
3544.70146	3.61947
3542.77290	3.66567
3540.84434	3.71085
3538.91577	3.75736
3536.98721	3.80564
3535.05864	3.85691
3533.13008	3.90799
3531.20151	3.95581
3529.27295	4.00195
3527.34438	4.04892
3525.41582	4.09636
3523.48726	4.14495
3521.55869	4.19428
3519.63013	4.24073
3517.70156	4.28902
3515.77300	4.33889
3513.84443	4.38478
3511.91587	4.43238
3509.98730	4.48638
3508.05874	4.53999
3506.13018	4.59080
3504.20161	4.64079
3502.27305	4.68631
3500.34448	4.72808
3498.41592	4.77198
3496.48735	4.82116
3494.55879	4.87435
3492.63022	4.92569
3490.70166	4.97576
3488.77310	5.02627
3486.84453	5.07476
3484.91597	5.12629
3482.98740	5.18038
3481.05884	5.22862
3479.13027	5.26883
3477.20171	5.31248
3475.27314	5.36307
3473.34458	5.40727
3471.41602	5.44764
3469.48745	5.49497
3467.55889	5.55215
3465.63032	5.61209
3463.70176	5.66526
3461.77319	5.71567
3459.84463	5.76448
3457.91606	5.80827
3455.98750	5.85358
3454.05894	5.90349
3452.13037	5.95931
3450.20181	6.01665
3448.27324	6.06264
3446.34468	6.10771
3444.41611	6.16425
3442.48755	6.22781
3440.55898	6.29427
3438.63042	6.35765
3436.70186	6.39794
3434.77329	6.41344
3432.84473	6.44450
3430.91616	6.51200
3428.98760	6.59102
3427.05903	6.64954
3425.13047	6.68917
3423.20190	6.72261
3421.27334	6.76118
3419.34478	6.80775
3417.41621	6.86426
3415.48765	6.93561
3413.55908	7.00691
3411.63052	7.06124
3409.70195	7.08829
3407.77339	7.11216
3405.84482	7.15581
3403.91626	7.21382
3401.98770	7.26488
3400.05913	7.30570
3398.13057	7.34720
3396.20200	7.37738
3394.27344	7.39999
3392.34487	7.42905
3390.41631	7.48101
3388.48774	7.56136
3386.55918	7.66044
3384.63062	7.72885
3382.70205	7.73650
3380.77349	7.72491
3378.84492	7.74311
3376.91636	7.75981
3374.98779	7.72964
3373.05923	7.74426
3371.13066	7.82642
3369.20210	7.90147
3367.27354	7.93829
3365.34497	7.95052
3363.41641	7.93860
3361.48784	7.94905
3359.55928	8.01980
3357.63071	8.06033
3355.70215	8.10525
3353.77358	8.19377
3351.84502	8.21358
3349.91646	8.16859
3347.98789	8.16621
3346.05933	8.18241
3344.13076	8.15405
3342.20220	8.13152
3340.27363	8.15004
3338.34507	8.20724
3336.41650	8.28114
3334.48794	8.40646
3332.55937	8.53384
3330.63081	8.48976
3328.70225	8.38257
3326.77368	8.37239
3324.84512	8.33134
3322.91655	8.21902
3320.98799	8.21874
3319.05942	8.30859
3317.13086	8.34556
3315.20229	8.35400
3313.27373	8.41810
3311.34517	8.42870
3309.41660	8.35758
3307.48804	8.41307
3305.55947	8.55136
3303.63091	8.55578
3301.70234	8.49879
3299.77378	8.53002
3297.84521	8.56480
3295.91665	8.49114
3293.98809	8.39412
3292.05952	8.42825
3290.13096	8.54002
3288.20239	8.49631
3286.27383	8.35133
3284.34526	8.30238
3282.41670	8.40315
3280.48813	8.55556
3278.55957	8.58969
3276.63101	8.48316
3274.70244	8.37687
3272.77388	8.35512
3270.84531	8.36965
3268.91675	8.34302
3266.98818	8.29771
3265.05962	8.32040
3263.13105	8.38708
3261.20249	8.44508
3259.27393	8.48757
3257.34536	8.46535
3255.41680	8.37579
3253.48823	8.30358
3251.55967	8.32715
3249.63110	8.47889
3247.70254	8.62753
3245.77397	8.58062
3243.84541	8.49199
3241.91685	8.49474
3239.98828	8.53393
3238.05972	8.54760
3236.13115	8.47466
3234.20259	8.41434
3232.27402	8.46688
3230.34546	8.56342
3228.41689	8.59528
3226.48833	8.52393
3224.55977	8.36524
3222.63120	8.24252
3220.70264	8.26656
3218.77407	8.30492
3216.84551	8.22501
3214.91694	8.16274
3212.98838	8.15689
3211.05981	8.14096
3209.13125	8.16474
3207.20269	8.25876
3205.27412	8.29014
3203.34556	8.18359
3201.41699	8.05111
3199.48843	7.95992
3197.55986	7.91945
3195.63130	7.89010
3193.70273	7.82252
3191.77417	7.74778
3189.84561	7.70109
3187.91704	7.71943
3185.98848	7.78179
3184.05991	7.74211
3182.13135	7.57985
3180.20278	7.44481
3178.27422	7.40332
3176.34565	7.40321
3174.41709	7.36775
3172.48853	7.29918
3170.55996	7.23424
3168.63140	7.16313
3166.70283	7.07796
3164.77427	7.00224
3162.84570	6.93600
3160.91714	6.86739
3158.98857	6.78348
3157.06001	6.68066
3155.13145	6.59345
3153.20288	6.52471
3151.27432	6.46244
3149.34575	6.40434
3147.41719	6.32566
3145.48862	6.23813
3143.56006	6.18115
3141.63149	6.13951
3139.70293	6.07159
3137.77437	5.99232
3135.84580	5.92652
3133.91724	5.85896
3131.98867	5.77880
3130.06011	5.70118
3128.13154	5.63344
3126.20298	5.56184
3124.27441	5.48572
3122.34585	5.41334
3120.41729	5.34192
3118.48872	5.27116
3116.56016	5.20319
3114.63159	5.13196
3112.70303	5.05716
3110.77446	4.98741
3108.84590	4.91971
3106.91733	4.84730
3104.98877	4.77663
3103.06021	4.71127
3101.13164	4.64390
3099.20308	4.57311
3097.27451	4.50248
3095.34595	4.43380
3093.41738	4.36781
3091.48882	4.30506
3089.56025	4.24366
3087.63169	4.17848
3085.70312	4.11274
3083.77456	4.05124
3081.84600	3.99007
3079.91743	3.92720
3077.98887	3.86403
3076.06030	3.79995
3074.13174	3.73706
3072.20317	3.67889
3070.27461	3.62277
3068.34604	3.56398
3066.41748	3.50393
3064.48892	3.44809
3062.56035	3.39620
3060.63179	3.34377
3058.70322	3.28957
3056.77466	3.23459
3054.84609	3.18016
3052.91753	3.12642
3050.98896	3.07287
3049.06040	3.02043
3047.13184	2.96967
3045.20327	2.91939
3043.27471	2.86888
3041.34614	2.81891
3039.41758	2.77094
3037.48901	2.72577
3035.56045	2.68092
3033.63188	2.63436
3031.70332	2.58801
3029.77476	2.54302
3027.84619	2.49888
3025.91763	2.45552
3023.98906	2.41277
3022.06050	2.37051
3020.13193	2.32868
3018.20337	2.28756
3016.27480	2.24756
3014.34624	2.20830
3012.41768	2.16933
3010.48911	2.13067
3008.56055	2.09274
3006.63198	2.05582
3004.70342	2.01931
3002.77485	1.98338
3000.84629	1.94893
2998.91772	1.91528
2996.98916	1.88178
2995.06060	1.84939
2993.13203	1.81841
2991.20347	1.78821
2989.27490	1.75819
2987.34634	1.72793
2985.41777	1.69789
2983.48921	1.66872
2981.56064	1.64063
2979.63208	1.61372
2977.70352	1.58755
2975.77495	1.56177
2973.84639	1.53653
2971.91782	1.51140
2969.98926	1.48612
2968.06069	1.46142
2966.13213	1.43737
2964.20356	1.41336
2962.27500	1.38944
2960.34644	1.36560
2958.41787	1.34176
2956.48931	1.31834
2954.56074	1.29538
2952.63218	1.27232
2950.70361	1.24921
2948.77505	1.22667
2946.84648	1.20489
2944.91792	1.18403
2942.98936	1.16404
2941.06079	1.14443
2939.13223	1.12495
2937.20366	1.10552
2935.27510	1.08625
2933.34653	1.06741
2931.41797	1.04863
2929.48940	1.02955
2927.56084	1.01097
2925.63228	0.99326
2923.70371	0.97589
2921.77515	0.95865
2919.84658	0.94134
2917.91802	0.92348
2915.98945	0.90545
2914.06089	0.88829
2912.13232	0.87233
2910.20376	0.85707
2908.27520	0.84179
2906.34663	0.82659
2904.41807	0.81215
2902.48950	0.79853
2900.56094	0.78521
2898.63237	0.77168
2896.70381	0.75806
2894.77524	0.74477
2892.84668	0.73217
2890.91812	0.72038
2888.98955	0.70901
2887.06099	0.69764
2885.13242	0.68654
2883.20386	0.67581
2881.27529	0.66559
2879.34673	0.65615
2877.41816	0.64681
2875.48960	0.63693
2873.56104	0.62691
2871.63247	0.61702
2869.70391	0.60691
2867.77534	0.59608
2865.84678	0.58455
2863.91821	0.57301
2861.98965	0.56196
2860.06108	0.55119
2858.13252	0.54080
2856.20396	0.53132
2854.27539	0.52276
2852.34683	0.51448
2850.41826	0.50577
2848.48970	0.49691
2846.56113	0.48863
2844.63257	0.48081
2842.70400	0.47334
2840.77544	0.46638
2838.84687	0.45967
2836.91831	0.45300
2834.98975	0.44666
2833.06118	0.44067
2831.13262	0.43471
2829.20405	0.42858
2827.27549	0.42212
2825.34692	0.41569
2823.41836	0.40976
2821.48979	0.40404
2819.56123	0.39811
2817.63267	0.39217
2815.70410	0.38651
2813.77554	0.38105
2811.84697	0.37553
2809.91841	0.36997
2807.98984	0.36451
2806.06128	0.35928
2804.13271	0.35430
2802.20415	0.34930
2800.27559	0.34423
2798.34702	0.33935
2796.41846	0.33471
2794.48989	0.33010
2792.56133	0.32549
2790.63276	0.32087
2788.70420	0.31637
2786.77563	0.31204
2784.84707	0.30793
2782.91851	0.30401
2780.98994	0.30002
2779.06138	0.29600
2777.13281	0.29215
2775.20425	0.28835
2773.27568	0.28459
2771.34712	0.28096
2769.41855	0.27747
2767.48999	0.27398
2765.56143	0.27034
2763.63286	0.26672
2761.70430	0.26343
2759.77573	0.26037
2757.84717	0.25723
2755.91860	0.25402
2753.99004	0.25097
2752.06147	0.24811
2750.13291	0.24524
2748.20435	0.24233
2746.27578	0.23955
2744.34722	0.23682
2742.41865	0.23406
2740.49009	0.23142
2738.56152	0.22896
2736.63296	0.22663
2734.70439	0.22440
2732.77583	0.22210
2730.84727	0.21959
2728.91870	0.21701
2726.99014	0.21465
2725.06157	0.21245
2723.13301	0.21027
2721.20444	0.20832
2719.27588	0.20661
2717.34731	0.20476
2715.41875	0.20273
2713.49019	0.20082
2711.56162	0.19908
2709.63306	0.19739
2707.70449	0.19566
2705.77593	0.19394
2703.84736	0.19240
2701.91880	0.19095
2699.99023	0.18941
2698.06167	0.18783
2696.13311	0.18628
2694.20454	0.18466
2692.27598	0.18307
2690.34741	0.18179
2688.41885	0.18064
2686.49028	0.17943
2684.56172	0.17834
2682.63315	0.17738
2680.70459	0.17627
2678.77603	0.17496
2676.84746	0.17364
2674.91890	0.17235
2672.99033	0.17111
2671.06177	0.17012
2669.13320	0.16923
2667.20464	0.16822
2665.27607	0.16736
2663.34751	0.16671
2661.41895	0.16586
2659.49038	0.16488
2657.56182	0.16409
2655.63325	0.16332
2653.70469	0.16254
2651.77612	0.16188
2649.84756	0.16125
2647.91899	0.16058
2645.99043	0.15989
2644.06187	0.15929
2642.13330	0.15880
2640.20474	0.15834
2638.27617	0.15791
2636.34761	0.15739
2634.41904	0.15664
2632.49048	0.15601
2630.56191	0.15565
2628.63335	0.15533
2626.70479	0.15502
2624.77622	0.15473
2622.84766	0.15448
2620.91909	0.15427
2618.99053	0.15403
2617.06196	0.15373
2615.13340	0.15341
2613.20483	0.15317
2611.27627	0.15310
2609.34771	0.15314
2607.41914	0.15306
2605.49058	0.15287
2603.56201	0.15272
2601.63345	0.15261
2599.70488	0.15254
2597.77632	0.15263
2595.84775	0.15281
2593.91919	0.15295
2591.99062	0.15290
2590.06206	0.15273
2588.13350	0.15269
2586.20493	0.15288
2584.27637	0.15318
2582.34780	0.15344
2580.41924	0.15368
2578.49067	0.15399
2576.56211	0.15433
2574.63354	0.15472
2572.70498	0.15518
2570.77642	0.15554
2568.84785	0.15575
2566.91929	0.15597
2564.99072	0.15642
2563.06216	0.15699
2561.13359	0.15740
2559.20503	0.15772
2557.27646	0.15824
2555.34790	0.15883
2553.41934	0.15929
2551.49077	0.15967
2549.56221	0.16010
2547.63364	0.16060
2545.70508	0.16113
2543.77651	0.16171
2541.84795	0.16233
2539.91938	0.16290
2537.99082	0.16353
2536.06226	0.16431
2534.13369	0.16504
2532.20513	0.16558
2530.27656	0.16611
2528.34800	0.16673
2526.41943	0.16739
2524.49087	0.16818
2522.56230	0.16903
2520.63374	0.16974
2518.70518	0.17028
2516.77661	0.17082
2514.84805	0.17153
2512.91948	0.17239
2510.99092	0.17328
2509.06235	0.17418
2507.13379	0.17512
2505.20522	0.17600
2503.27666	0.17669
2501.34810	0.17734
2499.41953	0.17812
2497.49097	0.17887
2495.56240	0.17961
2493.63384	0.18043
2491.70527	0.18130
2489.77671	0.18225
2487.84814	0.18312
2485.91958	0.18383
2483.99102	0.18459
2482.06245	0.18543
2480.13389	0.18623
2478.20532	0.18709
2476.27676	0.18806
2474.34819	0.18898
2472.41963	0.18970
2470.49106	0.19042
2468.56250	0.19135
2466.63394	0.19233
2464.70537	0.19329
2462.77681	0.19439
2460.84824	0.19549
2458.91968	0.19634
2456.99111	0.19702
2455.06255	0.19783
2453.13398	0.19889
2451.20542	0.19991
2449.27686	0.20078
2447.34829	0.20170
2445.41973	0.20266
2443.49116	0.20353
2441.56260	0.20440
2439.63403	0.20544
2437.70547	0.20656
2435.77690	0.20759
2433.84834	0.20854
2431.91978	0.20950
2429.99121	0.21051
2428.06265	0.21159
2426.13408	0.21274
2424.20552	0.21384
2422.27695	0.21482
2420.34839	0.21581
2418.41982	0.21698
2416.49126	0.21824
2414.56270	0.21941
2412.63413	0.22042
2410.70557	0.22136
2408.77700	0.22249
2406.84844	0.22379
2404.91987	0.22508
2402.99131	0.22631
2401.06274	0.22753
2399.13418	0.22870
2397.20562	0.22981
2395.27705	0.23096
2393.34849	0.23210
2391.41992	0.23325
2389.49136	0.23450
2387.56279	0.23587
2385.63423	0.23719
2383.70566	0.23827
2381.77710	0.23909
2379.84854	0.23985
2377.91997	0.24088
2375.99141	0.24207
2374.06284	0.24293
2372.13428	0.24326
2370.20571	0.24320
2368.27715	0.24320
2366.34858	0.24344
2364.42002	0.24367
2362.49146	0.24415
2360.56289	0.24650
2358.63433	0.25048
2356.70576	0.25288
2354.77720	0.25398
2352.84863	0.25604
2350.92007	0.25841
2348.99150	0.25994
2347.06294	0.26070
2345.13437	0.26137
2343.20581	0.26221
2341.27725	0.26275
2339.34868	0.26387
2337.42012	0.26588
2335.49155	0.26784
2333.56299	0.26980
2331.63442	0.27220
2329.70586	0.27494
2327.77729	0.27753
2325.84873	0.27962
2323.92017	0.28169
2321.99160	0.28399
2320.06304	0.28604
2318.13447	0.28785
2316.20591	0.28989
2314.27734	0.29228
2312.34878	0.29439
2310.42021	0.29601
2308.49165	0.29763
2306.56309	0.29933
2304.63452	0.30112
2302.70596	0.30323
2300.77739	0.30552
2298.84883	0.30758
2296.92026	0.30940
2294.99170	0.31118
2293.06313	0.31311
2291.13457	0.31522
2289.20601	0.31729
2287.27744	0.31921
2285.34888	0.32113
2283.42031	0.32306
2281.49175	0.32507
2279.56318	0.32720
2277.63462	0.32928
2275.70605	0.33120
2273.77749	0.33313
2271.84893	0.33517
2269.92036	0.33731
2267.99180	0.33946
2266.06323	0.34155
2264.13467	0.34354
2262.20610	0.34549
2260.27754	0.34758
2258.34897	0.34982
2256.42041	0.35202
2254.49185	0.35416
2252.56328	0.35637
2250.63472	0.35859
2248.70615	0.36077
2246.77759	0.36300
2244.84902	0.36522
2242.92046	0.36730
2240.99189	0.36942
2239.06333	0.37166
2237.13477	0.37390
2235.20620	0.37604
2233.27764	0.37822
2231.34907	0.38050
2229.42051	0.38284
2227.49194	0.38517
2225.56338	0.38739
2223.63481	0.38954
2221.70625	0.39181
2219.77769	0.39417
2217.84912	0.39632
2215.92056	0.39827
2213.99199	0.40034
2212.06343	0.40265
2210.13486	0.40495
2208.20630	0.40706
2206.27773	0.40904
2204.34917	0.41095
2202.42061	0.41285
2200.49204	0.41488
2198.56348	0.41704
2196.63491	0.41912
2194.70635	0.42098
2192.77778	0.42271
2190.84922	0.42456
2188.92065	0.42668
2186.99209	0.42884
2185.06353	0.43077
2183.13496	0.43246
2181.20640	0.43406
2179.27783	0.43562
2177.34927	0.43722
2175.42070	0.43872
2173.49214	0.44003
2171.56357	0.44137
2169.63501	0.44285
2167.70645	0.44427
2165.77788	0.44548
2163.84932	0.44655
2161.92075	0.44759
2159.99219	0.44864
2158.06362	0.44968
2156.13506	0.45070
2154.20649	0.45165
2152.27793	0.45242
2150.34937	0.45304
2148.42080	0.45368
2146.49224	0.45430
2144.56367	0.45477
2142.63511	0.45512
2140.70654	0.45535
2138.77798	0.45553
2136.84941	0.45571
2134.92085	0.45581
2132.99229	0.45574
2131.06372	0.45552
2129.13516	0.45528
2127.20659	0.45508
2125.27803	0.45499
2123.34946	0.45486
2121.42090	0.45454
2119.49233	0.45392
2117.56377	0.45305
2115.63521	0.45205
2113.70664	0.45119
2111.77808	0.45038
2109.84951	0.44939
2107.92095	0.44828
2105.99238	0.44715
2104.06382	0.44602
2102.13525	0.44478
2100.20669	0.44337
2098.27812	0.44197
2096.34956	0.44058
2094.42100	0.43898
2092.49243	0.43719
2090.56387	0.43543
2088.63530	0.43364
2086.70674	0.43178
2084.77817	0.42990
2082.84961	0.42793
2080.92104	0.42588
2078.99248	0.42389
2077.06392	0.42193
2075.13535	0.41988
2073.20679	0.41773
2071.27822	0.41548
2069.34966	0.41315
2067.42109	0.41076
2065.49253	0.40834
2063.56396	0.40587
2061.63540	0.40345
2059.70684	0.40110
2057.77827	0.39876
2055.84971	0.39633
2053.92114	0.39373
2051.99258	0.39103
2050.06401	0.38838
2048.13545	0.38580
2046.20688	0.38308
2044.27832	0.38031
2042.34976	0.37764
2040.42119	0.37496
2038.49263	0.37217
2036.56406	0.36926
2034.63550	0.36640
2032.70693	0.36365
2030.77837	0.36089
2028.84980	0.35808
2026.92124	0.35536
2024.99268	0.35277
2023.06411	0.35012
2021.13555	0.34729
2019.20698	0.34447
2017.27842	0.34178
2015.34985	0.33907
2013.42129	0.33628
2011.49272	0.33347
2009.56416	0.33066
2007.63560	0.32785
2005.70703	0.32517
2003.77847	0.32261
2001.84990	0.32002
1999.92134	0.31731
1997.99277	0.31462
1996.06421	0.31209
1994.13564	0.30975
1992.20708	0.30752
1990.27852	0.30515
1988.34995	0.30261
1986.42139	0.30005
1984.49282	0.29755
1982.56426	0.29512
1980.63569	0.29275
1978.70713	0.29044
1976.77856	0.28817
1974.85000	0.28600
1972.92144	0.28388
1970.99287	0.28184
1969.06431	0.27999
1967.13574	0.27821
1965.20718	0.27626
1963.27861	0.27416
1961.35005	0.27205
1959.42148	0.27002
1957.49292	0.26823
1955.56436	0.26657
1953.63579	0.26483
1951.70723	0.26305
1949.77866	0.26146
1947.85010	0.25997
1945.92153	0.25857
1943.99297	0.25730
1942.06440	0.25589
1940.13584	0.25418
1938.20728	0.25255
1936.27871	0.25127
1934.35015	0.25014
1932.42158	0.24900
1930.49302	0.24777
1928.56445	0.24655
1926.63589	0.24544
1924.70732	0.24460
1922.77876	0.24386
1920.85020	0.24287
1918.92163	0.24185
1916.99307	0.24092
1915.06450	0.23994
1913.13594	0.23909
1911.20737	0.23849
1909.27881	0.23792
1907.35024	0.23716
1905.42168	0.23630
1903.49312	0.23559
1901.56455	0.23501
1899.63599	0.23454
1897.70742	0.23425
1895.77886	0.23403
1893.85029	0.23369
1891.92173	0.23337
1889.99316	0.23332
1888.06460	0.23316
1886.13604	0.23278
1884.20747	0.23244
1882.27891	0.23213
1880.35034	0.23191
1878.42178	0.23182
1876.49321	0.23178
1874.56465	0.23172
1872.63608	0.23191
1870.70752	0.23256
1868.77896	0.23353
1866.85039	0.23391
1864.92183	0.23355
1862.99326	0.23327
1861.06470	0.23331
1859.13613	0.23361
1857.20757	0.23399
1855.27900	0.23447
1853.35044	0.23497
1851.42187	0.23555
1849.49331	0.23617
1847.56475	0.23695
1845.63618	0.23800
1843.70762	0.23917
1841.77905	0.23981
1839.85049	0.23992
1837.92192	0.24052
1835.99336	0.24163
1834.06479	0.24268
1832.13623	0.24366
1830.20767	0.24526
1828.27910	0.24697
1826.35054	0.24801
1824.42197	0.24907
1822.49341	0.25012
1820.56484	0.25117
1818.63628	0.25245
1816.70771	0.25408
1814.77915	0.25576
1812.85059	0.25761
1810.92202	0.25980
1808.99346	0.26191
1807.06489	0.26377
1805.13633	0.26562
1803.20776	0.26787
1801.27920	0.27052
1799.35063	0.27345
1797.42207	0.27599
1795.49351	0.27838
1793.56494	0.28125
1791.63638	0.28494
1789.70781	0.28826
1787.77925	0.29062
1785.85068	0.29354
1783.92212	0.29717
1781.99355	0.30120
1780.06499	0.30546
1778.13643	0.30972
1776.20786	0.31382
1774.27930	0.31840
1772.35073	0.32449
1770.42217	0.33081
1768.49360	0.33590
1766.56504	0.34078
1764.63647	0.34589
1762.70791	0.35169
1760.77935	0.35920
1758.85078	0.36628
1756.92222	0.37336
1754.99365	0.38112
1753.06509	0.38832
1751.13652	0.39697
1749.20796	0.40771
1747.27939	0.41802
1745.35083	0.42702
1743.42227	0.43673
1741.49370	0.44754
1739.56514	0.46023
1737.63657	0.47285
1735.70801	0.48389
1733.77944	0.50054
1731.85088	0.52023
1729.92231	0.53538
1727.99375	0.55059
1726.06519	0.56716
1724.13662	0.58550
1722.20806	0.60528
1720.27949	0.62353
1718.35093	0.64522
1716.42236	0.67750
1714.49380	0.70783
1712.56523	0.73209
1710.63667	0.75571
1708.70811	0.78136
1706.77954	0.81074
1704.85098	0.84595
1702.92241	0.87746
1700.99385	0.90895
1699.06528	0.95606
1697.13672	0.99895
1695.20815	1.04254
1693.27959	1.08491
1691.35103	1.11922
1689.42246	1.15936
1687.49390	1.20223
1685.56533	1.24375
1683.63677	1.30717
1681.70820	1.37242
1679.77964	1.41436
1677.85107	1.45470
1675.92251	1.50096
1673.99395	1.55780
1672.06538	1.60896
1670.13682	1.66022
1668.20825	1.72645
1666.27969	1.78019
1664.35112	1.82608
1662.42256	1.88337
1660.49399	1.94804
1658.56543	1.99955
1656.63687	2.04182
1654.70830	2.08100
1652.77974	2.14114
1650.85117	2.19440
1648.92261	2.21213
1646.99404	2.23623
1645.06548	2.26298
1643.13691	2.28032
1641.20835	2.28929
1639.27979	2.29682
1637.35122	2.30174
1635.42266	2.29898
1633.49409	2.28590
1631.56553	2.26994
1629.63696	2.25280
1627.70840	2.22369
1625.77983	2.18877
1623.85127	2.14662
1621.92271	2.09599
1619.99414	2.05045
1618.06558	2.00528
1616.13701	1.94018
1614.20845	1.87485
1612.27988	1.82630
1610.35132	1.77545
1608.42275	1.72007
1606.49419	1.66580
1604.56562	1.61554
1602.63706	1.56652
1600.70850	1.51878
1598.77993	1.47545
1596.85137	1.43518
1594.92280	1.39581
1592.99424	1.35761
1591.06567	1.32310
1589.13711	1.29120
1587.20854	1.26158
1585.27998	1.23420
1583.35142	1.20871
1581.42285	1.18552
1579.49429	1.16588
1577.56572	1.14899
1575.63716	1.12914
1573.70859	1.11133
1571.78003	1.09989
1569.85146	1.08873
1567.92290	1.07619
1565.99434	1.06653
1564.06577	1.05974
1562.13721	1.05529
1560.20864	1.05379
1558.28008	1.05449
1556.35151	1.05393
1554.42295	1.05253
1552.49438	1.05158
1550.56582	1.04963
1548.63726	1.04537
1546.70869	1.03942
1544.78013	1.03174
1542.85156	1.02154
1540.92300	1.00564
1538.99443	0.97856
1537.06587	0.95798
1535.13730	0.94448
1533.20874	0.92709
1531.28018	0.90827
1529.35161	0.89442
1527.42305	0.88170
1525.49448	0.86892
1523.56592	0.85822
1521.63735	0.84799
1519.70879	0.83701
1517.78022	0.82721
1515.85166	0.81613
1513.92310	0.80477
1511.99453	0.79514
1510.06597	0.78668
1508.13740	0.77888
1506.20884	0.76641
1504.28027	0.75421
1502.35171	0.74702
1500.42314	0.74123
1498.49458	0.73558
1496.56602	0.72871
1494.63745	0.72144
1492.70889	0.71607
1490.78032	0.71176
1488.85176	0.70639
1486.92319	0.70059
1484.99463	0.69600
1483.06606	0.69268
1481.13750	0.69005
1479.20894	0.68804
1477.28037	0.68705
1475.35181	0.68697
1473.42324	0.68718
1471.49468	0.68629
1469.56611	0.68413
1467.63755	0.68208
1465.70898	0.68078
1463.78042	0.67984
1461.85186	0.67903
1459.92329	0.67894
1457.99473	0.67974
1456.06616	0.67944
1454.13760	0.67688
1452.20903	0.67434
1450.28047	0.67211
1448.35190	0.66984
1446.42334	0.66719
1444.49478	0.66452
1442.56621	0.66215
1440.63765	0.65984
1438.70908	0.65748
1436.78052	0.65457
1434.85195	0.65111
1432.92339	0.64827
1430.99482	0.64633
1429.06626	0.64504
1427.13770	0.64434
1425.20913	0.64430
1423.28057	0.64486
1421.35200	0.64534
1419.42344	0.64547
1417.49487	0.64495
1415.56631	0.64360
1413.63774	0.64241
1411.70918	0.64187
1409.78062	0.64195
1407.85205	0.64260
1405.92349	0.64371
1403.99492	0.64469
1402.06636	0.64479
1400.13779	0.64425
1398.20923	0.64304
1396.28066	0.64081
1394.35210	0.63745
1392.42354	0.63354
1390.49497	0.63000
1388.56641	0.62660
1386.63784	0.62263
1384.70928	0.61826
1382.78071	0.61422
1380.85215	0.61054
1378.92358	0.60731
1376.99502	0.60482
1375.06646	0.60328
1373.13789	0.60230
1371.20933	0.60139
1369.28076	0.60058
1367.35220	0.59960
1365.42363	0.59831
1363.49507	0.59699
1361.56650	0.59565
1359.63794	0.59418
1357.70937	0.59262
1355.78081	0.59101
1353.85225	0.58967
1351.92368	0.58873
1349.99512	0.58799
1348.06655	0.58734
1346.13799	0.58649
1344.20942	0.58539
1342.28086	0.58444
1340.35229	0.58387
1338.42373	0.58326
1336.49517	0.58234
1334.56660	0.58153
1332.63804	0.58111
1330.70947	0.58097
1328.78091	0.58095
1326.85234	0.58114
1324.92378	0.58161
1322.99521	0.58216
1321.06665	0.58262
1319.13809	0.58300
1317.20952	0.58321
1315.28096	0.58308
1313.35239	0.58261
1311.42383	0.58188
1309.49526	0.58104
1307.56670	0.58030
1305.63813	0.57973
1303.70957	0.57916
1301.78101	0.57847
1299.85244	0.57759
1297.92388	0.57652
1295.99531	0.57542
1294.06675	0.57438
1292.13818	0.57338
1290.20962	0.57233
1288.28105	0.57116
1286.35249	0.56991
1284.42393	0.56877
1282.49536	0.56771
1280.56680	0.56660
1278.63823	0.56540
1276.70967	0.56427
1274.78110	0.56328
1272.85254	0.56233
1270.92397	0.56133
1268.99541	0.56039
1267.06685	0.55965
1265.13828	0.55916
1263.20972	0.55872
1261.28115	0.55803
1259.35259	0.55716
1257.42402	0.55640
1255.49546	0.55591
1253.56689	0.55576
1251.63833	0.55589
1249.70977	0.55593
1247.78120	0.55557
1245.85264	0.55511
1243.92407	0.55456
1241.99551	0.55366
1240.06694	0.55247
1238.13838	0.55101
1236.20981	0.54920
1234.28125	0.54715
1232.35269	0.54507
1230.42412	0.54325
1228.49556	0.54169
1226.56699	0.54001
1224.63843	0.53816
1222.70986	0.53636
1220.78130	0.53467
1218.85273	0.53320
1216.92417	0.53203
1214.99561	0.53108
1213.06704	0.53024
1211.13848	0.52946
1209.20991	0.52870
1207.28135	0.52802
1205.35278	0.52726
1203.42422	0.52628
1201.49565	0.52532
1199.56709	0.52458
1197.63853	0.52388
1195.70996	0.52314
1193.78140	0.52241
1191.85283	0.52160
1189.92427	0.52075
1187.99570	0.52018
1186.06714	0.52002
1184.13857	0.51998
1182.21001	0.51998
1180.28145	0.52040
1178.35288	0.52138
1176.42432	0.52261
1174.49575	0.52379
1172.56719	0.52474
1170.63862	0.52542
1168.71006	0.52595
1166.78149	0.52635
1164.85293	0.52669
1162.92437	0.52707
1160.99580	0.52743
1159.06724	0.52757
1157.13867	0.52735
1155.21011	0.52663
1153.28154	0.52547
1151.35298	0.52399
1149.42441	0.52210
1147.49585	0.51980
1145.56729	0.51718
1143.63872	0.51444
1141.71016	0.51198
1139.78159	0.51003
1137.85303	0.50848
1135.92446	0.50744
1133.99590	0.50699
1132.06733	0.50665
1130.13877	0.50631
1128.21021	0.50607
1126.28164	0.50578
1124.35308	0.50545
1122.42451	0.50523
1120.49595	0.50524
1118.56738	0.50548
1116.63882	0.50589
1114.71025	0.50649
1112.78169	0.50738
1110.85312	0.50846
1108.92456	0.50951
1106.99600	0.51050
1105.06743	0.51137
1103.13887	0.51199
1101.21030	0.51267
1099.28174	0.51385
1097.35317	0.51554
1095.42461	0.51788
1093.49604	0.52127
1091.56748	0.52611
1089.63892	0.53254
1087.71035	0.54047
1085.78179	0.54947
1083.85322	0.55847
1081.92466	0.56635
1079.99609	0.57216
1078.06753	0.57498
1076.13896	0.57464
1074.21040	0.57156
1072.28184	0.56611
1070.35327	0.55894
1068.42471	0.55126
1066.49614	0.54408
1064.56758	0.53767
1062.63901	0.53204
1060.71045	0.52733
1058.78188	0.52329
1056.85332	0.51957
1054.92476	0.51619
1052.99619	0.51323
1051.06763	0.51084
1049.13906	0.50918
1047.21050	0.50829
1045.28193	0.50809
1043.35337	0.50817
1041.42480	0.50833
1039.49624	0.50876
1037.56768	0.50926
1035.63911	0.50943
1033.71055	0.50905
1031.78198	0.50803
1029.85342	0.50642
1027.92485	0.50448
1025.99629	0.50250
1024.06772	0.50075
1022.13916	0.49956
1020.21060	0.49903
1018.28203	0.49900
1016.35347	0.49911
1014.42490	0.49885
1012.49634	0.49818
1010.56777	0.49746
1008.63921	0.49705
1006.71064	0.49723
1004.78208	0.49801
1002.85352	0.49945
1000.92495	0.50193
998.99639	0.50542
997.06782	0.50955
995.13926	0.51407
993.21069	0.51839
991.28213	0.52163
989.35356	0.52343
987.42500	0.52399
985.49644	0.52378
983.56787	0.52333
981.63931	0.52339
979.71074	0.52422
977.78218	0.52556
975.85361	0.52744
973.92505	0.52989
971.99648	0.53271
970.06792	0.53585
968.13936	0.53938
966.21079	0.54349
964.28223	0.54828
962.35366	0.55341
960.42510	0.55862
958.49653	0.56415
956.56797	0.56985
954.63940	0.57544
952.71084	0.58123
950.78228	0.58749
948.85371	0.59399
946.92515	0.60059
944.99658	0.60728
943.06802	0.61381
941.13945	0.62000
939.21089	0.62583
937.28232	0.63153
935.35376	0.63697
933.42520	0.64203
931.49663	0.64748
929.56807	0.65356
927.63950	0.65981
925.71094	0.66651
923.78237	0.67371
921.85381	0.68084
919.92524	0.68779
917.99668	0.69435
916.06812	0.70121
914.13955	0.70916
912.21099	0.71731
910.28242	0.72522
908.35386	0.73293
906.42529	0.74094
904.49673	0.74989
902.56816	0.75881
900.63960	0.76769
898.71104	0.77799
896.78247	0.78952
894.85391	0.80011
892.92534	0.80891
890.99678	0.81854
889.06821	0.83079
887.13965	0.84398
885.21108	0.85624
883.28252	0.86718
881.35396	0.87797
879.42539	0.88971
877.49683	0.90145
875.56826	0.91294
873.63970	0.92479
871.71113	0.93586
869.78257	0.94697
867.85400	0.96013
865.92544	0.97259
863.99687	0.98303
862.06831	0.99446
860.13975	1.00713
858.21118	1.02035
856.28262	1.03452
854.35405	1.04824
852.42549	1.06007
850.49692	1.07028
848.56836	1.08010
846.63979	1.09217
844.71123	1.10739
842.78267	1.12222
840.85410	1.13481
838.92554	1.14789
836.99697	1.16194
835.06841	1.17258
833.13984	1.18110
831.21128	1.19299
829.28271	1.20704
827.35415	1.22027
825.42559	1.23269
823.49702	1.24527
821.56846	1.25958
819.63989	1.27768
817.71133	1.29591
815.78276	1.30900
813.85420	1.32029
811.92563	1.33680
809.99707	1.35419
808.06851	1.37092
806.13994	1.39912
804.21138	1.41978
802.28281	1.41617
800.35425	1.41310
798.42568	1.43159
796.49712	1.47227
794.56855	1.49173
792.63999	1.46864
790.71143	1.49732
788.78286	1.61955
786.85430	1.67721
784.92573	1.62178
782.99717	1.59643
781.06860	1.58831
779.14004	1.60611
777.21147	1.55888
775.28291	1.45719
773.35435	1.39080
771.42578	1.42654
769.49722	1.64839
767.56865	1.91114
765.64009	1.84334
763.71152	1.74234
761.78296	1.66653
759.85439	1.56081
757.92583	1.37143
755.99727	1.26742
754.06870	1.21727
752.14014	1.12016
750.21157	1.05041
748.28301	1.03657
746.35444	0.99442
744.42588	0.91831
742.49731	0.90716
740.56875	0.96895
738.64019	0.93660
736.71162	0.75532
734.78306	0.59648
732.85449	0.49085
730.92593	0.42443
728.99736	0.32223
727.06880	0.12379
725.14023	-0.15933
723.21167	-0.58671
721.28311	4.32770
719.35454	-0.97779
717.42598	-0.20894
715.49741	0.07420
713.56885	0.14134
711.64028	0.10311
709.71172	0.15959
707.78315	0.27684
705.85459	0.33896
703.92603	0.27433
701.99746	0.21389
700.06890	0.17025
698.14033	0.17923
696.21177	0.27238
694.28320	0.35299
692.35464	0.33636
690.42607	0.28708
688.49751	0.27304
686.56895	0.30264
684.64038	0.35730
682.71182	0.45275
680.78325	0.57743
678.85469	0.67123
676.92612	0.60899
674.99756	0.52500
673.06899	0.57056
671.14043	0.61929
669.21187	0.49854
667.28330	0.32939
665.35474	0.22633
663.42617	0.18255
661.49761	0.20017
659.56904	0.27663
657.64048	0.35794
655.71191	0.39827
653.78335	0.41314
651.85479	0.39761
649.92622	0.34389
647.99766	0.27674
646.06909	0.25069
644.14053	0.28595
642.21196	0.33741
640.28340	0.36775
638.35483	0.41157
636.42627	0.48538
634.49771	0.50308
632.56914	0.47234
630.64058	0.40713
628.71201	0.30000
626.78345	0.23163
624.85488	0.23028
622.92632	0.26668
620.99775	0.29724
619.06919	0.29801
617.14062	0.30697
615.21206	0.34842
613.28350	0.39335
611.35493	0.37554
609.42637	0.32061
607.49780	0.29028
605.56924	0.26215
603.64067	0.25558
601.71211	0.32985
599.78354	0.45023
597.85498	0.42711
595.92642	0.32424
593.99785	0.27812
592.06929	0.25307
590.14072	0.21509
588.21216	0.21389
586.28359	0.26633
584.35503	0.32016
582.42646	0.35696
580.49790	0.40676
578.56934	0.41650
576.64077	0.36930
574.71221	0.33996
572.78364	0.32770
570.85508	0.27210
568.92651	0.20618
566.99795	0.20412
565.06938	0.27685
563.14082	0.33174
561.21226	0.31840
559.28369	0.28483
557.35513	0.25022
555.42656	0.24705
553.49800	0.28558
551.56943	0.32952
549.64087	0.31381
547.71230	0.24508
545.78374	0.21927
543.85518	0.24039
541.92661	0.23257
539.99805	0.22420
538.06948	0.27565
536.14092	0.33366
534.21235	0.34721
532.28379	0.35887
530.35522	0.37345
528.42666	0.34955
526.49810	0.29923
524.56953	0.25476
522.64097	0.22443
520.71240	0.21777
518.78384	0.21464
516.85527	0.19036
514.92671	0.19144
512.99814	0.24228
511.06958	0.27647
509.14102	0.24927
507.21245	0.22708
505.28389	0.21450
503.35532	0.20259
501.42676	0.19281
499.49819	0.19179
