3997.91411	0.07212
3995.98555	0.07278
3994.05698	0.07321
3992.12842	0.07349
3990.19985	0.07392
3988.27129	0.07435
3986.34272	0.07472
3984.41416	0.07491
3982.48560	0.07485
3980.55703	0.07519
3978.62847	0.07586
3976.69990	0.07613
3974.77134	0.07614
3972.84277	0.07610
3970.91421	0.07606
3968.98564	0.07625
3967.05708	0.07656
3965.12852	0.07684
3963.19995	0.07709
3961.27139	0.07730
3959.34282	0.07745
3957.41426	0.07754
3955.48569	0.07753
3953.55713	0.07742
3951.62856	0.07760
3949.70000	0.07830
3947.77144	0.07881
3945.84287	0.07865
3943.91431	0.07850
3941.98574	0.07858
3940.05718	0.07817
3938.12861	0.07740
3936.20005	0.07701
3934.27148	0.07720
3932.34292	0.07799
3930.41436	0.07898
3928.48579	0.07920
3926.55723	0.07869
3924.62866	0.07839
3922.70010	0.07823
3920.77153	0.07773
3918.84297	0.07777
3916.91440	0.07869
3914.98584	0.07894
3913.05728	0.07794
3911.12871	0.07695
3909.20015	0.07653
3907.27158	0.07672
3905.34302	0.07821
3903.41445	0.08111
3901.48589	0.08297
3899.55732	0.08206
3897.62876	0.07997
3895.70020	0.07810
3893.77163	0.07738
3891.84307	0.07821
3889.91450	0.07882
3887.98594	0.07822
3886.05737	0.07849
3884.12881	0.07973
3882.20024	0.08055
3880.27168	0.08100
3878.34312	0.08038
3876.41455	0.07937
3874.48599	0.07997
3872.55742	0.08158
3870.62886	0.08263
3868.70029	0.08257
3866.77173	0.08173
3864.84316	0.08206
3862.91460	0.08308
3860.98604	0.08243
3859.05747	0.08119
3857.12891	0.08123
3855.20034	0.08311
3853.27178	0.08716
3851.34321	0.08955
3849.41465	0.08703
3847.48608	0.08436
3845.55752	0.08372
3843.62896	0.08515
3841.70039	0.08759
3839.77183	0.09005
3837.84326	0.09190
3835.91470	0.09170
3833.98613	0.09051
3832.05757	0.09005
3830.12900	0.08993
3828.20044	0.08996
3826.27187	0.09079
3824.34331	0.09204
3822.41475	0.09357
3820.48618	0.09604
3818.55762	0.09727
3816.62905	0.09712
3814.70049	0.09741
3812.77192	0.09706
3810.84336	0.09655
3808.91479	0.09736
3806.98623	0.09968
3805.05767	0.10196
3803.12910	0.10376
3801.20054	0.10642
3799.27197	0.10784
3797.34341	0.10727
3795.41484	0.10723
3793.48628	0.10725
3791.55771	0.10711
3789.62915	0.10789
3787.70059	0.10957
3785.77202	0.11178
3783.84346	0.11392
3781.91489	0.11520
3779.98633	0.11660
3778.05776	0.11872
3776.12920	0.11995
3774.20063	0.12040
3772.27207	0.12159
3770.34351	0.12421
3768.41494	0.12725
3766.48638	0.12920
3764.55781	0.13066
3762.62925	0.13208
3760.70068	0.13403
3758.77212	0.13709
3756.84355	0.14024
3754.91499	0.14286
3752.98643	0.14626
3751.05786	0.15159
3749.12930	0.15639
3747.20073	0.15733
3745.27217	0.15787
3743.34360	0.16043
3741.41504	0.16322
3739.48647	0.16551
3737.55791	0.16903
3735.62935	0.17524
3733.70078	0.18253
3731.77222	0.18624
3729.84365	0.18756
3727.91509	0.18997
3725.98652	0.19499
3724.05796	0.20210
3722.12939	0.20945
3720.20083	0.21644
3718.27227	0.22346
3716.34370	0.23076
3714.41514	0.23828
3712.48657	0.24807
3710.55801	0.26232
3708.62944	0.27606
3706.70088	0.28599
3704.77231	0.29589
3702.84375	0.30838
3700.91519	0.32498
3698.98662	0.34326
3697.05806	0.36072
3695.12949	0.37898
3693.20093	0.39811
3691.27236	0.41973
3689.34380	0.44906
3687.41523	0.48392
3685.48667	0.51253
3683.55811	0.53718
3681.62954	0.56488
3679.70098	0.59659
3677.77241	0.62971
3675.84385	0.66918
3673.91528	0.72200
3671.98672	0.76421
3670.05815	0.80173
3668.12959	0.85347
3666.20103	0.90037
3664.27246	0.93984
3662.34390	0.98248
3660.41533	1.02868
3658.48677	1.07483
3656.55820	1.12416
3654.62964	1.17838
3652.70107	1.22408
3650.77251	1.26515
3648.84395	1.32174
3646.91538	1.38876
3644.98682	1.43660
3643.05825	1.47378
3641.12969	1.51257
3639.20112	1.55517
3637.27256	1.59801
3635.34399	1.64018
3633.41543	1.68301
3631.48687	1.72430
3629.55830	1.76718
3627.62974	1.82160
3625.70117	1.86968
3623.77261	1.90185
3621.84404	1.93477
3619.91548	1.97400
3617.98691	2.02058
3616.05835	2.06479
3614.12979	2.10253
3612.20122	2.14164
3610.27266	2.17918
3608.34409	2.21796
3606.41553	2.26093
3604.48696	2.29920
3602.55840	2.33238
3600.62983	2.36901
3598.70127	2.40947
3596.77271	2.45014
3594.84414	2.49205
3592.91558	2.53364
3590.98701	2.57135
3589.05845	2.60748
3587.12988	2.65149
3585.20132	2.69955
3583.27275	2.74014
3581.34419	2.77722
3579.41562	2.81704
3577.48706	2.86012
3575.55850	2.90316
3573.62993	2.94573
3571.70137	2.98737
3569.77280	3.02865
3567.84424	3.07495
3565.91567	3.13120
3563.98711	3.18103
3562.05854	3.21828
3560.12998	3.25657
3558.20142	3.30099
3556.27285	3.34872
3554.34429	3.39462
3552.41572	3.43986
3550.48716	3.48556
3548.55859	3.53072
3546.63003	3.57874
3544.70146	3.63225
3542.77290	3.68354
3540.84434	3.72691
3538.91577	3.76825
3536.98721	3.81340
3535.05864	3.86258
3533.13008	3.90978
3531.20151	3.95486
3529.27295	4.00234
3527.34438	4.05319
3525.41582	4.10421
3523.48726	4.15247
3521.55869	4.19860
3519.63013	4.24499
3517.70156	4.29516
3515.77300	4.34514
3513.84443	4.39212
3511.91587	4.44302
3509.98730	4.49803
3508.05874	4.54841
3506.13018	4.59151
3504.20161	4.62979
3502.27305	4.67133
3500.34448	4.72156
3498.41592	4.77539
3496.48735	4.83145
3494.55879	4.88438
3492.63022	4.92986
3490.70166	4.97211
3488.77310	5.01451
3486.84453	5.06463
3484.91597	5.12361
3482.98740	5.18193
3481.05884	5.23383
3479.13027	5.27651
3477.20171	5.31826
3475.27314	5.36621
3473.34458	5.41667
3471.41602	5.47248
3469.48745	5.53486
3467.55889	5.59254
3465.63032	5.64084
3463.70176	5.69301
3461.77319	5.74560
3459.84463	5.78484
3457.91606	5.82673
3455.98750	5.89005
3454.05894	5.95503
3452.13037	6.00090
3450.20181	6.04613
3448.27324	6.09619
3446.34468	6.13900
3444.41611	6.18356
3442.48755	6.23603
3440.55898	6.28377
3438.63042	6.33299
3436.70186	6.39903
3434.77329	6.46854
3432.84473	6.51043
3430.91616	6.53466
3428.98760	6.58396
3427.05903	6.65623
3425.13047	6.72953
3423.20190	6.78883
3421.27334	6.84329
3419.34478	6.91082
3417.41621	6.97792
3415.48765	7.01791
3413.55908	7.02491
3411.63052	7.02068
3409.70195	7.02096
3407.77339	7.06922
3405.84482	7.17267
3403.91626	7.26175
3401.98770	7.30588
3400.05913	7.35902
3398.13057	7.43340
3396.20200	7.47766
3394.27344	7.49123
3392.34487	7.49855
3390.41631	7.52780
3388.48774	7.57536
3386.55918	7.64102
3384.63062	7.71924
3382.70205	7.77014
3380.77349	7.83269
3378.84492	7.92242
3376.91636	7.94489
3374.98779	7.90798
3373.05923	7.92076
3371.13066	7.98063
3369.20210	8.04135
3367.27354	8.04776
3365.34497	8.01884
3363.41641	8.04690
3361.48784	8.14646
3359.55928	8.21589
3357.63071	8.13841
3355.70215	8.06688
3353.77358	8.12697
3351.84502	8.18727
3349.91646	8.15976
3347.98789	8.15274
3346.05933	8.17526
3344.13076	8.16443
3342.20220	8.18109
3340.27363	8.27793
3338.34507	8.41090
3336.41650	8.45922
3334.48794	8.39256
3332.55937	8.26294
3330.63081	8.15228
3328.70225	8.14899
3326.77368	8.21353
3324.84512	8.20200
3322.91655	8.16332
3320.98799	8.28819
3319.05942	8.50394
3317.13086	8.57187
3315.20229	8.50245
3313.27373	8.49963
3311.34517	8.63163
3309.41660	8.78631
3307.48804	8.81720
3305.55947	8.73206
3303.63091	8.65255
3301.70234	8.57845
3299.77378	8.50200
3297.84521	8.49822
3295.91665	8.59217
3293.98809	8.67201
3292.05952	8.65728
3290.13096	8.56295
3288.20239	8.47518
3286.27383	8.47391
3284.34526	8.47681
3282.41670	8.46767
3280.48813	8.51820
3278.55957	8.58575
3276.63101	8.57289
3274.70244	8.51737
3272.77388	8.48219
3270.84531	8.46992
3268.91675	8.48808
3266.98818	8.47475
3265.05962	8.49848
3263.13105	8.68432
3261.20249	8.88910
3259.27393	8.88167
3257.34536	8.73970
3255.41680	8.68690
3253.48823	8.85247
3251.55967	9.06601
3249.63110	8.98930
3247.70254	8.82121
3245.77397	8.80522
3243.84541	8.81728
3241.91685	8.78098
3239.98828	8.77895
3238.05972	8.75501
3236.13115	8.66232
3234.20259	8.50785
3232.27402	8.37152
3230.34546	8.39758
3228.41689	8.55005
3226.48833	8.63337
3224.55977	8.56430
3222.63120	8.49291
3220.70264	8.47664
3218.77407	8.41932
3216.84551	8.35540
3214.91694	8.39231
3212.98838	8.48089
3211.05981	8.50137
3209.13125	8.48368
3207.20269	8.46389
3205.27412	8.39206
3203.34556	8.24294
3201.41699	8.08753
3199.48843	8.02616
3197.55986	8.05245
3195.63130	8.04041
3193.70273	7.92119
3191.77417	7.80669
3189.84561	7.76528
3187.91704	7.73014
3185.98848	7.69049
3184.05991	7.68293
3182.13135	7.65811
3180.20278	7.58649
3178.27422	7.49864
3176.34565	7.42027
3174.41709	7.36841
3172.48853	7.34944
3170.55996	7.32902
3168.63140	7.24201
3166.70283	7.13814
3164.77427	7.09847
3162.84570	7.06663
3160.91714	6.98965
3158.98857	6.89336
3157.06001	6.78029
3155.13145	6.67390
3153.20288	6.60379
3151.27432	6.54469
3149.34575	6.48230
3147.41719	6.42657
3145.48862	6.36427
3143.56006	6.28677
3141.63149	6.20174
3139.70293	6.11728
3137.77437	6.04770
3135.84580	5.98624
3133.91724	5.91080
3131.98867	5.82455
3130.06011	5.74450
3128.13154	5.67682
3126.20298	5.61182
3124.27441	5.53386
3122.34585	5.44763
3120.41729	5.37005
3118.48872	5.29801
3116.56016	5.22242
3114.63159	5.14442
3112.70303	5.07008
3110.77446	5.00119
3108.84590	4.93159
3106.91733	4.86411
3104.98877	4.80159
3103.06021	4.73284
3101.13164	4.65510
3099.20308	4.57970
3097.27451	4.51067
3095.34595	4.44343
3093.41738	4.37612
3091.48882	4.30957
3089.56025	4.24311
3087.63169	4.17620
3085.70312	4.11101
3083.77456	4.04792
3081.84600	3.98707
3079.91743	3.92825
3077.98887	3.86681
3076.06030	3.80247
3074.13174	3.73916
3072.20317	3.67756
3070.27461	3.61737
3068.34604	3.55822
3066.41748	3.49993
3064.48892	3.44169
3062.56035	3.38324
3060.63179	3.32721
3058.70322	3.27297
3056.77466	3.21883
3054.84609	3.16592
3052.91753	3.11326
3050.98896	3.05943
3049.06040	3.00553
3047.13184	2.95353
3045.20327	2.90397
3043.27471	2.85472
3041.34614	2.80498
3039.41758	2.75718
3037.48901	2.71112
3035.56045	2.66381
3033.63188	2.61625
3031.70332	2.57041
3029.77476	2.52554
3027.84619	2.48161
3025.91763	2.43879
3023.98906	2.39613
3022.06050	2.35332
3020.13193	2.31099
3018.20337	2.26988
3016.27480	2.22999
3014.34624	2.19078
3012.41768	2.15217
3010.48911	2.11444
3008.56055	2.07675
3006.63198	2.03878
3004.70342	2.00213
3002.77485	1.96703
3000.84629	1.93223
2998.91772	1.89754
2996.98916	1.86340
2995.06060	1.82998
2993.13203	1.79737
2991.20347	1.76548
2989.27490	1.73367
2987.34634	1.70236
2985.41777	1.67276
2983.48921	1.64430
2981.56064	1.61574
2979.63208	1.58731
2977.70352	1.55918
2975.77495	1.53127
2973.84639	1.50386
2971.91782	1.47710
2969.98926	1.45123
2968.06069	1.42620
2966.13213	1.40108
2964.20356	1.37555
2962.27500	1.35061
2960.34644	1.32636
2958.41787	1.30177
2956.48931	1.27753
2954.56074	1.25466
2952.63218	1.23222
2950.70361	1.20970
2948.77505	1.18764
2946.84648	1.16597
2944.91792	1.14447
2942.98936	1.12358
2941.06079	1.10338
2939.13223	1.08323
2937.20366	1.06312
2935.27510	1.04365
2933.34653	1.02471
2931.41797	1.00573
2929.48940	0.98668
2927.56084	0.96815
2925.63228	0.95018
2923.70371	0.93236
2921.77515	0.91537
2919.84658	0.89973
2917.91802	0.88446
2915.98945	0.86892
2914.06089	0.85341
2912.13232	0.83785
2910.20376	0.82224
2908.27520	0.80712
2906.34663	0.79281
2904.41807	0.77922
2902.48950	0.76602
2900.56094	0.75304
2898.63237	0.74046
2896.70381	0.72807
2894.77524	0.71562
2892.84668	0.70337
2890.91812	0.69141
2888.98955	0.67960
2887.06099	0.66813
2885.13242	0.65722
2883.20386	0.64677
2881.27529	0.63648
2879.34673	0.62617
2877.41816	0.61597
2875.48960	0.60589
2873.56104	0.59564
2871.63247	0.58533
2869.70391	0.57502
2867.77534	0.56470
2865.84678	0.55447
2863.91821	0.54443
2861.98965	0.53461
2860.06108	0.52483
2858.13252	0.51510
2856.20396	0.50592
2854.27539	0.49754
2852.34683	0.48973
2850.41826	0.48227
2848.48970	0.47484
2846.56113	0.46718
2844.63257	0.45973
2842.70400	0.45290
2840.77544	0.44640
2838.84687	0.43997
2836.91831	0.43363
2834.98975	0.42740
2833.06118	0.42128
2831.13262	0.41531
2829.20405	0.40937
2827.27549	0.40339
2825.34692	0.39748
2823.41836	0.39171
2821.48979	0.38609
2819.56123	0.38053
2817.63267	0.37481
2815.70410	0.36925
2813.77554	0.36410
2811.84697	0.35903
2809.91841	0.35378
2807.98984	0.34839
2806.06128	0.34308
2804.13271	0.33809
2802.20415	0.33328
2800.27559	0.32852
2798.34702	0.32396
2796.41846	0.31957
2794.48989	0.31515
2792.56133	0.31074
2790.63276	0.30648
2788.70420	0.30227
2786.77563	0.29802
2784.84707	0.29391
2782.91851	0.29011
2780.98994	0.28640
2779.06138	0.28263
2777.13281	0.27887
2775.20425	0.27507
2773.27568	0.27126
2771.34712	0.26760
2769.41855	0.26435
2767.48999	0.26133
2765.56143	0.25824
2763.63286	0.25516
2761.70430	0.25206
2759.77573	0.24887
2757.84717	0.24564
2755.91860	0.24260
2753.99004	0.23982
2752.06147	0.23706
2750.13291	0.23420
2748.20435	0.23145
2746.27578	0.22886
2744.34722	0.22630
2742.41865	0.22371
2740.49009	0.22122
2738.56152	0.21879
2736.63296	0.21641
2734.70439	0.21415
2732.77583	0.21199
2730.84727	0.20979
2728.91870	0.20758
2726.99014	0.20549
2725.06157	0.20358
2723.13301	0.20168
2721.20444	0.19958
2719.27588	0.19758
2717.34731	0.19592
2715.41875	0.19425
2713.49019	0.19232
2711.56162	0.19051
2709.63306	0.18896
2707.70449	0.18743
2705.77593	0.18582
2703.84736	0.18413
2701.91880	0.18251
2699.99023	0.18109
2698.06167	0.17973
2696.13311	0.17839
2694.20454	0.17719
2692.27598	0.17605
2690.34741	0.17477
2688.41885	0.17334
2686.49028	0.17199
2684.56172	0.17088
2682.63315	0.16980
2680.70459	0.16858
2678.77603	0.16725
2676.84746	0.16621
2674.91890	0.16550
2672.99033	0.16466
2671.06177	0.16369
2669.13320	0.16276
2667.20464	0.16186
2665.27607	0.16096
2663.34751	0.16006
2661.41895	0.15919
2659.49038	0.15848
2657.56182	0.15781
2655.63325	0.15711
2653.70469	0.15652
2651.77612	0.15592
2649.84756	0.15524
2647.91899	0.15462
2645.99043	0.15410
2644.06187	0.15355
2642.13330	0.15287
2640.20474	0.15229
2638.27617	0.15204
2636.34761	0.15192
2634.41904	0.15161
2632.49048	0.15112
2630.56191	0.15059
2628.63335	0.15016
2626.70479	0.14986
2624.77622	0.14959
2622.84766	0.14947
2620.91909	0.14938
2618.99053	0.14914
2617.06196	0.14894
2615.13340	0.14886
2613.20483	0.14866
2611.27627	0.14833
2609.34771	0.14814
2607.41914	0.14817
2605.49058	0.14826
2603.56201	0.14828
2601.63345	0.14830
2599.70488	0.14845
2597.77632	0.14867
2595.84775	0.14880
2593.91919	0.14886
2591.99062	0.14894
2590.06206	0.14901
2588.13350	0.14914
2586.20493	0.14938
2584.27637	0.14976
2582.34780	0.15018
2580.41924	0.15051
2578.49067	0.15069
2576.56211	0.15088
2574.63354	0.15117
2572.70498	0.15156
2570.77642	0.15219
2568.84785	0.15285
2566.91929	0.15321
2564.99072	0.15349
2563.06216	0.15397
2561.13359	0.15450
2559.20503	0.15496
2557.27646	0.15537
2555.34790	0.15585
2553.41934	0.15638
2551.49077	0.15685
2549.56221	0.15744
2547.63364	0.15825
2545.70508	0.15889
2543.77651	0.15934
2541.84795	0.16002
2539.91938	0.16091
2537.99082	0.16172
2536.06226	0.16237
2534.13369	0.16293
2532.20513	0.16352
2530.27656	0.16422
2528.34800	0.16510
2526.41943	0.16596
2524.49087	0.16658
2522.56230	0.16716
2520.63374	0.16799
2518.70518	0.16904
2516.77661	0.17001
2514.84805	0.17080
2512.91948	0.17161
2510.99092	0.17252
2509.06235	0.17336
2507.13379	0.17410
2505.20522	0.17484
2503.27666	0.17562
2501.34810	0.17642
2499.41953	0.17728
2497.49097	0.17819
2495.56240	0.17899
2493.63384	0.17977
2491.70527	0.18069
2489.77671	0.18161
2487.84814	0.18247
2485.91958	0.18334
2483.99102	0.18430
2482.06245	0.18533
2480.13389	0.18634
2478.20532	0.18726
2476.27676	0.18803
2474.34819	0.18879
2472.41963	0.18966
2470.49106	0.19060
2468.56250	0.19156
2466.63394	0.19246
2464.70537	0.19336
2462.77681	0.19436
2460.84824	0.19542
2458.91968	0.19647
2456.99111	0.19754
2455.06255	0.19856
2453.13398	0.19955
2451.20542	0.20050
2449.27686	0.20148
2447.34829	0.20261
2445.41973	0.20369
2443.49116	0.20468
2441.56260	0.20580
2439.63403	0.20692
2437.70547	0.20779
2435.77690	0.20864
2433.84834	0.20969
2431.91978	0.21076
2429.99121	0.21177
2428.06265	0.21280
2426.13408	0.21394
2424.20552	0.21523
2422.27695	0.21652
2420.34839	0.21766
2418.41982	0.21867
2416.49126	0.21972
2414.56270	0.22081
2412.63413	0.22188
2410.70557	0.22299
2408.77700	0.22419
2406.84844	0.22538
2404.91987	0.22648
2402.99131	0.22757
2401.06274	0.22882
2399.13418	0.23015
2397.20562	0.23142
2395.27705	0.23265
2393.34849	0.23398
2391.41992	0.23538
2389.49136	0.23672
2387.56279	0.23790
2385.63423	0.23884
2383.70566	0.23965
2381.77710	0.24044
2379.84854	0.24105
2377.91997	0.24140
2375.99141	0.24168
2374.06284	0.24205
2372.13428	0.24253
2370.20571	0.24330
2368.27715	0.24452
2366.34858	0.24596
2364.42002	0.24682
2362.49146	0.24753
2360.56289	0.24847
2358.63433	0.24938
2356.70576	0.25077
2354.77720	0.25284
2352.84863	0.25599
2350.92007	0.25932
2348.99150	0.26130
2347.06294	0.26216
2345.13437	0.26291
2343.20581	0.26376
2341.27725	0.26471
2339.34868	0.26674
2337.42012	0.26909
2335.49155	0.27086
2333.56299	0.27261
2331.63442	0.27450
2329.70586	0.27615
2327.77729	0.27793
2325.84873	0.27996
2323.92017	0.28199
2321.99160	0.28420
2320.06304	0.28659
2318.13447	0.28886
2316.20591	0.29087
2314.27734	0.29294
2312.34878	0.29522
2310.42021	0.29742
2308.49165	0.29927
2306.56309	0.30124
2304.63452	0.30356
2302.70596	0.30570
2300.77739	0.30748
2298.84883	0.30922
2296.92026	0.31119
2294.99170	0.31343
2293.06313	0.31575
2291.13457	0.31796
2289.20601	0.32009
2287.27744	0.32210
2285.34888	0.32402
2283.42031	0.32606
2281.49175	0.32823
2279.56318	0.33036
2277.63462	0.33231
2275.70605	0.33419
2273.77749	0.33614
2271.84893	0.33816
2269.92036	0.34023
2267.99180	0.34239
2266.06323	0.34459
2264.13467	0.34685
2262.20610	0.34917
2260.27754	0.35141
2258.34897	0.35347
2256.42041	0.35546
2254.49185	0.35751
2252.56328	0.35967
2250.63472	0.36190
2248.70615	0.36417
2246.77759	0.36647
2244.84902	0.36870
2242.92046	0.37086
2240.99189	0.37303
2239.06333	0.37524
2237.13477	0.37750
2235.20620	0.37973
2233.27764	0.38195
2231.34907	0.38423
2229.42051	0.38641
2227.49194	0.38852
2225.56338	0.39081
2223.63481	0.39329
2221.70625	0.39574
2219.77769	0.39797
2217.84912	0.40005
2215.92056	0.40216
2213.99199	0.40434
2212.06343	0.40661
2210.13486	0.40885
2208.20630	0.41086
2206.27773	0.41266
2204.34917	0.41454
2202.42061	0.41663
2200.49204	0.41879
2198.56348	0.42088
2196.63491	0.42283
2194.70635	0.42478
2192.77778	0.42680
2190.84922	0.42877
2188.92065	0.43076
2186.99209	0.43270
2185.06353	0.43448
2183.13496	0.43618
2181.20640	0.43781
2179.27783	0.43926
2177.34927	0.44075
2175.42070	0.44240
2173.49214	0.44396
2171.56357	0.44531
2169.63501	0.44671
2167.70645	0.44818
2165.77788	0.44950
2163.84932	0.45063
2161.92075	0.45160
2159.99219	0.45251
2158.06362	0.45345
2156.13506	0.45441
2154.20649	0.45532
2152.27793	0.45611
2150.34937	0.45684
2148.42080	0.45762
2146.49224	0.45839
2144.56367	0.45896
2142.63511	0.45924
2140.70654	0.45943
2138.77798	0.45974
2136.84941	0.45998
2134.92085	0.46000
2132.99229	0.45996
2131.06372	0.45991
2129.13516	0.45972
2127.20659	0.45935
2125.27803	0.45895
2123.34946	0.45860
2121.42090	0.45823
2119.49233	0.45764
2117.56377	0.45681
2115.63521	0.45599
2113.70664	0.45525
2111.77808	0.45437
2109.84951	0.45331
2107.92095	0.45222
2105.99238	0.45120
2104.06382	0.45018
2102.13525	0.44904
2100.20669	0.44767
2098.27812	0.44603
2096.34956	0.44444
2094.42100	0.44294
2092.49243	0.44128
2090.56387	0.43951
2088.63530	0.43771
2086.70674	0.43583
2084.77817	0.43388
2082.84961	0.43200
2080.92104	0.43013
2078.99248	0.42811
2077.06392	0.42598
2075.13535	0.42387
2073.20679	0.42173
2071.27822	0.41939
2069.34966	0.41700
2067.42109	0.41471
2065.49253	0.41247
2063.56396	0.41009
2061.63540	0.40759
2059.70684	0.40505
2057.77827	0.40245
2055.84971	0.39975
2053.92114	0.39704
2051.99258	0.39448
2050.06401	0.39201
2048.13545	0.38956
2046.20688	0.38698
2044.27832	0.38420
2042.34976	0.38140
2040.42119	0.37871
2038.49263	0.37608
2036.56406	0.37347
2034.63550	0.37081
2032.70693	0.36800
2030.77837	0.36511
2028.84980	0.36223
2026.92124	0.35951
2024.99268	0.35693
2023.06411	0.35420
2021.13555	0.35130
2019.20698	0.34849
2017.27842	0.34583
2015.34985	0.34312
2013.42129	0.34028
2011.49272	0.33742
2009.56416	0.33471
2007.63560	0.33199
2005.70703	0.32913
2003.77847	0.32633
2001.84990	0.32369
1999.92134	0.32115
1997.99277	0.31863
1996.06421	0.31612
1994.13564	0.31375
1992.20708	0.31146
1990.27852	0.30894
1988.34995	0.30626
1986.42139	0.30365
1984.49282	0.30111
1982.56426	0.29872
1980.63569	0.29655
1978.70713	0.29447
1976.77856	0.29221
1974.85000	0.28986
1972.92144	0.28760
1970.99287	0.28546
1969.06431	0.28353
1967.13574	0.28171
1965.20718	0.27970
1963.27861	0.27766
1961.35005	0.27574
1959.42148	0.27382
1957.49292	0.27190
1955.56436	0.27014
1953.63579	0.26841
1951.70723	0.26660
1949.77866	0.26492
1947.85010	0.26344
1945.92153	0.26208
1943.99297	0.26083
1942.06440	0.25951
1940.13584	0.25792
1938.20728	0.25630
1936.27871	0.25493
1934.35015	0.25365
1932.42158	0.25236
1930.49302	0.25113
1928.56445	0.25001
1926.63589	0.24895
1924.70732	0.24815
1922.77876	0.24741
1920.85020	0.24637
1918.92163	0.24530
1916.99307	0.24437
1915.06450	0.24341
1913.13594	0.24253
1911.20737	0.24197
1909.27881	0.24153
1907.35024	0.24097
1905.42168	0.24024
1903.49312	0.23948
1901.56455	0.23883
1899.63599	0.23821
1897.70742	0.23765
1895.77886	0.23730
1893.85029	0.23711
1891.92173	0.23691
1889.99316	0.23679
1888.06460	0.23652
1886.13604	0.23610
1884.20747	0.23585
1882.27891	0.23568
1880.35034	0.23552
1878.42178	0.23544
1876.49321	0.23544
1874.56465	0.23546
1872.63608	0.23567
1870.70752	0.23625
1868.77896	0.23722
1866.85039	0.23763
1864.92183	0.23722
1862.99326	0.23692
1861.06470	0.23700
1859.13613	0.23728
1857.20757	0.23757
1855.27900	0.23795
1853.35044	0.23843
1851.42187	0.23902
1849.49331	0.23973
1847.56475	0.24064
1845.63618	0.24175
1843.70762	0.24282
1841.77905	0.24333
1839.85049	0.24356
1837.92192	0.24439
1835.99336	0.24550
1834.06479	0.24648
1832.13623	0.24751
1830.20767	0.24902
1828.27910	0.25049
1826.35054	0.25146
1824.42197	0.25271
1822.49341	0.25395
1820.56484	0.25502
1818.63628	0.25623
1816.70771	0.25786
1814.77915	0.25961
1812.85059	0.26149
1810.92202	0.26368
1808.99346	0.26578
1807.06489	0.26761
1805.13633	0.26944
1803.20776	0.27168
1801.27920	0.27431
1799.35063	0.27724
1797.42207	0.27990
1795.49351	0.28243
1793.56494	0.28540
1791.63638	0.28913
1789.70781	0.29234
1787.77925	0.29464
1785.85068	0.29768
1783.92212	0.30149
1781.99355	0.30561
1780.06499	0.30993
1778.13643	0.31420
1776.20786	0.31821
1774.27930	0.32278
1772.35073	0.32914
1770.42217	0.33557
1768.49360	0.34050
1766.56504	0.34526
1764.63647	0.35041
1762.70791	0.35644
1760.77935	0.36411
1758.85078	0.37113
1756.92222	0.37811
1754.99365	0.38581
1753.06509	0.39300
1751.13652	0.40181
1749.20796	0.41285
1747.27939	0.42331
1745.35083	0.43225
1743.42227	0.44180
1741.49370	0.45256
1739.56514	0.46532
1737.63657	0.47810
1735.70801	0.48945
1733.77944	0.50625
1731.85088	0.52566
1729.92231	0.54082
1727.99375	0.55628
1726.06519	0.57294
1724.13662	0.59134
1722.20806	0.61132
1720.27949	0.62993
1718.35093	0.65211
1716.42236	0.68465
1714.49380	0.71475
1712.56523	0.73876
1710.63667	0.76227
1708.70811	0.78777
1706.77954	0.81687
1704.85098	0.85170
1702.92241	0.88284
1700.99385	0.91372
1699.06528	0.95937
1697.13672	1.00083
1695.20815	1.04302
1693.27959	1.08375
1691.35103	1.11636
1689.42246	1.15412
1687.49390	1.19413
1685.56533	1.23284
1683.63677	1.29158
1681.70820	1.35180
1679.77964	1.39085
1677.85107	1.42845
1675.92251	1.47120
1673.99395	1.52284
1672.06538	1.56874
1670.13682	1.61482
1668.20825	1.67372
1666.27969	1.72042
1664.35112	1.76061
1662.42256	1.81145
1660.49399	1.86710
1658.56543	1.90948
1656.63687	1.94453
1654.70830	1.97902
1652.77974	2.03544
1650.85117	2.08732
1648.92261	2.10750
1646.99404	2.13631
1645.06548	2.16599
1643.13691	2.18165
1641.20835	2.19069
1639.27979	2.20041
1637.35122	2.20848
1635.42266	2.21049
1633.49409	2.20217
1631.56553	2.18912
1629.63696	2.17515
1627.70840	2.15091
1625.77983	2.12005
1623.85127	2.08050
1621.92271	2.03244
1619.99414	1.99026
1618.06558	1.95008
1616.13701	1.89145
1614.20845	1.82940
1612.27988	1.78199
1610.35132	1.73335
1608.42275	1.68078
1606.49419	1.62856
1604.56562	1.57968
1602.63706	1.53197
1600.70850	1.48521
1598.77993	1.44230
1596.85137	1.40233
1594.92280	1.36362
1592.99424	1.32587
1591.06567	1.29109
1589.13711	1.25872
1587.20854	1.22836
1585.27998	1.19975
1583.35142	1.17278
1581.42285	1.14813
1579.49429	1.12722
1577.56572	1.10861
1575.63716	1.08545
1573.70859	1.06439
1571.78003	1.05065
1569.85146	1.03613
1567.92290	1.01900
1565.99434	1.00546
1564.06577	0.99478
1562.13721	0.98645
1560.20864	0.98071
1558.28008	0.97105
1556.35151	0.96017
1554.42295	0.95336
1552.49438	0.94688
1550.56582	0.93965
1548.63726	0.93143
1546.70869	0.92360
1544.78013	0.91587
1542.85156	0.90765
1540.92300	0.89709
1538.99443	0.87842
1537.06587	0.86311
1535.13730	0.85348
1533.20874	0.84191
1531.28018	0.82914
1529.35161	0.81968
1527.42305	0.81124
1525.49448	0.80279
1523.56592	0.79552
1521.63735	0.78818
1519.70879	0.77975
1517.78022	0.77202
1515.85166	0.76373
1513.92310	0.75563
1511.99453	0.74906
1510.06597	0.74360
1508.13740	0.73902
1506.20884	0.73090
1504.28027	0.72184
1502.35171	0.71640
1500.42314	0.71205
1498.49458	0.70774
1496.56602	0.70276
1494.63745	0.69747
1492.70889	0.69326
1490.78032	0.69010
1488.85176	0.68671
1486.92319	0.68238
1484.99463	0.67818
1483.06606	0.67502
1481.13750	0.67246
1479.20894	0.67008
1477.28037	0.66823
1475.35181	0.66692
1473.42324	0.66584
1471.49468	0.66364
1469.56611	0.66047
1467.63755	0.65789
1465.70898	0.65611
1463.78042	0.65439
1461.85186	0.65274
1459.92329	0.65199
1457.99473	0.65218
1456.06616	0.65133
1454.13760	0.64829
1452.20903	0.64545
1450.28047	0.64340
1448.35190	0.64175
1446.42334	0.63963
1444.49478	0.63720
1442.56621	0.63494
1440.63765	0.63286
1438.70908	0.63126
1436.78052	0.62979
1434.85195	0.62756
1432.92339	0.62523
1430.99482	0.62354
1429.06626	0.62213
1427.13770	0.62086
1425.20913	0.62006
1423.28057	0.61958
1421.35200	0.61904
1419.42344	0.61845
1417.49487	0.61717
1415.56631	0.61508
1413.63774	0.61338
1411.70918	0.61240
1409.78062	0.61185
1407.85205	0.61150
1405.92349	0.61142
1403.99492	0.61120
1402.06636	0.61041
1400.13779	0.60934
1398.20923	0.60803
1396.28066	0.60646
1394.35210	0.60441
1392.42354	0.60180
1390.49497	0.59932
1388.56641	0.59719
1386.63784	0.59482
1384.70928	0.59220
1382.78071	0.58988
1380.85215	0.58779
1378.92358	0.58585
1376.99502	0.58432
1375.06646	0.58332
1373.13789	0.58240
1371.20933	0.58139
1369.28076	0.58055
1367.35220	0.57955
1365.42363	0.57836
1363.49507	0.57742
1361.56650	0.57638
1359.63794	0.57492
1357.70937	0.57358
1355.78081	0.57256
1353.85225	0.57156
1351.92368	0.57060
1349.99512	0.56989
1348.06655	0.56914
1346.13799	0.56806
1344.20942	0.56691
1342.28086	0.56603
1340.35229	0.56539
1338.42373	0.56464
1336.49517	0.56363
1334.56660	0.56265
1332.63804	0.56188
1330.70947	0.56136
1328.78091	0.56110
1326.85234	0.56093
1324.92378	0.56063
1322.99521	0.56021
1321.06665	0.55989
1319.13809	0.55963
1317.20952	0.55916
1315.28096	0.55843
1313.35239	0.55762
1311.42383	0.55687
1309.49526	0.55616
1307.56670	0.55547
1305.63813	0.55476
1303.70957	0.55403
1301.78101	0.55333
1299.85244	0.55260
1297.92388	0.55178
1295.99531	0.55093
1294.06675	0.55011
1292.13818	0.54921
1290.20962	0.54832
1288.28105	0.54774
1286.35249	0.54730
1284.42393	0.54662
1282.49536	0.54577
1280.56680	0.54485
1278.63823	0.54379
1276.70967	0.54280
1274.78110	0.54217
1272.85254	0.54180
1270.92397	0.54134
1268.99541	0.54076
1267.06685	0.54026
1265.13828	0.53971
1263.20972	0.53907
1261.28115	0.53857
1259.35259	0.53816
1257.42402	0.53777
1255.49546	0.53754
1253.56689	0.53744
1251.63833	0.53730
1249.70977	0.53701
1247.78120	0.53656
1245.85264	0.53614
1243.92407	0.53587
1241.99551	0.53553
1240.06694	0.53488
1238.13838	0.53391
1236.20981	0.53274
1234.28125	0.53142
1232.35269	0.53013
1230.42412	0.52904
1228.49556	0.52790
1226.56699	0.52666
1224.63843	0.52561
1222.70986	0.52463
1220.78130	0.52353
1218.85273	0.52250
1216.92417	0.52167
1214.99561	0.52096
1213.06704	0.52025
1211.13848	0.51954
1209.20991	0.51894
1207.28135	0.51843
1205.35278	0.51778
1203.42422	0.51692
1201.49565	0.51605
1199.56709	0.51532
1197.63853	0.51465
1195.70996	0.51397
1193.78140	0.51340
1191.85283	0.51294
1189.92427	0.51244
1187.99570	0.51191
1186.06714	0.51161
1184.13857	0.51153
1182.21001	0.51149
1180.28145	0.51168
1178.35288	0.51223
1176.42432	0.51292
1174.49575	0.51358
1172.56719	0.51414
1170.63862	0.51450
1168.71006	0.51486
1166.78149	0.51548
1164.85293	0.51615
1162.92437	0.51656
1160.99580	0.51663
1159.06724	0.51658
1157.13867	0.51631
1155.21011	0.51553
1153.28154	0.51435
1151.35298	0.51306
1149.42441	0.51146
1147.49585	0.50937
1145.56729	0.50694
1143.63872	0.50447
1141.71016	0.50223
1139.78159	0.50043
1137.85303	0.49892
1135.92446	0.49736
1133.99590	0.49589
1132.06733	0.49480
1130.13877	0.49380
1128.21021	0.49262
1126.28164	0.49167
1124.35308	0.49115
1122.42451	0.49072
1120.49595	0.49031
1118.56738	0.49019
1116.63882	0.49028
1114.71025	0.49042
1112.78169	0.49090
1110.85312	0.49190
1108.92456	0.49313
1106.99600	0.49428
1105.06743	0.49530
1103.13887	0.49626
1101.21030	0.49737
1099.28174	0.49884
1097.35317	0.50076
1095.42461	0.50349
1093.49604	0.50719
1091.56748	0.51168
1089.63892	0.51728
1087.71035	0.52427
1085.78179	0.53221
1083.85322	0.54031
1081.92466	0.54767
1079.99609	0.55345
1078.06753	0.55706
1076.13896	0.55789
1074.21040	0.55551
1072.28184	0.55024
1070.35327	0.54334
1068.42471	0.53624
1066.49614	0.52941
1064.56758	0.52308
1062.63901	0.51757
1060.71045	0.51258
1058.78188	0.50797
1056.85332	0.50402
1054.92476	0.50064
1052.99619	0.49770
1051.06763	0.49551
1049.13906	0.49407
1047.21050	0.49307
1045.28193	0.49259
1043.35337	0.49247
1041.42480	0.49215
1039.49624	0.49160
1037.56768	0.49129
1035.63911	0.49143
1033.71055	0.49161
1031.78198	0.49113
1029.85342	0.48998
1027.92485	0.48870
1025.99629	0.48774
1024.06772	0.48725
1022.13916	0.48711
1020.21060	0.48714
1018.28203	0.48731
1016.35347	0.48753
1014.42490	0.48775
1012.49634	0.48818
1010.56777	0.48886
1008.63921	0.48949
1006.71064	0.49018
1004.78208	0.49136
1002.85352	0.49328
1000.92495	0.49593
998.99639	0.49929
997.06782	0.50321
995.13926	0.50728
993.21069	0.51120
991.28213	0.51466
989.35356	0.51712
987.42500	0.51824
985.49644	0.51845
983.56787	0.51859
981.63931	0.51926
979.71074	0.52048
977.78218	0.52206
975.85361	0.52401
973.92505	0.52629
971.99648	0.52911
970.06792	0.53268
968.13936	0.53680
966.21079	0.54128
964.28223	0.54608
962.35366	0.55107
960.42510	0.55617
958.49653	0.56158
956.56797	0.56746
954.63940	0.57337
952.71084	0.57922
950.78228	0.58558
948.85371	0.59228
946.92515	0.59882
944.99658	0.60548
943.06802	0.61227
941.13945	0.61842
939.21089	0.62402
937.28232	0.62991
935.35376	0.63599
933.42520	0.64158
931.49663	0.64650
929.56807	0.65141
927.63950	0.65715
925.71094	0.66395
923.78237	0.67144
921.85381	0.67864
919.92524	0.68527
917.99668	0.69212
916.06812	0.69937
914.13955	0.70693
912.21099	0.71491
910.28242	0.72307
908.35386	0.73144
906.42529	0.74037
904.49673	0.74967
902.56816	0.75907
900.63960	0.76862
898.71104	0.77866
896.78247	0.78906
894.85391	0.79893
892.92534	0.80853
890.99678	0.81897
889.06821	0.83040
887.13965	0.84240
885.21108	0.85475
883.28252	0.86656
881.35396	0.87702
879.42539	0.88784
877.49683	0.90111
875.56826	0.91574
873.63970	0.92870
871.71113	0.93925
869.78257	0.94917
867.85400	0.95928
865.92544	0.96933
863.99687	0.97946
862.06831	0.99038
860.13975	1.00297
858.21118	1.01741
856.28262	1.03135
854.35405	1.04301
852.42549	1.05452
850.49692	1.06720
848.56836	1.07908
846.63979	1.08990
844.71123	1.10277
842.78267	1.11787
840.85410	1.13210
838.92554	1.14549
836.99697	1.15906
835.06841	1.16951
833.13984	1.17688
831.21128	1.18792
829.28271	1.20484
827.35415	1.22266
825.42559	1.23791
823.49702	1.25250
821.56846	1.26674
819.63989	1.28275
817.71133	1.30352
815.78276	1.31872
813.85420	1.32494
811.92563	1.33637
809.99707	1.35515
808.06851	1.37794
806.13994	1.40856
804.21138	1.43674
802.28281	1.45024
800.35425	1.46914
798.42568	1.51166
796.49712	1.53369
794.56855	1.53125
792.63999	1.56634
790.71143	1.64839
788.78286	1.83658
786.85430	2.48951
784.92573	4.70955
782.99717	4.69798
781.06860	4.68641
779.14004	2.03790
777.21147	1.98779
775.28291	2.02168
773.35435	1.77035
771.42578	1.55442
769.49722	1.43910
767.56865	1.36066
765.64009	1.32733
763.71152	1.27938
761.78296	1.22015
759.85439	1.17230
757.92583	1.10964
755.99727	1.06979
754.06870	1.07535
752.14014	1.11000
750.21157	1.10156
748.28301	1.02138
746.35444	0.96092
744.42588	0.92721
742.49731	0.89931
740.56875	0.85165
738.64019	0.78351
736.71162	0.74743
734.78306	0.74845
732.85449	0.70696
730.92593	0.61367
728.99736	0.56615
727.06880	0.56526
725.14023	0.51676
723.21167	0.41242
721.28311	0.30885
719.35454	0.22791
717.42598	0.22727
715.49741	0.26551
713.56885	0.26437
711.64028	0.28511
709.71172	0.34138
707.78315	0.21561
705.85459	0.03382
703.92603	-0.04364
701.99746	-0.09071
700.06890	-0.12497
698.14033	-0.09935
696.21177	-0.04309
694.28320	-0.06342
692.35464	-0.14353
690.42607	-0.20376
688.49751	-0.23950
686.56895	-0.18302
684.64038	-0.04412
682.71182	0.05085
680.78325	0.10915
678.85469	0.15842
676.92612	0.14355
674.99756	0.07437
673.06899	-0.02162
671.14043	-0.14372
669.21187	-0.24911
667.28330	-0.40071
665.35474	-0.59413
663.42617	-0.16601
661.49761	0.03895
659.56904	0.05247
657.64048	0.06885
655.71191	0.13248
653.78335	0.19224
651.85479	0.15918
649.92622	0.04567
647.99766	-0.03529
646.06909	-0.05653
644.14053	-0.08407
642.21196	-0.13569
640.28340	-0.17076
638.35483	-0.16686
636.42627	-0.10873
634.49771	0.00236
632.56914	0.10077
630.64058	0.13712
628.71201	0.10243
626.78345	0.03189
624.85488	-0.01076
622.92632	-0.03813
620.99775	-0.09272
619.06919	-0.11462
617.14062	-0.11314
615.21206	-0.12664
613.28350	-0.11140
611.35493	-0.04025
609.42637	0.04292
607.49780	0.07813
605.56924	0.08899
603.64067	0.09825
601.71211	0.10321
599.78354	0.08564
597.85498	0.01830
595.92642	-0.06627
593.99785	-0.07005
592.06929	-0.03563
590.14072	-0.08441
588.21216	-0.11026
586.28359	-0.07708
584.35503	-0.05128
582.42646	-0.00153
580.49790	0.09077
578.56934	0.15210
576.64077	0.17543
574.71221	0.14376
572.78364	0.05958
570.85508	-0.01472
568.92651	-0.02258
566.99795	0.00091
565.06938	-0.02114
563.14082	-0.08197
561.21226	-0.09255
559.28369	-0.05795
557.35513	-0.02720
555.42656	-0.00582
553.49800	0.04170
551.56943	0.10397
549.64087	0.15240
547.71230	0.14507
545.78374	0.07571
543.85518	0.00358
541.92661	-0.07258
539.99805	-0.13879
538.06948	-0.11146
536.14092	-0.02339
534.21235	0.02048
532.28379	0.02779
530.35522	0.03400
528.42666	0.05560
526.49810	0.07762
524.56953	0.08445
522.64097	0.09152
520.71240	0.10085
518.78384	0.07965
516.85527	0.02057
514.92671	-0.04942
512.99814	-0.10393
511.06958	-0.13768
509.14102	-0.16495
507.21245	-0.12079
505.28389	0.01340
503.35532	0.08648
501.42676	0.09139
499.49819	0.08130
