3997.91411	0.06537
3995.98555	0.06566
3994.05698	0.06576
3992.12842	0.06587
3990.19985	0.06608
3988.27129	0.06647
3986.34272	0.06690
3984.41416	0.06699
3982.48560	0.06666
3980.55703	0.06657
3978.62847	0.06717
3976.69990	0.06797
3974.77134	0.06822
3972.84277	0.06816
3970.91421	0.06839
3968.98564	0.06856
3967.05708	0.06842
3965.12852	0.06841
3963.19995	0.06875
3961.27139	0.06921
3959.34282	0.06957
3957.41426	0.06985
3955.48569	0.06998
3953.55713	0.06984
3951.62856	0.06967
3949.70000	0.06971
3947.77144	0.07007
3945.84287	0.07042
3943.91431	0.07050
3941.98574	0.07039
3940.05718	0.06988
3938.12861	0.06932
3936.20005	0.06944
3934.27148	0.07004
3932.34292	0.07045
3930.41436	0.07042
3928.48579	0.07000
3926.55723	0.06951
3924.62866	0.06965
3922.70010	0.06995
3920.77153	0.06957
3918.84297	0.06952
3916.91440	0.07032
3914.98584	0.07046
3913.05728	0.06944
3911.12871	0.06851
3909.20015	0.06828
3907.27158	0.06839
3905.34302	0.06903
3903.41445	0.07036
3901.48589	0.07128
3899.55732	0.07103
3897.62876	0.07024
3895.70020	0.06955
3893.77163	0.06929
3891.84307	0.06984
3889.91450	0.07031
3887.98594	0.06958
3886.05737	0.06909
3884.12881	0.06977
3882.20024	0.07071
3880.27168	0.07126
3878.34312	0.07116
3876.41455	0.07053
3874.48599	0.07050
3872.55742	0.07154
3870.62886	0.07270
3868.70029	0.07304
3866.77173	0.07251
3864.84316	0.07246
3862.91460	0.07298
3860.98604	0.07286
3859.05747	0.07252
3857.12891	0.07285
3855.20034	0.07425
3853.27178	0.07692
3851.34321	0.07816
3849.41465	0.07642
3847.48608	0.07508
3845.55752	0.07516
3843.62896	0.07622
3841.70039	0.07752
3839.77183	0.07905
3837.84326	0.08127
3835.91470	0.08264
3833.98613	0.08224
3832.05757	0.08156
3830.12900	0.08132
3828.20044	0.08153
3826.27187	0.08226
3824.34331	0.08291
3822.41475	0.08376
3820.48618	0.08651
3818.55762	0.08935
3816.62905	0.09026
3814.70049	0.09009
3812.77192	0.08889
3810.84336	0.08803
3808.91479	0.08851
3806.98623	0.09055
3805.05767	0.09313
3803.12910	0.09484
3801.20054	0.09686
3799.27197	0.09847
3797.34341	0.09830
3795.41484	0.09835
3793.48628	0.09898
3791.55771	0.09952
3789.62915	0.10028
3787.70059	0.10135
3785.77202	0.10275
3783.84346	0.10440
3781.91489	0.10590
3779.98633	0.10756
3778.05776	0.10965
3776.12920	0.11111
3774.20063	0.11199
3772.27207	0.11320
3770.34351	0.11527
3768.41494	0.11806
3766.48638	0.12030
3764.55781	0.12202
3762.62925	0.12363
3760.70068	0.12549
3758.77212	0.12855
3756.84355	0.13176
3754.91499	0.13359
3752.98643	0.13555
3751.05786	0.13957
3749.12930	0.14458
3747.20073	0.14721
3745.27217	0.14945
3743.34360	0.15416
3741.41504	0.15847
3739.48647	0.16078
3737.55791	0.16382
3735.62935	0.16937
3733.70078	0.17624
3731.77222	0.18093
3729.84365	0.18382
3727.91509	0.18714
3725.98652	0.19244
3724.05796	0.19934
3722.12939	0.20599
3720.20083	0.21192
3718.27227	0.21757
3716.34370	0.22354
3714.41514	0.23031
3712.48657	0.23982
3710.55801	0.25442
3708.62944	0.26968
3706.70088	0.28089
3704.77231	0.29107
3702.84375	0.30360
3700.91519	0.32028
3698.98662	0.33820
3697.05806	0.35503
3695.12949	0.37318
3693.20093	0.39280
3691.27236	0.41409
3689.34380	0.44118
3687.41523	0.47451
3685.48667	0.50404
3683.55811	0.52921
3681.62954	0.55613
3679.70098	0.58689
3677.77241	0.61934
3675.84385	0.65767
3673.91528	0.70963
3671.98672	0.75203
3670.05815	0.78934
3668.12959	0.84107
3666.20103	0.88859
3664.27246	0.92824
3662.34390	0.97097
3660.41533	1.01754
3658.48677	1.06383
3656.55820	1.11309
3654.62964	1.16773
3652.70107	1.21362
3650.77251	1.25357
3648.84395	1.30828
3646.91538	1.37491
3644.98682	1.42405
3643.05825	1.46214
3641.12969	1.50146
3639.20112	1.54513
3637.27256	1.58942
3635.34399	1.63237
3633.41543	1.67471
3631.48687	1.71433
3629.55830	1.75465
3627.62974	1.80695
3625.70117	1.85564
3623.77261	1.88915
3621.84404	1.92231
3619.91548	1.96058
3617.98691	2.00663
3616.05835	2.05144
3614.12979	2.08759
3612.20122	2.12379
3610.27266	2.16198
3608.34409	2.20378
3606.41553	2.24886
3604.48696	2.28877
3602.55840	2.32275
3600.62983	2.35868
3598.70127	2.39818
3596.77271	2.43809
3594.84414	2.47946
3592.91558	2.52203
3590.98701	2.56121
3589.05845	2.59732
3587.12988	2.64086
3585.20132	2.68893
3583.27275	2.72881
3581.34419	2.76583
3579.41562	2.80644
3577.48706	2.84915
3575.55850	2.89157
3573.62993	2.93437
3571.70137	2.97579
3569.77280	3.01606
3567.84424	3.05991
3565.91567	3.11390
3563.98711	3.16605
3562.05854	3.20630
3560.12998	3.24500
3558.20142	3.28877
3556.27285	3.33515
3554.34429	3.37937
3552.41572	3.42354
3550.48716	3.46890
3548.55859	3.51353
3546.63003	3.55899
3544.70146	3.60885
3542.77290	3.66061
3540.84434	3.71025
3538.91577	3.75747
3536.98721	3.80262
3535.05864	3.84800
3533.13008	3.89428
3531.20151	3.94319
3529.27295	3.99408
3527.34438	4.04366
3525.41582	4.09072
3523.48726	4.13903
3521.55869	4.18948
3519.63013	4.23648
3517.70156	4.28061
3515.77300	4.32635
3513.84443	4.37883
3511.91587	4.43597
3509.98730	4.49081
3508.05874	4.54022
3506.13018	4.58325
3504.20161	4.62321
3502.27305	4.66817
3500.34448	4.71985
3498.41592	4.76900
3496.48735	4.81732
3494.55879	4.87053
3492.63022	4.92022
3490.70166	4.96265
3488.77310	5.01042
3486.84453	5.06920
3484.91597	5.12781
3482.98740	5.17905
3481.05884	5.22621
3479.13027	5.27132
3477.20171	5.31753
3475.27314	5.36740
3473.34458	5.41562
3471.41602	5.46051
3469.48745	5.50704
3467.55889	5.55632
3465.63032	5.60388
3463.70176	5.64635
3461.77319	5.69026
3459.84463	5.74228
3457.91606	5.79476
3455.98750	5.84463
3454.05894	5.89679
3452.13037	5.95132
3450.20181	6.00575
3448.27324	6.05457
3446.34468	6.08921
3444.41611	6.11908
3442.48755	6.17323
3440.55898	6.24661
3438.63042	6.31372
3436.70186	6.35984
3434.77329	6.38977
3432.84473	6.42817
3430.91616	6.48847
3428.98760	6.57064
3427.05903	6.65639
3425.13047	6.72295
3423.20190	6.74966
3421.27334	6.74569
3419.34478	6.76220
3417.41621	6.82567
3415.48765	6.91228
3413.55908	6.98747
3411.63052	7.02815
3409.70195	7.04998
3407.77339	7.10169
3405.84482	7.16531
3403.91626	7.19993
3401.98770	7.22639
3400.05913	7.29667
3398.13057	7.40291
3396.20200	7.48394
3394.27344	7.53091
3392.34487	7.53527
3390.41631	7.49228
3388.48774	7.44929
3386.55918	7.46181
3384.63062	7.53684
3382.70205	7.63997
3380.77349	7.71527
3378.84492	7.76467
3376.91636	7.83302
3374.98779	7.90426
3373.05923	7.97679
3371.13066	7.99808
3369.20210	7.93440
3367.27354	7.89915
3365.34497	7.96413
3363.41641	8.04440
3361.48784	8.06167
3359.55928	8.07197
3357.63071	8.13258
3355.70215	8.19910
3353.77358	8.18522
3351.84502	8.13237
3349.91646	8.10022
3347.98789	8.13869
3346.05933	8.19818
3344.13076	8.18043
3342.20220	8.15677
3340.27363	8.15821
3338.34507	8.15840
3336.41650	8.18509
3334.48794	8.25297
3332.55937	8.29222
3330.63081	8.29673
3328.70225	8.26616
3326.77368	8.17522
3324.84512	8.12851
3322.91655	8.18014
3320.98799	8.25223
3319.05942	8.26043
3317.13086	8.26721
3315.20229	8.31389
3313.27373	8.30384
3311.34517	8.23106
3309.41660	8.21159
3307.48804	8.27793
3305.55947	8.41017
3303.63091	8.53659
3301.70234	8.54507
3299.77378	8.54764
3297.84521	8.63546
3295.91665	8.69856
3293.98809	8.62634
3292.05952	8.49382
3290.13096	8.39592
3288.20239	8.35467
3286.27383	8.44654
3284.34526	8.67798
3282.41670	8.80444
3280.48813	8.64584
3278.55957	8.45466
3276.63101	8.35675
3274.70244	8.33944
3272.77388	8.41567
3270.84531	8.54913
3268.91675	8.67305
3266.98818	8.71171
3265.05962	8.65415
3263.13105	8.57328
3261.20249	8.54991
3259.27393	8.55832
3257.34536	8.63888
3255.41680	8.76510
3253.48823	8.68261
3251.55967	8.49248
3249.63110	8.43592
3247.70254	8.48783
3245.77397	8.47175
3243.84541	8.37383
3241.91685	8.33928
3239.98828	8.34154
3238.05972	8.31620
3236.13115	8.32001
3234.20259	8.35556
3232.27402	8.36986
3230.34546	8.36656
3228.41689	8.39406
3226.48833	8.45710
3224.55977	8.45472
3222.63120	8.35717
3220.70264	8.25188
3218.77407	8.20453
3216.84551	8.23161
3214.91694	8.30349
3212.98838	8.35528
3211.05981	8.34113
3209.13125	8.27834
3207.20269	8.20520
3205.27412	8.13850
3203.34556	8.07590
3201.41699	8.05452
3199.48843	8.06052
3197.55986	8.01228
3195.63130	7.91618
3193.70273	7.87688
3191.77417	7.91522
3189.84561	7.88360
3187.91704	7.78465
3185.98848	7.71955
3184.05991	7.64109
3182.13135	7.57950
3180.20278	7.55797
3178.27422	7.48516
3176.34565	7.38057
3174.41709	7.29883
3172.48853	7.22528
3170.55996	7.17359
3168.63140	7.13960
3166.70283	7.07389
3164.77427	6.98067
3162.84570	6.90253
3160.91714	6.84899
3158.98857	6.79299
3157.06001	6.70623
3155.13145	6.60151
3153.20288	6.51154
3151.27432	6.44517
3149.34575	6.38467
3147.41719	6.31447
3145.48862	6.23687
3143.56006	6.16402
3141.63149	6.10047
3139.70293	6.03100
3137.77437	5.94813
3135.84580	5.87184
3133.91724	5.81864
3131.98867	5.76955
3130.06011	5.70321
3128.13154	5.62743
3126.20298	5.55531
3124.27441	5.48899
3122.34585	5.41802
3120.41729	5.34263
3118.48872	5.26899
3116.56016	5.19093
3114.63159	5.11207
3112.70303	5.04062
3110.77446	4.97214
3108.84590	4.90288
3106.91733	4.83595
3104.98877	4.77013
3103.06021	4.69905
3101.13164	4.62262
3099.20308	4.54936
3097.27451	4.48389
3095.34595	4.42117
3093.41738	4.35687
3091.48882	4.29262
3089.56025	4.22871
3087.63169	4.16372
3085.70312	4.10051
3083.77456	4.04083
3081.84600	3.98023
3079.91743	3.91643
3077.98887	3.85253
3076.06030	3.78972
3074.13174	3.72849
3072.20317	3.67036
3070.27461	3.61386
3068.34604	3.55748
3066.41748	3.50214
3064.48892	3.44644
3062.56035	3.38765
3060.63179	3.32889
3058.70322	3.27442
3056.77466	3.22223
3054.84609	3.16958
3052.91753	3.11736
3050.98896	3.06553
3049.06040	3.01274
3047.13184	2.95984
3045.20327	2.90900
3043.27471	2.86054
3041.34614	2.81265
3039.41758	2.76509
3037.48901	2.71848
3035.56045	2.67225
3033.63188	2.62633
3031.70332	2.58116
3029.77476	2.53640
3027.84619	2.49169
3025.91763	2.44773
3023.98906	2.40479
3022.06050	2.36306
3020.13193	2.32229
3018.20337	2.28177
3016.27480	2.24201
3014.34624	2.20290
3012.41768	2.16387
3010.48911	2.12520
3008.56055	2.08699
3006.63198	2.04972
3004.70342	2.01338
3002.77485	1.97729
3000.84629	1.94210
2998.91772	1.90825
2996.98916	1.87508
2995.06060	1.84252
2993.13203	1.81074
2991.20347	1.77944
2989.27490	1.74850
2987.34634	1.71834
2985.41777	1.68923
2983.48921	1.66075
2981.56064	1.63251
2979.63208	1.60444
2977.70352	1.57643
2975.77495	1.54906
2973.84639	1.52308
2971.91782	1.49797
2969.98926	1.47278
2968.06069	1.44742
2966.13213	1.42240
2964.20356	1.39797
2962.27500	1.37405
2960.34644	1.35044
2958.41787	1.32664
2956.48931	1.30256
2954.56074	1.27844
2952.63218	1.25425
2950.70361	1.23047
2948.77505	1.20764
2946.84648	1.18546
2944.91792	1.16374
2942.98936	1.14255
2941.06079	1.12176
2939.13223	1.10138
2937.20366	1.08121
2935.27510	1.06082
2933.34653	1.04064
2931.41797	1.02112
2929.48940	1.00171
2927.56084	0.98246
2925.63228	0.96389
2923.70371	0.94584
2921.77515	0.92818
2919.84658	0.91075
2917.91802	0.89339
2915.98945	0.87687
2914.06089	0.86162
2912.13232	0.84689
2910.20376	0.83199
2908.27520	0.81701
2906.34663	0.80234
2904.41807	0.78811
2902.48950	0.77441
2900.56094	0.76108
2898.63237	0.74771
2896.70381	0.73441
2894.77524	0.72163
2892.84668	0.70950
2890.91812	0.69790
2888.98955	0.68670
2887.06099	0.67567
2885.13242	0.66483
2883.20386	0.65435
2881.27529	0.64417
2879.34673	0.63414
2877.41816	0.62425
2875.48960	0.61449
2873.56104	0.60486
2871.63247	0.59500
2869.70391	0.58434
2867.77534	0.57309
2865.84678	0.56197
2863.91821	0.55103
2861.98965	0.54015
2860.06108	0.52959
2858.13252	0.51944
2856.20396	0.50964
2854.27539	0.50034
2852.34683	0.49167
2850.41826	0.48366
2848.48970	0.47623
2846.56113	0.46892
2844.63257	0.46160
2842.70400	0.45482
2840.77544	0.44871
2838.84687	0.44300
2836.91831	0.43726
2834.98975	0.43110
2833.06118	0.42484
2831.13262	0.41901
2829.20405	0.41345
2827.27549	0.40783
2825.34692	0.40214
2823.41836	0.39650
2821.48979	0.39104
2819.56123	0.38559
2817.63267	0.38004
2815.70410	0.37456
2813.77554	0.36917
2811.84697	0.36373
2809.91841	0.35830
2807.98984	0.35317
2806.06128	0.34823
2804.13271	0.34316
2802.20415	0.33816
2800.27559	0.33350
2798.34702	0.32900
2796.41846	0.32429
2794.48989	0.31936
2792.56133	0.31470
2790.63276	0.31044
2788.70420	0.30625
2786.77563	0.30212
2784.84707	0.29797
2782.91851	0.29378
2780.98994	0.28980
2779.06138	0.28599
2777.13281	0.28219
2775.20425	0.27839
2773.27568	0.27457
2771.34712	0.27080
2769.41855	0.26732
2767.48999	0.26409
2765.56143	0.26090
2763.63286	0.25761
2761.70430	0.25426
2759.77573	0.25107
2757.84717	0.24799
2755.91860	0.24490
2753.99004	0.24186
2752.06147	0.23885
2750.13291	0.23594
2748.20435	0.23334
2746.27578	0.23092
2744.34722	0.22837
2742.41865	0.22577
2740.49009	0.22321
2738.56152	0.22053
2736.63296	0.21782
2734.70439	0.21534
2732.77583	0.21312
2730.84727	0.21107
2728.91870	0.20901
2726.99014	0.20683
2725.06157	0.20458
2723.13301	0.20246
2721.20444	0.20055
2719.27588	0.19850
2717.34731	0.19630
2715.41875	0.19438
2713.49019	0.19271
2711.56162	0.19093
2709.63306	0.18919
2707.70449	0.18771
2705.77593	0.18628
2703.84736	0.18469
2701.91880	0.18312
2699.99023	0.18169
2698.06167	0.18029
2696.13311	0.17895
2694.20454	0.17768
2692.27598	0.17641
2690.34741	0.17515
2688.41885	0.17399
2686.49028	0.17273
2684.56172	0.17137
2682.63315	0.17016
2680.70459	0.16919
2678.77603	0.16829
2676.84746	0.16741
2674.91890	0.16653
2672.99033	0.16531
2671.06177	0.16391
2669.13320	0.16289
2667.20464	0.16214
2665.27607	0.16132
2663.34751	0.16051
2661.41895	0.15988
2659.49038	0.15928
2657.56182	0.15854
2655.63325	0.15773
2653.70469	0.15700
2651.77612	0.15634
2649.84756	0.15572
2647.91899	0.15518
2645.99043	0.15472
2644.06187	0.15422
2642.13330	0.15366
2640.20474	0.15321
2638.27617	0.15280
2636.34761	0.15229
2634.41904	0.15183
2632.49048	0.15150
2630.56191	0.15115
2628.63335	0.15074
2626.70479	0.15038
2624.77622	0.15011
2622.84766	0.14982
2620.91909	0.14954
2618.99053	0.14928
2617.06196	0.14897
2615.13340	0.14881
2613.20483	0.14881
2611.27627	0.14878
2609.34771	0.14871
2607.41914	0.14867
2605.49058	0.14862
2603.56201	0.14861
2601.63345	0.14871
2599.70488	0.14880
2597.77632	0.14878
2595.84775	0.14880
2593.91919	0.14894
2591.99062	0.14906
2590.06206	0.14905
2588.13350	0.14904
2586.20493	0.14930
2584.27637	0.14984
2582.34780	0.15025
2580.41924	0.15039
2578.49067	0.15049
2576.56211	0.15068
2574.63354	0.15092
2572.70498	0.15128
2570.77642	0.15175
2568.84785	0.15210
2566.91929	0.15231
2564.99072	0.15268
2563.06216	0.15335
2561.13359	0.15398
2559.20503	0.15440
2557.27646	0.15491
2555.34790	0.15547
2553.41934	0.15588
2551.49077	0.15626
2549.56221	0.15675
2547.63364	0.15734
2545.70508	0.15791
2543.77651	0.15847
2541.84795	0.15913
2539.91938	0.15982
2537.99082	0.16050
2536.06226	0.16114
2534.13369	0.16172
2532.20513	0.16234
2530.27656	0.16298
2528.34800	0.16364
2526.41943	0.16450
2524.49087	0.16550
2522.56230	0.16632
2520.63374	0.16690
2518.70518	0.16760
2516.77661	0.16854
2514.84805	0.16940
2512.91948	0.17015
2510.99092	0.17093
2509.06235	0.17167
2507.13379	0.17239
2505.20522	0.17315
2503.27666	0.17397
2501.34810	0.17491
2499.41953	0.17593
2497.49097	0.17691
2495.56240	0.17774
2493.63384	0.17843
2491.70527	0.17911
2489.77671	0.17994
2487.84814	0.18093
2485.91958	0.18193
2483.99102	0.18272
2482.06245	0.18333
2480.13389	0.18410
2478.20532	0.18518
2476.27676	0.18636
2474.34819	0.18743
2472.41963	0.18831
2470.49106	0.18911
2468.56250	0.19006
2466.63394	0.19108
2464.70537	0.19192
2462.77681	0.19265
2460.84824	0.19360
2458.91968	0.19470
2456.99111	0.19571
2455.06255	0.19670
2453.13398	0.19783
2451.20542	0.19895
2449.27686	0.19993
2447.34829	0.20087
2445.41973	0.20179
2443.49116	0.20267
2441.56260	0.20353
2439.63403	0.20441
2437.70547	0.20545
2435.77690	0.20672
2433.84834	0.20801
2431.91978	0.20906
2429.99121	0.21000
2428.06265	0.21093
2426.13408	0.21188
2424.20552	0.21299
2422.27695	0.21426
2420.34839	0.21547
2418.41982	0.21654
2416.49126	0.21755
2414.56270	0.21860
2412.63413	0.21967
2410.70557	0.22084
2408.77700	0.22210
2406.84844	0.22335
2404.91987	0.22457
2402.99131	0.22575
2401.06274	0.22696
2399.13418	0.22826
2397.20562	0.22956
2395.27705	0.23079
2393.34849	0.23196
2391.41992	0.23312
2389.49136	0.23436
2387.56279	0.23601
2385.63423	0.23830
2383.70566	0.24131
2381.77710	0.24509
2379.84854	0.24953
2377.91997	0.25444
2375.99141	0.25982
2374.06284	0.26583
2372.13428	0.27257
2370.20571	0.28013
2368.27715	0.28774
2366.34858	0.29478
2364.42002	0.30155
2362.49146	0.30738
2360.56289	0.31100
2358.63433	0.31192
2356.70576	0.31027
2354.77720	0.30675
2352.84863	0.30185
2350.92007	0.29631
2348.99150	0.29278
2347.06294	0.29320
2345.13437	0.29828
2343.20581	0.30562
2341.27725	0.30976
2339.34868	0.31048
2337.42012	0.31092
2335.49155	0.31218
2333.56299	0.31363
2331.63442	0.31456
2329.70586	0.31454
2327.77729	0.31424
2325.84873	0.31409
2323.92017	0.31400
2321.99160	0.31391
2320.06304	0.31327
2318.13447	0.31200
2316.20591	0.31095
2314.27734	0.31065
2312.34878	0.31113
2310.42021	0.31197
2308.49165	0.31248
2306.56309	0.31254
2304.63452	0.31262
2302.70596	0.31310
2300.77739	0.31391
2298.84883	0.31485
2296.92026	0.31596
2294.99170	0.31714
2293.06313	0.31829
2291.13457	0.31943
2289.20601	0.32062
2287.27744	0.32190
2285.34888	0.32321
2283.42031	0.32459
2281.49175	0.32623
2279.56318	0.32830
2277.63462	0.33067
2275.70605	0.33295
2273.77749	0.33497
2271.84893	0.33705
2269.92036	0.33929
2267.99180	0.34143
2266.06323	0.34340
2264.13467	0.34535
2262.20610	0.34724
2260.27754	0.34917
2258.34897	0.35126
2256.42041	0.35343
2254.49185	0.35565
2252.56328	0.35787
2250.63472	0.36005
2248.70615	0.36216
2246.77759	0.36413
2244.84902	0.36610
2242.92046	0.36815
2240.99189	0.37028
2239.06333	0.37248
2237.13477	0.37464
2235.20620	0.37672
2233.27764	0.37891
2231.34907	0.38128
2229.42051	0.38358
2227.49194	0.38569
2225.56338	0.38791
2223.63481	0.39027
2221.70625	0.39245
2219.77769	0.39445
2217.84912	0.39650
2215.92056	0.39874
2213.99199	0.40107
2212.06343	0.40329
2210.13486	0.40540
2208.20630	0.40756
2206.27773	0.40967
2204.34917	0.41163
2202.42061	0.41367
2200.49204	0.41581
2198.56348	0.41789
2196.63491	0.41983
2194.70635	0.42167
2192.77778	0.42354
2190.84922	0.42552
2188.92065	0.42744
2186.99209	0.42919
2185.06353	0.43091
2183.13496	0.43264
2181.20640	0.43442
2179.27783	0.43620
2177.34927	0.43784
2175.42070	0.43926
2173.49214	0.44058
2171.56357	0.44195
2169.63501	0.44337
2167.70645	0.44475
2165.77788	0.44603
2163.84932	0.44727
2161.92075	0.44843
2159.99219	0.44946
2158.06362	0.45041
2156.13506	0.45135
2154.20649	0.45224
2152.27793	0.45302
2150.34937	0.45370
2148.42080	0.45436
2146.49224	0.45492
2144.56367	0.45530
2142.63511	0.45569
2140.70654	0.45608
2138.77798	0.45626
2136.84941	0.45629
2134.92085	0.45633
2132.99229	0.45631
2131.06372	0.45623
2129.13516	0.45603
2127.20659	0.45565
2125.27803	0.45522
2123.34946	0.45477
2121.42090	0.45425
2119.49233	0.45371
2117.56377	0.45308
2115.63521	0.45228
2113.70664	0.45142
2111.77808	0.45050
2109.84951	0.44953
2107.92095	0.44850
2105.99238	0.44738
2104.06382	0.44619
2102.13525	0.44491
2100.20669	0.44355
2098.27812	0.44215
2096.34956	0.44074
2094.42100	0.43928
2092.49243	0.43768
2090.56387	0.43589
2088.63530	0.43404
2086.70674	0.43217
2084.77817	0.43018
2082.84961	0.42825
2080.92104	0.42638
2078.99248	0.42439
2077.06392	0.42224
2075.13535	0.42003
2073.20679	0.41781
2071.27822	0.41543
2069.34966	0.41301
2067.42109	0.41067
2065.49253	0.40833
2063.56396	0.40593
2061.63540	0.40363
2059.70684	0.40126
2057.77827	0.39871
2055.84971	0.39614
2053.92114	0.39359
2051.99258	0.39103
2050.06401	0.38843
2048.13545	0.38581
2046.20688	0.38310
2044.27832	0.38036
2042.34976	0.37766
2040.42119	0.37493
2038.49263	0.37217
2036.56406	0.36944
2034.63550	0.36672
2032.70693	0.36403
2030.77837	0.36139
2028.84980	0.35866
2026.92124	0.35584
2024.99268	0.35307
2023.06411	0.35032
2021.13555	0.34758
2019.20698	0.34488
2017.27842	0.34217
2015.34985	0.33933
2013.42129	0.33642
2011.49272	0.33353
2009.56416	0.33077
2007.63560	0.32813
2005.70703	0.32556
2003.77847	0.32296
2001.84990	0.32033
1999.92134	0.31778
1997.99277	0.31528
1996.06421	0.31274
1994.13564	0.31025
1992.20708	0.30784
1990.27852	0.30533
1988.34995	0.30273
1986.42139	0.30015
1984.49282	0.29761
1982.56426	0.29523
1980.63569	0.29296
1978.70713	0.29066
1976.77856	0.28832
1974.85000	0.28610
1972.92144	0.28402
1970.99287	0.28200
1969.06431	0.28006
1967.13574	0.27811
1965.20718	0.27600
1963.27861	0.27388
1961.35005	0.27192
1959.42148	0.27011
1957.49292	0.26844
1955.56436	0.26673
1953.63579	0.26489
1951.70723	0.26308
1949.77866	0.26144
1947.85010	0.25999
1945.92153	0.25872
1943.99297	0.25741
1942.06440	0.25591
1940.13584	0.25427
1938.20728	0.25273
1936.27871	0.25136
1934.35015	0.25008
1932.42158	0.24883
1930.49302	0.24756
1928.56445	0.24642
1926.63589	0.24552
1924.70732	0.24476
1922.77876	0.24396
1920.85020	0.24304
1918.92163	0.24214
1916.99307	0.24119
1915.06450	0.24013
1913.13594	0.23922
1911.20737	0.23862
1909.27881	0.23806
1907.35024	0.23731
1905.42168	0.23644
1903.49312	0.23568
1901.56455	0.23514
1899.63599	0.23476
1897.70742	0.23442
1895.77886	0.23416
1893.85029	0.23394
1891.92173	0.23368
1889.99316	0.23351
1888.06460	0.23320
1886.13604	0.23271
1884.20747	0.23235
1882.27891	0.23216
1880.35034	0.23208
1878.42178	0.23210
1876.49321	0.23216
1874.56465	0.23216
1872.63608	0.23221
1870.70752	0.23247
1868.77896	0.23314
1866.85039	0.23361
1864.92183	0.23351
1862.99326	0.23335
1861.06470	0.23347
1859.13613	0.23384
1857.20757	0.23420
1855.27900	0.23454
1853.35044	0.23493
1851.42187	0.23555
1849.49331	0.23630
1847.56475	0.23708
1845.63618	0.23801
1843.70762	0.23911
1841.77905	0.23991
1839.85049	0.24037
1837.92192	0.24112
1835.99336	0.24199
1834.06479	0.24291
1832.13623	0.24405
1830.20767	0.24560
1828.27910	0.24706
1826.35054	0.24803
1824.42197	0.24923
1822.49341	0.25045
1820.56484	0.25169
1818.63628	0.25316
1816.70771	0.25485
1814.77915	0.25650
1812.85059	0.25832
1810.92202	0.26044
1808.99346	0.26250
1807.06489	0.26436
1805.13633	0.26617
1803.20776	0.26837
1801.27920	0.27103
1799.35063	0.27393
1797.42207	0.27640
1795.49351	0.27875
1793.56494	0.28165
1791.63638	0.28530
1789.70781	0.28855
1787.77925	0.29096
1785.85068	0.29402
1783.92212	0.29777
1781.99355	0.30186
1780.06499	0.30618
1778.13643	0.31050
1776.20786	0.31447
1774.27930	0.31877
1772.35073	0.32470
1770.42217	0.33107
1768.49360	0.33635
1766.56504	0.34142
1764.63647	0.34665
1762.70791	0.35250
1760.77935	0.36001
1758.85078	0.36703
1756.92222	0.37397
1754.99365	0.38160
1753.06509	0.38867
1751.13652	0.39724
1749.20796	0.40802
1747.27939	0.41838
1745.35083	0.42722
1743.42227	0.43653
1741.49370	0.44688
1739.56514	0.45931
1737.63657	0.47194
1735.70801	0.48297
1733.77944	0.49949
1731.85088	0.51931
1729.92231	0.53489
1727.99375	0.55049
1726.06519	0.56721
1724.13662	0.58550
1722.20806	0.60532
1720.27949	0.62388
1718.35093	0.64588
1716.42236	0.67799
1714.49380	0.70832
1712.56523	0.73312
1710.63667	0.75724
1708.70811	0.78310
1706.77954	0.81249
1704.85098	0.84772
1702.92241	0.87919
1700.99385	0.91041
1699.06528	0.95713
1697.13672	1.00060
1695.20815	1.04499
1693.27959	1.08753
1691.35103	1.12211
1689.42246	1.16264
1687.49390	1.20529
1685.56533	1.24596
1683.63677	1.30897
1681.70820	1.37513
1679.77964	1.41762
1677.85107	1.45804
1675.92251	1.50494
1673.99395	1.56302
1672.06538	1.61459
1670.13682	1.66533
1668.20825	1.73099
1666.27969	1.78442
1664.35112	1.83068
1662.42256	1.88892
1660.49399	1.95320
1658.56543	2.00347
1656.63687	2.04524
1654.70830	2.08421
1652.77974	2.14374
1650.85117	2.19787
1648.92261	2.21622
1646.99404	2.23961
1645.06548	2.26534
1643.13691	2.28164
1641.20835	2.29002
1639.27979	2.29771
1637.35122	2.30347
1635.42266	2.30413
1633.49409	2.29536
1631.56553	2.28004
1629.63696	2.26239
1627.70840	2.23331
1625.77983	2.19753
1623.85127	2.15317
1621.92271	2.10113
1619.99414	2.05566
1618.06558	2.01180
1616.13701	1.94990
1614.20845	1.88546
1612.27988	1.83504
1610.35132	1.78304
1608.42275	1.72786
1606.49419	1.67415
1604.56562	1.62444
1602.63706	1.57597
1600.70850	1.52905
1598.77993	1.48659
1596.85137	1.44676
1594.92280	1.40800
1592.99424	1.37052
1591.06567	1.33595
1589.13711	1.30346
1587.20854	1.27354
1585.27998	1.24629
1583.35142	1.22079
1581.42285	1.19740
1579.49429	1.17777
1577.56572	1.16079
1575.63716	1.14008
1573.70859	1.12114
1571.78003	1.10904
1569.85146	1.09748
1567.92290	1.08467
1565.99434	1.07509
1564.06577	1.06855
1562.13721	1.06381
1560.20864	1.06108
1558.28008	1.06023
1556.35151	1.05978
1554.42295	1.05851
1552.49438	1.05710
1550.56582	1.05493
1548.63726	1.05087
1546.70869	1.04465
1544.78013	1.03603
1542.85156	1.02485
1540.92300	1.00798
1538.99443	0.98070
1537.06587	0.96082
1535.13730	0.94778
1533.20874	0.93071
1531.28018	0.91199
1529.35161	0.89799
1527.42305	0.88508
1525.49448	0.87205
1523.56592	0.86094
1521.63735	0.85006
1519.70879	0.83847
1517.78022	0.82877
1515.85166	0.81810
1513.92310	0.80671
1511.99453	0.79682
1510.06597	0.78831
1508.13740	0.78039
1506.20884	0.76738
1504.28027	0.75522
1502.35171	0.74850
1500.42314	0.74294
1498.49458	0.73722
1496.56602	0.73044
1494.63745	0.72325
1492.70889	0.71761
1490.78032	0.71315
1488.85176	0.70826
1486.92319	0.70307
1484.99463	0.69869
1483.06606	0.69539
1481.13750	0.69284
1479.20894	0.69084
1477.28037	0.68944
1475.35181	0.68869
1473.42324	0.68858
1471.49468	0.68762
1469.56611	0.68520
1467.63755	0.68279
1465.70898	0.68083
1463.78042	0.67895
1461.85186	0.67746
1459.92329	0.67691
1457.99473	0.67698
1456.06616	0.67604
1454.13760	0.67355
1452.20903	0.67091
1450.28047	0.66827
1448.35190	0.66564
1446.42334	0.66277
1444.49478	0.65994
1442.56621	0.65729
1440.63765	0.65472
1438.70908	0.65225
1436.78052	0.64918
1434.85195	0.64547
1432.92339	0.64252
1430.99482	0.64059
1429.06626	0.63936
1427.13770	0.63869
1425.20913	0.63877
1423.28057	0.63948
1421.35200	0.64007
1419.42344	0.64054
1417.49487	0.64034
1415.56631	0.63900
1413.63774	0.63791
1411.70918	0.63759
1409.78062	0.63787
1407.85205	0.63863
1405.92349	0.63976
1403.99492	0.64076
1402.06636	0.64090
1400.13779	0.64023
1398.20923	0.63887
1396.28066	0.63687
1394.35210	0.63378
1392.42354	0.62980
1390.49497	0.62607
1388.56641	0.62245
1386.63784	0.61807
1384.70928	0.61334
1382.78071	0.60897
1380.85215	0.60490
1378.92358	0.60135
1376.99502	0.59857
1375.06646	0.59655
1373.13789	0.59507
1371.20933	0.59382
1369.28076	0.59277
1367.35220	0.59175
1365.42363	0.59058
1363.49507	0.58924
1361.56650	0.58775
1359.63794	0.58627
1357.70937	0.58502
1355.78081	0.58389
1353.85225	0.58277
1351.92368	0.58185
1349.99512	0.58123
1348.06655	0.58057
1346.13799	0.57974
1344.20942	0.57898
1342.28086	0.57844
1340.35229	0.57810
1338.42373	0.57761
1336.49517	0.57691
1334.56660	0.57625
1332.63804	0.57586
1330.70947	0.57587
1328.78091	0.57620
1326.85234	0.57664
1324.92378	0.57706
1322.99521	0.57758
1321.06665	0.57819
1319.13809	0.57871
1317.20952	0.57885
1315.28096	0.57853
1313.35239	0.57800
1311.42383	0.57748
1309.49526	0.57692
1307.56670	0.57630
1305.63813	0.57565
1303.70957	0.57494
1301.78101	0.57423
1299.85244	0.57348
1297.92388	0.57259
1295.99531	0.57147
1294.06675	0.57025
1292.13818	0.56907
1290.20962	0.56791
1288.28105	0.56676
1286.35249	0.56563
1284.42393	0.56459
1282.49536	0.56356
1280.56680	0.56245
1278.63823	0.56132
1276.70967	0.56016
1274.78110	0.55904
1272.85254	0.55814
1270.92397	0.55743
1268.99541	0.55662
1267.06685	0.55573
1265.13828	0.55493
1263.20972	0.55430
1261.28115	0.55369
1259.35259	0.55287
1257.42402	0.55202
1255.49546	0.55157
1253.56689	0.55155
1251.63833	0.55158
1249.70977	0.55164
1247.78120	0.55181
1245.85264	0.55172
1243.92407	0.55116
1241.99551	0.55031
1240.06694	0.54924
1238.13838	0.54784
1236.20981	0.54608
1234.28125	0.54414
1232.35269	0.54236
1230.42412	0.54077
1228.49556	0.53915
1226.56699	0.53746
1224.63843	0.53585
1222.70986	0.53435
1220.78130	0.53298
1218.85273	0.53188
1216.92417	0.53094
1214.99561	0.52995
1213.06704	0.52900
1211.13848	0.52823
1209.20991	0.52747
1207.28135	0.52662
1205.35278	0.52582
1203.42422	0.52506
1201.49565	0.52435
1199.56709	0.52375
1197.63853	0.52323
1195.70996	0.52273
1193.78140	0.52215
1191.85283	0.52155
1189.92427	0.52102
1187.99570	0.52060
1186.06714	0.52039
1184.13857	0.52043
1182.21001	0.52074
1180.28145	0.52133
1178.35288	0.52217
1176.42432	0.52325
1174.49575	0.52430
1172.56719	0.52502
1170.63862	0.52531
1168.71006	0.52520
1166.78149	0.52487
1164.85293	0.52450
1162.92437	0.52412
1160.99580	0.52357
1159.06724	0.52268
1157.13867	0.52162
1155.21011	0.52053
1153.28154	0.51933
1151.35298	0.51793
1149.42441	0.51621
1147.49585	0.51412
1145.56729	0.51173
1143.63872	0.50925
1141.71016	0.50701
1139.78159	0.50518
1137.85303	0.50364
1135.92446	0.50229
1133.99590	0.50129
1132.06733	0.50068
1130.13877	0.50014
1128.21021	0.49917
1126.28164	0.49785
1124.35308	0.49672
1122.42451	0.49579
1120.49595	0.49493
1118.56738	0.49421
1116.63882	0.49365
1114.71025	0.49340
1112.78169	0.49340
1110.85312	0.49337
1108.92456	0.49342
1106.99600	0.49402
1105.06743	0.49525
1103.13887	0.49676
1101.21030	0.49840
1099.28174	0.50052
1097.35317	0.50330
1095.42461	0.50641
1093.49604	0.50988
1091.56748	0.51402
1089.63892	0.51868
1087.71035	0.52398
1085.78179	0.53017
1083.85322	0.53671
1081.92466	0.54276
1079.99609	0.54770
1078.06753	0.55106
1076.13896	0.55214
1074.21040	0.55035
1072.28184	0.54614
1070.35327	0.54047
1068.42471	0.53383
1066.49614	0.52674
1064.56758	0.52017
1062.63901	0.51453
1060.71045	0.50931
1058.78188	0.50437
1056.85332	0.50006
1054.92476	0.49620
1052.99619	0.49277
1051.06763	0.49014
1049.13906	0.48807
1047.21050	0.48604
1045.28193	0.48406
1043.35337	0.48231
1041.42480	0.48094
1039.49624	0.48004
1037.56768	0.47923
1035.63911	0.47831
1033.71055	0.47751
1031.78198	0.47715
1029.85342	0.47722
1027.92485	0.47736
1025.99629	0.47739
1024.06772	0.47758
1022.13916	0.47811
1020.21060	0.47881
1018.28203	0.47951
1016.35347	0.48031
1014.42490	0.48113
1012.49634	0.48197
1010.56777	0.48312
1008.63921	0.48459
1006.71064	0.48633
1004.78208	0.48851
1002.85352	0.49102
1000.92495	0.49378
998.99639	0.49702
997.06782	0.50079
995.13926	0.50485
993.21069	0.50885
991.28213	0.51243
989.35356	0.51510
987.42500	0.51645
985.49644	0.51701
983.56787	0.51779
981.63931	0.51907
979.71074	0.52068
977.78218	0.52261
975.85361	0.52485
973.92505	0.52752
971.99648	0.53091
970.06792	0.53475
968.13936	0.53852
966.21079	0.54221
964.28223	0.54644
962.35366	0.55150
960.42510	0.55689
958.49653	0.56234
956.56797	0.56813
954.63940	0.57411
952.71084	0.58010
950.78228	0.58643
948.85371	0.59297
946.92515	0.59917
944.99658	0.60522
943.06802	0.61171
941.13945	0.61839
939.21089	0.62461
937.28232	0.63053
935.35376	0.63655
933.42520	0.64279
931.49663	0.64901
929.56807	0.65446
927.63950	0.65965
925.71094	0.66555
923.78237	0.67140
921.85381	0.67695
919.92524	0.68331
917.99668	0.69125
916.06812	0.69995
914.13955	0.70791
912.21099	0.71521
910.28242	0.72278
908.35386	0.73098
906.42529	0.74001
904.49673	0.74920
902.56816	0.75741
900.63960	0.76611
898.71104	0.77688
896.78247	0.78800
894.85391	0.79866
892.92534	0.80969
890.99678	0.82052
889.06821	0.83075
887.13965	0.84079
885.21108	0.85124
883.28252	0.86208
881.35396	0.87328
879.42539	0.88635
877.49683	0.90055
875.56826	0.91307
873.63970	0.92415
871.71113	0.93560
869.78257	0.94727
867.85400	0.95779
865.92544	0.96724
863.99687	0.97759
862.06831	0.99015
860.13975	1.00342
858.21118	1.01625
856.28262	1.02950
854.35405	1.04240
852.42549	1.05375
850.49692	1.06397
848.56836	1.07453
846.63979	1.08754
844.71123	1.10203
842.78267	1.11498
840.85410	1.12747
838.92554	1.14215
836.99697	1.15688
835.06841	1.16850
833.13984	1.17967
831.21128	1.19165
829.28271	1.20036
827.35415	1.20779
825.42559	1.22107
823.49702	1.23976
821.56846	1.25947
819.63989	1.28384
817.71133	1.30674
815.78276	1.31507
813.85420	1.32071
811.92563	1.33545
809.99707	1.35066
808.06851	1.36324
806.13994	1.38368
804.21138	1.41124
802.28281	1.43085
800.35425	1.43823
798.42568	1.44453
796.49712	1.46426
794.56855	1.51702
792.63999	1.57766
790.71143	1.60453
788.78286	1.65362
786.85430	1.67802
784.92573	1.68731
782.99717	1.76175
781.06860	1.84828
779.14004	1.87548
777.21147	1.95738
775.28291	1.69115
773.35435	1.45124
771.42578	1.42531
769.49722	1.53688
767.56865	1.73657
765.64009	1.79422
763.71152	1.70743
761.78296	1.53912
759.85439	1.35905
757.92583	1.29502
755.99727	1.36099
754.06870	1.55141
752.14014	2.41846
750.21157	1.96922
748.28301	1.19138
746.35444	0.93842
744.42588	0.87222
742.49731	0.90598
740.56875	0.94141
738.64019	0.91305
736.71162	0.86384
734.78306	0.88673
732.85449	1.00460
730.92593	1.03029
728.99736	0.85475
727.06880	0.70628
725.14023	0.61862
723.21167	0.59376
721.28311	0.62260
719.35454	0.62150
717.42598	0.58528
715.49741	0.53803
713.56885	0.49659
711.64028	0.53189
709.71172	0.64698
707.78315	0.73210
705.85459	0.76476
703.92603	0.78814
701.99746	0.76607
700.06890	0.70997
698.14033	0.68867
696.21177	0.80670
694.28320	0.98015
692.35464	0.78609
690.42607	0.61808
688.49751	0.54232
686.56895	0.50139
684.64038	0.55092
682.71182	0.64874
680.78325	0.60013
678.85469	0.50601
676.92612	0.50879
674.99756	0.57334
673.06899	0.59032
671.14043	0.54381
669.21187	0.51662
667.28330	0.55754
665.35474	0.60619
663.42617	0.57677
661.49761	0.55692
659.56904	0.58026
657.64048	0.57951
655.71191	0.55363
653.78335	0.54964
651.85479	0.58161
649.92622	0.61250
647.99766	0.64926
646.06909	0.67892
644.14053	0.61137
642.21196	0.53686
640.28340	0.55579
638.35483	0.69147
636.42627	0.82716
634.49771	0.70394
632.56914	0.60026
630.64058	0.60561
628.71201	0.65991
626.78345	0.65267
624.85488	0.57852
622.92632	0.51399
620.99775	0.50325
619.06919	0.55519
617.14062	0.62328
615.21206	0.62110
613.28350	0.61510
611.35493	0.65317
609.42637	0.61719
607.49780	0.53949
605.56924	0.50239
603.64067	0.48177
601.71211	0.45387
599.78354	0.42439
597.85498	0.42731
595.92642	0.48826
593.99785	0.55300
592.06929	0.57516
590.14072	0.57225
588.21216	0.53885
586.28359	0.53878
584.35503	0.56676
582.42646	0.53060
580.49790	0.49515
578.56934	0.51367
576.64077	0.53400
574.71221	0.51374
572.78364	0.51131
570.85508	0.54755
568.92651	0.54714
566.99795	0.50029
565.06938	0.47130
563.14082	0.47246
561.21226	0.46263
559.28369	0.43017
557.35513	0.43730
555.42656	0.51441
553.49800	0.59066
551.56943	0.55913
549.64087	0.49053
547.71230	0.46941
545.78374	0.49201
543.85518	0.50155
541.92661	0.48915
539.99805	0.49436
538.06948	0.52218
536.14092	0.53637
534.21235	0.52968
532.28379	0.53617
530.35522	0.52073
528.42666	0.49093
526.49810	0.51045
524.56953	0.52756
522.64097	0.48202
520.71240	0.42239
518.78384	0.38021
516.85527	0.37567
514.92671	0.39891
512.99814	0.42854
511.06958	0.44763
509.14102	0.45259
507.21245	0.47999
505.28389	0.50523
503.35532	0.47938
501.42676	0.45169
499.49819	0.42846
