3997.91411	0.06551
3995.98555	0.06589
3994.05698	0.06597
3992.12842	0.06600
3990.19985	0.06643
3988.27129	0.06706
3986.34272	0.06729
3984.41416	0.06739
3982.48560	0.06808
3980.55703	0.06889
3978.62847	0.06903
3976.69990	0.06880
3974.77134	0.06882
3972.84277	0.06914
3970.91421	0.06946
3968.98564	0.06957
3967.05708	0.06963
3965.12852	0.07000
3963.19995	0.07058
3961.27139	0.07086
3959.34282	0.07073
3957.41426	0.07037
3955.48569	0.07017
3953.55713	0.07041
3951.62856	0.07087
3949.70000	0.07143
3947.77144	0.07196
3945.84287	0.07188
3943.91431	0.07149
3941.98574	0.07125
3940.05718	0.07084
3938.12861	0.07038
3936.20005	0.07024
3934.27148	0.07062
3932.34292	0.07124
3930.41436	0.07121
3928.48579	0.07082
3926.55723	0.07089
3924.62866	0.07107
3922.70010	0.07100
3920.77153	0.07086
3918.84297	0.07103
3916.91440	0.07133
3914.98584	0.07089
3913.05728	0.06999
3911.12871	0.06968
3909.20015	0.06990
3907.27158	0.07043
3905.34302	0.07185
3903.41445	0.07363
3901.48589	0.07403
3899.55732	0.07342
3897.62876	0.07236
3895.70020	0.07085
3893.77163	0.07021
3891.84307	0.07097
3889.91450	0.07152
3887.98594	0.07099
3886.05737	0.07115
3884.12881	0.07200
3882.20024	0.07228
3880.27168	0.07279
3878.34312	0.07316
3876.41455	0.07238
3874.48599	0.07190
3872.55742	0.07273
3870.62886	0.07421
3868.70029	0.07497
3866.77173	0.07460
3864.84316	0.07467
3862.91460	0.07548
3860.98604	0.07556
3859.05747	0.07499
3857.12891	0.07493
3855.20034	0.07606
3853.27178	0.07890
3851.34321	0.08075
3849.41465	0.07908
3847.48608	0.07741
3845.55752	0.07709
3843.62896	0.07821
3841.70039	0.08042
3839.77183	0.08271
3837.84326	0.08426
3835.91470	0.08447
3833.98613	0.08381
3832.05757	0.08319
3830.12900	0.08308
3828.20044	0.08355
3826.27187	0.08433
3824.34331	0.08525
3822.41475	0.08656
3820.48618	0.08852
3818.55762	0.08972
3816.62905	0.09015
3814.70049	0.09044
3812.77192	0.08991
3810.84336	0.08956
3808.91479	0.09041
3806.98623	0.09273
3805.05767	0.09517
3803.12910	0.09633
3801.20054	0.09786
3799.27197	0.09964
3797.34341	0.10012
3795.41484	0.10047
3793.48628	0.10072
3791.55771	0.10058
3789.62915	0.10102
3787.70059	0.10262
3785.77202	0.10493
3783.84346	0.10691
3781.91489	0.10809
3779.98633	0.10954
3778.05776	0.11158
3776.12920	0.11290
3774.20063	0.11364
3772.27207	0.11482
3770.34351	0.11706
3768.41494	0.11985
3766.48638	0.12180
3764.55781	0.12340
3762.62925	0.12509
3760.70068	0.12742
3758.77212	0.13082
3756.84355	0.13368
3754.91499	0.13558
3752.98643	0.13847
3751.05786	0.14365
3749.12930	0.14900
3747.20073	0.15101
3745.27217	0.15206
3743.34360	0.15474
3741.41504	0.15782
3739.48647	0.16033
3737.55791	0.16376
3735.62935	0.16934
3733.70078	0.17566
3731.77222	0.17965
3729.84365	0.18240
3727.91509	0.18565
3725.98652	0.19060
3724.05796	0.19729
3722.12939	0.20439
3720.20083	0.21138
3718.27227	0.21794
3716.34370	0.22457
3714.41514	0.23179
3712.48657	0.24110
3710.55801	0.25458
3708.62944	0.26846
3706.70088	0.27921
3704.77231	0.28977
3702.84375	0.30284
3700.91519	0.31974
3698.98662	0.33774
3697.05806	0.35482
3695.12949	0.37306
3693.20093	0.39243
3691.27236	0.41391
3689.34380	0.44230
3687.41523	0.47659
3685.48667	0.50582
3683.55811	0.53102
3681.62954	0.55843
3679.70098	0.58951
3677.77241	0.62248
3675.84385	0.66211
3673.91528	0.71526
3671.98672	0.75777
3670.05815	0.79503
3668.12959	0.84643
3666.20103	0.89339
3664.27246	0.93303
3662.34390	0.97608
3660.41533	1.02227
3658.48677	1.06744
3656.55820	1.11646
3654.62964	1.17172
3652.70107	1.21750
3650.77251	1.25767
3648.84395	1.31391
3646.91538	1.38117
3644.98682	1.42899
3643.05825	1.46580
3641.12969	1.50453
3639.20112	1.54837
3637.27256	1.59287
3635.34399	1.63617
3633.41543	1.67970
3631.48687	1.72031
3629.55830	1.76059
3627.62974	1.81235
3625.70117	1.86030
3623.77261	1.89319
3621.84404	1.92615
3619.91548	1.96489
3617.98691	2.01169
3616.05835	2.05667
3614.12979	2.09344
3612.20122	2.12983
3610.27266	2.16513
3608.34409	2.20260
3606.41553	2.24571
3604.48696	2.28608
3602.55840	2.32195
3600.62983	2.36173
3598.70127	2.40390
3596.77271	2.44321
3594.84414	2.48277
3592.91558	2.52296
3590.98701	2.56019
3589.05845	2.59495
3587.12988	2.63825
3585.20132	2.68875
3583.27275	2.73061
3581.34419	2.76664
3579.41562	2.80519
3577.48706	2.84723
3575.55850	2.88970
3573.62993	2.93367
3571.70137	2.97804
3569.77280	3.02080
3567.84424	3.06484
3565.91567	3.11424
3563.98711	3.15910
3562.05854	3.19801
3560.12998	3.24198
3558.20142	3.29053
3556.27285	3.33725
3554.34429	3.38094
3552.41572	3.42714
3550.48716	3.47613
3548.55859	3.52309
3546.63003	3.56824
3544.70146	3.61514
3542.77290	3.66259
3540.84434	3.70698
3538.91577	3.74954
3536.98721	3.79497
3535.05864	3.84493
3533.13008	3.89217
3531.20151	3.93708
3529.27295	3.98643
3527.34438	4.03906
3525.41582	4.08649
3523.48726	4.13052
3521.55869	4.18111
3519.63013	4.23389
3517.70156	4.28393
3515.77300	4.33227
3513.84443	4.37618
3511.91587	4.41891
3509.98730	4.46849
3508.05874	4.52060
3506.13018	4.57022
3504.20161	4.62155
3502.27305	4.67353
3500.34448	4.71907
3498.41592	4.75737
3496.48735	4.80086
3494.55879	4.85484
3492.63022	4.90616
3490.70166	4.95314
3488.77310	5.00453
3486.84453	5.05504
3484.91597	5.10281
3482.98740	5.15457
3481.05884	5.20874
3479.13027	5.26005
3477.20171	5.31067
3475.27314	5.36614
3473.34458	5.42408
3471.41602	5.47417
3469.48745	5.51279
3467.55889	5.55149
3465.63032	5.60183
3463.70176	5.65988
3461.77319	5.71384
3459.84463	5.76413
3457.91606	5.81441
3455.98750	5.86510
3454.05894	5.91626
3452.13037	5.96219
3450.20181	5.99557
3448.27324	6.02284
3446.34468	6.07321
3444.41611	6.14747
3442.48755	6.22166
3440.55898	6.29031
3438.63042	6.34498
3436.70186	6.38907
3434.77329	6.43941
3432.84473	6.48579
3430.91616	6.51388
3428.98760	6.53704
3427.05903	6.57337
3425.13047	6.63095
3423.20190	6.70163
3421.27334	6.77383
3419.34478	6.83441
3417.41621	6.88605
3415.48765	6.92205
3413.55908	6.93350
3411.63052	6.95876
3409.70195	7.00904
3407.77339	7.06573
3405.84482	7.12525
3403.91626	7.18296
3401.98770	7.22303
3400.05913	7.26572
3398.13057	7.32351
3396.20200	7.38623
3394.27344	7.44414
3392.34487	7.46953
3390.41631	7.50666
3388.48774	7.57562
3386.55918	7.63618
3384.63062	7.68344
3382.70205	7.73567
3380.77349	7.76362
3378.84492	7.75621
3376.91636	7.75892
3374.98779	7.75709
3373.05923	7.75385
3371.13066	7.78434
3369.20210	7.85306
3367.27354	7.88881
3365.34497	7.87794
3363.41641	7.90195
3361.48784	7.97671
3359.55928	8.07104
3357.63071	8.12290
3355.70215	8.12925
3353.77358	8.14178
3351.84502	8.17143
3349.91646	8.18150
3347.98789	8.18217
3346.05933	8.16884
3344.13076	8.12489
3342.20220	8.13597
3340.27363	8.19647
3338.34507	8.19025
3336.41650	8.13403
3334.48794	8.14258
3332.55937	8.20525
3330.63081	8.24337
3328.70225	8.23479
3326.77368	8.24349
3324.84512	8.28470
3322.91655	8.27946
3320.98799	8.22575
3319.05942	8.21150
3317.13086	8.26690
3315.20229	8.27763
3313.27373	8.21988
3311.34517	8.17873
3309.41660	8.23662
3307.48804	8.37941
3305.55947	8.45687
3303.63091	8.45257
3301.70234	8.49164
3299.77378	8.64762
3297.84521	8.77316
3295.91665	8.74424
3293.98809	8.63424
3292.05952	8.50937
3290.13096	8.40746
3288.20239	8.35985
3286.27383	8.43127
3284.34526	8.58441
3282.41670	8.70159
3280.48813	8.70196
3278.55957	8.57380
3276.63101	8.39099
3274.70244	8.27367
3272.77388	8.24704
3270.84531	8.24763
3268.91675	8.26013
3266.98818	8.33931
3265.05962	8.52860
3263.13105	8.67913
3261.20249	8.64409
3259.27393	8.54352
3257.34536	8.46681
3255.41680	8.35920
3253.48823	8.27126
3251.55967	8.41518
3249.63110	8.75769
3247.70254	8.77458
3245.77397	8.47870
3243.84541	8.35044
3241.91685	8.35678
3239.98828	8.37816
3238.05972	8.42748
3236.13115	8.51648
3234.20259	8.56726
3232.27402	8.47696
3230.34546	8.43729
3228.41689	8.51412
3226.48833	8.52460
3224.55977	8.49661
3222.63120	8.50691
3220.70264	8.45568
3218.77407	8.35410
3216.84551	8.32423
3214.91694	8.36562
3212.98838	8.35956
3211.05981	8.27876
3209.13125	8.27378
3207.20269	8.41253
3205.27412	8.51122
3203.34556	8.38439
3201.41699	8.19265
3199.48843	8.06847
3197.55986	7.97596
3195.63130	7.90653
3193.70273	7.86966
3191.77417	7.86291
3189.84561	7.87577
3187.91704	7.87026
3185.98848	7.80714
3184.05991	7.69813
3182.13135	7.62072
3180.20278	7.60390
3178.27422	7.56012
3176.34565	7.43320
3174.41709	7.30665
3172.48853	7.25517
3170.55996	7.23412
3168.63140	7.17795
3166.70283	7.10030
3164.77427	7.03081
3162.84570	6.96186
3160.91714	6.86582
3158.98857	6.76703
3157.06001	6.71025
3155.13145	6.67121
3153.20288	6.59858
3151.27432	6.50021
3149.34575	6.43003
3147.41719	6.39414
3145.48862	6.33851
3143.56006	6.25675
3141.63149	6.18552
3139.70293	6.11229
3137.77437	6.02036
3135.84580	5.92863
3133.91724	5.84281
3131.98867	5.76168
3130.06011	5.69447
3128.13154	5.63187
3126.20298	5.56211
3124.27441	5.49189
3122.34585	5.41906
3120.41729	5.33724
3118.48872	5.25538
3116.56016	5.18431
3114.63159	5.11979
3112.70303	5.05470
3110.77446	4.98857
3108.84590	4.91749
3106.91733	4.84189
3104.98877	4.76997
3103.06021	4.70239
3101.13164	4.63422
3099.20308	4.56689
3097.27451	4.49929
3095.34595	4.42782
3093.41738	4.35566
3091.48882	4.28758
3089.56025	4.22412
3087.63169	4.16123
3085.70312	4.09690
3083.77456	4.03179
3081.84600	3.96700
3079.91743	3.90557
3077.98887	3.84649
3076.06030	3.78569
3074.13174	3.72358
3072.20317	3.66285
3070.27461	3.60379
3068.34604	3.54454
3066.41748	3.48528
3064.48892	3.42745
3062.56035	3.37024
3060.63179	3.31387
3058.70322	3.25883
3056.77466	3.20432
3054.84609	3.15102
3052.91753	3.09882
3050.98896	3.04628
3049.06040	2.99322
3047.13184	2.94052
3045.20327	2.88914
3043.27471	2.83936
3041.34614	2.79115
3039.41758	2.74401
3037.48901	2.69666
3035.56045	2.64947
3033.63188	2.60302
3031.70332	2.55642
3029.77476	2.51054
3027.84619	2.46638
3025.91763	2.42337
3023.98906	2.38139
3022.06050	2.34025
3020.13193	2.29895
3018.20337	2.25739
3016.27480	2.21687
3014.34624	2.17766
3012.41768	2.13920
3010.48911	2.10177
3008.56055	2.06494
3006.63198	2.02767
3004.70342	1.99060
3002.77485	1.95484
3000.84629	1.91989
2998.91772	1.88515
2996.98916	1.85132
2995.06060	1.81831
2993.13203	1.78535
2991.20347	1.75301
2989.27490	1.72222
2987.34634	1.69232
2985.41777	1.66191
2983.48921	1.63148
2981.56064	1.60224
2979.63208	1.57369
2977.70352	1.54562
2975.77495	1.51857
2973.84639	1.49208
2971.91782	1.46551
2969.98926	1.43916
2968.06069	1.41337
2966.13213	1.38796
2964.20356	1.36293
2962.27500	1.33858
2960.34644	1.31493
2958.41787	1.29168
2956.48931	1.26827
2954.56074	1.24477
2952.63218	1.22152
2950.70361	1.19870
2948.77505	1.17664
2946.84648	1.15523
2944.91792	1.13445
2942.98936	1.11430
2941.06079	1.09429
2939.13223	1.07436
2937.20366	1.05464
2935.27510	1.03529
2933.34653	1.01660
2931.41797	0.99842
2929.48940	0.98044
2927.56084	0.96216
2925.63228	0.94369
2923.70371	0.92611
2921.77515	0.90940
2919.84658	0.89293
2917.91802	0.87665
2915.98945	0.86035
2914.06089	0.84409
2912.13232	0.82846
2910.20376	0.81351
2908.27520	0.79897
2906.34663	0.78493
2904.41807	0.77129
2902.48950	0.75784
2900.56094	0.74477
2898.63237	0.73189
2896.70381	0.71881
2894.77524	0.70606
2892.84668	0.69390
2890.91812	0.68193
2888.98955	0.67031
2887.06099	0.65919
2885.13242	0.64830
2883.20386	0.63771
2881.27529	0.62758
2879.34673	0.61755
2877.41816	0.60740
2875.48960	0.59703
2873.56104	0.58652
2871.63247	0.57631
2869.70391	0.56626
2867.77534	0.55607
2865.84678	0.54598
2863.91821	0.53604
2861.98965	0.52625
2860.06108	0.51705
2858.13252	0.50824
2856.20396	0.49936
2854.27539	0.49065
2852.34683	0.48249
2850.41826	0.47477
2848.48970	0.46682
2846.56113	0.45874
2844.63257	0.45137
2842.70400	0.44457
2840.77544	0.43787
2838.84687	0.43142
2836.91831	0.42521
2834.98975	0.41910
2833.06118	0.41299
2831.13262	0.40695
2829.20405	0.40115
2827.27549	0.39552
2825.34692	0.38978
2823.41836	0.38387
2821.48979	0.37800
2819.56123	0.37228
2817.63267	0.36663
2815.70410	0.36109
2813.77554	0.35574
2811.84697	0.35056
2809.91841	0.34539
2807.98984	0.34023
2806.06128	0.33526
2804.13271	0.33056
2802.20415	0.32596
2800.27559	0.32129
2798.34702	0.31660
2796.41846	0.31187
2794.48989	0.30715
2792.56133	0.30270
2790.63276	0.29861
2788.70420	0.29468
2786.77563	0.29068
2784.84707	0.28664
2782.91851	0.28263
2780.98994	0.27878
2779.06138	0.27512
2777.13281	0.27148
2775.20425	0.26784
2773.27568	0.26429
2771.34712	0.26077
2769.41855	0.25735
2767.48999	0.25424
2765.56143	0.25130
2763.63286	0.24807
2761.70430	0.24456
2759.77573	0.24131
2757.84717	0.23852
2755.91860	0.23579
2753.99004	0.23286
2752.06147	0.22996
2750.13291	0.22723
2748.20435	0.22458
2746.27578	0.22198
2744.34722	0.21934
2742.41865	0.21669
2740.49009	0.21421
2738.56152	0.21210
2736.63296	0.21011
2734.70439	0.20781
2732.77583	0.20527
2730.84727	0.20287
2728.91870	0.20073
2726.99014	0.19871
2725.06157	0.19669
2723.13301	0.19468
2721.20444	0.19278
2719.27588	0.19104
2717.34731	0.18939
2715.41875	0.18778
2713.49019	0.18617
2711.56162	0.18450
2709.63306	0.18271
2707.70449	0.18105
2705.77593	0.17966
2703.84736	0.17818
2701.91880	0.17649
2699.99023	0.17499
2698.06167	0.17374
2696.13311	0.17253
2694.20454	0.17132
2692.27598	0.17006
2690.34741	0.16872
2688.41885	0.16740
2686.49028	0.16601
2684.56172	0.16469
2682.63315	0.16364
2680.70459	0.16277
2678.77603	0.16171
2676.84746	0.16046
2674.91890	0.15935
2672.99033	0.15846
2671.06177	0.15756
2669.13320	0.15666
2667.20464	0.15590
2665.27607	0.15513
2663.34751	0.15428
2661.41895	0.15347
2659.49038	0.15262
2657.56182	0.15179
2655.63325	0.15115
2653.70469	0.15054
2651.77612	0.14985
2649.84756	0.14916
2647.91899	0.14863
2645.99043	0.14835
2644.06187	0.14809
2642.13330	0.14770
2640.20474	0.14729
2638.27617	0.14680
2636.34761	0.14620
2634.41904	0.14573
2632.49048	0.14541
2630.56191	0.14505
2628.63335	0.14468
2626.70479	0.14436
2624.77622	0.14409
2622.84766	0.14383
2620.91909	0.14355
2618.99053	0.14334
2617.06196	0.14322
2615.13340	0.14315
2613.20483	0.14311
2611.27627	0.14315
2609.34771	0.14320
2607.41914	0.14320
2605.49058	0.14323
2603.56201	0.14339
2601.63345	0.14349
2599.70488	0.14345
2597.77632	0.14354
2595.84775	0.14372
2593.91919	0.14380
2591.99062	0.14381
2590.06206	0.14384
2588.13350	0.14397
2586.20493	0.14424
2584.27637	0.14459
2582.34780	0.14491
2580.41924	0.14517
2578.49067	0.14551
2576.56211	0.14596
2574.63354	0.14636
2572.70498	0.14674
2570.77642	0.14714
2568.84785	0.14751
2566.91929	0.14791
2564.99072	0.14836
2563.06216	0.14889
2561.13359	0.14950
2559.20503	0.15010
2557.27646	0.15057
2555.34790	0.15098
2553.41934	0.15153
2551.49077	0.15215
2549.56221	0.15275
2547.63364	0.15343
2545.70508	0.15408
2543.77651	0.15465
2541.84795	0.15529
2539.91938	0.15593
2537.99082	0.15651
2536.06226	0.15715
2534.13369	0.15788
2532.20513	0.15852
2530.27656	0.15912
2528.34800	0.15990
2526.41943	0.16081
2524.49087	0.16159
2522.56230	0.16227
2520.63374	0.16303
2518.70518	0.16378
2516.77661	0.16446
2514.84805	0.16527
2512.91948	0.16616
2510.99092	0.16697
2509.06235	0.16783
2507.13379	0.16881
2505.20522	0.16973
2503.27666	0.17050
2501.34810	0.17129
2499.41953	0.17217
2497.49097	0.17309
2495.56240	0.17394
2493.63384	0.17475
2491.70527	0.17568
2489.77671	0.17669
2487.84814	0.17760
2485.91958	0.17845
2483.99102	0.17927
2482.06245	0.18015
2480.13389	0.18114
2478.20532	0.18214
2476.27676	0.18308
2474.34819	0.18394
2472.41963	0.18481
2470.49106	0.18576
2468.56250	0.18668
2466.63394	0.18754
2464.70537	0.18855
2462.77681	0.18973
2460.84824	0.19084
2458.91968	0.19180
2456.99111	0.19271
2455.06255	0.19358
2453.13398	0.19440
2451.20542	0.19532
2449.27686	0.19631
2447.34829	0.19721
2445.41973	0.19809
2443.49116	0.19913
2441.56260	0.20029
2439.63403	0.20144
2437.70547	0.20254
2435.77690	0.20364
2433.84834	0.20477
2431.91978	0.20593
2429.99121	0.20704
2428.06265	0.20808
2426.13408	0.20912
2424.20552	0.21026
2422.27695	0.21145
2420.34839	0.21258
2418.41982	0.21375
2416.49126	0.21494
2414.56270	0.21596
2412.63413	0.21695
2410.70557	0.21803
2408.77700	0.21917
2406.84844	0.22043
2404.91987	0.22181
2402.99131	0.22314
2401.06274	0.22436
2399.13418	0.22552
2397.20562	0.22667
2395.27705	0.22783
2393.34849	0.22899
2391.41992	0.23023
2389.49136	0.23155
2387.56279	0.23288
2385.63423	0.23423
2383.70566	0.23578
2381.77710	0.23766
2379.84854	0.23986
2377.91997	0.24213
2375.99141	0.24426
2374.06284	0.24653
2372.13428	0.24910
2370.20571	0.25166
2368.27715	0.25400
2366.34858	0.25629
2364.42002	0.25883
2362.49146	0.26138
2360.56289	0.26356
2358.63433	0.26611
2356.70576	0.26869
2354.77720	0.27014
2352.84863	0.27019
2350.92007	0.26938
2348.99150	0.26921
2347.06294	0.27025
2345.13437	0.27241
2343.20581	0.27504
2341.27725	0.27711
2339.34868	0.27873
2337.42012	0.28051
2335.49155	0.28250
2333.56299	0.28392
2331.63442	0.28513
2329.70586	0.28635
2327.77729	0.28732
2325.84873	0.28870
2323.92017	0.29047
2321.99160	0.29189
2320.06304	0.29270
2318.13447	0.29335
2316.20591	0.29447
2314.27734	0.29593
2312.34878	0.29727
2310.42021	0.29868
2308.49165	0.30012
2306.56309	0.30136
2304.63452	0.30275
2302.70596	0.30447
2300.77739	0.30619
2298.84883	0.30773
2296.92026	0.30919
2294.99170	0.31075
2293.06313	0.31263
2291.13457	0.31465
2289.20601	0.31646
2287.27744	0.31815
2285.34888	0.31987
2283.42031	0.32168
2281.49175	0.32363
2279.56318	0.32580
2277.63462	0.32805
2275.70605	0.33021
2273.77749	0.33223
2271.84893	0.33421
2269.92036	0.33618
2267.99180	0.33821
2266.06323	0.34031
2264.13467	0.34241
2262.20610	0.34446
2260.27754	0.34655
2258.34897	0.34869
2256.42041	0.35086
2254.49185	0.35303
2252.56328	0.35523
2250.63472	0.35745
2248.70615	0.35972
2246.77759	0.36191
2244.84902	0.36397
2242.92046	0.36604
2240.99189	0.36829
2239.06333	0.37064
2237.13477	0.37296
2235.20620	0.37524
2233.27764	0.37745
2231.34907	0.37954
2229.42051	0.38161
2227.49194	0.38381
2225.56338	0.38616
2223.63481	0.38847
2221.70625	0.39069
2219.77769	0.39286
2217.84912	0.39502
2215.92056	0.39726
2213.99199	0.39951
2212.06343	0.40165
2210.13486	0.40372
2208.20630	0.40576
2206.27773	0.40787
2204.34917	0.41009
2202.42061	0.41230
2200.49204	0.41438
2198.56348	0.41633
2196.63491	0.41831
2194.70635	0.42039
2192.77778	0.42243
2190.84922	0.42435
2188.92065	0.42609
2186.99209	0.42771
2185.06353	0.42939
2183.13496	0.43112
2181.20640	0.43290
2179.27783	0.43464
2177.34927	0.43627
2175.42070	0.43795
2173.49214	0.43959
2171.56357	0.44098
2169.63501	0.44222
2167.70645	0.44343
2165.77788	0.44470
2163.84932	0.44593
2161.92075	0.44703
2159.99219	0.44808
2158.06362	0.44909
2156.13506	0.45002
2154.20649	0.45095
2152.27793	0.45191
2150.34937	0.45269
2148.42080	0.45325
2146.49224	0.45378
2144.56367	0.45428
2142.63511	0.45465
2140.70654	0.45493
2138.77798	0.45516
2136.84941	0.45530
2134.92085	0.45537
2132.99229	0.45544
2131.06372	0.45556
2129.13516	0.45556
2127.20659	0.45517
2125.27803	0.45454
2123.34946	0.45395
2121.42090	0.45346
2119.49233	0.45299
2117.56377	0.45249
2115.63521	0.45180
2113.70664	0.45095
2111.77808	0.45004
2109.84951	0.44902
2107.92095	0.44786
2105.99238	0.44669
2104.06382	0.44562
2102.13525	0.44450
2100.20669	0.44323
2098.27812	0.44176
2096.34956	0.44019
2094.42100	0.43869
2092.49243	0.43719
2090.56387	0.43555
2088.63530	0.43371
2086.70674	0.43178
2084.77817	0.42981
2082.84961	0.42783
2080.92104	0.42586
2078.99248	0.42390
2077.06392	0.42176
2075.13535	0.41950
2073.20679	0.41731
2071.27822	0.41512
2069.34966	0.41283
2067.42109	0.41054
2065.49253	0.40827
2063.56396	0.40594
2061.63540	0.40350
2059.70684	0.40102
2057.77827	0.39852
2055.84971	0.39598
2053.92114	0.39338
2051.99258	0.39073
2050.06401	0.38807
2048.13545	0.38537
2046.20688	0.38268
2044.27832	0.38006
2042.34976	0.37745
2040.42119	0.37479
2038.49263	0.37210
2036.56406	0.36944
2034.63550	0.36670
2032.70693	0.36381
2030.77837	0.36092
2028.84980	0.35813
2026.92124	0.35528
2024.99268	0.35246
2023.06411	0.34980
2021.13555	0.34714
2019.20698	0.34441
2017.27842	0.34163
2015.34985	0.33876
2013.42129	0.33599
2011.49272	0.33341
2009.56416	0.33086
2007.63560	0.32817
2005.70703	0.32541
2003.77847	0.32273
2001.84990	0.32007
1999.92134	0.31737
1997.99277	0.31473
1996.06421	0.31217
1994.13564	0.30973
1992.20708	0.30744
1990.27852	0.30500
1988.34995	0.30237
1986.42139	0.29982
1984.49282	0.29740
1982.56426	0.29499
1980.63569	0.29267
1978.70713	0.29050
1976.77856	0.28830
1974.85000	0.28609
1972.92144	0.28390
1970.99287	0.28177
1969.06431	0.27968
1967.13574	0.27760
1965.20718	0.27553
1963.27861	0.27354
1961.35005	0.27160
1959.42148	0.26969
1957.49292	0.26783
1955.56436	0.26607
1953.63579	0.26439
1951.70723	0.26269
1949.77866	0.26102
1947.85010	0.25948
1945.92153	0.25812
1943.99297	0.25688
1942.06440	0.25552
1940.13584	0.25390
1938.20728	0.25230
1936.27871	0.25087
1934.35015	0.24963
1932.42158	0.24849
1930.49302	0.24727
1928.56445	0.24602
1926.63589	0.24491
1924.70732	0.24411
1922.77876	0.24344
1920.85020	0.24259
1918.92163	0.24167
1916.99307	0.24077
1915.06450	0.23980
1913.13594	0.23883
1911.20737	0.23806
1909.27881	0.23740
1907.35024	0.23670
1905.42168	0.23596
1903.49312	0.23528
1901.56455	0.23474
1899.63599	0.23429
1897.70742	0.23392
1895.77886	0.23368
1893.85029	0.23348
1891.92173	0.23322
1889.99316	0.23308
1888.06460	0.23286
1886.13604	0.23244
1884.20747	0.23210
1882.27891	0.23190
1880.35034	0.23175
1878.42178	0.23163
1876.49321	0.23161
1874.56465	0.23162
1872.63608	0.23176
1870.70752	0.23223
1868.77896	0.23311
1866.85039	0.23355
1864.92183	0.23320
1862.99326	0.23292
1861.06470	0.23298
1859.13613	0.23326
1857.20757	0.23356
1855.27900	0.23406
1853.35044	0.23466
1851.42187	0.23526
1849.49331	0.23586
1847.56475	0.23670
1845.63618	0.23779
1843.70762	0.23881
1841.77905	0.23938
1839.85049	0.23968
1837.92192	0.24029
1835.99336	0.24111
1834.06479	0.24207
1832.13623	0.24328
1830.20767	0.24500
1828.27910	0.24662
1826.35054	0.24764
1824.42197	0.24884
1822.49341	0.24993
1820.56484	0.25087
1818.63628	0.25212
1816.70771	0.25382
1814.77915	0.25559
1812.85059	0.25749
1810.92202	0.25968
1808.99346	0.26175
1807.06489	0.26355
1805.13633	0.26535
1803.20776	0.26764
1801.27920	0.27048
1799.35063	0.27356
1797.42207	0.27606
1795.49351	0.27835
1793.56494	0.28123
1791.63638	0.28498
1789.70781	0.28822
1787.77925	0.29055
1785.85068	0.29359
1783.92212	0.29737
1781.99355	0.30150
1780.06499	0.30584
1778.13643	0.31010
1776.20786	0.31407
1774.27930	0.31854
1772.35073	0.32464
1770.42217	0.33104
1768.49360	0.33613
1766.56504	0.34096
1764.63647	0.34615
1762.70791	0.35214
1760.77935	0.35978
1758.85078	0.36692
1756.92222	0.37411
1754.99365	0.38189
1753.06509	0.38893
1751.13652	0.39756
1749.20796	0.40861
1747.27939	0.41935
1745.35083	0.42851
1743.42227	0.43810
1741.49370	0.44865
1739.56514	0.46109
1737.63657	0.47365
1735.70801	0.48485
1733.77944	0.50183
1731.85088	0.52182
1729.92231	0.53702
1727.99375	0.55227
1726.06519	0.56884
1724.13662	0.58715
1722.20806	0.60719
1720.27949	0.62593
1718.35093	0.64783
1716.42236	0.67976
1714.49380	0.70969
1712.56523	0.73382
1710.63667	0.75746
1708.70811	0.78316
1706.77954	0.81260
1704.85098	0.84763
1702.92241	0.87841
1700.99385	0.90848
1699.06528	0.95360
1697.13672	0.99512
1695.20815	1.03711
1693.27959	1.07751
1691.35103	1.11006
1689.42246	1.14792
1687.49390	1.18787
1685.56533	1.22607
1683.63677	1.28434
1681.70820	1.34439
1679.77964	1.38312
1677.85107	1.42060
1675.92251	1.46378
1673.99395	1.51612
1672.06538	1.56139
1670.13682	1.60586
1668.20825	1.66524
1666.27969	1.71343
1664.35112	1.75326
1662.42256	1.80265
1660.49399	1.85763
1658.56543	1.90023
1656.63687	1.93566
1654.70830	1.97071
1652.77974	2.02803
1650.85117	2.08001
1648.92261	2.09893
1646.99404	2.12492
1645.06548	2.15367
1643.13691	2.17166
1641.20835	2.18258
1639.27979	2.19295
1637.35122	2.20092
1635.42266	2.20312
1633.49409	2.19524
1631.56553	2.18171
1629.63696	2.16644
1627.70840	2.14088
1625.77983	2.11032
1623.85127	2.07290
1621.92271	2.02744
1619.99414	1.98647
1618.06558	1.94604
1616.13701	1.88720
1614.20845	1.82543
1612.27988	1.77797
1610.35132	1.72937
1608.42275	1.67667
1606.49419	1.62382
1604.56562	1.57463
1602.63706	1.52718
1600.70850	1.48099
1598.77993	1.43846
1596.85137	1.39827
1594.92280	1.35892
1592.99424	1.32061
1591.06567	1.28567
1589.13711	1.25317
1587.20854	1.22263
1585.27998	1.19417
1583.35142	1.16738
1581.42285	1.14259
1579.49429	1.12141
1577.56572	1.10262
1575.63716	1.07904
1573.70859	1.05751
1571.78003	1.04351
1569.85146	1.02883
1567.92290	1.01187
1565.99434	0.99853
1564.06577	0.98774
1562.13721	0.97908
1560.20864	0.97270
1558.28008	0.96234
1556.35151	0.95157
1554.42295	0.94469
1552.49438	0.93813
1550.56582	0.93105
1548.63726	0.92275
1546.70869	0.91474
1544.78013	0.90696
1542.85156	0.89834
1540.92300	0.88686
1538.99443	0.86798
1537.06587	0.85347
1535.13730	0.84461
1533.20874	0.83378
1531.28018	0.82149
1529.35161	0.81222
1527.42305	0.80373
1525.49448	0.79495
1523.56592	0.78748
1521.63735	0.78017
1519.70879	0.77185
1517.78022	0.76456
1515.85166	0.75680
1513.92310	0.74887
1511.99453	0.74243
1510.06597	0.73733
1508.13740	0.73311
1506.20884	0.72537
1504.28027	0.71649
1502.35171	0.71107
1500.42314	0.70698
1498.49458	0.70304
1496.56602	0.69813
1494.63745	0.69291
1492.70889	0.68898
1490.78032	0.68581
1488.85176	0.68194
1486.92319	0.67755
1484.99463	0.67368
1483.06606	0.67050
1481.13750	0.66773
1479.20894	0.66532
1477.28037	0.66347
1475.35181	0.66223
1473.42324	0.66127
1471.49468	0.65906
1469.56611	0.65590
1467.63755	0.65342
1465.70898	0.65176
1463.78042	0.65023
1461.85186	0.64866
1459.92329	0.64765
1457.99473	0.64695
1456.06616	0.64521
1454.13760	0.64254
1452.20903	0.64014
1450.28047	0.63807
1448.35190	0.63629
1446.42334	0.63430
1444.49478	0.63220
1442.56621	0.63037
1440.63765	0.62864
1438.70908	0.62703
1436.78052	0.62532
1434.85195	0.62302
1432.92339	0.62083
1430.99482	0.61922
1429.06626	0.61781
1427.13770	0.61642
1425.20913	0.61542
1423.28057	0.61471
1421.35200	0.61387
1419.42344	0.61311
1417.49487	0.61221
1415.56631	0.61059
1413.63774	0.60894
1411.70918	0.60772
1409.78062	0.60688
1407.85205	0.60640
1405.92349	0.60636
1403.99492	0.60636
1402.06636	0.60577
1400.13779	0.60478
1398.20923	0.60349
1396.28066	0.60184
1394.35210	0.59971
1392.42354	0.59724
1390.49497	0.59500
1388.56641	0.59305
1386.63784	0.59082
1384.70928	0.58820
1382.78071	0.58573
1380.85215	0.58368
1378.92358	0.58202
1376.99502	0.58062
1375.06646	0.57958
1373.13789	0.57865
1371.20933	0.57751
1369.28076	0.57640
1367.35220	0.57544
1365.42363	0.57459
1363.49507	0.57377
1361.56650	0.57259
1359.63794	0.57106
1357.70937	0.56973
1355.78081	0.56869
1353.85225	0.56770
1351.92368	0.56670
1349.99512	0.56578
1348.06655	0.56487
1346.13799	0.56388
1344.20942	0.56296
1342.28086	0.56224
1340.35229	0.56171
1338.42373	0.56106
1336.49517	0.56004
1334.56660	0.55897
1332.63804	0.55816
1330.70947	0.55757
1328.78091	0.55703
1326.85234	0.55653
1324.92378	0.55617
1322.99521	0.55593
1321.06665	0.55565
1319.13809	0.55530
1317.20952	0.55488
1315.28096	0.55436
1313.35239	0.55370
1311.42383	0.55297
1309.49526	0.55227
1307.56670	0.55156
1305.63813	0.55081
1303.70957	0.55025
1301.78101	0.54979
1299.85244	0.54906
1297.92388	0.54809
1295.99531	0.54706
1294.06675	0.54609
1292.13818	0.54527
1290.20962	0.54463
1288.28105	0.54408
1286.35249	0.54343
1284.42393	0.54260
1282.49536	0.54169
1280.56680	0.54091
1278.63823	0.54023
1276.70967	0.53947
1274.78110	0.53881
1272.85254	0.53836
1270.92397	0.53782
1268.99541	0.53701
1267.06685	0.53628
1265.13828	0.53589
1263.20972	0.53563
1261.28115	0.53521
1259.35259	0.53464
1257.42402	0.53410
1255.49546	0.53368
1253.56689	0.53340
1251.63833	0.53319
1249.70977	0.53290
1247.78120	0.53251
1245.85264	0.53211
1243.92407	0.53177
1241.99551	0.53147
1240.06694	0.53091
1238.13838	0.52990
1236.20981	0.52862
1234.28125	0.52733
1232.35269	0.52617
1230.42412	0.52515
1228.49556	0.52412
1226.56699	0.52310
1224.63843	0.52220
1222.70986	0.52124
1220.78130	0.52008
1218.85273	0.51904
1216.92417	0.51827
1214.99561	0.51754
1213.06704	0.51668
1211.13848	0.51592
1209.20991	0.51538
1207.28135	0.51477
1205.35278	0.51396
1203.42422	0.51320
1201.49565	0.51260
1199.56709	0.51198
1197.63853	0.51117
1195.70996	0.51023
1193.78140	0.50945
1191.85283	0.50902
1189.92427	0.50883
1187.99570	0.50866
1186.06714	0.50848
1184.13857	0.50834
1182.21001	0.50819
1180.28145	0.50820
1178.35288	0.50868
1176.42432	0.50937
1174.49575	0.50992
1172.56719	0.51041
1170.63862	0.51080
1168.71006	0.51107
1166.78149	0.51140
1164.85293	0.51190
1162.92437	0.51237
1160.99580	0.51254
1159.06724	0.51249
1157.13867	0.51239
1155.21011	0.51195
1153.28154	0.51088
1151.35298	0.50921
1149.42441	0.50708
1147.49585	0.50481
1145.56729	0.50270
1143.63872	0.50057
1141.71016	0.49834
1139.78159	0.49625
1137.85303	0.49443
1135.92446	0.49286
1133.99590	0.49151
1132.06733	0.49030
1130.13877	0.48906
1128.21021	0.48782
1126.28164	0.48675
1124.35308	0.48590
1122.42451	0.48518
1120.49595	0.48464
1118.56738	0.48447
1116.63882	0.48473
1114.71025	0.48525
1112.78169	0.48593
1110.85312	0.48685
1108.92456	0.48796
1106.99600	0.48907
1105.06743	0.48997
1103.13887	0.49082
1101.21030	0.49197
1099.28174	0.49357
1097.35317	0.49564
1095.42461	0.49835
1093.49604	0.50178
1091.56748	0.50624
1089.63892	0.51196
1087.71035	0.51872
1085.78179	0.52631
1083.85322	0.53410
1081.92466	0.54127
1079.99609	0.54721
1078.06753	0.55091
1076.13896	0.55135
1074.21040	0.54857
1072.28184	0.54359
1070.35327	0.53723
1068.42471	0.53019
1066.49614	0.52343
1064.56758	0.51737
1062.63901	0.51190
1060.71045	0.50710
1058.78188	0.50300
1056.85332	0.49928
1054.92476	0.49584
1052.99619	0.49277
1051.06763	0.49029
1049.13906	0.48851
1047.21050	0.48730
1045.28193	0.48653
1043.35337	0.48619
1041.42480	0.48620
1039.49624	0.48625
1037.56768	0.48616
1035.63911	0.48596
1033.71055	0.48576
1031.78198	0.48543
1029.85342	0.48472
1027.92485	0.48388
1025.99629	0.48328
1024.06772	0.48291
1022.13916	0.48279
1020.21060	0.48293
1018.28203	0.48320
1016.35347	0.48357
1014.42490	0.48396
1012.49634	0.48415
1010.56777	0.48433
1008.63921	0.48482
1006.71064	0.48565
1004.78208	0.48693
1002.85352	0.48889
1000.92495	0.49167
998.99639	0.49524
997.06782	0.49923
995.13926	0.50319
993.21069	0.50688
991.28213	0.51003
989.35356	0.51225
987.42500	0.51351
985.49644	0.51416
983.56787	0.51455
981.63931	0.51519
979.71074	0.51653
977.78218	0.51845
975.85361	0.52065
973.92505	0.52318
971.99648	0.52615
970.06792	0.52938
968.13936	0.53298
966.21079	0.53727
964.28223	0.54212
962.35366	0.54719
960.42510	0.55231
958.49653	0.55770
956.56797	0.56340
954.63940	0.56935
952.71084	0.57572
950.78228	0.58245
948.85371	0.58906
946.92515	0.59520
944.99658	0.60112
943.06802	0.60718
941.13945	0.61328
939.21089	0.61942
937.28232	0.62571
935.35376	0.63195
933.42520	0.63790
931.49663	0.64326
929.56807	0.64821
927.63950	0.65378
925.71094	0.66029
923.78237	0.66709
921.85381	0.67386
919.92524	0.68070
917.99668	0.68781
916.06812	0.69537
914.13955	0.70313
912.21099	0.71063
910.28242	0.71815
908.35386	0.72636
906.42529	0.73557
904.49673	0.74493
902.56816	0.75349
900.63960	0.76256
898.71104	0.77324
896.78247	0.78373
894.85391	0.79298
892.92534	0.80249
890.99678	0.81251
889.06821	0.82266
887.13965	0.83344
885.21108	0.84488
883.28252	0.85703
881.35396	0.86976
879.42539	0.88244
877.49683	0.89404
875.56826	0.90497
873.63970	0.91711
871.71113	0.93015
869.78257	0.94260
867.85400	0.95462
865.92544	0.96676
863.99687	0.97950
862.06831	0.99266
860.13975	1.00429
858.21118	1.01382
856.28262	1.02379
854.35405	1.03564
852.42549	1.04609
850.49692	1.05378
848.56836	1.06370
846.63979	1.07820
844.71123	1.09360
842.78267	1.10604
840.85410	1.11780
838.92554	1.13281
836.99697	1.14757
835.06841	1.15870
833.13984	1.17140
831.21128	1.18593
829.28271	1.19514
827.35415	1.20060
825.42559	1.21028
823.49702	1.22894
821.56846	1.24780
819.63989	1.25837
817.71133	1.27300
815.78276	1.29350
813.85420	1.30521
811.92563	1.31771
809.99707	1.34152
808.06851	1.35423
806.13994	1.35863
804.21138	1.37460
802.28281	1.39140
800.35425	1.39556
798.42568	1.38903
796.49712	1.41195
794.56855	1.50963
792.63999	1.66595
790.71143	1.77798
788.78286	1.79454
786.85430	1.84231
784.92573	2.14249
782.99717	2.16962
781.06860	1.84649
779.14004	1.52471
777.21147	1.38453
775.28291	1.43284
773.35435	1.53669
771.42578	1.45462
769.49722	1.30356
767.56865	1.23823
765.64009	1.22592
763.71152	1.19688
761.78296	1.18685
759.85439	1.15977
757.92583	1.05572
755.99727	1.02169
754.06870	1.09577
752.14014	1.13134
750.21157	1.06559
748.28301	1.04437
746.35444	1.04049
744.42588	0.92285
742.49731	0.82747
740.56875	0.88052
738.64019	1.07509
736.71162	1.02420
734.78306	0.71871
732.85449	0.50716
730.92593	0.33235
728.99736	0.14414
727.06880	-0.00230
725.14023	-0.08733
723.21167	-0.16751
721.28311	-0.32718
719.35454	-0.36085
717.42598	-0.17567
715.49741	0.10604
713.56885	0.33116
711.64028	0.39384
709.71172	0.38177
707.78315	0.32771
705.85459	0.26337
703.92603	0.25050
701.99746	0.31272
700.06890	0.40502
698.14033	0.40588
696.21177	0.36367
694.28320	0.37629
692.35464	0.43180
690.42607	0.43093
688.49751	0.36512
686.56895	0.30602
684.64038	0.31890
682.71182	0.39923
680.78325	0.45135
678.85469	0.39142
676.92612	0.32129
674.99756	0.32264
673.06899	0.34374
671.14043	0.35807
669.21187	0.41298
667.28330	0.50676
665.35474	0.50177
663.42617	0.40950
661.49761	0.38784
659.56904	0.43483
657.64048	0.46821
655.71191	0.42882
653.78335	0.39399
651.85479	0.36979
649.92622	0.32815
647.99766	0.31276
646.06909	0.32631
644.14053	0.32783
642.21196	0.32544
640.28340	0.36094
638.35483	0.40125
636.42627	0.41116
634.49771	0.40788
632.56914	0.37521
630.64058	0.37294
628.71201	0.47992
626.78345	0.57917
624.85488	0.41563
622.92632	0.32870
620.99775	0.36628
619.06919	0.40284
617.14062	0.37970
615.21206	0.41840
613.28350	0.46695
611.35493	0.38916
609.42637	0.32333
607.49780	0.34855
605.56924	0.41410
603.64067	0.43630
601.71211	0.36563
599.78354	0.27560
597.85498	0.23232
595.92642	0.24867
593.99785	0.28063
592.06929	0.31352
590.14072	0.38181
588.21216	0.44263
586.28359	0.43074
584.35503	0.39944
582.42646	0.36101
580.49790	0.33323
578.56934	0.32676
576.64077	0.29844
574.71221	0.30085
572.78364	0.38239
570.85508	0.45747
568.92651	0.44983
566.99795	0.41384
565.06938	0.37801
563.14082	0.34046
561.21226	0.31430
559.28369	0.32788
557.35513	0.38296
555.42656	0.43528
553.49800	0.42807
551.56943	0.40569
549.64087	0.39982
547.71230	0.37674
545.78374	0.34058
543.85518	0.32469
541.92661	0.31011
539.99805	0.27168
538.06948	0.24825
536.14092	0.27883
534.21235	0.33258
532.28379	0.36214
530.35522	0.36348
528.42666	0.32408
526.49810	0.25674
524.56953	0.22213
522.64097	0.24092
520.71240	0.25738
518.78384	0.25868
516.85527	0.25513
514.92671	0.25069
512.99814	0.24074
511.06958	0.21764
509.14102	0.22310
507.21245	0.25742
505.28389	0.24739
503.35532	0.20103
501.42676	0.19485
499.49819	0.22541
