3997.91411	0.07399
3995.98555	0.07434
3994.05698	0.07504
3992.12842	0.07589
3990.19985	0.07607
3988.27129	0.07558
3986.34272	0.07536
3984.41416	0.07588
3982.48560	0.07654
3980.55703	0.07653
3978.62847	0.07627
3976.69990	0.07663
3974.77134	0.07715
3972.84277	0.07735
3970.91421	0.07739
3968.98564	0.07727
3967.05708	0.07711
3965.12852	0.07738
3963.19995	0.07816
3961.27139	0.07873
3959.34282	0.07862
3957.41426	0.07834
3955.48569	0.07854
3953.55713	0.07902
3951.62856	0.07926
3949.70000	0.07908
3947.77144	0.07864
3945.84287	0.07862
3943.91431	0.07903
3941.98574	0.07895
3940.05718	0.07816
3938.12861	0.07781
3936.20005	0.07810
3934.27148	0.07840
3932.34292	0.07854
3930.41436	0.07858
3928.48579	0.07844
3926.55723	0.07812
3924.62866	0.07789
3922.70010	0.07783
3920.77153	0.07772
3918.84297	0.07755
3916.91440	0.07733
3914.98584	0.07720
3913.05728	0.07735
3911.12871	0.07735
3909.20015	0.07702
3907.27158	0.07687
3905.34302	0.07710
3903.41445	0.07742
3901.48589	0.07736
3899.55732	0.07726
3897.62876	0.07744
3895.70020	0.07734
3893.77163	0.07704
3891.84307	0.07696
3889.91450	0.07679
3887.98594	0.07644
3886.05737	0.07672
3884.12881	0.07765
3882.20024	0.07815
3880.27168	0.07805
3878.34312	0.07797
3876.41455	0.07793
3874.48599	0.07797
3872.55742	0.07834
3870.62886	0.07878
3868.70029	0.07902
3866.77173	0.07903
3864.84316	0.07936
3862.91460	0.08014
3860.98604	0.08057
3859.05747	0.08081
3857.12891	0.08092
3855.20034	0.08053
3853.27178	0.08038
3851.34321	0.08129
3849.41465	0.08190
3847.48608	0.08243
3845.55752	0.08311
3843.62896	0.08364
3841.70039	0.08414
3839.77183	0.08465
3837.84326	0.08540
3835.91470	0.08622
3833.98613	0.08654
3832.05757	0.08714
3830.12900	0.08826
3828.20044	0.08895
3826.27187	0.08939
3824.34331	0.08999
3822.41475	0.09054
3820.48618	0.09149
3818.55762	0.09255
3816.62905	0.09317
3814.70049	0.09377
3812.77192	0.09440
3810.84336	0.09502
3808.91479	0.09572
3806.98623	0.09675
3805.05767	0.09792
3803.12910	0.09881
3801.20054	0.10024
3799.27197	0.10201
3797.34341	0.10307
3795.41484	0.10436
3793.48628	0.10576
3791.55771	0.10666
3789.62915	0.10734
3787.70059	0.10809
3785.77202	0.10928
3783.84346	0.11127
3781.91489	0.11340
3779.98633	0.11499
3778.05776	0.11631
3776.12920	0.11761
3774.20063	0.11903
3772.27207	0.12067
3770.34351	0.12264
3768.41494	0.12458
3766.48638	0.12592
3764.55781	0.12747
3762.62925	0.12938
3760.70068	0.13136
3758.77212	0.13377
3756.84355	0.13602
3754.91499	0.13772
3752.98643	0.13942
3751.05786	0.14177
3749.12930	0.14564
3747.20073	0.14933
3745.27217	0.15231
3743.34360	0.15608
3741.41504	0.15960
3739.48647	0.16211
3737.55791	0.16462
3735.62935	0.16849
3733.70078	0.17436
3731.77222	0.18025
3729.84365	0.18502
3727.91509	0.18913
3725.98652	0.19399
3724.05796	0.20006
3722.12939	0.20665
3720.20083	0.21389
3718.27227	0.22141
3716.34370	0.22855
3714.41514	0.23535
3712.48657	0.24379
3710.55801	0.25680
3708.62944	0.27154
3706.70088	0.28305
3704.77231	0.29328
3702.84375	0.30528
3700.91519	0.32127
3698.98662	0.33925
3697.05806	0.35650
3695.12949	0.37449
3693.20093	0.39315
3691.27236	0.41316
3689.34380	0.43941
3687.41523	0.47321
3685.48667	0.50425
3683.55811	0.53096
3681.62954	0.55864
3679.70098	0.58928
3677.77241	0.62158
3675.84385	0.65934
3673.91528	0.71000
3671.98672	0.75232
3670.05815	0.79020
3668.12959	0.84280
3666.20103	0.89146
3664.27246	0.93130
3662.34390	0.97342
3660.41533	1.01942
3658.48677	1.06511
3656.55820	1.11355
3654.62964	1.16726
3652.70107	1.21216
3650.77251	1.25132
3648.84395	1.30611
3646.91538	1.37387
3644.98682	1.42342
3643.05825	1.46150
3641.12969	1.50070
3639.20112	1.54396
3637.27256	1.58782
3635.34399	1.63110
3633.41543	1.67451
3631.48687	1.71461
3629.55830	1.75449
3627.62974	1.80686
3625.70117	1.85715
3623.77261	1.89229
3621.84404	1.92583
3619.91548	1.96360
3617.98691	2.00888
3616.05835	2.05268
3614.12979	2.08928
3612.20122	2.12749
3610.27266	2.16584
3608.34409	2.20439
3606.41553	2.24605
3604.48696	2.28531
3602.55840	2.32014
3600.62983	2.35737
3598.70127	2.39881
3596.77271	2.44126
3594.84414	2.48470
3592.91558	2.52738
3590.98701	2.56486
3589.05845	2.59782
3587.12988	2.63809
3585.20132	2.68749
3583.27275	2.73170
3581.34419	2.77062
3579.41562	2.81145
3577.48706	2.85544
3575.55850	2.89959
3573.62993	2.94363
3571.70137	2.98544
3569.77280	3.02423
3567.84424	3.06547
3565.91567	3.11826
3563.98711	3.17126
3562.05854	3.21283
3560.12998	3.25286
3558.20142	3.29684
3556.27285	3.34281
3554.34429	3.38734
3552.41572	3.43073
3550.48716	3.47494
3548.55859	3.52133
3546.63003	3.56908
3544.70146	3.61731
3542.77290	3.66446
3540.84434	3.71174
3538.91577	3.75934
3536.98721	3.80531
3535.05864	3.85452
3533.13008	3.90565
3531.20151	3.95240
3529.27295	3.99657
3527.34438	4.04534
3525.41582	4.09699
3523.48726	4.14452
3521.55869	4.19092
3519.63013	4.23891
3517.70156	4.28734
3515.77300	4.33334
3513.84443	4.37730
3511.91587	4.42421
3509.98730	4.47530
3508.05874	4.52728
3506.13018	4.57740
3504.20161	4.62722
3502.27305	4.67872
3500.34448	4.72751
3498.41592	4.77286
3496.48735	4.81734
3494.55879	4.85922
3492.63022	4.90248
3490.70166	4.95109
3488.77310	5.00475
3486.84453	5.06139
3484.91597	5.11160
3482.98740	5.15178
3481.05884	5.19415
3479.13027	5.24728
3477.20171	5.30915
3475.27314	5.36807
3473.34458	5.41260
3471.41602	5.45254
3469.48745	5.49777
3467.55889	5.54806
3465.63032	5.60536
3463.70176	5.66283
3461.77319	5.71246
3459.84463	5.76310
3457.91606	5.81200
3455.98750	5.85153
3454.05894	5.89287
3452.13037	5.94536
3450.20181	6.00913
3448.27324	6.07200
3446.34468	6.12345
3444.41611	6.16292
3442.48755	6.19428
3440.55898	6.22708
3438.63042	6.27481
3436.70186	6.32966
3434.77329	6.37163
3432.84473	6.40822
3430.91616	6.46114
3428.98760	6.53548
3427.05903	6.61064
3425.13047	6.66917
3423.20190	6.70599
3421.27334	6.74904
3419.34478	6.82332
3417.41621	6.89085
3415.48765	6.91688
3413.55908	6.92989
3411.63052	6.96979
3409.70195	7.03042
3407.77339	7.09253
3405.84482	7.13174
3403.91626	7.14033
3401.98770	7.13839
3400.05913	7.15605
3398.13057	7.21693
3396.20200	7.30865
3394.27344	7.40390
3392.34487	7.48190
3390.41631	7.54619
3388.48774	7.60160
3386.55918	7.63633
3384.63062	7.62796
3382.70205	7.62700
3380.77349	7.67448
3378.84492	7.70468
3376.91636	7.69834
3374.98779	7.70935
3373.05923	7.76429
3371.13066	7.81436
3369.20210	7.80876
3367.27354	7.77186
3365.34497	7.76664
3363.41641	7.78537
3361.48784	7.80954
3359.55928	7.86171
3357.63071	7.91054
3355.70215	7.93413
3353.77358	7.93080
3351.84502	7.91483
3349.91646	7.94543
3347.98789	8.06642
3346.05933	8.17408
3344.13076	8.17654
3342.20220	8.16758
3340.27363	8.19820
3338.34507	8.19875
3336.41650	8.11418
3334.48794	8.03962
3332.55937	7.99736
3330.63081	7.98494
3328.70225	8.05549
3326.77368	8.14719
3324.84512	8.15293
3322.91655	8.14832
3320.98799	8.23678
3319.05942	8.28642
3317.13086	8.20810
3315.20229	8.11703
3313.27373	8.10871
3311.34517	8.15308
3309.41660	8.17857
3307.48804	8.18318
3305.55947	8.23289
3303.63091	8.37495
3301.70234	8.51087
3299.77378	8.53368
3297.84521	8.42172
3295.91665	8.28730
3293.98809	8.23287
3292.05952	8.29964
3290.13096	8.45374
3288.20239	8.47969
3286.27383	8.37147
3284.34526	8.30607
3282.41670	8.34151
3280.48813	8.44537
3278.55957	8.58124
3276.63101	8.71647
3274.70244	8.67846
3272.77388	8.47418
3270.84531	8.42313
3268.91675	8.56089
3266.98818	8.56013
3265.05962	8.41256
3263.13105	8.40075
3261.20249	8.49647
3259.27393	8.45298
3257.34536	8.30629
3255.41680	8.24174
3253.48823	8.27351
3251.55967	8.35230
3249.63110	8.40081
3247.70254	8.41783
3245.77397	8.45135
3243.84541	8.45261
3241.91685	8.43039
3239.98828	8.46641
3238.05972	8.55089
3236.13115	8.64210
3234.20259	8.63600
3232.27402	8.47581
3230.34546	8.36598
3228.41689	8.40712
3226.48833	8.44505
3224.55977	8.33158
3222.63120	8.13913
3220.70264	7.99001
3218.77407	7.94229
3216.84551	8.00082
3214.91694	8.07673
3212.98838	8.07892
3211.05981	8.06403
3209.13125	8.05646
3207.20269	7.99185
3205.27412	7.92356
3203.34556	7.93862
3201.41699	7.98043
3199.48843	7.91876
3197.55986	7.78752
3195.63130	7.72849
3193.70273	7.75997
3191.77417	7.75429
3189.84561	7.66384
3187.91704	7.60477
3185.98848	7.60598
3184.05991	7.56802
3182.13135	7.45567
3180.20278	7.35501
3178.27422	7.27787
3176.34565	7.19920
3174.41709	7.17624
3172.48853	7.17930
3170.55996	7.12587
3168.63140	7.05841
3166.70283	7.00735
3164.77427	6.93406
3162.84570	6.83985
3160.91714	6.75294
3158.98857	6.67591
3157.06001	6.60782
3155.13145	6.56917
3153.20288	6.55343
3151.27432	6.51829
3149.34575	6.45154
3147.41719	6.37600
3145.48862	6.30923
3143.56006	6.23857
3141.63149	6.15063
3139.70293	6.06412
3137.77437	5.98669
3135.84580	5.91090
3133.91724	5.83876
3131.98867	5.76577
3130.06011	5.69250
3128.13154	5.62503
3126.20298	5.55474
3124.27441	5.47809
3122.34585	5.40294
3120.41729	5.32873
3118.48872	5.25281
3116.56016	5.18064
3114.63159	5.11488
3112.70303	5.05266
3110.77446	4.98488
3108.84590	4.90595
3106.91733	4.82770
3104.98877	4.76049
3103.06021	4.69678
3101.13164	4.62828
3099.20308	4.56131
3097.27451	4.49772
3095.34595	4.43039
3093.41738	4.36025
3091.48882	4.29175
3089.56025	4.22717
3087.63169	4.16628
3085.70312	4.10487
3083.77456	4.04171
3081.84600	3.97924
3079.91743	3.91817
3077.98887	3.85933
3076.06030	3.80231
3074.13174	3.74469
3072.20317	3.68669
3070.27461	3.63041
3068.34604	3.57521
3066.41748	3.51885
3064.48892	3.46292
3062.56035	3.40925
3060.63179	3.35584
3058.70322	3.30083
3056.77466	3.24567
3054.84609	3.19178
3052.91753	3.13856
3050.98896	3.08613
3049.06040	3.03438
3047.13184	2.98368
3045.20327	2.93517
3043.27471	2.88735
3041.34614	2.83829
3039.41758	2.78922
3037.48901	2.74184
3035.56045	2.69563
3033.63188	2.65009
3031.70332	2.60572
3029.77476	2.56226
3027.84619	2.51885
3025.91763	2.47486
3023.98906	2.43081
3022.06050	2.38814
3020.13193	2.34693
3018.20337	2.30632
3016.27480	2.26613
3014.34624	2.22672
3012.41768	2.18793
3010.48911	2.14971
3008.56055	2.11224
3006.63198	2.07499
3004.70342	2.03836
3002.77485	2.00332
3000.84629	1.96970
2998.91772	1.93653
2996.98916	1.90318
2995.06060	1.87046
2993.13203	1.83943
2991.20347	1.80963
2989.27490	1.77996
2987.34634	1.75066
2985.41777	1.72218
2983.48921	1.69415
2981.56064	1.66680
2979.63208	1.64052
2977.70352	1.61476
2975.77495	1.58932
2973.84639	1.56476
2971.91782	1.54109
2969.98926	1.51771
2968.06069	1.49467
2966.13213	1.47194
2964.20356	1.44885
2962.27500	1.42525
2960.34644	1.40170
2958.41787	1.37845
2956.48931	1.35504
2954.56074	1.33118
2952.63218	1.30715
2950.70361	1.28351
2948.77505	1.26084
2946.84648	1.23920
2944.91792	1.21825
2942.98936	1.19784
2941.06079	1.17791
2939.13223	1.15803
2937.20366	1.13841
2935.27510	1.11891
2933.34653	1.09871
2931.41797	1.07862
2929.48940	1.05961
2927.56084	1.04129
2925.63228	1.02348
2923.70371	1.00585
2921.77515	0.98782
2919.84658	0.96985
2917.91802	0.95237
2915.98945	0.93498
2914.06089	0.91771
2912.13232	0.90097
2910.20376	0.88450
2908.27520	0.86840
2906.34663	0.85302
2904.41807	0.83781
2902.48950	0.82262
2900.56094	0.80811
2898.63237	0.79429
2896.70381	0.78068
2894.77524	0.76740
2892.84668	0.75470
2890.91812	0.74257
2888.98955	0.73093
2887.06099	0.71964
2885.13242	0.70891
2883.20386	0.69893
2881.27529	0.68922
2879.34673	0.67937
2877.41816	0.66979
2875.48960	0.66051
2873.56104	0.65097
2871.63247	0.64075
2869.70391	0.62958
2867.77534	0.61769
2865.84678	0.60553
2863.91821	0.59336
2861.98965	0.58180
2860.06108	0.57119
2858.13252	0.56100
2856.20396	0.55088
2854.27539	0.54137
2852.34683	0.53230
2850.41826	0.52311
2848.48970	0.51425
2846.56113	0.50577
2844.63257	0.49749
2842.70400	0.48998
2840.77544	0.48323
2838.84687	0.47654
2836.91831	0.46975
2834.98975	0.46300
2833.06118	0.45641
2831.13262	0.45012
2829.20405	0.44415
2827.27549	0.43831
2825.34692	0.43246
2823.41836	0.42636
2821.48979	0.41986
2819.56123	0.41330
2817.63267	0.40729
2815.70410	0.40185
2813.77554	0.39642
2811.84697	0.39095
2809.91841	0.38557
2807.98984	0.38007
2806.06128	0.37451
2804.13271	0.36919
2802.20415	0.36414
2800.27559	0.35923
2798.34702	0.35423
2796.41846	0.34910
2794.48989	0.34404
2792.56133	0.33922
2790.63276	0.33467
2788.70420	0.33035
2786.77563	0.32612
2784.84707	0.32178
2782.91851	0.31734
2780.98994	0.31305
2779.06138	0.30907
2777.13281	0.30524
2775.20425	0.30139
2773.27568	0.29747
2771.34712	0.29348
2769.41855	0.28967
2767.48999	0.28615
2765.56143	0.28266
2763.63286	0.27908
2761.70430	0.27550
2759.77573	0.27185
2757.84717	0.26837
2755.91860	0.26530
2753.99004	0.26234
2752.06147	0.25919
2750.13291	0.25602
2748.20435	0.25305
2746.27578	0.25021
2744.34722	0.24740
2742.41865	0.24465
2740.49009	0.24193
2738.56152	0.23920
2736.63296	0.23659
2734.70439	0.23410
2732.77583	0.23163
2730.84727	0.22918
2728.91870	0.22679
2726.99014	0.22453
2725.06157	0.22248
2723.13301	0.22048
2721.20444	0.21836
2719.27588	0.21615
2717.34731	0.21409
2715.41875	0.21216
2713.49019	0.21017
2711.56162	0.20814
2709.63306	0.20626
2707.70449	0.20452
2705.77593	0.20291
2703.84736	0.20138
2701.91880	0.19985
2699.99023	0.19840
2698.06167	0.19702
2696.13311	0.19562
2694.20454	0.19415
2692.27598	0.19251
2690.34741	0.19089
2688.41885	0.18961
2686.49028	0.18847
2684.56172	0.18723
2682.63315	0.18612
2680.70459	0.18512
2678.77603	0.18392
2676.84746	0.18262
2674.91890	0.18140
2672.99033	0.18019
2671.06177	0.17902
2669.13320	0.17796
2667.20464	0.17686
2665.27607	0.17574
2663.34751	0.17470
2661.41895	0.17382
2659.49038	0.17306
2657.56182	0.17228
2655.63325	0.17143
2653.70469	0.17060
2651.77612	0.16978
2649.84756	0.16905
2647.91899	0.16854
2645.99043	0.16806
2644.06187	0.16738
2642.13330	0.16667
2640.20474	0.16598
2638.27617	0.16525
2636.34761	0.16465
2634.41904	0.16432
2632.49048	0.16405
2630.56191	0.16366
2628.63335	0.16320
2626.70479	0.16272
2624.77622	0.16218
2622.84766	0.16165
2620.91909	0.16131
2618.99053	0.16104
2617.06196	0.16071
2615.13340	0.16043
2613.20483	0.16032
2611.27627	0.16033
2609.34771	0.16032
2607.41914	0.16020
2605.49058	0.16005
2603.56201	0.15991
2601.63345	0.15976
2599.70488	0.15961
2597.77632	0.15952
2595.84775	0.15957
2593.91919	0.15968
2591.99062	0.15960
2590.06206	0.15940
2588.13350	0.15939
2586.20493	0.15963
2584.27637	0.15996
2582.34780	0.16026
2580.41924	0.16048
2578.49067	0.16057
2576.56211	0.16070
2574.63354	0.16100
2572.70498	0.16138
2570.77642	0.16172
2568.84785	0.16200
2566.91929	0.16233
2564.99072	0.16275
2563.06216	0.16317
2561.13359	0.16351
2559.20503	0.16385
2557.27646	0.16429
2555.34790	0.16470
2553.41934	0.16497
2551.49077	0.16532
2549.56221	0.16579
2547.63364	0.16631
2545.70508	0.16690
2543.77651	0.16759
2541.84795	0.16827
2539.91938	0.16884
2537.99082	0.16943
2536.06226	0.17010
2534.13369	0.17080
2532.20513	0.17141
2530.27656	0.17192
2528.34800	0.17249
2526.41943	0.17318
2524.49087	0.17386
2522.56230	0.17447
2520.63374	0.17516
2518.70518	0.17597
2516.77661	0.17667
2514.84805	0.17729
2512.91948	0.17799
2510.99092	0.17866
2509.06235	0.17917
2507.13379	0.17967
2505.20522	0.18035
2503.27666	0.18121
2501.34810	0.18217
2499.41953	0.18302
2497.49097	0.18371
2495.56240	0.18450
2493.63384	0.18540
2491.70527	0.18622
2489.77671	0.18699
2487.84814	0.18786
2485.91958	0.18867
2483.99102	0.18930
2482.06245	0.19002
2480.13389	0.19090
2478.20532	0.19180
2476.27676	0.19264
2474.34819	0.19345
2472.41963	0.19428
2470.49106	0.19517
2468.56250	0.19615
2466.63394	0.19716
2464.70537	0.19810
2462.77681	0.19886
2460.84824	0.19960
2458.91968	0.20047
2456.99111	0.20143
2455.06255	0.20233
2453.13398	0.20320
2451.20542	0.20410
2449.27686	0.20496
2447.34829	0.20575
2445.41973	0.20657
2443.49116	0.20752
2441.56260	0.20863
2439.63403	0.20980
2437.70547	0.21091
2435.77690	0.21189
2433.84834	0.21270
2431.91978	0.21358
2429.99121	0.21477
2428.06265	0.21601
2426.13408	0.21705
2424.20552	0.21794
2422.27695	0.21890
2420.34839	0.22000
2418.41982	0.22120
2416.49126	0.22241
2414.56270	0.22345
2412.63413	0.22425
2410.70557	0.22504
2408.77700	0.22619
2406.84844	0.22762
2404.91987	0.22899
2402.99131	0.23017
2401.06274	0.23126
2399.13418	0.23235
2397.20562	0.23341
2395.27705	0.23445
2393.34849	0.23564
2391.41992	0.23702
2389.49136	0.23842
2387.56279	0.23981
2385.63423	0.24126
2383.70566	0.24285
2381.77710	0.24461
2379.84854	0.24632
2377.91997	0.24793
2375.99141	0.24979
2374.06284	0.25216
2372.13428	0.25471
2370.20571	0.25750
2368.27715	0.26081
2366.34858	0.26391
2364.42002	0.26676
2362.49146	0.26963
2360.56289	0.27189
2358.63433	0.27334
2356.70576	0.27389
2354.77720	0.27345
2352.84863	0.27301
2350.92007	0.27328
2348.99150	0.27405
2347.06294	0.27525
2345.13437	0.27722
2343.20581	0.27990
2341.27725	0.28228
2339.34868	0.28337
2337.42012	0.28394
2335.49155	0.28518
2333.56299	0.28628
2331.63442	0.28747
2329.70586	0.28962
2327.77729	0.29194
2325.84873	0.29357
2323.92017	0.29423
2321.99160	0.29451
2320.06304	0.29563
2318.13447	0.29754
2316.20591	0.29928
2314.27734	0.30060
2312.34878	0.30182
2310.42021	0.30324
2308.49165	0.30482
2306.56309	0.30642
2304.63452	0.30787
2302.70596	0.30913
2300.77739	0.31043
2298.84883	0.31195
2296.92026	0.31362
2294.99170	0.31542
2293.06313	0.31727
2291.13457	0.31910
2289.20601	0.32093
2287.27744	0.32269
2285.34888	0.32432
2283.42031	0.32601
2281.49175	0.32788
2279.56318	0.32979
2277.63462	0.33173
2275.70605	0.33396
2273.77749	0.33638
2271.84893	0.33864
2269.92036	0.34059
2267.99180	0.34240
2266.06323	0.34432
2264.13467	0.34647
2262.20610	0.34867
2260.27754	0.35076
2258.34897	0.35280
2256.42041	0.35490
2254.49185	0.35708
2252.56328	0.35930
2250.63472	0.36141
2248.70615	0.36344
2246.77759	0.36557
2244.84902	0.36778
2242.92046	0.36993
2240.99189	0.37206
2239.06333	0.37422
2237.13477	0.37638
2235.20620	0.37859
2233.27764	0.38090
2231.34907	0.38313
2229.42051	0.38526
2227.49194	0.38752
2225.56338	0.38976
2223.63481	0.39195
2221.70625	0.39422
2219.77769	0.39649
2217.84912	0.39864
2215.92056	0.40076
2213.99199	0.40292
2212.06343	0.40505
2210.13486	0.40710
2208.20630	0.40912
2206.27773	0.41116
2204.34917	0.41322
2202.42061	0.41522
2200.49204	0.41714
2198.56348	0.41915
2196.63491	0.42123
2194.70635	0.42325
2192.77778	0.42520
2190.84922	0.42708
2188.92065	0.42887
2186.99209	0.43063
2185.06353	0.43241
2183.13496	0.43412
2181.20640	0.43574
2179.27783	0.43731
2177.34927	0.43887
2175.42070	0.44050
2173.49214	0.44205
2171.56357	0.44339
2169.63501	0.44472
2167.70645	0.44614
2165.77788	0.44739
2163.84932	0.44846
2161.92075	0.44957
2159.99219	0.45077
2158.06362	0.45185
2156.13506	0.45275
2154.20649	0.45365
2152.27793	0.45453
2150.34937	0.45513
2148.42080	0.45552
2146.49224	0.45596
2144.56367	0.45643
2142.63511	0.45682
2140.70654	0.45717
2138.77798	0.45743
2136.84941	0.45746
2134.92085	0.45737
2132.99229	0.45734
2131.06372	0.45737
2129.13516	0.45741
2127.20659	0.45734
2125.27803	0.45707
2123.34946	0.45657
2121.42090	0.45589
2119.49233	0.45505
2117.56377	0.45420
2115.63521	0.45349
2113.70664	0.45287
2111.77808	0.45210
2109.84951	0.45112
2107.92095	0.45005
2105.99238	0.44891
2104.06382	0.44753
2102.13525	0.44595
2100.20669	0.44452
2098.27812	0.44329
2096.34956	0.44206
2094.42100	0.44055
2092.49243	0.43871
2090.56387	0.43683
2088.63530	0.43514
2086.70674	0.43349
2084.77817	0.43177
2082.84961	0.42998
2080.92104	0.42798
2078.99248	0.42577
2077.06392	0.42356
2075.13535	0.42145
2073.20679	0.41934
2071.27822	0.41712
2069.34966	0.41479
2067.42109	0.41238
2065.49253	0.41003
2063.56396	0.40776
2061.63540	0.40541
2059.70684	0.40281
2057.77827	0.40009
2055.84971	0.39747
2053.92114	0.39497
2051.99258	0.39250
2050.06401	0.38996
2048.13545	0.38730
2046.20688	0.38462
2044.27832	0.38201
2042.34976	0.37926
2040.42119	0.37632
2038.49263	0.37343
2036.56406	0.37070
2034.63550	0.36804
2032.70693	0.36538
2030.77837	0.36268
2028.84980	0.35987
2026.92124	0.35701
2024.99268	0.35418
2023.06411	0.35140
2021.13555	0.34865
2019.20698	0.34596
2017.27842	0.34329
2015.34985	0.34056
2013.42129	0.33785
2011.49272	0.33511
2009.56416	0.33231
2007.63560	0.32949
2005.70703	0.32679
2003.77847	0.32418
2001.84990	0.32160
1999.92134	0.31901
1997.99277	0.31644
1996.06421	0.31388
1994.13564	0.31131
1992.20708	0.30878
1990.27852	0.30634
1988.34995	0.30395
1986.42139	0.30160
1984.49282	0.29928
1982.56426	0.29695
1980.63569	0.29461
1978.70713	0.29239
1976.77856	0.29020
1974.85000	0.28793
1972.92144	0.28563
1970.99287	0.28347
1969.06431	0.28151
1967.13574	0.27963
1965.20718	0.27770
1963.27861	0.27570
1961.35005	0.27371
1959.42148	0.27177
1957.49292	0.26995
1955.56436	0.26826
1953.63579	0.26654
1951.70723	0.26474
1949.77866	0.26305
1947.85010	0.26155
1945.92153	0.26013
1943.99297	0.25862
1942.06440	0.25703
1940.13584	0.25555
1938.20728	0.25423
1936.27871	0.25293
1934.35015	0.25161
1932.42158	0.25043
1930.49302	0.24935
1928.56445	0.24822
1926.63589	0.24702
1924.70732	0.24596
1922.77876	0.24507
1920.85020	0.24416
1918.92163	0.24321
1916.99307	0.24228
1915.06450	0.24144
1913.13594	0.24062
1911.20737	0.23984
1909.27881	0.23914
1907.35024	0.23855
1905.42168	0.23795
1903.49312	0.23728
1901.56455	0.23670
1899.63599	0.23633
1897.70742	0.23603
1895.77886	0.23565
1893.85029	0.23531
1891.92173	0.23499
1889.99316	0.23470
1888.06460	0.23445
1886.13604	0.23426
1884.20747	0.23409
1882.27891	0.23393
1880.35034	0.23380
1878.42178	0.23369
1876.49321	0.23364
1874.56465	0.23359
1872.63608	0.23363
1870.70752	0.23384
1868.77896	0.23427
1866.85039	0.23458
1864.92183	0.23452
1862.99326	0.23452
1861.06470	0.23474
1859.13613	0.23516
1857.20757	0.23560
1855.27900	0.23605
1853.35044	0.23645
1851.42187	0.23694
1849.49331	0.23749
1847.56475	0.23802
1845.63618	0.23862
1843.70762	0.23953
1841.77905	0.24052
1839.85049	0.24122
1837.92192	0.24206
1835.99336	0.24309
1834.06479	0.24410
1832.13623	0.24493
1830.20767	0.24600
1828.27910	0.24742
1826.35054	0.24870
1824.42197	0.25007
1822.49341	0.25135
1820.56484	0.25256
1818.63628	0.25391
1816.70771	0.25556
1814.77915	0.25719
1812.85059	0.25881
1810.92202	0.26078
1808.99346	0.26297
1807.06489	0.26505
1805.13633	0.26695
1803.20776	0.26902
1801.27920	0.27134
1799.35063	0.27404
1797.42207	0.27656
1795.49351	0.27894
1793.56494	0.28166
1791.63638	0.28521
1789.70781	0.28884
1787.77925	0.29163
1785.85068	0.29470
1783.92212	0.29823
1781.99355	0.30206
1780.06499	0.30620
1778.13643	0.31057
1776.20786	0.31470
1774.27930	0.31886
1772.35073	0.32423
1770.42217	0.33040
1768.49360	0.33595
1766.56504	0.34125
1764.63647	0.34655
1762.70791	0.35232
1760.77935	0.35978
1758.85078	0.36684
1756.92222	0.37378
1754.99365	0.38136
1753.06509	0.38820
1751.13652	0.39615
1749.20796	0.40640
1747.27939	0.41690
1745.35083	0.42630
1743.42227	0.43625
1741.49370	0.44700
1739.56514	0.45942
1737.63657	0.47191
1735.70801	0.48286
1733.77944	0.49898
1731.85088	0.51812
1729.92231	0.53342
1727.99375	0.54926
1726.06519	0.56630
1724.13662	0.58456
1722.20806	0.60417
1720.27949	0.62218
1718.35093	0.64306
1716.42236	0.67456
1714.49380	0.70529
1712.56523	0.73011
1710.63667	0.75398
1708.70811	0.77980
1706.77954	0.80920
1704.85098	0.84434
1702.92241	0.87570
1700.99385	0.90660
1699.06528	0.95323
1697.13672	0.99738
1695.20815	1.04370
1693.27959	1.08855
1691.35103	1.12436
1689.42246	1.16590
1687.49390	1.21026
1685.56533	1.25299
1683.63677	1.31925
1681.70820	1.38893
1679.77964	1.43369
1677.85107	1.47597
1675.92251	1.52414
1673.99395	1.58417
1672.06538	1.63886
1670.13682	1.69343
1668.20825	1.76473
1666.27969	1.82357
1664.35112	1.87445
1662.42256	1.93964
1660.49399	2.01390
1658.56543	2.07229
1656.63687	2.12086
1654.70830	2.16674
1652.77974	2.23015
1650.85117	2.28186
1648.92261	2.29905
1646.99404	2.32242
1645.06548	2.34491
1643.13691	2.35782
1641.20835	2.36368
1639.27979	2.36854
1637.35122	2.36896
1635.42266	2.36103
1633.49409	2.34719
1631.56553	2.33086
1629.63696	2.31219
1627.70840	2.28190
1625.77983	2.24639
1623.85127	2.20191
1621.92271	2.14658
1619.99414	2.09690
1618.06558	2.04897
1616.13701	1.98171
1614.20845	1.91413
1612.27988	1.86255
1610.35132	1.80830
1608.42275	1.74978
1606.49419	1.69292
1604.56562	1.64106
1602.63706	1.59131
1600.70850	1.54281
1598.77993	1.49826
1596.85137	1.45691
1594.92280	1.41714
1592.99424	1.37919
1591.06567	1.34496
1589.13711	1.31341
1587.20854	1.28474
1585.27998	1.25872
1583.35142	1.23468
1581.42285	1.21333
1579.49429	1.19579
1577.56572	1.18049
1575.63716	1.16227
1573.70859	1.14690
1571.78003	1.13779
1569.85146	1.12959
1567.92290	1.12140
1565.99434	1.11635
1564.06577	1.11409
1562.13721	1.11316
1560.20864	1.11471
1558.28008	1.12380
1556.35151	1.13291
1554.42295	1.13738
1552.49438	1.14209
1550.56582	1.14509
1548.63726	1.14456
1546.70869	1.14009
1544.78013	1.13124
1542.85156	1.11796
1540.92300	1.09807
1538.99443	1.06709
1537.06587	1.04384
1535.13730	1.02749
1533.20874	1.00505
1531.28018	0.98052
1529.35161	0.96262
1527.42305	0.94600
1525.49448	0.92907
1523.56592	0.91491
1521.63735	0.90172
1519.70879	0.88887
1517.78022	0.87826
1515.85166	0.86532
1513.92310	0.85104
1511.99453	0.83843
1510.06597	0.82690
1508.13740	0.81501
1506.20884	0.79685
1504.28027	0.78257
1502.35171	0.77501
1500.42314	0.76798
1498.49458	0.76024
1496.56602	0.75152
1494.63745	0.74315
1492.70889	0.73652
1490.78032	0.73024
1488.85176	0.72305
1486.92319	0.71663
1484.99463	0.71174
1483.06606	0.70806
1481.13750	0.70525
1479.20894	0.70337
1477.28037	0.70259
1475.35181	0.70245
1473.42324	0.70268
1471.49468	0.70297
1469.56611	0.70231
1467.63755	0.70053
1465.70898	0.69872
1463.78042	0.69796
1461.85186	0.69791
1459.92329	0.69815
1457.99473	0.69923
1456.06616	0.70008
1454.13760	0.69832
1452.20903	0.69575
1450.28047	0.69331
1448.35190	0.69100
1446.42334	0.68853
1444.49478	0.68600
1442.56621	0.68338
1440.63765	0.68042
1438.70908	0.67715
1436.78052	0.67318
1434.85195	0.66897
1432.92339	0.66570
1430.99482	0.66340
1429.06626	0.66235
1427.13770	0.66243
1425.20913	0.66299
1423.28057	0.66395
1421.35200	0.66501
1419.42344	0.66603
1417.49487	0.66662
1415.56631	0.66616
1413.63774	0.66567
1411.70918	0.66600
1409.78062	0.66723
1407.85205	0.66893
1405.92349	0.67116
1403.99492	0.67357
1402.06636	0.67474
1400.13779	0.67441
1398.20923	0.67280
1396.28066	0.66999
1394.35210	0.66585
1392.42354	0.66097
1390.49497	0.65632
1388.56641	0.65150
1386.63784	0.64578
1384.70928	0.63983
1382.78071	0.63446
1380.85215	0.62950
1378.92358	0.62506
1376.99502	0.62153
1375.06646	0.61903
1373.13789	0.61732
1371.20933	0.61628
1369.28076	0.61567
1367.35220	0.61475
1365.42363	0.61309
1363.49507	0.61118
1361.56650	0.60946
1359.63794	0.60793
1357.70937	0.60647
1355.78081	0.60501
1353.85225	0.60366
1351.92368	0.60252
1349.99512	0.60164
1348.06655	0.60089
1346.13799	0.60016
1344.20942	0.59946
1342.28086	0.59872
1340.35229	0.59805
1338.42373	0.59757
1336.49517	0.59716
1334.56660	0.59677
1332.63804	0.59657
1330.70947	0.59680
1328.78091	0.59749
1326.85234	0.59840
1324.92378	0.59931
1322.99521	0.60024
1321.06665	0.60118
1319.13809	0.60212
1317.20952	0.60282
1315.28096	0.60314
1313.35239	0.60312
1311.42383	0.60272
1309.49526	0.60206
1307.56670	0.60150
1305.63813	0.60106
1303.70957	0.60054
1301.78101	0.59993
1299.85244	0.59924
1297.92388	0.59831
1295.99531	0.59714
1294.06675	0.59587
1292.13818	0.59468
1290.20962	0.59356
1288.28105	0.59223
1286.35249	0.59066
1284.42393	0.58910
1282.49536	0.58742
1280.56680	0.58556
1278.63823	0.58383
1276.70967	0.58239
1274.78110	0.58115
1272.85254	0.58004
1270.92397	0.57926
1268.99541	0.57871
1267.06685	0.57800
1265.13828	0.57713
1263.20972	0.57623
1261.28115	0.57523
1259.35259	0.57421
1257.42402	0.57331
1255.49546	0.57260
1253.56689	0.57233
1251.63833	0.57258
1249.70977	0.57295
1247.78120	0.57301
1245.85264	0.57255
1243.92407	0.57161
1241.99551	0.57048
1240.06694	0.56912
1238.13838	0.56727
1236.20981	0.56488
1234.28125	0.56216
1232.35269	0.55946
1230.42412	0.55695
1228.49556	0.55446
1226.56699	0.55193
1224.63843	0.54961
1222.70986	0.54765
1220.78130	0.54597
1218.85273	0.54441
1216.92417	0.54285
1214.99561	0.54143
1213.06704	0.54035
1211.13848	0.53951
1209.20991	0.53872
1207.28135	0.53804
1205.35278	0.53739
1203.42422	0.53644
1201.49565	0.53512
1199.56709	0.53393
1197.63853	0.53313
1195.70996	0.53246
1193.78140	0.53171
1191.85283	0.53096
1189.92427	0.53038
1187.99570	0.53001
1186.06714	0.52979
1184.13857	0.52980
1182.21001	0.53029
1180.28145	0.53119
1178.35288	0.53236
1176.42432	0.53388
1174.49575	0.53544
1172.56719	0.53637
1170.63862	0.53659
1168.71006	0.53658
1166.78149	0.53658
1164.85293	0.53654
1162.92437	0.53643
1160.99580	0.53627
1159.06724	0.53603
1157.13867	0.53569
1155.21011	0.53515
1153.28154	0.53414
1151.35298	0.53244
1149.42441	0.53010
1147.49585	0.52736
1145.56729	0.52443
1143.63872	0.52160
1141.71016	0.51930
1139.78159	0.51760
1137.85303	0.51626
1135.92446	0.51539
1133.99590	0.51519
1132.06733	0.51543
1130.13877	0.51563
1128.21021	0.51544
1126.28164	0.51504
1124.35308	0.51481
1122.42451	0.51464
1120.49595	0.51443
1118.56738	0.51450
1116.63882	0.51479
1114.71025	0.51515
1112.78169	0.51568
1110.85312	0.51654
1108.92456	0.51784
1106.99600	0.51917
1105.06743	0.52013
1103.13887	0.52092
1101.21030	0.52186
1099.28174	0.52308
1097.35317	0.52479
1095.42461	0.52732
1093.49604	0.53075
1091.56748	0.53525
1089.63892	0.54115
1087.71035	0.54846
1085.78179	0.55683
1083.85322	0.56540
1081.92466	0.57278
1079.99609	0.57795
1078.06753	0.58043
1076.13896	0.58002
1074.21040	0.57694
1072.28184	0.57172
1070.35327	0.56495
1068.42471	0.55751
1066.49614	0.55019
1064.56758	0.54355
1062.63901	0.53792
1060.71045	0.53323
1058.78188	0.52910
1056.85332	0.52519
1054.92476	0.52165
1052.99619	0.51861
1051.06763	0.51598
1049.13906	0.51388
1047.21050	0.51240
1045.28193	0.51151
1043.35337	0.51125
1041.42480	0.51135
1039.49624	0.51121
1037.56768	0.51073
1035.63911	0.51039
1033.71055	0.51006
1031.78198	0.50910
1029.85342	0.50751
1027.92485	0.50581
1025.99629	0.50421
1024.06772	0.50279
1022.13916	0.50196
1020.21060	0.50192
1018.28203	0.50197
1016.35347	0.50150
1014.42490	0.50096
1012.49634	0.50075
1010.56777	0.50055
1008.63921	0.50031
1006.71064	0.50046
1004.78208	0.50125
1002.85352	0.50295
1000.92495	0.50572
998.99639	0.50928
997.06782	0.51346
995.13926	0.51810
993.21069	0.52249
991.28213	0.52572
989.35356	0.52753
987.42500	0.52834
985.49644	0.52851
983.56787	0.52840
981.63931	0.52864
979.71074	0.52936
977.78218	0.53042
975.85361	0.53201
973.92505	0.53426
971.99648	0.53711
970.06792	0.54043
968.13936	0.54412
966.21079	0.54829
964.28223	0.55296
962.35366	0.55792
960.42510	0.56297
958.49653	0.56819
956.56797	0.57379
954.63940	0.57965
952.71084	0.58576
950.78228	0.59238
948.85371	0.59912
946.92515	0.60537
944.99658	0.61126
943.06802	0.61762
941.13945	0.62429
939.21089	0.63027
937.28232	0.63573
935.35376	0.64144
933.42520	0.64745
931.49663	0.65331
929.56807	0.65925
927.63950	0.66589
925.71094	0.67234
923.78237	0.67811
921.85381	0.68440
919.92524	0.69155
917.99668	0.69888
916.06812	0.70652
914.13955	0.71460
912.21099	0.72244
910.28242	0.73012
908.35386	0.73813
906.42529	0.74628
904.49673	0.75490
902.56816	0.76424
900.63960	0.77342
898.71104	0.78251
896.78247	0.79276
894.85391	0.80403
892.92534	0.81548
890.99678	0.82750
889.06821	0.83903
887.13965	0.84833
885.21108	0.85648
883.28252	0.86546
881.35396	0.87678
879.42539	0.89049
877.49683	0.90486
875.56826	0.91857
873.63970	0.93078
871.71113	0.94155
869.78257	0.95192
867.85400	0.96200
865.92544	0.97264
863.99687	0.98634
862.06831	1.00185
860.13975	1.01448
858.21118	1.02401
856.28262	1.03362
854.35405	1.04520
852.42549	1.05801
850.49692	1.06959
848.56836	1.07996
846.63979	1.09186
844.71123	1.10662
842.78267	1.12080
840.85410	1.13244
838.92554	1.14333
836.99697	1.15297
835.06841	1.16261
833.13984	1.17492
831.21128	1.18755
829.28271	1.20006
827.35415	1.21423
825.42559	1.22555
823.49702	1.23536
821.56846	1.25197
819.63989	1.27464
817.71133	1.29792
815.78276	1.31351
813.85420	1.31981
811.92563	1.33522
809.99707	1.35769
808.06851	1.36307
806.13994	1.36057
804.21138	1.36772
802.28281	1.38327
800.35425	1.40466
798.42568	1.42270
796.49712	1.42138
794.56855	1.42564
792.63999	1.47333
790.71143	1.53181
788.78286	1.56112
786.85430	1.61042
784.92573	1.75228
782.99717	2.10808
781.06860	4.68641
779.14004	2.58024
777.21147	2.08840
775.28291	1.84592
773.35435	1.69538
771.42578	1.79043
769.49722	2.01710
767.56865	1.92206
765.64009	2.02874
763.71152	4.58227
761.78296	4.57070
759.85439	1.58003
757.92583	1.23911
755.99727	1.16855
754.06870	1.25202
752.14014	1.49714
750.21157	2.26653
748.28301	2.68683
746.35444	1.58008
744.42588	1.31035
742.49731	1.11073
740.56875	0.96410
738.64019	0.91153
736.71162	0.95241
734.78306	1.03635
732.85449	0.96631
730.92593	0.78091
728.99736	0.65467
727.06880	0.58361
725.14023	0.52043
723.21167	0.44659
721.28311	0.33759
719.35454	0.24252
717.42598	0.21449
715.49741	0.18905
713.56885	0.18560
711.64028	0.26821
709.71172	0.24998
707.78315	0.13485
705.85459	-0.02132
703.92603	-0.04151
701.99746	0.01726
700.06890	0.05452
698.14033	0.12594
696.21177	0.18402
694.28320	0.13823
692.35464	0.12545
690.42607	0.19494
688.49751	0.22152
686.56895	0.19892
684.64038	0.23341
682.71182	0.39734
680.78325	0.96934
678.85469	1.19049
676.92612	0.69569
674.99756	0.52031
673.06899	0.35404
671.14043	0.24177
669.21187	0.16495
667.28330	0.14446
665.35474	0.24704
663.42617	0.44038
661.49761	0.44131
659.56904	0.32754
657.64048	0.32566
655.71191	0.50938
653.78335	0.93346
651.85479	0.89668
649.92622	0.48305
647.99766	0.27809
646.06909	0.20895
644.14053	0.17838
642.21196	0.13105
640.28340	0.09608
638.35483	0.11947
636.42627	0.17960
634.49771	0.23607
632.56914	0.21942
630.64058	0.13259
628.71201	0.06773
626.78345	0.09047
624.85488	0.11232
622.92632	0.10800
620.99775	0.20437
619.06919	0.30432
617.14062	0.24162
615.21206	0.15318
613.28350	0.10530
611.35493	0.14788
609.42637	0.22575
607.49780	0.29558
605.56924	0.26728
603.64067	0.13089
601.71211	0.09925
599.78354	0.11937
597.85498	0.14685
595.92642	0.17475
593.99785	0.14489
592.06929	0.10511
590.14072	0.15884
588.21216	0.19794
586.28359	0.17292
584.35503	0.17136
582.42646	0.19995
580.49790	0.22902
578.56934	0.27572
576.64077	0.28780
574.71221	0.18465
572.78364	0.06405
570.85508	-0.00050
568.92651	0.00342
566.99795	0.03277
565.06938	0.04845
563.14082	0.11439
561.21226	0.27114
559.28369	0.47382
557.35513	0.59849
555.42656	0.52044
553.49800	0.34964
551.56943	0.29329
549.64087	0.45610
547.71230	0.96837
545.78374	0.42421
543.85518	0.17799
541.92661	0.12551
539.99805	0.20201
538.06948	0.40666
536.14092	0.55083
534.21235	0.40283
532.28379	0.22484
530.35522	0.08721
528.42666	0.05658
526.49810	0.16168
524.56953	0.24118
522.64097	0.17751
520.71240	0.10927
518.78384	0.06334
516.85527	0.08423
514.92671	0.28054
512.99814	0.58129
511.06958	0.35289
509.14102	0.24055
507.21245	0.22349
505.28389	0.25184
503.35532	0.24323
501.42676	0.16064
499.49819	0.09145
