3997.91411	0.06062
3995.98555	0.06091
3994.05698	0.06133
3992.12842	0.06170
3990.19985	0.06199
3988.27129	0.06211
3986.34272	0.06213
3984.41416	0.06263
3982.48560	0.06386
3980.55703	0.06503
3978.62847	0.06534
3976.69990	0.06532
3974.77134	0.06545
3972.84277	0.06518
3970.91421	0.06448
3968.98564	0.06408
3967.05708	0.06434
3965.12852	0.06505
3963.19995	0.06559
3961.27139	0.06561
3959.34282	0.06544
3957.41426	0.06527
3955.48569	0.06524
3953.55713	0.06539
3951.62856	0.06544
3949.70000	0.06564
3947.77144	0.06601
3945.84287	0.06590
3943.91431	0.06553
3941.98574	0.06551
3940.05718	0.06562
3938.12861	0.06555
3936.20005	0.06541
3934.27148	0.06533
3932.34292	0.06522
3930.41436	0.06508
3928.48579	0.06510
3926.55723	0.06513
3924.62866	0.06486
3922.70010	0.06465
3920.77153	0.06487
3918.84297	0.06520
3916.91440	0.06533
3914.98584	0.06508
3913.05728	0.06453
3911.12871	0.06412
3909.20015	0.06404
3907.27158	0.06431
3905.34302	0.06489
3903.41445	0.06552
3901.48589	0.06583
3899.55732	0.06586
3897.62876	0.06549
3895.70020	0.06478
3893.77163	0.06437
3891.84307	0.06473
3889.91450	0.06528
3887.98594	0.06506
3886.05737	0.06473
3884.12881	0.06490
3882.20024	0.06524
3880.27168	0.06577
3878.34312	0.06625
3876.41455	0.06610
3874.48599	0.06596
3872.55742	0.06632
3870.62886	0.06694
3868.70029	0.06748
3866.77173	0.06752
3864.84316	0.06756
3862.91460	0.06802
3860.98604	0.06837
3859.05747	0.06857
3857.12891	0.06877
3855.20034	0.06906
3853.27178	0.07016
3851.34321	0.07198
3849.41465	0.07206
3847.48608	0.07133
3845.55752	0.07099
3843.62896	0.07141
3841.70039	0.07257
3839.77183	0.07412
3837.84326	0.07544
3835.91470	0.07587
3833.98613	0.07593
3832.05757	0.07636
3830.12900	0.07709
3828.20044	0.07786
3826.27187	0.07860
3824.34331	0.07918
3822.41475	0.07968
3820.48618	0.08068
3818.55762	0.08177
3816.62905	0.08245
3814.70049	0.08321
3812.77192	0.08393
3810.84336	0.08442
3808.91479	0.08493
3806.98623	0.08596
3805.05767	0.08753
3803.12910	0.08890
3801.20054	0.09048
3799.27197	0.09215
3797.34341	0.09325
3795.41484	0.09455
3793.48628	0.09568
3791.55771	0.09617
3789.62915	0.09671
3787.70059	0.09782
3785.77202	0.09940
3783.84346	0.10069
3781.91489	0.10152
3779.98633	0.10292
3778.05776	0.10527
3776.12920	0.10713
3774.20063	0.10828
3772.27207	0.10949
3770.34351	0.11099
3768.41494	0.11290
3766.48638	0.11507
3764.55781	0.11721
3762.62925	0.11894
3760.70068	0.12081
3758.77212	0.12340
3756.84355	0.12606
3754.91499	0.12823
3752.98643	0.13024
3751.05786	0.13336
3749.12930	0.13797
3747.20073	0.14103
3745.27217	0.14298
3743.34360	0.14622
3741.41504	0.14983
3739.48647	0.15253
3737.55791	0.15521
3735.62935	0.15923
3733.70078	0.16486
3731.77222	0.16998
3729.84365	0.17433
3727.91509	0.17838
3725.98652	0.18303
3724.05796	0.18923
3722.12939	0.19660
3720.20083	0.20421
3718.27227	0.21149
3716.34370	0.21875
3714.41514	0.22601
3712.48657	0.23440
3710.55801	0.24649
3708.62944	0.26056
3706.70088	0.27268
3704.77231	0.28381
3702.84375	0.29639
3700.91519	0.31292
3698.98662	0.33155
3697.05806	0.34926
3695.12949	0.36763
3693.20093	0.38688
3691.27236	0.40768
3689.34380	0.43504
3687.41523	0.46942
3685.48667	0.49956
3683.55811	0.52535
3681.62954	0.55293
3679.70098	0.58369
3677.77241	0.61594
3675.84385	0.65428
3673.91528	0.70631
3671.98672	0.74884
3670.05815	0.78632
3668.12959	0.83876
3666.20103	0.88739
3664.27246	0.92787
3662.34390	0.97113
3660.41533	1.01807
3658.48677	1.06437
3656.55820	1.11290
3654.62964	1.16638
3652.70107	1.21124
3650.77251	1.25003
3648.84395	1.30394
3646.91538	1.37124
3644.98682	1.42134
3643.05825	1.46044
3641.12969	1.50050
3639.20112	1.54409
3637.27256	1.58776
3635.34399	1.63040
3633.41543	1.67315
3631.48687	1.71251
3629.55830	1.75097
3627.62974	1.80173
3625.70117	1.85116
3623.77261	1.88570
3621.84404	1.91912
3619.91548	1.95706
3617.98691	2.00222
3616.05835	2.04649
3614.12979	2.08418
3612.20122	2.12274
3610.27266	2.16134
3608.34409	2.20145
3606.41553	2.24435
3604.48696	2.28322
3602.55840	2.31755
3600.62983	2.35489
3598.70127	2.39608
3596.77271	2.43624
3594.84414	2.47576
3592.91558	2.51595
3590.98701	2.55382
3589.05845	2.58960
3587.12988	2.63353
3585.20132	2.68251
3583.27275	2.72366
3581.34419	2.76130
3579.41562	2.80177
3577.48706	2.84410
3575.55850	2.88475
3573.62993	2.92680
3571.70137	2.97169
3569.77280	3.01554
3567.84424	3.05823
3565.91567	3.10811
3563.98711	3.15857
3562.05854	3.20073
3560.12998	3.24166
3558.20142	3.28511
3556.27285	3.33044
3554.34429	3.37537
3552.41572	3.42193
3550.48716	3.46852
3548.55859	3.51091
3546.63003	3.55249
3544.70146	3.60043
3542.77290	3.65247
3540.84434	3.70061
3538.91577	3.74676
3536.98721	3.79427
3535.05864	3.84304
3533.13008	3.88978
3531.20151	3.93306
3529.27295	3.97559
3527.34438	4.02149
3525.41582	4.07131
3523.48726	4.12469
3521.55869	4.17769
3519.63013	4.22535
3517.70156	4.27456
3515.77300	4.32430
3513.84443	4.36804
3511.91587	4.41036
3509.98730	4.45660
3508.05874	4.50601
3506.13018	4.55555
3504.20161	4.60492
3502.27305	4.65382
3500.34448	4.70172
3498.41592	4.75052
3496.48735	4.79947
3494.55879	4.84792
3492.63022	4.89757
3490.70166	4.94565
3488.77310	4.99399
3486.84453	5.04948
3484.91597	5.10612
3482.98740	5.15579
3481.05884	5.20052
3479.13027	5.24408
3477.20171	5.29387
3475.27314	5.34911
3473.34458	5.39662
3471.41602	5.43249
3469.48745	5.46867
3467.55889	5.51714
3465.63032	5.57241
3463.70176	5.62031
3461.77319	5.66433
3459.84463	5.72047
3457.91606	5.78398
3455.98750	5.84063
3454.05894	5.89112
3452.13037	5.93949
3450.20181	5.98114
3448.27324	6.02216
3446.34468	6.07680
3444.41611	6.13136
3442.48755	6.17510
3440.55898	6.21918
3438.63042	6.27451
3436.70186	6.33118
3434.77329	6.37904
3432.84473	6.41914
3430.91616	6.44107
3428.98760	6.46478
3427.05903	6.52975
3425.13047	6.62802
3423.20190	6.71021
3421.27334	6.76213
3419.34478	6.78686
3417.41621	6.81685
3415.48765	6.89352
3413.55908	6.96384
3411.63052	6.97909
3409.70195	6.98702
3407.77339	7.03902
3405.84482	7.12264
3403.91626	7.21368
3401.98770	7.26013
3400.05913	7.24569
3398.13057	7.24786
3396.20200	7.30347
3394.27344	7.40269
3392.34487	7.49871
3390.41631	7.52154
3388.48774	7.48715
3386.55918	7.49202
3384.63062	7.52552
3382.70205	7.53782
3380.77349	7.58242
3378.84492	7.69814
3376.91636	7.79101
3374.98779	7.75990
3373.05923	7.71065
3371.13066	7.71618
3369.20210	7.71188
3367.27354	7.68579
3365.34497	7.75438
3363.41641	7.92957
3361.48784	8.05956
3359.55928	8.05659
3357.63071	7.99193
3355.70215	7.99884
3353.77358	8.03180
3351.84502	8.03852
3349.91646	8.06226
3347.98789	8.07952
3346.05933	8.06914
3344.13076	8.06757
3342.20220	8.08321
3340.27363	8.07283
3338.34507	8.06704
3336.41650	8.07716
3334.48794	8.06577
3332.55937	8.03440
3330.63081	8.06482
3328.70225	8.15672
3326.77368	8.17886
3324.84512	8.13690
3322.91655	8.12229
3320.98799	8.15382
3319.05942	8.22547
3317.13086	8.31179
3315.20229	8.28298
3313.27373	8.15789
3311.34517	8.08915
3309.41660	8.11640
3307.48804	8.20002
3305.55947	8.21196
3303.63091	8.09304
3301.70234	7.99596
3299.77378	8.05055
3297.84521	8.18437
3295.91665	8.32547
3293.98809	8.43095
3292.05952	8.38741
3290.13096	8.26056
3288.20239	8.16546
3286.27383	8.09759
3284.34526	8.01858
3282.41670	7.98827
3280.48813	8.09107
3278.55957	8.27825
3276.63101	8.37564
3274.70244	8.34694
3272.77388	8.28289
3270.84531	8.21103
3268.91675	8.17886
3266.98818	8.19977
3265.05962	8.24864
3263.13105	8.28715
3261.20249	8.30688
3259.27393	8.31472
3257.34536	8.27187
3255.41680	8.22281
3253.48823	8.23167
3251.55967	8.29331
3249.63110	8.33567
3247.70254	8.27605
3245.77397	8.22875
3243.84541	8.29318
3241.91685	8.33201
3239.98828	8.24440
3238.05972	8.13610
3236.13115	8.17098
3234.20259	8.35685
3232.27402	8.47845
3230.34546	8.43116
3228.41689	8.33602
3226.48833	8.28630
3224.55977	8.25921
3222.63120	8.17869
3220.70264	8.06938
3218.77407	7.99365
3216.84551	7.96131
3214.91694	7.96384
3212.98838	7.95122
3211.05981	7.90138
3209.13125	7.87117
3207.20269	7.90987
3205.27412	8.00469
3203.34556	8.04836
3201.41699	7.94335
3199.48843	7.76284
3197.55986	7.66271
3195.63130	7.68138
3193.70273	7.73795
3191.77417	7.76009
3189.84561	7.73690
3187.91704	7.69948
3185.98848	7.63608
3184.05991	7.52309
3182.13135	7.41550
3180.20278	7.35732
3178.27422	7.31347
3176.34565	7.24151
3174.41709	7.19074
3172.48853	7.19445
3170.55996	7.14888
3168.63140	7.02708
3166.70283	6.93174
3164.77427	6.88258
3162.84570	6.85926
3160.91714	6.84662
3158.98857	6.79076
3157.06001	6.67956
3155.13145	6.56861
3153.20288	6.49025
3151.27432	6.44228
3149.34575	6.38868
3147.41719	6.30956
3145.48862	6.23747
3143.56006	6.17196
3141.63149	6.09527
3139.70293	6.02337
3137.77437	5.96329
3135.84580	5.89818
3133.91724	5.82374
3131.98867	5.74985
3130.06011	5.67722
3128.13154	5.60169
3126.20298	5.52814
3124.27441	5.46235
3122.34585	5.39550
3120.41729	5.32325
3118.48872	5.24728
3116.56016	5.17116
3114.63159	5.10502
3112.70303	5.04185
3110.77446	4.96741
3108.84590	4.88796
3106.91733	4.81525
3104.98877	4.74927
3103.06021	4.68272
3101.13164	4.61134
3099.20308	4.54060
3097.27451	4.47294
3095.34595	4.40344
3093.41738	4.33277
3091.48882	4.26587
3089.56025	4.20483
3087.63169	4.14537
3085.70312	4.08147
3083.77456	4.01402
3081.84600	3.94946
3079.91743	3.88860
3077.98887	3.82667
3076.06030	3.76425
3074.13174	3.70456
3072.20317	3.64711
3070.27461	3.58831
3068.34604	3.52742
3066.41748	3.46851
3064.48892	3.41152
3062.56035	3.35333
3060.63179	3.29627
3058.70322	3.24325
3056.77466	3.19238
3054.84609	3.14004
3052.91753	3.08565
3050.98896	3.03248
3049.06040	2.98081
3047.13184	2.92923
3045.20327	2.87962
3043.27471	2.83137
3041.34614	2.78260
3039.41758	2.73431
3037.48901	2.68679
3035.56045	2.63989
3033.63188	2.59442
3031.70332	2.54997
3029.77476	2.50531
3027.84619	2.46063
3025.91763	2.41662
3023.98906	2.37324
3022.06050	2.33084
3020.13193	2.28948
3018.20337	2.24869
3016.27480	2.20890
3014.34624	2.17049
3012.41768	2.13224
3010.48911	2.09343
3008.56055	2.05519
3006.63198	2.01848
3004.70342	1.98300
3002.77485	1.94800
3000.84629	1.91339
2998.91772	1.87930
2996.98916	1.84551
2995.06060	1.81218
2993.13203	1.77944
2991.20347	1.74759
2989.27490	1.71716
2987.34634	1.68709
2985.41777	1.65662
2983.48921	1.62693
2981.56064	1.59821
2979.63208	1.56971
2977.70352	1.54170
2975.77495	1.51432
2973.84639	1.48711
2971.91782	1.46048
2969.98926	1.43492
2968.06069	1.40969
2966.13213	1.38415
2964.20356	1.35881
2962.27500	1.33450
2960.34644	1.31117
2958.41787	1.28812
2956.48931	1.26497
2954.56074	1.24152
2952.63218	1.21818
2950.70361	1.19539
2948.77505	1.17302
2946.84648	1.15135
2944.91792	1.13027
2942.98936	1.10928
2941.06079	1.08894
2939.13223	1.06968
2937.20366	1.05066
2935.27510	1.03122
2933.34653	1.01187
2931.41797	0.99285
2929.48940	0.97411
2927.56084	0.95601
2925.63228	0.93827
2923.70371	0.92064
2921.77515	0.90346
2919.84658	0.88687
2917.91802	0.87066
2915.98945	0.85459
2914.06089	0.83889
2912.13232	0.82377
2910.20376	0.80891
2908.27520	0.79416
2906.34663	0.77977
2904.41807	0.76586
2902.48950	0.75223
2900.56094	0.73887
2898.63237	0.72590
2896.70381	0.71317
2894.77524	0.70078
2892.84668	0.68874
2890.91812	0.67663
2888.98955	0.66467
2887.06099	0.65333
2885.13242	0.64235
2883.20386	0.63157
2881.27529	0.62149
2879.34673	0.61216
2877.41816	0.60258
2875.48960	0.59231
2873.56104	0.58190
2871.63247	0.57169
2869.70391	0.56145
2867.77534	0.55116
2865.84678	0.54090
2863.91821	0.53095
2861.98965	0.52153
2860.06108	0.51232
2858.13252	0.50310
2856.20396	0.49400
2854.27539	0.48526
2852.34683	0.47700
2850.41826	0.46904
2848.48970	0.46114
2846.56113	0.45343
2844.63257	0.44620
2842.70400	0.43940
2840.77544	0.43298
2838.84687	0.42678
2836.91831	0.42050
2834.98975	0.41437
2833.06118	0.40854
2831.13262	0.40277
2829.20405	0.39697
2827.27549	0.39116
2825.34692	0.38532
2823.41836	0.37944
2821.48979	0.37353
2819.56123	0.36768
2817.63267	0.36206
2815.70410	0.35678
2813.77554	0.35169
2811.84697	0.34658
2809.91841	0.34154
2807.98984	0.33662
2806.06128	0.33164
2804.13271	0.32670
2802.20415	0.32202
2800.27559	0.31743
2798.34702	0.31271
2796.41846	0.30806
2794.48989	0.30368
2792.56133	0.29938
2790.63276	0.29496
2788.70420	0.29058
2786.77563	0.28637
2784.84707	0.28232
2782.91851	0.27847
2780.98994	0.27486
2779.06138	0.27129
2777.13281	0.26759
2775.20425	0.26402
2773.27568	0.26066
2771.34712	0.25718
2769.41855	0.25352
2767.48999	0.25005
2765.56143	0.24703
2763.63286	0.24417
2761.70430	0.24105
2759.77573	0.23779
2757.84717	0.23474
2755.91860	0.23190
2753.99004	0.22902
2752.06147	0.22608
2750.13291	0.22344
2748.20435	0.22105
2746.27578	0.21850
2744.34722	0.21576
2742.41865	0.21310
2740.49009	0.21065
2738.56152	0.20841
2736.63296	0.20623
2734.70439	0.20380
2732.77583	0.20126
2730.84727	0.19903
2728.91870	0.19701
2726.99014	0.19491
2725.06157	0.19291
2723.13301	0.19118
2721.20444	0.18941
2719.27588	0.18743
2717.34731	0.18547
2715.41875	0.18366
2713.49019	0.18196
2711.56162	0.18032
2709.63306	0.17867
2707.70449	0.17710
2705.77593	0.17574
2703.84736	0.17437
2701.91880	0.17282
2699.99023	0.17128
2698.06167	0.16992
2696.13311	0.16867
2694.20454	0.16752
2692.27598	0.16634
2690.34741	0.16500
2688.41885	0.16361
2686.49028	0.16230
2684.56172	0.16112
2682.63315	0.16006
2680.70459	0.15915
2678.77603	0.15827
2676.84746	0.15718
2674.91890	0.15599
2672.99033	0.15498
2671.06177	0.15409
2669.13320	0.15321
2667.20464	0.15247
2665.27607	0.15179
2663.34751	0.15098
2661.41895	0.15009
2659.49038	0.14926
2657.56182	0.14865
2655.63325	0.14814
2653.70469	0.14749
2651.77612	0.14678
2649.84756	0.14607
2647.91899	0.14533
2645.99043	0.14477
2644.06187	0.14439
2642.13330	0.14398
2640.20474	0.14358
2638.27617	0.14326
2636.34761	0.14299
2634.41904	0.14261
2632.49048	0.14207
2630.56191	0.14167
2628.63335	0.14158
2626.70479	0.14153
2624.77622	0.14128
2622.84766	0.14091
2620.91909	0.14050
2618.99053	0.14022
2617.06196	0.14017
2615.13340	0.14018
2613.20483	0.14011
2611.27627	0.14006
2609.34771	0.14008
2607.41914	0.14009
2605.49058	0.14016
2603.56201	0.14027
2601.63345	0.14035
2599.70488	0.14033
2597.77632	0.14031
2595.84775	0.14042
2593.91919	0.14053
2591.99062	0.14059
2590.06206	0.14073
2588.13350	0.14096
2586.20493	0.14128
2584.27637	0.14164
2582.34780	0.14192
2580.41924	0.14214
2578.49067	0.14240
2576.56211	0.14271
2574.63354	0.14311
2572.70498	0.14363
2570.77642	0.14407
2568.84785	0.14434
2566.91929	0.14461
2564.99072	0.14502
2563.06216	0.14553
2561.13359	0.14607
2559.20503	0.14658
2557.27646	0.14706
2555.34790	0.14762
2553.41934	0.14838
2551.49077	0.14914
2549.56221	0.14970
2547.63364	0.15022
2545.70508	0.15080
2543.77651	0.15141
2541.84795	0.15223
2539.91938	0.15305
2537.99082	0.15364
2536.06226	0.15423
2534.13369	0.15494
2532.20513	0.15560
2530.27656	0.15618
2528.34800	0.15691
2526.41943	0.15777
2524.49087	0.15852
2522.56230	0.15913
2520.63374	0.15984
2518.70518	0.16069
2516.77661	0.16152
2514.84805	0.16230
2512.91948	0.16317
2510.99092	0.16408
2509.06235	0.16487
2507.13379	0.16563
2505.20522	0.16647
2503.27666	0.16727
2501.34810	0.16810
2499.41953	0.16905
2497.49097	0.17002
2495.56240	0.17092
2493.63384	0.17175
2491.70527	0.17265
2489.77671	0.17363
2487.84814	0.17458
2485.91958	0.17541
2483.99102	0.17619
2482.06245	0.17716
2480.13389	0.17833
2478.20532	0.17943
2476.27676	0.18031
2474.34819	0.18104
2472.41963	0.18184
2470.49106	0.18279
2468.56250	0.18372
2466.63394	0.18462
2464.70537	0.18565
2462.77681	0.18664
2460.84824	0.18746
2458.91968	0.18827
2456.99111	0.18923
2455.06255	0.19025
2453.13398	0.19124
2451.20542	0.19221
2449.27686	0.19316
2447.34829	0.19418
2445.41973	0.19526
2443.49116	0.19630
2441.56260	0.19736
2439.63403	0.19855
2437.70547	0.19977
2435.77690	0.20080
2433.84834	0.20171
2431.91978	0.20270
2429.99121	0.20380
2428.06265	0.20490
2426.13408	0.20603
2424.20552	0.20728
2422.27695	0.20847
2420.34839	0.20949
2418.41982	0.21054
2416.49126	0.21169
2414.56270	0.21289
2412.63413	0.21410
2410.70557	0.21525
2408.77700	0.21630
2406.84844	0.21738
2404.91987	0.21862
2402.99131	0.21996
2401.06274	0.22135
2399.13418	0.22264
2397.20562	0.22376
2395.27705	0.22489
2393.34849	0.22618
2391.41992	0.22758
2389.49136	0.22891
2387.56279	0.23007
2385.63423	0.23121
2383.70566	0.23245
2381.77710	0.23375
2379.84854	0.23504
2377.91997	0.23629
2375.99141	0.23759
2374.06284	0.23912
2372.13428	0.24061
2370.20571	0.24151
2368.27715	0.24200
2366.34858	0.24293
2364.42002	0.24430
2362.49146	0.24534
2360.56289	0.24648
2358.63433	0.24867
2356.70576	0.25163
2354.77720	0.25485
2352.84863	0.25759
2350.92007	0.25916
2348.99150	0.25990
2347.06294	0.26038
2345.13437	0.26121
2343.20581	0.26255
2341.27725	0.26434
2339.34868	0.26668
2337.42012	0.26867
2335.49155	0.27019
2333.56299	0.27156
2331.63442	0.27297
2329.70586	0.27496
2327.77729	0.27714
2325.84873	0.27897
2323.92017	0.28073
2321.99160	0.28236
2320.06304	0.28376
2318.13447	0.28538
2316.20591	0.28728
2314.27734	0.28909
2312.34878	0.29061
2310.42021	0.29219
2308.49165	0.29406
2306.56309	0.29592
2304.63452	0.29769
2302.70596	0.29953
2300.77739	0.30127
2298.84883	0.30297
2296.92026	0.30487
2294.99170	0.30699
2293.06313	0.30919
2291.13457	0.31125
2289.20601	0.31308
2287.27744	0.31484
2285.34888	0.31662
2283.42031	0.31843
2281.49175	0.32039
2279.56318	0.32254
2277.63462	0.32468
2275.70605	0.32670
2273.77749	0.32869
2271.84893	0.33079
2269.92036	0.33300
2267.99180	0.33515
2266.06323	0.33722
2264.13467	0.33931
2262.20610	0.34134
2260.27754	0.34343
2258.34897	0.34575
2256.42041	0.34805
2254.49185	0.35019
2252.56328	0.35225
2250.63472	0.35432
2248.70615	0.35650
2246.77759	0.35878
2244.84902	0.36090
2242.92046	0.36299
2240.99189	0.36535
2239.06333	0.36773
2237.13477	0.36983
2235.20620	0.37185
2233.27764	0.37404
2231.34907	0.37629
2229.42051	0.37849
2227.49194	0.38076
2225.56338	0.38312
2223.63481	0.38545
2221.70625	0.38766
2219.77769	0.38975
2217.84912	0.39185
2215.92056	0.39413
2213.99199	0.39644
2212.06343	0.39864
2210.13486	0.40080
2208.20630	0.40289
2206.27773	0.40496
2204.34917	0.40713
2202.42061	0.40930
2200.49204	0.41130
2198.56348	0.41320
2196.63491	0.41515
2194.70635	0.41717
2192.77778	0.41918
2190.84922	0.42111
2188.92065	0.42292
2186.99209	0.42468
2185.06353	0.42651
2183.13496	0.42835
2181.20640	0.43010
2179.27783	0.43171
2177.34927	0.43328
2175.42070	0.43481
2173.49214	0.43631
2171.56357	0.43777
2169.63501	0.43916
2167.70645	0.44047
2165.77788	0.44170
2163.84932	0.44289
2161.92075	0.44400
2159.99219	0.44510
2158.06362	0.44617
2156.13506	0.44717
2154.20649	0.44811
2152.27793	0.44899
2150.34937	0.44971
2148.42080	0.45023
2146.49224	0.45073
2144.56367	0.45124
2142.63511	0.45160
2140.70654	0.45184
2138.77798	0.45216
2136.84941	0.45245
2134.92085	0.45257
2132.99229	0.45259
2131.06372	0.45263
2129.13516	0.45256
2127.20659	0.45219
2125.27803	0.45168
2123.34946	0.45118
2121.42090	0.45061
2119.49233	0.44997
2117.56377	0.44939
2115.63521	0.44888
2113.70664	0.44822
2111.77808	0.44726
2109.84951	0.44613
2107.92095	0.44508
2105.99238	0.44407
2104.06382	0.44296
2102.13525	0.44173
2100.20669	0.44040
2098.27812	0.43893
2096.34956	0.43737
2094.42100	0.43586
2092.49243	0.43432
2090.56387	0.43264
2088.63530	0.43085
2086.70674	0.42896
2084.77817	0.42697
2082.84961	0.42498
2080.92104	0.42297
2078.99248	0.42091
2077.06392	0.41884
2075.13535	0.41680
2073.20679	0.41481
2071.27822	0.41264
2069.34966	0.41020
2067.42109	0.40771
2065.49253	0.40544
2063.56396	0.40322
2061.63540	0.40083
2059.70684	0.39832
2057.77827	0.39577
2055.84971	0.39320
2053.92114	0.39069
2051.99258	0.38821
2050.06401	0.38564
2048.13545	0.38293
2046.20688	0.38017
2044.27832	0.37746
2042.34976	0.37479
2040.42119	0.37218
2038.49263	0.36959
2036.56406	0.36689
2034.63550	0.36410
2032.70693	0.36126
2030.77837	0.35842
2028.84980	0.35563
2026.92124	0.35287
2024.99268	0.35007
2023.06411	0.34727
2021.13555	0.34446
2019.20698	0.34164
2017.27842	0.33891
2015.34985	0.33629
2013.42129	0.33368
2011.49272	0.33099
2009.56416	0.32833
2007.63560	0.32566
2005.70703	0.32285
2003.77847	0.31996
2001.84990	0.31721
1999.92134	0.31472
1997.99277	0.31230
1996.06421	0.30977
1994.13564	0.30723
1992.20708	0.30482
1990.27852	0.30236
1988.34995	0.29983
1986.42139	0.29737
1984.49282	0.29495
1982.56426	0.29252
1980.63569	0.29021
1978.70713	0.28800
1976.77856	0.28580
1974.85000	0.28364
1972.92144	0.28148
1970.99287	0.27930
1969.06431	0.27713
1967.13574	0.27500
1965.20718	0.27301
1963.27861	0.27120
1961.35005	0.26933
1959.42148	0.26735
1957.49292	0.26546
1955.56436	0.26375
1953.63579	0.26210
1951.70723	0.26044
1949.77866	0.25879
1947.85010	0.25720
1945.92153	0.25577
1943.99297	0.25442
1942.06440	0.25293
1940.13584	0.25128
1938.20728	0.24973
1936.27871	0.24840
1934.35015	0.24722
1932.42158	0.24606
1930.49302	0.24485
1928.56445	0.24367
1926.63589	0.24260
1924.70732	0.24169
1922.77876	0.24083
1920.85020	0.23983
1918.92163	0.23880
1916.99307	0.23793
1915.06450	0.23711
1913.13594	0.23621
1911.20737	0.23541
1909.27881	0.23473
1907.35024	0.23409
1905.42168	0.23347
1903.49312	0.23291
1901.56455	0.23238
1899.63599	0.23184
1897.70742	0.23127
1895.77886	0.23078
1893.85029	0.23055
1891.92173	0.23047
1889.99316	0.23043
1888.06460	0.23024
1886.13604	0.22993
1884.20747	0.22963
1882.27891	0.22935
1880.35034	0.22915
1878.42178	0.22904
1876.49321	0.22899
1874.56465	0.22896
1872.63608	0.22906
1870.70752	0.22928
1868.77896	0.22978
1866.85039	0.23028
1864.92183	0.23039
1862.99326	0.23039
1861.06470	0.23051
1859.13613	0.23081
1857.20757	0.23115
1855.27900	0.23164
1853.35044	0.23219
1851.42187	0.23271
1849.49331	0.23325
1847.56475	0.23395
1845.63618	0.23483
1843.70762	0.23574
1841.77905	0.23646
1839.85049	0.23697
1837.92192	0.23777
1835.99336	0.23871
1834.06479	0.23965
1832.13623	0.24066
1830.20767	0.24202
1828.27910	0.24346
1826.35054	0.24455
1824.42197	0.24579
1822.49341	0.24702
1820.56484	0.24825
1818.63628	0.24961
1816.70771	0.25121
1814.77915	0.25285
1812.85059	0.25464
1810.92202	0.25674
1808.99346	0.25893
1807.06489	0.26097
1805.13633	0.26282
1803.20776	0.26494
1801.27920	0.26750
1799.35063	0.27039
1797.42207	0.27293
1795.49351	0.27522
1793.56494	0.27788
1791.63638	0.28147
1789.70781	0.28501
1787.77925	0.28769
1785.85068	0.29086
1783.92212	0.29462
1781.99355	0.29859
1780.06499	0.30281
1778.13643	0.30718
1776.20786	0.31116
1774.27930	0.31529
1772.35073	0.32102
1770.42217	0.32750
1768.49360	0.33298
1766.56504	0.33814
1764.63647	0.34334
1762.70791	0.34907
1760.77935	0.35660
1758.85078	0.36388
1756.92222	0.37112
1754.99365	0.37888
1753.06509	0.38577
1751.13652	0.39391
1749.20796	0.40439
1747.27939	0.41499
1745.35083	0.42434
1743.42227	0.43416
1741.49370	0.44497
1739.56514	0.45766
1737.63657	0.47027
1735.70801	0.48107
1733.77944	0.49732
1731.85088	0.51720
1729.92231	0.53299
1727.99375	0.54890
1726.06519	0.56587
1724.13662	0.58414
1722.20806	0.60384
1720.27949	0.62214
1718.35093	0.64340
1716.42236	0.67476
1714.49380	0.70523
1712.56523	0.73033
1710.63667	0.75442
1708.70811	0.77979
1706.77954	0.80836
1704.85098	0.84276
1702.92241	0.87367
1700.99385	0.90403
1699.06528	0.94914
1697.13672	0.99078
1695.20815	1.03357
1693.27959	1.07504
1691.35103	1.10800
1689.42246	1.14540
1687.49390	1.18421
1685.56533	1.22116
1683.63677	1.27952
1681.70820	1.34168
1679.77964	1.38176
1677.85107	1.41966
1675.92251	1.46278
1673.99395	1.51541
1672.06538	1.56191
1670.13682	1.60758
1668.20825	1.66706
1666.27969	1.71487
1664.35112	1.75506
1662.42256	1.80626
1660.49399	1.86357
1658.56543	1.90699
1656.63687	1.94233
1654.70830	1.97595
1652.77974	2.02910
1650.85117	2.08103
1648.92261	2.10287
1646.99404	2.13051
1645.06548	2.15956
1643.13691	2.17767
1641.20835	2.18813
1639.27979	2.19750
1637.35122	2.20338
1635.42266	2.20220
1633.49409	2.19585
1631.56553	2.18618
1629.63696	2.17283
1627.70840	2.14816
1625.77983	2.11786
1623.85127	2.07933
1621.92271	2.03264
1619.99414	1.99132
1618.06558	1.94955
1616.13701	1.88794
1614.20845	1.82604
1612.27988	1.78037
1610.35132	1.73232
1608.42275	1.67877
1606.49419	1.62493
1604.56562	1.57509
1602.63706	1.52759
1600.70850	1.48145
1598.77993	1.43870
1596.85137	1.39855
1594.92280	1.35952
1592.99424	1.32145
1591.06567	1.28628
1589.13711	1.25337
1587.20854	1.22277
1585.27998	1.19445
1583.35142	1.16782
1581.42285	1.14322
1579.49429	1.12204
1577.56572	1.10292
1575.63716	1.07973
1573.70859	1.05935
1571.78003	1.04581
1569.85146	1.03126
1567.92290	1.01499
1565.99434	1.00243
1564.06577	0.99207
1562.13721	0.98350
1560.20864	0.97665
1558.28008	0.96669
1556.35151	0.95843
1554.42295	0.95308
1552.49438	0.94713
1550.56582	0.94058
1548.63726	0.93328
1546.70869	0.92572
1544.78013	0.91717
1542.85156	0.90694
1540.92300	0.89350
1538.99443	0.87448
1537.06587	0.86115
1535.13730	0.85205
1533.20874	0.83992
1531.28018	0.82692
1529.35161	0.81753
1527.42305	0.80861
1525.49448	0.79914
1523.56592	0.79102
1521.63735	0.78296
1519.70879	0.77418
1517.78022	0.76701
1515.85166	0.75939
1513.92310	0.75143
1511.99453	0.74461
1510.06597	0.73852
1508.13740	0.73244
1506.20884	0.72313
1504.28027	0.71533
1502.35171	0.71090
1500.42314	0.70691
1498.49458	0.70256
1496.56602	0.69726
1494.63745	0.69193
1492.70889	0.68789
1490.78032	0.68451
1488.85176	0.68056
1486.92319	0.67641
1484.99463	0.67277
1483.06606	0.66972
1481.13750	0.66700
1479.20894	0.66440
1477.28037	0.66212
1475.35181	0.66030
1473.42324	0.65883
1471.49468	0.65674
1469.56611	0.65422
1467.63755	0.65201
1465.70898	0.65010
1463.78042	0.64831
1461.85186	0.64670
1459.92329	0.64552
1457.99473	0.64465
1456.06616	0.64317
1454.13760	0.64081
1452.20903	0.63850
1450.28047	0.63636
1448.35190	0.63444
1446.42334	0.63261
1444.49478	0.63085
1442.56621	0.62901
1440.63765	0.62700
1438.70908	0.62509
1436.78052	0.62299
1434.85195	0.62050
1432.92339	0.61834
1430.99482	0.61667
1429.06626	0.61532
1427.13770	0.61426
1425.20913	0.61340
1423.28057	0.61270
1421.35200	0.61203
1419.42344	0.61117
1417.49487	0.61000
1415.56631	0.60875
1413.63774	0.60770
1411.70918	0.60689
1409.78062	0.60640
1407.85205	0.60614
1405.92349	0.60606
1403.99492	0.60591
1402.06636	0.60534
1400.13779	0.60432
1398.20923	0.60295
1396.28066	0.60141
1394.35210	0.59931
1392.42354	0.59669
1390.49497	0.59422
1388.56641	0.59185
1386.63784	0.58922
1384.70928	0.58653
1382.78071	0.58406
1380.85215	0.58178
1378.92358	0.57981
1376.99502	0.57823
1375.06646	0.57698
1373.13789	0.57583
1371.20933	0.57467
1369.28076	0.57357
1367.35220	0.57244
1365.42363	0.57128
1363.49507	0.57023
1361.56650	0.56921
1359.63794	0.56801
1357.70937	0.56675
1355.78081	0.56559
1353.85225	0.56466
1351.92368	0.56393
1349.99512	0.56328
1348.06655	0.56258
1346.13799	0.56179
1344.20942	0.56097
1342.28086	0.56017
1340.35229	0.55945
1338.42373	0.55867
1336.49517	0.55777
1334.56660	0.55692
1332.63804	0.55617
1330.70947	0.55561
1328.78091	0.55535
1326.85234	0.55521
1324.92378	0.55493
1322.99521	0.55453
1321.06665	0.55422
1319.13809	0.55403
1317.20952	0.55380
1315.28096	0.55336
1313.35239	0.55275
1311.42383	0.55211
1309.49526	0.55143
1307.56670	0.55068
1305.63813	0.54992
1303.70957	0.54931
1301.78101	0.54884
1299.85244	0.54827
1297.92388	0.54748
1295.99531	0.54655
1294.06675	0.54562
1292.13818	0.54473
1290.20962	0.54388
1288.28105	0.54309
1286.35249	0.54240
1284.42393	0.54177
1282.49536	0.54106
1280.56680	0.54026
1278.63823	0.53940
1276.70967	0.53851
1274.78110	0.53776
1272.85254	0.53730
1270.92397	0.53691
1268.99541	0.53624
1267.06685	0.53537
1265.13828	0.53467
1263.20972	0.53424
1261.28115	0.53386
1259.35259	0.53343
1257.42402	0.53300
1255.49546	0.53268
1253.56689	0.53243
1251.63833	0.53221
1249.70977	0.53197
1247.78120	0.53169
1245.85264	0.53140
1243.92407	0.53102
1241.99551	0.53048
1240.06694	0.52979
1238.13838	0.52892
1236.20981	0.52778
1234.28125	0.52641
1232.35269	0.52515
1230.42412	0.52407
1228.49556	0.52292
1226.56699	0.52167
1224.63843	0.52061
1222.70986	0.51972
1220.78130	0.51881
1218.85273	0.51783
1216.92417	0.51693
1214.99561	0.51618
1213.06704	0.51542
1211.13848	0.51466
1209.20991	0.51399
1207.28135	0.51338
1205.35278	0.51270
1203.42422	0.51191
1201.49565	0.51117
1199.56709	0.51067
1197.63853	0.51020
1195.70996	0.50944
1193.78140	0.50856
1191.85283	0.50802
1189.92427	0.50774
1187.99570	0.50739
1186.06714	0.50706
1184.13857	0.50700
1182.21001	0.50717
1180.28145	0.50742
1178.35288	0.50787
1176.42432	0.50857
1174.49575	0.50920
1172.56719	0.50968
1170.63862	0.51008
1168.71006	0.51031
1166.78149	0.51034
1164.85293	0.51035
1162.92437	0.51044
1160.99580	0.51037
1159.06724	0.51013
1157.13867	0.50972
1155.21011	0.50889
1153.28154	0.50759
1151.35298	0.50594
1149.42441	0.50409
1147.49585	0.50220
1145.56729	0.50020
1143.63872	0.49792
1141.71016	0.49550
1139.78159	0.49318
1137.85303	0.49111
1135.92446	0.48942
1133.99590	0.48803
1132.06733	0.48655
1130.13877	0.48499
1128.21021	0.48383
1126.28164	0.48314
1124.35308	0.48249
1122.42451	0.48162
1120.49595	0.48078
1118.56738	0.48038
1116.63882	0.48039
1114.71025	0.48042
1112.78169	0.48063
1110.85312	0.48134
1108.92456	0.48224
1106.99600	0.48300
1105.06743	0.48388
1103.13887	0.48515
1101.21030	0.48680
1099.28174	0.48872
1097.35317	0.49097
1095.42461	0.49376
1093.49604	0.49742
1091.56748	0.50203
1089.63892	0.50731
1087.71035	0.51314
1085.78179	0.51974
1083.85322	0.52694
1081.92466	0.53384
1079.99609	0.53942
1078.06753	0.54302
1076.13896	0.54408
1074.21040	0.54218
1072.28184	0.53765
1070.35327	0.53136
1068.42471	0.52443
1066.49614	0.51774
1064.56758	0.51150
1062.63901	0.50559
1060.71045	0.50039
1058.78188	0.49608
1056.85332	0.49228
1054.92476	0.48884
1052.99619	0.48595
1051.06763	0.48350
1049.13906	0.48141
1047.21050	0.47984
1045.28193	0.47882
1043.35337	0.47805
1041.42480	0.47748
1039.49624	0.47718
1037.56768	0.47691
1035.63911	0.47671
1033.71055	0.47669
1031.78198	0.47631
1029.85342	0.47551
1027.92485	0.47501
1025.99629	0.47495
1024.06772	0.47505
1022.13916	0.47528
1020.21060	0.47571
1018.28203	0.47642
1016.35347	0.47721
1014.42490	0.47784
1012.49634	0.47844
1010.56777	0.47929
1008.63921	0.48044
1006.71064	0.48183
1004.78208	0.48358
1002.85352	0.48577
1000.92495	0.48828
998.99639	0.49117
997.06782	0.49475
995.13926	0.49897
993.21069	0.50313
991.28213	0.50652
989.35356	0.50875
987.42500	0.50999
985.49644	0.51090
983.56787	0.51178
981.63931	0.51260
979.71074	0.51368
977.78218	0.51539
975.85361	0.51774
973.92505	0.52048
971.99648	0.52356
970.06792	0.52713
968.13936	0.53106
966.21079	0.53522
964.28223	0.53967
962.35366	0.54454
960.42510	0.54986
958.49653	0.55535
956.56797	0.56087
954.63940	0.56668
952.71084	0.57286
950.78228	0.57933
948.85371	0.58594
946.92515	0.59247
944.99658	0.59896
943.06802	0.60539
941.13945	0.61141
939.21089	0.61689
937.28232	0.62211
935.35376	0.62748
933.42520	0.63319
931.49663	0.63932
929.56807	0.64574
927.63950	0.65204
925.71094	0.65800
923.78237	0.66391
921.85381	0.67002
919.92524	0.67651
917.99668	0.68369
916.06812	0.69116
914.13955	0.69848
912.21099	0.70591
910.28242	0.71401
908.35386	0.72294
906.42529	0.73203
904.49673	0.74132
902.56816	0.75113
900.63960	0.76065
898.71104	0.76960
896.78247	0.77825
894.85391	0.78726
892.92534	0.79694
890.99678	0.80646
889.06821	0.81752
887.13965	0.83099
885.21108	0.84349
883.28252	0.85418
881.35396	0.86503
879.42539	0.87614
877.49683	0.88764
875.56826	0.90001
873.63970	0.91096
871.71113	0.91981
869.78257	0.93071
867.85400	0.94481
865.92544	0.95801
863.99687	0.96781
862.06831	0.97672
860.13975	0.98918
858.21118	1.00459
856.28262	1.01792
854.35405	1.02897
852.42549	1.04019
850.49692	1.05049
848.56836	1.05937
846.63979	1.06986
844.71123	1.08252
842.78267	1.09469
840.85410	1.10762
838.92554	1.12156
836.99697	1.13277
835.06841	1.14259
833.13984	1.15468
831.21128	1.16653
829.28271	1.17589
827.35415	1.18734
825.42559	1.20606
823.49702	1.22580
821.56846	1.23290
819.63989	1.23382
817.71133	1.23915
815.78276	1.24616
813.85420	1.25763
811.92563	1.27520
809.99707	1.29911
808.06851	1.33191
806.13994	1.35838
804.21138	1.35464
802.28281	1.33537
800.35425	1.32847
798.42568	1.34739
796.49712	1.39502
794.56855	1.43132
792.63999	1.43195
790.71143	1.43506
788.78286	1.45943
786.85430	1.55259
784.92573	1.72181
782.99717	1.67899
781.06860	1.56442
779.14004	1.60668
777.21147	1.64000
775.28291	1.50776
773.35435	1.42238
771.42578	1.45450
769.49722	1.49531
767.56865	1.42844
765.64009	1.33908
763.71152	1.30796
761.78296	1.38634
759.85439	1.69630
757.92583	2.42969
755.99727	1.61360
754.06870	1.33154
752.14014	1.33191
750.21157	1.55370
748.28301	1.48070
746.35444	1.19640
744.42588	1.13011
742.49731	1.17010
740.56875	1.05764
738.64019	0.92893
736.71162	0.98847
734.78306	1.39113
732.85449	1.50288
730.92593	0.83614
728.99736	0.65674
727.06880	0.56395
725.14023	0.25479
723.21167	-0.03831
721.28311	-0.28412
719.35454	-0.37080
717.42598	-0.19958
715.49741	0.14937
713.56885	0.58803
711.64028	0.73184
709.71172	0.59340
707.78315	0.44465
705.85459	0.38916
703.92603	0.45671
701.99746	0.60774
700.06890	0.86807
698.14033	1.62288
696.21177	1.62704
694.28320	0.80685
692.35464	0.70882
690.42607	1.08303
688.49751	4.13099
686.56895	1.06130
684.64038	0.63519
682.71182	0.49948
680.78325	0.42408
678.85469	0.34451
676.92612	0.36057
674.99756	0.52942
673.06899	0.77704
671.14043	1.00035
669.21187	0.89016
667.28330	0.61262
665.35474	0.51377
663.42617	0.63943
661.49761	0.95953
659.56904	1.33150
657.64048	0.98393
655.71191	0.62606
653.78335	0.49813
651.85479	0.51906
649.92622	0.58158
647.99766	0.57378
646.06909	0.53470
644.14053	0.54000
642.21196	0.58893
640.28340	0.63889
638.35483	0.61148
636.42627	0.46631
634.49771	0.39639
632.56914	0.49862
630.64058	0.73857
628.71201	0.90139
626.78345	1.09132
624.85488	3.74913
622.92632	1.07505
620.99775	0.59829
619.06919	0.52737
617.14062	0.67521
615.21206	0.76308
613.28350	0.71046
611.35493	0.63724
609.42637	0.50214
607.49780	0.44418
605.56924	0.46500
603.64067	0.50736
601.71211	0.61514
599.78354	0.81713
597.85498	0.81704
595.92642	0.63153
593.99785	0.52633
592.06929	0.49983
590.14072	0.50262
588.21216	0.51077
586.28359	0.56323
584.35503	0.57475
582.42646	0.51037
580.49790	0.53761
578.56934	0.67920
576.64077	0.76640
574.71221	0.63055
572.78364	0.54425
570.85508	0.58918
568.92651	0.68141
566.99795	0.69013
565.06938	0.69879
563.14082	0.62264
561.21226	0.47904
559.28369	0.49429
557.35513	0.82128
555.42656	3.33256
553.49800	3.32099
551.56943	0.71434
549.64087	0.53767
547.71230	0.42095
545.78374	0.35537
543.85518	0.38256
541.92661	0.41152
539.99805	0.35996
538.06948	0.34221
536.14092	0.41588
534.21235	0.55983
532.28379	0.63530
530.35522	0.52137
528.42666	0.42062
526.49810	0.40097
524.56953	0.40316
522.64097	0.36539
520.71240	0.36095
518.78384	0.38526
516.85527	0.38285
514.92671	0.41433
512.99814	0.51024
511.06958	0.49338
509.14102	0.44606
507.21245	0.49943
505.28389	0.55915
503.35532	0.52571
501.42676	0.52702
499.49819	0.57811
