3997.91411	0.07517
3995.98555	0.07590
3994.05698	0.07616
3992.12842	0.07571
3990.19985	0.07565
3988.27129	0.07603
3986.34272	0.07627
3984.41416	0.07655
3982.48560	0.07698
3980.55703	0.07733
3978.62847	0.07761
3976.69990	0.07811
3974.77134	0.07898
3972.84277	0.07969
3970.91421	0.07970
3968.98564	0.07959
3967.05708	0.07957
3965.12852	0.07949
3963.19995	0.07978
3961.27139	0.08027
3959.34282	0.08032
3957.41426	0.08019
3955.48569	0.08028
3953.55713	0.08032
3951.62856	0.08065
3949.70000	0.08152
3947.77144	0.08194
3945.84287	0.08152
3943.91431	0.08123
3941.98574	0.08132
3940.05718	0.08083
3938.12861	0.07990
3936.20005	0.07941
3934.27148	0.07948
3932.34292	0.08015
3930.41436	0.08112
3928.48579	0.08134
3926.55723	0.08114
3924.62866	0.08153
3922.70010	0.08164
3920.77153	0.08080
3918.84297	0.08036
3916.91440	0.08094
3914.98584	0.08104
3913.05728	0.07955
3911.12871	0.07779
3909.20015	0.07705
3907.27158	0.07779
3905.34302	0.08047
3903.41445	0.08439
3901.48589	0.08692
3899.55732	0.08667
3897.62876	0.08445
3895.70020	0.08198
3893.77163	0.08126
3891.84307	0.08270
3889.91450	0.08360
3887.98594	0.08239
3886.05737	0.08221
3884.12881	0.08384
3882.20024	0.08523
3880.27168	0.08617
3878.34312	0.08536
3876.41455	0.08335
3874.48599	0.08357
3872.55742	0.08596
3870.62886	0.08839
3868.70029	0.08943
3866.77173	0.08877
3864.84316	0.08896
3862.91460	0.08960
3860.98604	0.08777
3859.05747	0.08538
3857.12891	0.08555
3855.20034	0.08923
3853.27178	0.09606
3851.34321	0.09844
3849.41465	0.09312
3847.48608	0.08855
3845.55752	0.08748
3843.62896	0.08946
3841.70039	0.09276
3839.77183	0.09637
3837.84326	0.09955
3835.91470	0.09960
3833.98613	0.09707
3832.05757	0.09511
3830.12900	0.09435
3828.20044	0.09440
3826.27187	0.09516
3824.34331	0.09637
3822.41475	0.09922
3820.48618	0.10410
3818.55762	0.10588
3816.62905	0.10486
3814.70049	0.10373
3812.77192	0.10115
3810.84336	0.09889
3808.91479	0.09933
3806.98623	0.10299
3805.05767	0.10684
3803.12910	0.10895
3801.20054	0.11208
3799.27197	0.11412
3797.34341	0.11315
3795.41484	0.11182
3793.48628	0.11044
3791.55771	0.10972
3789.62915	0.11022
3787.70059	0.11158
3785.77202	0.11373
3783.84346	0.11582
3781.91489	0.11726
3779.98633	0.11935
3778.05776	0.12166
3776.12920	0.12188
3774.20063	0.12164
3772.27207	0.12341
3770.34351	0.12735
3768.41494	0.13129
3766.48638	0.13342
3764.55781	0.13484
3762.62925	0.13603
3760.70068	0.13803
3758.77212	0.14167
3756.84355	0.14492
3754.91499	0.14711
3752.98643	0.15106
3751.05786	0.15886
3749.12930	0.16633
3747.20073	0.16803
3745.27217	0.16940
3743.34360	0.17355
3741.41504	0.17703
3739.48647	0.18031
3737.55791	0.18690
3735.62935	0.19791
3733.70078	0.20826
3731.77222	0.21185
3729.84365	0.21343
3727.91509	0.21730
3725.98652	0.22360
3724.05796	0.23019
3722.12939	0.23511
3720.20083	0.23824
3718.27227	0.24000
3716.34370	0.24237
3714.41514	0.24779
3712.48657	0.25939
3710.55801	0.27821
3708.62944	0.29496
3706.70088	0.30485
3704.77231	0.31426
3702.84375	0.32698
3700.91519	0.34372
3698.98662	0.36082
3697.05806	0.37657
3695.12949	0.39415
3693.20093	0.41405
3691.27236	0.43691
3689.34380	0.46589
3687.41523	0.49781
3685.48667	0.52327
3683.55811	0.54565
3681.62954	0.57177
3679.70098	0.60324
3677.77241	0.63773
3675.84385	0.67882
3673.91528	0.73133
3671.98672	0.77237
3670.05815	0.80981
3668.12959	0.86077
3666.20103	0.90502
3664.27246	0.94212
3662.34390	0.98417
3660.41533	1.03099
3658.48677	1.07753
3656.55820	1.12722
3654.62964	1.18204
3652.70107	1.22840
3650.77251	1.27128
3648.84395	1.33073
3646.91538	1.39764
3644.98682	1.44274
3643.05825	1.47818
3641.12969	1.51691
3639.20112	1.56083
3637.27256	1.60602
3635.34399	1.65102
3633.41543	1.69625
3631.48687	1.73876
3629.55830	1.78277
3627.62974	1.83933
3625.70117	1.88814
3623.77261	1.91880
3621.84404	1.94937
3619.91548	1.98693
3617.98691	2.03296
3616.05835	2.07526
3614.12979	2.10921
3612.20122	2.14556
3610.27266	2.18352
3608.34409	2.22383
3606.41553	2.26709
3604.48696	2.30529
3602.55840	2.33993
3600.62983	2.38004
3598.70127	2.42312
3596.77271	2.46243
3594.84414	2.50164
3592.91558	2.54237
3590.98701	2.58013
3589.05845	2.61663
3587.12988	2.66233
3585.20132	2.70963
3583.27275	2.74511
3581.34419	2.77940
3579.41562	2.81976
3577.48706	2.86218
3575.55850	2.90374
3573.62993	2.94652
3571.70137	2.98843
3569.77280	3.02874
3567.84424	3.07346
3565.91567	3.12820
3563.98711	3.17843
3562.05854	3.21790
3560.12998	3.25748
3558.20142	3.30021
3556.27285	3.34474
3554.34429	3.39012
3552.41572	3.43846
3550.48716	3.48731
3548.55859	3.53279
3546.63003	3.57681
3544.70146	3.62270
3542.77290	3.66990
3540.84434	3.71676
3538.91577	3.76465
3536.98721	3.81350
3535.05864	3.86198
3533.13008	3.90815
3531.20151	3.95446
3529.27295	4.00483
3527.34438	4.05906
3525.41582	4.10903
3523.48726	4.15252
3521.55869	4.19811
3519.63013	4.24540
3517.70156	4.29299
3515.77300	4.34310
3513.84443	4.39305
3511.91587	4.44200
3509.98730	4.49302
3508.05874	4.54176
3506.13018	4.58443
3504.20161	4.62727
3502.27305	4.67486
3500.34448	4.72725
3498.41592	4.78161
3496.48735	4.83497
3494.55879	4.88566
3492.63022	4.93251
3490.70166	4.97949
3488.77310	5.02947
3486.84453	5.07744
3484.91597	5.12306
3482.98740	5.17030
3481.05884	5.21578
3479.13027	5.25782
3477.20171	5.30740
3475.27314	5.36968
3473.34458	5.43579
3471.41602	5.48832
3469.48745	5.52304
3467.55889	5.56215
3465.63032	5.61236
3463.70176	5.66580
3461.77319	5.71975
3459.84463	5.77150
3457.91606	5.82751
3455.98750	5.88768
3454.05894	5.93644
3452.13037	5.97679
3450.20181	6.02907
3448.27324	6.08887
3446.34468	6.14028
3444.41611	6.18998
3442.48755	6.24557
3440.55898	6.29806
3438.63042	6.34774
3436.70186	6.39370
3434.77329	6.44709
3432.84473	6.51383
3430.91616	6.56329
3428.98760	6.59812
3427.05903	6.63802
3425.13047	6.68376
3423.20190	6.72761
3421.27334	6.76515
3419.34478	6.81277
3417.41621	6.89365
3415.48765	6.98562
3413.55908	7.04316
3411.63052	7.07412
3409.70195	7.09532
3407.77339	7.13005
3405.84482	7.19785
3403.91626	7.27366
3401.98770	7.32929
3400.05913	7.37252
3398.13057	7.39811
3396.20200	7.42288
3394.27344	7.48448
3392.34487	7.51878
3390.41631	7.50906
3388.48774	7.54106
3386.55918	7.63130
3384.63062	7.68489
3382.70205	7.66452
3380.77349	7.67992
3378.84492	7.74737
3376.91636	7.76134
3374.98779	7.75066
3373.05923	7.80614
3371.13066	7.86453
3369.20210	7.88701
3367.27354	7.91042
3365.34497	7.94701
3363.41641	7.98607
3361.48784	8.05486
3359.55928	8.19666
3357.63071	8.30801
3355.70215	8.29884
3353.77358	8.24340
3351.84502	8.19725
3349.91646	8.13785
3347.98789	8.11397
3346.05933	8.18376
3344.13076	8.29508
3342.20220	8.32565
3340.27363	8.26315
3338.34507	8.24196
3336.41650	8.28577
3334.48794	8.34020
3332.55937	8.35147
3330.63081	8.33420
3328.70225	8.29852
3326.77368	8.23113
3324.84512	8.17691
3322.91655	8.15967
3320.98799	8.21740
3319.05942	8.32508
3317.13086	8.37279
3315.20229	8.33797
3313.27373	8.36275
3311.34517	8.50133
3309.41660	8.61375
3307.48804	8.61405
3305.55947	8.54717
3303.63091	8.44979
3301.70234	8.40374
3299.77378	8.53908
3297.84521	8.73989
3295.91665	8.79115
3293.98809	8.72421
3292.05952	8.59387
3290.13096	8.43920
3288.20239	8.28455
3286.27383	8.23354
3284.34526	8.36201
3282.41670	8.47038
3280.48813	8.39747
3278.55957	8.36136
3276.63101	8.45352
3274.70244	8.54899
3272.77388	8.55031
3270.84531	8.43747
3268.91675	8.31465
3266.98818	8.31719
3265.05962	8.42108
3263.13105	8.46038
3261.20249	8.44022
3259.27393	8.46257
3257.34536	8.47396
3255.41680	8.42404
3253.48823	8.39324
3251.55967	8.46018
3249.63110	8.60460
3247.70254	8.72886
3245.77397	8.72038
3243.84541	8.62330
3241.91685	8.55913
3239.98828	8.54861
3238.05972	8.57016
3236.13115	8.55840
3234.20259	8.47571
3232.27402	8.41793
3230.34546	8.40911
3228.41689	8.40181
3226.48833	8.39829
3224.55977	8.35946
3222.63120	8.32500
3220.70264	8.40277
3218.77407	8.51274
3216.84551	8.47864
3214.91694	8.32831
3212.98838	8.22444
3211.05981	8.22916
3209.13125	8.22894
3207.20269	8.18570
3205.27412	8.16873
3203.34556	8.16377
3201.41699	8.17237
3199.48843	8.17355
3197.55986	8.12009
3195.63130	8.03138
3193.70273	7.93895
3191.77417	7.83857
3189.84561	7.72857
3187.91704	7.65468
3185.98848	7.63855
3184.05991	7.62525
3182.13135	7.57786
3180.20278	7.52328
3178.27422	7.44883
3176.34565	7.34915
3174.41709	7.26632
3172.48853	7.21788
3170.55996	7.19701
3168.63140	7.18375
3166.70283	7.13035
3164.77427	7.02760
3162.84570	6.93694
3160.91714	6.88294
3158.98857	6.83817
3157.06001	6.77041
3155.13145	6.69066
3153.20288	6.62569
3151.27432	6.56407
3149.34575	6.49314
3147.41719	6.40919
3145.48862	6.31537
3143.56006	6.22445
3141.63149	6.14505
3139.70293	6.07994
3137.77437	6.03115
3135.84580	5.97846
3133.91724	5.89865
3131.98867	5.81076
3130.06011	5.73244
3128.13154	5.65726
3126.20298	5.58372
3124.27441	5.51118
3122.34585	5.43475
3120.41729	5.36215
3118.48872	5.29782
3116.56016	5.22993
3114.63159	5.15359
3112.70303	5.07451
3110.77446	4.99870
3108.84590	4.92660
3106.91733	4.85779
3104.98877	4.79154
3103.06021	4.72073
3101.13164	4.64578
3099.20308	4.57426
3097.27451	4.50596
3095.34595	4.44203
3093.41738	4.38189
3091.48882	4.31520
3089.56025	4.24211
3087.63169	4.17306
3085.70312	4.11095
3083.77456	4.05155
3081.84600	3.99017
3079.91743	3.92538
3077.98887	3.86044
3076.06030	3.79760
3074.13174	3.73502
3072.20317	3.67244
3070.27461	3.61151
3068.34604	3.55305
3066.41748	3.49590
3064.48892	3.43909
3062.56035	3.38305
3060.63179	3.32762
3058.70322	3.27253
3056.77466	3.21718
3054.84609	3.16186
3052.91753	3.10817
3050.98896	3.05633
3049.06040	3.00482
3047.13184	2.95289
3045.20327	2.90163
3043.27471	2.85098
3041.34614	2.80109
3039.41758	2.75388
3037.48901	2.70800
3035.56045	2.66085
3033.63188	2.61364
3031.70332	2.56793
3029.77476	2.52323
3027.84619	2.47897
3025.91763	2.43471
3023.98906	2.39063
3022.06050	2.34790
3020.13193	2.30722
3018.20337	2.26797
3016.27480	2.22878
3014.34624	2.18922
3012.41768	2.14978
3010.48911	2.11066
3008.56055	2.07213
3006.63198	2.03451
3004.70342	1.99782
3002.77485	1.96217
3000.84629	1.92742
2998.91772	1.89317
2996.98916	1.85957
2995.06060	1.82665
2993.13203	1.79378
2991.20347	1.76112
2989.27490	1.72933
2987.34634	1.69825
2985.41777	1.66805
2983.48921	1.63870
2981.56064	1.60945
2979.63208	1.58029
2977.70352	1.55155
2975.77495	1.52349
2973.84639	1.49625
2971.91782	1.46937
2969.98926	1.44252
2968.06069	1.41605
2966.13213	1.39048
2964.20356	1.36597
2962.27500	1.34167
2960.34644	1.31680
2958.41787	1.29229
2956.48931	1.26894
2954.56074	1.24612
2952.63218	1.22333
2950.70361	1.20078
2948.77505	1.17871
2946.84648	1.15676
2944.91792	1.13488
2942.98936	1.11353
2941.06079	1.09285
2939.13223	1.07259
2937.20366	1.05265
2935.27510	1.03340
2933.34653	1.01446
2931.41797	0.99507
2929.48940	0.97603
2927.56084	0.95845
2925.63228	0.94139
2923.70371	0.92395
2921.77515	0.90660
2919.84658	0.88976
2917.91802	0.87373
2915.98945	0.85851
2914.06089	0.84352
2912.13232	0.82848
2910.20376	0.81371
2908.27520	0.79950
2906.34663	0.78567
2904.41807	0.77177
2902.48950	0.75788
2900.56094	0.74461
2898.63237	0.73186
2896.70381	0.71929
2894.77524	0.70704
2892.84668	0.69512
2890.91812	0.68362
2888.98955	0.67251
2887.06099	0.66120
2885.13242	0.64966
2883.20386	0.63861
2881.27529	0.62819
2879.34673	0.61784
2877.41816	0.60742
2875.48960	0.59732
2873.56104	0.58758
2871.63247	0.57787
2869.70391	0.56787
2867.77534	0.55750
2865.84678	0.54721
2863.91821	0.53744
2861.98965	0.52786
2860.06108	0.51834
2858.13252	0.50922
2856.20396	0.50015
2854.27539	0.49123
2852.34683	0.48316
2850.41826	0.47578
2848.48970	0.46859
2846.56113	0.46117
2844.63257	0.45365
2842.70400	0.44672
2840.77544	0.44033
2838.84687	0.43417
2836.91831	0.42827
2834.98975	0.42240
2833.06118	0.41634
2831.13262	0.41030
2829.20405	0.40442
2827.27549	0.39860
2825.34692	0.39288
2823.41836	0.38730
2821.48979	0.38159
2819.56123	0.37576
2817.63267	0.37019
2815.70410	0.36494
2813.77554	0.35969
2811.84697	0.35438
2809.91841	0.34907
2807.98984	0.34391
2806.06128	0.33896
2804.13271	0.33413
2802.20415	0.32947
2800.27559	0.32500
2798.34702	0.32049
2796.41846	0.31589
2794.48989	0.31133
2792.56133	0.30685
2790.63276	0.30254
2788.70420	0.29834
2786.77563	0.29424
2784.84707	0.29042
2782.91851	0.28674
2780.98994	0.28291
2779.06138	0.27902
2777.13281	0.27530
2775.20425	0.27177
2773.27568	0.26846
2771.34712	0.26526
2769.41855	0.26196
2767.48999	0.25858
2765.56143	0.25514
2763.63286	0.25166
2761.70430	0.24836
2759.77573	0.24531
2757.84717	0.24235
2755.91860	0.23943
2753.99004	0.23659
2752.06147	0.23384
2750.13291	0.23117
2748.20435	0.22852
2746.27578	0.22584
2744.34722	0.22316
2742.41865	0.22061
2740.49009	0.21823
2738.56152	0.21603
2736.63296	0.21395
2734.70439	0.21179
2732.77583	0.20955
2730.84727	0.20746
2728.91870	0.20550
2726.99014	0.20355
2725.06157	0.20151
2723.13301	0.19937
2721.20444	0.19737
2719.27588	0.19556
2717.34731	0.19374
2715.41875	0.19185
2713.49019	0.19007
2711.56162	0.18855
2709.63306	0.18711
2707.70449	0.18552
2705.77593	0.18385
2703.84736	0.18223
2701.91880	0.18073
2699.99023	0.17928
2698.06167	0.17777
2696.13311	0.17637
2694.20454	0.17523
2692.27598	0.17411
2690.34741	0.17287
2688.41885	0.17159
2686.49028	0.17021
2684.56172	0.16881
2682.63315	0.16765
2680.70459	0.16670
2678.77603	0.16575
2676.84746	0.16476
2674.91890	0.16381
2672.99033	0.16288
2671.06177	0.16190
2669.13320	0.16082
2667.20464	0.15985
2665.27607	0.15915
2663.34751	0.15861
2661.41895	0.15794
2659.49038	0.15705
2657.56182	0.15615
2655.63325	0.15541
2653.70469	0.15487
2651.77612	0.15442
2649.84756	0.15382
2647.91899	0.15309
2645.99043	0.15247
2644.06187	0.15197
2642.13330	0.15149
2640.20474	0.15110
2638.27617	0.15083
2636.34761	0.15052
2634.41904	0.15000
2632.49048	0.14939
2630.56191	0.14898
2628.63335	0.14881
2626.70479	0.14869
2624.77622	0.14850
2622.84766	0.14830
2620.91909	0.14810
2618.99053	0.14791
2617.06196	0.14770
2615.13340	0.14757
2613.20483	0.14755
2611.27627	0.14755
2609.34771	0.14762
2607.41914	0.14771
2605.49058	0.14764
2603.56201	0.14750
2601.63345	0.14760
2599.70488	0.14782
2597.77632	0.14805
2595.84775	0.14817
2593.91919	0.14813
2591.99062	0.14817
2590.06206	0.14840
2588.13350	0.14875
2586.20493	0.14910
2584.27637	0.14938
2582.34780	0.14965
2580.41924	0.14981
2578.49067	0.14989
2576.56211	0.15022
2574.63354	0.15078
2572.70498	0.15126
2570.77642	0.15164
2568.84785	0.15197
2566.91929	0.15232
2564.99072	0.15284
2563.06216	0.15345
2561.13359	0.15391
2559.20503	0.15426
2557.27646	0.15476
2555.34790	0.15546
2553.41934	0.15617
2551.49077	0.15677
2549.56221	0.15732
2547.63364	0.15787
2545.70508	0.15848
2543.77651	0.15913
2541.84795	0.15976
2539.91938	0.16044
2537.99082	0.16126
2536.06226	0.16205
2534.13369	0.16261
2532.20513	0.16315
2530.27656	0.16394
2528.34800	0.16483
2526.41943	0.16562
2524.49087	0.16626
2522.56230	0.16683
2520.63374	0.16753
2518.70518	0.16843
2516.77661	0.16939
2514.84805	0.17031
2512.91948	0.17117
2510.99092	0.17195
2509.06235	0.17276
2507.13379	0.17355
2505.20522	0.17432
2503.27666	0.17511
2501.34810	0.17595
2499.41953	0.17700
2497.49097	0.17808
2495.56240	0.17892
2493.63384	0.17966
2491.70527	0.18049
2489.77671	0.18135
2487.84814	0.18219
2485.91958	0.18311
2483.99102	0.18410
2482.06245	0.18506
2480.13389	0.18598
2478.20532	0.18690
2476.27676	0.18773
2474.34819	0.18857
2472.41963	0.18963
2470.49106	0.19078
2468.56250	0.19176
2466.63394	0.19259
2464.70537	0.19351
2462.77681	0.19460
2460.84824	0.19561
2458.91968	0.19643
2456.99111	0.19740
2455.06255	0.19870
2453.13398	0.19999
2451.20542	0.20099
2449.27686	0.20184
2447.34829	0.20272
2445.41973	0.20357
2443.49116	0.20441
2441.56260	0.20539
2439.63403	0.20646
2437.70547	0.20750
2435.77690	0.20859
2433.84834	0.20969
2431.91978	0.21065
2429.99121	0.21160
2428.06265	0.21274
2426.13408	0.21401
2424.20552	0.21514
2422.27695	0.21614
2420.34839	0.21724
2418.41982	0.21844
2416.49126	0.21966
2414.56270	0.22086
2412.63413	0.22201
2410.70557	0.22305
2408.77700	0.22420
2406.84844	0.22553
2404.91987	0.22681
2402.99131	0.22812
2401.06274	0.22957
2399.13418	0.23089
2397.20562	0.23192
2395.27705	0.23285
2393.34849	0.23399
2391.41992	0.23547
2389.49136	0.23742
2387.56279	0.24030
2385.63423	0.24497
2383.70566	0.25236
2381.77710	0.26295
2379.84854	0.27642
2377.91997	0.29206
2375.99141	0.30995
2374.06284	0.33074
2372.13428	0.35445
2370.20571	0.38065
2368.27715	0.40841
2366.34858	0.43586
2364.42002	0.46006
2362.49146	0.47788
2360.56289	0.48818
2358.63433	0.48920
2356.70576	0.47767
2354.77720	0.45529
2352.84863	0.42681
2350.92007	0.39782
2348.99150	0.38030
2347.06294	0.38103
2345.13437	0.39961
2343.20581	0.42474
2341.27725	0.43819
2339.34868	0.43908
2337.42012	0.43600
2335.49155	0.43279
2333.56299	0.42962
2331.63442	0.42701
2329.70586	0.42409
2327.77729	0.41942
2325.84873	0.41271
2323.92017	0.40459
2321.99160	0.39572
2320.06304	0.38629
2318.13447	0.37681
2316.20591	0.36865
2314.27734	0.36306
2312.34878	0.35973
2310.42021	0.35670
2308.49165	0.35232
2306.56309	0.34700
2304.63452	0.34229
2302.70596	0.33940
2300.77739	0.33783
2298.84883	0.33646
2296.92026	0.33524
2294.99170	0.33434
2293.06313	0.33342
2291.13457	0.33238
2289.20601	0.33162
2287.27744	0.33111
2285.34888	0.33067
2283.42031	0.33085
2281.49175	0.33236
2279.56318	0.33494
2277.63462	0.33769
2275.70605	0.34025
2273.77749	0.34265
2271.84893	0.34483
2269.92036	0.34681
2267.99180	0.34870
2266.06323	0.35051
2264.13467	0.35225
2262.20610	0.35404
2260.27754	0.35582
2258.34897	0.35750
2256.42041	0.35912
2254.49185	0.36071
2252.56328	0.36234
2250.63472	0.36407
2248.70615	0.36581
2246.77759	0.36766
2244.84902	0.36967
2242.92046	0.37172
2240.99189	0.37373
2239.06333	0.37577
2237.13477	0.37792
2235.20620	0.38010
2233.27764	0.38227
2231.34907	0.38440
2229.42051	0.38650
2227.49194	0.38870
2225.56338	0.39100
2223.63481	0.39324
2221.70625	0.39541
2219.77769	0.39761
2217.84912	0.39978
2215.92056	0.40194
2213.99199	0.40412
2212.06343	0.40632
2210.13486	0.40857
2208.20630	0.41080
2206.27773	0.41287
2204.34917	0.41484
2202.42061	0.41692
2200.49204	0.41917
2198.56348	0.42138
2196.63491	0.42334
2194.70635	0.42512
2192.77778	0.42688
2190.84922	0.42868
2188.92065	0.43051
2186.99209	0.43234
2185.06353	0.43408
2183.13496	0.43572
2181.20640	0.43745
2179.27783	0.43933
2177.34927	0.44115
2175.42070	0.44272
2173.49214	0.44409
2171.56357	0.44543
2169.63501	0.44675
2167.70645	0.44803
2165.77788	0.44926
2163.84932	0.45043
2161.92075	0.45155
2159.99219	0.45265
2158.06362	0.45382
2156.13506	0.45495
2154.20649	0.45587
2152.27793	0.45664
2150.34937	0.45736
2148.42080	0.45793
2146.49224	0.45829
2144.56367	0.45862
2142.63511	0.45910
2140.70654	0.45953
2138.77798	0.45975
2136.84941	0.45988
2134.92085	0.45992
2132.99229	0.45982
2131.06372	0.45972
2129.13516	0.45964
2127.20659	0.45946
2125.27803	0.45920
2123.34946	0.45878
2121.42090	0.45824
2119.49233	0.45766
2117.56377	0.45705
2115.63521	0.45627
2113.70664	0.45537
2111.77808	0.45447
2109.84951	0.45353
2107.92095	0.45248
2105.99238	0.45136
2104.06382	0.45028
2102.13525	0.44909
2100.20669	0.44763
2098.27812	0.44608
2096.34956	0.44463
2094.42100	0.44321
2092.49243	0.44170
2090.56387	0.44006
2088.63530	0.43825
2086.70674	0.43634
2084.77817	0.43431
2082.84961	0.43214
2080.92104	0.42997
2078.99248	0.42797
2077.06392	0.42596
2075.13535	0.42373
2073.20679	0.42139
2071.27822	0.41905
2069.34966	0.41682
2067.42109	0.41472
2065.49253	0.41265
2063.56396	0.41034
2061.63540	0.40777
2059.70684	0.40520
2057.77827	0.40272
2055.84971	0.40026
2053.92114	0.39774
2051.99258	0.39506
2050.06401	0.39223
2048.13545	0.38947
2046.20688	0.38689
2044.27832	0.38443
2042.34976	0.38188
2040.42119	0.37913
2038.49263	0.37631
2036.56406	0.37359
2034.63550	0.37087
2032.70693	0.36798
2030.77837	0.36508
2028.84980	0.36224
2026.92124	0.35944
2024.99268	0.35666
2023.06411	0.35388
2021.13555	0.35116
2019.20698	0.34858
2017.27842	0.34595
2015.34985	0.34302
2013.42129	0.34007
2011.49272	0.33733
2009.56416	0.33467
2007.63560	0.33193
2005.70703	0.32913
2003.77847	0.32641
2001.84990	0.32378
1999.92134	0.32118
1997.99277	0.31853
1996.06421	0.31590
1994.13564	0.31365
1992.20708	0.31170
1990.27852	0.30932
1988.34995	0.30654
1986.42139	0.30375
1984.49282	0.30113
1982.56426	0.29867
1980.63569	0.29625
1978.70713	0.29390
1976.77856	0.29170
1974.85000	0.28966
1972.92144	0.28760
1970.99287	0.28551
1969.06431	0.28365
1967.13574	0.28193
1965.20718	0.27986
1963.27861	0.27757
1961.35005	0.27553
1959.42148	0.27372
1957.49292	0.27194
1955.56436	0.27012
1953.63579	0.26834
1951.70723	0.26657
1949.77866	0.26483
1947.85010	0.26329
1945.92153	0.26213
1943.99297	0.26128
1942.06440	0.26008
1940.13584	0.25804
1938.20728	0.25590
1936.27871	0.25438
1934.35015	0.25331
1932.42158	0.25226
1930.49302	0.25105
1928.56445	0.24983
1926.63589	0.24874
1924.70732	0.24801
1922.77876	0.24750
1920.85020	0.24667
1918.92163	0.24571
1916.99307	0.24473
1915.06450	0.24356
1913.13594	0.24251
1911.20737	0.24188
1909.27881	0.24143
1907.35024	0.24076
1905.42168	0.23990
1903.49312	0.23913
1901.56455	0.23848
1899.63599	0.23788
1897.70742	0.23746
1895.77886	0.23722
1893.85029	0.23692
1891.92173	0.23664
1889.99316	0.23672
1888.06460	0.23655
1886.13604	0.23593
1884.20747	0.23552
1882.27891	0.23532
1880.35034	0.23514
1878.42178	0.23503
1876.49321	0.23501
1874.56465	0.23510
1872.63608	0.23552
1870.70752	0.23656
1868.77896	0.23801
1866.85039	0.23819
1864.92183	0.23709
1862.99326	0.23645
1861.06470	0.23662
1859.13613	0.23709
1857.20757	0.23741
1855.27900	0.23776
1853.35044	0.23815
1851.42187	0.23869
1849.49331	0.23954
1847.56475	0.24075
1845.63618	0.24227
1843.70762	0.24360
1841.77905	0.24382
1839.85049	0.24358
1837.92192	0.24411
1835.99336	0.24510
1834.06479	0.24613
1832.13623	0.24756
1830.20767	0.24977
1828.27910	0.25146
1826.35054	0.25208
1824.42197	0.25301
1822.49341	0.25393
1820.56484	0.25477
1818.63628	0.25596
1816.70771	0.25757
1814.77915	0.25931
1812.85059	0.26138
1810.92202	0.26379
1808.99346	0.26586
1807.06489	0.26746
1805.13633	0.26914
1803.20776	0.27157
1801.27920	0.27469
1799.35063	0.27788
1797.42207	0.28037
1795.49351	0.28289
1793.56494	0.28628
1791.63638	0.29026
1789.70781	0.29295
1787.77925	0.29469
1785.85068	0.29764
1783.92212	0.30154
1781.99355	0.30568
1780.06499	0.30992
1778.13643	0.31406
1776.20786	0.31821
1774.27930	0.32341
1772.35073	0.33039
1770.42217	0.33671
1768.49360	0.34115
1766.56504	0.34560
1764.63647	0.35068
1762.70791	0.35692
1760.77935	0.36477
1758.85078	0.37162
1756.92222	0.37845
1754.99365	0.38612
1753.06509	0.39351
1751.13652	0.40299
1749.20796	0.41466
1747.27939	0.42513
1745.35083	0.43393
1743.42227	0.44345
1741.49370	0.45417
1739.56514	0.46686
1737.63657	0.47939
1735.70801	0.49082
1733.77944	0.50840
1731.85088	0.52796
1729.92231	0.54218
1727.99375	0.55668
1726.06519	0.57304
1724.13662	0.59162
1722.20806	0.61180
1720.27949	0.63089
1718.35093	0.65418
1716.42236	0.68738
1714.49380	0.71683
1712.56523	0.74023
1710.63667	0.76372
1708.70811	0.78975
1706.77954	0.81961
1704.85098	0.85485
1702.92241	0.88599
1700.99385	0.91707
1699.06528	0.96300
1697.13672	1.00436
1695.20815	1.04578
1693.27959	1.08556
1691.35103	1.11816
1689.42246	1.15649
1687.49390	1.19687
1685.56533	1.23594
1683.63677	1.29511
1681.70820	1.35455
1679.77964	1.39198
1677.85107	1.42802
1675.92251	1.47021
1673.99395	1.52279
1672.06538	1.56976
1670.13682	1.61519
1668.20825	1.67182
1666.27969	1.71700
1664.35112	1.75624
1662.42256	1.80527
1660.49399	1.85840
1658.56543	1.89912
1656.63687	1.93326
1654.70830	1.96735
1652.77974	2.02321
1650.85117	2.07287
1648.92261	2.09023
1646.99404	2.11575
1645.06548	2.14551
1643.13691	2.16499
1641.20835	2.17850
1639.27979	2.19202
1637.35122	2.20172
1635.42266	2.20238
1633.49409	2.19354
1631.56553	2.18171
1629.63696	2.16841
1627.70840	2.14383
1625.77983	2.11309
1623.85127	2.07657
1621.92271	2.03228
1619.99414	1.99101
1618.06558	1.95047
1616.13701	1.89205
1614.20845	1.83006
1612.27988	1.78262
1610.35132	1.73450
1608.42275	1.68211
1606.49419	1.62968
1604.56562	1.58148
1602.63706	1.53522
1600.70850	1.48960
1598.77993	1.44717
1596.85137	1.40735
1594.92280	1.36886
1592.99424	1.33137
1591.06567	1.29644
1589.13711	1.26332
1587.20854	1.23226
1585.27998	1.20364
1583.35142	1.17681
1581.42285	1.15173
1579.49429	1.13008
1577.56572	1.11120
1575.63716	1.08748
1573.70859	1.06452
1571.78003	1.04925
1569.85146	1.03393
1567.92290	1.01581
1565.99434	1.00082
1564.06577	0.98853
1562.13721	0.97890
1560.20864	0.97249
1558.28008	0.96120
1556.35151	0.94691
1554.42295	0.93709
1552.49438	0.92831
1550.56582	0.91986
1548.63726	0.91077
1546.70869	0.90217
1544.78013	0.89454
1542.85156	0.88717
1540.92300	0.87774
1538.99443	0.86064
1537.06587	0.84610
1535.13730	0.83728
1533.20874	0.82737
1531.28018	0.81590
1529.35161	0.80703
1527.42305	0.79956
1525.49448	0.79217
1523.56592	0.78558
1521.63735	0.77910
1519.70879	0.77139
1517.78022	0.76426
1515.85166	0.75677
1513.92310	0.74899
1511.99453	0.74263
1510.06597	0.73813
1508.13740	0.73554
1506.20884	0.72891
1504.28027	0.71864
1502.35171	0.71234
1500.42314	0.70827
1498.49458	0.70485
1496.56602	0.70062
1494.63745	0.69557
1492.70889	0.69171
1490.78032	0.68943
1488.85176	0.68668
1486.92319	0.68205
1484.99463	0.67741
1483.06606	0.67398
1481.13750	0.67144
1479.20894	0.66934
1477.28037	0.66800
1475.35181	0.66743
1473.42324	0.66672
1471.49468	0.66391
1469.56611	0.65987
1467.63755	0.65691
1465.70898	0.65508
1463.78042	0.65321
1461.85186	0.65130
1459.92329	0.65081
1457.99473	0.65171
1456.06616	0.65022
1454.13760	0.64557
1452.20903	0.64178
1450.28047	0.63914
1448.35190	0.63707
1446.42334	0.63477
1444.49478	0.63236
1442.56621	0.63028
1440.63765	0.62856
1438.70908	0.62735
1436.78052	0.62616
1434.85195	0.62387
1432.92339	0.62133
1430.99482	0.61963
1429.06626	0.61823
1427.13770	0.61681
1425.20913	0.61595
1423.28057	0.61543
1421.35200	0.61481
1419.42344	0.61437
1417.49487	0.61327
1415.56631	0.61099
1413.63774	0.60894
1411.70918	0.60754
1409.78062	0.60648
1407.85205	0.60569
1405.92349	0.60525
1403.99492	0.60456
1402.06636	0.60344
1400.13779	0.60262
1398.20923	0.60195
1396.28066	0.60067
1394.35210	0.59849
1392.42354	0.59564
1390.49497	0.59308
1388.56641	0.59137
1386.63784	0.58984
1384.70928	0.58759
1382.78071	0.58512
1380.85215	0.58296
1378.92358	0.58122
1376.99502	0.58001
1375.06646	0.57934
1373.13789	0.57853
1371.20933	0.57720
1369.28076	0.57597
1367.35220	0.57494
1365.42363	0.57412
1363.49507	0.57375
1361.56650	0.57309
1359.63794	0.57146
1357.70937	0.56971
1355.78081	0.56847
1353.85225	0.56757
1351.92368	0.56665
1349.99512	0.56577
1348.06655	0.56496
1346.13799	0.56407
1344.20942	0.56309
1342.28086	0.56236
1340.35229	0.56213
1338.42373	0.56166
1336.49517	0.56033
1334.56660	0.55879
1332.63804	0.55770
1330.70947	0.55701
1328.78091	0.55648
1326.85234	0.55608
1324.92378	0.55573
1322.99521	0.55532
1321.06665	0.55506
1319.13809	0.55492
1317.20952	0.55438
1315.28096	0.55347
1313.35239	0.55261
1311.42383	0.55193
1309.49526	0.55129
1307.56670	0.55059
1305.63813	0.54976
1303.70957	0.54883
1301.78101	0.54794
1299.85244	0.54710
1297.92388	0.54628
1295.99531	0.54555
1294.06675	0.54485
1292.13818	0.54408
1290.20962	0.54335
1288.28105	0.54268
1286.35249	0.54189
1284.42393	0.54106
1282.49536	0.54038
1280.56680	0.53984
1278.63823	0.53925
1276.70967	0.53865
1274.78110	0.53812
1272.85254	0.53756
1270.92397	0.53697
1268.99541	0.53638
1267.06685	0.53569
1265.13828	0.53500
1263.20972	0.53453
1261.28115	0.53420
1259.35259	0.53383
1257.42402	0.53336
1255.49546	0.53295
1253.56689	0.53269
1251.63833	0.53238
1249.70977	0.53210
1247.78120	0.53192
1245.85264	0.53156
1243.92407	0.53098
1241.99551	0.53037
1240.06694	0.52964
1238.13838	0.52874
1236.20981	0.52784
1234.28125	0.52699
1232.35269	0.52614
1230.42412	0.52524
1228.49556	0.52428
1226.56699	0.52327
1224.63843	0.52235
1222.70986	0.52151
1220.78130	0.52057
1218.85273	0.51959
1216.92417	0.51878
1214.99561	0.51813
1213.06704	0.51753
1211.13848	0.51686
1209.20991	0.51612
1207.28135	0.51547
1205.35278	0.51492
1203.42422	0.51425
1201.49565	0.51342
1199.56709	0.51262
1197.63853	0.51199
1195.70996	0.51141
1193.78140	0.51089
1191.85283	0.51053
1189.92427	0.51033
1187.99570	0.51008
1186.06714	0.50974
1184.13857	0.50940
1182.21001	0.50926
1180.28145	0.50956
1178.35288	0.51021
1176.42432	0.51093
1174.49575	0.51153
1172.56719	0.51194
1170.63862	0.51224
1168.71006	0.51265
1166.78149	0.51314
1164.85293	0.51364
1162.92437	0.51406
1160.99580	0.51412
1159.06724	0.51386
1157.13867	0.51342
1155.21011	0.51275
1153.28154	0.51166
1151.35298	0.51011
1149.42441	0.50830
1147.49585	0.50625
1145.56729	0.50395
1143.63872	0.50157
1141.71016	0.49919
1139.78159	0.49710
1137.85303	0.49549
1135.92446	0.49406
1133.99590	0.49264
1132.06733	0.49138
1130.13877	0.49029
1128.21021	0.48920
1126.28164	0.48819
1124.35308	0.48734
1122.42451	0.48659
1120.49595	0.48600
1118.56738	0.48575
1116.63882	0.48570
1114.71025	0.48554
1112.78169	0.48548
1110.85312	0.48590
1108.92456	0.48671
1106.99600	0.48755
1105.06743	0.48843
1103.13887	0.48975
1101.21030	0.49155
1099.28174	0.49345
1097.35317	0.49553
1095.42461	0.49820
1093.49604	0.50161
1091.56748	0.50586
1089.63892	0.51118
1087.71035	0.51766
1085.78179	0.52485
1083.85322	0.53225
1081.92466	0.53928
1079.99609	0.54498
1078.06753	0.54861
1076.13896	0.54953
1074.21040	0.54730
1072.28184	0.54258
1070.35327	0.53641
1068.42471	0.52948
1066.49614	0.52259
1064.56758	0.51635
1062.63901	0.51067
1060.71045	0.50546
1058.78188	0.50092
1056.85332	0.49702
1054.92476	0.49361
1052.99619	0.49075
1051.06763	0.48837
1049.13906	0.48632
1047.21050	0.48486
1045.28193	0.48427
1043.35337	0.48413
1041.42480	0.48383
1039.49624	0.48354
1037.56768	0.48350
1035.63911	0.48350
1033.71055	0.48330
1031.78198	0.48292
1029.85342	0.48242
1027.92485	0.48174
1025.99629	0.48100
1024.06772	0.48045
1022.13916	0.48024
1020.21060	0.48049
1018.28203	0.48126
1016.35347	0.48210
1014.42490	0.48269
1012.49634	0.48324
1010.56777	0.48387
1008.63921	0.48474
1006.71064	0.48597
1004.78208	0.48746
1002.85352	0.48928
1000.92495	0.49179
998.99639	0.49508
997.06782	0.49891
995.13926	0.50303
993.21069	0.50714
991.28213	0.51074
989.35356	0.51331
987.42500	0.51465
985.49644	0.51522
983.56787	0.51573
981.63931	0.51662
979.71074	0.51791
977.78218	0.51966
975.85361	0.52199
973.92505	0.52476
971.99648	0.52772
970.06792	0.53097
968.13936	0.53471
966.21079	0.53889
964.28223	0.54361
962.35366	0.54884
960.42510	0.55411
958.49653	0.55937
956.56797	0.56504
954.63940	0.57111
952.71084	0.57737
950.78228	0.58385
948.85371	0.59051
946.92515	0.59691
944.99658	0.60307
943.06802	0.60936
941.13945	0.61550
939.21089	0.62127
937.28232	0.62704
935.35376	0.63310
933.42520	0.63919
931.49663	0.64481
929.56807	0.65013
927.63950	0.65584
925.71094	0.66249
923.78237	0.66956
921.85381	0.67590
919.92524	0.68189
917.99668	0.68864
916.06812	0.69622
914.13955	0.70459
912.21099	0.71360
910.28242	0.72244
908.35386	0.73068
906.42529	0.73861
904.49673	0.74647
902.56816	0.75467
900.63960	0.76420
898.71104	0.77448
896.78247	0.78430
894.85391	0.79446
892.92534	0.80513
890.99678	0.81505
889.06821	0.82468
887.13965	0.83582
885.21108	0.84869
883.28252	0.86154
881.35396	0.87391
879.42539	0.88643
877.49683	0.89855
875.56826	0.91040
873.63970	0.92175
871.71113	0.93202
869.78257	0.94228
867.85400	0.95280
865.92544	0.96369
863.99687	0.97607
862.06831	0.98970
860.13975	1.00273
858.21118	1.01423
856.28262	1.02538
854.35405	1.03760
852.42549	1.05002
850.49692	1.06177
848.56836	1.07385
846.63979	1.08614
844.71123	1.09790
842.78267	1.10989
840.85410	1.12169
838.92554	1.13139
836.99697	1.14150
835.06841	1.15552
833.13984	1.16920
831.21128	1.17824
829.28271	1.18836
827.35415	1.20408
825.42559	1.21974
823.49702	1.23451
821.56846	1.25280
819.63989	1.27470
817.71133	1.29258
815.78276	1.29558
813.85420	1.29923
811.92563	1.32413
809.99707	1.34942
808.06851	1.34859
806.13994	1.34630
804.21138	1.36260
802.28281	1.38279
800.35425	1.41057
798.42568	1.46114
796.49712	1.51105
794.56855	1.55054
792.63999	1.60468
790.71143	1.61606
788.78286	1.57226
786.85430	1.61532
784.92573	1.80043
782.99717	1.92627
781.06860	1.79398
779.14004	1.70883
777.21147	1.78615
775.28291	2.14882
773.35435	2.21553
771.42578	1.78307
769.49722	1.63344
767.56865	1.65256
765.64009	1.70151
763.71152	1.58480
761.78296	1.45055
759.85439	1.40911
757.92583	1.38479
755.99727	1.28539
754.06870	1.18250
752.14014	1.17580
750.21157	1.34424
748.28301	1.66787
746.35444	1.39623
744.42588	1.07869
742.49731	0.96547
740.56875	0.95895
738.64019	0.90958
736.71162	0.78033
734.78306	0.68336
732.85449	0.66556
730.92593	0.70613
728.99736	0.64934
727.06880	0.49672
725.14023	0.41490
723.21167	0.40583
721.28311	0.38126
719.35454	0.32324
717.42598	0.27278
715.49741	0.19356
713.56885	0.07160
711.64028	0.04135
709.71172	0.12541
707.78315	0.16905
705.85459	0.11190
703.92603	0.02019
701.99746	-0.05208
700.06890	0.03297
698.14033	0.18639
696.21177	0.26981
694.28320	0.16266
692.35464	0.01384
690.42607	0.01579
688.49751	0.07984
686.56895	0.08377
684.64038	0.09074
682.71182	0.18081
680.78325	0.29171
678.85469	0.36103
676.92612	0.32742
674.99756	0.24779
673.06899	0.19423
671.14043	0.19155
669.21187	0.16355
667.28330	0.11202
665.35474	0.08324
663.42617	0.06581
661.49761	0.10147
659.56904	0.24644
657.64048	0.31497
655.71191	0.21128
653.78335	0.14001
651.85479	0.17736
649.92622	0.32390
647.99766	0.32276
646.06909	0.22118
644.14053	0.17793
642.21196	0.14827
640.28340	0.04782
638.35483	-0.04853
636.42627	-0.02155
634.49771	0.08386
632.56914	0.17789
630.64058	0.25517
628.71201	0.24669
626.78345	0.20616
624.85488	0.22181
622.92632	0.26963
620.99775	0.24767
619.06919	0.14904
617.14062	0.05322
615.21206	-0.01311
613.28350	-0.02741
611.35493	0.03677
609.42637	0.10969
607.49780	0.10825
605.56924	0.10614
603.64067	0.13178
601.71211	0.16779
599.78354	0.24344
597.85498	0.28384
595.92642	0.15736
593.99785	0.05311
592.06929	0.06310
590.14072	0.13309
588.21216	0.17789
586.28359	0.15349
584.35503	0.13250
582.42646	0.14807
580.49790	0.15297
578.56934	0.12117
576.64077	0.07807
574.71221	0.09420
572.78364	0.22164
570.85508	0.33636
568.92651	0.23312
566.99795	0.10936
565.06938	0.10339
563.14082	0.10082
561.21226	0.06950
559.28369	0.06268
557.35513	0.04996
555.42656	0.03309
553.49800	0.07604
551.56943	0.17572
549.64087	0.22650
547.71230	0.17614
545.78374	0.13089
543.85518	0.13823
541.92661	0.18743
539.99805	0.25748
538.06948	0.30330
536.14092	0.28119
534.21235	0.18358
532.28379	0.05643
530.35522	0.00919
528.42666	0.05217
526.49810	0.13731
524.56953	0.19188
522.64097	0.19337
520.71240	0.18749
518.78384	0.17257
516.85527	0.15150
514.92671	0.16883
512.99814	0.22867
511.06958	0.25415
509.14102	0.20342
507.21245	0.14506
505.28389	0.09008
503.35532	0.05578
501.42676	0.04115
499.49819	0.04585
