3997.91411	0.07948
3995.98555	0.07958
3994.05698	0.08021
3992.12842	0.08106
3990.19985	0.08162
3988.27129	0.08187
3986.34272	0.08182
3984.41416	0.08153
3982.48560	0.08157
3980.55703	0.08222
3978.62847	0.08272
3976.69990	0.08272
3974.77134	0.08266
3972.84277	0.08246
3970.91421	0.08225
3968.98564	0.08260
3967.05708	0.08331
3965.12852	0.08362
3963.19995	0.08336
3961.27139	0.08298
3959.34282	0.08282
3957.41426	0.08285
3955.48569	0.08307
3953.55713	0.08337
3951.62856	0.08359
3949.70000	0.08387
3947.77144	0.08419
3945.84287	0.08410
3943.91431	0.08378
3941.98574	0.08374
3940.05718	0.08358
3938.12861	0.08327
3936.20005	0.08340
3934.27148	0.08371
3932.34292	0.08385
3930.41436	0.08389
3928.48579	0.08378
3926.55723	0.08356
3924.62866	0.08352
3922.70010	0.08342
3920.77153	0.08302
3918.84297	0.08271
3916.91440	0.08286
3914.98584	0.08320
3913.05728	0.08308
3911.12871	0.08260
3909.20015	0.08232
3907.27158	0.08258
3905.34302	0.08301
3903.41445	0.08314
3901.48589	0.08325
3899.55732	0.08347
3897.62876	0.08322
3895.70020	0.08253
3893.77163	0.08201
3891.84307	0.08209
3889.91450	0.08261
3887.98594	0.08307
3886.05737	0.08353
3884.12881	0.08393
3882.20024	0.08395
3880.27168	0.08388
3878.34312	0.08396
3876.41455	0.08392
3874.48599	0.08380
3872.55742	0.08370
3870.62886	0.08379
3868.70029	0.08460
3866.77173	0.08516
3864.84316	0.08500
3862.91460	0.08514
3860.98604	0.08547
3859.05747	0.08555
3857.12891	0.08572
3855.20034	0.08620
3853.27178	0.08733
3851.34321	0.08885
3849.41465	0.08899
3847.48608	0.08862
3845.55752	0.08881
3843.62896	0.08944
3841.70039	0.08983
3839.77183	0.09015
3837.84326	0.09121
3835.91470	0.09231
3833.98613	0.09252
3832.05757	0.09278
3830.12900	0.09358
3828.20044	0.09405
3826.27187	0.09419
3824.34331	0.09457
3822.41475	0.09526
3820.48618	0.09679
3818.55762	0.09832
3816.62905	0.09918
3814.70049	0.10046
3812.77192	0.10139
3810.84336	0.10146
3808.91479	0.10149
3806.98623	0.10227
3805.05767	0.10383
3803.12910	0.10527
3801.20054	0.10680
3799.27197	0.10808
3797.34341	0.10868
3795.41484	0.10957
3793.48628	0.11060
3791.55771	0.11165
3789.62915	0.11296
3787.70059	0.11432
3785.77202	0.11571
3783.84346	0.11731
3781.91489	0.11898
3779.98633	0.12073
3778.05776	0.12264
3776.12920	0.12407
3774.20063	0.12494
3772.27207	0.12582
3770.34351	0.12740
3768.41494	0.12996
3766.48638	0.13231
3764.55781	0.13425
3762.62925	0.13594
3760.70068	0.13746
3758.77212	0.13971
3756.84355	0.14240
3754.91499	0.14446
3752.98643	0.14661
3751.05786	0.14992
3749.12930	0.15377
3747.20073	0.15603
3745.27217	0.15789
3743.34360	0.16139
3741.41504	0.16498
3739.48647	0.16754
3737.55791	0.17059
3735.62935	0.17548
3733.70078	0.18185
3731.77222	0.18697
3729.84365	0.19065
3727.91509	0.19428
3725.98652	0.19915
3724.05796	0.20545
3722.12939	0.21231
3720.20083	0.21954
3718.27227	0.22704
3716.34370	0.23446
3714.41514	0.24150
3712.48657	0.24978
3710.55801	0.26250
3708.62944	0.27707
3706.70088	0.28866
3704.77231	0.29930
3702.84375	0.31184
3700.91519	0.32822
3698.98662	0.34622
3697.05806	0.36324
3695.12949	0.38140
3693.20093	0.40061
3691.27236	0.42103
3689.34380	0.44771
3687.41523	0.48186
3685.48667	0.51259
3683.55811	0.53879
3681.62954	0.56643
3679.70098	0.59723
3677.77241	0.62935
3675.84385	0.66767
3673.91528	0.71984
3671.98672	0.76197
3670.05815	0.79905
3668.12959	0.85177
3666.20103	0.90104
3664.27246	0.94197
3662.34390	0.98533
3660.41533	1.03142
3658.48677	1.07605
3656.55820	1.12365
3654.62964	1.17767
3652.70107	1.22319
3650.77251	1.26190
3648.84395	1.31512
3646.91538	1.38234
3644.98682	1.43288
3643.05825	1.47214
3641.12969	1.51307
3639.20112	1.55811
3637.27256	1.60204
3635.34399	1.64378
3633.41543	1.68605
3631.48687	1.72568
3629.55830	1.76437
3627.62974	1.81636
3625.70117	1.86843
3623.77261	1.90420
3621.84404	1.93711
3619.91548	1.97414
3617.98691	2.01901
3616.05835	2.06320
3614.12979	2.10070
3612.20122	2.13937
3610.27266	2.17798
3608.34409	2.21733
3606.41553	2.25967
3604.48696	2.29900
3602.55840	2.33369
3600.62983	2.37096
3598.70127	2.41232
3596.77271	2.45276
3594.84414	2.49209
3592.91558	2.53238
3590.98701	2.57179
3589.05845	2.60949
3587.12988	2.65426
3585.20132	2.70380
3583.27275	2.74642
3581.34419	2.78447
3579.41562	2.82221
3577.48706	2.86202
3575.55850	2.90505
3573.62993	2.95028
3571.70137	2.99310
3569.77280	3.03289
3567.84424	3.07547
3565.91567	3.12672
3563.98711	3.17513
3562.05854	3.21548
3560.12998	3.25782
3558.20142	3.30473
3556.27285	3.35210
3554.34429	3.39522
3552.41572	3.43761
3550.48716	3.48386
3548.55859	3.53208
3546.63003	3.57985
3544.70146	3.62844
3542.77290	3.67650
3540.84434	3.72238
3538.91577	3.76825
3536.98721	3.81498
3535.05864	3.86278
3533.13008	3.90981
3531.20151	3.95586
3529.27295	4.00198
3527.34438	4.05179
3525.41582	4.10348
3523.48726	4.15110
3521.55869	4.19857
3519.63013	4.24869
3517.70156	4.29921
3515.77300	4.34925
3513.84443	4.39973
3511.91587	4.44963
3509.98730	4.49917
3508.05874	4.54732
3506.13018	4.59116
3504.20161	4.63228
3502.27305	4.67548
3500.34448	4.72488
3498.41592	4.77385
3496.48735	4.81912
3494.55879	4.86885
3492.63022	4.92468
3490.70166	4.97924
3488.77310	5.02707
3486.84453	5.07077
3484.91597	5.11856
3482.98740	5.17373
3481.05884	5.22990
3479.13027	5.27462
3477.20171	5.31213
3475.27314	5.36104
3473.34458	5.41804
3471.41602	5.46790
3469.48745	5.51438
3467.55889	5.56275
3465.63032	5.61434
3463.70176	5.67100
3461.77319	5.72264
3459.84463	5.76842
3457.91606	5.81465
3455.98750	5.85572
3454.05894	5.88953
3452.13037	5.93203
3450.20181	5.98554
3448.27324	6.03344
3446.34468	6.08466
3444.41611	6.15170
3442.48755	6.22119
3440.55898	6.27233
3438.63042	6.31139
3436.70186	6.35370
3434.77329	6.40748
3432.84473	6.47432
3430.91616	6.53655
3428.98760	6.59253
3427.05903	6.63746
3425.13047	6.67543
3423.20190	6.72182
3421.27334	6.76394
3419.34478	6.79504
3417.41621	6.82711
3415.48765	6.86104
3413.55908	6.91663
3411.63052	7.01000
3409.70195	7.08312
3407.77339	7.10718
3405.84482	7.13323
3403.91626	7.17753
3401.98770	7.19798
3400.05913	7.21392
3398.13057	7.24926
3396.20200	7.27520
3394.27344	7.32716
3392.34487	7.44052
3390.41631	7.58043
3388.48774	7.66546
3386.55918	7.65999
3384.63062	7.59502
3382.70205	7.54938
3380.77349	7.56842
3378.84492	7.64087
3376.91636	7.76202
3374.98779	7.87393
3373.05923	7.90756
3371.13066	7.86793
3369.20210	7.86286
3367.27354	7.92351
3365.34497	7.96608
3363.41641	7.98395
3361.48784	8.00752
3359.55928	8.02676
3357.63071	8.03847
3355.70215	8.04383
3353.77358	8.03685
3351.84502	8.03166
3349.91646	8.00932
3347.98789	8.03140
3346.05933	8.14759
3344.13076	8.24942
3342.20220	8.21795
3340.27363	8.11845
3338.34507	8.09271
3336.41650	8.10900
3334.48794	8.15778
3332.55937	8.25108
3330.63081	8.29660
3328.70225	8.26360
3326.77368	8.21370
3324.84512	8.19546
3322.91655	8.19772
3320.98799	8.20838
3319.05942	8.18231
3317.13086	8.15351
3315.20229	8.21977
3313.27373	8.31446
3311.34517	8.29564
3309.41660	8.23450
3307.48804	8.22747
3305.55947	8.26074
3303.63091	8.30488
3301.70234	8.29040
3299.77378	8.23127
3297.84521	8.19315
3295.91665	8.21300
3293.98809	8.26846
3292.05952	8.30886
3290.13096	8.35067
3288.20239	8.37092
3286.27383	8.30474
3284.34526	8.22681
3282.41670	8.24176
3280.48813	8.29726
3278.55957	8.34149
3276.63101	8.39042
3274.70244	8.45854
3272.77388	8.48147
3270.84531	8.37083
3268.91675	8.23150
3266.98818	8.19962
3265.05962	8.27933
3263.13105	8.35969
3261.20249	8.41059
3259.27393	8.48571
3257.34536	8.50358
3255.41680	8.36019
3253.48823	8.23756
3251.55967	8.27493
3249.63110	8.34663
3247.70254	8.40598
3245.77397	8.47760
3243.84541	8.45658
3241.91685	8.32488
3239.98828	8.23597
3238.05972	8.26002
3236.13115	8.31552
3234.20259	8.33007
3232.27402	8.30160
3230.34546	8.27536
3228.41689	8.28894
3226.48833	8.33402
3224.55977	8.36575
3222.63120	8.34498
3220.70264	8.31253
3218.77407	8.34119
3216.84551	8.42154
3214.91694	8.40606
3212.98838	8.26971
3211.05981	8.19676
3209.13125	8.21803
3207.20269	8.24676
3205.27412	8.21901
3203.34556	8.08762
3201.41699	7.93541
3199.48843	7.83480
3197.55986	7.77253
3195.63130	7.75471
3193.70273	7.73627
3191.77417	7.65624
3189.84561	7.58512
3187.91704	7.57047
3185.98848	7.56326
3184.05991	7.54815
3182.13135	7.50132
3180.20278	7.41236
3178.27422	7.36620
3176.34565	7.36485
3174.41709	7.29824
3172.48853	7.17938
3170.55996	7.08989
3168.63140	7.04059
3166.70283	7.00044
3164.77427	6.92985
3162.84570	6.84090
3160.91714	6.77387
3158.98857	6.72667
3157.06001	6.66571
3155.13145	6.59389
3153.20288	6.53362
3151.27432	6.47897
3149.34575	6.42691
3147.41719	6.36529
3145.48862	6.28182
3143.56006	6.20311
3141.63149	6.14277
3139.70293	6.08044
3137.77437	6.01120
3135.84580	5.93934
3133.91724	5.86291
3131.98867	5.78730
3130.06011	5.71248
3128.13154	5.63274
3126.20298	5.55045
3124.27441	5.46840
3122.34585	5.38807
3120.41729	5.31899
3118.48872	5.25982
3116.56016	5.19518
3114.63159	5.12576
3112.70303	5.05897
3110.77446	4.98976
3108.84590	4.91796
3106.91733	4.85015
3104.98877	4.78550
3103.06021	4.71752
3101.13164	4.64181
3099.20308	4.56628
3097.27451	4.49750
3095.34595	4.42848
3093.41738	4.35849
3091.48882	4.29457
3089.56025	4.23584
3087.63169	4.17667
3085.70312	4.11370
3083.77456	4.04667
3081.84600	3.98048
3079.91743	3.91793
3077.98887	3.85765
3076.06030	3.79904
3074.13174	3.73894
3072.20317	3.67691
3070.27461	3.61751
3068.34604	3.56114
3066.41748	3.50530
3064.48892	3.44945
3062.56035	3.39354
3060.63179	3.33796
3058.70322	3.28386
3056.77466	3.23122
3054.84609	3.17831
3052.91753	3.12355
3050.98896	3.06801
3049.06040	3.01457
3047.13184	2.96442
3045.20327	2.91574
3043.27471	2.86667
3041.34614	2.81833
3039.41758	2.77156
3037.48901	2.72450
3035.56045	2.67709
3033.63188	2.63104
3031.70332	2.58566
3029.77476	2.54019
3027.84619	2.49605
3025.91763	2.45302
3023.98906	2.40964
3022.06050	2.36628
3020.13193	2.32392
3018.20337	2.28336
3016.27480	2.24456
3014.34624	2.20621
3012.41768	2.16732
3010.48911	2.12846
3008.56055	2.09101
3006.63198	2.05507
3004.70342	2.01910
3002.77485	1.98254
3000.84629	1.94697
2998.91772	1.91303
2996.98916	1.87988
2995.06060	1.84727
2993.13203	1.81511
2991.20347	1.78366
2989.27490	1.75319
2987.34634	1.72333
2985.41777	1.69375
2983.48921	1.66437
2981.56064	1.63569
2979.63208	1.60801
2977.70352	1.58066
2975.77495	1.55341
2973.84639	1.52672
2971.91782	1.50113
2969.98926	1.47675
2968.06069	1.45273
2966.13213	1.42852
2964.20356	1.40411
2962.27500	1.37977
2960.34644	1.35580
2958.41787	1.33174
2956.48931	1.30742
2954.56074	1.28359
2952.63218	1.26078
2950.70361	1.23866
2948.77505	1.21650
2946.84648	1.19410
2944.91792	1.17240
2942.98936	1.15202
2941.06079	1.13240
2939.13223	1.11291
2937.20366	1.09325
2935.27510	1.07346
2933.34653	1.05389
2931.41797	1.03463
2929.48940	1.01568
2927.56084	0.99726
2925.63228	0.97965
2923.70371	0.96300
2921.77515	0.94643
2919.84658	0.92928
2917.91802	0.91214
2915.98945	0.89546
2914.06089	0.87915
2912.13232	0.86319
2910.20376	0.84741
2908.27520	0.83199
2906.34663	0.81741
2904.41807	0.80324
2902.48950	0.78914
2900.56094	0.77548
2898.63237	0.76244
2896.70381	0.74996
2894.77524	0.73750
2892.84668	0.72507
2890.91812	0.71310
2888.98955	0.70115
2887.06099	0.68940
2885.13242	0.67861
2883.20386	0.66835
2881.27529	0.65802
2879.34673	0.64789
2877.41816	0.63798
2875.48960	0.62797
2873.56104	0.61804
2871.63247	0.60845
2869.70391	0.59853
2867.77534	0.58773
2865.84678	0.57668
2863.91821	0.56604
2861.98965	0.55584
2860.06108	0.54586
2858.13252	0.53605
2856.20396	0.52646
2854.27539	0.51714
2852.34683	0.50847
2850.41826	0.50045
2848.48970	0.49235
2846.56113	0.48418
2844.63257	0.47661
2842.70400	0.46975
2840.77544	0.46316
2838.84687	0.45649
2836.91831	0.44985
2834.98975	0.44344
2833.06118	0.43737
2831.13262	0.43145
2829.20405	0.42540
2827.27549	0.41929
2825.34692	0.41341
2823.41836	0.40770
2821.48979	0.40193
2819.56123	0.39618
2817.63267	0.39054
2815.70410	0.38497
2813.77554	0.37948
2811.84697	0.37415
2809.91841	0.36884
2807.98984	0.36335
2806.06128	0.35793
2804.13271	0.35291
2802.20415	0.34817
2800.27559	0.34334
2798.34702	0.33849
2796.41846	0.33398
2794.48989	0.32958
2792.56133	0.32495
2790.63276	0.32033
2788.70420	0.31596
2786.77563	0.31176
2784.84707	0.30771
2782.91851	0.30379
2780.98994	0.29979
2779.06138	0.29567
2777.13281	0.29166
2775.20425	0.28798
2773.27568	0.28448
2771.34712	0.28097
2769.41855	0.27751
2767.48999	0.27416
2765.56143	0.27087
2763.63286	0.26758
2761.70430	0.26419
2759.77573	0.26083
2757.84717	0.25773
2755.91860	0.25488
2753.99004	0.25209
2752.06147	0.24926
2750.13291	0.24646
2748.20435	0.24368
2746.27578	0.24078
2744.34722	0.23784
2742.41865	0.23519
2740.49009	0.23292
2738.56152	0.23062
2736.63296	0.22817
2734.70439	0.22577
2732.77583	0.22337
2730.84727	0.22099
2728.91870	0.21885
2726.99014	0.21678
2725.06157	0.21461
2723.13301	0.21247
2721.20444	0.21037
2719.27588	0.20831
2717.34731	0.20640
2715.41875	0.20465
2713.49019	0.20303
2711.56162	0.20139
2709.63306	0.19954
2707.70449	0.19767
2705.77593	0.19599
2703.84736	0.19440
2701.91880	0.19282
2699.99023	0.19134
2698.06167	0.18994
2696.13311	0.18851
2694.20454	0.18699
2692.27598	0.18561
2690.34741	0.18448
2688.41885	0.18334
2686.49028	0.18206
2684.56172	0.18088
2682.63315	0.17988
2680.70459	0.17876
2678.77603	0.17751
2676.84746	0.17639
2674.91890	0.17542
2672.99033	0.17436
2671.06177	0.17318
2669.13320	0.17209
2667.20464	0.17123
2665.27607	0.17047
2663.34751	0.16955
2661.41895	0.16854
2659.49038	0.16772
2657.56182	0.16717
2655.63325	0.16661
2653.70469	0.16585
2651.77612	0.16504
2649.84756	0.16429
2647.91899	0.16364
2645.99043	0.16308
2644.06187	0.16256
2642.13330	0.16204
2640.20474	0.16151
2638.27617	0.16111
2636.34761	0.16074
2634.41904	0.16028
2632.49048	0.15991
2630.56191	0.15964
2628.63335	0.15929
2626.70479	0.15874
2624.77622	0.15824
2622.84766	0.15807
2620.91909	0.15801
2618.99053	0.15774
2617.06196	0.15738
2615.13340	0.15721
2613.20483	0.15720
2611.27627	0.15715
2609.34771	0.15703
2607.41914	0.15684
2605.49058	0.15665
2603.56201	0.15657
2601.63345	0.15662
2599.70488	0.15675
2597.77632	0.15690
2595.84775	0.15692
2593.91919	0.15690
2591.99062	0.15697
2590.06206	0.15705
2588.13350	0.15720
2586.20493	0.15750
2584.27637	0.15780
2582.34780	0.15801
2580.41924	0.15825
2578.49067	0.15847
2576.56211	0.15871
2574.63354	0.15898
2572.70498	0.15928
2570.77642	0.15961
2568.84785	0.15989
2566.91929	0.16023
2564.99072	0.16065
2563.06216	0.16107
2561.13359	0.16152
2559.20503	0.16197
2557.27646	0.16232
2555.34790	0.16274
2553.41934	0.16337
2551.49077	0.16404
2549.56221	0.16467
2547.63364	0.16526
2545.70508	0.16583
2543.77651	0.16649
2541.84795	0.16717
2539.91938	0.16769
2537.99082	0.16814
2536.06226	0.16871
2534.13369	0.16942
2532.20513	0.17021
2530.27656	0.17094
2528.34800	0.17148
2526.41943	0.17206
2524.49087	0.17282
2522.56230	0.17359
2520.63374	0.17438
2518.70518	0.17525
2516.77661	0.17605
2514.84805	0.17672
2512.91948	0.17743
2510.99092	0.17818
2509.06235	0.17892
2507.13379	0.17969
2505.20522	0.18052
2503.27666	0.18139
2501.34810	0.18228
2499.41953	0.18310
2497.49097	0.18386
2495.56240	0.18466
2493.63384	0.18555
2491.70527	0.18645
2489.77671	0.18722
2487.84814	0.18801
2485.91958	0.18909
2483.99102	0.19026
2482.06245	0.19118
2480.13389	0.19192
2478.20532	0.19272
2476.27676	0.19354
2474.34819	0.19434
2472.41963	0.19523
2470.49106	0.19620
2468.56250	0.19716
2466.63394	0.19809
2464.70537	0.19901
2462.77681	0.19985
2460.84824	0.20073
2458.91968	0.20171
2456.99111	0.20261
2455.06255	0.20344
2453.13398	0.20436
2451.20542	0.20541
2449.27686	0.20644
2447.34829	0.20744
2445.41973	0.20845
2443.49116	0.20953
2441.56260	0.21065
2439.63403	0.21174
2437.70547	0.21275
2435.77690	0.21370
2433.84834	0.21464
2431.91978	0.21558
2429.99121	0.21657
2428.06265	0.21768
2426.13408	0.21888
2424.20552	0.22004
2422.27695	0.22117
2420.34839	0.22229
2418.41982	0.22338
2416.49126	0.22439
2414.56270	0.22528
2412.63413	0.22624
2410.70557	0.22754
2408.77700	0.22893
2406.84844	0.23012
2404.91987	0.23118
2402.99131	0.23234
2401.06274	0.23362
2399.13418	0.23487
2397.20562	0.23606
2395.27705	0.23728
2393.34849	0.23853
2391.41992	0.23976
2389.49136	0.24095
2387.56279	0.24209
2385.63423	0.24319
2383.70566	0.24446
2381.77710	0.24599
2379.84854	0.24746
2377.91997	0.24861
2375.99141	0.24969
2374.06284	0.25109
2372.13428	0.25303
2370.20571	0.25530
2368.27715	0.25716
2366.34858	0.25890
2364.42002	0.26136
2362.49146	0.26380
2360.56289	0.26529
2358.63433	0.26654
2356.70576	0.26807
2354.77720	0.26954
2352.84863	0.27111
2350.92007	0.27248
2348.99150	0.27313
2347.06294	0.27342
2345.13437	0.27425
2343.20581	0.27604
2341.27725	0.27785
2339.34868	0.27920
2337.42012	0.28076
2335.49155	0.28307
2333.56299	0.28545
2331.63442	0.28734
2329.70586	0.28883
2327.77729	0.29020
2325.84873	0.29146
2323.92017	0.29267
2321.99160	0.29434
2320.06304	0.29640
2318.13447	0.29814
2316.20591	0.29945
2314.27734	0.30096
2312.34878	0.30281
2310.42021	0.30463
2308.49165	0.30620
2306.56309	0.30767
2304.63452	0.30929
2302.70596	0.31101
2300.77739	0.31269
2298.84883	0.31438
2296.92026	0.31623
2294.99170	0.31823
2293.06313	0.32018
2291.13457	0.32204
2289.20601	0.32387
2287.27744	0.32566
2285.34888	0.32746
2283.42031	0.32940
2281.49175	0.33146
2279.56318	0.33340
2277.63462	0.33524
2275.70605	0.33723
2273.77749	0.33942
2271.84893	0.34167
2269.92036	0.34387
2267.99180	0.34593
2266.06323	0.34793
2264.13467	0.34995
2262.20610	0.35195
2260.27754	0.35401
2258.34897	0.35623
2256.42041	0.35847
2254.49185	0.36057
2252.56328	0.36268
2250.63472	0.36495
2248.70615	0.36725
2246.77759	0.36935
2244.84902	0.37137
2242.92046	0.37354
2240.99189	0.37584
2239.06333	0.37811
2237.13477	0.38035
2235.20620	0.38256
2233.27764	0.38470
2231.34907	0.38690
2229.42051	0.38918
2227.49194	0.39141
2225.56338	0.39361
2223.63481	0.39579
2221.70625	0.39796
2219.77769	0.40013
2217.84912	0.40226
2215.92056	0.40434
2213.99199	0.40636
2212.06343	0.40834
2210.13486	0.41048
2208.20630	0.41283
2206.27773	0.41511
2204.34917	0.41725
2202.42061	0.41930
2200.49204	0.42127
2198.56348	0.42324
2196.63491	0.42522
2194.70635	0.42712
2192.77778	0.42893
2190.84922	0.43082
2188.92065	0.43278
2186.99209	0.43457
2185.06353	0.43621
2183.13496	0.43792
2181.20640	0.43969
2179.27783	0.44135
2177.34927	0.44293
2175.42070	0.44447
2173.49214	0.44592
2171.56357	0.44736
2169.63501	0.44887
2167.70645	0.45021
2165.77788	0.45129
2163.84932	0.45230
2161.92075	0.45342
2159.99219	0.45462
2158.06362	0.45570
2156.13506	0.45654
2154.20649	0.45728
2152.27793	0.45813
2150.34937	0.45896
2148.42080	0.45954
2146.49224	0.46003
2144.56367	0.46056
2142.63511	0.46099
2140.70654	0.46126
2138.77798	0.46144
2136.84941	0.46156
2134.92085	0.46162
2132.99229	0.46163
2131.06372	0.46161
2129.13516	0.46149
2127.20659	0.46125
2125.27803	0.46091
2123.34946	0.46051
2121.42090	0.46009
2119.49233	0.45948
2117.56377	0.45869
2115.63521	0.45782
2113.70664	0.45688
2111.77808	0.45597
2109.84951	0.45515
2107.92095	0.45418
2105.99238	0.45296
2104.06382	0.45170
2102.13525	0.45053
2100.20669	0.44929
2098.27812	0.44779
2096.34956	0.44621
2094.42100	0.44468
2092.49243	0.44306
2090.56387	0.44122
2088.63530	0.43929
2086.70674	0.43745
2084.77817	0.43556
2082.84961	0.43361
2080.92104	0.43167
2078.99248	0.42969
2077.06392	0.42762
2075.13535	0.42552
2073.20679	0.42351
2071.27822	0.42143
2069.34966	0.41918
2067.42109	0.41679
2065.49253	0.41429
2063.56396	0.41171
2061.63540	0.40918
2059.70684	0.40674
2057.77827	0.40425
2055.84971	0.40157
2053.92114	0.39891
2051.99258	0.39643
2050.06401	0.39395
2048.13545	0.39131
2046.20688	0.38860
2044.27832	0.38591
2042.34976	0.38323
2040.42119	0.38051
2038.49263	0.37770
2036.56406	0.37492
2034.63550	0.37227
2032.70693	0.36959
2030.77837	0.36687
2028.84980	0.36416
2026.92124	0.36137
2024.99268	0.35849
2023.06411	0.35569
2021.13555	0.35303
2019.20698	0.35028
2017.27842	0.34739
2015.34985	0.34451
2013.42129	0.34176
2011.49272	0.33912
2009.56416	0.33645
2007.63560	0.33358
2005.70703	0.33072
2003.77847	0.32806
2001.84990	0.32550
1999.92134	0.32298
1997.99277	0.32045
1996.06421	0.31786
1994.13564	0.31527
1992.20708	0.31275
1990.27852	0.31022
1988.34995	0.30777
1986.42139	0.30540
1984.49282	0.30300
1982.56426	0.30059
1980.63569	0.29822
1978.70713	0.29600
1976.77856	0.29383
1974.85000	0.29162
1972.92144	0.28951
1970.99287	0.28753
1969.06431	0.28550
1967.13574	0.28343
1965.20718	0.28135
1963.27861	0.27931
1961.35005	0.27737
1959.42148	0.27551
1957.49292	0.27366
1955.56436	0.27183
1953.63579	0.27012
1951.70723	0.26854
1949.77866	0.26696
1947.85010	0.26526
1945.92153	0.26359
1943.99297	0.26209
1942.06440	0.26064
1940.13584	0.25919
1938.20728	0.25780
1936.27871	0.25647
1934.35015	0.25517
1932.42158	0.25399
1930.49302	0.25281
1928.56445	0.25158
1926.63589	0.25047
1924.70732	0.24953
1922.77876	0.24862
1920.85020	0.24767
1918.92163	0.24675
1916.99307	0.24583
1915.06450	0.24492
1913.13594	0.24405
1911.20737	0.24333
1909.27881	0.24271
1907.35024	0.24210
1905.42168	0.24149
1903.49312	0.24091
1901.56455	0.24034
1899.63599	0.23979
1897.70742	0.23929
1895.77886	0.23882
1893.85029	0.23852
1891.92173	0.23833
1889.99316	0.23821
1888.06460	0.23799
1886.13604	0.23775
1884.20747	0.23759
1882.27891	0.23739
1880.35034	0.23718
1878.42178	0.23711
1876.49321	0.23717
1874.56465	0.23717
1872.63608	0.23720
1870.70752	0.23730
1868.77896	0.23761
1866.85039	0.23792
1864.92183	0.23805
1862.99326	0.23823
1861.06470	0.23854
1859.13613	0.23888
1857.20757	0.23914
1855.27900	0.23948
1853.35044	0.23982
1851.42187	0.24026
1849.49331	0.24085
1847.56475	0.24151
1845.63618	0.24228
1843.70762	0.24334
1841.77905	0.24431
1839.85049	0.24479
1837.92192	0.24537
1835.99336	0.24624
1834.06479	0.24726
1832.13623	0.24820
1830.20767	0.24943
1828.27910	0.25090
1826.35054	0.25211
1824.42197	0.25344
1822.49341	0.25475
1820.56484	0.25601
1818.63628	0.25744
1816.70771	0.25908
1814.77915	0.26064
1812.85059	0.26230
1810.92202	0.26429
1808.99346	0.26644
1807.06489	0.26853
1805.13633	0.27040
1803.20776	0.27239
1801.27920	0.27478
1799.35063	0.27765
1797.42207	0.28020
1795.49351	0.28249
1793.56494	0.28514
1791.63638	0.28878
1789.70781	0.29246
1787.77925	0.29522
1785.85068	0.29837
1783.92212	0.30204
1781.99355	0.30596
1780.06499	0.31013
1778.13643	0.31444
1776.20786	0.31836
1774.27930	0.32241
1772.35073	0.32806
1770.42217	0.33467
1768.49360	0.34042
1766.56504	0.34570
1764.63647	0.35086
1762.70791	0.35649
1760.77935	0.36383
1758.85078	0.37085
1756.92222	0.37792
1754.99365	0.38574
1753.06509	0.39275
1751.13652	0.40088
1749.20796	0.41127
1747.27939	0.42175
1745.35083	0.43099
1743.42227	0.44073
1741.49370	0.45151
1739.56514	0.46435
1737.63657	0.47717
1735.70801	0.48785
1733.77944	0.50377
1731.85088	0.52368
1729.92231	0.53963
1727.99375	0.55548
1726.06519	0.57237
1724.13662	0.59072
1722.20806	0.61056
1720.27949	0.62883
1718.35093	0.65004
1716.42236	0.68171
1714.49380	0.71232
1712.56523	0.73724
1710.63667	0.76147
1708.70811	0.78747
1706.77954	0.81668
1704.85098	0.85147
1702.92241	0.88251
1700.99385	0.91298
1699.06528	0.95882
1697.13672	1.00187
1695.20815	1.04653
1693.27959	1.08960
1691.35103	1.12388
1689.42246	1.16340
1687.49390	1.20533
1685.56533	1.24592
1683.63677	1.30925
1681.70820	1.37471
1679.77964	1.41575
1677.85107	1.45497
1675.92251	1.50055
1673.99395	1.55683
1672.06538	1.60639
1670.13682	1.65550
1668.20825	1.72069
1666.27969	1.77358
1664.35112	1.81801
1662.42256	1.87382
1660.49399	1.93562
1658.56543	1.98263
1656.63687	2.02076
1654.70830	2.05629
1652.77974	2.11298
1650.85117	2.16690
1648.92261	2.18594
1646.99404	2.21143
1645.06548	2.24164
1643.13691	2.26081
1641.20835	2.27065
1639.27979	2.27938
1637.35122	2.28586
1635.42266	2.28685
1633.49409	2.27751
1631.56553	2.26173
1629.63696	2.24452
1627.70840	2.21841
1625.77983	2.18816
1623.85127	2.14731
1621.92271	2.09562
1619.99414	2.05112
1618.06558	2.00771
1616.13701	1.94409
1614.20845	1.87968
1612.27988	1.83118
1610.35132	1.78074
1608.42275	1.72628
1606.49419	1.67277
1604.56562	1.62389
1602.63706	1.57689
1600.70850	1.53054
1598.77993	1.48760
1596.85137	1.44721
1594.92280	1.40774
1592.99424	1.36922
1591.06567	1.33380
1589.13711	1.30074
1587.20854	1.26983
1585.27998	1.24097
1583.35142	1.21398
1581.42285	1.18943
1579.49429	1.16844
1577.56572	1.14961
1575.63716	1.12700
1573.70859	1.10724
1571.78003	1.09437
1569.85146	1.08103
1567.92290	1.06623
1565.99434	1.05499
1564.06577	1.04629
1562.13721	1.03949
1560.20864	1.03442
1558.28008	1.02880
1556.35151	1.02555
1554.42295	1.02355
1552.49438	1.02109
1550.56582	1.01732
1548.63726	1.01168
1546.70869	1.00492
1544.78013	0.99631
1542.85156	0.98491
1540.92300	0.96871
1538.99443	0.94514
1537.06587	0.92855
1535.13730	0.91710
1533.20874	0.90165
1531.28018	0.88512
1529.35161	0.87317
1527.42305	0.86186
1525.49448	0.85005
1523.56592	0.83988
1521.63735	0.82992
1519.70879	0.81982
1517.78022	0.81151
1515.85166	0.80201
1513.92310	0.79206
1511.99453	0.78353
1510.06597	0.77583
1508.13740	0.76834
1506.20884	0.75709
1504.28027	0.74717
1502.35171	0.74132
1500.42314	0.73603
1498.49458	0.73040
1496.56602	0.72418
1494.63745	0.71833
1492.70889	0.71375
1490.78032	0.70962
1488.85176	0.70514
1486.92319	0.70126
1484.99463	0.69812
1483.06606	0.69539
1481.13750	0.69297
1479.20894	0.69101
1477.28037	0.68971
1475.35181	0.68886
1473.42324	0.68836
1471.49468	0.68763
1469.56611	0.68610
1467.63755	0.68419
1465.70898	0.68230
1463.78042	0.68046
1461.85186	0.67889
1459.92329	0.67792
1457.99473	0.67725
1456.06616	0.67559
1454.13760	0.67288
1452.20903	0.67030
1450.28047	0.66766
1448.35190	0.66489
1446.42334	0.66211
1444.49478	0.65956
1442.56621	0.65698
1440.63765	0.65427
1438.70908	0.65161
1436.78052	0.64847
1434.85195	0.64502
1432.92339	0.64232
1430.99482	0.64028
1429.06626	0.63885
1427.13770	0.63809
1425.20913	0.63779
1423.28057	0.63775
1421.35200	0.63762
1419.42344	0.63730
1417.49487	0.63672
1415.56631	0.63563
1413.63774	0.63451
1411.70918	0.63369
1409.78062	0.63349
1407.85205	0.63389
1405.92349	0.63458
1403.99492	0.63515
1402.06636	0.63502
1400.13779	0.63405
1398.20923	0.63229
1396.28066	0.63000
1394.35210	0.62722
1392.42354	0.62403
1390.49497	0.62097
1388.56641	0.61794
1386.63784	0.61439
1384.70928	0.61062
1382.78071	0.60721
1380.85215	0.60396
1378.92358	0.60106
1376.99502	0.59895
1375.06646	0.59757
1373.13789	0.59647
1371.20933	0.59555
1369.28076	0.59470
1367.35220	0.59359
1365.42363	0.59215
1363.49507	0.59058
1361.56650	0.58905
1359.63794	0.58768
1357.70937	0.58654
1355.78081	0.58541
1353.85225	0.58430
1351.92368	0.58341
1349.99512	0.58268
1348.06655	0.58191
1346.13799	0.58110
1344.20942	0.58011
1342.28086	0.57894
1340.35229	0.57799
1338.42373	0.57747
1336.49517	0.57700
1334.56660	0.57641
1332.63804	0.57596
1330.70947	0.57570
1328.78091	0.57559
1326.85234	0.57572
1324.92378	0.57602
1322.99521	0.57626
1321.06665	0.57636
1319.13809	0.57644
1317.20952	0.57647
1315.28096	0.57618
1313.35239	0.57554
1311.42383	0.57478
1309.49526	0.57404
1307.56670	0.57337
1305.63813	0.57279
1303.70957	0.57230
1301.78101	0.57179
1299.85244	0.57111
1297.92388	0.57020
1295.99531	0.56910
1294.06675	0.56795
1292.13818	0.56689
1290.20962	0.56591
1288.28105	0.56490
1286.35249	0.56381
1284.42393	0.56282
1282.49536	0.56205
1280.56680	0.56128
1278.63823	0.56024
1276.70967	0.55918
1274.78110	0.55830
1272.85254	0.55747
1270.92397	0.55664
1268.99541	0.55583
1267.06685	0.55516
1265.13828	0.55457
1263.20972	0.55394
1261.28115	0.55327
1259.35259	0.55260
1257.42402	0.55212
1255.49546	0.55188
1253.56689	0.55169
1251.63833	0.55147
1249.70977	0.55130
1247.78120	0.55112
1245.85264	0.55094
1243.92407	0.55061
1241.99551	0.54986
1240.06694	0.54877
1238.13838	0.54748
1236.20981	0.54600
1234.28125	0.54432
1232.35269	0.54259
1230.42412	0.54098
1228.49556	0.53940
1226.56699	0.53785
1224.63843	0.53644
1222.70986	0.53512
1220.78130	0.53379
1218.85273	0.53250
1216.92417	0.53142
1214.99561	0.53056
1213.06704	0.52978
1211.13848	0.52900
1209.20991	0.52823
1207.28135	0.52754
1205.35278	0.52690
1203.42422	0.52613
1201.49565	0.52526
1199.56709	0.52446
1197.63853	0.52382
1195.70996	0.52320
1193.78140	0.52256
1191.85283	0.52198
1189.92427	0.52153
1187.99570	0.52132
1186.06714	0.52136
1184.13857	0.52144
1182.21001	0.52162
1180.28145	0.52208
1178.35288	0.52285
1176.42432	0.52395
1174.49575	0.52503
1172.56719	0.52583
1170.63862	0.52652
1168.71006	0.52713
1166.78149	0.52755
1164.85293	0.52780
1162.92437	0.52792
1160.99580	0.52790
1159.06724	0.52786
1157.13867	0.52773
1155.21011	0.52708
1153.28154	0.52578
1151.35298	0.52403
1149.42441	0.52201
1147.49585	0.51983
1145.56729	0.51744
1143.63872	0.51483
1141.71016	0.51225
1139.78159	0.50995
1137.85303	0.50809
1135.92446	0.50684
1133.99590	0.50623
1132.06733	0.50579
1130.13877	0.50500
1128.21021	0.50394
1126.28164	0.50296
1124.35308	0.50224
1122.42451	0.50172
1120.49595	0.50123
1118.56738	0.50080
1116.63882	0.50066
1114.71025	0.50095
1112.78169	0.50158
1110.85312	0.50235
1108.92456	0.50302
1106.99600	0.50361
1105.06743	0.50437
1103.13887	0.50541
1101.21030	0.50674
1099.28174	0.50848
1097.35317	0.51059
1095.42461	0.51323
1093.49604	0.51675
1091.56748	0.52126
1089.63892	0.52672
1087.71035	0.53329
1085.78179	0.54069
1083.85322	0.54827
1081.92466	0.55550
1079.99609	0.56145
1078.06753	0.56507
1076.13896	0.56570
1074.21040	0.56317
1072.28184	0.55810
1070.35327	0.55166
1068.42471	0.54495
1066.49614	0.53830
1064.56758	0.53165
1062.63901	0.52549
1060.71045	0.52031
1058.78188	0.51599
1056.85332	0.51218
1054.92476	0.50871
1052.99619	0.50575
1051.06763	0.50344
1049.13906	0.50166
1047.21050	0.50028
1045.28193	0.49917
1043.35337	0.49821
1041.42480	0.49761
1039.49624	0.49733
1037.56768	0.49690
1035.63911	0.49634
1033.71055	0.49588
1031.78198	0.49538
1029.85342	0.49460
1027.92485	0.49372
1025.99629	0.49308
1024.06772	0.49248
1022.13916	0.49197
1020.21060	0.49189
1018.28203	0.49221
1016.35347	0.49273
1014.42490	0.49328
1012.49634	0.49364
1010.56777	0.49403
1008.63921	0.49461
1006.71064	0.49539
1004.78208	0.49670
1002.85352	0.49875
1000.92495	0.50147
998.99639	0.50472
997.06782	0.50834
995.13926	0.51224
993.21069	0.51629
991.28213	0.51982
989.35356	0.52210
987.42500	0.52318
985.49644	0.52348
983.56787	0.52352
981.63931	0.52391
979.71074	0.52504
977.78218	0.52677
975.85361	0.52891
973.92505	0.53147
971.99648	0.53436
970.06792	0.53774
968.13936	0.54163
966.21079	0.54575
964.28223	0.55024
962.35366	0.55530
960.42510	0.56058
958.49653	0.56597
956.56797	0.57168
954.63940	0.57746
952.71084	0.58335
950.78228	0.58968
948.85371	0.59621
946.92515	0.60268
944.99658	0.60888
943.06802	0.61472
941.13945	0.62066
939.21089	0.62680
937.28232	0.63290
935.35376	0.63888
933.42520	0.64460
931.49663	0.65009
929.56807	0.65551
927.63950	0.66118
925.71094	0.66747
923.78237	0.67407
921.85381	0.68061
919.92524	0.68782
917.99668	0.69590
916.06812	0.70388
914.13955	0.71120
912.21099	0.71857
910.28242	0.72697
908.35386	0.73572
906.42529	0.74363
904.49673	0.75140
902.56816	0.76027
900.63960	0.76960
898.71104	0.77848
896.78247	0.78824
894.85391	0.79963
892.92534	0.81121
890.99678	0.82231
889.06821	0.83274
887.13965	0.84252
885.21108	0.85327
883.28252	0.86585
881.35396	0.87902
879.42539	0.89062
877.49683	0.89978
875.56826	0.90943
873.63970	0.92190
871.71113	0.93546
869.78257	0.94865
867.85400	0.96112
865.92544	0.97189
863.99687	0.98181
862.06831	0.99270
860.13975	1.00423
858.21118	1.01533
856.28262	1.02631
854.35405	1.03834
852.42549	1.05111
850.49692	1.06361
848.56836	1.07636
846.63979	1.08948
844.71123	1.10204
842.78267	1.11435
840.85410	1.12578
838.92554	1.13613
836.99697	1.14913
835.06841	1.16631
833.13984	1.18553
831.21128	1.20013
829.28271	1.20601
827.35415	1.21198
825.42559	1.22464
823.49702	1.24073
821.56846	1.25554
819.63989	1.27058
817.71133	1.28444
815.78276	1.28604
813.85420	1.27943
811.92563	1.28772
809.99707	1.31006
808.06851	1.32096
806.13994	1.33248
804.21138	1.37707
802.28281	1.45707
800.35425	1.52132
798.42568	1.51057
796.49712	1.48720
794.56855	1.50668
792.63999	1.54086
790.71143	1.56268
788.78286	1.56558
786.85430	1.56739
784.92573	1.59829
782.99717	1.60675
781.06860	1.56488
779.14004	1.53455
777.21147	1.50737
775.28291	1.51010
773.35435	1.52482
771.42578	1.55732
769.49722	1.68697
767.56865	1.63866
765.64009	1.43273
763.71152	1.33861
761.78296	1.27862
759.85439	1.20259
757.92583	1.15301
755.99727	1.10739
754.06870	1.05557
752.14014	1.02084
750.21157	1.02411
748.28301	1.05044
746.35444	1.05753
744.42588	1.04739
742.49731	1.01470
740.56875	0.92619
738.64019	0.85378
736.71162	0.83715
734.78306	0.83202
732.85449	0.79223
730.92593	0.73675
728.99736	0.68211
727.06880	0.60854
725.14023	0.52815
723.21167	0.48370
721.28311	0.49742
719.35454	0.57636
717.42598	0.61154
715.49741	0.49670
713.56885	0.37012
711.64028	0.25059
709.71172	0.16716
707.78315	0.08660
705.85459	-0.00966
703.92603	-0.02152
701.99746	0.10022
700.06890	0.25256
698.14033	0.28166
696.21177	0.25426
694.28320	0.21453
692.35464	0.16142
690.42607	0.11312
688.49751	0.10042
686.56895	0.14914
684.64038	0.36702
682.71182	0.99768
680.78325	0.56798
678.85469	0.29771
676.92612	0.31864
674.99756	0.32185
673.06899	0.16465
671.14043	0.10328
669.21187	0.13456
667.28330	0.11526
665.35474	0.04560
663.42617	0.00484
661.49761	0.00921
659.56904	0.09811
657.64048	0.18437
655.71191	0.13253
653.78335	0.07283
651.85479	0.15312
649.92622	0.37326
647.99766	0.59197
646.06909	0.57424
644.14053	0.50311
642.21196	0.42890
640.28340	0.36683
638.35483	0.30400
636.42627	0.27594
634.49771	0.38710
632.56914	0.46695
630.64058	0.22540
628.71201	0.08579
626.78345	0.08906
624.85488	0.16466
622.92632	0.17099
620.99775	0.13942
619.06919	0.14989
617.14062	0.16302
615.21206	0.17648
613.28350	0.18305
611.35493	0.19719
609.42637	0.19668
607.49780	0.15172
605.56924	0.16560
603.64067	0.26545
601.71211	0.25794
599.78354	0.09345
597.85498	-0.00365
595.92642	0.02893
593.99785	0.11935
592.06929	0.17282
590.14072	0.22757
588.21216	0.27365
586.28359	0.30880
584.35503	0.44716
582.42646	0.90950
580.49790	0.67719
578.56934	0.35953
576.64077	0.21476
574.71221	0.12243
572.78364	0.08018
570.85508	0.09902
568.92651	0.15913
566.99795	0.19899
565.06938	0.16062
563.14082	0.09925
561.21226	0.06408
559.28369	0.08024
557.35513	0.11276
555.42656	0.09989
553.49800	0.08745
551.56943	0.13092
549.64087	0.24448
547.71230	0.35868
545.78374	0.24248
543.85518	0.05640
541.92661	0.00135
539.99805	0.04533
538.06948	0.11790
536.14092	0.22327
534.21235	0.31849
532.28379	0.30202
530.35522	0.17699
528.42666	0.07282
526.49810	0.07560
524.56953	0.11371
522.64097	0.08237
520.71240	0.05288
518.78384	0.12728
516.85527	0.23696
514.92671	0.26228
512.99814	0.21477
511.06958	0.16807
509.14102	0.17232
507.21245	0.21230
505.28389	0.21134
503.35532	0.19828
501.42676	0.18049
499.49819	0.16841
