3997.91411	0.07186
3995.98555	0.07241
3994.05698	0.07317
3992.12842	0.07378
3990.19985	0.07386
3988.27129	0.07370
3986.34272	0.07374
3984.41416	0.07393
3982.48560	0.07403
3980.55703	0.07415
3978.62847	0.07440
3976.69990	0.07448
3974.77134	0.07438
3972.84277	0.07446
3970.91421	0.07486
3968.98564	0.07547
3967.05708	0.07593
3965.12852	0.07590
3963.19995	0.07574
3961.27139	0.07571
3959.34282	0.07551
3957.41426	0.07530
3955.48569	0.07536
3953.55713	0.07546
3951.62856	0.07570
3949.70000	0.07632
3947.77144	0.07679
3945.84287	0.07642
3943.91431	0.07555
3941.98574	0.07499
3940.05718	0.07499
3938.12861	0.07534
3936.20005	0.07589
3934.27148	0.07655
3932.34292	0.07668
3930.41436	0.07595
3928.48579	0.07527
3926.55723	0.07512
3924.62866	0.07524
3922.70010	0.07551
3920.77153	0.07577
3918.84297	0.07582
3916.91440	0.07587
3914.98584	0.07597
3913.05728	0.07578
3911.12871	0.07530
3909.20015	0.07510
3907.27158	0.07529
3905.34302	0.07553
3903.41445	0.07585
3901.48589	0.07590
3899.55732	0.07533
3897.62876	0.07479
3895.70020	0.07467
3893.77163	0.07489
3891.84307	0.07562
3889.91450	0.07644
3887.98594	0.07638
3886.05737	0.07598
3884.12881	0.07610
3882.20024	0.07649
3880.27168	0.07679
3878.34312	0.07669
3876.41455	0.07595
3874.48599	0.07538
3872.55742	0.07596
3870.62886	0.07776
3868.70029	0.07944
3866.77173	0.07945
3864.84316	0.07907
3862.91460	0.07929
3860.98604	0.07923
3859.05747	0.07879
3857.12891	0.07868
3855.20034	0.07949
3853.27178	0.08140
3851.34321	0.08259
3849.41465	0.08209
3847.48608	0.08155
3845.55752	0.08142
3843.62896	0.08177
3841.70039	0.08242
3839.77183	0.08300
3837.84326	0.08416
3835.91470	0.08569
3833.98613	0.08629
3832.05757	0.08633
3830.12900	0.08636
3828.20044	0.08658
3826.27187	0.08748
3824.34331	0.08864
3822.41475	0.08942
3820.48618	0.09057
3818.55762	0.09176
3816.62905	0.09246
3814.70049	0.09332
3812.77192	0.09377
3810.84336	0.09381
3808.91479	0.09433
3806.98623	0.09577
3805.05767	0.09730
3803.12910	0.09826
3801.20054	0.10009
3799.27197	0.10214
3797.34341	0.10272
3795.41484	0.10316
3793.48628	0.10412
3791.55771	0.10518
3789.62915	0.10618
3787.70059	0.10718
3785.77202	0.10842
3783.84346	0.10998
3781.91489	0.11149
3779.98633	0.11307
3778.05776	0.11518
3776.12920	0.11688
3774.20063	0.11792
3772.27207	0.11927
3770.34351	0.12131
3768.41494	0.12350
3766.48638	0.12509
3764.55781	0.12671
3762.62925	0.12870
3760.70068	0.13090
3758.77212	0.13365
3756.84355	0.13653
3754.91499	0.13886
3752.98643	0.14116
3751.05786	0.14431
3749.12930	0.14830
3747.20073	0.15079
3745.27217	0.15229
3743.34360	0.15546
3741.41504	0.15937
3739.48647	0.16224
3737.55791	0.16531
3735.62935	0.16983
3733.70078	0.17532
3731.77222	0.17979
3729.84365	0.18350
3727.91509	0.18766
3725.98652	0.19330
3724.05796	0.20001
3722.12939	0.20676
3720.20083	0.21390
3718.27227	0.22121
3716.34370	0.22821
3714.41514	0.23477
3712.48657	0.24276
3710.55801	0.25513
3708.62944	0.26945
3706.70088	0.28170
3704.77231	0.29304
3702.84375	0.30590
3700.91519	0.32269
3698.98662	0.34098
3697.05806	0.35795
3695.12949	0.37570
3693.20093	0.39453
3691.27236	0.41516
3689.34380	0.44241
3687.41523	0.47690
3685.48667	0.50779
3683.55811	0.53409
3681.62954	0.56189
3679.70098	0.59311
3677.77241	0.62534
3675.84385	0.66268
3673.91528	0.71451
3671.98672	0.75856
3670.05815	0.79717
3668.12959	0.84957
3666.20103	0.89788
3664.27246	0.93785
3662.34390	0.98034
3660.41533	1.02667
3658.48677	1.07253
3656.55820	1.12082
3654.62964	1.17459
3652.70107	1.21989
3650.77251	1.25854
3648.84395	1.31170
3646.91538	1.37909
3644.98682	1.42985
3643.05825	1.46910
3641.12969	1.50922
3639.20112	1.55294
3637.27256	1.59628
3635.34399	1.63770
3633.41543	1.67891
3631.48687	1.71821
3629.55830	1.75859
3627.62974	1.81142
3625.70117	1.86146
3623.77261	1.89640
3621.84404	1.93002
3619.91548	1.96765
3617.98691	2.01244
3616.05835	2.05554
3614.12979	2.09115
3612.20122	2.12872
3610.27266	2.16710
3608.34409	2.20602
3606.41553	2.24891
3604.48696	2.28956
3602.55840	2.32451
3600.62983	2.36164
3598.70127	2.40255
3596.77271	2.44164
3594.84414	2.48180
3592.91558	2.52568
3590.98701	2.56557
3589.05845	2.59893
3587.12988	2.63971
3585.20132	2.68985
3583.27275	2.73263
3581.34419	2.76885
3579.41562	2.80799
3577.48706	2.85210
3575.55850	2.89637
3573.62993	2.93911
3571.70137	2.97964
3569.77280	3.01826
3567.84424	3.06018
3565.91567	3.11351
3563.98711	3.16483
3562.05854	3.20562
3560.12998	3.24909
3558.20142	3.29667
3556.27285	3.34134
3554.34429	3.38233
3552.41572	3.42716
3550.48716	3.47641
3548.55859	3.52232
3546.63003	3.56579
3544.70146	3.61356
3542.77290	3.66285
3540.84434	3.71101
3538.91577	3.75960
3536.98721	3.80458
3535.05864	3.84629
3533.13008	3.88884
3531.20151	3.93557
3529.27295	3.98744
3527.34438	4.03984
3525.41582	4.08777
3523.48726	4.13579
3521.55869	4.18759
3519.63013	4.23650
3517.70156	4.28196
3515.77300	4.32858
3513.84443	4.37578
3511.91587	4.42093
3509.98730	4.46764
3508.05874	4.52055
3506.13018	4.57374
3504.20161	4.62142
3502.27305	4.66891
3500.34448	4.71762
3498.41592	4.76359
3496.48735	4.81020
3494.55879	4.85957
3492.63022	4.90901
3490.70166	4.95407
3488.77310	4.99681
3486.84453	5.04713
3484.91597	5.10381
3482.98740	5.15646
3481.05884	5.20493
3479.13027	5.25004
3477.20171	5.29087
3475.27314	5.33260
3473.34458	5.38023
3471.41602	5.42932
3469.48745	5.47177
3467.55889	5.51653
3465.63032	5.57394
3463.70176	5.63394
3461.77319	5.68213
3459.84463	5.72649
3457.91606	5.78529
3455.98750	5.85529
3454.05894	5.90981
3452.13037	5.94113
3450.20181	5.98014
3448.27324	6.03864
3446.34468	6.09937
3444.41611	6.15488
3442.48755	6.20901
3440.55898	6.25480
3438.63042	6.28548
3436.70186	6.30994
3434.77329	6.34520
3432.84473	6.39900
3430.91616	6.47232
3428.98760	6.55757
3427.05903	6.62411
3425.13047	6.66309
3423.20190	6.68795
3421.27334	6.71548
3419.34478	6.75229
3417.41621	6.79349
3415.48765	6.83910
3413.55908	6.89650
3411.63052	6.96750
3409.70195	7.01806
3407.77339	7.05261
3405.84482	7.11191
3403.91626	7.19472
3401.98770	7.24964
3400.05913	7.26468
3398.13057	7.29150
3396.20200	7.33073
3394.27344	7.34944
3392.34487	7.37768
3390.41631	7.45356
3388.48774	7.52467
3386.55918	7.55157
3384.63062	7.54586
3382.70205	7.56156
3380.77349	7.62594
3378.84492	7.67529
3376.91636	7.67367
3374.98779	7.65546
3373.05923	7.67398
3371.13066	7.72123
3369.20210	7.75079
3367.27354	7.74092
3365.34497	7.79542
3363.41641	7.93592
3361.48784	7.97001
3359.55928	7.90429
3357.63071	7.90207
3355.70215	7.98886
3353.77358	8.04774
3351.84502	8.00923
3349.91646	7.94067
3347.98789	7.94649
3346.05933	8.04272
3344.13076	8.12887
3342.20220	8.15276
3340.27363	8.13565
3338.34507	8.10905
3336.41650	8.06832
3334.48794	8.03819
3332.55937	8.05490
3330.63081	8.12462
3328.70225	8.20990
3326.77368	8.23032
3324.84512	8.21823
3322.91655	8.25340
3320.98799	8.30917
3319.05942	8.29614
3317.13086	8.21222
3315.20229	8.12069
3313.27373	8.06909
3311.34517	8.05633
3309.41660	8.06943
3307.48804	8.09392
3305.55947	8.10600
3303.63091	8.10484
3301.70234	8.08405
3299.77378	8.09833
3297.84521	8.19403
3295.91665	8.29690
3293.98809	8.32674
3292.05952	8.34798
3290.13096	8.35237
3288.20239	8.23469
3286.27383	8.11025
3284.34526	8.11586
3282.41670	8.20869
3280.48813	8.25201
3278.55957	8.26779
3276.63101	8.37150
3274.70244	8.44107
3272.77388	8.39435
3270.84531	8.38080
3268.91675	8.35834
3266.98818	8.30400
3265.05962	8.28027
3263.13105	8.21039
3261.20249	8.11831
3259.27393	8.08826
3257.34536	8.17004
3255.41680	8.35108
3253.48823	8.46350
3251.55967	8.39591
3249.63110	8.27427
3247.70254	8.21078
3245.77397	8.23119
3243.84541	8.27361
3241.91685	8.20134
3239.98828	8.09671
3238.05972	8.09139
3236.13115	8.13389
3234.20259	8.13392
3232.27402	8.11946
3230.34546	8.15044
3228.41689	8.18490
3226.48833	8.18352
3224.55977	8.13404
3222.63120	8.07802
3220.70264	8.08720
3218.77407	8.13673
3216.84551	8.15938
3214.91694	8.14787
3212.98838	8.11054
3211.05981	8.02228
3209.13125	7.92456
3207.20269	7.88798
3205.27412	7.87172
3203.34556	7.81230
3201.41699	7.76493
3199.48843	7.79213
3197.55986	7.84143
3195.63130	7.82178
3193.70273	7.74778
3191.77417	7.66829
3189.84561	7.61618
3187.91704	7.62125
3185.98848	7.61525
3184.05991	7.53457
3182.13135	7.46042
3180.20278	7.41309
3178.27422	7.32842
3176.34565	7.25791
3174.41709	7.25378
3172.48853	7.23432
3170.55996	7.13132
3168.63140	7.00706
3166.70283	6.92385
3164.77427	6.87301
3162.84570	6.84256
3160.91714	6.81726
3158.98857	6.77617
3157.06001	6.71920
3155.13145	6.65108
3153.20288	6.56732
3151.27432	6.47447
3149.34575	6.39732
3147.41719	6.33608
3145.48862	6.26694
3143.56006	6.18839
3141.63149	6.11429
3139.70293	6.04391
3137.77437	5.97880
3135.84580	5.91817
3133.91724	5.84622
3131.98867	5.76500
3130.06011	5.68962
3128.13154	5.61516
3126.20298	5.53573
3124.27441	5.45962
3122.34585	5.38994
3120.41729	5.32768
3118.48872	5.26805
3116.56016	5.19774
3114.63159	5.11967
3112.70303	5.04737
3110.77446	4.97790
3108.84590	4.90385
3106.91733	4.83209
3104.98877	4.76704
3103.06021	4.70433
3101.13164	4.63937
3099.20308	4.57049
3097.27451	4.49995
3095.34595	4.42971
3093.41738	4.36062
3091.48882	4.29329
3089.56025	4.22759
3087.63169	4.16319
3085.70312	4.09796
3083.77456	4.03037
3081.84600	3.96423
3079.91743	3.90229
3077.98887	3.84253
3076.06030	3.78314
3074.13174	3.72364
3072.20317	3.66424
3070.27461	3.60359
3068.34604	3.54127
3066.41748	3.48204
3064.48892	3.42796
3062.56035	3.37406
3060.63179	3.31806
3058.70322	3.26221
3056.77466	3.20707
3054.84609	3.15311
3052.91753	3.10132
3050.98896	3.04914
3049.06040	2.99467
3047.13184	2.94139
3045.20327	2.89103
3043.27471	2.84127
3041.34614	2.79145
3039.41758	2.74307
3037.48901	2.69681
3035.56045	2.65119
3033.63188	2.60540
3031.70332	2.56045
3029.77476	2.51610
3027.84619	2.47134
3025.91763	2.42721
3023.98906	2.38519
3022.06050	2.34443
3020.13193	2.30367
3018.20337	2.26267
3016.27480	2.22144
3014.34624	2.18094
3012.41768	2.14166
3010.48911	2.10326
3008.56055	2.06605
3006.63198	2.02963
3004.70342	1.99316
3002.77485	1.95704
3000.84629	1.92198
2998.91772	1.88792
2996.98916	1.85458
2995.06060	1.82150
2993.13203	1.78865
2991.20347	1.75666
2989.27490	1.72556
2987.34634	1.69495
2985.41777	1.66467
2983.48921	1.63456
2981.56064	1.60481
2979.63208	1.57583
2977.70352	1.54739
2975.77495	1.51943
2973.84639	1.49236
2971.91782	1.46596
2969.98926	1.43977
2968.06069	1.41385
2966.13213	1.38835
2964.20356	1.36362
2962.27500	1.33946
2960.34644	1.31507
2958.41787	1.29033
2956.48931	1.26607
2954.56074	1.24308
2952.63218	1.22079
2950.70361	1.19840
2948.77505	1.17627
2946.84648	1.15480
2944.91792	1.13392
2942.98936	1.11359
2941.06079	1.09348
2939.13223	1.07314
2937.20366	1.05312
2935.27510	1.03392
2933.34653	1.01532
2931.41797	0.99720
2929.48940	0.97916
2927.56084	0.96054
2925.63228	0.94187
2923.70371	0.92441
2921.77515	0.90826
2919.84658	0.89255
2917.91802	0.87630
2915.98945	0.85953
2914.06089	0.84328
2912.13232	0.82782
2910.20376	0.81314
2908.27520	0.79896
2906.34663	0.78484
2904.41807	0.77112
2902.48950	0.75795
2900.56094	0.74482
2898.63237	0.73163
2896.70381	0.71864
2894.77524	0.70627
2892.84668	0.69446
2890.91812	0.68242
2888.98955	0.67024
2887.06099	0.65882
2885.13242	0.64812
2883.20386	0.63750
2881.27529	0.62703
2879.34673	0.61703
2877.41816	0.60723
2875.48960	0.59720
2873.56104	0.58694
2871.63247	0.57676
2869.70391	0.56682
2867.77534	0.55695
2865.84678	0.54705
2863.91821	0.53716
2861.98965	0.52715
2860.06108	0.51739
2858.13252	0.50856
2856.20396	0.50031
2854.27539	0.49208
2852.34683	0.48399
2850.41826	0.47597
2848.48970	0.46782
2846.56113	0.45986
2844.63257	0.45246
2842.70400	0.44566
2840.77544	0.43931
2838.84687	0.43321
2836.91831	0.42703
2834.98975	0.42071
2833.06118	0.41467
2831.13262	0.40893
2829.20405	0.40307
2827.27549	0.39708
2825.34692	0.39121
2823.41836	0.38552
2821.48979	0.37984
2819.56123	0.37405
2817.63267	0.36825
2815.70410	0.36270
2813.77554	0.35738
2811.84697	0.35209
2809.91841	0.34687
2807.98984	0.34187
2806.06128	0.33701
2804.13271	0.33219
2802.20415	0.32756
2800.27559	0.32313
2798.34702	0.31854
2796.41846	0.31380
2794.48989	0.30929
2792.56133	0.30503
2790.63276	0.30080
2788.70420	0.29663
2786.77563	0.29264
2784.84707	0.28870
2782.91851	0.28479
2780.98994	0.28099
2779.06138	0.27727
2777.13281	0.27369
2775.20425	0.27017
2773.27568	0.26659
2771.34712	0.26307
2769.41855	0.25965
2767.48999	0.25623
2765.56143	0.25286
2763.63286	0.24971
2761.70430	0.24673
2759.77573	0.24376
2757.84717	0.24086
2755.91860	0.23810
2753.99004	0.23535
2752.06147	0.23256
2750.13291	0.22986
2748.20435	0.22725
2746.27578	0.22457
2744.34722	0.22187
2742.41865	0.21927
2740.49009	0.21691
2738.56152	0.21474
2736.63296	0.21248
2734.70439	0.21015
2732.77583	0.20793
2730.84727	0.20585
2728.91870	0.20380
2726.99014	0.20161
2725.06157	0.19931
2723.13301	0.19721
2721.20444	0.19539
2719.27588	0.19369
2717.34731	0.19198
2715.41875	0.19028
2713.49019	0.18860
2711.56162	0.18693
2709.63306	0.18535
2707.70449	0.18380
2705.77593	0.18217
2703.84736	0.18056
2701.91880	0.17912
2699.99023	0.17781
2698.06167	0.17645
2696.13311	0.17491
2694.20454	0.17329
2692.27598	0.17182
2690.34741	0.17049
2688.41885	0.16925
2686.49028	0.16814
2684.56172	0.16714
2682.63315	0.16619
2680.70459	0.16512
2678.77603	0.16392
2676.84746	0.16283
2674.91890	0.16197
2672.99033	0.16115
2671.06177	0.16030
2669.13320	0.15948
2667.20464	0.15864
2665.27607	0.15766
2663.34751	0.15666
2661.41895	0.15588
2659.49038	0.15522
2657.56182	0.15440
2655.63325	0.15350
2653.70469	0.15275
2651.77612	0.15226
2649.84756	0.15192
2647.91899	0.15144
2645.99043	0.15083
2644.06187	0.15028
2642.13330	0.14983
2640.20474	0.14951
2638.27617	0.14921
2636.34761	0.14878
2634.41904	0.14836
2632.49048	0.14795
2630.56191	0.14759
2628.63335	0.14739
2626.70479	0.14717
2624.77622	0.14683
2622.84766	0.14651
2620.91909	0.14629
2618.99053	0.14623
2617.06196	0.14621
2615.13340	0.14606
2613.20483	0.14586
2611.27627	0.14581
2609.34771	0.14586
2607.41914	0.14586
2605.49058	0.14582
2603.56201	0.14582
2601.63345	0.14592
2599.70488	0.14603
2597.77632	0.14607
2595.84775	0.14612
2593.91919	0.14627
2591.99062	0.14644
2590.06206	0.14655
2588.13350	0.14670
2586.20493	0.14692
2584.27637	0.14722
2582.34780	0.14765
2580.41924	0.14810
2578.49067	0.14845
2576.56211	0.14875
2574.63354	0.14910
2572.70498	0.14944
2570.77642	0.14969
2568.84785	0.14998
2566.91929	0.15053
2564.99072	0.15119
2563.06216	0.15174
2561.13359	0.15216
2559.20503	0.15258
2557.27646	0.15311
2555.34790	0.15367
2553.41934	0.15415
2551.49077	0.15457
2549.56221	0.15509
2547.63364	0.15583
2545.70508	0.15659
2543.77651	0.15720
2541.84795	0.15776
2539.91938	0.15837
2537.99082	0.15901
2536.06226	0.15967
2534.13369	0.16048
2532.20513	0.16142
2530.27656	0.16229
2528.34800	0.16310
2526.41943	0.16383
2524.49087	0.16445
2522.56230	0.16521
2520.63374	0.16607
2518.70518	0.16685
2516.77661	0.16764
2514.84805	0.16845
2512.91948	0.16925
2510.99092	0.17007
2509.06235	0.17090
2507.13379	0.17167
2505.20522	0.17245
2503.27666	0.17335
2501.34810	0.17428
2499.41953	0.17508
2497.49097	0.17581
2495.56240	0.17668
2493.63384	0.17777
2491.70527	0.17892
2489.77671	0.17990
2487.84814	0.18062
2485.91958	0.18134
2483.99102	0.18221
2482.06245	0.18318
2480.13389	0.18419
2478.20532	0.18513
2476.27676	0.18600
2474.34819	0.18688
2472.41963	0.18775
2470.49106	0.18860
2468.56250	0.18954
2466.63394	0.19059
2464.70537	0.19164
2462.77681	0.19262
2460.84824	0.19360
2458.91968	0.19454
2456.99111	0.19547
2455.06255	0.19649
2453.13398	0.19747
2451.20542	0.19845
2449.27686	0.19956
2447.34829	0.20070
2445.41973	0.20173
2443.49116	0.20262
2441.56260	0.20353
2439.63403	0.20459
2437.70547	0.20565
2435.77690	0.20668
2433.84834	0.20773
2431.91978	0.20877
2429.99121	0.20981
2428.06265	0.21096
2426.13408	0.21224
2424.20552	0.21353
2422.27695	0.21461
2420.34839	0.21556
2418.41982	0.21664
2416.49126	0.21776
2414.56270	0.21880
2412.63413	0.21987
2410.70557	0.22108
2408.77700	0.22247
2406.84844	0.22391
2404.91987	0.22517
2402.99131	0.22627
2401.06274	0.22739
2399.13418	0.22854
2397.20562	0.22974
2395.27705	0.23105
2393.34849	0.23231
2391.41992	0.23350
2389.49136	0.23468
2387.56279	0.23592
2385.63423	0.23725
2383.70566	0.23860
2381.77710	0.23994
2379.84854	0.24129
2377.91997	0.24262
2375.99141	0.24404
2374.06284	0.24566
2372.13428	0.24739
2370.20571	0.24983
2368.27715	0.25308
2366.34858	0.25556
2364.42002	0.25687
2362.49146	0.25853
2360.56289	0.26054
2358.63433	0.26187
2356.70576	0.26246
2354.77720	0.26332
2352.84863	0.26498
2350.92007	0.26598
2348.99150	0.26608
2347.06294	0.26662
2345.13437	0.26863
2343.20581	0.27136
2341.27725	0.27303
2339.34868	0.27442
2337.42012	0.27609
2335.49155	0.27768
2333.56299	0.27905
2331.63442	0.28028
2329.70586	0.28168
2327.77729	0.28354
2325.84873	0.28568
2323.92017	0.28738
2321.99160	0.28843
2320.06304	0.28974
2318.13447	0.29161
2316.20591	0.29349
2314.27734	0.29520
2312.34878	0.29678
2310.42021	0.29839
2308.49165	0.30009
2306.56309	0.30178
2304.63452	0.30343
2302.70596	0.30523
2300.77739	0.30726
2298.84883	0.30928
2296.92026	0.31112
2294.99170	0.31288
2293.06313	0.31474
2291.13457	0.31668
2289.20601	0.31863
2287.27744	0.32061
2285.34888	0.32249
2283.42031	0.32433
2281.49175	0.32630
2279.56318	0.32846
2277.63462	0.33056
2275.70605	0.33250
2273.77749	0.33444
2271.84893	0.33651
2269.92036	0.33869
2267.99180	0.34091
2266.06323	0.34305
2264.13467	0.34511
2262.20610	0.34713
2260.27754	0.34922
2258.34897	0.35141
2256.42041	0.35366
2254.49185	0.35590
2252.56328	0.35801
2250.63472	0.36002
2248.70615	0.36197
2246.77759	0.36393
2244.84902	0.36605
2242.92046	0.36841
2240.99189	0.37083
2239.06333	0.37311
2237.13477	0.37515
2235.20620	0.37720
2233.27764	0.37954
2231.34907	0.38204
2229.42051	0.38448
2227.49194	0.38680
2225.56338	0.38894
2223.63481	0.39106
2221.70625	0.39324
2219.77769	0.39536
2217.84912	0.39754
2215.92056	0.39987
2213.99199	0.40212
2212.06343	0.40424
2210.13486	0.40635
2208.20630	0.40844
2206.27773	0.41051
2204.34917	0.41260
2202.42061	0.41466
2200.49204	0.41670
2198.56348	0.41876
2196.63491	0.42075
2194.70635	0.42275
2192.77778	0.42482
2190.84922	0.42682
2188.92065	0.42867
2186.99209	0.43044
2185.06353	0.43214
2183.13496	0.43374
2181.20640	0.43533
2179.27783	0.43697
2177.34927	0.43864
2175.42070	0.44028
2173.49214	0.44188
2171.56357	0.44337
2169.63501	0.44475
2167.70645	0.44602
2165.77788	0.44715
2163.84932	0.44820
2161.92075	0.44934
2159.99219	0.45053
2158.06362	0.45165
2156.13506	0.45267
2154.20649	0.45354
2152.27793	0.45429
2150.34937	0.45501
2148.42080	0.45565
2146.49224	0.45614
2144.56367	0.45652
2142.63511	0.45690
2140.70654	0.45730
2138.77798	0.45767
2136.84941	0.45792
2134.92085	0.45802
2132.99229	0.45800
2131.06372	0.45788
2129.13516	0.45764
2127.20659	0.45731
2125.27803	0.45695
2123.34946	0.45659
2121.42090	0.45615
2119.49233	0.45552
2117.56377	0.45487
2115.63521	0.45425
2113.70664	0.45350
2111.77808	0.45260
2109.84951	0.45153
2107.92095	0.45032
2105.99238	0.44913
2104.06382	0.44796
2102.13525	0.44670
2100.20669	0.44531
2098.27812	0.44374
2096.34956	0.44222
2094.42100	0.44086
2092.49243	0.43940
2090.56387	0.43774
2088.63530	0.43584
2086.70674	0.43384
2084.77817	0.43194
2082.84961	0.43012
2080.92104	0.42823
2078.99248	0.42622
2077.06392	0.42411
2075.13535	0.42196
2073.20679	0.41973
2071.27822	0.41745
2069.34966	0.41510
2067.42109	0.41266
2065.49253	0.41027
2063.56396	0.40792
2061.63540	0.40555
2059.70684	0.40307
2057.77827	0.40050
2055.84971	0.39795
2053.92114	0.39542
2051.99258	0.39293
2050.06401	0.39038
2048.13545	0.38767
2046.20688	0.38491
2044.27832	0.38222
2042.34976	0.37949
2040.42119	0.37671
2038.49263	0.37395
2036.56406	0.37127
2034.63550	0.36864
2032.70693	0.36598
2030.77837	0.36322
2028.84980	0.36041
2026.92124	0.35768
2024.99268	0.35497
2023.06411	0.35222
2021.13555	0.34946
2019.20698	0.34666
2017.27842	0.34378
2015.34985	0.34090
2013.42129	0.33819
2011.49272	0.33554
2009.56416	0.33284
2007.63560	0.33009
2005.70703	0.32741
2003.77847	0.32475
2001.84990	0.32205
1999.92134	0.31946
1997.99277	0.31697
1996.06421	0.31449
1994.13564	0.31190
1992.20708	0.30918
1990.27852	0.30644
1988.34995	0.30392
1986.42139	0.30156
1984.49282	0.29926
1982.56426	0.29697
1980.63569	0.29473
1978.70713	0.29256
1976.77856	0.29034
1974.85000	0.28806
1972.92144	0.28578
1970.99287	0.28354
1969.06431	0.28145
1967.13574	0.27951
1965.20718	0.27746
1963.27861	0.27537
1961.35005	0.27341
1959.42148	0.27155
1957.49292	0.26974
1955.56436	0.26799
1953.63579	0.26631
1951.70723	0.26469
1949.77866	0.26308
1947.85010	0.26149
1945.92153	0.26001
1943.99297	0.25864
1942.06440	0.25727
1940.13584	0.25575
1938.20728	0.25415
1936.27871	0.25269
1934.35015	0.25139
1932.42158	0.25023
1930.49302	0.24919
1928.56445	0.24819
1926.63589	0.24717
1924.70732	0.24615
1922.77876	0.24512
1920.85020	0.24414
1918.92163	0.24332
1916.99307	0.24249
1915.06450	0.24150
1913.13594	0.24052
1911.20737	0.23977
1909.27881	0.23916
1907.35024	0.23858
1905.42168	0.23797
1903.49312	0.23735
1901.56455	0.23672
1899.63599	0.23614
1897.70742	0.23571
1895.77886	0.23533
1893.85029	0.23495
1891.92173	0.23456
1889.99316	0.23434
1888.06460	0.23420
1886.13604	0.23401
1884.20747	0.23379
1882.27891	0.23360
1880.35034	0.23344
1878.42178	0.23334
1876.49321	0.23341
1874.56465	0.23344
1872.63608	0.23342
1870.70752	0.23354
1868.77896	0.23400
1866.85039	0.23444
1864.92183	0.23459
1862.99326	0.23468
1861.06470	0.23485
1859.13613	0.23524
1857.20757	0.23563
1855.27900	0.23605
1853.35044	0.23652
1851.42187	0.23703
1849.49331	0.23745
1847.56475	0.23799
1845.63618	0.23883
1843.70762	0.23988
1841.77905	0.24071
1839.85049	0.24123
1837.92192	0.24197
1835.99336	0.24293
1834.06479	0.24394
1832.13623	0.24494
1830.20767	0.24624
1828.27910	0.24773
1826.35054	0.24899
1824.42197	0.25042
1822.49341	0.25176
1820.56484	0.25293
1818.63628	0.25417
1816.70771	0.25569
1814.77915	0.25734
1812.85059	0.25914
1810.92202	0.26117
1808.99346	0.26320
1807.06489	0.26512
1805.13633	0.26703
1803.20776	0.26922
1801.27920	0.27171
1799.35063	0.27454
1797.42207	0.27710
1795.49351	0.27946
1793.56494	0.28218
1791.63638	0.28580
1789.70781	0.28949
1787.77925	0.29233
1785.85068	0.29547
1783.92212	0.29907
1781.99355	0.30294
1780.06499	0.30712
1778.13643	0.31145
1776.20786	0.31548
1774.27930	0.31964
1772.35073	0.32521
1770.42217	0.33160
1768.49360	0.33734
1766.56504	0.34278
1764.63647	0.34805
1762.70791	0.35365
1760.77935	0.36097
1758.85078	0.36817
1756.92222	0.37550
1754.99365	0.38347
1753.06509	0.39050
1751.13652	0.39855
1749.20796	0.40892
1747.27939	0.41965
1745.35083	0.42913
1743.42227	0.43888
1741.49370	0.44969
1739.56514	0.46252
1737.63657	0.47515
1735.70801	0.48581
1733.77944	0.50187
1731.85088	0.52186
1729.92231	0.53806
1727.99375	0.55422
1726.06519	0.57126
1724.13662	0.58969
1722.20806	0.60958
1720.27949	0.62774
1718.35093	0.64861
1716.42236	0.68009
1714.49380	0.71098
1712.56523	0.73607
1710.63667	0.76012
1708.70811	0.78581
1706.77954	0.81485
1704.85098	0.84941
1702.92241	0.87993
1700.99385	0.90967
1699.06528	0.95453
1697.13672	0.99638
1695.20815	1.03936
1693.27959	1.08097
1691.35103	1.11407
1689.42246	1.15168
1687.49390	1.19101
1685.56533	1.22848
1683.63677	1.28608
1681.70820	1.34610
1679.77964	1.38466
1677.85107	1.42144
1675.92251	1.46364
1673.99395	1.51558
1672.06538	1.56186
1670.13682	1.60713
1668.20825	1.66493
1666.27969	1.71094
1664.35112	1.74875
1662.42256	1.79525
1660.49399	1.84807
1658.56543	1.88966
1656.63687	1.92325
1654.70830	1.95496
1652.77974	2.00919
1650.85117	2.06248
1648.92261	2.08177
1646.99404	2.10624
1645.06548	2.13608
1643.13691	2.15749
1641.20835	2.17111
1639.27979	2.18214
1637.35122	2.18841
1635.42266	2.18997
1633.49409	2.18638
1631.56553	2.17617
1629.63696	2.16170
1627.70840	2.13579
1625.77983	2.10486
1623.85127	2.06789
1621.92271	2.02247
1619.99414	1.98085
1618.06558	1.93980
1616.13701	1.88152
1614.20845	1.82278
1612.27988	1.77806
1610.35132	1.73051
1608.42275	1.67835
1606.49419	1.62667
1604.56562	1.57889
1602.63706	1.53259
1600.70850	1.48690
1598.77993	1.44463
1596.85137	1.40507
1594.92280	1.36621
1592.99424	1.32771
1591.06567	1.29224
1589.13711	1.25938
1587.20854	1.22868
1585.27998	1.20000
1583.35142	1.17301
1581.42285	1.14795
1579.49429	1.12607
1577.56572	1.10599
1575.63716	1.08094
1573.70859	1.05857
1571.78003	1.04389
1569.85146	1.02810
1567.92290	1.01004
1565.99434	0.99565
1564.06577	0.98326
1562.13721	0.97276
1560.20864	0.96394
1558.28008	0.94939
1556.35151	0.93632
1554.42295	0.92849
1552.49438	0.92092
1550.56582	0.91315
1548.63726	0.90457
1546.70869	0.89617
1544.78013	0.88744
1542.85156	0.87743
1540.92300	0.86528
1538.99443	0.84943
1537.06587	0.83809
1535.13730	0.83005
1533.20874	0.81980
1531.28018	0.80892
1529.35161	0.80075
1527.42305	0.79284
1525.49448	0.78450
1523.56592	0.77716
1521.63735	0.76986
1519.70879	0.76237
1517.78022	0.75592
1515.85166	0.74880
1513.92310	0.74189
1511.99453	0.73618
1510.06597	0.73098
1508.13740	0.72582
1506.20884	0.71818
1504.28027	0.71171
1502.35171	0.70781
1500.42314	0.70425
1498.49458	0.70045
1496.56602	0.69587
1494.63745	0.69107
1492.70889	0.68719
1490.78032	0.68387
1488.85176	0.68030
1486.92319	0.67698
1484.99463	0.67417
1483.06606	0.67160
1481.13750	0.66903
1479.20894	0.66659
1477.28037	0.66451
1475.35181	0.66273
1473.42324	0.66107
1471.49468	0.65879
1469.56611	0.65629
1467.63755	0.65416
1465.70898	0.65227
1463.78042	0.65041
1461.85186	0.64874
1459.92329	0.64727
1457.99473	0.64551
1456.06616	0.64307
1454.13760	0.64050
1452.20903	0.63817
1450.28047	0.63602
1448.35190	0.63397
1446.42334	0.63190
1444.49478	0.63009
1442.56621	0.62834
1440.63765	0.62637
1438.70908	0.62437
1436.78052	0.62221
1434.85195	0.61993
1432.92339	0.61800
1430.99482	0.61635
1429.06626	0.61480
1427.13770	0.61358
1425.20913	0.61274
1423.28057	0.61210
1421.35200	0.61145
1419.42344	0.61059
1417.49487	0.60938
1415.56631	0.60793
1413.63774	0.60655
1411.70918	0.60528
1409.78062	0.60419
1407.85205	0.60327
1405.92349	0.60265
1403.99492	0.60221
1402.06636	0.60127
1400.13779	0.59976
1398.20923	0.59799
1396.28066	0.59622
1394.35210	0.59446
1392.42354	0.59268
1390.49497	0.59085
1388.56641	0.58889
1386.63784	0.58680
1384.70928	0.58480
1382.78071	0.58291
1380.85215	0.58096
1378.92358	0.57914
1376.99502	0.57771
1375.06646	0.57659
1373.13789	0.57553
1371.20933	0.57459
1369.28076	0.57380
1367.35220	0.57294
1365.42363	0.57201
1363.49507	0.57096
1361.56650	0.56970
1359.63794	0.56851
1357.70937	0.56754
1355.78081	0.56674
1353.85225	0.56603
1351.92368	0.56516
1349.99512	0.56415
1348.06655	0.56317
1346.13799	0.56218
1344.20942	0.56112
1342.28086	0.56015
1340.35229	0.55938
1338.42373	0.55852
1336.49517	0.55762
1334.56660	0.55691
1332.63804	0.55628
1330.70947	0.55556
1328.78091	0.55487
1326.85234	0.55441
1324.92378	0.55412
1322.99521	0.55385
1321.06665	0.55356
1319.13809	0.55313
1317.20952	0.55251
1315.28096	0.55189
1313.35239	0.55123
1311.42383	0.55046
1309.49526	0.54956
1307.56670	0.54860
1305.63813	0.54783
1303.70957	0.54726
1301.78101	0.54669
1299.85244	0.54590
1297.92388	0.54493
1295.99531	0.54400
1294.06675	0.54317
1292.13818	0.54231
1290.20962	0.54143
1288.28105	0.54069
1286.35249	0.54003
1284.42393	0.53938
1282.49536	0.53874
1280.56680	0.53809
1278.63823	0.53740
1276.70967	0.53681
1274.78110	0.53627
1272.85254	0.53566
1270.92397	0.53509
1268.99541	0.53454
1267.06685	0.53402
1265.13828	0.53362
1263.20972	0.53319
1261.28115	0.53266
1259.35259	0.53229
1257.42402	0.53204
1255.49546	0.53166
1253.56689	0.53119
1251.63833	0.53079
1249.70977	0.53052
1247.78120	0.53038
1245.85264	0.53013
1243.92407	0.52966
1241.99551	0.52918
1240.06694	0.52851
1238.13838	0.52752
1236.20981	0.52656
1234.28125	0.52569
1232.35269	0.52475
1230.42412	0.52378
1228.49556	0.52277
1226.56699	0.52172
1224.63843	0.52078
1222.70986	0.51996
1220.78130	0.51919
1218.85273	0.51838
1216.92417	0.51752
1214.99561	0.51673
1213.06704	0.51603
1211.13848	0.51538
1209.20991	0.51480
1207.28135	0.51425
1205.35278	0.51361
1203.42422	0.51292
1201.49565	0.51218
1199.56709	0.51143
1197.63853	0.51082
1195.70996	0.51037
1193.78140	0.50997
1191.85283	0.50948
1189.92427	0.50893
1187.99570	0.50853
1186.06714	0.50825
1184.13857	0.50802
1182.21001	0.50798
1180.28145	0.50834
1178.35288	0.50904
1176.42432	0.50975
1174.49575	0.51025
1172.56719	0.51065
1170.63862	0.51115
1168.71006	0.51169
1166.78149	0.51223
1164.85293	0.51282
1162.92437	0.51327
1160.99580	0.51332
1159.06724	0.51300
1157.13867	0.51245
1155.21011	0.51175
1153.28154	0.51074
1151.35298	0.50925
1149.42441	0.50737
1147.49585	0.50530
1145.56729	0.50314
1143.63872	0.50077
1141.71016	0.49824
1139.78159	0.49594
1137.85303	0.49426
1135.92446	0.49308
1133.99590	0.49202
1132.06733	0.49083
1130.13877	0.48963
1128.21021	0.48861
1126.28164	0.48764
1124.35308	0.48667
1122.42451	0.48578
1120.49595	0.48508
1118.56738	0.48467
1116.63882	0.48447
1114.71025	0.48440
1112.78169	0.48461
1110.85312	0.48528
1108.92456	0.48624
1106.99600	0.48723
1105.06743	0.48812
1103.13887	0.48907
1101.21030	0.49042
1099.28174	0.49219
1097.35317	0.49434
1095.42461	0.49716
1093.49604	0.50081
1091.56748	0.50522
1089.63892	0.51061
1087.71035	0.51698
1085.78179	0.52399
1083.85322	0.53137
1081.92466	0.53853
1079.99609	0.54443
1078.06753	0.54805
1076.13896	0.54881
1074.21040	0.54651
1072.28184	0.54177
1070.35327	0.53571
1068.42471	0.52898
1066.49614	0.52205
1064.56758	0.51544
1062.63901	0.50950
1060.71045	0.50466
1058.78188	0.50077
1056.85332	0.49711
1054.92476	0.49357
1052.99619	0.49074
1051.06763	0.48855
1049.13906	0.48658
1047.21050	0.48508
1045.28193	0.48440
1043.35337	0.48433
1041.42480	0.48437
1039.49624	0.48417
1037.56768	0.48381
1035.63911	0.48346
1033.71055	0.48303
1031.78198	0.48247
1029.85342	0.48190
1027.92485	0.48142
1025.99629	0.48107
1024.06772	0.48089
1022.13916	0.48081
1020.21060	0.48095
1018.28203	0.48149
1016.35347	0.48218
1014.42490	0.48277
1012.49634	0.48336
1010.56777	0.48409
1008.63921	0.48500
1006.71064	0.48619
1004.78208	0.48768
1002.85352	0.48949
1000.92495	0.49189
998.99639	0.49509
997.06782	0.49898
995.13926	0.50320
993.21069	0.50713
991.28213	0.51019
989.35356	0.51239
987.42500	0.51391
985.49644	0.51469
983.56787	0.51505
981.63931	0.51566
979.71074	0.51679
977.78218	0.51849
975.85361	0.52095
973.92505	0.52387
971.99648	0.52694
970.06792	0.53024
968.13936	0.53386
966.21079	0.53795
964.28223	0.54253
962.35366	0.54744
960.42510	0.55268
958.49653	0.55820
956.56797	0.56398
954.63940	0.56998
952.71084	0.57604
950.78228	0.58216
948.85371	0.58852
946.92515	0.59484
944.99658	0.60085
943.06802	0.60704
941.13945	0.61369
939.21089	0.62026
937.28232	0.62601
935.35376	0.63122
933.42520	0.63685
931.49663	0.64273
929.56807	0.64869
927.63950	0.65503
925.71094	0.66127
923.78237	0.66739
921.85381	0.67368
919.92524	0.68017
917.99668	0.68713
916.06812	0.69453
914.13955	0.70240
912.21099	0.71075
910.28242	0.71927
908.35386	0.72786
906.42529	0.73637
904.49673	0.74468
902.56816	0.75345
900.63960	0.76307
898.71104	0.77283
896.78247	0.78265
894.85391	0.79252
892.92534	0.80204
890.99678	0.81187
889.06821	0.82250
887.13965	0.83391
885.21108	0.84572
883.28252	0.85711
881.35396	0.86833
879.42539	0.87991
877.49683	0.89177
875.56826	0.90368
873.63970	0.91563
871.71113	0.92758
869.78257	0.93891
867.85400	0.95035
865.92544	0.96352
863.99687	0.97714
862.06831	0.98874
860.13975	0.99822
858.21118	1.00625
856.28262	1.01363
854.35405	1.02357
852.42549	1.03739
850.49692	1.05235
848.56836	1.06660
846.63979	1.07816
844.71123	1.08656
842.78267	1.09622
840.85410	1.10918
838.92554	1.12236
836.99697	1.13404
835.06841	1.14558
833.13984	1.15890
831.21128	1.17268
829.28271	1.18374
827.35415	1.19385
825.42559	1.20544
823.49702	1.21722
821.56846	1.22814
819.63989	1.23682
817.71133	1.24519
815.78276	1.26057
813.85420	1.27193
811.92563	1.26736
809.99707	1.26512
808.06851	1.26833
806.13994	1.27420
804.21138	1.30550
802.28281	1.35276
800.35425	1.36324
798.42568	1.34947
796.49712	1.34941
794.56855	1.34586
792.63999	1.35372
790.71143	1.41288
788.78286	1.47112
786.85430	1.42592
784.92573	1.34774
782.99717	1.30692
781.06860	1.29721
779.14004	1.31159
777.21147	1.32984
775.28291	1.33305
773.35435	1.34182
771.42578	1.35289
769.49722	1.30259
767.56865	1.22154
765.64009	1.19241
763.71152	1.18214
761.78296	1.12039
759.85439	1.08984
757.92583	1.14662
755.99727	1.21244
754.06870	1.22088
752.14014	1.22159
750.21157	1.22444
748.28301	1.20149
746.35444	1.17929
744.42588	1.13470
742.49731	1.01390
740.56875	0.86778
738.64019	0.76562
736.71162	0.75583
734.78306	0.81835
732.85449	0.81007
730.92593	0.76595
728.99736	0.85866
727.06880	0.96406
725.14023	0.65627
723.21167	0.47012
721.28311	0.50690
719.35454	0.57435
717.42598	0.46663
715.49741	0.34617
713.56885	0.24843
711.64028	0.21808
709.71172	0.27625
707.78315	0.30450
705.85459	0.10020
703.92603	-0.21842
701.99746	-0.28458
700.06890	-0.13214
698.14033	-0.02776
696.21177	-0.01658
694.28320	-0.03379
692.35464	0.06994
690.42607	0.18165
688.49751	0.15333
686.56895	0.04945
684.64038	-0.00976
682.71182	-0.00317
680.78325	0.05424
678.85469	0.12190
676.92612	0.11618
674.99756	-0.01654
673.06899	-0.14777
671.14043	-0.16064
669.21187	-0.10634
667.28330	-0.08430
665.35474	-0.05494
663.42617	0.04342
661.49761	0.09321
659.56904	0.03706
657.64048	-0.04911
655.71191	-0.06652
653.78335	0.00010
651.85479	0.07871
649.92622	0.11048
647.99766	0.13389
646.06909	0.15198
644.14053	0.10674
642.21196	0.06257
640.28340	0.12315
638.35483	0.31911
636.42627	0.41904
634.49771	0.32558
632.56914	0.38656
630.64058	0.41854
628.71201	0.27735
626.78345	0.22256
624.85488	0.27205
622.92632	0.28876
620.99775	0.26794
619.06919	0.21558
617.14062	0.08539
615.21206	-0.00765
613.28350	-0.06024
611.35493	-0.08484
609.42637	-0.02116
607.49780	0.15579
605.56924	0.28838
603.64067	0.13330
601.71211	0.01532
599.78354	0.00670
597.85498	0.03708
595.92642	0.07917
593.99785	0.16074
592.06929	0.22838
590.14072	0.26313
588.21216	0.29650
586.28359	0.24179
584.35503	0.18212
582.42646	0.18595
580.49790	0.20966
578.56934	0.14329
576.64077	0.03410
574.71221	0.00167
572.78364	-0.01693
570.85508	-0.07058
568.92651	-0.08081
566.99795	0.09305
565.06938	0.20949
563.14082	0.09192
561.21226	0.05977
559.28369	0.09891
557.35513	0.05987
555.42656	-0.00155
553.49800	0.00759
551.56943	0.08447
549.64087	0.12686
547.71230	0.07413
545.78374	0.02015
543.85518	0.03120
541.92661	0.06308
539.99805	0.06777
538.06948	0.07663
536.14092	0.11516
534.21235	0.20243
532.28379	0.22248
530.35522	0.18850
528.42666	0.16411
526.49810	0.12966
524.56953	0.06563
522.64097	0.00644
520.71240	0.00217
518.78384	0.03131
516.85527	0.06598
514.92671	0.11943
512.99814	0.15376
511.06958	0.12298
509.14102	0.08669
507.21245	0.08004
505.28389	0.08819
503.35532	0.11392
501.42676	0.11580
499.49819	0.07667
