3997.91411	0.06866
3995.98555	0.06878
3994.05698	0.06961
3992.12842	0.07065
3990.19985	0.07114
3988.27129	0.07121
3986.34272	0.07126
3984.41416	0.07131
3982.48560	0.07136
3980.55703	0.07169
3978.62847	0.07202
3976.69990	0.07206
3974.77134	0.07205
3972.84277	0.07217
3970.91421	0.07243
3968.98564	0.07268
3967.05708	0.07274
3965.12852	0.07257
3963.19995	0.07232
3961.27139	0.07225
3959.34282	0.07261
3957.41426	0.07291
3955.48569	0.07292
3953.55713	0.07291
3951.62856	0.07291
3949.70000	0.07317
3947.77144	0.07394
3945.84287	0.07458
3943.91431	0.07470
3941.98574	0.07435
3940.05718	0.07359
3938.12861	0.07304
3936.20005	0.07316
3934.27148	0.07330
3932.34292	0.07303
3930.41436	0.07281
3928.48579	0.07282
3926.55723	0.07307
3924.62866	0.07350
3922.70010	0.07336
3920.77153	0.07251
3918.84297	0.07175
3916.91440	0.07150
3914.98584	0.07159
3913.05728	0.07167
3911.12871	0.07183
3909.20015	0.07213
3907.27158	0.07229
3905.34302	0.07226
3903.41445	0.07245
3901.48589	0.07286
3899.55732	0.07308
3897.62876	0.07295
3895.70020	0.07240
3893.77163	0.07197
3891.84307	0.07204
3889.91450	0.07227
3887.98594	0.07221
3886.05737	0.07218
3884.12881	0.07240
3882.20024	0.07261
3880.27168	0.07288
3878.34312	0.07315
3876.41455	0.07329
3874.48599	0.07377
3872.55742	0.07450
3870.62886	0.07487
3868.70029	0.07503
3866.77173	0.07490
3864.84316	0.07465
3862.91460	0.07460
3860.98604	0.07462
3859.05747	0.07490
3857.12891	0.07555
3855.20034	0.07657
3853.27178	0.07832
3851.34321	0.07948
3849.41465	0.07862
3847.48608	0.07773
3845.55752	0.07755
3843.62896	0.07796
3841.70039	0.07861
3839.77183	0.07948
3837.84326	0.08111
3835.91470	0.08262
3833.98613	0.08293
3832.05757	0.08265
3830.12900	0.08259
3828.20044	0.08322
3826.27187	0.08426
3824.34331	0.08527
3822.41475	0.08662
3820.48618	0.08838
3818.55762	0.08890
3816.62905	0.08904
3814.70049	0.09011
3812.77192	0.09062
3810.84336	0.09062
3808.91479	0.09124
3806.98623	0.09256
3805.05767	0.09379
3803.12910	0.09488
3801.20054	0.09674
3799.27197	0.09851
3797.34341	0.09920
3795.41484	0.09979
3793.48628	0.10074
3791.55771	0.10207
3789.62915	0.10347
3787.70059	0.10486
3785.77202	0.10646
3783.84346	0.10783
3781.91489	0.10873
3779.98633	0.11001
3778.05776	0.11196
3776.12920	0.11353
3774.20063	0.11472
3772.27207	0.11632
3770.34351	0.11854
3768.41494	0.12073
3766.48638	0.12237
3764.55781	0.12414
3762.62925	0.12587
3760.70068	0.12750
3758.77212	0.12985
3756.84355	0.13216
3754.91499	0.13387
3752.98643	0.13609
3751.05786	0.13953
3749.12930	0.14386
3747.20073	0.14682
3745.27217	0.14874
3743.34360	0.15129
3741.41504	0.15334
3739.48647	0.15485
3737.55791	0.15743
3735.62935	0.16194
3733.70078	0.16724
3731.77222	0.17101
3729.84365	0.17349
3727.91509	0.17596
3725.98652	0.18023
3724.05796	0.18706
3722.12939	0.19503
3720.20083	0.20318
3718.27227	0.21178
3716.34370	0.22099
3714.41514	0.22958
3712.48657	0.23776
3710.55801	0.24836
3708.62944	0.26100
3706.70088	0.27216
3704.77231	0.28250
3702.84375	0.29476
3700.91519	0.31147
3698.98662	0.33022
3697.05806	0.34782
3695.12949	0.36616
3693.20093	0.38553
3691.27236	0.40657
3689.34380	0.43423
3687.41523	0.46869
3685.48667	0.49901
3683.55811	0.52542
3681.62954	0.55361
3679.70098	0.58463
3677.77241	0.61698
3675.84385	0.65541
3673.91528	0.70744
3671.98672	0.75069
3670.05815	0.78871
3668.12959	0.84009
3666.20103	0.88763
3664.27246	0.92786
3662.34390	0.97104
3660.41533	1.01764
3658.48677	1.06336
3656.55820	1.11150
3654.62964	1.16486
3652.70107	1.20963
3650.77251	1.24837
3648.84395	1.30161
3646.91538	1.36755
3644.98682	1.41720
3643.05825	1.45600
3641.12969	1.49587
3639.20112	1.53940
3637.27256	1.58291
3635.34399	1.62544
3633.41543	1.66725
3631.48687	1.70530
3629.55830	1.74443
3627.62974	1.79707
3625.70117	1.84643
3623.77261	1.88003
3621.84404	1.91258
3619.91548	1.94999
3617.98691	1.99443
3616.05835	2.03731
3614.12979	2.07427
3612.20122	2.11300
3610.27266	2.15086
3608.34409	2.18859
3606.41553	2.23036
3604.48696	2.27021
3602.55840	2.30501
3600.62983	2.34174
3598.70127	2.38177
3596.77271	2.42148
3594.84414	2.46301
3592.91558	2.50701
3590.98701	2.54762
3589.05845	2.58343
3587.12988	2.62488
3585.20132	2.67108
3583.27275	2.71203
3581.34419	2.75094
3579.41562	2.79162
3577.48706	2.83490
3575.55850	2.88008
3573.62993	2.92496
3571.70137	2.96617
3569.77280	3.00455
3567.84424	3.04574
3565.91567	3.09697
3563.98711	3.14656
3562.05854	3.18640
3560.12998	3.22793
3558.20142	3.27448
3556.27285	3.32085
3554.34429	3.36401
3552.41572	3.40785
3550.48716	3.45312
3548.55859	3.49726
3546.63003	3.54184
3544.70146	3.59156
3542.77290	3.64495
3540.84434	3.69544
3538.91577	3.74110
3536.98721	3.78638
3535.05864	3.83738
3533.13008	3.88721
3531.20151	3.93015
3529.27295	3.97247
3527.34438	4.02002
3525.41582	4.06854
3523.48726	4.11475
3521.55869	4.16347
3519.63013	4.21169
3517.70156	4.25859
3515.77300	4.30834
3513.84443	4.35861
3511.91587	4.40693
3509.98730	4.45738
3508.05874	4.51185
3506.13018	4.56218
3504.20161	4.60433
3502.27305	4.64694
3500.34448	4.69308
3498.41592	4.73536
3496.48735	4.77500
3494.55879	4.82104
3492.63022	4.87484
3490.70166	4.92663
3488.77310	4.97418
3486.84453	5.02281
3484.91597	5.06999
3482.98740	5.11661
3481.05884	5.16879
3479.13027	5.22530
3477.20171	5.28355
3475.27314	5.34013
3473.34458	5.39178
3471.41602	5.43720
3469.48745	5.47817
3467.55889	5.52374
3465.63032	5.57458
3463.70176	5.62748
3461.77319	5.68330
3459.84463	5.73445
3457.91606	5.77435
3455.98750	5.81397
3454.05894	5.85816
3452.13037	5.90422
3450.20181	5.95912
3448.27324	6.01690
3446.34468	6.06600
3444.41611	6.11467
3442.48755	6.17466
3440.55898	6.23156
3438.63042	6.26862
3436.70186	6.30335
3434.77329	6.36356
3432.84473	6.43218
3430.91616	6.47883
3428.98760	6.50970
3427.05903	6.53471
3425.13047	6.57626
3423.20190	6.64297
3421.27334	6.72652
3419.34478	6.81470
3417.41621	6.88471
3415.48765	6.92952
3413.55908	6.95146
3411.63052	6.96174
3409.70195	6.97098
3407.77339	7.00021
3405.84482	7.04740
3403.91626	7.09666
3401.98770	7.15171
3400.05913	7.21408
3398.13057	7.28143
3396.20200	7.34069
3394.27344	7.36891
3392.34487	7.37565
3390.41631	7.41115
3388.48774	7.45976
3386.55918	7.48880
3384.63062	7.52638
3382.70205	7.60006
3380.77349	7.67102
3378.84492	7.67583
3376.91636	7.65922
3374.98779	7.70491
3373.05923	7.76981
3371.13066	7.75932
3369.20210	7.74762
3367.27354	7.78964
3365.34497	7.83495
3363.41641	7.86867
3361.48784	7.88946
3359.55928	7.87184
3357.63071	7.85900
3355.70215	7.93463
3353.77358	8.00729
3351.84502	8.00127
3349.91646	7.98432
3347.98789	7.95173
3346.05933	7.89093
3344.13076	7.87359
3342.20220	7.93613
3340.27363	8.03709
3338.34507	8.14219
3336.41650	8.20285
3334.48794	8.21572
3332.55937	8.20552
3330.63081	8.16194
3328.70225	8.08483
3326.77368	8.04482
3324.84512	8.07956
3322.91655	8.10735
3320.98799	8.12131
3319.05942	8.14081
3317.13086	8.14251
3315.20229	8.17295
3313.27373	8.25482
3311.34517	8.29322
3309.41660	8.27102
3307.48804	8.25831
3305.55947	8.26640
3303.63091	8.28446
3301.70234	8.25171
3299.77378	8.21052
3297.84521	8.25646
3295.91665	8.29300
3293.98809	8.21416
3292.05952	8.19856
3290.13096	8.33452
3288.20239	8.39356
3286.27383	8.30343
3284.34526	8.25911
3282.41670	8.31502
3280.48813	8.35228
3278.55957	8.32598
3276.63101	8.31912
3274.70244	8.33594
3272.77388	8.36980
3270.84531	8.46663
3268.91675	8.53938
3266.98818	8.49329
3265.05962	8.42180
3263.13105	8.39575
3261.20249	8.40391
3259.27393	8.39312
3257.34536	8.37569
3255.41680	8.39166
3253.48823	8.42118
3251.55967	8.42854
3249.63110	8.39188
3247.70254	8.34628
3245.77397	8.30391
3243.84541	8.26871
3241.91685	8.23039
3239.98828	8.19689
3238.05972	8.19690
3236.13115	8.18185
3234.20259	8.17694
3232.27402	8.21513
3230.34546	8.25196
3228.41689	8.29985
3226.48833	8.28875
3224.55977	8.18299
3222.63120	8.13173
3220.70264	8.15564
3218.77407	8.12789
3216.84551	8.03536
3214.91694	7.99597
3212.98838	8.01023
3211.05981	7.97928
3209.13125	7.91346
3207.20269	7.89012
3205.27412	7.93005
3203.34556	7.97314
3201.41699	7.94980
3199.48843	7.89338
3197.55986	7.84569
3195.63130	7.75952
3193.70273	7.65567
3191.77417	7.60539
3189.84561	7.57538
3187.91704	7.48582
3185.98848	7.36370
3184.05991	7.30906
3182.13135	7.32842
3180.20278	7.37287
3178.27422	7.40180
3176.34565	7.35425
3174.41709	7.25519
3172.48853	7.18624
3170.55996	7.15059
3168.63140	7.10576
3166.70283	7.03267
3164.77427	6.93562
3162.84570	6.83392
3160.91714	6.75006
3158.98857	6.68429
3157.06001	6.62477
3155.13145	6.56861
3153.20288	6.52194
3151.27432	6.48464
3149.34575	6.43817
3147.41719	6.37113
3145.48862	6.28547
3143.56006	6.19377
3141.63149	6.12153
3139.70293	6.05862
3137.77437	5.97904
3135.84580	5.89183
3133.91724	5.80982
3131.98867	5.73776
3130.06011	5.67207
3128.13154	5.59582
3126.20298	5.51259
3124.27441	5.43999
3122.34585	5.37752
3120.41729	5.31668
3118.48872	5.25189
3116.56016	5.18255
3114.63159	5.11468
3112.70303	5.04953
3110.77446	4.98064
3108.84590	4.90718
3106.91733	4.83200
3104.98877	4.75682
3103.06021	4.68422
3101.13164	4.61718
3099.20308	4.55600
3097.27451	4.49117
3095.34595	4.41807
3093.41738	4.34538
3091.48882	4.27709
3089.56025	4.21028
3087.63169	4.14616
3085.70312	4.08478
3083.77456	4.02180
3081.84600	3.95923
3079.91743	3.90074
3077.98887	3.84325
3076.06030	3.78216
3074.13174	3.71868
3072.20317	3.65773
3070.27461	3.60033
3068.34604	3.54355
3066.41748	3.48630
3064.48892	3.43028
3062.56035	3.37460
3060.63179	3.31777
3058.70322	3.26072
3056.77466	3.20504
3054.84609	3.15253
3052.91753	3.10289
3050.98896	3.05318
3049.06040	3.00115
3047.13184	2.94855
3045.20327	2.89720
3043.27471	2.84651
3041.34614	2.79694
3039.41758	2.74908
3037.48901	2.70246
3035.56045	2.65700
3033.63188	2.61238
3031.70332	2.56766
3029.77476	2.52256
3027.84619	2.47766
3025.91763	2.43418
3023.98906	2.39202
3022.06050	2.34977
3020.13193	2.30758
3018.20337	2.26675
3016.27480	2.22717
3014.34624	2.18789
3012.41768	2.14914
3010.48911	2.11098
3008.56055	2.07298
3006.63198	2.03574
3004.70342	1.99939
3002.77485	1.96357
3000.84629	1.92882
2998.91772	1.89524
2996.98916	1.86181
2995.06060	1.82859
2993.13203	1.79672
2991.20347	1.76611
2989.27490	1.73576
2987.34634	1.70545
2985.41777	1.67572
2983.48921	1.64648
2981.56064	1.61736
2979.63208	1.58880
2977.70352	1.56120
2975.77495	1.53412
2973.84639	1.50734
2971.91782	1.48146
2969.98926	1.45649
2968.06069	1.43145
2966.13213	1.40588
2964.20356	1.38095
2962.27500	1.35731
2960.34644	1.33397
2958.41787	1.31050
2956.48931	1.28700
2954.56074	1.26345
2952.63218	1.24006
2950.70361	1.21720
2948.77505	1.19514
2946.84648	1.17366
2944.91792	1.15230
2942.98936	1.13106
2941.06079	1.11044
2939.13223	1.09051
2937.20366	1.07081
2935.27510	1.05127
2933.34653	1.03215
2931.41797	1.01322
2929.48940	0.99444
2927.56084	0.97640
2925.63228	0.95875
2923.70371	0.94102
2921.77515	0.92359
2919.84658	0.90664
2917.91802	0.88981
2915.98945	0.87278
2914.06089	0.85645
2912.13232	0.84126
2910.20376	0.82625
2908.27520	0.81098
2906.34663	0.79601
2904.41807	0.78156
2902.48950	0.76761
2900.56094	0.75433
2898.63237	0.74134
2896.70381	0.72832
2894.77524	0.71566
2892.84668	0.70363
2890.91812	0.69210
2888.98955	0.68069
2887.06099	0.66921
2885.13242	0.65805
2883.20386	0.64759
2881.27529	0.63757
2879.34673	0.62752
2877.41816	0.61749
2875.48960	0.60771
2873.56104	0.59794
2871.63247	0.58780
2869.70391	0.57737
2867.77534	0.56689
2865.84678	0.55650
2863.91821	0.54616
2861.98965	0.53576
2860.06108	0.52571
2858.13252	0.51615
2856.20396	0.50674
2854.27539	0.49781
2852.34683	0.48973
2850.41826	0.48191
2848.48970	0.47376
2846.56113	0.46582
2844.63257	0.45870
2842.70400	0.45201
2840.77544	0.44529
2838.84687	0.43883
2836.91831	0.43288
2834.98975	0.42708
2833.06118	0.42120
2831.13262	0.41531
2829.20405	0.40934
2827.27549	0.40329
2825.34692	0.39738
2823.41836	0.39172
2821.48979	0.38611
2819.56123	0.38047
2817.63267	0.37493
2815.70410	0.36938
2813.77554	0.36372
2811.84697	0.35817
2809.91841	0.35310
2807.98984	0.34843
2806.06128	0.34371
2804.13271	0.33873
2802.20415	0.33350
2800.27559	0.32836
2798.34702	0.32360
2796.41846	0.31912
2794.48989	0.31471
2792.56133	0.31024
2790.63276	0.30596
2788.70420	0.30204
2786.77563	0.29817
2784.84707	0.29416
2782.91851	0.29022
2780.98994	0.28633
2779.06138	0.28239
2777.13281	0.27841
2775.20425	0.27450
2773.27568	0.27088
2771.34712	0.26759
2769.41855	0.26435
2767.48999	0.26093
2765.56143	0.25753
2763.63286	0.25434
2761.70430	0.25120
2759.77573	0.24793
2757.84717	0.24476
2755.91860	0.24191
2753.99004	0.23919
2752.06147	0.23637
2750.13291	0.23351
2748.20435	0.23080
2746.27578	0.22819
2744.34722	0.22559
2742.41865	0.22300
2740.49009	0.22033
2738.56152	0.21763
2736.63296	0.21515
2734.70439	0.21296
2732.77583	0.21081
2730.84727	0.20860
2728.91870	0.20642
2726.99014	0.20433
2725.06157	0.20234
2723.13301	0.20023
2721.20444	0.19803
2719.27588	0.19611
2717.34731	0.19450
2715.41875	0.19279
2713.49019	0.19077
2711.56162	0.18879
2709.63306	0.18719
2707.70449	0.18588
2705.77593	0.18454
2703.84736	0.18299
2701.91880	0.18128
2699.99023	0.17970
2698.06167	0.17832
2696.13311	0.17699
2694.20454	0.17560
2692.27598	0.17427
2690.34741	0.17326
2688.41885	0.17230
2686.49028	0.17096
2684.56172	0.16955
2682.63315	0.16845
2680.70459	0.16735
2678.77603	0.16611
2676.84746	0.16503
2674.91890	0.16422
2672.99033	0.16350
2671.06177	0.16263
2669.13320	0.16161
2667.20464	0.16060
2665.27607	0.15974
2663.34751	0.15895
2661.41895	0.15812
2659.49038	0.15732
2657.56182	0.15663
2655.63325	0.15603
2653.70469	0.15545
2651.77612	0.15476
2649.84756	0.15413
2647.91899	0.15369
2645.99043	0.15325
2644.06187	0.15265
2642.13330	0.15201
2640.20474	0.15139
2638.27617	0.15077
2636.34761	0.15033
2634.41904	0.15017
2632.49048	0.15013
2630.56191	0.15006
2628.63335	0.14978
2626.70479	0.14924
2624.77622	0.14868
2622.84766	0.14836
2620.91909	0.14823
2618.99053	0.14815
2617.06196	0.14795
2615.13340	0.14765
2613.20483	0.14751
2611.27627	0.14756
2609.34771	0.14761
2607.41914	0.14748
2605.49058	0.14723
2603.56201	0.14712
2601.63345	0.14716
2599.70488	0.14718
2597.77632	0.14735
2595.84775	0.14760
2593.91919	0.14765
2591.99062	0.14774
2590.06206	0.14800
2588.13350	0.14830
2586.20493	0.14861
2584.27637	0.14886
2582.34780	0.14902
2580.41924	0.14925
2578.49067	0.14963
2576.56211	0.14997
2574.63354	0.15016
2572.70498	0.15047
2570.77642	0.15091
2568.84785	0.15125
2566.91929	0.15160
2564.99072	0.15211
2563.06216	0.15268
2561.13359	0.15321
2559.20503	0.15361
2557.27646	0.15387
2555.34790	0.15427
2553.41934	0.15508
2551.49077	0.15589
2549.56221	0.15631
2547.63364	0.15664
2545.70508	0.15721
2543.77651	0.15790
2541.84795	0.15858
2539.91938	0.15931
2537.99082	0.16001
2536.06226	0.16068
2534.13369	0.16140
2532.20513	0.16212
2530.27656	0.16275
2528.34800	0.16330
2526.41943	0.16393
2524.49087	0.16467
2522.56230	0.16538
2520.63374	0.16608
2518.70518	0.16688
2516.77661	0.16771
2514.84805	0.16855
2512.91948	0.16942
2510.99092	0.17032
2509.06235	0.17125
2507.13379	0.17211
2505.20522	0.17290
2503.27666	0.17380
2501.34810	0.17471
2499.41953	0.17537
2497.49097	0.17599
2495.56240	0.17688
2493.63384	0.17784
2491.70527	0.17879
2489.77671	0.17978
2487.84814	0.18061
2485.91958	0.18133
2483.99102	0.18217
2482.06245	0.18309
2480.13389	0.18400
2478.20532	0.18504
2476.27676	0.18614
2474.34819	0.18711
2472.41963	0.18802
2470.49106	0.18889
2468.56250	0.18972
2466.63394	0.19056
2464.70537	0.19140
2462.77681	0.19234
2460.84824	0.19336
2458.91968	0.19441
2456.99111	0.19540
2455.06255	0.19628
2453.13398	0.19715
2451.20542	0.19818
2449.27686	0.19930
2447.34829	0.20034
2445.41973	0.20129
2443.49116	0.20223
2441.56260	0.20321
2439.63403	0.20419
2437.70547	0.20520
2435.77690	0.20631
2433.84834	0.20745
2431.91978	0.20858
2429.99121	0.20970
2428.06265	0.21076
2426.13408	0.21179
2424.20552	0.21273
2422.27695	0.21363
2420.34839	0.21484
2418.41982	0.21636
2416.49126	0.21778
2414.56270	0.21887
2412.63413	0.21981
2410.70557	0.22091
2408.77700	0.22215
2406.84844	0.22330
2404.91987	0.22442
2402.99131	0.22561
2401.06274	0.22682
2399.13418	0.22803
2397.20562	0.22927
2395.27705	0.23050
2393.34849	0.23172
2391.41992	0.23305
2389.49136	0.23430
2387.56279	0.23509
2385.63423	0.23503
2383.70566	0.23394
2381.77710	0.23193
2379.84854	0.22919
2377.91997	0.22557
2375.99141	0.22084
2374.06284	0.21525
2372.13428	0.20911
2370.20571	0.20228
2368.27715	0.19472
2366.34858	0.18748
2364.42002	0.18103
2362.49146	0.17575
2360.56289	0.17366
2358.63433	0.17620
2356.70576	0.18306
2354.77720	0.19303
2352.84863	0.20543
2350.92007	0.21797
2348.99150	0.22585
2347.06294	0.22683
2345.13437	0.22157
2343.20581	0.21498
2341.27725	0.21340
2339.34868	0.21559
2337.42012	0.21796
2335.49155	0.22014
2333.56299	0.22327
2331.63442	0.22728
2329.70586	0.23096
2327.77729	0.23416
2325.84873	0.23830
2323.92017	0.24375
2321.99160	0.24946
2320.06304	0.25503
2318.13447	0.26073
2316.20591	0.26619
2314.27734	0.27073
2312.34878	0.27436
2310.42021	0.27776
2308.49165	0.28159
2306.56309	0.28583
2304.63452	0.28995
2302.70596	0.29347
2300.77739	0.29642
2298.84883	0.29922
2296.92026	0.30206
2294.99170	0.30485
2293.06313	0.30765
2291.13457	0.31049
2289.20601	0.31334
2287.27744	0.31629
2285.34888	0.31924
2283.42031	0.32176
2281.49175	0.32368
2279.56318	0.32537
2277.63462	0.32715
2275.70605	0.32900
2273.77749	0.33093
2271.84893	0.33302
2269.92036	0.33516
2267.99180	0.33728
2266.06323	0.33955
2264.13467	0.34207
2262.20610	0.34447
2260.27754	0.34657
2258.34897	0.34871
2256.42041	0.35104
2254.49185	0.35330
2252.56328	0.35547
2250.63472	0.35776
2248.70615	0.36012
2246.77759	0.36249
2244.84902	0.36486
2242.92046	0.36710
2240.99189	0.36925
2239.06333	0.37151
2237.13477	0.37387
2235.20620	0.37620
2233.27764	0.37846
2231.34907	0.38074
2229.42051	0.38296
2227.49194	0.38508
2225.56338	0.38720
2223.63481	0.38943
2221.70625	0.39173
2219.77769	0.39406
2217.84912	0.39632
2215.92056	0.39845
2213.99199	0.40054
2212.06343	0.40270
2210.13486	0.40495
2208.20630	0.40715
2206.27773	0.40918
2204.34917	0.41114
2202.42061	0.41318
2200.49204	0.41524
2198.56348	0.41723
2196.63491	0.41915
2194.70635	0.42107
2192.77778	0.42299
2190.84922	0.42490
2188.92065	0.42681
2186.99209	0.42865
2185.06353	0.43039
2183.13496	0.43210
2181.20640	0.43383
2179.27783	0.43541
2177.34927	0.43692
2175.42070	0.43847
2173.49214	0.43999
2171.56357	0.44145
2169.63501	0.44290
2167.70645	0.44425
2165.77788	0.44550
2163.84932	0.44669
2161.92075	0.44783
2159.99219	0.44886
2158.06362	0.44981
2156.13506	0.45077
2154.20649	0.45168
2152.27793	0.45239
2150.34937	0.45290
2148.42080	0.45337
2146.49224	0.45392
2144.56367	0.45449
2142.63511	0.45502
2140.70654	0.45542
2138.77798	0.45570
2136.84941	0.45590
2134.92085	0.45595
2132.99229	0.45582
2131.06372	0.45564
2129.13516	0.45544
2127.20659	0.45514
2125.27803	0.45480
2123.34946	0.45438
2121.42090	0.45391
2119.49233	0.45346
2117.56377	0.45296
2115.63521	0.45223
2113.70664	0.45145
2111.77808	0.45065
2109.84951	0.44956
2107.92095	0.44829
2105.99238	0.44706
2104.06382	0.44579
2102.13525	0.44441
2100.20669	0.44308
2098.27812	0.44175
2096.34956	0.44022
2094.42100	0.43857
2092.49243	0.43703
2090.56387	0.43553
2088.63530	0.43379
2086.70674	0.43181
2084.77817	0.42978
2082.84961	0.42787
2080.92104	0.42596
2078.99248	0.42391
2077.06392	0.42180
2075.13535	0.41969
2073.20679	0.41755
2071.27822	0.41542
2069.34966	0.41321
2067.42109	0.41079
2065.49253	0.40823
2063.56396	0.40566
2061.63540	0.40322
2059.70684	0.40095
2057.77827	0.39865
2055.84971	0.39608
2053.92114	0.39335
2051.99258	0.39066
2050.06401	0.38799
2048.13545	0.38532
2046.20688	0.38261
2044.27832	0.37996
2042.34976	0.37734
2040.42119	0.37464
2038.49263	0.37188
2036.56406	0.36913
2034.63550	0.36643
2032.70693	0.36367
2030.77837	0.36087
2028.84980	0.35806
2026.92124	0.35527
2024.99268	0.35250
2023.06411	0.34972
2021.13555	0.34694
2019.20698	0.34421
2017.27842	0.34148
2015.34985	0.33872
2013.42129	0.33598
2011.49272	0.33318
2009.56416	0.33036
2007.63560	0.32763
2005.70703	0.32496
2003.77847	0.32232
2001.84990	0.31971
1999.92134	0.31718
1997.99277	0.31473
1996.06421	0.31227
1994.13564	0.30981
1992.20708	0.30731
1990.27852	0.30467
1988.34995	0.30213
1986.42139	0.29971
1984.49282	0.29731
1982.56426	0.29495
1980.63569	0.29260
1978.70713	0.29029
1976.77856	0.28799
1974.85000	0.28571
1972.92144	0.28358
1970.99287	0.28161
1969.06431	0.27962
1967.13574	0.27748
1965.20718	0.27525
1963.27861	0.27317
1961.35005	0.27125
1959.42148	0.26946
1957.49292	0.26779
1955.56436	0.26613
1953.63579	0.26451
1951.70723	0.26285
1949.77866	0.26102
1947.85010	0.25921
1945.92153	0.25770
1943.99297	0.25642
1942.06440	0.25509
1940.13584	0.25363
1938.20728	0.25219
1936.27871	0.25086
1934.35015	0.24958
1932.42158	0.24835
1930.49302	0.24718
1928.56445	0.24606
1926.63589	0.24504
1924.70732	0.24417
1922.77876	0.24329
1920.85020	0.24228
1918.92163	0.24126
1916.99307	0.24030
1915.06450	0.23938
1913.13594	0.23860
1911.20737	0.23797
1909.27881	0.23733
1907.35024	0.23664
1905.42168	0.23607
1903.49312	0.23558
1901.56455	0.23500
1899.63599	0.23440
1897.70742	0.23391
1895.77886	0.23360
1893.85029	0.23343
1891.92173	0.23311
1889.99316	0.23273
1888.06460	0.23242
1886.13604	0.23218
1884.20747	0.23196
1882.27891	0.23176
1880.35034	0.23159
1878.42178	0.23147
1876.49321	0.23146
1874.56465	0.23147
1872.63608	0.23159
1870.70752	0.23186
1868.77896	0.23231
1866.85039	0.23264
1864.92183	0.23269
1862.99326	0.23277
1861.06470	0.23305
1859.13613	0.23349
1857.20757	0.23387
1855.27900	0.23430
1853.35044	0.23476
1851.42187	0.23522
1849.49331	0.23571
1847.56475	0.23642
1845.63618	0.23740
1843.70762	0.23853
1841.77905	0.23937
1839.85049	0.23986
1837.92192	0.24055
1835.99336	0.24138
1834.06479	0.24234
1832.13623	0.24335
1830.20767	0.24457
1828.27910	0.24584
1826.35054	0.24685
1824.42197	0.24808
1822.49341	0.24940
1820.56484	0.25071
1818.63628	0.25214
1816.70771	0.25388
1814.77915	0.25560
1812.85059	0.25731
1810.92202	0.25918
1808.99346	0.26119
1807.06489	0.26328
1805.13633	0.26529
1803.20776	0.26742
1801.27920	0.26979
1799.35063	0.27259
1797.42207	0.27524
1795.49351	0.27763
1793.56494	0.28026
1791.63638	0.28374
1789.70781	0.28735
1787.77925	0.29020
1785.85068	0.29333
1783.92212	0.29683
1781.99355	0.30060
1780.06499	0.30477
1778.13643	0.30917
1776.20786	0.31328
1774.27930	0.31748
1772.35073	0.32307
1770.42217	0.32935
1768.49360	0.33493
1766.56504	0.34034
1764.63647	0.34580
1762.70791	0.35166
1760.77935	0.35900
1758.85078	0.36596
1756.92222	0.37298
1754.99365	0.38074
1753.06509	0.38788
1751.13652	0.39617
1749.20796	0.40651
1747.27939	0.41700
1745.35083	0.42638
1743.42227	0.43609
1741.49370	0.44652
1739.56514	0.45882
1737.63657	0.47139
1735.70801	0.48245
1733.77944	0.49870
1731.85088	0.51824
1729.92231	0.53406
1727.99375	0.55006
1726.06519	0.56699
1724.13662	0.58520
1722.20806	0.60486
1720.27949	0.62316
1718.35093	0.64448
1716.42236	0.67578
1714.49380	0.70606
1712.56523	0.73122
1710.63667	0.75555
1708.70811	0.78124
1706.77954	0.81009
1704.85098	0.84478
1702.92241	0.87617
1700.99385	0.90721
1699.06528	0.95281
1697.13672	0.99483
1695.20815	1.03808
1693.27959	1.08013
1691.35103	1.11399
1689.42246	1.15270
1687.49390	1.19305
1685.56533	1.23181
1683.63677	1.29256
1681.70820	1.35620
1679.77964	1.39687
1677.85107	1.43540
1675.92251	1.47948
1673.99395	1.53367
1672.06538	1.58248
1670.13682	1.63114
1668.20825	1.69334
1666.27969	1.74285
1664.35112	1.78437
1662.42256	1.83712
1660.49399	1.89734
1658.56543	1.94410
1656.63687	1.98116
1654.70830	2.01531
1652.77974	2.07015
1650.85117	2.12368
1648.92261	2.14453
1646.99404	2.16985
1645.06548	2.19696
1643.13691	2.21464
1641.20835	2.22548
1639.27979	2.23455
1637.35122	2.23810
1635.42266	2.23410
1633.49409	2.22596
1631.56553	2.21430
1629.63696	2.19836
1627.70840	2.17126
1625.77983	2.13976
1623.85127	2.10032
1621.92271	2.05186
1619.99414	2.00920
1618.06558	1.96795
1616.13701	1.90745
1614.20845	1.84401
1612.27988	1.79558
1610.35132	1.74534
1608.42275	1.69035
1606.49419	1.63675
1604.56562	1.58845
1602.63706	1.54162
1600.70850	1.49487
1598.77993	1.45132
1596.85137	1.41052
1594.92280	1.37128
1592.99424	1.33373
1591.06567	1.29948
1589.13711	1.26745
1587.20854	1.23745
1585.27998	1.20952
1583.35142	1.18334
1581.42285	1.15957
1579.49429	1.13946
1577.56572	1.12115
1575.63716	1.09850
1573.70859	1.07879
1571.78003	1.06618
1569.85146	1.05298
1567.92290	1.03863
1565.99434	1.02810
1564.06577	1.01974
1562.13721	1.01291
1560.20864	1.00758
1558.28008	1.00082
1556.35151	0.99610
1554.42295	0.99327
1552.49438	0.99014
1550.56582	0.98593
1548.63726	0.97990
1546.70869	0.97280
1544.78013	0.96431
1542.85156	0.95381
1540.92300	0.93917
1538.99443	0.91711
1537.06587	0.90118
1535.13730	0.89053
1533.20874	0.87670
1531.28018	0.86170
1529.35161	0.85045
1527.42305	0.83983
1525.49448	0.82877
1523.56592	0.81900
1521.63735	0.80938
1519.70879	0.79970
1517.78022	0.79174
1515.85166	0.78295
1513.92310	0.77394
1511.99453	0.76620
1510.06597	0.75915
1508.13740	0.75215
1506.20884	0.74121
1504.28027	0.73143
1502.35171	0.72590
1500.42314	0.72121
1498.49458	0.71629
1496.56602	0.71046
1494.63745	0.70437
1492.70889	0.69935
1490.78032	0.69486
1488.85176	0.68998
1486.92319	0.68548
1484.99463	0.68169
1483.06606	0.67841
1481.13750	0.67553
1479.20894	0.67317
1477.28037	0.67143
1475.35181	0.66996
1473.42324	0.66850
1471.49468	0.66658
1469.56611	0.66428
1467.63755	0.66197
1465.70898	0.65972
1463.78042	0.65775
1461.85186	0.65638
1459.92329	0.65550
1457.99473	0.65494
1456.06616	0.65414
1454.13760	0.65231
1452.20903	0.65021
1450.28047	0.64806
1448.35190	0.64583
1446.42334	0.64351
1444.49478	0.64135
1442.56621	0.63919
1440.63765	0.63699
1438.70908	0.63490
1436.78052	0.63236
1434.85195	0.62931
1432.92339	0.62686
1430.99482	0.62510
1429.06626	0.62368
1427.13770	0.62277
1425.20913	0.62251
1423.28057	0.62254
1421.35200	0.62234
1419.42344	0.62196
1417.49487	0.62130
1415.56631	0.62019
1413.63774	0.61920
1411.70918	0.61867
1409.78062	0.61860
1407.85205	0.61882
1405.92349	0.61925
1403.99492	0.61956
1402.06636	0.61924
1400.13779	0.61824
1398.20923	0.61674
1396.28066	0.61496
1394.35210	0.61260
1392.42354	0.60975
1390.49497	0.60691
1388.56641	0.60398
1386.63784	0.60065
1384.70928	0.59717
1382.78071	0.59383
1380.85215	0.59065
1378.92358	0.58793
1376.99502	0.58578
1375.06646	0.58420
1373.13789	0.58310
1371.20933	0.58214
1369.28076	0.58105
1367.35220	0.57974
1365.42363	0.57832
1363.49507	0.57699
1361.56650	0.57583
1359.63794	0.57471
1357.70937	0.57354
1355.78081	0.57237
1353.85225	0.57144
1351.92368	0.57081
1349.99512	0.57016
1348.06655	0.56936
1346.13799	0.56855
1344.20942	0.56781
1342.28086	0.56700
1340.35229	0.56617
1338.42373	0.56541
1336.49517	0.56477
1334.56660	0.56419
1332.63804	0.56373
1330.70947	0.56345
1328.78091	0.56330
1326.85234	0.56322
1324.92378	0.56307
1322.99521	0.56301
1321.06665	0.56317
1319.13809	0.56334
1317.20952	0.56328
1315.28096	0.56297
1313.35239	0.56246
1311.42383	0.56184
1309.49526	0.56128
1307.56670	0.56076
1305.63813	0.56017
1303.70957	0.55950
1301.78101	0.55886
1299.85244	0.55815
1297.92388	0.55735
1295.99531	0.55655
1294.06675	0.55565
1292.13818	0.55466
1290.20962	0.55374
1288.28105	0.55280
1286.35249	0.55182
1284.42393	0.55105
1282.49536	0.55032
1280.56680	0.54932
1278.63823	0.54823
1276.70967	0.54726
1274.78110	0.54644
1272.85254	0.54572
1270.92397	0.54500
1268.99541	0.54424
1267.06685	0.54354
1265.13828	0.54296
1263.20972	0.54246
1261.28115	0.54189
1259.35259	0.54122
1257.42402	0.54068
1255.49546	0.54037
1253.56689	0.54027
1251.63833	0.54025
1249.70977	0.54014
1247.78120	0.53992
1245.85264	0.53958
1243.92407	0.53906
1241.99551	0.53826
1240.06694	0.53726
1238.13838	0.53616
1236.20981	0.53491
1234.28125	0.53353
1232.35269	0.53202
1230.42412	0.53045
1228.49556	0.52918
1226.56699	0.52815
1224.63843	0.52694
1222.70986	0.52576
1220.78130	0.52482
1218.85273	0.52388
1216.92417	0.52281
1214.99561	0.52180
1213.06704	0.52099
1211.13848	0.52034
1209.20991	0.51966
1207.28135	0.51886
1205.35278	0.51807
1203.42422	0.51742
1201.49565	0.51671
1199.56709	0.51591
1197.63853	0.51522
1195.70996	0.51465
1193.78140	0.51408
1191.85283	0.51374
1189.92427	0.51370
1187.99570	0.51353
1186.06714	0.51320
1184.13857	0.51301
1182.21001	0.51301
1180.28145	0.51327
1178.35288	0.51403
1176.42432	0.51514
1174.49575	0.51606
1172.56719	0.51654
1170.63862	0.51666
1168.71006	0.51665
1166.78149	0.51664
1164.85293	0.51666
1162.92437	0.51659
1160.99580	0.51619
1159.06724	0.51553
1157.13867	0.51490
1155.21011	0.51418
1153.28154	0.51302
1151.35298	0.51134
1149.42441	0.50935
1147.49585	0.50739
1145.56729	0.50550
1143.63872	0.50349
1141.71016	0.50131
1139.78159	0.49910
1137.85303	0.49706
1135.92446	0.49541
1133.99590	0.49413
1132.06733	0.49299
1130.13877	0.49192
1128.21021	0.49088
1126.28164	0.48973
1124.35308	0.48852
1122.42451	0.48743
1120.49595	0.48669
1118.56738	0.48640
1116.63882	0.48631
1114.71025	0.48613
1112.78169	0.48595
1110.85312	0.48602
1108.92456	0.48654
1106.99600	0.48774
1105.06743	0.48952
1103.13887	0.49137
1101.21030	0.49301
1099.28174	0.49477
1097.35317	0.49712
1095.42461	0.50024
1093.49604	0.50397
1091.56748	0.50815
1089.63892	0.51300
1087.71035	0.51884
1085.78179	0.52541
1083.85322	0.53203
1081.92466	0.53828
1079.99609	0.54378
1078.06753	0.54771
1076.13896	0.54904
1074.21040	0.54733
1072.28184	0.54299
1070.35327	0.53692
1068.42471	0.53028
1066.49614	0.52372
1064.56758	0.51724
1062.63901	0.51106
1060.71045	0.50556
1058.78188	0.50084
1056.85332	0.49683
1054.92476	0.49345
1052.99619	0.49042
1051.06763	0.48759
1049.13906	0.48510
1047.21050	0.48302
1045.28193	0.48134
1043.35337	0.47996
1041.42480	0.47871
1039.49624	0.47765
1037.56768	0.47699
1035.63911	0.47678
1033.71055	0.47676
1031.78198	0.47645
1029.85342	0.47598
1027.92485	0.47586
1025.99629	0.47597
1024.06772	0.47608
1022.13916	0.47637
1020.21060	0.47691
1018.28203	0.47766
1016.35347	0.47849
1014.42490	0.47941
1012.49634	0.48063
1010.56777	0.48207
1008.63921	0.48340
1006.71064	0.48479
1004.78208	0.48658
1002.85352	0.48875
1000.92495	0.49142
998.99639	0.49476
997.06782	0.49855
995.13926	0.50245
993.21069	0.50624
991.28213	0.50973
989.35356	0.51251
987.42500	0.51411
985.49644	0.51481
983.56787	0.51537
981.63931	0.51620
979.71074	0.51752
977.78218	0.51943
975.85361	0.52181
973.92505	0.52449
971.99648	0.52752
970.06792	0.53090
968.13936	0.53458
966.21079	0.53868
964.28223	0.54324
962.35366	0.54818
960.42510	0.55347
958.49653	0.55909
956.56797	0.56496
954.63940	0.57091
952.71084	0.57708
950.78228	0.58365
948.85371	0.59018
946.92515	0.59634
944.99658	0.60249
943.06802	0.60887
941.13945	0.61509
939.21089	0.62099
937.28232	0.62691
935.35376	0.63287
933.42520	0.63842
931.49663	0.64351
929.56807	0.64892
927.63950	0.65486
925.71094	0.66056
923.78237	0.66640
921.85381	0.67329
919.92524	0.68082
917.99668	0.68822
916.06812	0.69562
914.13955	0.70312
912.21099	0.71066
910.28242	0.71855
908.35386	0.72716
906.42529	0.73650
904.49673	0.74572
902.56816	0.75434
900.63960	0.76283
898.71104	0.77185
896.78247	0.78214
894.85391	0.79335
892.92534	0.80440
890.99678	0.81549
889.06821	0.82725
887.13965	0.83934
885.21108	0.85132
883.28252	0.86252
881.35396	0.87279
879.42539	0.88348
877.49683	0.89458
875.56826	0.90502
873.63970	0.91533
871.71113	0.92684
869.78257	0.93926
867.85400	0.95060
865.92544	0.95962
863.99687	0.96859
862.06831	0.98072
860.13975	0.99476
858.21118	1.00794
856.28262	1.01972
854.35405	1.03082
852.42549	1.04238
850.49692	1.05493
848.56836	1.06740
846.63979	1.07815
844.71123	1.08783
842.78267	1.09976
840.85410	1.11528
838.92554	1.12943
836.99697	1.13860
835.06841	1.14681
833.13984	1.15803
831.21128	1.17217
829.28271	1.18749
827.35415	1.20109
825.42559	1.21222
823.49702	1.22440
821.56846	1.23319
819.63989	1.23520
817.71133	1.24062
815.78276	1.25487
813.85420	1.27128
811.92563	1.28228
809.99707	1.29184
808.06851	1.30788
806.13994	1.32942
804.21138	1.34769
802.28281	1.35406
800.35425	1.34838
798.42568	1.35538
796.49712	1.39389
794.56855	1.44517
792.63999	1.49411
790.71143	1.51911
788.78286	1.49741
786.85430	1.45130
784.92573	1.41236
782.99717	1.42491
781.06860	1.49603
779.14004	1.50886
777.21147	1.43781
775.28291	1.41321
773.35435	1.44252
771.42578	1.48657
769.49722	1.55907
767.56865	1.75418
765.64009	1.95622
763.71152	1.57449
761.78296	1.35358
759.85439	1.34382
757.92583	1.37323
755.99727	1.31645
754.06870	1.31862
752.14014	1.42022
750.21157	1.43355
748.28301	1.27785
746.35444	1.17216
744.42588	1.13728
742.49731	1.10093
740.56875	1.09055
738.64019	1.15991
736.71162	1.25324
734.78306	1.18036
732.85449	0.94673
730.92593	0.75347
728.99736	0.63499
727.06880	0.58739
725.14023	0.59849
723.21167	0.57925
721.28311	0.53387
719.35454	0.51634
717.42598	0.40911
715.49741	0.31971
713.56885	0.36622
711.64028	0.54866
709.71172	0.76636
707.78315	0.74996
705.85459	0.54481
703.92603	0.36579
701.99746	0.24349
700.06890	0.15081
698.14033	0.11882
696.21177	0.14334
694.28320	0.22602
692.35464	0.46953
690.42607	1.21106
688.49751	0.62033
686.56895	0.18969
684.64038	0.06825
682.71182	0.41665
680.78325	4.08470
678.85469	4.07313
676.92612	0.77825
674.99756	0.26809
673.06899	0.10714
671.14043	-0.00066
669.21187	-0.07266
667.28330	-0.00083
665.35474	0.26446
663.42617	0.78063
661.49761	3.96899
659.56904	3.95741
657.64048	3.94584
655.71191	3.93427
653.78335	3.92270
651.85479	0.38280
649.92622	0.31840
647.99766	0.26473
646.06909	0.21200
644.14053	0.18452
642.21196	0.20367
640.28340	0.21588
638.35483	0.17704
636.42627	0.15705
634.49771	0.16707
632.56914	0.26974
630.64058	0.42749
628.71201	0.36996
626.78345	0.26282
624.85488	0.17926
622.92632	0.10629
620.99775	0.16330
619.06919	0.39924
617.14062	0.53213
615.21206	0.42792
613.28350	0.32128
611.35493	0.19983
609.42637	0.12091
607.49780	0.12764
605.56924	0.18424
603.64067	0.27026
601.71211	0.34941
599.78354	0.35054
597.85498	0.27386
595.92642	0.21815
593.99785	0.25787
592.06929	0.31261
590.14072	0.28918
588.21216	0.38000
586.28359	0.85949
584.35503	0.97272
582.42646	0.39580
580.49790	0.28822
578.56934	0.38458
576.64077	0.44507
574.71221	0.30524
572.78364	0.30196
570.85508	0.39333
568.92651	0.48074
566.99795	0.44933
565.06938	0.39733
563.14082	0.36688
561.21226	0.32461
559.28369	0.29845
557.35513	0.19321
555.42656	0.07277
553.49800	0.08094
551.56943	0.14007
549.64087	0.13107
547.71230	0.09093
545.78374	0.09066
543.85518	0.06920
541.92661	0.05848
539.99805	0.11354
538.06948	0.13631
536.14092	0.11228
534.21235	0.21833
532.28379	0.41897
530.35522	0.40025
528.42666	0.34364
526.49810	0.41238
524.56953	0.50035
522.64097	0.43982
520.71240	0.30428
518.78384	0.19383
516.85527	0.08412
514.92671	0.01142
512.99814	0.06481
511.06958	0.13477
509.14102	0.11987
507.21245	0.16248
505.28389	0.26185
503.35532	0.33554
501.42676	0.37582
499.49819	0.31528
