3997.91411	0.05928
3995.98555	0.05980
3994.05698	0.06079
3992.12842	0.06135
3990.19985	0.06139
3988.27129	0.06161
3986.34272	0.06210
3984.41416	0.06257
3982.48560	0.06291
3980.55703	0.06295
3978.62847	0.06268
3976.69990	0.06244
3974.77134	0.06244
3972.84277	0.06272
3970.91421	0.06313
3968.98564	0.06354
3967.05708	0.06395
3965.12852	0.06409
3963.19995	0.06405
3961.27139	0.06396
3959.34282	0.06363
3957.41426	0.06335
3955.48569	0.06346
3953.55713	0.06358
3951.62856	0.06380
3949.70000	0.06474
3947.77144	0.06595
3945.84287	0.06656
3943.91431	0.06637
3941.98574	0.06559
3940.05718	0.06482
3938.12861	0.06462
3936.20005	0.06489
3934.27148	0.06511
3932.34292	0.06493
3930.41436	0.06483
3928.48579	0.06492
3926.55723	0.06489
3924.62866	0.06508
3922.70010	0.06528
3920.77153	0.06494
3918.84297	0.06450
3916.91440	0.06432
3914.98584	0.06422
3913.05728	0.06410
3911.12871	0.06397
3909.20015	0.06369
3907.27158	0.06332
3905.34302	0.06338
3903.41445	0.06402
3901.48589	0.06430
3899.55732	0.06408
3897.62876	0.06409
3895.70020	0.06420
3893.77163	0.06426
3891.84307	0.06454
3889.91450	0.06482
3887.98594	0.06443
3886.05737	0.06409
3884.12881	0.06463
3882.20024	0.06529
3880.27168	0.06550
3878.34312	0.06573
3876.41455	0.06612
3874.48599	0.06659
3872.55742	0.06687
3870.62886	0.06696
3868.70029	0.06738
3866.77173	0.06771
3864.84316	0.06772
3862.91460	0.06772
3860.98604	0.06755
3859.05747	0.06753
3857.12891	0.06790
3855.20034	0.06823
3853.27178	0.06874
3851.34321	0.06988
3849.41465	0.07029
3847.48608	0.07046
3845.55752	0.07101
3843.62896	0.07170
3841.70039	0.07220
3839.77183	0.07274
3837.84326	0.07413
3835.91470	0.07568
3833.98613	0.07603
3832.05757	0.07586
3830.12900	0.07609
3828.20044	0.07666
3826.27187	0.07754
3824.34331	0.07842
3822.41475	0.07914
3820.48618	0.08059
3818.55762	0.08199
3816.62905	0.08246
3814.70049	0.08298
3812.77192	0.08340
3810.84336	0.08366
3808.91479	0.08425
3806.98623	0.08552
3805.05767	0.08715
3803.12910	0.08847
3801.20054	0.09034
3799.27197	0.09246
3797.34341	0.09311
3795.41484	0.09333
3793.48628	0.09397
3791.55771	0.09484
3789.62915	0.09587
3787.70059	0.09699
3785.77202	0.09829
3783.84346	0.09967
3781.91489	0.10093
3779.98633	0.10253
3778.05776	0.10457
3776.12920	0.10601
3774.20063	0.10711
3772.27207	0.10892
3770.34351	0.11137
3768.41494	0.11343
3766.48638	0.11500
3764.55781	0.11728
3762.62925	0.11985
3760.70068	0.12196
3758.77212	0.12399
3756.84355	0.12590
3754.91499	0.12762
3752.98643	0.12984
3751.05786	0.13341
3749.12930	0.13761
3747.20073	0.13989
3745.27217	0.14144
3743.34360	0.14517
3741.41504	0.14965
3739.48647	0.15260
3737.55791	0.15519
3735.62935	0.15852
3733.70078	0.16361
3731.77222	0.16950
3729.84365	0.17429
3727.91509	0.17825
3725.98652	0.18302
3724.05796	0.18933
3722.12939	0.19648
3720.20083	0.20384
3718.27227	0.21109
3716.34370	0.21852
3714.41514	0.22603
3712.48657	0.23469
3710.55801	0.24739
3708.62944	0.26202
3706.70088	0.27380
3704.77231	0.28432
3702.84375	0.29686
3700.91519	0.31374
3698.98662	0.33196
3697.05806	0.34889
3695.12949	0.36724
3693.20093	0.38681
3691.27236	0.40742
3689.34380	0.43401
3687.41523	0.46828
3685.48667	0.49939
3683.55811	0.52611
3681.62954	0.55449
3679.70098	0.58605
3677.77241	0.61874
3675.84385	0.65721
3673.91528	0.70960
3671.98672	0.75252
3670.05815	0.78977
3668.12959	0.84193
3666.20103	0.89122
3664.27246	0.93237
3662.34390	0.97554
3660.41533	1.02197
3658.48677	1.06776
3656.55820	1.11608
3654.62964	1.16982
3652.70107	1.21464
3650.77251	1.25261
3648.84395	1.30564
3646.91538	1.37423
3644.98682	1.42673
3643.05825	1.46668
3641.12969	1.50624
3639.20112	1.54904
3637.27256	1.59228
3635.34399	1.63469
3633.41543	1.67687
3631.48687	1.71642
3629.55830	1.75684
3627.62974	1.80980
3625.70117	1.86039
3623.77261	1.89576
3621.84404	1.92900
3619.91548	1.96565
3617.98691	2.01011
3616.05835	2.05432
3614.12979	2.09174
3612.20122	2.13104
3610.27266	2.17017
3608.34409	2.20849
3606.41553	2.24941
3604.48696	2.28782
3602.55840	2.32149
3600.62983	2.35788
3598.70127	2.39876
3596.77271	2.43890
3594.84414	2.47896
3592.91558	2.52023
3590.98701	2.55887
3589.05845	2.59451
3587.12988	2.63714
3585.20132	2.68574
3583.27275	2.72860
3581.34419	2.76826
3579.41562	2.80964
3577.48706	2.85179
3575.55850	2.89302
3573.62993	2.93519
3571.70137	2.97681
3569.77280	3.01687
3567.84424	3.05937
3565.91567	3.11179
3563.98711	3.16263
3562.05854	3.20239
3560.12998	3.24265
3558.20142	3.28750
3556.27285	3.33259
3554.34429	3.37489
3552.41572	3.41834
3550.48716	3.46594
3548.55859	3.51457
3546.63003	3.56101
3544.70146	3.60749
3542.77290	3.65513
3540.84434	3.70217
3538.91577	3.75020
3536.98721	3.79869
3535.05864	3.84537
3533.13008	3.89084
3531.20151	3.93947
3529.27295	3.98943
3527.34438	4.03731
3525.41582	4.08254
3523.48726	4.12732
3521.55869	4.17809
3519.63013	4.23179
3517.70156	4.28268
3515.77300	4.32934
3513.84443	4.37290
3511.91587	4.41693
3509.98730	4.46534
3508.05874	4.52060
3506.13018	4.57366
3504.20161	4.61651
3502.27305	4.65755
3500.34448	4.70293
3498.41592	4.75096
3496.48735	4.80161
3494.55879	4.85325
3492.63022	4.90262
3490.70166	4.94822
3488.77310	4.99209
3486.84453	5.03825
3484.91597	5.09085
3482.98740	5.14519
3481.05884	5.19124
3479.13027	5.23072
3477.20171	5.27383
3475.27314	5.32470
3473.34458	5.38177
3471.41602	5.43684
3469.48745	5.48631
3467.55889	5.53675
3465.63032	5.58776
3463.70176	5.64067
3461.77319	5.69683
3459.84463	5.75025
3457.91606	5.79684
3455.98750	5.84687
3454.05894	5.90498
3452.13037	5.95870
3450.20181	6.01005
3448.27324	6.06050
3446.34468	6.10997
3444.41611	6.16666
3442.48755	6.21967
3440.55898	6.24612
3438.63042	6.26753
3436.70186	6.31964
3434.77329	6.38930
3432.84473	6.45043
3430.91616	6.49834
3428.98760	6.54442
3427.05903	6.59320
3425.13047	6.64369
3423.20190	6.68412
3421.27334	6.71874
3419.34478	6.77474
3417.41621	6.84600
3415.48765	6.90813
3413.55908	6.94842
3411.63052	6.97317
3409.70195	6.99863
3407.77339	7.02707
3405.84482	7.06776
3403.91626	7.15913
3401.98770	7.26318
3400.05913	7.30823
3398.13057	7.32320
3396.20200	7.34161
3394.27344	7.36392
3392.34487	7.37939
3390.41631	7.38689
3388.48774	7.41158
3386.55918	7.46853
3384.63062	7.50924
3382.70205	7.51236
3380.77349	7.51876
3378.84492	7.55268
3376.91636	7.63443
3374.98779	7.73262
3373.05923	7.76937
3371.13066	7.73984
3369.20210	7.73029
3367.27354	7.76222
3365.34497	7.80553
3363.41641	7.84729
3361.48784	7.88271
3359.55928	7.91132
3357.63071	7.93801
3355.70215	7.96635
3353.77358	7.95876
3351.84502	7.97324
3349.91646	8.05037
3347.98789	8.12667
3346.05933	8.13941
3344.13076	8.07729
3342.20220	8.01679
3340.27363	7.96959
3338.34507	7.93863
3336.41650	7.96769
3334.48794	8.01451
3332.55937	8.05307
3330.63081	8.14060
3328.70225	8.18525
3326.77368	8.10413
3324.84512	8.04615
3322.91655	8.10814
3320.98799	8.21426
3319.05942	8.26006
3317.13086	8.27197
3315.20229	8.22308
3313.27373	8.09547
3311.34517	8.00979
3309.41660	8.01388
3307.48804	8.06088
3305.55947	8.13801
3303.63091	8.18533
3301.70234	8.11722
3299.77378	8.04416
3297.84521	8.05321
3295.91665	8.09630
3293.98809	8.12285
3292.05952	8.17960
3290.13096	8.26610
3288.20239	8.25206
3286.27383	8.13720
3284.34526	8.07207
3282.41670	8.12203
3280.48813	8.17460
3278.55957	8.16768
3276.63101	8.15710
3274.70244	8.14609
3272.77388	8.14199
3270.84531	8.16678
3268.91675	8.16159
3266.98818	8.13790
3265.05962	8.20436
3263.13105	8.26407
3261.20249	8.20961
3259.27393	8.16777
3257.34536	8.23138
3255.41680	8.34449
3253.48823	8.36593
3251.55967	8.29377
3249.63110	8.28610
3247.70254	8.31508
3245.77397	8.24706
3243.84541	8.17444
3241.91685	8.18715
3239.98828	8.26023
3238.05972	8.33788
3236.13115	8.38341
3234.20259	8.43927
3232.27402	8.45369
3230.34546	8.32650
3228.41689	8.23514
3226.48833	8.31480
3224.55977	8.35297
3222.63120	8.22051
3220.70264	8.10216
3218.77407	8.09631
3216.84551	8.11792
3214.91694	8.08898
3212.98838	8.06094
3211.05981	8.06191
3209.13125	8.09972
3207.20269	8.16061
3205.27412	8.14673
3203.34556	8.04958
3201.41699	7.98095
3199.48843	7.91207
3197.55986	7.77765
3195.63130	7.72369
3193.70273	7.80454
3191.77417	7.81691
3189.84561	7.69317
3187.91704	7.57564
3185.98848	7.51200
3184.05991	7.48168
3182.13135	7.43909
3180.20278	7.37738
3178.27422	7.33405
3176.34565	7.29798
3174.41709	7.25929
3172.48853	7.22952
3170.55996	7.18497
3168.63140	7.10508
3166.70283	7.00664
3164.77427	6.89749
3162.84570	6.78222
3160.91714	6.70137
3158.98857	6.67754
3157.06001	6.66231
3155.13145	6.60382
3153.20288	6.53440
3151.27432	6.50766
3149.34575	6.48623
3147.41719	6.40577
3145.48862	6.29669
3143.56006	6.20477
3141.63149	6.12957
3139.70293	6.06465
3137.77437	6.00542
3135.84580	5.93889
3133.91724	5.85893
3131.98867	5.77735
3130.06011	5.69712
3128.13154	5.61116
3126.20298	5.52584
3124.27441	5.45051
3122.34585	5.38688
3120.41729	5.32572
3118.48872	5.25671
3116.56016	5.18342
3114.63159	5.10839
3112.70303	5.03142
3110.77446	4.95410
3108.84590	4.88105
3106.91733	4.81774
3104.98877	4.75650
3103.06021	4.68828
3101.13164	4.61638
3099.20308	4.54818
3097.27451	4.48307
3095.34595	4.41357
3093.41738	4.34204
3091.48882	4.27655
3089.56025	4.21205
3087.63169	4.14248
3085.70312	4.07334
3083.77456	4.00820
3081.84600	3.94618
3079.91743	3.88492
3077.98887	3.82163
3076.06030	3.75877
3074.13174	3.69923
3072.20317	3.64114
3070.27461	3.58331
3068.34604	3.52602
3066.41748	3.46736
3064.48892	3.40733
3062.56035	3.34901
3060.63179	3.29364
3058.70322	3.23911
3056.77466	3.18352
3054.84609	3.12843
3052.91753	3.07541
3050.98896	3.02325
3049.06040	2.97181
3047.13184	2.92193
3045.20327	2.87193
3043.27471	2.82096
3041.34614	2.77055
3039.41758	2.72222
3037.48901	2.67613
3035.56045	2.63045
3033.63188	2.58403
3031.70332	2.53747
3029.77476	2.49187
3027.84619	2.44787
3025.91763	2.40528
3023.98906	2.36345
3022.06050	2.32109
3020.13193	2.27859
3018.20337	2.23762
3016.27480	2.19787
3014.34624	2.15874
3012.41768	2.12012
3010.48911	2.08142
3008.56055	2.04348
3006.63198	2.00690
3004.70342	1.97098
3002.77485	1.93571
3000.84629	1.90073
2998.91772	1.86528
2996.98916	1.83009
2995.06060	1.79610
2993.13203	1.76345
2991.20347	1.73216
2989.27490	1.70140
2987.34634	1.67002
2985.41777	1.63853
2983.48921	1.60821
2981.56064	1.57894
2979.63208	1.54991
2977.70352	1.52109
2975.77495	1.49264
2973.84639	1.46410
2971.91782	1.43542
2969.98926	1.40763
2968.06069	1.38154
2966.13213	1.35642
2964.20356	1.33108
2962.27500	1.30543
2960.34644	1.28033
2958.41787	1.25635
2956.48931	1.23307
2954.56074	1.21022
2952.63218	1.18787
2950.70361	1.16549
2948.77505	1.14332
2946.84648	1.12206
2944.91792	1.10121
2942.98936	1.08019
2941.06079	1.05964
2939.13223	1.03978
2937.20366	1.02003
2935.27510	1.00079
2933.34653	0.98239
2931.41797	0.96447
2929.48940	0.94702
2927.56084	0.92971
2925.63228	0.91230
2923.70371	0.89550
2921.77515	0.87931
2919.84658	0.86272
2917.91802	0.84583
2915.98945	0.82982
2914.06089	0.81492
2912.13232	0.80026
2910.20376	0.78555
2908.27520	0.77154
2906.34663	0.75802
2904.41807	0.74419
2902.48950	0.73069
2900.56094	0.71808
2898.63237	0.70591
2896.70381	0.69356
2894.77524	0.68097
2892.84668	0.66882
2890.91812	0.65738
2888.98955	0.64598
2887.06099	0.63443
2885.13242	0.62318
2883.20386	0.61225
2881.27529	0.60157
2879.34673	0.59112
2877.41816	0.58088
2875.48960	0.57089
2873.56104	0.56093
2871.63247	0.55109
2869.70391	0.54151
2867.77534	0.53191
2865.84678	0.52226
2863.91821	0.51293
2861.98965	0.50412
2860.06108	0.49547
2858.13252	0.48668
2856.20396	0.47812
2854.27539	0.47002
2852.34683	0.46205
2850.41826	0.45398
2848.48970	0.44605
2846.56113	0.43867
2844.63257	0.43183
2842.70400	0.42534
2840.77544	0.41936
2838.84687	0.41370
2836.91831	0.40786
2834.98975	0.40200
2833.06118	0.39639
2831.13262	0.39075
2829.20405	0.38485
2827.27549	0.37888
2825.34692	0.37298
2823.41836	0.36726
2821.48979	0.36167
2819.56123	0.35617
2817.63267	0.35082
2815.70410	0.34555
2813.77554	0.34027
2811.84697	0.33509
2809.91841	0.32996
2807.98984	0.32478
2806.06128	0.31966
2804.13271	0.31488
2802.20415	0.31047
2800.27559	0.30609
2798.34702	0.30167
2796.41846	0.29739
2794.48989	0.29312
2792.56133	0.28881
2790.63276	0.28466
2788.70420	0.28065
2786.77563	0.27674
2784.84707	0.27293
2782.91851	0.26920
2780.98994	0.26561
2779.06138	0.26197
2777.13281	0.25836
2775.20425	0.25492
2773.27568	0.25144
2771.34712	0.24785
2769.41855	0.24442
2767.48999	0.24130
2765.56143	0.23838
2763.63286	0.23542
2761.70430	0.23242
2759.77573	0.22952
2757.84717	0.22665
2755.91860	0.22371
2753.99004	0.22083
2752.06147	0.21817
2750.13291	0.21566
2748.20435	0.21319
2746.27578	0.21071
2744.34722	0.20829
2742.41865	0.20583
2740.49009	0.20321
2738.56152	0.20066
2736.63296	0.19850
2734.70439	0.19658
2732.77583	0.19459
2730.84727	0.19253
2728.91870	0.19054
2726.99014	0.18858
2725.06157	0.18658
2723.13301	0.18454
2721.20444	0.18259
2719.27588	0.18079
2717.34731	0.17906
2715.41875	0.17737
2713.49019	0.17567
2711.56162	0.17402
2709.63306	0.17242
2707.70449	0.17085
2705.77593	0.16939
2703.84736	0.16797
2701.91880	0.16648
2699.99023	0.16509
2698.06167	0.16394
2696.13311	0.16287
2694.20454	0.16171
2692.27598	0.16046
2690.34741	0.15907
2688.41885	0.15767
2686.49028	0.15649
2684.56172	0.15544
2682.63315	0.15434
2680.70459	0.15328
2678.77603	0.15215
2676.84746	0.15100
2674.91890	0.15014
2672.99033	0.14942
2671.06177	0.14855
2669.13320	0.14768
2667.20464	0.14684
2665.27607	0.14594
2663.34751	0.14516
2661.41895	0.14452
2659.49038	0.14385
2657.56182	0.14313
2655.63325	0.14250
2653.70469	0.14201
2651.77612	0.14159
2649.84756	0.14110
2647.91899	0.14048
2645.99043	0.13992
2644.06187	0.13955
2642.13330	0.13920
2640.20474	0.13880
2638.27617	0.13842
2636.34761	0.13809
2634.41904	0.13775
2632.49048	0.13737
2630.56191	0.13700
2628.63335	0.13671
2626.70479	0.13652
2624.77622	0.13634
2622.84766	0.13619
2620.91909	0.13610
2618.99053	0.13606
2617.06196	0.13602
2615.13340	0.13595
2613.20483	0.13574
2611.27627	0.13550
2609.34771	0.13543
2607.41914	0.13556
2605.49058	0.13567
2603.56201	0.13566
2601.63345	0.13563
2599.70488	0.13566
2597.77632	0.13585
2595.84775	0.13631
2593.91919	0.13671
2591.99062	0.13684
2590.06206	0.13693
2588.13350	0.13720
2586.20493	0.13756
2584.27637	0.13788
2582.34780	0.13814
2580.41924	0.13840
2578.49067	0.13874
2576.56211	0.13919
2574.63354	0.13970
2572.70498	0.14005
2570.77642	0.14020
2568.84785	0.14048
2566.91929	0.14105
2564.99072	0.14172
2563.06216	0.14242
2561.13359	0.14317
2559.20503	0.14381
2557.27646	0.14428
2555.34790	0.14466
2553.41934	0.14511
2551.49077	0.14572
2549.56221	0.14638
2547.63364	0.14698
2545.70508	0.14757
2543.77651	0.14824
2541.84795	0.14897
2539.91938	0.14965
2537.99082	0.15028
2536.06226	0.15099
2534.13369	0.15179
2532.20513	0.15262
2530.27656	0.15341
2528.34800	0.15407
2526.41943	0.15474
2524.49087	0.15556
2522.56230	0.15640
2520.63374	0.15723
2518.70518	0.15807
2516.77661	0.15889
2514.84805	0.15977
2512.91948	0.16075
2510.99092	0.16167
2509.06235	0.16238
2507.13379	0.16315
2505.20522	0.16426
2503.27666	0.16541
2501.34810	0.16634
2499.41953	0.16711
2497.49097	0.16784
2495.56240	0.16871
2493.63384	0.16974
2491.70527	0.17073
2489.77671	0.17161
2487.84814	0.17247
2485.91958	0.17339
2483.99102	0.17436
2482.06245	0.17537
2480.13389	0.17641
2478.20532	0.17744
2476.27676	0.17828
2474.34819	0.17906
2472.41963	0.18010
2470.49106	0.18127
2468.56250	0.18224
2466.63394	0.18306
2464.70537	0.18401
2462.77681	0.18502
2460.84824	0.18588
2458.91968	0.18673
2456.99111	0.18781
2455.06255	0.18902
2453.13398	0.19009
2451.20542	0.19096
2449.27686	0.19192
2447.34829	0.19315
2445.41973	0.19438
2443.49116	0.19540
2441.56260	0.19632
2439.63403	0.19731
2437.70547	0.19840
2435.77690	0.19953
2433.84834	0.20057
2431.91978	0.20158
2429.99121	0.20270
2428.06265	0.20393
2426.13408	0.20517
2424.20552	0.20641
2422.27695	0.20767
2420.34839	0.20878
2418.41982	0.20977
2416.49126	0.21079
2414.56270	0.21190
2412.63413	0.21308
2410.70557	0.21435
2408.77700	0.21563
2406.84844	0.21674
2404.91987	0.21793
2402.99131	0.21942
2401.06274	0.22080
2399.13418	0.22186
2397.20562	0.22287
2395.27705	0.22408
2393.34849	0.22540
2391.41992	0.22672
2389.49136	0.22800
2387.56279	0.22923
2385.63423	0.23052
2383.70566	0.23190
2381.77710	0.23318
2379.84854	0.23422
2377.91997	0.23506
2375.99141	0.23587
2374.06284	0.23697
2372.13428	0.23855
2370.20571	0.24047
2368.27715	0.24187
2366.34858	0.24264
2364.42002	0.24338
2362.49146	0.24418
2360.56289	0.24599
2358.63433	0.24853
2356.70576	0.25038
2354.77720	0.25153
2352.84863	0.25352
2350.92007	0.25659
2348.99150	0.25878
2347.06294	0.25958
2345.13437	0.26011
2343.20581	0.26174
2341.27725	0.26425
2339.34868	0.26639
2337.42012	0.26760
2335.49155	0.26836
2333.56299	0.26947
2331.63442	0.27124
2329.70586	0.27361
2327.77729	0.27601
2325.84873	0.27746
2323.92017	0.27845
2321.99160	0.28022
2320.06304	0.28248
2318.13447	0.28459
2316.20591	0.28652
2314.27734	0.28827
2312.34878	0.28980
2310.42021	0.29139
2308.49165	0.29331
2306.56309	0.29531
2304.63452	0.29701
2302.70596	0.29874
2300.77739	0.30082
2298.84883	0.30287
2296.92026	0.30473
2294.99170	0.30658
2293.06313	0.30850
2291.13457	0.31046
2289.20601	0.31246
2287.27744	0.31447
2285.34888	0.31644
2283.42031	0.31836
2281.49175	0.32023
2279.56318	0.32218
2277.63462	0.32431
2275.70605	0.32638
2273.77749	0.32833
2271.84893	0.33032
2269.92036	0.33244
2267.99180	0.33462
2266.06323	0.33671
2264.13467	0.33881
2262.20610	0.34104
2260.27754	0.34328
2258.34897	0.34549
2256.42041	0.34769
2254.49185	0.34989
2252.56328	0.35214
2250.63472	0.35446
2248.70615	0.35668
2246.77759	0.35867
2244.84902	0.36067
2242.92046	0.36290
2240.99189	0.36529
2239.06333	0.36770
2237.13477	0.36996
2235.20620	0.37208
2233.27764	0.37425
2231.34907	0.37649
2229.42051	0.37866
2227.49194	0.38084
2225.56338	0.38307
2223.63481	0.38530
2221.70625	0.38747
2219.77769	0.38954
2217.84912	0.39163
2215.92056	0.39380
2213.99199	0.39602
2212.06343	0.39835
2210.13486	0.40067
2208.20630	0.40292
2206.27773	0.40515
2204.34917	0.40726
2202.42061	0.40924
2200.49204	0.41127
2198.56348	0.41332
2196.63491	0.41529
2194.70635	0.41726
2192.77778	0.41924
2190.84922	0.42124
2188.92065	0.42328
2186.99209	0.42522
2185.06353	0.42688
2183.13496	0.42838
2181.20640	0.43010
2179.27783	0.43194
2177.34927	0.43355
2175.42070	0.43503
2173.49214	0.43658
2171.56357	0.43809
2169.63501	0.43947
2167.70645	0.44080
2165.77788	0.44210
2163.84932	0.44325
2161.92075	0.44432
2159.99219	0.44541
2158.06362	0.44650
2156.13506	0.44758
2154.20649	0.44850
2152.27793	0.44917
2150.34937	0.44981
2148.42080	0.45056
2146.49224	0.45129
2144.56367	0.45182
2142.63511	0.45220
2140.70654	0.45251
2138.77798	0.45271
2136.84941	0.45277
2134.92085	0.45286
2132.99229	0.45290
2131.06372	0.45276
2129.13516	0.45255
2127.20659	0.45225
2125.27803	0.45192
2123.34946	0.45163
2121.42090	0.45121
2119.49233	0.45053
2117.56377	0.44981
2115.63521	0.44915
2113.70664	0.44849
2111.77808	0.44772
2109.84951	0.44678
2107.92095	0.44573
2105.99238	0.44458
2104.06382	0.44334
2102.13525	0.44204
2100.20669	0.44069
2098.27812	0.43918
2096.34956	0.43752
2094.42100	0.43594
2092.49243	0.43451
2090.56387	0.43300
2088.63530	0.43115
2086.70674	0.42915
2084.77817	0.42725
2082.84961	0.42543
2080.92104	0.42342
2078.99248	0.42122
2077.06392	0.41910
2075.13535	0.41714
2073.20679	0.41514
2071.27822	0.41304
2069.34966	0.41084
2067.42109	0.40845
2065.49253	0.40596
2063.56396	0.40346
2061.63540	0.40108
2059.70684	0.39879
2057.77827	0.39636
2055.84971	0.39376
2053.92114	0.39111
2051.99258	0.38848
2050.06401	0.38588
2048.13545	0.38321
2046.20688	0.38039
2044.27832	0.37766
2042.34976	0.37511
2040.42119	0.37253
2038.49263	0.36980
2036.56406	0.36704
2034.63550	0.36439
2032.70693	0.36173
2030.77837	0.35894
2028.84980	0.35599
2026.92124	0.35309
2024.99268	0.35038
2023.06411	0.34774
2021.13555	0.34505
2019.20698	0.34233
2017.27842	0.33951
2015.34985	0.33659
2013.42129	0.33380
2011.49272	0.33111
2009.56416	0.32844
2007.63560	0.32569
2005.70703	0.32291
2003.77847	0.32025
2001.84990	0.31770
1999.92134	0.31518
1997.99277	0.31261
1996.06421	0.30994
1994.13564	0.30728
1992.20708	0.30481
1990.27852	0.30240
1988.34995	0.29994
1986.42139	0.29749
1984.49282	0.29509
1982.56426	0.29277
1980.63569	0.29051
1978.70713	0.28827
1976.77856	0.28602
1974.85000	0.28377
1972.92144	0.28152
1970.99287	0.27936
1969.06431	0.27738
1967.13574	0.27545
1965.20718	0.27342
1963.27861	0.27141
1961.35005	0.26945
1959.42148	0.26747
1957.49292	0.26553
1955.56436	0.26366
1953.63579	0.26189
1951.70723	0.26025
1949.77866	0.25867
1947.85010	0.25709
1945.92153	0.25555
1943.99297	0.25408
1942.06440	0.25267
1940.13584	0.25120
1938.20728	0.24971
1936.27871	0.24831
1934.35015	0.24707
1932.42158	0.24595
1930.49302	0.24485
1928.56445	0.24377
1926.63589	0.24269
1924.70732	0.24165
1922.77876	0.24066
1920.85020	0.23970
1918.92163	0.23881
1916.99307	0.23797
1915.06450	0.23710
1913.13594	0.23620
1911.20737	0.23542
1909.27881	0.23479
1907.35024	0.23420
1905.42168	0.23354
1903.49312	0.23287
1901.56455	0.23229
1899.63599	0.23181
1897.70742	0.23148
1895.77886	0.23116
1893.85029	0.23070
1891.92173	0.23020
1889.99316	0.22989
1888.06460	0.22970
1886.13604	0.22957
1884.20747	0.22947
1882.27891	0.22934
1880.35034	0.22920
1878.42178	0.22910
1876.49321	0.22906
1874.56465	0.22899
1872.63608	0.22912
1870.70752	0.22949
1868.77896	0.23007
1866.85039	0.23044
1864.92183	0.23039
1862.99326	0.23042
1861.06470	0.23067
1859.13613	0.23103
1857.20757	0.23128
1855.27900	0.23153
1853.35044	0.23193
1851.42187	0.23256
1849.49331	0.23326
1847.56475	0.23399
1845.63618	0.23480
1843.70762	0.23576
1841.77905	0.23663
1839.85049	0.23714
1837.92192	0.23779
1835.99336	0.23864
1834.06479	0.23958
1832.13623	0.24058
1830.20767	0.24197
1828.27910	0.24353
1826.35054	0.24472
1824.42197	0.24602
1822.49341	0.24737
1820.56484	0.24866
1818.63628	0.24997
1816.70771	0.25154
1814.77915	0.25316
1812.85059	0.25479
1810.92202	0.25668
1808.99346	0.25882
1807.06489	0.26096
1805.13633	0.26296
1803.20776	0.26509
1801.27920	0.26744
1799.35063	0.27022
1797.42207	0.27295
1795.49351	0.27555
1793.56494	0.27841
1791.63638	0.28207
1789.70781	0.28563
1787.77925	0.28827
1785.85068	0.29133
1783.92212	0.29503
1781.99355	0.29904
1780.06499	0.30323
1778.13643	0.30754
1776.20786	0.31161
1774.27930	0.31586
1772.35073	0.32154
1770.42217	0.32791
1768.49360	0.33341
1766.56504	0.33869
1764.63647	0.34412
1762.70791	0.35007
1760.77935	0.35760
1758.85078	0.36472
1756.92222	0.37187
1754.99365	0.37973
1753.06509	0.38676
1751.13652	0.39499
1749.20796	0.40564
1747.27939	0.41643
1745.35083	0.42585
1743.42227	0.43554
1741.49370	0.44622
1739.56514	0.45898
1737.63657	0.47165
1735.70801	0.48251
1733.77944	0.49886
1731.85088	0.51879
1729.92231	0.53465
1727.99375	0.55064
1726.06519	0.56772
1724.13662	0.58623
1722.20806	0.60615
1720.27949	0.62442
1718.35093	0.64563
1716.42236	0.67737
1714.49380	0.70801
1712.56523	0.73282
1710.63667	0.75672
1708.70811	0.78227
1706.77954	0.81109
1704.85098	0.84558
1702.92241	0.87647
1700.99385	0.90645
1699.06528	0.95089
1697.13672	0.99224
1695.20815	1.03444
1693.27959	1.07469
1691.35103	1.10643
1689.42246	1.14263
1687.49390	1.18055
1685.56533	1.21693
1683.63677	1.27342
1681.70820	1.33221
1679.77964	1.36966
1677.85107	1.40494
1675.92251	1.44485
1673.99395	1.49395
1672.06538	1.53743
1670.13682	1.57960
1668.20825	1.63436
1666.27969	1.67813
1664.35112	1.71353
1662.42256	1.75669
1660.49399	1.80538
1658.56543	1.84394
1656.63687	1.87558
1654.70830	1.90536
1652.77974	1.95698
1650.85117	2.00848
1648.92261	2.02722
1646.99404	2.05242
1645.06548	2.08590
1643.13691	2.11007
1641.20835	2.12531
1639.27979	2.13775
1637.35122	2.14491
1635.42266	2.14761
1633.49409	2.14686
1631.56553	2.13861
1629.63696	2.12571
1627.70840	2.10349
1625.77983	2.07650
1623.85127	2.04149
1621.92271	1.99829
1619.99414	1.95901
1618.06558	1.91957
1616.13701	1.86308
1614.20845	1.80515
1612.27988	1.76049
1610.35132	1.71356
1608.42275	1.66311
1606.49419	1.61349
1604.56562	1.56671
1602.63706	1.52074
1600.70850	1.47576
1598.77993	1.43412
1596.85137	1.39470
1594.92280	1.35617
1592.99424	1.31823
1591.06567	1.28281
1589.13711	1.24938
1587.20854	1.21786
1585.27998	1.18785
1583.35142	1.15898
1581.42285	1.13241
1579.49429	1.10962
1577.56572	1.08846
1575.63716	1.06119
1573.70859	1.03656
1571.78003	1.02036
1569.85146	1.00232
1567.92290	0.98100
1565.99434	0.96385
1564.06577	0.94888
1562.13721	0.93604
1560.20864	0.92488
1558.28008	0.90509
1556.35151	0.88727
1554.42295	0.87663
1552.49438	0.86579
1550.56582	0.85473
1548.63726	0.84346
1546.70869	0.83386
1544.78013	0.82542
1542.85156	0.81676
1540.92300	0.80719
1538.99443	0.79532
1537.06587	0.78699
1535.13730	0.78107
1533.20874	0.77351
1531.28018	0.76558
1529.35161	0.75977
1527.42305	0.75406
1525.49448	0.74784
1523.56592	0.74214
1521.63735	0.73622
1519.70879	0.72987
1517.78022	0.72454
1515.85166	0.71918
1513.92310	0.71408
1511.99453	0.70988
1510.06597	0.70609
1508.13740	0.70254
1506.20884	0.69709
1504.28027	0.69189
1502.35171	0.68856
1500.42314	0.68550
1498.49458	0.68258
1496.56602	0.67974
1494.63745	0.67677
1492.70889	0.67414
1490.78032	0.67182
1488.85176	0.66901
1486.92319	0.66591
1484.99463	0.66318
1483.06606	0.66087
1481.13750	0.65874
1479.20894	0.65662
1477.28037	0.65443
1475.35181	0.65211
1473.42324	0.64990
1471.49468	0.64750
1469.56611	0.64488
1467.63755	0.64243
1465.70898	0.64006
1463.78042	0.63753
1461.85186	0.63500
1459.92329	0.63272
1457.99473	0.63018
1456.06616	0.62711
1454.13760	0.62457
1452.20903	0.62234
1450.28047	0.61993
1448.35190	0.61767
1446.42334	0.61578
1444.49478	0.61393
1442.56621	0.61191
1440.63765	0.60997
1438.70908	0.60836
1436.78052	0.60675
1434.85195	0.60508
1432.92339	0.60350
1430.99482	0.60195
1429.06626	0.60037
1427.13770	0.59885
1425.20913	0.59752
1423.28057	0.59636
1421.35200	0.59527
1419.42344	0.59398
1417.49487	0.59224
1415.56631	0.59039
1413.63774	0.58880
1411.70918	0.58730
1409.78062	0.58569
1407.85205	0.58405
1405.92349	0.58251
1403.99492	0.58108
1402.06636	0.57973
1400.13779	0.57842
1398.20923	0.57712
1396.28066	0.57600
1394.35210	0.57474
1392.42354	0.57316
1390.49497	0.57172
1388.56641	0.57059
1386.63784	0.56954
1384.70928	0.56830
1382.78071	0.56702
1380.85215	0.56595
1378.92358	0.56502
1376.99502	0.56410
1375.06646	0.56328
1373.13789	0.56244
1371.20933	0.56142
1369.28076	0.56038
1367.35220	0.55943
1365.42363	0.55866
1363.49507	0.55794
1361.56650	0.55688
1359.63794	0.55557
1357.70937	0.55450
1355.78081	0.55369
1353.85225	0.55291
1351.92368	0.55200
1349.99512	0.55092
1348.06655	0.54995
1346.13799	0.54922
1344.20942	0.54853
1342.28086	0.54768
1340.35229	0.54673
1338.42373	0.54576
1336.49517	0.54478
1334.56660	0.54379
1332.63804	0.54288
1330.70947	0.54203
1328.78091	0.54120
1326.85234	0.54043
1324.92378	0.53971
1322.99521	0.53901
1321.06665	0.53838
1319.13809	0.53787
1317.20952	0.53728
1315.28096	0.53655
1313.35239	0.53568
1311.42383	0.53475
1309.49526	0.53396
1307.56670	0.53327
1305.63813	0.53249
1303.70957	0.53165
1301.78101	0.53089
1299.85244	0.53015
1297.92388	0.52928
1295.99531	0.52825
1294.06675	0.52733
1292.13818	0.52671
1290.20962	0.52620
1288.28105	0.52565
1286.35249	0.52512
1284.42393	0.52465
1282.49536	0.52419
1280.56680	0.52376
1278.63823	0.52329
1276.70967	0.52284
1274.78110	0.52249
1272.85254	0.52205
1270.92397	0.52150
1268.99541	0.52101
1267.06685	0.52066
1265.13828	0.52036
1263.20972	0.51992
1261.28115	0.51930
1259.35259	0.51873
1257.42402	0.51841
1255.49546	0.51818
1253.56689	0.51789
1251.63833	0.51771
1249.70977	0.51757
1247.78120	0.51728
1245.85264	0.51692
1243.92407	0.51657
1241.99551	0.51627
1240.06694	0.51584
1238.13838	0.51512
1236.20981	0.51434
1234.28125	0.51377
1232.35269	0.51336
1230.42412	0.51295
1228.49556	0.51250
1226.56699	0.51202
1224.63843	0.51143
1222.70986	0.51074
1220.78130	0.50997
1218.85273	0.50916
1216.92417	0.50843
1214.99561	0.50783
1213.06704	0.50715
1211.13848	0.50636
1209.20991	0.50566
1207.28135	0.50514
1205.35278	0.50466
1203.42422	0.50419
1201.49565	0.50360
1199.56709	0.50286
1197.63853	0.50226
1195.70996	0.50193
1193.78140	0.50168
1191.85283	0.50127
1189.92427	0.50081
1187.99570	0.50050
1186.06714	0.50033
1184.13857	0.50027
1182.21001	0.50037
1180.28145	0.50056
1178.35288	0.50080
1176.42432	0.50106
1174.49575	0.50142
1172.56719	0.50205
1170.63862	0.50271
1168.71006	0.50311
1166.78149	0.50345
1164.85293	0.50396
1162.92437	0.50440
1160.99580	0.50456
1159.06724	0.50443
1157.13867	0.50402
1155.21011	0.50335
1153.28154	0.50234
1151.35298	0.50083
1149.42441	0.49896
1147.49585	0.49704
1145.56729	0.49510
1143.63872	0.49297
1141.71016	0.49059
1139.78159	0.48818
1137.85303	0.48604
1135.92446	0.48419
1133.99590	0.48257
1132.06733	0.48111
1130.13877	0.47976
1128.21021	0.47846
1126.28164	0.47710
1124.35308	0.47580
1122.42451	0.47487
1120.49595	0.47424
1118.56738	0.47364
1116.63882	0.47306
1114.71025	0.47277
1112.78169	0.47289
1110.85312	0.47320
1108.92456	0.47371
1106.99600	0.47458
1105.06743	0.47564
1103.13887	0.47683
1101.21030	0.47821
1099.28174	0.47987
1097.35317	0.48225
1095.42461	0.48554
1093.49604	0.48932
1091.56748	0.49343
1089.63892	0.49827
1087.71035	0.50410
1085.78179	0.51073
1083.85322	0.51773
1081.92466	0.52453
1079.99609	0.53034
1078.06753	0.53413
1076.13896	0.53518
1074.21040	0.53333
1072.28184	0.52907
1070.35327	0.52321
1068.42471	0.51643
1066.49614	0.50972
1064.56758	0.50374
1062.63901	0.49828
1060.71045	0.49297
1058.78188	0.48806
1056.85332	0.48399
1054.92476	0.48063
1052.99619	0.47787
1051.06763	0.47575
1049.13906	0.47416
1047.21050	0.47306
1045.28193	0.47236
1043.35337	0.47174
1041.42480	0.47110
1039.49624	0.47061
1037.56768	0.47028
1035.63911	0.46995
1033.71055	0.46965
1031.78198	0.46935
1029.85342	0.46906
1027.92485	0.46894
1025.99629	0.46901
1024.06772	0.46911
1022.13916	0.46934
1020.21060	0.46992
1018.28203	0.47083
1016.35347	0.47197
1014.42490	0.47328
1012.49634	0.47454
1010.56777	0.47558
1008.63921	0.47664
1006.71064	0.47795
1004.78208	0.47963
1002.85352	0.48184
1000.92495	0.48469
998.99639	0.48799
997.06782	0.49147
995.13926	0.49508
993.21069	0.49881
991.28213	0.50230
989.35356	0.50497
987.42500	0.50651
985.49644	0.50728
983.56787	0.50792
981.63931	0.50887
979.71074	0.51028
977.78218	0.51239
975.85361	0.51514
973.92505	0.51802
971.99648	0.52097
970.06792	0.52432
968.13936	0.52822
966.21079	0.53262
964.28223	0.53736
962.35366	0.54220
960.42510	0.54713
958.49653	0.55255
956.56797	0.55848
954.63940	0.56445
952.71084	0.57046
950.78228	0.57689
948.85371	0.58352
946.92515	0.58993
944.99658	0.59634
943.06802	0.60280
941.13945	0.60891
939.21089	0.61455
937.28232	0.62009
935.35376	0.62564
933.42520	0.63103
931.49663	0.63675
929.56807	0.64288
927.63950	0.64884
925.71094	0.65467
923.78237	0.66060
921.85381	0.66651
919.92524	0.67235
917.99668	0.67864
916.06812	0.68615
914.13955	0.69461
912.21099	0.70305
910.28242	0.71088
908.35386	0.71839
906.42529	0.72626
904.49673	0.73473
902.56816	0.74427
900.63960	0.75478
898.71104	0.76508
896.78247	0.77511
894.85391	0.78550
892.92534	0.79577
890.99678	0.80504
889.06821	0.81423
887.13965	0.82465
885.21108	0.83587
883.28252	0.84841
881.35396	0.86225
879.42539	0.87433
877.49683	0.88383
875.56826	0.89398
873.63970	0.90544
871.71113	0.91679
869.78257	0.92907
867.85400	0.94191
865.92544	0.95362
863.99687	0.96443
862.06831	0.97481
860.13975	0.98516
858.21118	0.99572
856.28262	1.00661
854.35405	1.01727
852.42549	1.02643
850.49692	1.03703
848.56836	1.05214
846.63979	1.06839
844.71123	1.08199
842.78267	1.09284
840.85410	1.10241
838.92554	1.11075
836.99697	1.11868
835.06841	1.12967
833.13984	1.14272
831.21128	1.15379
829.28271	1.16467
827.35415	1.17794
825.42559	1.19234
823.49702	1.20638
821.56846	1.21655
819.63989	1.22483
817.71133	1.23567
815.78276	1.24681
813.85420	1.25466
811.92563	1.25771
809.99707	1.26236
808.06851	1.27805
806.13994	1.30020
804.21138	1.31352
802.28281	1.31584
800.35425	1.31147
798.42568	1.31395
796.49712	1.32904
794.56855	1.33231
792.63999	1.32928
790.71143	1.32738
788.78286	1.31047
786.85430	1.31074
784.92573	1.34937
782.99717	1.35991
781.06860	1.32397
779.14004	1.32329
777.21147	1.37808
775.28291	1.42935
773.35435	1.41177
771.42578	1.36149
769.49722	1.34796
767.56865	1.35751
765.64009	1.33639
763.71152	1.35885
761.78296	1.39127
759.85439	1.27421
757.92583	1.15010
755.99727	1.07044
754.06870	1.03441
752.14014	1.06922
750.21157	1.12261
748.28301	1.10210
746.35444	1.03983
744.42588	0.95730
742.49731	0.87724
740.56875	0.84748
738.64019	0.84480
736.71162	0.82626
734.78306	0.77925
732.85449	0.73441
730.92593	0.70374
728.99736	0.50942
727.06880	0.18800
725.14023	-0.14929
723.21167	-0.16084
721.28311	-0.62216
719.35454	4.31613
717.42598	4.30456
715.49741	4.29298
713.56885	0.63041
711.64028	0.44011
709.71172	0.37947
707.78315	0.33717
705.85459	0.29974
703.92603	0.30619
701.99746	0.39274
700.06890	0.48324
698.14033	0.46152
696.21177	0.49074
694.28320	0.82111
692.35464	4.15413
690.42607	1.02155
688.49751	0.82430
686.56895	1.17114
684.64038	4.10784
682.71182	1.23296
680.78325	0.82129
678.85469	0.67290
676.92612	0.66250
674.99756	0.66216
673.06899	0.64736
671.14043	0.62443
669.21187	0.55829
667.28330	0.48599
665.35474	0.53201
663.42617	0.70834
661.49761	0.78278
659.56904	0.89256
657.64048	0.94665
655.71191	0.62955
653.78335	0.47959
651.85479	0.48836
649.92622	0.57067
647.99766	0.64264
646.06909	0.75657
644.14053	1.21543
642.21196	1.52094
640.28340	0.66284
638.35483	0.43905
636.42627	0.39401
634.49771	0.51492
632.56914	0.66175
630.64058	0.52140
628.71201	0.38362
626.78345	0.32616
624.85488	0.34766
622.92632	0.44330
620.99775	0.51258
619.06919	0.47855
617.14062	0.43261
615.21206	0.41638
613.28350	0.40277
611.35493	0.37751
609.42637	0.37532
607.49780	0.41696
605.56924	0.43121
603.64067	0.38826
601.71211	0.38795
599.78354	0.49346
597.85498	0.68159
595.92642	0.71588
593.99785	0.65271
592.06929	0.73690
590.14072	0.79534
588.21216	0.58037
586.28359	0.45067
584.35503	0.45154
582.42646	0.55320
580.49790	0.63492
578.56934	0.57095
576.64077	0.48283
574.71221	0.43829
572.78364	0.47928
570.85508	0.53254
568.92651	0.50180
566.99795	0.51633
565.06938	0.53081
563.14082	0.42379
561.21226	0.33691
559.28369	0.33225
557.35513	0.39010
555.42656	0.41438
553.49800	0.35939
551.56943	0.33320
549.64087	0.34253
547.71230	0.34030
545.78374	0.34230
543.85518	0.34871
541.92661	0.35051
539.99805	0.36547
538.06948	0.39388
536.14092	0.38728
534.21235	0.35204
532.28379	0.33827
530.35522	0.34941
528.42666	0.36934
526.49810	0.40404
524.56953	0.46285
522.64097	0.47385
520.71240	0.39764
518.78384	0.34807
516.85527	0.33022
514.92671	0.29546
512.99814	0.27286
511.06958	0.31387
509.14102	0.37514
507.21245	0.34277
505.28389	0.31309
503.35532	0.33557
501.42676	0.33480
499.49819	0.30053
