3997.91411	0.05956
3995.98555	0.05946
3994.05698	0.05962
3992.12842	0.06000
3990.19985	0.06053
3988.27129	0.06093
3986.34272	0.06109
3984.41416	0.06114
3982.48560	0.06105
3980.55703	0.06096
3978.62847	0.06121
3976.69990	0.06181
3974.77134	0.06246
3972.84277	0.06296
3970.91421	0.06307
3968.98564	0.06272
3967.05708	0.06248
3965.12852	0.06254
3963.19995	0.06241
3961.27139	0.06213
3959.34282	0.06222
3957.41426	0.06270
3955.48569	0.06312
3953.55713	0.06320
3951.62856	0.06322
3949.70000	0.06374
3947.77144	0.06427
3945.84287	0.06421
3943.91431	0.06417
3941.98574	0.06428
3940.05718	0.06398
3938.12861	0.06364
3936.20005	0.06354
3934.27148	0.06338
3932.34292	0.06331
3930.41436	0.06342
3928.48579	0.06318
3926.55723	0.06256
3924.62866	0.06239
3922.70010	0.06290
3920.77153	0.06309
3918.84297	0.06260
3916.91440	0.06229
3914.98584	0.06261
3913.05728	0.06306
3911.12871	0.06305
3909.20015	0.06259
3907.27158	0.06214
3905.34302	0.06200
3903.41445	0.06210
3901.48589	0.06203
3899.55732	0.06178
3897.62876	0.06201
3895.70020	0.06265
3893.77163	0.06298
3891.84307	0.06284
3889.91450	0.06273
3887.98594	0.06275
3886.05737	0.06285
3884.12881	0.06311
3882.20024	0.06329
3880.27168	0.06343
3878.34312	0.06341
3876.41455	0.06303
3874.48599	0.06285
3872.55742	0.06306
3870.62886	0.06343
3868.70029	0.06422
3866.77173	0.06464
3864.84316	0.06450
3862.91460	0.06520
3860.98604	0.06651
3859.05747	0.06699
3857.12891	0.06648
3855.20034	0.06530
3853.27178	0.06437
3851.34321	0.06602
3849.41465	0.06841
3847.48608	0.06955
3845.55752	0.07001
3843.62896	0.07039
3841.70039	0.07059
3839.77183	0.07033
3837.84326	0.07053
3835.91470	0.07158
3833.98613	0.07218
3832.05757	0.07245
3830.12900	0.07328
3828.20044	0.07453
3826.27187	0.07560
3824.34331	0.07598
3822.41475	0.07578
3820.48618	0.07634
3818.55762	0.07784
3816.62905	0.07907
3814.70049	0.08053
3812.77192	0.08196
3810.84336	0.08266
3808.91479	0.08303
3806.98623	0.08381
3805.05767	0.08494
3803.12910	0.08548
3801.20054	0.08650
3799.27197	0.08884
3797.34341	0.09053
3795.41484	0.09193
3793.48628	0.09343
3791.55771	0.09444
3789.62915	0.09546
3787.70059	0.09671
3785.77202	0.09794
3783.84346	0.09919
3781.91489	0.10034
3779.98633	0.10167
3778.05776	0.10364
3776.12920	0.10544
3774.20063	0.10680
3772.27207	0.10824
3770.34351	0.11022
3768.41494	0.11282
3766.48638	0.11503
3764.55781	0.11683
3762.62925	0.11820
3760.70068	0.11930
3758.77212	0.12133
3756.84355	0.12404
3754.91499	0.12588
3752.98643	0.12713
3751.05786	0.12914
3749.12930	0.13252
3747.20073	0.13543
3745.27217	0.13797
3743.34360	0.14215
3741.41504	0.14599
3739.48647	0.14763
3737.55791	0.14878
3735.62935	0.15118
3733.70078	0.15587
3731.77222	0.16137
3729.84365	0.16603
3727.91509	0.17001
3725.98652	0.17492
3724.05796	0.18166
3722.12939	0.18926
3720.20083	0.19744
3718.27227	0.20625
3716.34370	0.21505
3714.41514	0.22279
3712.48657	0.23057
3710.55801	0.24182
3708.62944	0.25559
3706.70088	0.26769
3704.77231	0.27907
3702.84375	0.29201
3700.91519	0.30856
3698.98662	0.32706
3697.05806	0.34480
3695.12949	0.36339
3693.20093	0.38297
3691.27236	0.40366
3689.34380	0.43067
3687.41523	0.46607
3685.48667	0.49825
3683.55811	0.52541
3681.62954	0.55375
3679.70098	0.58514
3677.77241	0.61748
3675.84385	0.65497
3673.91528	0.70633
3671.98672	0.74975
3670.05815	0.78839
3668.12959	0.84163
3666.20103	0.89117
3664.27246	0.93220
3662.34390	0.97503
3660.41533	1.02059
3658.48677	1.06551
3656.55820	1.11402
3654.62964	1.16890
3652.70107	1.21484
3650.77251	1.25375
3648.84395	1.30667
3646.91538	1.37260
3644.98682	1.42259
3643.05825	1.46152
3641.12969	1.50095
3639.20112	1.54418
3637.27256	1.58728
3635.34399	1.62855
3633.41543	1.66973
3631.48687	1.70794
3629.55830	1.74601
3627.62974	1.79853
3625.70117	1.85043
3623.77261	1.88502
3621.84404	1.91663
3619.91548	1.95243
3617.98691	1.99591
3616.05835	2.03835
3614.12979	2.07556
3612.20122	2.11620
3610.27266	2.15606
3608.34409	2.19431
3606.41553	2.23497
3604.48696	2.27340
3602.55840	2.30785
3600.62983	2.34524
3598.70127	2.38626
3596.77271	2.42552
3594.84414	2.46449
3592.91558	2.50533
3590.98701	2.54445
3589.05845	2.58109
3587.12988	2.62514
3585.20132	2.67425
3583.27275	2.71525
3581.34419	2.75253
3579.41562	2.79274
3577.48706	2.83507
3575.55850	2.87751
3573.62993	2.92076
3571.70137	2.96318
3569.77280	3.00458
3567.84424	3.04773
3565.91567	3.09766
3563.98711	3.14614
3562.05854	3.18630
3560.12998	3.22652
3558.20142	3.27156
3556.27285	3.31906
3554.34429	3.36483
3552.41572	3.41098
3550.48716	3.45825
3548.55859	3.50402
3546.63003	3.55034
3544.70146	3.59946
3542.77290	3.64636
3540.84434	3.69079
3538.91577	3.73472
3536.98721	3.77738
3535.05864	3.82450
3533.13008	3.87485
3531.20151	3.92306
3529.27295	3.97146
3527.34438	4.02412
3525.41582	4.07715
3523.48726	4.12491
3521.55869	4.17064
3519.63013	4.21929
3517.70156	4.26912
3515.77300	4.31500
3513.84443	4.36038
3511.91587	4.41015
3509.98730	4.46328
3508.05874	4.51221
3506.13018	4.55328
3504.20161	4.59480
3502.27305	4.64283
3500.34448	4.69477
3498.41592	4.74487
3496.48735	4.79209
3494.55879	4.83470
3492.63022	4.87972
3490.70166	4.93574
3488.77310	4.99023
3486.84453	5.03451
3484.91597	5.07899
3482.98740	5.12898
3481.05884	5.17900
3479.13027	5.22839
3477.20171	5.28065
3475.27314	5.33217
3473.34458	5.38478
3471.41602	5.43963
3469.48745	5.48641
3467.55889	5.52841
3465.63032	5.57737
3463.70176	5.63325
3461.77319	5.69414
3459.84463	5.75316
3457.91606	5.79187
3455.98750	5.82081
3454.05894	5.86731
3452.13037	5.93152
3450.20181	5.99797
3448.27324	6.05818
3446.34468	6.11670
3444.41611	6.16473
3442.48755	6.19379
3440.55898	6.22814
3438.63042	6.28962
3436.70186	6.35412
3434.77329	6.40273
3432.84473	6.45505
3430.91616	6.51910
3428.98760	6.57983
3427.05903	6.62259
3425.13047	6.67139
3423.20190	6.73086
3421.27334	6.77883
3419.34478	6.83779
3417.41621	6.91137
3415.48765	6.95583
3413.55908	6.97926
3411.63052	7.02509
3409.70195	7.10615
3407.77339	7.19717
3405.84482	7.23887
3403.91626	7.25940
3401.98770	7.29129
3400.05913	7.29616
3398.13057	7.29397
3396.20200	7.33527
3394.27344	7.39439
3392.34487	7.42171
3390.41631	7.46923
3388.48774	7.53871
3386.55918	7.58463
3384.63062	7.60851
3382.70205	7.62752
3380.77349	7.67853
3378.84492	7.73377
3376.91636	7.75326
3374.98779	7.78870
3373.05923	7.87277
3371.13066	7.93313
3369.20210	7.95562
3367.27354	7.95885
3365.34497	7.95371
3363.41641	7.99584
3361.48784	8.06410
3359.55928	8.10596
3357.63071	8.12949
3355.70215	8.13996
3353.77358	8.14529
3351.84502	8.18624
3349.91646	8.20851
3347.98789	8.16310
3346.05933	8.13235
3344.13076	8.18988
3342.20220	8.29440
3340.27363	8.36285
3338.34507	8.37881
3336.41650	8.35372
3334.48794	8.32826
3332.55937	8.29905
3330.63081	8.25514
3328.70225	8.19431
3326.77368	8.18058
3324.84512	8.22642
3322.91655	8.20992
3320.98799	8.15795
3319.05942	8.16872
3317.13086	8.24874
3315.20229	8.35312
3313.27373	8.44381
3311.34517	8.39174
3309.41660	8.21444
3307.48804	8.13937
3305.55947	8.17556
3303.63091	8.19724
3301.70234	8.19260
3299.77378	8.25120
3297.84521	8.35040
3295.91665	8.40427
3293.98809	8.46141
3292.05952	8.58210
3290.13096	8.64427
3288.20239	8.61884
3286.27383	8.62347
3284.34526	8.51059
3282.41670	8.26770
3280.48813	8.15615
3278.55957	8.24963
3276.63101	8.32694
3274.70244	8.25642
3272.77388	8.23593
3270.84531	8.32171
3268.91675	8.38718
3266.98818	8.38808
3265.05962	8.34976
3263.13105	8.31930
3261.20249	8.38397
3259.27393	8.48476
3257.34536	8.51731
3255.41680	8.48781
3253.48823	8.41104
3251.55967	8.34955
3249.63110	8.32049
3247.70254	8.28825
3245.77397	8.28446
3243.84541	8.34188
3241.91685	8.45437
3239.98828	8.62218
3238.05972	8.67537
3236.13115	8.52880
3234.20259	8.42843
3232.27402	8.44015
3230.34546	8.46295
3228.41689	8.46261
3226.48833	8.45364
3224.55977	8.41709
3222.63120	8.37020
3220.70264	8.33440
3218.77407	8.26934
3216.84551	8.19396
3214.91694	8.18165
3212.98838	8.22988
3211.05981	8.27277
3209.13125	8.28171
3207.20269	8.23056
3205.27412	8.15508
3203.34556	8.14307
3201.41699	8.14444
3199.48843	8.07195
3197.55986	7.97609
3195.63130	7.91744
3193.70273	7.90160
3191.77417	7.91036
3189.84561	7.86395
3187.91704	7.75103
3185.98848	7.66193
3184.05991	7.57154
3182.13135	7.46375
3180.20278	7.42395
3178.27422	7.43297
3176.34565	7.42646
3174.41709	7.40267
3172.48853	7.32407
3170.55996	7.19563
3168.63140	7.09016
3166.70283	7.00617
3164.77427	6.91431
3162.84570	6.83873
3160.91714	6.79045
3158.98857	6.74620
3157.06001	6.70764
3155.13145	6.66767
3153.20288	6.58495
3151.27432	6.47797
3149.34575	6.39614
3147.41719	6.33243
3145.48862	6.26517
3143.56006	6.20178
3141.63149	6.14590
3139.70293	6.08733
3137.77437	6.02087
3135.84580	5.93889
3133.91724	5.84425
3131.98867	5.74772
3130.06011	5.65744
3128.13154	5.58184
3126.20298	5.51653
3124.27441	5.44697
3122.34585	5.36323
3120.41729	5.27401
3118.48872	5.19701
3116.56016	5.13476
3114.63159	5.07410
3112.70303	5.00582
3110.77446	4.93137
3108.84590	4.85255
3106.91733	4.77026
3104.98877	4.68982
3103.06021	4.62084
3101.13164	4.56059
3099.20308	4.49301
3097.27451	4.41650
3095.34595	4.34417
3093.41738	4.27946
3091.48882	4.21673
3089.56025	4.15283
3087.63169	4.08595
3085.70312	4.01658
3083.77456	3.94928
3081.84600	3.88374
3079.91743	3.81540
3077.98887	3.74886
3076.06030	3.68797
3074.13174	3.62789
3072.20317	3.56734
3070.27461	3.50782
3068.34604	3.44959
3066.41748	3.39209
3064.48892	3.33417
3062.56035	3.27682
3060.63179	3.22122
3058.70322	3.16542
3056.77466	3.10918
3054.84609	3.05439
3052.91753	3.00022
3050.98896	2.94677
3049.06040	2.89493
3047.13184	2.84375
3045.20327	2.79281
3043.27471	2.74218
3041.34614	2.69226
3039.41758	2.64365
3037.48901	2.59642
3035.56045	2.54996
3033.63188	2.50402
3031.70332	2.45896
3029.77476	2.41440
3027.84619	2.37040
3025.91763	2.32705
3023.98906	2.28396
3022.06050	2.24169
3020.13193	2.20051
3018.20337	2.15998
3016.27480	2.11996
3014.34624	2.08057
3012.41768	2.04145
3010.48911	2.00269
3008.56055	1.96517
3006.63198	1.92867
3004.70342	1.89236
3002.77485	1.85653
3000.84629	1.82175
2998.91772	1.78788
2996.98916	1.75433
2995.06060	1.72089
2993.13203	1.68805
2991.20347	1.65615
2989.27490	1.62459
2987.34634	1.59308
2985.41777	1.56205
2983.48921	1.53180
2981.56064	1.50228
2979.63208	1.47343
2977.70352	1.44536
2975.77495	1.41781
2973.84639	1.39030
2971.91782	1.36292
2969.98926	1.33591
2968.06069	1.30937
2966.13213	1.28368
2964.20356	1.25887
2962.27500	1.23484
2960.34644	1.21124
2958.41787	1.18742
2956.48931	1.16394
2954.56074	1.14143
2952.63218	1.11929
2950.70361	1.09732
2948.77505	1.07589
2946.84648	1.05513
2944.91792	1.03492
2942.98936	1.01470
2941.06079	0.99445
2939.13223	0.97484
2937.20366	0.95621
2935.27510	0.93857
2933.34653	0.92129
2931.41797	0.90367
2929.48940	0.88636
2927.56084	0.86986
2925.63228	0.85343
2923.70371	0.83708
2921.77515	0.82104
2919.84658	0.80463
2917.91802	0.78799
2915.98945	0.77179
2914.06089	0.75641
2912.13232	0.74210
2910.20376	0.72842
2908.27520	0.71457
2906.34663	0.70046
2904.41807	0.68684
2902.48950	0.67402
2900.56094	0.66153
2898.63237	0.64917
2896.70381	0.63711
2894.77524	0.62542
2892.84668	0.61399
2890.91812	0.60276
2888.98955	0.59158
2887.06099	0.58015
2885.13242	0.56886
2883.20386	0.55822
2881.27529	0.54793
2879.34673	0.53795
2877.41816	0.52837
2875.48960	0.51880
2873.56104	0.50925
2871.63247	0.50000
2869.70391	0.49098
2867.77534	0.48214
2865.84678	0.47352
2863.91821	0.46504
2861.98965	0.45678
2860.06108	0.44898
2858.13252	0.44140
2856.20396	0.43380
2854.27539	0.42631
2852.34683	0.41879
2850.41826	0.41100
2848.48970	0.40322
2846.56113	0.39590
2844.63257	0.38911
2842.70400	0.38252
2840.77544	0.37608
2838.84687	0.36993
2836.91831	0.36408
2834.98975	0.35850
2833.06118	0.35317
2831.13262	0.34775
2829.20405	0.34221
2827.27549	0.33682
2825.34692	0.33163
2823.41836	0.32647
2821.48979	0.32122
2819.56123	0.31600
2817.63267	0.31087
2815.70410	0.30583
2813.77554	0.30098
2811.84697	0.29625
2809.91841	0.29157
2807.98984	0.28693
2806.06128	0.28241
2804.13271	0.27800
2802.20415	0.27376
2800.27559	0.26970
2798.34702	0.26568
2796.41846	0.26180
2794.48989	0.25796
2792.56133	0.25400
2790.63276	0.25014
2788.70420	0.24661
2786.77563	0.24324
2784.84707	0.23972
2782.91851	0.23605
2780.98994	0.23253
2779.06138	0.22926
2777.13281	0.22610
2775.20425	0.22299
2773.27568	0.21987
2771.34712	0.21684
2769.41855	0.21404
2767.48999	0.21133
2765.56143	0.20859
2763.63286	0.20586
2761.70430	0.20322
2759.77573	0.20059
2757.84717	0.19791
2755.91860	0.19531
2753.99004	0.19288
2752.06147	0.19059
2750.13291	0.18840
2748.20435	0.18629
2746.27578	0.18415
2744.34722	0.18193
2742.41865	0.17972
2740.49009	0.17763
2738.56152	0.17565
2736.63296	0.17367
2734.70439	0.17164
2732.77583	0.16957
2730.84727	0.16772
2728.91870	0.16623
2726.99014	0.16475
2725.06157	0.16298
2723.13301	0.16122
2721.20444	0.15980
2719.27588	0.15844
2717.34731	0.15688
2715.41875	0.15531
2713.49019	0.15383
2711.56162	0.15231
2709.63306	0.15086
2707.70449	0.14965
2705.77593	0.14864
2703.84736	0.14758
2701.91880	0.14628
2699.99023	0.14491
2698.06167	0.14367
2696.13311	0.14244
2694.20454	0.14124
2692.27598	0.14023
2690.34741	0.13924
2688.41885	0.13819
2686.49028	0.13729
2684.56172	0.13651
2682.63315	0.13565
2680.70459	0.13479
2678.77603	0.13417
2676.84746	0.13365
2674.91890	0.13298
2672.99033	0.13211
2671.06177	0.13120
2669.13320	0.13034
2667.20464	0.12956
2665.27607	0.12890
2663.34751	0.12834
2661.41895	0.12788
2659.49038	0.12744
2657.56182	0.12702
2655.63325	0.12660
2653.70469	0.12611
2651.77612	0.12570
2649.84756	0.12540
2647.91899	0.12499
2645.99043	0.12447
2644.06187	0.12404
2642.13330	0.12380
2640.20474	0.12366
2638.27617	0.12347
2636.34761	0.12316
2634.41904	0.12286
2632.49048	0.12274
2630.56191	0.12270
2628.63335	0.12262
2626.70479	0.12245
2624.77622	0.12225
2622.84766	0.12216
2620.91909	0.12225
2618.99053	0.12238
2617.06196	0.12234
2615.13340	0.12224
2613.20483	0.12218
2611.27627	0.12207
2609.34771	0.12213
2607.41914	0.12250
2605.49058	0.12289
2603.56201	0.12307
2601.63345	0.12317
2599.70488	0.12334
2597.77632	0.12361
2595.84775	0.12386
2593.91919	0.12403
2591.99062	0.12427
2590.06206	0.12458
2588.13350	0.12491
2586.20493	0.12530
2584.27637	0.12576
2582.34780	0.12625
2580.41924	0.12668
2578.49067	0.12700
2576.56211	0.12734
2574.63354	0.12769
2572.70498	0.12810
2570.77642	0.12873
2568.84785	0.12943
2566.91929	0.12995
2564.99072	0.13035
2563.06216	0.13088
2561.13359	0.13155
2559.20503	0.13220
2557.27646	0.13278
2555.34790	0.13335
2553.41934	0.13389
2551.49077	0.13448
2549.56221	0.13510
2547.63364	0.13558
2545.70508	0.13603
2543.77651	0.13670
2541.84795	0.13753
2539.91938	0.13838
2537.99082	0.13918
2536.06226	0.13983
2534.13369	0.14044
2532.20513	0.14119
2530.27656	0.14196
2528.34800	0.14268
2526.41943	0.14351
2524.49087	0.14451
2522.56230	0.14538
2520.63374	0.14611
2518.70518	0.14699
2516.77661	0.14789
2514.84805	0.14864
2512.91948	0.14942
2510.99092	0.15035
2509.06235	0.15128
2507.13379	0.15219
2505.20522	0.15311
2503.27666	0.15409
2501.34810	0.15505
2499.41953	0.15582
2497.49097	0.15661
2495.56240	0.15761
2493.63384	0.15855
2491.70527	0.15941
2489.77671	0.16046
2487.84814	0.16163
2485.91958	0.16266
2483.99102	0.16354
2482.06245	0.16436
2480.13389	0.16514
2478.20532	0.16608
2476.27676	0.16716
2474.34819	0.16819
2472.41963	0.16917
2470.49106	0.17017
2468.56250	0.17120
2466.63394	0.17222
2464.70537	0.17322
2462.77681	0.17421
2460.84824	0.17521
2458.91968	0.17614
2456.99111	0.17708
2455.06255	0.17817
2453.13398	0.17934
2451.20542	0.18048
2449.27686	0.18151
2447.34829	0.18243
2445.41973	0.18341
2443.49116	0.18451
2441.56260	0.18566
2439.63403	0.18684
2437.70547	0.18798
2435.77690	0.18905
2433.84834	0.19006
2431.91978	0.19118
2429.99121	0.19250
2428.06265	0.19374
2426.13408	0.19483
2424.20552	0.19590
2422.27695	0.19696
2420.34839	0.19819
2418.41982	0.19960
2416.49126	0.20082
2414.56270	0.20183
2412.63413	0.20295
2410.70557	0.20426
2408.77700	0.20570
2406.84844	0.20708
2404.91987	0.20829
2402.99131	0.20944
2401.06274	0.21081
2399.13418	0.21232
2397.20562	0.21365
2395.27705	0.21484
2393.34849	0.21609
2391.41992	0.21732
2389.49136	0.21848
2387.56279	0.21951
2385.63423	0.22007
2383.70566	0.21973
2381.77710	0.21841
2379.84854	0.21635
2377.91997	0.21374
2375.99141	0.21042
2374.06284	0.20640
2372.13428	0.20157
2370.20571	0.19541
2368.27715	0.18813
2366.34858	0.18149
2364.42002	0.17754
2362.49146	0.17702
2360.56289	0.17870
2358.63433	0.18119
2356.70576	0.18564
2354.77720	0.19302
2352.84863	0.20296
2350.92007	0.21327
2348.99150	0.21964
2347.06294	0.22051
2345.13437	0.21689
2343.20581	0.21227
2341.27725	0.21150
2339.34868	0.21442
2337.42012	0.21753
2335.49155	0.21968
2333.56299	0.22215
2331.63442	0.22511
2329.70586	0.22809
2327.77729	0.23163
2325.84873	0.23594
2323.92017	0.24072
2321.99160	0.24570
2320.06304	0.25069
2318.13447	0.25551
2316.20591	0.25976
2314.27734	0.26339
2312.34878	0.26660
2310.42021	0.26978
2308.49165	0.27336
2306.56309	0.27722
2304.63452	0.28087
2302.70596	0.28411
2300.77739	0.28711
2298.84883	0.28996
2296.92026	0.29265
2294.99170	0.29534
2293.06313	0.29806
2291.13457	0.30078
2289.20601	0.30353
2287.27744	0.30628
2285.34888	0.30895
2283.42031	0.31135
2281.49175	0.31337
2279.56318	0.31513
2277.63462	0.31694
2275.70605	0.31897
2273.77749	0.32114
2271.84893	0.32319
2269.92036	0.32522
2267.99180	0.32746
2266.06323	0.32978
2264.13467	0.33204
2262.20610	0.33434
2260.27754	0.33674
2258.34897	0.33919
2256.42041	0.34154
2254.49185	0.34384
2252.56328	0.34622
2250.63472	0.34866
2248.70615	0.35106
2246.77759	0.35333
2244.84902	0.35552
2242.92046	0.35777
2240.99189	0.36015
2239.06333	0.36259
2237.13477	0.36507
2235.20620	0.36739
2233.27764	0.36945
2231.34907	0.37154
2229.42051	0.37377
2227.49194	0.37609
2225.56338	0.37847
2223.63481	0.38075
2221.70625	0.38290
2219.77769	0.38513
2217.84912	0.38752
2215.92056	0.38984
2213.99199	0.39203
2212.06343	0.39417
2210.13486	0.39625
2208.20630	0.39835
2206.27773	0.40056
2204.34917	0.40276
2202.42061	0.40488
2200.49204	0.40696
2198.56348	0.40906
2196.63491	0.41120
2194.70635	0.41326
2192.77778	0.41513
2190.84922	0.41704
2188.92065	0.41909
2186.99209	0.42109
2185.06353	0.42299
2183.13496	0.42474
2181.20640	0.42641
2179.27783	0.42812
2177.34927	0.42982
2175.42070	0.43144
2173.49214	0.43306
2171.56357	0.43454
2169.63501	0.43585
2167.70645	0.43713
2165.77788	0.43850
2163.84932	0.43982
2161.92075	0.44096
2159.99219	0.44206
2158.06362	0.44306
2156.13506	0.44393
2154.20649	0.44483
2152.27793	0.44581
2150.34937	0.44664
2148.42080	0.44728
2146.49224	0.44791
2144.56367	0.44854
2142.63511	0.44901
2140.70654	0.44929
2138.77798	0.44950
2136.84941	0.44972
2134.92085	0.44987
2132.99229	0.44985
2131.06372	0.44976
2129.13516	0.44961
2127.20659	0.44936
2125.27803	0.44908
2123.34946	0.44873
2121.42090	0.44831
2119.49233	0.44779
2117.56377	0.44713
2115.63521	0.44631
2113.70664	0.44536
2111.77808	0.44441
2109.84951	0.44358
2107.92095	0.44272
2105.99238	0.44172
2104.06382	0.44063
2102.13525	0.43929
2100.20669	0.43781
2098.27812	0.43640
2096.34956	0.43501
2094.42100	0.43356
2092.49243	0.43200
2090.56387	0.43021
2088.63530	0.42835
2086.70674	0.42665
2084.77817	0.42494
2082.84961	0.42301
2080.92104	0.42093
2078.99248	0.41882
2077.06392	0.41670
2075.13535	0.41457
2073.20679	0.41242
2071.27822	0.41023
2069.34966	0.40802
2067.42109	0.40574
2065.49253	0.40330
2063.56396	0.40073
2061.63540	0.39831
2059.70684	0.39608
2057.77827	0.39383
2055.84971	0.39138
2053.92114	0.38878
2051.99258	0.38618
2050.06401	0.38353
2048.13545	0.38083
2046.20688	0.37813
2044.27832	0.37539
2042.34976	0.37266
2040.42119	0.37005
2038.49263	0.36740
2036.56406	0.36463
2034.63550	0.36192
2032.70693	0.35917
2030.77837	0.35630
2028.84980	0.35338
2026.92124	0.35059
2024.99268	0.34790
2023.06411	0.34523
2021.13555	0.34262
2019.20698	0.33994
2017.27842	0.33717
2015.34985	0.33437
2013.42129	0.33160
2011.49272	0.32883
2009.56416	0.32612
2007.63560	0.32341
2005.70703	0.32069
2003.77847	0.31806
2001.84990	0.31550
1999.92134	0.31283
1997.99277	0.31010
1996.06421	0.30755
1994.13564	0.30510
1992.20708	0.30258
1990.27852	0.29997
1988.34995	0.29746
1986.42139	0.29512
1984.49282	0.29295
1982.56426	0.29080
1980.63569	0.28856
1978.70713	0.28623
1976.77856	0.28381
1974.85000	0.28141
1972.92144	0.27919
1970.99287	0.27711
1969.06431	0.27500
1967.13574	0.27291
1965.20718	0.27097
1963.27861	0.26909
1961.35005	0.26709
1959.42148	0.26506
1957.49292	0.26323
1955.56436	0.26165
1953.63579	0.26011
1951.70723	0.25839
1949.77866	0.25663
1947.85010	0.25498
1945.92153	0.25338
1943.99297	0.25179
1942.06440	0.25037
1940.13584	0.24907
1938.20728	0.24773
1936.27871	0.24642
1934.35015	0.24520
1932.42158	0.24403
1930.49302	0.24288
1928.56445	0.24173
1926.63589	0.24061
1924.70732	0.23961
1922.77876	0.23864
1920.85020	0.23765
1918.92163	0.23672
1916.99307	0.23587
1915.06450	0.23501
1913.13594	0.23413
1911.20737	0.23332
1909.27881	0.23260
1907.35024	0.23198
1905.42168	0.23135
1903.49312	0.23071
1901.56455	0.23018
1899.63599	0.22970
1897.70742	0.22926
1895.77886	0.22893
1893.85029	0.22868
1891.92173	0.22828
1889.99316	0.22787
1888.06460	0.22769
1886.13604	0.22764
1884.20747	0.22749
1882.27891	0.22723
1880.35034	0.22702
1878.42178	0.22696
1876.49321	0.22696
1874.56465	0.22688
1872.63608	0.22686
1870.70752	0.22696
1868.77896	0.22737
1866.85039	0.22795
1864.92183	0.22823
1862.99326	0.22823
1861.06470	0.22830
1859.13613	0.22869
1857.20757	0.22919
1855.27900	0.22970
1853.35044	0.23020
1851.42187	0.23077
1849.49331	0.23127
1847.56475	0.23172
1845.63618	0.23230
1843.70762	0.23333
1841.77905	0.23446
1839.85049	0.23513
1837.92192	0.23588
1835.99336	0.23681
1834.06479	0.23774
1832.13623	0.23854
1830.20767	0.23958
1828.27910	0.24098
1826.35054	0.24224
1824.42197	0.24355
1822.49341	0.24499
1820.56484	0.24650
1818.63628	0.24799
1816.70771	0.24955
1814.77915	0.25110
1812.85059	0.25276
1810.92202	0.25468
1808.99346	0.25674
1807.06489	0.25883
1805.13633	0.26088
1803.20776	0.26304
1801.27920	0.26540
1799.35063	0.26819
1797.42207	0.27082
1795.49351	0.27316
1793.56494	0.27577
1791.63638	0.27941
1789.70781	0.28320
1787.77925	0.28604
1785.85068	0.28910
1783.92212	0.29273
1781.99355	0.29672
1780.06499	0.30100
1778.13643	0.30543
1776.20786	0.30950
1774.27930	0.31354
1772.35073	0.31898
1770.42217	0.32539
1768.49360	0.33108
1766.56504	0.33653
1764.63647	0.34200
1762.70791	0.34776
1760.77935	0.35514
1758.85078	0.36242
1756.92222	0.36980
1754.99365	0.37775
1753.06509	0.38468
1751.13652	0.39262
1749.20796	0.40293
1747.27939	0.41370
1745.35083	0.42344
1743.42227	0.43354
1741.49370	0.44438
1739.56514	0.45687
1737.63657	0.46939
1735.70801	0.48019
1733.77944	0.49621
1731.85088	0.51610
1729.92231	0.53233
1727.99375	0.54861
1726.06519	0.56580
1724.13662	0.58418
1722.20806	0.60385
1720.27949	0.62186
1718.35093	0.64265
1716.42236	0.67397
1714.49380	0.70468
1712.56523	0.72979
1710.63667	0.75386
1708.70811	0.77924
1706.77954	0.80766
1704.85098	0.84156
1702.92241	0.87179
1700.99385	0.90133
1699.06528	0.94534
1697.13672	0.98583
1695.20815	1.02694
1693.27959	1.06649
1691.35103	1.09773
1689.42246	1.13331
1687.49390	1.17052
1685.56533	1.20593
1683.63677	1.26067
1681.70820	1.31792
1679.77964	1.35395
1677.85107	1.38738
1675.92251	1.42581
1673.99395	1.47408
1672.06538	1.51760
1670.13682	1.55992
1668.20825	1.61293
1666.27969	1.65442
1664.35112	1.68887
1662.42256	1.73143
1660.49399	1.77925
1658.56543	1.81702
1656.63687	1.84788
1654.70830	1.87715
1652.77974	1.92662
1650.85117	1.97608
1648.92261	1.99666
1646.99404	2.02506
1645.06548	2.06021
1643.13691	2.08309
1641.20835	2.09657
1639.27979	2.10873
1637.35122	2.11740
1635.42266	2.12123
1633.49409	2.11893
1631.56553	2.10879
1629.63696	2.09438
1627.70840	2.07219
1625.77983	2.04698
1623.85127	2.01320
1621.92271	1.97030
1619.99414	1.93187
1618.06558	1.89402
1616.13701	1.83902
1614.20845	1.78167
1612.27988	1.73767
1610.35132	1.69141
1608.42275	1.64031
1606.49419	1.58927
1604.56562	1.54166
1602.63706	1.49524
1600.70850	1.44998
1598.77993	1.40817
1596.85137	1.36820
1594.92280	1.32916
1592.99424	1.29155
1591.06567	1.25686
1589.13711	1.22388
1587.20854	1.19265
1585.27998	1.16340
1583.35142	1.13554
1581.42285	1.10942
1579.49429	1.08646
1577.56572	1.06508
1575.63716	1.03846
1573.70859	1.01492
1571.78003	0.99912
1569.85146	0.98126
1567.92290	0.96061
1565.99434	0.94437
1564.06577	0.93044
1562.13721	0.91852
1560.20864	0.90778
1558.28008	0.88857
1556.35151	0.87115
1554.42295	0.86050
1552.49438	0.84959
1550.56582	0.83864
1548.63726	0.82809
1546.70869	0.81943
1544.78013	0.81148
1542.85156	0.80263
1540.92300	0.79279
1538.99443	0.78165
1537.06587	0.77407
1535.13730	0.76854
1533.20874	0.76153
1531.28018	0.75427
1529.35161	0.74876
1527.42305	0.74326
1525.49448	0.73745
1523.56592	0.73212
1521.63735	0.72629
1519.70879	0.71982
1517.78022	0.71452
1515.85166	0.70959
1513.92310	0.70493
1511.99453	0.70086
1510.06597	0.69708
1508.13740	0.69343
1506.20884	0.68827
1504.28027	0.68389
1502.35171	0.68100
1500.42314	0.67807
1498.49458	0.67483
1496.56602	0.67147
1494.63745	0.66847
1492.70889	0.66582
1490.78032	0.66300
1488.85176	0.65961
1486.92319	0.65641
1484.99463	0.65361
1483.06606	0.65098
1481.13750	0.64833
1479.20894	0.64563
1477.28037	0.64290
1475.35181	0.63997
1473.42324	0.63695
1471.49468	0.63398
1469.56611	0.63147
1467.63755	0.62925
1465.70898	0.62698
1463.78042	0.62450
1461.85186	0.62215
1459.92329	0.62008
1457.99473	0.61795
1456.06616	0.61561
1454.13760	0.61341
1452.20903	0.61141
1450.28047	0.60941
1448.35190	0.60753
1446.42334	0.60598
1444.49478	0.60464
1442.56621	0.60315
1440.63765	0.60147
1438.70908	0.59995
1436.78052	0.59869
1434.85195	0.59743
1432.92339	0.59595
1430.99482	0.59445
1429.06626	0.59291
1427.13770	0.59131
1425.20913	0.58977
1423.28057	0.58826
1421.35200	0.58686
1419.42344	0.58533
1417.49487	0.58362
1415.56631	0.58214
1413.63774	0.58080
1411.70918	0.57949
1409.78062	0.57825
1407.85205	0.57692
1405.92349	0.57547
1403.99492	0.57413
1402.06636	0.57302
1400.13779	0.57189
1398.20923	0.57036
1396.28066	0.56865
1394.35210	0.56728
1392.42354	0.56629
1390.49497	0.56539
1388.56641	0.56438
1386.63784	0.56320
1384.70928	0.56200
1382.78071	0.56098
1380.85215	0.56013
1378.92358	0.55927
1376.99502	0.55821
1375.06646	0.55715
1373.13789	0.55633
1371.20933	0.55558
1369.28076	0.55460
1367.35220	0.55342
1365.42363	0.55223
1363.49507	0.55104
1361.56650	0.55004
1359.63794	0.54921
1357.70937	0.54841
1355.78081	0.54763
1353.85225	0.54682
1351.92368	0.54595
1349.99512	0.54506
1348.06655	0.54417
1346.13799	0.54331
1344.20942	0.54250
1342.28086	0.54164
1340.35229	0.54069
1338.42373	0.53966
1336.49517	0.53870
1334.56660	0.53784
1332.63804	0.53705
1330.70947	0.53624
1328.78091	0.53532
1326.85234	0.53433
1324.92378	0.53337
1322.99521	0.53247
1321.06665	0.53144
1319.13809	0.53041
1317.20952	0.52963
1315.28096	0.52890
1313.35239	0.52798
1311.42383	0.52697
1309.49526	0.52612
1307.56670	0.52554
1305.63813	0.52493
1303.70957	0.52399
1301.78101	0.52295
1299.85244	0.52207
1297.92388	0.52131
1295.99531	0.52051
1294.06675	0.51956
1292.13818	0.51864
1290.20962	0.51787
1288.28105	0.51713
1286.35249	0.51637
1284.42393	0.51566
1282.49536	0.51503
1280.56680	0.51446
1278.63823	0.51388
1276.70967	0.51317
1274.78110	0.51224
1272.85254	0.51128
1270.92397	0.51054
1268.99541	0.50993
1267.06685	0.50932
1265.13828	0.50857
1263.20972	0.50776
1261.28115	0.50710
1259.35259	0.50647
1257.42402	0.50572
1255.49546	0.50495
1253.56689	0.50428
1251.63833	0.50372
1249.70977	0.50307
1247.78120	0.50235
1245.85264	0.50172
1243.92407	0.50117
1241.99551	0.50058
1240.06694	0.49992
1238.13838	0.49919
1236.20981	0.49837
1234.28125	0.49743
1232.35269	0.49656
1230.42412	0.49581
1228.49556	0.49503
1226.56699	0.49417
1224.63843	0.49334
1222.70986	0.49255
1220.78130	0.49168
1218.85273	0.49073
1216.92417	0.48980
1214.99561	0.48895
1213.06704	0.48816
1211.13848	0.48739
1209.20991	0.48647
1207.28135	0.48548
1205.35278	0.48448
1203.42422	0.48351
1201.49565	0.48269
1199.56709	0.48194
1197.63853	0.48102
1195.70996	0.47994
1193.78140	0.47895
1191.85283	0.47812
1189.92427	0.47719
1187.99570	0.47605
1186.06714	0.47506
1184.13857	0.47428
1182.21001	0.47334
1180.28145	0.47226
1178.35288	0.47124
1176.42432	0.47033
1174.49575	0.46955
1172.56719	0.46886
1170.63862	0.46803
1168.71006	0.46699
1166.78149	0.46591
1164.85293	0.46488
1162.92437	0.46390
1160.99580	0.46307
1159.06724	0.46235
1157.13867	0.46153
1155.21011	0.46075
1153.28154	0.45999
1151.35298	0.45923
1149.42441	0.45848
1147.49585	0.45757
1145.56729	0.45654
1143.63872	0.45565
1141.71016	0.45502
1139.78159	0.45451
1137.85303	0.45399
1135.92446	0.45335
1133.99590	0.45236
1132.06733	0.45119
1130.13877	0.45010
1128.21021	0.44902
1126.28164	0.44822
1124.35308	0.44775
1122.42451	0.44722
1120.49595	0.44667
1118.56738	0.44619
1116.63882	0.44558
1114.71025	0.44497
1112.78169	0.44456
1110.85312	0.44418
1108.92456	0.44370
1106.99600	0.44313
1105.06743	0.44248
1103.13887	0.44190
1101.21030	0.44152
1099.28174	0.44135
1097.35317	0.44128
1095.42461	0.44121
1093.49604	0.44099
1091.56748	0.44057
1089.63892	0.44021
1087.71035	0.43986
1085.78179	0.43934
1083.85322	0.43901
1081.92466	0.43895
1079.99609	0.43877
1078.06753	0.43844
1076.13896	0.43832
1074.21040	0.43834
1072.28184	0.43830
1070.35327	0.43841
1068.42471	0.43861
1066.49614	0.43857
1064.56758	0.43864
1062.63901	0.43911
1060.71045	0.43957
1058.78188	0.43981
1056.85332	0.44007
1054.92476	0.44041
1052.99619	0.44062
1051.06763	0.44075
1049.13906	0.44113
1047.21050	0.44169
1045.28193	0.44198
1043.35337	0.44214
1041.42480	0.44268
1039.49624	0.44349
1037.56768	0.44426
1035.63911	0.44509
1033.71055	0.44601
1031.78198	0.44698
1029.85342	0.44805
1027.92485	0.44915
1025.99629	0.45019
1024.06772	0.45122
1022.13916	0.45239
1020.21060	0.45376
1018.28203	0.45516
1016.35347	0.45645
1014.42490	0.45774
1012.49634	0.45901
1010.56777	0.46035
1008.63921	0.46197
1006.71064	0.46375
1004.78208	0.46539
1002.85352	0.46696
1000.92495	0.46863
998.99639	0.47041
997.06782	0.47239
995.13926	0.47455
993.21069	0.47684
991.28213	0.47926
989.35356	0.48181
987.42500	0.48442
985.49644	0.48697
983.56787	0.48950
981.63931	0.49219
979.71074	0.49511
977.78218	0.49835
975.85361	0.50185
973.92505	0.50538
971.99648	0.50877
970.06792	0.51216
968.13936	0.51577
966.21079	0.51966
964.28223	0.52384
962.35366	0.52799
960.42510	0.53195
958.49653	0.53604
956.56797	0.54049
954.63940	0.54515
952.71084	0.55008
950.78228	0.55532
948.85371	0.56067
946.92515	0.56608
944.99658	0.57145
943.06802	0.57671
941.13945	0.58248
939.21089	0.58880
937.28232	0.59489
935.35376	0.60084
933.42520	0.60737
931.49663	0.61436
929.56807	0.62120
927.63950	0.62803
925.71094	0.63528
923.78237	0.64284
921.85381	0.65065
919.92524	0.65874
917.99668	0.66671
916.06812	0.67440
914.13955	0.68234
912.21099	0.69074
910.28242	0.69975
908.35386	0.70931
906.42529	0.71818
904.49673	0.72645
902.56816	0.73571
900.63960	0.74572
898.71104	0.75566
896.78247	0.76617
894.85391	0.77696
892.92534	0.78706
890.99678	0.79699
889.06821	0.80796
887.13965	0.81983
885.21108	0.83049
883.28252	0.84042
881.35396	0.85158
879.42539	0.86252
877.49683	0.87289
875.56826	0.88472
873.63970	0.89699
871.71113	0.90796
869.78257	0.91906
867.85400	0.93181
865.92544	0.94490
863.99687	0.95595
862.06831	0.96571
860.13975	0.97677
858.21118	0.98897
856.28262	1.00069
854.35405	1.01314
852.42549	1.02707
850.49692	1.03991
848.56836	1.05055
846.63979	1.06062
844.71123	1.07288
842.78267	1.08729
840.85410	1.10104
838.92554	1.11461
836.99697	1.12849
835.06841	1.14176
833.13984	1.15398
831.21128	1.16286
829.28271	1.17177
827.35415	1.18873
825.42559	1.21271
823.49702	1.23287
821.56846	1.24214
819.63989	1.24819
817.71133	1.25718
815.78276	1.26444
813.85420	1.27063
811.92563	1.28238
809.99707	1.29393
808.06851	1.29783
806.13994	1.31387
804.21138	1.36021
802.28281	1.41398
800.35425	1.44475
798.42568	1.48051
796.49712	1.51589
794.56855	1.49312
792.63999	1.47630
790.71143	1.52026
788.78286	1.55490
786.85430	1.53619
784.92573	1.55017
782.99717	1.58083
781.06860	1.55474
779.14004	1.58665
777.21147	1.77221
775.28291	1.97261
773.35435	1.74519
771.42578	1.53197
769.49722	1.43993
767.56865	1.38670
765.64009	1.39784
763.71152	1.62939
761.78296	1.88703
759.85439	1.46997
757.92583	1.26834
755.99727	1.33836
754.06870	1.84546
752.14014	4.51284
750.21157	4.50127
748.28301	1.89727
746.35444	1.63164
744.42588	1.60311
742.49731	1.19854
740.56875	0.98514
738.64019	1.11544
736.71162	4.42027
734.78306	4.40870
732.85449	0.93544
730.92593	0.51267
728.99736	0.24538
727.06880	-0.06529
725.14023	4.35084
723.21167	4.33927
721.28311	4.32770
719.35454	4.31613
717.42598	0.00692
715.49741	0.36613
713.56885	0.45494
711.64028	0.53531
709.71172	0.59352
707.78315	0.57615
705.85459	0.57021
703.92603	0.64103
701.99746	0.55809
700.06890	0.46003
698.14033	0.51483
696.21177	0.62108
694.28320	0.70749
692.35464	0.79042
690.42607	0.64878
688.49751	0.50197
686.56895	0.47338
684.64038	0.52210
682.71182	0.54984
680.78325	0.52913
678.85469	0.53346
676.92612	0.61372
674.99756	0.76018
673.06899	0.98583
671.14043	1.62199
669.21187	1.09876
667.28330	0.75958
665.35474	0.67670
663.42617	0.59786
661.49761	0.49764
659.56904	0.44110
657.64048	0.44213
655.71191	0.46589
653.78335	0.47620
651.85479	0.49773
649.92622	0.55314
647.99766	0.61450
646.06909	0.66567
644.14053	0.70438
642.21196	0.70125
640.28340	0.63485
638.35483	0.61118
636.42627	0.64118
634.49771	0.63578
632.56914	0.68242
630.64058	0.79535
628.71201	0.80480
626.78345	0.78723
624.85488	0.76200
622.92632	0.67444
620.99775	0.59657
619.06919	0.60124
617.14062	0.67464
615.21206	0.62552
613.28350	0.50246
611.35493	0.48398
609.42637	0.55785
607.49780	0.62192
605.56924	0.59930
603.64067	0.51660
601.71211	0.45959
599.78354	0.51074
597.85498	0.62206
595.92642	0.58711
593.99785	0.56633
592.06929	0.69202
590.14072	0.85733
588.21216	0.75376
586.28359	0.57453
584.35503	0.47271
582.42646	0.44973
580.49790	0.46504
578.56934	0.46632
576.64077	0.45792
574.71221	0.44706
572.78364	0.43107
570.85508	0.42005
568.92651	0.40029
566.99795	0.38201
565.06938	0.38313
563.14082	0.38180
561.21226	0.36107
559.28369	0.37512
557.35513	0.45646
555.42656	0.46532
553.49800	0.43600
551.56943	0.54353
549.64087	0.75419
547.71230	0.59439
545.78374	0.43439
543.85518	0.38267
541.92661	0.38868
539.99805	0.42837
538.06948	0.44464
536.14092	0.39664
534.21235	0.35010
532.28379	0.34798
530.35522	0.40186
528.42666	0.50600
526.49810	0.58803
524.56953	0.54020
522.64097	0.44340
520.71240	0.40735
518.78384	0.42076
516.85527	0.42046
514.92671	0.44501
512.99814	0.51428
511.06958	0.53577
509.14102	0.48386
507.21245	0.40113
505.28389	0.37607
503.35532	0.45106
501.42676	0.67373
499.49819	1.09710
