3997.91411	0.06632
3995.98555	0.06663
3994.05698	0.06691
3992.12842	0.06742
3990.19985	0.06800
3988.27129	0.06854
3986.34272	0.06885
3984.41416	0.06889
3982.48560	0.06902
3980.55703	0.06919
3978.62847	0.06923
3976.69990	0.06943
3974.77134	0.06985
3972.84277	0.07024
3970.91421	0.07035
3968.98564	0.07021
3967.05708	0.07016
3965.12852	0.07038
3963.19995	0.07069
3961.27139	0.07081
3959.34282	0.07070
3957.41426	0.07064
3955.48569	0.07059
3953.55713	0.07045
3951.62856	0.07078
3949.70000	0.07165
3947.77144	0.07228
3945.84287	0.07237
3943.91431	0.07222
3941.98574	0.07207
3940.05718	0.07189
3938.12861	0.07152
3936.20005	0.07100
3934.27148	0.07081
3932.34292	0.07132
3930.41436	0.07206
3928.48579	0.07221
3926.55723	0.07176
3924.62866	0.07130
3922.70010	0.07102
3920.77153	0.07083
3918.84297	0.07109
3916.91440	0.07183
3914.98584	0.07196
3913.05728	0.07120
3911.12871	0.07059
3909.20015	0.07057
3907.27158	0.07089
3905.34302	0.07140
3903.41445	0.07183
3901.48589	0.07218
3899.55732	0.07274
3897.62876	0.07274
3895.70020	0.07181
3893.77163	0.07116
3891.84307	0.07160
3889.91450	0.07209
3887.98594	0.07165
3886.05737	0.07150
3884.12881	0.07212
3882.20024	0.07252
3880.27168	0.07265
3878.34312	0.07243
3876.41455	0.07186
3874.48599	0.07209
3872.55742	0.07358
3870.62886	0.07533
3868.70029	0.07584
3866.77173	0.07515
3864.84316	0.07526
3862.91460	0.07587
3860.98604	0.07554
3859.05747	0.07519
3857.12891	0.07568
3855.20034	0.07691
3853.27178	0.07876
3851.34321	0.07954
3849.41465	0.07823
3847.48608	0.07717
3845.55752	0.07741
3843.62896	0.07862
3841.70039	0.08006
3839.77183	0.08159
3837.84326	0.08278
3835.91470	0.08278
3833.98613	0.08257
3832.05757	0.08278
3830.12900	0.08325
3828.20044	0.08395
3826.27187	0.08484
3824.34331	0.08574
3822.41475	0.08731
3820.48618	0.09008
3818.55762	0.09135
3816.62905	0.09078
3814.70049	0.09047
3812.77192	0.09004
3810.84336	0.08973
3808.91479	0.09041
3806.98623	0.09226
3805.05767	0.09449
3803.12910	0.09639
3801.20054	0.09886
3799.27197	0.10096
3797.34341	0.10152
3795.41484	0.10201
3793.48628	0.10234
3791.55771	0.10253
3789.62915	0.10329
3787.70059	0.10456
3785.77202	0.10609
3783.84346	0.10774
3781.91489	0.10948
3779.98633	0.11144
3778.05776	0.11327
3776.12920	0.11445
3774.20063	0.11543
3772.27207	0.11671
3770.34351	0.11874
3768.41494	0.12144
3766.48638	0.12369
3764.55781	0.12564
3762.62925	0.12729
3760.70068	0.12890
3758.77212	0.13157
3756.84355	0.13453
3754.91499	0.13636
3752.98643	0.13821
3751.05786	0.14194
3749.12930	0.14734
3747.20073	0.15086
3745.27217	0.15272
3743.34360	0.15578
3741.41504	0.16005
3739.48647	0.16381
3737.55791	0.16781
3735.62935	0.17387
3733.70078	0.18149
3731.77222	0.18667
3729.84365	0.19004
3727.91509	0.19402
3725.98652	0.19972
3724.05796	0.20651
3722.12939	0.21310
3720.20083	0.21939
3718.27227	0.22533
3716.34370	0.23132
3714.41514	0.23803
3712.48657	0.24767
3710.55801	0.26275
3708.62944	0.27819
3706.70088	0.28932
3704.77231	0.29980
3702.84375	0.31272
3700.91519	0.32981
3698.98662	0.34855
3697.05806	0.36621
3695.12949	0.38478
3693.20093	0.40451
3691.27236	0.42600
3689.34380	0.45373
3687.41523	0.48819
3685.48667	0.51929
3683.55811	0.54601
3681.62954	0.57403
3679.70098	0.60562
3677.77241	0.63938
3675.84385	0.67939
3673.91528	0.73301
3671.98672	0.77691
3670.05815	0.81564
3668.12959	0.86929
3666.20103	0.91884
3664.27246	0.96014
3662.34390	1.00404
3660.41533	1.05119
3658.48677	1.09767
3656.55820	1.14736
3654.62964	1.20343
3652.70107	1.25110
3650.77251	1.29196
3648.84395	1.34763
3646.91538	1.41709
3644.98682	1.46792
3643.05825	1.50633
3641.12969	1.54613
3639.20112	1.59071
3637.27256	1.63613
3635.34399	1.68048
3633.41543	1.72440
3631.48687	1.76496
3629.55830	1.80599
3627.62974	1.86045
3625.70117	1.91136
3623.77261	1.94527
3621.84404	1.97789
3619.91548	2.01613
3617.98691	2.06287
3616.05835	2.10754
3614.12979	2.14503
3612.20122	2.18523
3610.27266	2.22488
3608.34409	2.26437
3606.41553	2.30836
3604.48696	2.34890
3602.55840	2.38330
3600.62983	2.42070
3598.70127	2.46200
3596.77271	2.50259
3594.84414	2.54481
3592.91558	2.58788
3590.98701	2.62658
3589.05845	2.66302
3587.12988	2.70760
3585.20132	2.75613
3583.27275	2.79717
3581.34419	2.83574
3579.41562	2.87691
3577.48706	2.91937
3575.55850	2.96151
3573.62993	3.00573
3571.70137	3.05050
3569.77280	3.09323
3567.84424	3.13704
3565.91567	3.18975
3563.98711	3.24145
3562.05854	3.28290
3560.12998	3.32466
3558.20142	3.37174
3556.27285	3.41908
3554.34429	3.46203
3552.41572	3.50556
3550.48716	3.55220
3548.55859	3.59858
3546.63003	3.64531
3544.70146	3.69504
3542.77290	3.74457
3540.84434	3.79198
3538.91577	3.83870
3536.98721	3.88442
3535.05864	3.93264
3533.13008	3.98307
3531.20151	4.03087
3529.27295	4.07535
3527.34438	4.12357
3525.41582	4.17742
3523.48726	4.23109
3521.55869	4.28319
3519.63013	4.33170
3517.70156	4.37851
3515.77300	4.42634
3513.84443	4.47287
3511.91587	4.51973
3509.98730	4.57292
3508.05874	4.62993
3506.13018	4.67941
3504.20161	4.71944
3502.27305	4.76155
3500.34448	4.81031
3498.41592	4.86145
3496.48735	4.91695
3494.55879	4.97368
3492.63022	5.02209
3490.70166	5.06136
3488.77310	5.10178
3486.84453	5.15295
3484.91597	5.21321
3482.98740	5.27169
3481.05884	5.31953
3479.13027	5.36231
3477.20171	5.41302
3475.27314	5.46671
3473.34458	5.51094
3471.41602	5.54514
3469.48745	5.57939
3467.55889	5.63345
3465.63032	5.70847
3463.70176	5.77586
3461.77319	5.82076
3459.84463	5.86145
3457.91606	5.91110
3455.98750	5.96673
3454.05894	6.02470
3452.13037	6.08515
3450.20181	6.15358
3448.27324	6.22177
3446.34468	6.26976
3444.41611	6.30703
3442.48755	6.36812
3440.55898	6.43473
3438.63042	6.46449
3436.70186	6.47830
3434.77329	6.52349
3432.84473	6.59354
3430.91616	6.65678
3428.98760	6.72325
3427.05903	6.79662
3425.13047	6.86809
3423.20190	6.93495
3421.27334	6.98624
3419.34478	7.01313
3417.41621	7.02944
3415.48765	7.05868
3413.55908	7.10580
3411.63052	7.14089
3409.70195	7.14299
3407.77339	7.16550
3405.84482	7.22631
3403.91626	7.30698
3401.98770	7.41230
3400.05913	7.52252
3398.13057	7.58728
3396.20200	7.60851
3394.27344	7.65031
3392.34487	7.71379
3390.41631	7.76815
3388.48774	7.80165
3386.55918	7.82737
3384.63062	7.86156
3382.70205	7.90661
3380.77349	7.95089
3378.84492	7.97467
3376.91636	7.95750
3374.98779	7.92662
3373.05923	7.93066
3371.13066	7.95055
3369.20210	7.98048
3367.27354	7.98200
3365.34497	8.00941
3363.41641	8.13320
3361.48784	8.26197
3359.55928	8.37415
3357.63071	8.42796
3355.70215	8.31880
3353.77358	8.12851
3351.84502	8.05732
3349.91646	8.18331
3347.98789	8.37897
3346.05933	8.43330
3344.13076	8.42464
3342.20220	8.47436
3340.27363	8.47936
3338.34507	8.46504
3336.41650	8.46480
3334.48794	8.46375
3332.55937	8.45517
3330.63081	8.42932
3328.70225	8.45091
3326.77368	8.49860
3324.84512	8.50933
3322.91655	8.53812
3320.98799	8.56450
3319.05942	8.48249
3317.13086	8.36550
3315.20229	8.32041
3313.27373	8.39134
3311.34517	8.51265
3309.41660	8.58353
3307.48804	8.58309
3305.55947	8.51113
3303.63091	8.45869
3301.70234	8.49322
3299.77378	8.60981
3297.84521	8.69580
3295.91665	8.65124
3293.98809	8.60065
3292.05952	8.64203
3290.13096	8.66124
3288.20239	8.61685
3286.27383	8.65331
3284.34526	8.78847
3282.41670	8.81052
3280.48813	8.66851
3278.55957	8.70160
3276.63101	8.87567
3274.70244	8.86237
3272.77388	8.80869
3270.84531	8.80834
3268.91675	8.76293
3266.98818	8.77106
3265.05962	8.81541
3263.13105	8.72437
3261.20249	8.62784
3259.27393	8.63415
3257.34536	8.66278
3255.41680	8.68043
3253.48823	8.70543
3251.55967	8.72247
3249.63110	8.61138
3247.70254	8.46254
3245.77397	8.51321
3243.84541	8.71696
3241.91685	8.81164
3239.98828	8.78216
3238.05972	8.69487
3236.13115	8.53572
3234.20259	8.40654
3232.27402	8.39680
3230.34546	8.48854
3228.41689	8.56355
3226.48833	8.58665
3224.55977	8.57219
3222.63120	8.47160
3220.70264	8.35502
3218.77407	8.31833
3216.84551	8.34900
3214.91694	8.39497
3212.98838	8.46934
3211.05981	8.54657
3209.13125	8.46259
3207.20269	8.26116
3205.27412	8.16726
3203.34556	8.21953
3201.41699	8.25786
3199.48843	8.18550
3197.55986	8.11238
3195.63130	8.08117
3193.70273	8.05108
3191.77417	7.99599
3189.84561	7.88274
3187.91704	7.76813
3185.98848	7.74625
3184.05991	7.81195
3182.13135	7.84839
3180.20278	7.75575
3178.27422	7.60292
3176.34565	7.50603
3174.41709	7.48647
3172.48853	7.48435
3170.55996	7.43286
3168.63140	7.35090
3166.70283	7.26871
3164.77427	7.16523
3162.84570	7.06313
3160.91714	6.99302
3158.98857	6.93313
3157.06001	6.85688
3155.13145	6.76922
3153.20288	6.69445
3151.27432	6.64061
3149.34575	6.57632
3147.41719	6.48459
3145.48862	6.40385
3143.56006	6.34928
3141.63149	6.28280
3139.70293	6.19290
3137.77437	6.10738
3135.84580	6.03404
3133.91724	5.96472
3131.98867	5.88917
3130.06011	5.80830
3128.13154	5.74035
3126.20298	5.68478
3124.27441	5.61930
3122.34585	5.53837
3120.41729	5.45943
3118.48872	5.38779
3116.56016	5.31606
3114.63159	5.24028
3112.70303	5.15836
3110.77446	5.07399
3108.84590	4.99723
3106.91733	4.93159
3104.98877	4.86988
3103.06021	4.80588
3101.13164	4.73388
3099.20308	4.65690
3097.27451	4.58423
3095.34595	4.51470
3093.41738	4.44490
3091.48882	4.37610
3089.56025	4.31155
3087.63169	4.25160
3085.70312	4.19269
3083.77456	4.12992
3081.84600	4.06219
3079.91743	3.99578
3077.98887	3.93419
3076.06030	3.87340
3074.13174	3.81049
3072.20317	3.74732
3070.27461	3.68721
3068.34604	3.63076
3066.41748	3.57474
3064.48892	3.51621
3062.56035	3.45634
3060.63179	3.39778
3058.70322	3.34090
3056.77466	3.28533
3054.84609	3.23098
3052.91753	3.17774
3050.98896	3.12535
3049.06040	3.07223
3047.13184	3.01874
3045.20327	2.96706
3043.27471	2.91670
3041.34614	2.86664
3039.41758	2.81741
3037.48901	2.76942
3035.56045	2.72275
3033.63188	2.67738
3031.70332	2.63210
3029.77476	2.58567
3027.84619	2.53933
3025.91763	2.49468
3023.98906	2.45127
3022.06050	2.40882
3020.13193	2.36767
3018.20337	2.32690
3016.27480	2.28585
3014.34624	2.24528
3012.41768	2.20499
3010.48911	2.16441
3008.56055	2.12443
3006.63198	2.08627
3004.70342	2.04969
3002.77485	2.01360
3000.84629	1.97800
2998.91772	1.94340
2996.98916	1.90908
2995.06060	1.87467
2993.13203	1.84102
2991.20347	1.80872
2989.27490	1.77754
2987.34634	1.74683
2985.41777	1.71630
2983.48921	1.68638
2981.56064	1.65700
2979.63208	1.62761
2977.70352	1.59869
2975.77495	1.57069
2973.84639	1.54334
2971.91782	1.51654
2969.98926	1.49045
2968.06069	1.46510
2966.13213	1.43997
2964.20356	1.41460
2962.27500	1.38901
2960.34644	1.36350
2958.41787	1.33873
2956.48931	1.31494
2954.56074	1.29173
2952.63218	1.26834
2950.70361	1.24486
2948.77505	1.22191
2946.84648	1.19931
2944.91792	1.17727
2942.98936	1.15617
2941.06079	1.13559
2939.13223	1.11504
2937.20366	1.09442
2935.27510	1.07406
2933.34653	1.05458
2931.41797	1.03597
2929.48940	1.01740
2927.56084	0.99836
2925.63228	0.97949
2923.70371	0.96151
2921.77515	0.94410
2919.84658	0.92678
2917.91802	0.90995
2915.98945	0.89390
2914.06089	0.87805
2912.13232	0.86214
2910.20376	0.84637
2908.27520	0.83088
2906.34663	0.81605
2904.41807	0.80187
2902.48950	0.78798
2900.56094	0.77416
2898.63237	0.76021
2896.70381	0.74631
2894.77524	0.73306
2892.84668	0.72079
2890.91812	0.70916
2888.98955	0.69743
2887.06099	0.68555
2885.13242	0.67408
2883.20386	0.66310
2881.27529	0.65241
2879.34673	0.64196
2877.41816	0.63168
2875.48960	0.62140
2873.56104	0.61073
2871.63247	0.59996
2869.70391	0.58968
2867.77534	0.57949
2865.84678	0.56888
2863.91821	0.55839
2861.98965	0.54850
2860.06108	0.53870
2858.13252	0.52862
2856.20396	0.51872
2854.27539	0.50979
2852.34683	0.50153
2850.41826	0.49330
2848.48970	0.48535
2846.56113	0.47785
2844.63257	0.47044
2842.70400	0.46313
2840.77544	0.45620
2838.84687	0.44947
2836.91831	0.44284
2834.98975	0.43651
2833.06118	0.43045
2831.13262	0.42443
2829.20405	0.41832
2827.27549	0.41214
2825.34692	0.40595
2823.41836	0.39972
2821.48979	0.39357
2819.56123	0.38774
2817.63267	0.38223
2815.70410	0.37687
2813.77554	0.37136
2811.84697	0.36563
2809.91841	0.36006
2807.98984	0.35472
2806.06128	0.34950
2804.13271	0.34458
2802.20415	0.33982
2800.27559	0.33484
2798.34702	0.32980
2796.41846	0.32496
2794.48989	0.32028
2792.56133	0.31576
2790.63276	0.31141
2788.70420	0.30723
2786.77563	0.30318
2784.84707	0.29916
2782.91851	0.29515
2780.98994	0.29104
2779.06138	0.28699
2777.13281	0.28320
2775.20425	0.27948
2773.27568	0.27571
2771.34712	0.27199
2769.41855	0.26846
2767.48999	0.26510
2765.56143	0.26184
2763.63286	0.25865
2761.70430	0.25540
2759.77573	0.25209
2757.84717	0.24893
2755.91860	0.24595
2753.99004	0.24300
2752.06147	0.24000
2750.13291	0.23702
2748.20435	0.23422
2746.27578	0.23161
2744.34722	0.22911
2742.41865	0.22652
2740.49009	0.22389
2738.56152	0.22150
2736.63296	0.21920
2734.70439	0.21680
2732.77583	0.21442
2730.84727	0.21219
2728.91870	0.21001
2726.99014	0.20784
2725.06157	0.20578
2723.13301	0.20386
2721.20444	0.20193
2719.27588	0.19978
2717.34731	0.19758
2715.41875	0.19564
2713.49019	0.19396
2711.56162	0.19218
2709.63306	0.19026
2707.70449	0.18845
2705.77593	0.18690
2703.84736	0.18550
2701.91880	0.18398
2699.99023	0.18233
2698.06167	0.18082
2696.13311	0.17943
2694.20454	0.17796
2692.27598	0.17648
2690.34741	0.17519
2688.41885	0.17402
2686.49028	0.17280
2684.56172	0.17161
2682.63315	0.17054
2680.70459	0.16956
2678.77603	0.16863
2676.84746	0.16769
2674.91890	0.16661
2672.99033	0.16544
2671.06177	0.16439
2669.13320	0.16347
2667.20464	0.16250
2665.27607	0.16151
2663.34751	0.16053
2661.41895	0.15957
2659.49038	0.15876
2657.56182	0.15816
2655.63325	0.15763
2653.70469	0.15705
2651.77612	0.15641
2649.84756	0.15572
2647.91899	0.15511
2645.99043	0.15466
2644.06187	0.15424
2642.13330	0.15376
2640.20474	0.15326
2638.27617	0.15271
2636.34761	0.15217
2634.41904	0.15168
2632.49048	0.15125
2630.56191	0.15086
2628.63335	0.15058
2626.70479	0.15032
2624.77622	0.14999
2622.84766	0.14977
2620.91909	0.14969
2618.99053	0.14962
2617.06196	0.14950
2615.13340	0.14938
2613.20483	0.14927
2611.27627	0.14910
2609.34771	0.14889
2607.41914	0.14881
2605.49058	0.14884
2603.56201	0.14879
2601.63345	0.14876
2599.70488	0.14893
2597.77632	0.14919
2595.84775	0.14937
2593.91919	0.14943
2591.99062	0.14943
2590.06206	0.14955
2588.13350	0.14982
2586.20493	0.15013
2584.27637	0.15045
2582.34780	0.15072
2580.41924	0.15092
2578.49067	0.15122
2576.56211	0.15169
2574.63354	0.15219
2572.70498	0.15263
2570.77642	0.15301
2568.84785	0.15336
2566.91929	0.15376
2564.99072	0.15423
2563.06216	0.15476
2561.13359	0.15540
2559.20503	0.15605
2557.27646	0.15662
2555.34790	0.15718
2553.41934	0.15778
2551.49077	0.15823
2549.56221	0.15860
2547.63364	0.15914
2545.70508	0.15985
2543.77651	0.16048
2541.84795	0.16090
2539.91938	0.16142
2537.99082	0.16218
2536.06226	0.16301
2534.13369	0.16388
2532.20513	0.16474
2530.27656	0.16541
2528.34800	0.16594
2526.41943	0.16666
2524.49087	0.16757
2522.56230	0.16838
2520.63374	0.16917
2518.70518	0.17005
2516.77661	0.17086
2514.84805	0.17163
2512.91948	0.17253
2510.99092	0.17341
2509.06235	0.17417
2507.13379	0.17499
2505.20522	0.17598
2503.27666	0.17696
2501.34810	0.17787
2499.41953	0.17882
2497.49097	0.17986
2495.56240	0.18085
2493.63384	0.18169
2491.70527	0.18243
2489.77671	0.18322
2487.84814	0.18402
2485.91958	0.18490
2483.99102	0.18593
2482.06245	0.18696
2480.13389	0.18783
2478.20532	0.18860
2476.27676	0.18948
2474.34819	0.19042
2472.41963	0.19134
2470.49106	0.19239
2468.56250	0.19348
2466.63394	0.19445
2464.70537	0.19535
2462.77681	0.19630
2460.84824	0.19745
2458.91968	0.19862
2456.99111	0.19952
2455.06255	0.20034
2453.13398	0.20138
2451.20542	0.20255
2449.27686	0.20368
2447.34829	0.20474
2445.41973	0.20577
2443.49116	0.20680
2441.56260	0.20782
2439.63403	0.20880
2437.70547	0.20980
2435.77690	0.21095
2433.84834	0.21210
2431.91978	0.21313
2429.99121	0.21424
2428.06265	0.21546
2426.13408	0.21659
2424.20552	0.21768
2422.27695	0.21880
2420.34839	0.21992
2418.41982	0.22109
2416.49126	0.22223
2414.56270	0.22330
2412.63413	0.22440
2410.70557	0.22563
2408.77700	0.22700
2406.84844	0.22845
2404.91987	0.22984
2402.99131	0.23112
2401.06274	0.23234
2399.13418	0.23350
2397.20562	0.23460
2395.27705	0.23572
2393.34849	0.23699
2391.41992	0.23838
2389.49136	0.23988
2387.56279	0.24164
2385.63423	0.24388
2383.70566	0.24692
2381.77710	0.25075
2379.84854	0.25513
2377.91997	0.26020
2375.99141	0.26622
2374.06284	0.27306
2372.13428	0.28055
2370.20571	0.28871
2368.27715	0.29712
2366.34858	0.30510
2364.42002	0.31164
2362.49146	0.31655
2360.56289	0.32053
2358.63433	0.32234
2356.70576	0.32072
2354.77720	0.31623
2352.84863	0.31046
2350.92007	0.30488
2348.99150	0.30169
2347.06294	0.30243
2345.13437	0.30737
2343.20581	0.31452
2341.27725	0.31995
2339.34868	0.32226
2337.42012	0.32238
2335.49155	0.32221
2333.56299	0.32256
2331.63442	0.32333
2329.70586	0.32419
2327.77729	0.32466
2325.84873	0.32438
2323.92017	0.32350
2321.99160	0.32261
2320.06304	0.32169
2318.13447	0.32046
2316.20591	0.31942
2314.27734	0.31925
2312.34878	0.31975
2310.42021	0.32014
2308.49165	0.32022
2306.56309	0.32022
2304.63452	0.32036
2302.70596	0.32096
2300.77739	0.32207
2298.84883	0.32331
2296.92026	0.32438
2294.99170	0.32534
2293.06313	0.32651
2291.13457	0.32799
2289.20601	0.32943
2287.27744	0.33060
2285.34888	0.33178
2283.42031	0.33333
2281.49175	0.33524
2279.56318	0.33733
2277.63462	0.33955
2275.70605	0.34193
2273.77749	0.34428
2271.84893	0.34640
2269.92036	0.34838
2267.99180	0.35039
2266.06323	0.35246
2264.13467	0.35461
2262.20610	0.35683
2260.27754	0.35903
2258.34897	0.36112
2256.42041	0.36311
2254.49185	0.36508
2252.56328	0.36710
2250.63472	0.36930
2248.70615	0.37158
2246.77759	0.37368
2244.84902	0.37569
2242.92046	0.37792
2240.99189	0.38035
2239.06333	0.38269
2237.13477	0.38489
2235.20620	0.38704
2233.27764	0.38923
2231.34907	0.39155
2229.42051	0.39392
2227.49194	0.39619
2225.56338	0.39839
2223.63481	0.40064
2221.70625	0.40285
2219.77769	0.40505
2217.84912	0.40733
2215.92056	0.40969
2213.99199	0.41200
2212.06343	0.41430
2210.13486	0.41655
2208.20630	0.41872
2206.27773	0.42085
2204.34917	0.42294
2202.42061	0.42505
2200.49204	0.42725
2198.56348	0.42930
2196.63491	0.43116
2194.70635	0.43309
2192.77778	0.43514
2190.84922	0.43712
2188.92065	0.43899
2186.99209	0.44090
2185.06353	0.44280
2183.13496	0.44455
2181.20640	0.44618
2179.27783	0.44778
2177.34927	0.44949
2175.42070	0.45128
2173.49214	0.45292
2171.56357	0.45429
2169.63501	0.45548
2167.70645	0.45674
2165.77788	0.45812
2163.84932	0.45940
2161.92075	0.46061
2159.99219	0.46188
2158.06362	0.46304
2156.13506	0.46397
2154.20649	0.46477
2152.27793	0.46556
2150.34937	0.46635
2148.42080	0.46702
2146.49224	0.46756
2144.56367	0.46801
2142.63511	0.46834
2140.70654	0.46864
2138.77798	0.46900
2136.84941	0.46926
2134.92085	0.46927
2132.99229	0.46918
2131.06372	0.46910
2129.13516	0.46895
2127.20659	0.46857
2125.27803	0.46805
2123.34946	0.46762
2121.42090	0.46724
2119.49233	0.46667
2117.56377	0.46594
2115.63521	0.46515
2113.70664	0.46430
2111.77808	0.46340
2109.84951	0.46241
2107.92095	0.46139
2105.99238	0.46037
2104.06382	0.45929
2102.13525	0.45795
2100.20669	0.45635
2098.27812	0.45474
2096.34956	0.45317
2094.42100	0.45152
2092.49243	0.44982
2090.56387	0.44819
2088.63530	0.44653
2086.70674	0.44478
2084.77817	0.44280
2082.84961	0.44066
2080.92104	0.43864
2078.99248	0.43671
2077.06392	0.43465
2075.13535	0.43234
2073.20679	0.42995
2071.27822	0.42764
2069.34966	0.42540
2067.42109	0.42315
2065.49253	0.42082
2063.56396	0.41829
2061.63540	0.41561
2059.70684	0.41294
2057.77827	0.41034
2055.84971	0.40772
2053.92114	0.40501
2051.99258	0.40227
2050.06401	0.39952
2048.13545	0.39684
2046.20688	0.39420
2044.27832	0.39152
2042.34976	0.38876
2040.42119	0.38599
2038.49263	0.38329
2036.56406	0.38052
2034.63550	0.37762
2032.70693	0.37463
2030.77837	0.37160
2028.84980	0.36864
2026.92124	0.36588
2024.99268	0.36323
2023.06411	0.36040
2021.13555	0.35740
2019.20698	0.35459
2017.27842	0.35198
2015.34985	0.34920
2013.42129	0.34618
2011.49272	0.34317
2009.56416	0.34040
2007.63560	0.33772
2005.70703	0.33498
2003.77847	0.33221
2001.84990	0.32941
1999.92134	0.32662
1997.99277	0.32393
1996.06421	0.32139
1994.13564	0.31904
1992.20708	0.31675
1990.27852	0.31418
1988.34995	0.31136
1986.42139	0.30864
1984.49282	0.30617
1982.56426	0.30384
1980.63569	0.30152
1978.70713	0.29916
1976.77856	0.29674
1974.85000	0.29443
1972.92144	0.29230
1970.99287	0.29022
1969.06431	0.28816
1967.13574	0.28613
1965.20718	0.28398
1963.27861	0.28182
1961.35005	0.27983
1959.42148	0.27794
1957.49292	0.27607
1955.56436	0.27431
1953.63579	0.27263
1951.70723	0.27086
1949.77866	0.26908
1947.85010	0.26738
1945.92153	0.26585
1943.99297	0.26461
1942.06440	0.26337
1940.13584	0.26174
1938.20728	0.26002
1936.27871	0.25856
1934.35015	0.25731
1932.42158	0.25612
1930.49302	0.25486
1928.56445	0.25359
1926.63589	0.25246
1924.70732	0.25153
1922.77876	0.25065
1920.85020	0.24972
1918.92163	0.24891
1916.99307	0.24812
1915.06450	0.24711
1913.13594	0.24604
1911.20737	0.24519
1909.27881	0.24451
1907.35024	0.24383
1905.42168	0.24306
1903.49312	0.24243
1901.56455	0.24197
1899.63599	0.24157
1897.70742	0.24131
1895.77886	0.24106
1893.85029	0.24056
1891.92173	0.24001
1889.99316	0.23980
1888.06460	0.23962
1886.13604	0.23934
1884.20747	0.23909
1882.27891	0.23883
1880.35034	0.23867
1878.42178	0.23862
1876.49321	0.23864
1874.56465	0.23866
1872.63608	0.23880
1870.70752	0.23917
1868.77896	0.23985
1866.85039	0.24024
1864.92183	0.24007
1862.99326	0.23996
1861.06470	0.24014
1859.13613	0.24051
1857.20757	0.24090
1855.27900	0.24141
1853.35044	0.24193
1851.42187	0.24242
1849.49331	0.24298
1847.56475	0.24378
1845.63618	0.24483
1843.70762	0.24599
1841.77905	0.24670
1839.85049	0.24698
1837.92192	0.24762
1835.99336	0.24856
1834.06479	0.24959
1832.13623	0.25078
1830.20767	0.25241
1828.27910	0.25394
1826.35054	0.25489
1824.42197	0.25605
1822.49341	0.25726
1820.56484	0.25841
1818.63628	0.25979
1816.70771	0.26155
1814.77915	0.26338
1812.85059	0.26534
1810.92202	0.26758
1808.99346	0.26973
1807.06489	0.27161
1805.13633	0.27343
1803.20776	0.27566
1801.27920	0.27837
1799.35063	0.28138
1797.42207	0.28400
1795.49351	0.28648
1793.56494	0.28943
1791.63638	0.29315
1789.70781	0.29657
1787.77925	0.29914
1785.85068	0.30232
1783.92212	0.30619
1781.99355	0.31034
1780.06499	0.31468
1778.13643	0.31906
1776.20786	0.32322
1774.27930	0.32782
1772.35073	0.33403
1770.42217	0.34049
1768.49360	0.34578
1766.56504	0.35099
1764.63647	0.35644
1762.70791	0.36252
1760.77935	0.37024
1758.85078	0.37750
1756.92222	0.38485
1754.99365	0.39294
1753.06509	0.40032
1751.13652	0.40903
1749.20796	0.41993
1747.27939	0.43060
1745.35083	0.44000
1743.42227	0.45011
1741.49370	0.46141
1739.56514	0.47455
1737.63657	0.48736
1735.70801	0.49847
1733.77944	0.51540
1731.85088	0.53570
1729.92231	0.55169
1727.99375	0.56789
1726.06519	0.58515
1724.13662	0.60394
1722.20806	0.62440
1720.27949	0.64334
1718.35093	0.66541
1716.42236	0.69816
1714.49380	0.72945
1712.56523	0.75467
1710.63667	0.77901
1708.70811	0.80519
1706.77954	0.83478
1704.85098	0.86990
1702.92241	0.90133
1700.99385	0.93283
1699.06528	0.97977
1697.13672	1.02247
1695.20815	1.06572
1693.27959	1.10749
1691.35103	1.14110
1689.42246	1.18004
1687.49390	1.22120
1685.56533	1.26070
1683.63677	1.32089
1681.70820	1.38297
1679.77964	1.42278
1677.85107	1.46079
1675.92251	1.50433
1673.99395	1.55768
1672.06538	1.60526
1670.13682	1.65305
1668.20825	1.71482
1666.27969	1.76358
1664.35112	1.80452
1662.42256	1.85545
1660.49399	1.91155
1658.56543	1.95546
1656.63687	1.99203
1654.70830	2.02730
1652.77974	2.08645
1650.85117	2.14152
1648.92261	2.16085
1646.99404	2.18679
1645.06548	2.21419
1643.13691	2.23059
1641.20835	2.24107
1639.27979	2.25199
1637.35122	2.26005
1635.42266	2.25994
1633.49409	2.24989
1631.56553	2.23521
1629.63696	2.21902
1627.70840	2.19389
1625.77983	2.16451
1623.85127	2.12664
1621.92271	2.07889
1619.99414	2.03568
1618.06558	1.99302
1616.13701	1.93152
1614.20845	1.86870
1612.27988	1.82117
1610.35132	1.77216
1608.42275	1.71893
1606.49419	1.66570
1604.56562	1.61661
1602.63706	1.56937
1600.70850	1.52251
1598.77993	1.47857
1596.85137	1.43720
1594.92280	1.39725
1592.99424	1.35853
1591.06567	1.32302
1589.13711	1.29003
1587.20854	1.25929
1585.27998	1.23056
1583.35142	1.20357
1581.42285	1.17904
1579.49429	1.15800
1577.56572	1.13894
1575.63716	1.11536
1573.70859	1.09399
1571.78003	1.08002
1569.85146	1.06533
1567.92290	1.04833
1565.99434	1.03515
1564.06577	1.02478
1562.13721	1.01656
1560.20864	1.01043
1558.28008	1.00070
1556.35151	0.99103
1554.42295	0.98491
1552.49438	0.97903
1550.56582	0.97273
1548.63726	0.96538
1546.70869	0.95785
1544.78013	0.94949
1542.85156	0.93924
1540.92300	0.92572
1538.99443	0.90595
1537.06587	0.89143
1535.13730	0.88190
1533.20874	0.86967
1531.28018	0.85611
1529.35161	0.84604
1527.42305	0.83680
1525.49448	0.82724
1523.56592	0.81885
1521.63735	0.81071
1519.70879	0.80235
1517.78022	0.79523
1515.85166	0.78699
1513.92310	0.77831
1511.99453	0.77123
1510.06597	0.76542
1508.13740	0.76007
1506.20884	0.75042
1504.28027	0.74074
1502.35171	0.73532
1500.42314	0.73102
1498.49458	0.72665
1496.56602	0.72114
1494.63745	0.71512
1492.70889	0.71051
1490.78032	0.70701
1488.85176	0.70309
1486.92319	0.69857
1484.99463	0.69442
1483.06606	0.69107
1481.13750	0.68830
1479.20894	0.68602
1477.28037	0.68427
1475.35181	0.68280
1473.42324	0.68141
1471.49468	0.67919
1469.56611	0.67633
1467.63755	0.67386
1465.70898	0.67190
1463.78042	0.67019
1461.85186	0.66865
1459.92329	0.66758
1457.99473	0.66700
1456.06616	0.66586
1454.13760	0.66351
1452.20903	0.66121
1450.28047	0.65908
1448.35190	0.65693
1446.42334	0.65447
1444.49478	0.65202
1442.56621	0.64989
1440.63765	0.64796
1438.70908	0.64618
1436.78052	0.64402
1434.85195	0.64131
1432.92339	0.63899
1430.99482	0.63728
1429.06626	0.63578
1427.13770	0.63453
1425.20913	0.63384
1423.28057	0.63350
1421.35200	0.63302
1419.42344	0.63259
1417.49487	0.63185
1415.56631	0.63022
1413.63774	0.62859
1411.70918	0.62756
1409.78062	0.62710
1407.85205	0.62686
1405.92349	0.62669
1403.99492	0.62639
1402.06636	0.62572
1400.13779	0.62489
1398.20923	0.62384
1396.28066	0.62224
1394.35210	0.61983
1392.42354	0.61696
1390.49497	0.61447
1388.56641	0.61231
1386.63784	0.60971
1384.70928	0.60656
1382.78071	0.60366
1380.85215	0.60118
1378.92358	0.59906
1376.99502	0.59747
1375.06646	0.59644
1373.13789	0.59539
1371.20933	0.59412
1369.28076	0.59308
1367.35220	0.59209
1365.42363	0.59087
1363.49507	0.58969
1361.56650	0.58857
1359.63794	0.58723
1357.70937	0.58590
1355.78081	0.58476
1353.85225	0.58369
1351.92368	0.58272
1349.99512	0.58204
1348.06655	0.58145
1346.13799	0.58054
1344.20942	0.57940
1342.28086	0.57848
1340.35229	0.57790
1338.42373	0.57724
1336.49517	0.57629
1334.56660	0.57537
1332.63804	0.57471
1330.70947	0.57431
1328.78091	0.57403
1326.85234	0.57373
1324.92378	0.57349
1322.99521	0.57340
1321.06665	0.57335
1319.13809	0.57316
1317.20952	0.57277
1315.28096	0.57219
1313.35239	0.57148
1311.42383	0.57073
1309.49526	0.56997
1307.56670	0.56916
1305.63813	0.56838
1303.70957	0.56772
1301.78101	0.56717
1299.85244	0.56656
1297.92388	0.56575
1295.99531	0.56482
1294.06675	0.56398
1292.13818	0.56320
1290.20962	0.56240
1288.28105	0.56155
1286.35249	0.56054
1284.42393	0.55955
1282.49536	0.55878
1280.56680	0.55802
1278.63823	0.55710
1276.70967	0.55617
1274.78110	0.55528
1272.85254	0.55461
1270.92397	0.55416
1268.99541	0.55355
1267.06685	0.55289
1265.13828	0.55241
1263.20972	0.55185
1261.28115	0.55121
1259.35259	0.55072
1257.42402	0.55035
1255.49546	0.55004
1253.56689	0.54979
1251.63833	0.54954
1249.70977	0.54918
1247.78120	0.54874
1245.85264	0.54833
1243.92407	0.54787
1241.99551	0.54721
1240.06694	0.54638
1238.13838	0.54545
1236.20981	0.54432
1234.28125	0.54298
1232.35269	0.54161
1230.42412	0.54032
1228.49556	0.53907
1226.56699	0.53785
1224.63843	0.53669
1222.70986	0.53568
1220.78130	0.53469
1218.85273	0.53356
1216.92417	0.53248
1214.99561	0.53170
1213.06704	0.53117
1211.13848	0.53057
1209.20991	0.52978
1207.28135	0.52906
1205.35278	0.52834
1203.42422	0.52744
1201.49565	0.52665
1199.56709	0.52615
1197.63853	0.52561
1195.70996	0.52489
1193.78140	0.52420
1191.85283	0.52366
1189.92427	0.52329
1187.99570	0.52294
1186.06714	0.52264
1184.13857	0.52272
1182.21001	0.52312
1180.28145	0.52352
1178.35288	0.52386
1176.42432	0.52427
1174.49575	0.52481
1172.56719	0.52541
1170.63862	0.52582
1168.71006	0.52607
1166.78149	0.52638
1164.85293	0.52664
1162.92437	0.52673
1160.99580	0.52660
1159.06724	0.52621
1157.13867	0.52573
1155.21011	0.52522
1153.28154	0.52428
1151.35298	0.52273
1149.42441	0.52076
1147.49585	0.51861
1145.56729	0.51642
1143.63872	0.51419
1141.71016	0.51200
1139.78159	0.50997
1137.85303	0.50814
1135.92446	0.50656
1133.99590	0.50533
1132.06733	0.50413
1130.13877	0.50280
1128.21021	0.50169
1126.28164	0.50095
1124.35308	0.50025
1122.42451	0.49941
1120.49595	0.49860
1118.56738	0.49812
1116.63882	0.49803
1114.71025	0.49812
1112.78169	0.49838
1110.85312	0.49881
1108.92456	0.49935
1106.99600	0.50026
1105.06743	0.50152
1103.13887	0.50281
1101.21030	0.50430
1099.28174	0.50624
1097.35317	0.50883
1095.42461	0.51200
1093.49604	0.51552
1091.56748	0.51968
1089.63892	0.52495
1087.71035	0.53134
1085.78179	0.53855
1083.85322	0.54632
1081.92466	0.55388
1079.99609	0.55981
1078.06753	0.56314
1076.13896	0.56374
1074.21040	0.56165
1072.28184	0.55713
1070.35327	0.55072
1068.42471	0.54330
1066.49614	0.53600
1064.56758	0.52952
1062.63901	0.52383
1060.71045	0.51859
1058.78188	0.51387
1056.85332	0.50988
1054.92476	0.50646
1052.99619	0.50355
1051.06763	0.50121
1049.13906	0.49932
1047.21050	0.49769
1045.28193	0.49639
1043.35337	0.49548
1041.42480	0.49502
1039.49624	0.49479
1037.56768	0.49440
1035.63911	0.49385
1033.71055	0.49339
1031.78198	0.49312
1029.85342	0.49284
1027.92485	0.49242
1025.99629	0.49203
1024.06772	0.49191
1022.13916	0.49188
1020.21060	0.49183
1018.28203	0.49210
1016.35347	0.49271
1014.42490	0.49346
1012.49634	0.49434
1010.56777	0.49524
1008.63921	0.49612
1006.71064	0.49723
1004.78208	0.49872
1002.85352	0.50069
1000.92495	0.50342
998.99639	0.50693
997.06782	0.51077
995.13926	0.51468
993.21069	0.51859
991.28213	0.52204
989.35356	0.52445
987.42500	0.52582
985.49644	0.52651
983.56787	0.52712
981.63931	0.52805
979.71074	0.52935
977.78218	0.53118
975.85361	0.53352
973.92505	0.53610
971.99648	0.53900
970.06792	0.54237
968.13936	0.54616
966.21079	0.55044
964.28223	0.55514
962.35366	0.56006
960.42510	0.56523
958.49653	0.57086
956.56797	0.57683
954.63940	0.58290
952.71084	0.58903
950.78228	0.59547
948.85371	0.60237
946.92515	0.60938
944.99658	0.61608
943.06802	0.62233
941.13945	0.62836
939.21089	0.63410
937.28232	0.63955
935.35376	0.64526
933.42520	0.65074
931.49663	0.65580
929.56807	0.66157
927.63950	0.66804
925.71094	0.67483
923.78237	0.68203
921.85381	0.68916
919.92524	0.69637
917.99668	0.70397
916.06812	0.71121
914.13955	0.71795
912.21099	0.72514
910.28242	0.73311
908.35386	0.74127
906.42529	0.74971
904.49673	0.75899
902.56816	0.76875
900.63960	0.77869
898.71104	0.78884
896.78247	0.79903
894.85391	0.80914
892.92534	0.81987
890.99678	0.83146
889.06821	0.84272
887.13965	0.85432
885.21108	0.86707
883.28252	0.87892
881.35396	0.88931
879.42539	0.90030
877.49683	0.91214
875.56826	0.92285
873.63970	0.93361
871.71113	0.94712
869.78257	0.96039
867.85400	0.97052
865.92544	0.98057
863.99687	0.99251
862.06831	1.00461
860.13975	1.01690
858.21118	1.03032
856.28262	1.04312
854.35405	1.05530
852.42549	1.06827
850.49692	1.08066
848.56836	1.09079
846.63979	1.09972
844.71123	1.11006
842.78267	1.12208
840.85410	1.13520
838.92554	1.14979
836.99697	1.16379
835.06841	1.17463
833.13984	1.18405
831.21128	1.19523
829.28271	1.20937
827.35415	1.22547
825.42559	1.24198
823.49702	1.26062
821.56846	1.27891
819.63989	1.28910
817.71133	1.29631
815.78276	1.31339
813.85420	1.33304
811.92563	1.34740
809.99707	1.36660
808.06851	1.37986
806.13994	1.38812
804.21138	1.42047
802.28281	1.45115
800.35425	1.44731
798.42568	1.45840
796.49712	1.48936
794.56855	1.49256
792.63999	1.50504
790.71143	1.59912
788.78286	1.76813
786.85430	1.82939
784.92573	1.78655
782.99717	1.77177
781.06860	1.74832
779.14004	1.68503
777.21147	1.65322
775.28291	1.61855
773.35435	1.57202
771.42578	1.74377
769.49722	4.61698
767.56865	4.60541
765.64009	4.59384
763.71152	1.82404
761.78296	1.56402
759.85439	1.36360
757.92583	1.28873
755.99727	1.25767
754.06870	1.16764
752.14014	1.09683
750.21157	1.09444
748.28301	1.20186
746.35444	1.51112
744.42588	1.39521
742.49731	0.99759
740.56875	0.90936
738.64019	1.06829
736.71162	1.04589
734.78306	0.75990
732.85449	0.57498
730.92593	0.41218
728.99736	0.19284
727.06880	0.00884
725.14023	-0.08292
723.21167	0.08530
721.28311	-0.02030
719.35454	-0.22604
717.42598	-0.10473
715.49741	0.01528
713.56885	0.11697
711.64028	0.26276
709.71172	0.40521
707.78315	0.39408
705.85459	0.32047
703.92603	0.31267
701.99746	0.33409
700.06890	0.33003
698.14033	0.35766
696.21177	0.41796
694.28320	0.43977
692.35464	0.41353
690.42607	0.39942
688.49751	0.46191
686.56895	0.54716
684.64038	0.50362
682.71182	0.41739
680.78325	0.37862
678.85469	0.34080
676.92612	0.28822
674.99756	0.27060
673.06899	0.29694
671.14043	0.36268
669.21187	0.44646
667.28330	0.45683
665.35474	0.41792
663.42617	0.43007
661.49761	0.44902
659.56904	0.40432
657.64048	0.33728
655.71191	0.29994
653.78335	0.31896
651.85479	0.35723
649.92622	0.36319
647.99766	0.37170
646.06909	0.38713
644.14053	0.36902
642.21196	0.34871
640.28340	0.35760
638.35483	0.37343
636.42627	0.39147
634.49771	0.43957
632.56914	0.48306
630.64058	0.41873
628.71201	0.34416
626.78345	0.31108
624.85488	0.32124
622.92632	0.39723
620.99775	0.44262
619.06919	0.39180
617.14062	0.36668
615.21206	0.36907
613.28350	0.38327
611.35493	0.36934
609.42637	0.28643
607.49780	0.21456
605.56924	0.23788
603.64067	0.31613
601.71211	0.28710
599.78354	0.22965
597.85498	0.22100
595.92642	0.24091
593.99785	0.31073
592.06929	0.39978
590.14072	0.34615
588.21216	0.25147
586.28359	0.22828
584.35503	0.24312
582.42646	0.26443
580.49790	0.29293
578.56934	0.31906
576.64077	0.31749
574.71221	0.27572
572.78364	0.24108
570.85508	0.24091
568.92651	0.25281
566.99795	0.27532
565.06938	0.34404
563.14082	0.42728
561.21226	0.38914
559.28369	0.30639
557.35513	0.30012
555.42656	0.34647
553.49800	0.35338
551.56943	0.31780
549.64087	0.29422
547.71230	0.28552
545.78374	0.30382
543.85518	0.33127
541.92661	0.34734
539.99805	0.36981
538.06948	0.38963
536.14092	0.37152
534.21235	0.33648
532.28379	0.36339
530.35522	0.45071
528.42666	0.44981
526.49810	0.37231
524.56953	0.31151
522.64097	0.27342
520.71240	0.24589
518.78384	0.23873
516.85527	0.25042
514.92671	0.24759
512.99814	0.23788
511.06958	0.23359
509.14102	0.24577
507.21245	0.31068
505.28389	0.38126
503.35532	0.35410
501.42676	0.28262
499.49819	0.28327
