3997.91411	0.06291
3995.98555	0.06300
3994.05698	0.06309
3992.12842	0.06326
3990.19985	0.06376
3988.27129	0.06460
3986.34272	0.06534
3984.41416	0.06571
3982.48560	0.06597
3980.55703	0.06608
3978.62847	0.06589
3976.69990	0.06580
3974.77134	0.06617
3972.84277	0.06681
3970.91421	0.06731
3968.98564	0.06737
3967.05708	0.06729
3965.12852	0.06766
3963.19995	0.06842
3961.27139	0.06871
3959.34282	0.06826
3957.41426	0.06771
3955.48569	0.06749
3953.55713	0.06773
3951.62856	0.06842
3949.70000	0.06932
3947.77144	0.06963
3945.84287	0.06888
3943.91431	0.06834
3941.98574	0.06873
3940.05718	0.06892
3938.12861	0.06865
3936.20005	0.06854
3934.27148	0.06873
3932.34292	0.06885
3930.41436	0.06861
3928.48579	0.06865
3926.55723	0.06909
3924.62866	0.06917
3922.70010	0.06862
3920.77153	0.06809
3918.84297	0.06814
3916.91440	0.06845
3914.98584	0.06821
3913.05728	0.06719
3911.12871	0.06634
3909.20015	0.06658
3907.27158	0.06760
3905.34302	0.06899
3903.41445	0.07051
3901.48589	0.07116
3899.55732	0.07084
3897.62876	0.07001
3895.70020	0.06870
3893.77163	0.06787
3891.84307	0.06818
3889.91450	0.06869
3887.98594	0.06844
3886.05737	0.06861
3884.12881	0.06923
3882.20024	0.06932
3880.27168	0.06969
3878.34312	0.06986
3876.41455	0.06938
3874.48599	0.06986
3872.55742	0.07115
3870.62886	0.07204
3868.70029	0.07251
3866.77173	0.07242
3864.84316	0.07255
3862.91460	0.07284
3860.98604	0.07213
3859.05747	0.07132
3857.12891	0.07143
3855.20034	0.07270
3853.27178	0.07558
3851.34321	0.07767
3849.41465	0.07637
3847.48608	0.07471
3845.55752	0.07437
3843.62896	0.07573
3841.70039	0.07821
3839.77183	0.08065
3837.84326	0.08202
3835.91470	0.08148
3833.98613	0.08035
3832.05757	0.07963
3830.12900	0.07945
3828.20044	0.08015
3826.27187	0.08143
3824.34331	0.08261
3822.41475	0.08407
3820.48618	0.08658
3818.55762	0.08801
3816.62905	0.08797
3814.70049	0.08796
3812.77192	0.08727
3810.84336	0.08653
3808.91479	0.08692
3806.98623	0.08886
3805.05767	0.09168
3803.12910	0.09443
3801.20054	0.09701
3799.27197	0.09785
3797.34341	0.09756
3795.41484	0.09784
3793.48628	0.09757
3791.55771	0.09726
3789.62915	0.09811
3787.70059	0.09954
3785.77202	0.10113
3783.84346	0.10283
3781.91489	0.10427
3779.98633	0.10608
3778.05776	0.10847
3776.12920	0.11003
3774.20063	0.11066
3772.27207	0.11150
3770.34351	0.11356
3768.41494	0.11652
3766.48638	0.11888
3764.55781	0.12076
3762.62925	0.12259
3760.70068	0.12497
3758.77212	0.12848
3756.84355	0.13166
3754.91499	0.13339
3752.98643	0.13548
3751.05786	0.14005
3749.12930	0.14563
3747.20073	0.14777
3745.27217	0.14855
3743.34360	0.15140
3741.41504	0.15504
3739.48647	0.15792
3737.55791	0.16172
3735.62935	0.16756
3733.70078	0.17404
3731.77222	0.17840
3729.84365	0.18109
3727.91509	0.18411
3725.98652	0.18902
3724.05796	0.19587
3722.12939	0.20304
3720.20083	0.20938
3718.27227	0.21502
3716.34370	0.22116
3714.41514	0.22861
3712.48657	0.23871
3710.55801	0.25282
3708.62944	0.26700
3706.70088	0.27787
3704.77231	0.28833
3702.84375	0.30096
3700.91519	0.31719
3698.98662	0.33506
3697.05806	0.35226
3695.12949	0.37028
3693.20093	0.38954
3691.27236	0.41111
3689.34380	0.43913
3687.41523	0.47249
3685.48667	0.50127
3683.55811	0.52638
3681.62954	0.55370
3679.70098	0.58513
3677.77241	0.61882
3675.84385	0.65836
3673.91528	0.71063
3671.98672	0.75342
3670.05815	0.79129
3668.12959	0.84219
3666.20103	0.88835
3664.27246	0.92761
3662.34390	0.97038
3660.41533	1.01676
3658.48677	1.06255
3656.55820	1.11095
3654.62964	1.16462
3652.70107	1.21043
3650.77251	1.25148
3648.84395	1.30791
3646.91538	1.37511
3644.98682	1.42307
3643.05825	1.45983
3641.12969	1.49832
3639.20112	1.54170
3637.27256	1.58587
3635.34399	1.62850
3633.41543	1.67032
3631.48687	1.70962
3629.55830	1.75066
3627.62974	1.80517
3625.70117	1.85530
3623.77261	1.88788
3621.84404	1.91921
3619.91548	1.95692
3617.98691	2.00315
3616.05835	2.04699
3614.12979	2.08356
3612.20122	2.12176
3610.27266	2.15934
3608.34409	2.19736
3606.41553	2.23918
3604.48696	2.27879
3602.55840	2.31460
3600.62983	2.35268
3598.70127	2.39276
3596.77271	2.43236
3594.84414	2.47383
3592.91558	2.51600
3590.98701	2.55529
3589.05845	2.59195
3587.12988	2.63337
3585.20132	2.67845
3583.27275	2.71813
3581.34419	2.75536
3579.41562	2.79626
3577.48706	2.84007
3575.55850	2.88363
3573.62993	2.92724
3571.70137	2.96788
3569.77280	3.00533
3567.84424	3.04666
3565.91567	3.10001
3563.98711	3.15304
3562.05854	3.19577
3560.12998	3.23589
3558.20142	3.27704
3556.27285	3.32047
3554.34429	3.36586
3552.41572	3.41389
3550.48716	3.46251
3548.55859	3.50863
3546.63003	3.55248
3544.70146	3.59621
3542.77290	3.64179
3540.84434	3.69043
3538.91577	3.74036
3536.98721	3.78845
3535.05864	3.83645
3533.13008	3.88553
3531.20151	3.93539
3529.27295	3.98272
3527.34438	4.02790
3525.41582	4.07354
3523.48726	4.11688
3521.55869	4.16149
3519.63013	4.21106
3517.70156	4.25925
3515.77300	4.30249
3513.84443	4.34867
3511.91587	4.40246
3509.98730	4.45880
3508.05874	4.51091
3506.13018	4.55960
3504.20161	4.60904
3502.27305	4.65817
3500.34448	4.70348
3498.41592	4.74489
3496.48735	4.79207
3494.55879	4.84570
3492.63022	4.89465
3490.70166	4.94233
3488.77310	4.99449
3486.84453	5.04566
3484.91597	5.09365
3482.98740	5.14086
3481.05884	5.18772
3479.13027	5.23183
3477.20171	5.27475
3475.27314	5.32184
3473.34458	5.37184
3471.41602	5.41668
3469.48745	5.45740
3467.55889	5.50535
3465.63032	5.55792
3463.70176	5.60649
3461.77319	5.65869
3459.84463	5.72123
3457.91606	5.78018
3455.98750	5.82818
3454.05894	5.87699
3452.13037	5.93374
3450.20181	5.99068
3448.27324	6.04412
3446.34468	6.10401
3444.41611	6.16138
3442.48755	6.20368
3440.55898	6.23703
3438.63042	6.26950
3436.70186	6.30511
3434.77329	6.35287
3432.84473	6.41038
3430.91616	6.45641
3428.98760	6.50233
3427.05903	6.56978
3425.13047	6.63690
3423.20190	6.67842
3421.27334	6.70967
3419.34478	6.73430
3417.41621	6.76296
3415.48765	6.80917
3413.55908	6.84952
3411.63052	6.88719
3409.70195	6.93753
3407.77339	7.00483
3405.84482	7.08499
3403.91626	7.16392
3401.98770	7.22608
3400.05913	7.26426
3398.13057	7.27370
3396.20200	7.28863
3394.27344	7.33568
3392.34487	7.38315
3390.41631	7.42839
3388.48774	7.45786
3386.55918	7.49952
3384.63062	7.57415
3382.70205	7.62549
3380.77349	7.64751
3378.84492	7.66449
3376.91636	7.67699
3374.98779	7.67598
3373.05923	7.66207
3371.13066	7.65578
3369.20210	7.70686
3367.27354	7.77124
3365.34497	7.79779
3363.41641	7.83271
3361.48784	7.88222
3359.55928	7.93744
3357.63071	7.99796
3355.70215	8.03253
3353.77358	7.96725
3351.84502	7.88503
3349.91646	7.92971
3347.98789	8.03939
3346.05933	8.03963
3344.13076	7.97934
3342.20220	7.98567
3340.27363	7.98111
3338.34507	7.91518
3336.41650	7.87801
3334.48794	7.91505
3332.55937	7.97110
3330.63081	8.00660
3328.70225	8.00012
3326.77368	7.97781
3324.84512	7.99840
3322.91655	8.06104
3320.98799	8.13337
3319.05942	8.13751
3317.13086	8.09779
3315.20229	8.06674
3313.27373	8.05808
3311.34517	8.08297
3309.41660	8.09554
3307.48804	8.09383
3305.55947	8.09474
3303.63091	8.09690
3301.70234	8.12629
3299.77378	8.18442
3297.84521	8.20219
3295.91665	8.15781
3293.98809	8.08357
3292.05952	8.04693
3290.13096	8.10269
3288.20239	8.18427
3286.27383	8.20476
3284.34526	8.18320
3282.41670	8.18221
3280.48813	8.21553
3278.55957	8.27438
3276.63101	8.32632
3274.70244	8.29909
3272.77388	8.12672
3270.84531	7.95653
3268.91675	8.01582
3266.98818	8.28052
3265.05962	8.44750
3263.13105	8.36924
3261.20249	8.30099
3259.27393	8.31038
3257.34536	8.30056
3255.41680	8.31348
3253.48823	8.34646
3251.55967	8.28364
3249.63110	8.14873
3247.70254	8.10559
3245.77397	8.18287
3243.84541	8.19494
3241.91685	8.08457
3239.98828	8.05054
3238.05972	8.16889
3236.13115	8.33844
3234.20259	8.32120
3232.27402	8.06151
3230.34546	7.86178
3228.41689	7.87263
3226.48833	8.01978
3224.55977	8.14046
3222.63120	8.14130
3220.70264	8.08855
3218.77407	8.01623
3216.84551	7.93742
3214.91694	7.94816
3212.98838	8.00695
3211.05981	7.99708
3209.13125	7.95140
3207.20269	7.88195
3205.27412	7.80549
3203.34556	7.75176
3201.41699	7.67668
3199.48843	7.60806
3197.55986	7.63666
3195.63130	7.71157
3193.70273	7.71452
3191.77417	7.67319
3189.84561	7.64560
3187.91704	7.62753
3185.98848	7.57364
3184.05991	7.46671
3182.13135	7.38273
3180.20278	7.35827
3178.27422	7.32845
3176.34565	7.26711
3174.41709	7.20349
3172.48853	7.13906
3170.55996	7.08283
3168.63140	7.03504
3166.70283	6.96827
3164.77427	6.87898
3162.84570	6.78633
3160.91714	6.70339
3158.98857	6.64794
3157.06001	6.62368
3155.13145	6.58257
3153.20288	6.49950
3151.27432	6.41464
3149.34575	6.34518
3147.41719	6.28895
3145.48862	6.25554
3143.56006	6.22332
3141.63149	6.15614
3139.70293	6.06524
3137.77437	5.98069
3135.84580	5.90667
3133.91724	5.83767
3131.98867	5.76828
3130.06011	5.69917
3128.13154	5.63487
3126.20298	5.56945
3124.27441	5.49569
3122.34585	5.41916
3120.41729	5.34651
3118.48872	5.27395
3116.56016	5.20306
3114.63159	5.13377
3112.70303	5.06061
3110.77446	4.98646
3108.84590	4.91306
3106.91733	4.83680
3104.98877	4.75979
3103.06021	4.69059
3101.13164	4.62725
3099.20308	4.56264
3097.27451	4.49677
3095.34595	4.42996
3093.41738	4.36349
3091.48882	4.29842
3089.56025	4.23321
3087.63169	4.16883
3085.70312	4.10572
3083.77456	4.04057
3081.84600	3.97414
3079.91743	3.91063
3077.98887	3.85022
3076.06030	3.78990
3074.13174	3.72797
3072.20317	3.66552
3070.27461	3.60495
3068.34604	3.54666
3066.41748	3.48907
3064.48892	3.43271
3062.56035	3.37666
3060.63179	3.31912
3058.70322	3.26275
3056.77466	3.20860
3054.84609	3.15441
3052.91753	3.09992
3050.98896	3.04716
3049.06040	2.99659
3047.13184	2.94636
3045.20327	2.89554
3043.27471	2.84466
3041.34614	2.79474
3039.41758	2.74612
3037.48901	2.69844
3035.56045	2.65251
3033.63188	2.60781
3031.70332	2.56214
3029.77476	2.51596
3027.84619	2.47135
3025.91763	2.42839
3023.98906	2.38557
3022.06050	2.34226
3020.13193	2.29963
3018.20337	2.25854
3016.27480	2.21862
3014.34624	2.17927
3012.41768	2.14008
3010.48911	2.10154
3008.56055	2.06441
3006.63198	2.02835
3004.70342	1.99229
3002.77485	1.95589
3000.84629	1.91996
2998.91772	1.88539
2996.98916	1.85211
2995.06060	1.81920
2993.13203	1.78619
2991.20347	1.75384
2989.27490	1.72243
2987.34634	1.69111
2985.41777	1.65983
2983.48921	1.62953
2981.56064	1.60026
2979.63208	1.57126
2977.70352	1.54271
2975.77495	1.51533
2973.84639	1.48834
2971.91782	1.46085
2969.98926	1.43353
2968.06069	1.40688
2966.13213	1.38085
2964.20356	1.35549
2962.27500	1.33062
2960.34644	1.30611
2958.41787	1.28190
2956.48931	1.25804
2954.56074	1.23521
2952.63218	1.21328
2950.70361	1.19093
2948.77505	1.16816
2946.84648	1.14611
2944.91792	1.12507
2942.98936	1.10462
2941.06079	1.08444
2939.13223	1.06424
2937.20366	1.04393
2935.27510	1.02373
2933.34653	1.00422
2931.41797	0.98571
2929.48940	0.96774
2927.56084	0.94988
2925.63228	0.93205
2923.70371	0.91468
2921.77515	0.89797
2919.84658	0.88155
2917.91802	0.86534
2915.98945	0.84946
2914.06089	0.83398
2912.13232	0.81872
2910.20376	0.80352
2908.27520	0.78892
2906.34663	0.77525
2904.41807	0.76200
2902.48950	0.74861
2900.56094	0.73523
2898.63237	0.72228
2896.70381	0.70986
2894.77524	0.69778
2892.84668	0.68578
2890.91812	0.67362
2888.98955	0.66147
2887.06099	0.64987
2885.13242	0.63925
2883.20386	0.62925
2881.27529	0.61896
2879.34673	0.60830
2877.41816	0.59791
2875.48960	0.58767
2873.56104	0.57730
2871.63247	0.56712
2869.70391	0.55730
2867.77534	0.54756
2865.84678	0.53754
2863.91821	0.52733
2861.98965	0.51760
2860.06108	0.50848
2858.13252	0.49947
2856.20396	0.49060
2854.27539	0.48221
2852.34683	0.47446
2850.41826	0.46715
2848.48970	0.45965
2846.56113	0.45180
2844.63257	0.44432
2842.70400	0.43772
2840.77544	0.43161
2838.84687	0.42553
2836.91831	0.41958
2834.98975	0.41380
2833.06118	0.40787
2831.13262	0.40160
2829.20405	0.39521
2827.27549	0.38909
2825.34692	0.38342
2823.41836	0.37793
2821.48979	0.37243
2819.56123	0.36707
2817.63267	0.36184
2815.70410	0.35641
2813.77554	0.35091
2811.84697	0.34560
2809.91841	0.34026
2807.98984	0.33493
2806.06128	0.33009
2804.13271	0.32561
2802.20415	0.32096
2800.27559	0.31619
2798.34702	0.31156
2796.41846	0.30705
2794.48989	0.30266
2792.56133	0.29844
2790.63276	0.29427
2788.70420	0.29016
2786.77563	0.28619
2784.84707	0.28238
2782.91851	0.27867
2780.98994	0.27481
2779.06138	0.27093
2777.13281	0.26727
2775.20425	0.26360
2773.27568	0.25998
2771.34712	0.25661
2769.41855	0.25343
2767.48999	0.25016
2765.56143	0.24677
2763.63286	0.24357
2761.70430	0.24061
2759.77573	0.23771
2757.84717	0.23469
2755.91860	0.23174
2753.99004	0.22906
2752.06147	0.22641
2750.13291	0.22364
2748.20435	0.22086
2746.27578	0.21818
2744.34722	0.21558
2742.41865	0.21299
2740.49009	0.21058
2738.56152	0.20843
2736.63296	0.20626
2734.70439	0.20393
2732.77583	0.20162
2730.84727	0.19948
2728.91870	0.19744
2726.99014	0.19542
2725.06157	0.19346
2723.13301	0.19158
2721.20444	0.18968
2719.27588	0.18769
2717.34731	0.18577
2715.41875	0.18411
2713.49019	0.18254
2711.56162	0.18082
2709.63306	0.17899
2707.70449	0.17726
2705.77593	0.17579
2703.84736	0.17460
2701.91880	0.17338
2699.99023	0.17194
2698.06167	0.17033
2696.13311	0.16880
2694.20454	0.16751
2692.27598	0.16651
2690.34741	0.16557
2688.41885	0.16437
2686.49028	0.16297
2684.56172	0.16171
2682.63315	0.16073
2680.70459	0.15980
2678.77603	0.15875
2676.84746	0.15770
2674.91890	0.15672
2672.99033	0.15581
2671.06177	0.15493
2669.13320	0.15398
2667.20464	0.15293
2665.27607	0.15197
2663.34751	0.15121
2661.41895	0.15054
2659.49038	0.14984
2657.56182	0.14916
2655.63325	0.14857
2653.70469	0.14800
2651.77612	0.14737
2649.84756	0.14666
2647.91899	0.14605
2645.99043	0.14569
2644.06187	0.14538
2642.13330	0.14493
2640.20474	0.14452
2638.27617	0.14425
2636.34761	0.14398
2634.41904	0.14365
2632.49048	0.14336
2630.56191	0.14305
2628.63335	0.14276
2626.70479	0.14238
2624.77622	0.14194
2622.84766	0.14173
2620.91909	0.14175
2618.99053	0.14178
2617.06196	0.14169
2615.13340	0.14159
2613.20483	0.14158
2611.27627	0.14154
2609.34771	0.14137
2607.41914	0.14129
2605.49058	0.14132
2603.56201	0.14136
2601.63345	0.14143
2599.70488	0.14147
2597.77632	0.14148
2595.84775	0.14158
2593.91919	0.14166
2591.99062	0.14173
2590.06206	0.14193
2588.13350	0.14225
2586.20493	0.14268
2584.27637	0.14315
2582.34780	0.14350
2580.41924	0.14372
2578.49067	0.14383
2576.56211	0.14397
2574.63354	0.14434
2572.70498	0.14482
2570.77642	0.14529
2568.84785	0.14577
2566.91929	0.14622
2564.99072	0.14673
2563.06216	0.14736
2561.13359	0.14783
2559.20503	0.14801
2557.27646	0.14829
2555.34790	0.14892
2553.41934	0.14964
2551.49077	0.15025
2549.56221	0.15091
2547.63364	0.15174
2545.70508	0.15246
2543.77651	0.15295
2541.84795	0.15346
2539.91938	0.15418
2537.99082	0.15501
2536.06226	0.15582
2534.13369	0.15646
2532.20513	0.15698
2530.27656	0.15757
2528.34800	0.15834
2526.41943	0.15923
2524.49087	0.16012
2522.56230	0.16099
2520.63374	0.16188
2518.70518	0.16277
2516.77661	0.16357
2514.84805	0.16432
2512.91948	0.16514
2510.99092	0.16601
2509.06235	0.16684
2507.13379	0.16766
2505.20522	0.16856
2503.27666	0.16949
2501.34810	0.17039
2499.41953	0.17123
2497.49097	0.17207
2495.56240	0.17300
2493.63384	0.17397
2491.70527	0.17490
2489.77671	0.17566
2487.84814	0.17629
2485.91958	0.17718
2483.99102	0.17841
2482.06245	0.17961
2480.13389	0.18054
2478.20532	0.18143
2476.27676	0.18238
2474.34819	0.18323
2472.41963	0.18407
2470.49106	0.18511
2468.56250	0.18625
2466.63394	0.18726
2464.70537	0.18825
2462.77681	0.18926
2460.84824	0.19022
2458.91968	0.19124
2456.99111	0.19237
2455.06255	0.19343
2453.13398	0.19437
2451.20542	0.19533
2449.27686	0.19636
2447.34829	0.19743
2445.41973	0.19848
2443.49116	0.19943
2441.56260	0.20034
2439.63403	0.20141
2437.70547	0.20252
2435.77690	0.20353
2433.84834	0.20458
2431.91978	0.20561
2429.99121	0.20655
2428.06265	0.20760
2426.13408	0.20877
2424.20552	0.21005
2422.27695	0.21136
2420.34839	0.21253
2418.41982	0.21354
2416.49126	0.21458
2414.56270	0.21578
2412.63413	0.21702
2410.70557	0.21831
2408.77700	0.21962
2406.84844	0.22076
2404.91987	0.22182
2402.99131	0.22295
2401.06274	0.22420
2399.13418	0.22555
2397.20562	0.22684
2395.27705	0.22806
2393.34849	0.22931
2391.41992	0.23059
2389.49136	0.23190
2387.56279	0.23330
2385.63423	0.23495
2383.70566	0.23708
2381.77710	0.23969
2379.84854	0.24258
2377.91997	0.24563
2375.99141	0.24886
2374.06284	0.25259
2372.13428	0.25715
2370.20571	0.26268
2368.27715	0.26821
2366.34858	0.27262
2364.42002	0.27593
2362.49146	0.27802
2360.56289	0.27957
2358.63433	0.28172
2356.70576	0.28290
2354.77720	0.28171
2352.84863	0.27974
2350.92007	0.27774
2348.99150	0.27653
2347.06294	0.27738
2345.13437	0.28101
2343.20581	0.28639
2341.27725	0.29035
2339.34868	0.29195
2337.42012	0.29292
2335.49155	0.29421
2333.56299	0.29483
2331.63442	0.29496
2329.70586	0.29594
2327.77729	0.29746
2325.84873	0.29799
2323.92017	0.29767
2321.99160	0.29788
2320.06304	0.29869
2318.13447	0.29928
2316.20591	0.29966
2314.27734	0.30026
2312.34878	0.30125
2310.42021	0.30259
2308.49165	0.30383
2306.56309	0.30485
2304.63452	0.30589
2302.70596	0.30704
2300.77739	0.30833
2298.84883	0.30979
2296.92026	0.31139
2294.99170	0.31302
2293.06313	0.31448
2291.13457	0.31583
2289.20601	0.31740
2287.27744	0.31918
2285.34888	0.32089
2283.42031	0.32247
2281.49175	0.32422
2279.56318	0.32632
2277.63462	0.32858
2275.70605	0.33078
2273.77749	0.33298
2271.84893	0.33512
2269.92036	0.33708
2267.99180	0.33905
2266.06323	0.34128
2264.13467	0.34354
2262.20610	0.34562
2260.27754	0.34770
2258.34897	0.34986
2256.42041	0.35201
2254.49185	0.35413
2252.56328	0.35623
2250.63472	0.35837
2248.70615	0.36059
2246.77759	0.36280
2244.84902	0.36490
2242.92046	0.36694
2240.99189	0.36899
2239.06333	0.37118
2237.13477	0.37352
2235.20620	0.37583
2233.27764	0.37800
2231.34907	0.38011
2229.42051	0.38238
2227.49194	0.38475
2225.56338	0.38702
2223.63481	0.38918
2221.70625	0.39135
2219.77769	0.39356
2217.84912	0.39570
2215.92056	0.39780
2213.99199	0.39997
2212.06343	0.40221
2210.13486	0.40438
2208.20630	0.40644
2206.27773	0.40853
2204.34917	0.41068
2202.42061	0.41285
2200.49204	0.41497
2198.56348	0.41693
2196.63491	0.41880
2194.70635	0.42082
2192.77778	0.42294
2190.84922	0.42487
2188.92065	0.42662
2186.99209	0.42847
2185.06353	0.43040
2183.13496	0.43210
2181.20640	0.43359
2179.27783	0.43518
2177.34927	0.43692
2175.42070	0.43851
2173.49214	0.43993
2171.56357	0.44134
2169.63501	0.44278
2167.70645	0.44418
2165.77788	0.44551
2163.84932	0.44674
2161.92075	0.44787
2159.99219	0.44892
2158.06362	0.44981
2156.13506	0.45054
2154.20649	0.45128
2152.27793	0.45210
2150.34937	0.45290
2148.42080	0.45360
2146.49224	0.45421
2144.56367	0.45474
2142.63511	0.45520
2140.70654	0.45551
2138.77798	0.45563
2136.84941	0.45570
2134.92085	0.45577
2132.99229	0.45570
2131.06372	0.45557
2129.13516	0.45544
2127.20659	0.45519
2125.27803	0.45486
2123.34946	0.45443
2121.42090	0.45390
2119.49233	0.45333
2117.56377	0.45275
2115.63521	0.45200
2113.70664	0.45108
2111.77808	0.45019
2109.84951	0.44925
2107.92095	0.44803
2105.99238	0.44659
2104.06382	0.44527
2102.13525	0.44416
2100.20669	0.44299
2098.27812	0.44161
2096.34956	0.44009
2094.42100	0.43843
2092.49243	0.43664
2090.56387	0.43488
2088.63530	0.43318
2086.70674	0.43143
2084.77817	0.42960
2082.84961	0.42771
2080.92104	0.42582
2078.99248	0.42386
2077.06392	0.42167
2075.13535	0.41935
2073.20679	0.41712
2071.27822	0.41497
2069.34966	0.41281
2067.42109	0.41049
2065.49253	0.40807
2063.56396	0.40559
2061.63540	0.40310
2059.70684	0.40063
2057.77827	0.39813
2055.84971	0.39560
2053.92114	0.39301
2051.99258	0.39033
2050.06401	0.38764
2048.13545	0.38492
2046.20688	0.38215
2044.27832	0.37957
2042.34976	0.37708
2040.42119	0.37435
2038.49263	0.37152
2036.56406	0.36880
2034.63550	0.36610
2032.70693	0.36340
2030.77837	0.36074
2028.84980	0.35792
2026.92124	0.35495
2024.99268	0.35203
2023.06411	0.34923
2021.13555	0.34649
2019.20698	0.34383
2017.27842	0.34120
2015.34985	0.33850
2013.42129	0.33576
2011.49272	0.33298
2009.56416	0.33018
2007.63560	0.32738
2005.70703	0.32464
2003.77847	0.32199
2001.84990	0.31940
1999.92134	0.31685
1997.99277	0.31427
1996.06421	0.31168
1994.13564	0.30915
1992.20708	0.30669
1990.27852	0.30415
1988.34995	0.30159
1986.42139	0.29904
1984.49282	0.29650
1982.56426	0.29410
1980.63569	0.29188
1978.70713	0.28964
1976.77856	0.28729
1974.85000	0.28497
1972.92144	0.28279
1970.99287	0.28079
1969.06431	0.27891
1967.13574	0.27698
1965.20718	0.27491
1963.27861	0.27292
1961.35005	0.27101
1959.42148	0.26910
1957.49292	0.26723
1955.56436	0.26542
1953.63579	0.26366
1951.70723	0.26199
1949.77866	0.26040
1947.85010	0.25877
1945.92153	0.25728
1943.99297	0.25601
1942.06440	0.25463
1940.13584	0.25298
1938.20728	0.25142
1936.27871	0.25011
1934.35015	0.24887
1932.42158	0.24764
1930.49302	0.24642
1928.56445	0.24527
1926.63589	0.24429
1924.70732	0.24358
1922.77876	0.24289
1920.85020	0.24196
1918.92163	0.24099
1916.99307	0.24000
1915.06450	0.23897
1913.13594	0.23814
1911.20737	0.23748
1909.27881	0.23681
1907.35024	0.23615
1905.42168	0.23548
1903.49312	0.23480
1901.56455	0.23420
1899.63599	0.23370
1897.70742	0.23333
1895.77886	0.23307
1893.85029	0.23279
1891.92173	0.23239
1889.99316	0.23220
1888.06460	0.23208
1886.13604	0.23181
1884.20747	0.23148
1882.27891	0.23120
1880.35034	0.23102
1878.42178	0.23090
1876.49321	0.23083
1874.56465	0.23084
1872.63608	0.23108
1870.70752	0.23166
1868.77896	0.23256
1866.85039	0.23287
1864.92183	0.23241
1862.99326	0.23206
1861.06470	0.23216
1859.13613	0.23257
1857.20757	0.23299
1855.27900	0.23351
1853.35044	0.23410
1851.42187	0.23472
1849.49331	0.23538
1847.56475	0.23628
1845.63618	0.23744
1843.70762	0.23849
1841.77905	0.23900
1839.85049	0.23926
1837.92192	0.23998
1835.99336	0.24094
1834.06479	0.24195
1832.13623	0.24316
1830.20767	0.24480
1828.27910	0.24619
1826.35054	0.24695
1824.42197	0.24805
1822.49341	0.24931
1820.56484	0.25052
1818.63628	0.25186
1816.70771	0.25342
1814.77915	0.25502
1812.85059	0.25686
1810.92202	0.25906
1808.99346	0.26113
1807.06489	0.26295
1805.13633	0.26482
1803.20776	0.26712
1801.27920	0.26981
1799.35063	0.27267
1797.42207	0.27517
1795.49351	0.27767
1793.56494	0.28069
1791.63638	0.28439
1789.70781	0.28768
1787.77925	0.29016
1785.85068	0.29330
1783.92212	0.29710
1781.99355	0.30115
1780.06499	0.30537
1778.13643	0.30964
1776.20786	0.31378
1774.27930	0.31845
1772.35073	0.32470
1770.42217	0.33100
1768.49360	0.33601
1766.56504	0.34098
1764.63647	0.34629
1762.70791	0.35226
1760.77935	0.35982
1758.85078	0.36700
1756.92222	0.37423
1754.99365	0.38193
1753.06509	0.38899
1751.13652	0.39780
1749.20796	0.40898
1747.27939	0.41950
1745.35083	0.42850
1743.42227	0.43812
1741.49370	0.44878
1739.56514	0.46132
1737.63657	0.47394
1735.70801	0.48519
1733.77944	0.50217
1731.85088	0.52210
1729.92231	0.53756
1727.99375	0.55318
1726.06519	0.57002
1724.13662	0.58837
1722.20806	0.60809
1720.27949	0.62654
1718.35093	0.64867
1716.42236	0.68120
1714.49380	0.71158
1712.56523	0.73596
1710.63667	0.75962
1708.70811	0.78526
1706.77954	0.81460
1704.85098	0.84945
1702.92241	0.88045
1700.99385	0.91119
1699.06528	0.95650
1697.13672	0.99790
1695.20815	1.04025
1693.27959	1.08112
1691.35103	1.11380
1689.42246	1.15118
1687.49390	1.19051
1685.56533	1.22879
1683.63677	1.28767
1681.70820	1.34795
1679.77964	1.38640
1677.85107	1.42313
1675.92251	1.46571
1673.99395	1.51851
1672.06538	1.56506
1670.13682	1.61031
1668.20825	1.66824
1666.27969	1.71407
1664.35112	1.75247
1662.42256	1.80043
1660.49399	1.85260
1658.56543	1.89201
1656.63687	1.92444
1654.70830	1.95580
1652.77974	2.00903
1650.85117	2.06233
1648.92261	2.08317
1646.99404	2.10859
1645.06548	2.13815
1643.13691	2.15866
1641.20835	2.17211
1639.27979	2.18452
1637.35122	2.19272
1635.42266	2.19494
1633.49409	2.18973
1631.56553	2.17741
1629.63696	2.16222
1627.70840	2.13799
1625.77983	2.10931
1623.85127	2.07339
1621.92271	2.02952
1619.99414	1.98967
1618.06558	1.94893
1616.13701	1.88907
1614.20845	1.82800
1612.27988	1.78175
1610.35132	1.73376
1608.42275	1.68233
1606.49419	1.63166
1604.56562	1.58426
1602.63706	1.53854
1600.70850	1.49417
1598.77993	1.45259
1596.85137	1.41279
1594.92280	1.37404
1592.99424	1.33618
1591.06567	1.30099
1589.13711	1.26776
1587.20854	1.23614
1585.27998	1.20637
1583.35142	1.17837
1581.42285	1.15248
1579.49429	1.12998
1577.56572	1.10932
1575.63716	1.08352
1573.70859	1.06058
1571.78003	1.04570
1569.85146	1.02968
1567.92290	1.01080
1565.99434	0.99557
1564.06577	0.98299
1562.13721	0.97283
1560.20864	0.96435
1558.28008	0.94933
1556.35151	0.93566
1554.42295	0.92752
1552.49438	0.91944
1550.56582	0.91114
1548.63726	0.90191
1546.70869	0.89313
1544.78013	0.88498
1542.85156	0.87652
1540.92300	0.86592
1538.99443	0.84933
1537.06587	0.83650
1535.13730	0.82829
1533.20874	0.81833
1531.28018	0.80726
1529.35161	0.79891
1527.42305	0.79135
1525.49448	0.78355
1523.56592	0.77678
1521.63735	0.77020
1519.70879	0.76264
1517.78022	0.75570
1515.85166	0.74831
1513.92310	0.74112
1511.99453	0.73540
1510.06597	0.73077
1508.13740	0.72678
1506.20884	0.71961
1504.28027	0.71177
1502.35171	0.70709
1500.42314	0.70337
1498.49458	0.69972
1496.56602	0.69561
1494.63745	0.69127
1492.70889	0.68771
1490.78032	0.68503
1488.85176	0.68226
1486.92319	0.67890
1484.99463	0.67566
1483.06606	0.67303
1481.13750	0.67071
1479.20894	0.66858
1477.28037	0.66700
1475.35181	0.66596
1473.42324	0.66481
1471.49468	0.66239
1469.56611	0.65940
1467.63755	0.65686
1465.70898	0.65454
1463.78042	0.65210
1461.85186	0.65023
1459.92329	0.64932
1457.99473	0.64830
1456.06616	0.64513
1454.13760	0.64134
1452.20903	0.63858
1450.28047	0.63625
1448.35190	0.63395
1446.42334	0.63121
1444.49478	0.62844
1442.56621	0.62614
1440.63765	0.62418
1438.70908	0.62247
1436.78052	0.62058
1434.85195	0.61832
1432.92339	0.61626
1430.99482	0.61453
1429.06626	0.61294
1427.13770	0.61146
1425.20913	0.61019
1423.28057	0.60912
1421.35200	0.60832
1419.42344	0.60778
1417.49487	0.60676
1415.56631	0.60496
1413.63774	0.60338
1411.70918	0.60221
1409.78062	0.60105
1407.85205	0.59988
1405.92349	0.59911
1403.99492	0.59852
1402.06636	0.59759
1400.13779	0.59650
1398.20923	0.59534
1396.28066	0.59373
1394.35210	0.59157
1392.42354	0.58936
1390.49497	0.58747
1388.56641	0.58577
1386.63784	0.58379
1384.70928	0.58144
1382.78071	0.57927
1380.85215	0.57741
1378.92358	0.57587
1376.99502	0.57474
1375.06646	0.57382
1373.13789	0.57265
1371.20933	0.57130
1369.28076	0.57025
1367.35220	0.56941
1365.42363	0.56851
1363.49507	0.56753
1361.56650	0.56643
1359.63794	0.56520
1357.70937	0.56410
1355.78081	0.56312
1353.85225	0.56212
1351.92368	0.56111
1349.99512	0.56019
1348.06655	0.55943
1346.13799	0.55876
1344.20942	0.55804
1342.28086	0.55722
1340.35229	0.55655
1338.42373	0.55591
1336.49517	0.55499
1334.56660	0.55398
1332.63804	0.55308
1330.70947	0.55238
1328.78091	0.55184
1326.85234	0.55124
1324.92378	0.55064
1322.99521	0.55019
1321.06665	0.54979
1319.13809	0.54937
1317.20952	0.54894
1315.28096	0.54843
1313.35239	0.54779
1311.42383	0.54710
1309.49526	0.54646
1307.56670	0.54576
1305.63813	0.54496
1303.70957	0.54415
1301.78101	0.54336
1299.85244	0.54257
1297.92388	0.54183
1295.99531	0.54106
1294.06675	0.54017
1292.13818	0.53926
1290.20962	0.53846
1288.28105	0.53779
1286.35249	0.53707
1284.42393	0.53622
1282.49536	0.53541
1280.56680	0.53478
1278.63823	0.53429
1276.70967	0.53381
1274.78110	0.53330
1272.85254	0.53284
1270.92397	0.53239
1268.99541	0.53181
1267.06685	0.53113
1265.13828	0.53057
1263.20972	0.53015
1261.28115	0.52966
1259.35259	0.52910
1257.42402	0.52856
1255.49546	0.52819
1253.56689	0.52800
1251.63833	0.52787
1249.70977	0.52770
1247.78120	0.52746
1245.85264	0.52698
1243.92407	0.52625
1241.99551	0.52564
1240.06694	0.52514
1238.13838	0.52445
1236.20981	0.52361
1234.28125	0.52285
1232.35269	0.52207
1230.42412	0.52105
1228.49556	0.51997
1226.56699	0.51898
1224.63843	0.51808
1222.70986	0.51737
1220.78130	0.51676
1218.85273	0.51601
1216.92417	0.51519
1214.99561	0.51450
1213.06704	0.51382
1211.13848	0.51310
1209.20991	0.51242
1207.28135	0.51180
1205.35278	0.51126
1203.42422	0.51071
1201.49565	0.50996
1199.56709	0.50906
1197.63853	0.50830
1195.70996	0.50782
1193.78140	0.50745
1191.85283	0.50707
1189.92427	0.50668
1187.99570	0.50634
1186.06714	0.50612
1184.13857	0.50602
1182.21001	0.50610
1180.28145	0.50637
1178.35288	0.50692
1176.42432	0.50763
1174.49575	0.50832
1172.56719	0.50898
1170.63862	0.50960
1168.71006	0.51005
1166.78149	0.51043
1164.85293	0.51083
1162.92437	0.51119
1160.99580	0.51152
1159.06724	0.51165
1157.13867	0.51126
1155.21011	0.51032
1153.28154	0.50893
1151.35298	0.50717
1149.42441	0.50517
1147.49585	0.50313
1145.56729	0.50103
1143.63872	0.49874
1141.71016	0.49631
1139.78159	0.49398
1137.85303	0.49187
1135.92446	0.48987
1133.99590	0.48804
1132.06733	0.48653
1130.13877	0.48521
1128.21021	0.48396
1126.28164	0.48287
1124.35308	0.48197
1122.42451	0.48120
1120.49595	0.48049
1118.56738	0.47991
1116.63882	0.47957
1114.71025	0.47945
1112.78169	0.47941
1110.85312	0.47948
1108.92456	0.47994
1106.99600	0.48105
1105.06743	0.48237
1103.13887	0.48354
1101.21030	0.48498
1099.28174	0.48698
1097.35317	0.48943
1095.42461	0.49227
1093.49604	0.49562
1091.56748	0.49959
1089.63892	0.50444
1087.71035	0.51031
1085.78179	0.51691
1083.85322	0.52389
1081.92466	0.53085
1079.99609	0.53680
1078.06753	0.54055
1076.13896	0.54146
1074.21040	0.53948
1072.28184	0.53520
1070.35327	0.52948
1068.42471	0.52286
1066.49614	0.51594
1064.56758	0.50951
1062.63901	0.50401
1060.71045	0.49921
1058.78188	0.49479
1056.85332	0.49087
1054.92476	0.48753
1052.99619	0.48448
1051.06763	0.48177
1049.13906	0.47963
1047.21050	0.47810
1045.28193	0.47707
1043.35337	0.47628
1041.42480	0.47544
1039.49624	0.47474
1037.56768	0.47449
1035.63911	0.47441
1033.71055	0.47409
1031.78198	0.47356
1029.85342	0.47312
1027.92485	0.47284
1025.99629	0.47285
1024.06772	0.47343
1022.13916	0.47419
1020.21060	0.47464
1018.28203	0.47500
1016.35347	0.47574
1014.42490	0.47688
1012.49634	0.47810
1010.56777	0.47925
1008.63921	0.48044
1006.71064	0.48194
1004.78208	0.48381
1002.85352	0.48595
1000.92495	0.48847
998.99639	0.49167
997.06782	0.49554
995.13926	0.49964
993.21069	0.50341
991.28213	0.50663
989.35356	0.50919
987.42500	0.51079
985.49644	0.51147
983.56787	0.51198
981.63931	0.51297
979.71074	0.51455
977.78218	0.51672
975.85361	0.51933
973.92505	0.52208
971.99648	0.52501
970.06792	0.52839
968.13936	0.53229
966.21079	0.53659
964.28223	0.54120
962.35366	0.54624
960.42510	0.55172
958.49653	0.55727
956.56797	0.56270
954.63940	0.56820
952.71084	0.57421
950.78228	0.58077
948.85371	0.58721
946.92515	0.59329
944.99658	0.59927
943.06802	0.60534
941.13945	0.61152
939.21089	0.61744
937.28232	0.62278
935.35376	0.62815
933.42520	0.63429
931.49663	0.64057
929.56807	0.64619
927.63950	0.65163
925.71094	0.65752
923.78237	0.66379
921.85381	0.67045
919.92524	0.67766
917.99668	0.68511
916.06812	0.69214
914.13955	0.69910
912.21099	0.70688
910.28242	0.71530
908.35386	0.72364
906.42529	0.73225
904.49673	0.74160
902.56816	0.75125
900.63960	0.76080
898.71104	0.77010
896.78247	0.77913
894.85391	0.78786
892.92534	0.79655
890.99678	0.80678
889.06821	0.81880
887.13965	0.83038
885.21108	0.84165
883.28252	0.85447
881.35396	0.86736
879.42539	0.87793
877.49683	0.88638
875.56826	0.89528
873.63970	0.90684
871.71113	0.92030
869.78257	0.93350
867.85400	0.94558
865.92544	0.95735
863.99687	0.96869
862.06831	0.97964
860.13975	0.99079
858.21118	1.00068
856.28262	1.00970
854.35405	1.02100
852.42549	1.03410
850.49692	1.04629
848.56836	1.05770
846.63979	1.06908
844.71123	1.08019
842.78267	1.09108
840.85410	1.10156
838.92554	1.11229
836.99697	1.12474
835.06841	1.13788
833.13984	1.14999
831.21128	1.16167
829.28271	1.17125
827.35415	1.17829
825.42559	1.19031
823.49702	1.20648
821.56846	1.21695
819.63989	1.22596
817.71133	1.24001
815.78276	1.25418
813.85420	1.26083
811.92563	1.26231
809.99707	1.26919
808.06851	1.28357
806.13994	1.29544
804.21138	1.28856
802.28281	1.27038
800.35425	1.26940
798.42568	1.29350
796.49712	1.31826
794.56855	1.33454
792.63999	1.35458
790.71143	1.35570
788.78286	1.34250
786.85430	1.35515
784.92573	1.37180
782.99717	1.34962
781.06860	1.31961
779.14004	1.29294
777.21147	1.25897
775.28291	1.23408
773.35435	1.22345
771.42578	1.24755
769.49722	1.31226
767.56865	1.34903
765.64009	1.34880
763.71152	1.38052
761.78296	1.31413
759.85439	1.17288
757.92583	1.13196
755.99727	1.16662
754.06870	1.18277
752.14014	1.15387
750.21157	1.12092
748.28301	1.07974
746.35444	0.98771
744.42588	0.89192
742.49731	0.85596
740.56875	0.87292
738.64019	0.89876
736.71162	0.96034
734.78306	1.05679
732.85449	0.94418
730.92593	0.68369
728.99736	0.45351
727.06880	0.24576
725.14023	0.02643
723.21167	-0.13748
721.28311	-0.22395
719.35454	-0.27138
717.42598	-0.33795
715.49741	-0.33021
713.56885	-0.24324
711.64028	-0.10286
709.71172	0.18315
707.78315	0.47605
705.85459	0.56549
703.92603	0.45339
701.99746	0.43938
700.06890	0.67693
698.14033	1.58755
696.21177	0.80829
694.28320	0.46943
692.35464	0.37778
690.42607	0.32578
688.49751	0.34660
686.56895	0.45007
684.64038	0.46423
682.71182	0.39021
680.78325	0.36524
678.85469	0.40111
676.92612	0.47015
674.99756	0.50531
673.06899	0.47933
671.14043	0.44039
669.21187	0.38172
667.28330	0.32918
665.35474	0.32396
663.42617	0.34636
661.49761	0.37911
659.56904	0.42063
657.64048	0.43013
655.71191	0.40197
653.78335	0.36083
651.85479	0.37120
649.92622	0.52351
647.99766	0.67889
646.06909	0.40482
644.14053	0.24047
642.21196	0.21065
640.28340	0.23256
638.35483	0.28608
636.42627	0.37968
634.49771	0.36350
632.56914	0.28450
630.64058	0.27974
628.71201	0.30674
626.78345	0.27042
624.85488	0.22091
622.92632	0.23730
620.99775	0.30334
619.06919	0.33548
617.14062	0.34193
615.21206	0.37055
613.28350	0.32982
611.35493	0.25739
609.42637	0.27283
607.49780	0.32155
605.56924	0.32527
603.64067	0.35165
601.71211	0.39715
599.78354	0.36667
597.85498	0.31919
595.92642	0.32907
593.99785	0.35930
592.06929	0.42360
590.14072	0.52190
588.21216	0.56228
586.28359	0.49804
584.35503	0.39741
582.42646	0.35084
580.49790	0.36692
578.56934	0.43216
576.64077	0.48375
574.71221	0.45088
572.78364	0.40316
570.85508	0.35860
568.92651	0.27052
566.99795	0.20848
565.06938	0.21947
563.14082	0.24158
561.21226	0.22889
559.28369	0.24187
557.35513	0.28448
555.42656	0.29836
553.49800	0.31395
551.56943	0.34122
549.64087	0.34674
547.71230	0.31324
545.78374	0.27088
543.85518	0.26936
541.92661	0.34857
539.99805	0.48799
538.06948	0.55169
536.14092	0.47116
534.21235	0.37354
532.28379	0.30976
530.35522	0.32288
528.42666	0.41807
526.49810	0.50347
524.56953	0.48888
522.64097	0.40930
520.71240	0.32463
518.78384	0.35668
516.85527	0.48948
514.92671	0.50113
512.99814	0.41938
511.06958	0.44291
509.14102	0.46169
507.21245	0.39079
505.28389	0.37408
503.35532	0.43473
501.42676	0.41298
499.49819	0.34009
