3997.91411	0.05763
3995.98555	0.05814
3994.05698	0.05876
3992.12842	0.05985
3990.19985	0.06083
3988.27129	0.06084
3986.34272	0.06011
3984.41416	0.05963
3982.48560	0.05967
3980.55703	0.05993
3978.62847	0.06038
3976.69990	0.06086
3974.77134	0.06113
3972.84277	0.06114
3970.91421	0.06126
3968.98564	0.06158
3967.05708	0.06171
3965.12852	0.06146
3963.19995	0.06127
3961.27139	0.06155
3959.34282	0.06200
3957.41426	0.06201
3955.48569	0.06181
3953.55713	0.06186
3951.62856	0.06205
3949.70000	0.06235
3947.77144	0.06271
3945.84287	0.06294
3943.91431	0.06296
3941.98574	0.06259
3940.05718	0.06201
3938.12861	0.06193
3936.20005	0.06232
3934.27148	0.06268
3932.34292	0.06278
3930.41436	0.06258
3928.48579	0.06239
3926.55723	0.06249
3924.62866	0.06262
3922.70010	0.06224
3920.77153	0.06149
3918.84297	0.06123
3916.91440	0.06173
3914.98584	0.06199
3913.05728	0.06144
3911.12871	0.06070
3909.20015	0.06031
3907.27158	0.06091
3905.34302	0.06247
3903.41445	0.06368
3901.48589	0.06342
3899.55732	0.06268
3897.62876	0.06230
3895.70020	0.06214
3893.77163	0.06218
3891.84307	0.06224
3889.91450	0.06204
3887.98594	0.06171
3886.05737	0.06182
3884.12881	0.06249
3882.20024	0.06302
3880.27168	0.06305
3878.34312	0.06282
3876.41455	0.06287
3874.48599	0.06338
3872.55742	0.06368
3870.62886	0.06357
3868.70029	0.06375
3866.77173	0.06441
3864.84316	0.06547
3862.91460	0.06618
3860.98604	0.06577
3859.05747	0.06551
3857.12891	0.06610
3855.20034	0.06708
3853.27178	0.06802
3851.34321	0.06798
3849.41465	0.06719
3847.48608	0.06709
3845.55752	0.06776
3843.62896	0.06877
3841.70039	0.06985
3839.77183	0.07092
3837.84326	0.07196
3835.91470	0.07259
3833.98613	0.07267
3832.05757	0.07273
3830.12900	0.07313
3828.20044	0.07372
3826.27187	0.07440
3824.34331	0.07512
3822.41475	0.07602
3820.48618	0.07775
3818.55762	0.07919
3816.62905	0.07946
3814.70049	0.07986
3812.77192	0.08029
3810.84336	0.08042
3808.91479	0.08095
3806.98623	0.08257
3805.05767	0.08490
3803.12910	0.08683
3801.20054	0.08829
3799.27197	0.08882
3797.34341	0.08876
3795.41484	0.08943
3793.48628	0.09062
3791.55771	0.09185
3789.62915	0.09304
3787.70059	0.09417
3785.77202	0.09545
3783.84346	0.09690
3781.91489	0.09838
3779.98633	0.10024
3778.05776	0.10254
3776.12920	0.10415
3774.20063	0.10513
3772.27207	0.10650
3770.34351	0.10853
3768.41494	0.11079
3766.48638	0.11265
3764.55781	0.11416
3762.62925	0.11569
3760.70068	0.11767
3758.77212	0.12019
3756.84355	0.12230
3754.91499	0.12376
3752.98643	0.12588
3751.05786	0.12967
3749.12930	0.13404
3747.20073	0.13663
3745.27217	0.13891
3743.34360	0.14299
3741.41504	0.14685
3739.48647	0.14932
3737.55791	0.15233
3735.62935	0.15681
3733.70078	0.16175
3731.77222	0.16627
3729.84365	0.17105
3727.91509	0.17547
3725.98652	0.18015
3724.05796	0.18612
3722.12939	0.19279
3720.20083	0.19984
3718.27227	0.20723
3716.34370	0.21466
3714.41514	0.22209
3712.48657	0.23088
3710.55801	0.24329
3708.62944	0.25724
3706.70088	0.26863
3704.77231	0.27889
3702.84375	0.29105
3700.91519	0.30728
3698.98662	0.32546
3697.05806	0.34311
3695.12949	0.36160
3693.20093	0.38075
3691.27236	0.40139
3689.34380	0.42868
3687.41523	0.46296
3685.48667	0.49314
3683.55811	0.51897
3681.62954	0.54651
3679.70098	0.57743
3677.77241	0.60974
3675.84385	0.64737
3673.91528	0.69864
3671.98672	0.74202
3670.05815	0.78033
3668.12959	0.83186
3666.20103	0.87945
3664.27246	0.91973
3662.34390	0.96277
3660.41533	1.00914
3658.48677	1.05492
3656.55820	1.10324
3654.62964	1.15637
3652.70107	1.20093
3650.77251	1.23985
3648.84395	1.29356
3646.91538	1.36067
3644.98682	1.41192
3643.05825	1.45150
3641.12969	1.49077
3639.20112	1.53330
3637.27256	1.57650
3635.34399	1.61940
3633.41543	1.66232
3631.48687	1.70191
3629.55830	1.74189
3627.62974	1.79384
3625.70117	1.84212
3623.77261	1.87602
3621.84404	1.90919
3619.91548	1.94620
3617.98691	1.99077
3616.05835	2.03476
3614.12979	2.07149
3612.20122	2.10955
3610.27266	2.14773
3608.34409	2.18660
3606.41553	2.22958
3604.48696	2.27013
3602.55840	2.30562
3600.62983	2.34346
3598.70127	2.38495
3596.77271	2.42539
3594.84414	2.46546
3592.91558	2.50661
3590.98701	2.54455
3589.05845	2.57824
3587.12988	2.62004
3585.20132	2.66999
3583.27275	2.71287
3581.34419	2.75084
3579.41562	2.79166
3577.48706	2.83622
3575.55850	2.88008
3573.62993	2.92093
3571.70137	2.95883
3569.77280	2.99706
3567.84424	3.04116
3565.91567	3.09670
3563.98711	3.14976
3562.05854	3.19186
3560.12998	3.23431
3558.20142	3.27995
3556.27285	3.32393
3554.34429	3.36485
3552.41572	3.40828
3550.48716	3.45418
3548.55859	3.49950
3546.63003	3.54446
3544.70146	3.59026
3542.77290	3.63819
3540.84434	3.68649
3538.91577	3.73302
3536.98721	3.78015
3535.05864	3.83061
3533.13008	3.87887
3531.20151	3.92602
3529.27295	3.97550
3527.34438	4.02394
3525.41582	4.07022
3523.48726	4.11698
3521.55869	4.16607
3519.63013	4.21420
3517.70156	4.26038
3515.77300	4.30609
3513.84443	4.35338
3511.91587	4.40421
3509.98730	4.45540
3508.05874	4.50263
3506.13018	4.54835
3504.20161	4.59518
3502.27305	4.64254
3500.34448	4.69025
3498.41592	4.73796
3496.48735	4.78869
3494.55879	4.84215
3492.63022	4.89210
3490.70166	4.93623
3488.77310	4.97848
3486.84453	5.02547
3484.91597	5.07974
3482.98740	5.13222
3481.05884	5.17268
3479.13027	5.20992
3477.20171	5.25681
3475.27314	5.30980
3473.34458	5.36348
3471.41602	5.41195
3469.48745	5.45228
3467.55889	5.49476
3465.63032	5.54583
3463.70176	5.59928
3461.77319	5.64969
3459.84463	5.70461
3457.91606	5.76432
3455.98750	5.81226
3454.05894	5.84503
3452.13037	5.88681
3450.20181	5.94658
3448.27324	6.00433
3446.34468	6.06372
3444.41611	6.13202
3442.48755	6.18522
3440.55898	6.21236
3438.63042	6.23812
3436.70186	6.27190
3434.77329	6.30818
3432.84473	6.36169
3430.91616	6.42574
3428.98760	6.47334
3427.05903	6.51680
3425.13047	6.58333
3423.20190	6.64398
3421.27334	6.67450
3419.34478	6.71241
3417.41621	6.77824
3415.48765	6.83804
3413.55908	6.87694
3411.63052	6.90301
3409.70195	6.92050
3407.77339	6.95771
3405.84482	6.99943
3403.91626	7.02720
3401.98770	7.07015
3400.05913	7.13676
3398.13057	7.18684
3396.20200	7.19680
3394.27344	7.20965
3392.34487	7.24668
3390.41631	7.28167
3388.48774	7.28292
3386.55918	7.28063
3384.63062	7.30993
3382.70205	7.36329
3380.77349	7.42206
3378.84492	7.48183
3376.91636	7.56158
3374.98779	7.61623
3373.05923	7.60565
3371.13066	7.59393
3369.20210	7.61180
3367.27354	7.61391
3365.34497	7.62123
3363.41641	7.65080
3361.48784	7.68033
3359.55928	7.72843
3357.63071	7.78900
3355.70215	7.80417
3353.77358	7.76494
3351.84502	7.76126
3349.91646	7.78157
3347.98789	7.79628
3346.05933	7.84424
3344.13076	7.91910
3342.20220	7.99555
3340.27363	8.00608
3338.34507	7.92597
3336.41650	7.86679
3334.48794	7.90714
3332.55937	7.96906
3330.63081	7.98701
3328.70225	7.94203
3326.77368	7.85540
3324.84512	7.80449
3322.91655	7.80868
3320.98799	7.87263
3319.05942	7.96410
3317.13086	7.99365
3315.20229	7.93289
3313.27373	7.90735
3311.34517	7.97837
3309.41660	8.07691
3307.48804	8.14224
3305.55947	8.13802
3303.63091	8.08453
3301.70234	8.04091
3299.77378	8.05771
3297.84521	8.07876
3295.91665	8.03969
3293.98809	7.97955
3292.05952	7.97419
3290.13096	8.04413
3288.20239	8.10933
3286.27383	8.13945
3284.34526	8.12413
3282.41670	8.01623
3280.48813	7.90405
3278.55957	7.90738
3276.63101	7.97601
3274.70244	8.00886
3272.77388	8.01370
3270.84531	7.99714
3268.91675	7.93298
3266.98818	7.88830
3265.05962	7.94246
3263.13105	8.03231
3261.20249	8.06509
3259.27393	8.09073
3257.34536	8.13889
3255.41680	8.10757
3253.48823	8.02344
3251.55967	7.96836
3249.63110	7.96678
3247.70254	8.04445
3245.77397	8.13631
3243.84541	8.17209
3241.91685	8.12764
3239.98828	8.07683
3238.05972	8.12078
3236.13115	8.17270
3234.20259	8.08103
3232.27402	7.96534
3230.34546	7.97456
3228.41689	7.99253
3226.48833	7.92926
3224.55977	7.87248
3222.63120	7.84642
3220.70264	7.81203
3218.77407	7.78615
3216.84551	7.80727
3214.91694	7.82409
3212.98838	7.75471
3211.05981	7.68176
3209.13125	7.70610
3207.20269	7.72500
3205.27412	7.68946
3203.34556	7.69604
3201.41699	7.72116
3199.48843	7.68471
3197.55986	7.59542
3195.63130	7.52522
3193.70273	7.49668
3191.77417	7.49415
3189.84561	7.50607
3187.91704	7.46762
3185.98848	7.38145
3184.05991	7.30498
3182.13135	7.23949
3180.20278	7.21411
3178.27422	7.21249
3176.34565	7.15928
3174.41709	7.07172
3172.48853	6.99333
3170.55996	6.91943
3168.63140	6.86918
3166.70283	6.85293
3164.77427	6.82536
3162.84570	6.77207
3160.91714	6.70381
3158.98857	6.61975
3157.06001	6.55217
3155.13145	6.52176
3153.20288	6.49819
3151.27432	6.44683
3149.34575	6.36763
3147.41719	6.28542
3145.48862	6.21994
3143.56006	6.16552
3141.63149	6.09561
3139.70293	6.01032
3137.77437	5.93601
3135.84580	5.86940
3133.91724	5.79340
3131.98867	5.71005
3130.06011	5.63308
3128.13154	5.56603
3126.20298	5.50234
3124.27441	5.43992
3122.34585	5.37090
3120.41729	5.29273
3118.48872	5.21909
3116.56016	5.15486
3114.63159	5.08895
3112.70303	5.01737
3110.77446	4.94866
3108.84590	4.88610
3106.91733	4.82546
3104.98877	4.76257
3103.06021	4.69345
3101.13164	4.61949
3099.20308	4.54845
3097.27451	4.48049
3095.34595	4.41209
3093.41738	4.34768
3091.48882	4.28911
3089.56025	4.22906
3087.63169	4.16485
3085.70312	4.10038
3083.77456	4.03550
3081.84600	3.97011
3079.91743	3.90509
3077.98887	3.84178
3076.06030	3.78148
3074.13174	3.72239
3072.20317	3.66401
3070.27461	3.60684
3068.34604	3.55094
3066.41748	3.49535
3064.48892	3.43891
3062.56035	3.38287
3060.63179	3.32874
3058.70322	3.27557
3056.77466	3.22144
3054.84609	3.16607
3052.91753	3.11166
3050.98896	3.06013
3049.06040	3.00945
3047.13184	2.95800
3045.20327	2.90796
3043.27471	2.86005
3041.34614	2.81199
3039.41758	2.76323
3037.48901	2.71608
3035.56045	2.67066
3033.63188	2.62497
3031.70332	2.57890
3029.77476	2.53364
3027.84619	2.48982
3025.91763	2.44651
3023.98906	2.40312
3022.06050	2.36073
3020.13193	2.31925
3018.20337	2.27779
3016.27480	2.23687
3014.34624	2.19723
3012.41768	2.15822
3010.48911	2.11946
3008.56055	2.08171
3006.63198	2.04510
3004.70342	2.00933
3002.77485	1.97440
3000.84629	1.94013
2998.91772	1.90605
2996.98916	1.87238
2995.06060	1.83986
2993.13203	1.80811
2991.20347	1.77690
2989.27490	1.74689
2987.34634	1.71774
2985.41777	1.68866
2983.48921	1.65953
2981.56064	1.63053
2979.63208	1.60194
2977.70352	1.57429
2975.77495	1.54827
2973.84639	1.52355
2971.91782	1.49869
2969.98926	1.47326
2968.06069	1.44795
2966.13213	1.42340
2964.20356	1.39943
2962.27500	1.37540
2960.34644	1.35118
2958.41787	1.32679
2956.48931	1.30228
2954.56074	1.27821
2952.63218	1.25498
2950.70361	1.23223
2948.77505	1.20946
2946.84648	1.18674
2944.91792	1.16490
2942.98936	1.14460
2941.06079	1.12505
2939.13223	1.10529
2937.20366	1.08519
2935.27510	1.06505
2933.34653	1.04545
2931.41797	1.02647
2929.48940	1.00788
2927.56084	0.98964
2925.63228	0.97182
2923.70371	0.95415
2921.77515	0.93609
2919.84658	0.91815
2917.91802	0.90080
2915.98945	0.88384
2914.06089	0.86762
2912.13232	0.85189
2910.20376	0.83601
2908.27520	0.82017
2906.34663	0.80470
2904.41807	0.78996
2902.48950	0.77609
2900.56094	0.76268
2898.63237	0.74940
2896.70381	0.73632
2894.77524	0.72357
2892.84668	0.71111
2890.91812	0.69886
2888.98955	0.68701
2887.06099	0.67580
2885.13242	0.66525
2883.20386	0.65497
2881.27529	0.64471
2879.34673	0.63468
2877.41816	0.62505
2875.48960	0.61561
2873.56104	0.60567
2871.63247	0.59509
2869.70391	0.58426
2867.77534	0.57325
2865.84678	0.56210
2863.91821	0.55107
2861.98965	0.54053
2860.06108	0.53067
2858.13252	0.52096
2856.20396	0.51127
2854.27539	0.50208
2852.34683	0.49348
2850.41826	0.48535
2848.48970	0.47727
2846.56113	0.46901
2844.63257	0.46126
2842.70400	0.45442
2840.77544	0.44812
2838.84687	0.44183
2836.91831	0.43541
2834.98975	0.42907
2833.06118	0.42290
2831.13262	0.41700
2829.20405	0.41129
2827.27549	0.40551
2825.34692	0.39949
2823.41836	0.39340
2821.48979	0.38757
2819.56123	0.38200
2817.63267	0.37638
2815.70410	0.37082
2813.77554	0.36545
2811.84697	0.36005
2809.91841	0.35450
2807.98984	0.34910
2806.06128	0.34406
2804.13271	0.33925
2802.20415	0.33438
2800.27559	0.32938
2798.34702	0.32450
2796.41846	0.31996
2794.48989	0.31554
2792.56133	0.31101
2790.63276	0.30645
2788.70420	0.30206
2786.77563	0.29790
2784.84707	0.29376
2782.91851	0.28953
2780.98994	0.28543
2779.06138	0.28156
2777.13281	0.27776
2775.20425	0.27393
2773.27568	0.27028
2771.34712	0.26690
2769.41855	0.26352
2767.48999	0.26018
2765.56143	0.25697
2763.63286	0.25377
2761.70430	0.25047
2759.77573	0.24706
2757.84717	0.24365
2755.91860	0.24041
2753.99004	0.23749
2752.06147	0.23474
2750.13291	0.23195
2748.20435	0.22921
2746.27578	0.22658
2744.34722	0.22401
2742.41865	0.22150
2740.49009	0.21898
2738.56152	0.21645
2736.63296	0.21396
2734.70439	0.21148
2732.77583	0.20897
2730.84727	0.20657
2728.91870	0.20435
2726.99014	0.20214
2725.06157	0.19992
2723.13301	0.19787
2721.20444	0.19588
2719.27588	0.19386
2717.34731	0.19202
2715.41875	0.19033
2713.49019	0.18847
2711.56162	0.18648
2709.63306	0.18479
2707.70449	0.18341
2705.77593	0.18199
2703.84736	0.18051
2701.91880	0.17911
2699.99023	0.17770
2698.06167	0.17626
2696.13311	0.17479
2694.20454	0.17322
2692.27598	0.17167
2690.34741	0.17038
2688.41885	0.16925
2686.49028	0.16814
2684.56172	0.16711
2682.63315	0.16609
2680.70459	0.16493
2678.77603	0.16374
2676.84746	0.16268
2674.91890	0.16174
2672.99033	0.16077
2671.06177	0.15968
2669.13320	0.15865
2667.20464	0.15780
2665.27607	0.15707
2663.34751	0.15630
2661.41895	0.15544
2659.49038	0.15456
2657.56182	0.15382
2655.63325	0.15319
2653.70469	0.15254
2651.77612	0.15186
2649.84756	0.15119
2647.91899	0.15060
2645.99043	0.15013
2644.06187	0.14964
2642.13330	0.14907
2640.20474	0.14850
2638.27617	0.14788
2636.34761	0.14735
2634.41904	0.14710
2632.49048	0.14687
2630.56191	0.14644
2628.63335	0.14599
2626.70479	0.14571
2624.77622	0.14542
2622.84766	0.14495
2620.91909	0.14458
2618.99053	0.14466
2617.06196	0.14485
2615.13340	0.14477
2613.20483	0.14452
2611.27627	0.14431
2609.34771	0.14420
2607.41914	0.14418
2605.49058	0.14412
2603.56201	0.14387
2601.63345	0.14378
2599.70488	0.14410
2597.77632	0.14441
2595.84775	0.14446
2593.91919	0.14441
2591.99062	0.14445
2590.06206	0.14459
2588.13350	0.14473
2586.20493	0.14489
2584.27637	0.14514
2582.34780	0.14534
2580.41924	0.14547
2578.49067	0.14568
2576.56211	0.14599
2574.63354	0.14643
2572.70498	0.14696
2570.77642	0.14727
2568.84785	0.14734
2566.91929	0.14749
2564.99072	0.14797
2563.06216	0.14870
2561.13359	0.14929
2559.20503	0.14961
2557.27646	0.14995
2555.34790	0.15054
2553.41934	0.15122
2551.49077	0.15176
2549.56221	0.15224
2547.63364	0.15279
2545.70508	0.15348
2543.77651	0.15419
2541.84795	0.15475
2539.91938	0.15532
2537.99082	0.15603
2536.06226	0.15675
2534.13369	0.15743
2532.20513	0.15806
2530.27656	0.15865
2528.34800	0.15934
2526.41943	0.16009
2524.49087	0.16076
2522.56230	0.16139
2520.63374	0.16217
2518.70518	0.16311
2516.77661	0.16401
2514.84805	0.16481
2512.91948	0.16556
2510.99092	0.16634
2509.06235	0.16721
2507.13379	0.16810
2505.20522	0.16894
2503.27666	0.16967
2501.34810	0.17031
2499.41953	0.17099
2497.49097	0.17178
2495.56240	0.17272
2493.63384	0.17373
2491.70527	0.17457
2489.77671	0.17527
2487.84814	0.17601
2485.91958	0.17682
2483.99102	0.17772
2482.06245	0.17872
2480.13389	0.17965
2478.20532	0.18049
2476.27676	0.18144
2474.34819	0.18245
2472.41963	0.18336
2470.49106	0.18418
2468.56250	0.18503
2466.63394	0.18600
2464.70537	0.18708
2462.77681	0.18812
2460.84824	0.18900
2458.91968	0.18978
2456.99111	0.19072
2455.06255	0.19184
2453.13398	0.19288
2451.20542	0.19378
2449.27686	0.19464
2447.34829	0.19544
2445.41973	0.19634
2443.49116	0.19751
2441.56260	0.19878
2439.63403	0.19992
2437.70547	0.20091
2435.77690	0.20184
2433.84834	0.20277
2431.91978	0.20385
2429.99121	0.20506
2428.06265	0.20610
2426.13408	0.20704
2424.20552	0.20813
2422.27695	0.20925
2420.34839	0.21029
2418.41982	0.21142
2416.49126	0.21268
2414.56270	0.21386
2412.63413	0.21494
2410.70557	0.21610
2408.77700	0.21739
2406.84844	0.21867
2404.91987	0.21986
2402.99131	0.22097
2401.06274	0.22205
2399.13418	0.22313
2397.20562	0.22434
2395.27705	0.22562
2393.34849	0.22684
2391.41992	0.22814
2389.49136	0.22956
2387.56279	0.23086
2385.63423	0.23196
2383.70566	0.23322
2381.77710	0.23476
2379.84854	0.23619
2377.91997	0.23739
2375.99141	0.23858
2374.06284	0.24000
2372.13428	0.24148
2370.20571	0.24231
2368.27715	0.24252
2366.34858	0.24298
2364.42002	0.24400
2362.49146	0.24538
2360.56289	0.24650
2358.63433	0.24778
2356.70576	0.25016
2354.77720	0.25280
2352.84863	0.25533
2350.92007	0.25819
2348.99150	0.26042
2347.06294	0.26150
2345.13437	0.26221
2343.20581	0.26354
2341.27725	0.26511
2339.34868	0.26646
2337.42012	0.26837
2335.49155	0.27051
2333.56299	0.27170
2331.63442	0.27256
2329.70586	0.27413
2327.77729	0.27625
2325.84873	0.27841
2323.92017	0.28044
2321.99160	0.28224
2320.06304	0.28391
2318.13447	0.28572
2316.20591	0.28756
2314.27734	0.28935
2312.34878	0.29121
2310.42021	0.29302
2308.49165	0.29459
2306.56309	0.29620
2304.63452	0.29815
2302.70596	0.30018
2300.77739	0.30198
2298.84883	0.30366
2296.92026	0.30546
2294.99170	0.30743
2293.06313	0.30948
2291.13457	0.31147
2289.20601	0.31339
2287.27744	0.31529
2285.34888	0.31717
2283.42031	0.31894
2281.49175	0.32067
2279.56318	0.32266
2277.63462	0.32484
2275.70605	0.32700
2273.77749	0.32911
2271.84893	0.33116
2269.92036	0.33316
2267.99180	0.33525
2266.06323	0.33744
2264.13467	0.33956
2262.20610	0.34160
2260.27754	0.34357
2258.34897	0.34570
2256.42041	0.34812
2254.49185	0.35058
2252.56328	0.35285
2250.63472	0.35498
2248.70615	0.35703
2246.77759	0.35906
2244.84902	0.36116
2242.92046	0.36331
2240.99189	0.36549
2239.06333	0.36776
2237.13477	0.37008
2235.20620	0.37242
2233.27764	0.37479
2231.34907	0.37705
2229.42051	0.37919
2227.49194	0.38141
2225.56338	0.38365
2223.63481	0.38576
2221.70625	0.38783
2219.77769	0.38996
2217.84912	0.39218
2215.92056	0.39452
2213.99199	0.39685
2212.06343	0.39899
2210.13486	0.40103
2208.20630	0.40311
2206.27773	0.40518
2204.34917	0.40720
2202.42061	0.40921
2200.49204	0.41122
2198.56348	0.41325
2196.63491	0.41531
2194.70635	0.41736
2192.77778	0.41933
2190.84922	0.42121
2188.92065	0.42310
2186.99209	0.42493
2185.06353	0.42662
2183.13496	0.42827
2181.20640	0.42991
2179.27783	0.43150
2177.34927	0.43311
2175.42070	0.43470
2173.49214	0.43624
2171.56357	0.43780
2169.63501	0.43932
2167.70645	0.44069
2165.77788	0.44185
2163.84932	0.44287
2161.92075	0.44385
2159.99219	0.44488
2158.06362	0.44594
2156.13506	0.44701
2154.20649	0.44795
2152.27793	0.44864
2150.34937	0.44920
2148.42080	0.44986
2146.49224	0.45051
2144.56367	0.45107
2142.63511	0.45154
2140.70654	0.45183
2138.77798	0.45199
2136.84941	0.45203
2134.92085	0.45196
2132.99229	0.45185
2131.06372	0.45167
2129.13516	0.45141
2127.20659	0.45115
2125.27803	0.45092
2123.34946	0.45070
2121.42090	0.45028
2119.49233	0.44959
2117.56377	0.44880
2115.63521	0.44801
2113.70664	0.44721
2111.77808	0.44629
2109.84951	0.44525
2107.92095	0.44423
2105.99238	0.44316
2104.06382	0.44191
2102.13525	0.44052
2100.20669	0.43913
2098.27812	0.43764
2096.34956	0.43602
2094.42100	0.43446
2092.49243	0.43293
2090.56387	0.43124
2088.63530	0.42933
2086.70674	0.42746
2084.77817	0.42569
2082.84961	0.42380
2080.92104	0.42169
2078.99248	0.41957
2077.06392	0.41758
2075.13535	0.41556
2073.20679	0.41333
2071.27822	0.41092
2069.34966	0.40849
2067.42109	0.40618
2065.49253	0.40402
2063.56396	0.40179
2061.63540	0.39936
2059.70684	0.39691
2057.77827	0.39449
2055.84971	0.39190
2053.92114	0.38914
2051.99258	0.38644
2050.06401	0.38370
2048.13545	0.38091
2046.20688	0.37818
2044.27832	0.37550
2042.34976	0.37287
2040.42119	0.37029
2038.49263	0.36762
2036.56406	0.36480
2034.63550	0.36194
2032.70693	0.35915
2030.77837	0.35649
2028.84980	0.35392
2026.92124	0.35121
2024.99268	0.34828
2023.06411	0.34536
2021.13555	0.34259
2019.20698	0.33993
2017.27842	0.33728
2015.34985	0.33453
2013.42129	0.33176
2011.49272	0.32909
2009.56416	0.32639
2007.63560	0.32353
2005.70703	0.32071
2003.77847	0.31800
2001.84990	0.31532
1999.92134	0.31270
1997.99277	0.31013
1996.06421	0.30768
1994.13564	0.30539
1992.20708	0.30305
1990.27852	0.30047
1988.34995	0.29782
1986.42139	0.29528
1984.49282	0.29296
1982.56426	0.29080
1980.63569	0.28854
1978.70713	0.28622
1976.77856	0.28399
1974.85000	0.28182
1972.92144	0.27961
1970.99287	0.27739
1969.06431	0.27521
1967.13574	0.27315
1965.20718	0.27117
1963.27861	0.26934
1961.35005	0.26760
1959.42148	0.26570
1957.49292	0.26377
1955.56436	0.26200
1953.63579	0.26034
1951.70723	0.25868
1949.77866	0.25707
1947.85010	0.25554
1945.92153	0.25412
1943.99297	0.25274
1942.06440	0.25126
1940.13584	0.24965
1938.20728	0.24813
1936.27871	0.24678
1934.35015	0.24548
1932.42158	0.24428
1930.49302	0.24316
1928.56445	0.24200
1926.63589	0.24080
1924.70732	0.23981
1922.77876	0.23901
1920.85020	0.23822
1918.92163	0.23741
1916.99307	0.23649
1915.06450	0.23551
1913.13594	0.23465
1911.20737	0.23392
1909.27881	0.23317
1907.35024	0.23241
1905.42168	0.23170
1903.49312	0.23105
1901.56455	0.23050
1899.63599	0.23011
1897.70742	0.22990
1895.77886	0.22967
1893.85029	0.22940
1891.92173	0.22911
1889.99316	0.22891
1888.06460	0.22859
1886.13604	0.22814
1884.20747	0.22784
1882.27891	0.22774
1880.35034	0.22767
1878.42178	0.22753
1876.49321	0.22744
1874.56465	0.22748
1872.63608	0.22764
1870.70752	0.22793
1868.77896	0.22854
1866.85039	0.22894
1864.92183	0.22884
1862.99326	0.22884
1861.06470	0.22912
1859.13613	0.22953
1857.20757	0.22989
1855.27900	0.23033
1853.35044	0.23080
1851.42187	0.23125
1849.49331	0.23177
1847.56475	0.23255
1845.63618	0.23349
1843.70762	0.23438
1841.77905	0.23503
1839.85049	0.23550
1837.92192	0.23635
1835.99336	0.23742
1834.06479	0.23852
1832.13623	0.23962
1830.20767	0.24094
1828.27910	0.24224
1826.35054	0.24322
1824.42197	0.24453
1822.49341	0.24592
1820.56484	0.24723
1818.63628	0.24863
1816.70771	0.25023
1814.77915	0.25185
1812.85059	0.25368
1810.92202	0.25582
1808.99346	0.25792
1807.06489	0.25978
1805.13633	0.26160
1803.20776	0.26380
1801.27920	0.26631
1799.35063	0.26907
1797.42207	0.27162
1795.49351	0.27408
1793.56494	0.27687
1791.63638	0.28039
1789.70781	0.28383
1787.77925	0.28651
1785.85068	0.28968
1783.92212	0.29350
1781.99355	0.29757
1780.06499	0.30171
1778.13643	0.30591
1776.20786	0.30991
1774.27930	0.31410
1772.35073	0.31962
1770.42217	0.32583
1768.49360	0.33128
1766.56504	0.33657
1764.63647	0.34205
1762.70791	0.34797
1760.77935	0.35537
1758.85078	0.36244
1756.92222	0.36966
1754.99365	0.37757
1753.06509	0.38467
1751.13652	0.39294
1749.20796	0.40338
1747.27939	0.41384
1745.35083	0.42312
1743.42227	0.43281
1741.49370	0.44335
1739.56514	0.45590
1737.63657	0.46862
1735.70801	0.47960
1733.77944	0.49592
1731.85088	0.51558
1729.92231	0.53122
1727.99375	0.54714
1726.06519	0.56429
1724.13662	0.58284
1722.20806	0.60275
1720.27949	0.62106
1718.35093	0.64236
1716.42236	0.67401
1714.49380	0.70449
1712.56523	0.72922
1710.63667	0.75313
1708.70811	0.77881
1706.77954	0.80788
1704.85098	0.84301
1702.92241	0.87482
1700.99385	0.90583
1699.06528	0.95153
1697.13672	0.99423
1695.20815	1.03855
1693.27959	1.08207
1691.35103	1.11772
1689.42246	1.15861
1687.49390	1.20090
1685.56533	1.24103
1683.63677	1.30415
1681.70820	1.37101
1679.77964	1.41335
1677.85107	1.45288
1675.92251	1.49896
1673.99395	1.55657
1672.06538	1.60784
1670.13682	1.65806
1668.20825	1.72296
1666.27969	1.77579
1664.35112	1.82116
1662.42256	1.87930
1660.49399	1.94568
1658.56543	1.99762
1656.63687	2.03882
1654.70830	2.07476
1652.77974	2.12929
1650.85117	2.18394
1648.92261	2.20422
1646.99404	2.22630
1645.06548	2.25130
1643.13691	2.26856
1641.20835	2.27742
1639.27979	2.28613
1637.35122	2.29245
1635.42266	2.29125
1633.49409	2.28198
1631.56553	2.26754
1629.63696	2.25012
1627.70840	2.22269
1625.77983	2.18974
1623.85127	2.14635
1621.92271	2.09358
1619.99414	2.04786
1618.06558	2.00422
1616.13701	1.94277
1614.20845	1.87992
1612.27988	1.83100
1610.35132	1.77939
1608.42275	1.72376
1606.49419	1.66956
1604.56562	1.62016
1602.63706	1.57279
1600.70850	1.52637
1598.77993	1.48306
1596.85137	1.44209
1594.92280	1.40267
1592.99424	1.36524
1591.06567	1.33131
1589.13711	1.29949
1587.20854	1.26992
1585.27998	1.24288
1583.35142	1.21772
1581.42285	1.19434
1579.49429	1.17399
1577.56572	1.15582
1575.63716	1.13458
1573.70859	1.11661
1571.78003	1.10507
1569.85146	1.09279
1567.92290	1.07943
1565.99434	1.06990
1564.06577	1.06293
1562.13721	1.05768
1560.20864	1.05418
1558.28008	1.05153
1556.35151	1.05143
1554.42295	1.05178
1552.49438	1.05156
1550.56582	1.04950
1548.63726	1.04471
1546.70869	1.03792
1544.78013	1.02877
1542.85156	1.01644
1540.92300	0.99869
1538.99443	0.97262
1537.06587	0.95422
1535.13730	0.94154
1533.20874	0.92423
1531.28018	0.90571
1529.35161	0.89222
1527.42305	0.87939
1525.49448	0.86600
1523.56592	0.85457
1521.63735	0.84385
1519.70879	0.83322
1517.78022	0.82414
1515.85166	0.81353
1513.92310	0.80248
1511.99453	0.79302
1510.06597	0.78444
1508.13740	0.77586
1506.20884	0.76240
1504.28027	0.75081
1502.35171	0.74463
1500.42314	0.73927
1498.49458	0.73326
1496.56602	0.72612
1494.63745	0.71931
1492.70889	0.71418
1490.78032	0.70955
1488.85176	0.70399
1486.92319	0.69870
1484.99463	0.69458
1483.06606	0.69137
1481.13750	0.68875
1479.20894	0.68675
1477.28037	0.68563
1475.35181	0.68510
1473.42324	0.68459
1471.49468	0.68337
1469.56611	0.68164
1467.63755	0.67982
1465.70898	0.67790
1463.78042	0.67598
1461.85186	0.67464
1459.92329	0.67396
1457.99473	0.67344
1456.06616	0.67241
1454.13760	0.67045
1452.20903	0.66792
1450.28047	0.66514
1448.35190	0.66255
1446.42334	0.65986
1444.49478	0.65699
1442.56621	0.65422
1440.63765	0.65155
1438.70908	0.64890
1436.78052	0.64564
1434.85195	0.64197
1432.92339	0.63919
1430.99482	0.63738
1429.06626	0.63625
1427.13770	0.63570
1425.20913	0.63578
1423.28057	0.63631
1421.35200	0.63671
1419.42344	0.63688
1417.49487	0.63665
1415.56631	0.63576
1413.63774	0.63497
1411.70918	0.63470
1409.78062	0.63508
1407.85205	0.63594
1405.92349	0.63691
1403.99492	0.63754
1402.06636	0.63757
1400.13779	0.63700
1398.20923	0.63563
1396.28066	0.63350
1394.35210	0.63049
1392.42354	0.62668
1390.49497	0.62275
1388.56641	0.61881
1386.63784	0.61435
1384.70928	0.60986
1382.78071	0.60586
1380.85215	0.60198
1378.92358	0.59829
1376.99502	0.59526
1375.06646	0.59320
1373.13789	0.59195
1371.20933	0.59116
1369.28076	0.59045
1367.35220	0.58950
1365.42363	0.58817
1363.49507	0.58658
1361.56650	0.58492
1359.63794	0.58341
1357.70937	0.58211
1355.78081	0.58086
1353.85225	0.57979
1351.92368	0.57903
1349.99512	0.57849
1348.06655	0.57797
1346.13799	0.57729
1344.20942	0.57649
1342.28086	0.57572
1340.35229	0.57511
1338.42373	0.57448
1336.49517	0.57371
1334.56660	0.57314
1332.63804	0.57297
1330.70947	0.57306
1328.78091	0.57326
1326.85234	0.57367
1324.92378	0.57428
1322.99521	0.57481
1321.06665	0.57517
1319.13809	0.57542
1317.20952	0.57552
1315.28096	0.57549
1313.35239	0.57530
1311.42383	0.57480
1309.49526	0.57405
1307.56670	0.57334
1305.63813	0.57281
1303.70957	0.57229
1301.78101	0.57159
1299.85244	0.57071
1297.92388	0.56969
1295.99531	0.56848
1294.06675	0.56709
1292.13818	0.56581
1290.20962	0.56484
1288.28105	0.56389
1286.35249	0.56269
1284.42393	0.56142
1282.49536	0.56029
1280.56680	0.55929
1278.63823	0.55828
1276.70967	0.55709
1274.78110	0.55596
1272.85254	0.55518
1270.92397	0.55453
1268.99541	0.55376
1267.06685	0.55287
1265.13828	0.55203
1263.20972	0.55135
1261.28115	0.55068
1259.35259	0.54996
1257.42402	0.54936
1255.49546	0.54891
1253.56689	0.54880
1251.63833	0.54908
1249.70977	0.54930
1247.78120	0.54913
1245.85264	0.54867
1243.92407	0.54806
1241.99551	0.54729
1240.06694	0.54632
1238.13838	0.54508
1236.20981	0.54348
1234.28125	0.54140
1232.35269	0.53911
1230.42412	0.53703
1228.49556	0.53521
1226.56699	0.53351
1224.63843	0.53199
1222.70986	0.53077
1220.78130	0.52966
1218.85273	0.52848
1216.92417	0.52726
1214.99561	0.52617
1213.06704	0.52531
1211.13848	0.52463
1209.20991	0.52398
1207.28135	0.52322
1205.35278	0.52228
1203.42422	0.52129
1201.49565	0.52026
1199.56709	0.51917
1197.63853	0.51829
1195.70996	0.51782
1193.78140	0.51753
1191.85283	0.51722
1189.92427	0.51692
1187.99570	0.51673
1186.06714	0.51675
1184.13857	0.51703
1182.21001	0.51751
1180.28145	0.51810
1178.35288	0.51883
1176.42432	0.51972
1174.49575	0.52068
1172.56719	0.52145
1170.63862	0.52184
1168.71006	0.52178
1166.78149	0.52142
1164.85293	0.52103
1162.92437	0.52063
1160.99580	0.52022
1159.06724	0.51969
1157.13867	0.51879
1155.21011	0.51751
1153.28154	0.51609
1151.35298	0.51466
1149.42441	0.51302
1147.49585	0.51085
1145.56729	0.50830
1143.63872	0.50575
1141.71016	0.50345
1139.78159	0.50150
1137.85303	0.49985
1135.92446	0.49855
1133.99590	0.49760
1132.06733	0.49675
1130.13877	0.49593
1128.21021	0.49518
1126.28164	0.49431
1124.35308	0.49322
1122.42451	0.49221
1120.49595	0.49148
1118.56738	0.49083
1116.63882	0.49006
1114.71025	0.48957
1112.78169	0.48960
1110.85312	0.48985
1108.92456	0.49022
1106.99600	0.49090
1105.06743	0.49197
1103.13887	0.49345
1101.21030	0.49522
1099.28174	0.49722
1097.35317	0.49962
1095.42461	0.50259
1093.49604	0.50612
1091.56748	0.51020
1089.63892	0.51484
1087.71035	0.51995
1085.78179	0.52554
1083.85322	0.53177
1081.92466	0.53814
1079.99609	0.54348
1078.06753	0.54688
1076.13896	0.54797
1074.21040	0.54636
1072.28184	0.54209
1070.35327	0.53624
1068.42471	0.52960
1066.49614	0.52265
1064.56758	0.51614
1062.63901	0.51040
1060.71045	0.50533
1058.78188	0.50076
1056.85332	0.49660
1054.92476	0.49292
1052.99619	0.48988
1051.06763	0.48729
1049.13906	0.48491
1047.21050	0.48281
1045.28193	0.48110
1043.35337	0.47979
1041.42480	0.47867
1039.49624	0.47751
1037.56768	0.47647
1035.63911	0.47574
1033.71055	0.47542
1031.78198	0.47542
1029.85342	0.47528
1027.92485	0.47481
1025.99629	0.47444
1024.06772	0.47452
1022.13916	0.47496
1020.21060	0.47564
1018.28203	0.47654
1016.35347	0.47742
1014.42490	0.47816
1012.49634	0.47900
1010.56777	0.48029
1008.63921	0.48193
1006.71064	0.48368
1004.78208	0.48564
1002.85352	0.48792
1000.92495	0.49049
998.99639	0.49352
997.06782	0.49712
995.13926	0.50120
993.21069	0.50535
991.28213	0.50896
989.35356	0.51155
987.42500	0.51314
985.49644	0.51415
983.56787	0.51492
981.63931	0.51570
979.71074	0.51676
977.78218	0.51846
975.85361	0.52088
973.92505	0.52368
971.99648	0.52679
970.06792	0.53037
968.13936	0.53437
966.21079	0.53876
964.28223	0.54342
962.35366	0.54805
960.42510	0.55288
958.49653	0.55844
956.56797	0.56447
954.63940	0.57027
952.71084	0.57598
950.78228	0.58232
948.85371	0.58890
946.92515	0.59510
944.99658	0.60128
943.06802	0.60766
941.13945	0.61393
939.21089	0.61980
937.28232	0.62551
935.35376	0.63161
933.42520	0.63803
931.49663	0.64421
929.56807	0.65030
927.63950	0.65658
925.71094	0.66243
923.78237	0.66778
921.85381	0.67353
919.92524	0.68011
917.99668	0.68661
916.06812	0.69289
914.13955	0.70021
912.21099	0.70830
910.28242	0.71610
908.35386	0.72393
906.42529	0.73259
904.49673	0.74223
902.56816	0.75177
900.63960	0.76060
898.71104	0.76967
896.78247	0.77937
894.85391	0.78946
892.92534	0.80092
890.99678	0.81278
889.06821	0.82200
887.13965	0.82966
885.21108	0.83939
883.28252	0.85121
881.35396	0.86248
879.42539	0.87388
877.49683	0.88761
875.56826	0.90095
873.63970	0.91221
871.71113	0.92424
869.78257	0.93652
867.85400	0.94690
865.92544	0.95763
863.99687	0.97070
862.06831	0.98313
860.13975	0.99240
858.21118	1.00148
856.28262	1.01279
854.35405	1.02508
852.42549	1.03680
850.49692	1.04851
848.56836	1.06204
846.63979	1.07579
844.71123	1.08723
842.78267	1.09786
840.85410	1.10961
838.92554	1.12187
836.99697	1.13413
835.06841	1.14509
833.13984	1.15227
831.21128	1.15877
829.28271	1.16867
827.35415	1.17677
825.42559	1.18043
823.49702	1.18748
821.56846	1.19673
819.63989	1.20353
817.71133	1.21313
815.78276	1.22333
813.85420	1.22783
811.92563	1.22912
809.99707	1.22736
808.06851	1.22182
806.13994	1.22415
804.21138	1.24106
802.28281	1.26208
800.35425	1.27884
798.42568	1.27729
796.49712	1.24271
794.56855	1.19861
792.63999	1.17331
790.71143	1.18270
788.78286	1.22176
786.85430	1.24679
784.92573	1.24546
782.99717	1.22760
781.06860	1.19751
779.14004	1.20414
777.21147	1.27162
775.28291	1.33388
773.35435	1.25728
771.42578	1.11865
769.49722	1.05066
767.56865	1.04744
765.64009	1.04249
763.71152	1.03257
761.78296	1.07613
759.85439	1.13193
757.92583	1.08281
755.99727	1.00574
754.06870	0.98516
752.14014	0.99236
750.21157	0.94825
748.28301	0.86592
746.35444	0.81316
744.42588	0.76966
742.49731	0.69815
740.56875	0.62811
738.64019	0.58661
736.71162	0.56038
734.78306	0.52225
732.85449	0.44267
730.92593	0.31099
728.99736	0.14074
727.06880	-0.12637
725.14023	-1.15042
723.21167	4.33927
721.28311	4.32770
719.35454	4.31613
717.42598	-0.68513
715.49741	-0.30168
713.56885	-0.07162
711.64028	0.01930
709.71172	0.03159
707.78315	0.04874
705.85459	0.10947
703.92603	0.19586
701.99746	0.28194
700.06890	0.33944
698.14033	0.40457
696.21177	0.41261
694.28320	0.35611
692.35464	0.31591
690.42607	0.25284
688.49751	0.17177
686.56895	0.14505
684.64038	0.15946
682.71182	0.15299
680.78325	0.14371
678.85469	0.18402
676.92612	0.30374
674.99756	0.43481
673.06899	0.39612
671.14043	0.29342
669.21187	0.28667
667.28330	0.27891
665.35474	0.22553
663.42617	0.18106
661.49761	0.18234
659.56904	0.22104
657.64048	0.24736
655.71191	0.26036
653.78335	0.30571
651.85479	0.36705
649.92622	0.36443
647.99766	0.31100
646.06909	0.26226
644.14053	0.23023
642.21196	0.19924
640.28340	0.18905
638.35483	0.22028
636.42627	0.24991
634.49771	0.25602
632.56914	0.25784
630.64058	0.28736
628.71201	0.32282
626.78345	0.28957
624.85488	0.20571
622.92632	0.15746
620.99775	0.17699
619.06919	0.24859
617.14062	0.30149
615.21206	0.30388
613.28350	0.28131
611.35493	0.27358
609.42637	0.29357
607.49780	0.30284
605.56924	0.27735
603.64067	0.25304
601.71211	0.24053
599.78354	0.25405
597.85498	0.26515
595.92642	0.21023
593.99785	0.18866
592.06929	0.26240
590.14072	0.30149
588.21216	0.26871
586.28359	0.28188
584.35503	0.32638
582.42646	0.30222
580.49790	0.23635
578.56934	0.20726
576.64077	0.21816
574.71221	0.25813
572.78364	0.29566
570.85508	0.27405
568.92651	0.26331
566.99795	0.32812
565.06938	0.38675
563.14082	0.32371
561.21226	0.24283
559.28369	0.22746
557.35513	0.25944
555.42656	0.23903
553.49800	0.19507
551.56943	0.19335
549.64087	0.20130
547.71230	0.19459
545.78374	0.18995
543.85518	0.17332
541.92661	0.16949
539.99805	0.21474
538.06948	0.23637
536.14092	0.20981
534.21235	0.23051
532.28379	0.27254
530.35522	0.24620
528.42666	0.22984
526.49810	0.22127
524.56953	0.16948
522.64097	0.14380
520.71240	0.18982
518.78384	0.26222
516.85527	0.33140
514.92671	0.37429
512.99814	0.31503
511.06958	0.25243
509.14102	0.24387
507.21245	0.26607
505.28389	0.28394
503.35532	0.27473
501.42676	0.24645
499.49819	0.20496
