3997.91411	0.06359
3995.98555	0.06395
3994.05698	0.06387
3992.12842	0.06372
3990.19985	0.06425
3988.27129	0.06520
3986.34272	0.06576
3984.41416	0.06598
3982.48560	0.06600
3980.55703	0.06573
3978.62847	0.06536
3976.69990	0.06547
3974.77134	0.06616
3972.84277	0.06669
3970.91421	0.06674
3968.98564	0.06666
3967.05708	0.06671
3965.12852	0.06714
3963.19995	0.06774
3961.27139	0.06789
3959.34282	0.06753
3957.41426	0.06714
3955.48569	0.06714
3953.55713	0.06744
3951.62856	0.06773
3949.70000	0.06811
3947.77144	0.06843
3945.84287	0.06814
3943.91431	0.06763
3941.98574	0.06765
3940.05718	0.06798
3938.12861	0.06822
3936.20005	0.06832
3934.27148	0.06823
3932.34292	0.06804
3930.41436	0.06800
3928.48579	0.06817
3926.55723	0.06834
3924.62866	0.06822
3922.70010	0.06766
3920.77153	0.06703
3918.84297	0.06669
3916.91440	0.06675
3914.98584	0.06708
3913.05728	0.06696
3911.12871	0.06632
3909.20015	0.06587
3907.27158	0.06607
3905.34302	0.06695
3903.41445	0.06781
3901.48589	0.06755
3899.55732	0.06700
3897.62876	0.06714
3895.70020	0.06725
3893.77163	0.06695
3891.84307	0.06645
3889.91450	0.06593
3887.98594	0.06548
3886.05737	0.06562
3884.12881	0.06655
3882.20024	0.06748
3880.27168	0.06819
3878.34312	0.06833
3876.41455	0.06782
3874.48599	0.06788
3872.55742	0.06840
3870.62886	0.06865
3868.70029	0.06884
3866.77173	0.06851
3864.84316	0.06802
3862.91460	0.06844
3860.98604	0.06928
3859.05747	0.06973
3857.12891	0.06989
3855.20034	0.06998
3853.27178	0.07054
3851.34321	0.07192
3849.41465	0.07244
3847.48608	0.07227
3845.55752	0.07250
3843.62896	0.07347
3841.70039	0.07479
3839.77183	0.07591
3837.84326	0.07636
3835.91470	0.07619
3833.98613	0.07632
3832.05757	0.07671
3830.12900	0.07719
3828.20044	0.07790
3826.27187	0.07878
3824.34331	0.07956
3822.41475	0.08031
3820.48618	0.08186
3818.55762	0.08327
3816.62905	0.08370
3814.70049	0.08432
3812.77192	0.08500
3810.84336	0.08541
3808.91479	0.08587
3806.98623	0.08685
3805.05767	0.08833
3803.12910	0.08970
3801.20054	0.09125
3799.27197	0.09233
3797.34341	0.09277
3795.41484	0.09375
3793.48628	0.09481
3791.55771	0.09580
3789.62915	0.09682
3787.70059	0.09767
3785.77202	0.09905
3783.84346	0.10091
3781.91489	0.10233
3779.98633	0.10384
3778.05776	0.10605
3776.12920	0.10789
3774.20063	0.10905
3772.27207	0.11023
3770.34351	0.11163
3768.41494	0.11343
3766.48638	0.11565
3764.55781	0.11793
3762.62925	0.11979
3760.70068	0.12165
3758.77212	0.12426
3756.84355	0.12694
3754.91499	0.12896
3752.98643	0.13106
3751.05786	0.13407
3749.12930	0.13763
3747.20073	0.13959
3745.27217	0.14129
3743.34360	0.14557
3741.41504	0.15002
3739.48647	0.15262
3737.55791	0.15538
3735.62935	0.15941
3733.70078	0.16472
3731.77222	0.17003
3729.84365	0.17436
3727.91509	0.17800
3725.98652	0.18253
3724.05796	0.18889
3722.12939	0.19616
3720.20083	0.20335
3718.27227	0.21014
3716.34370	0.21705
3714.41514	0.22444
3712.48657	0.23334
3710.55801	0.24566
3708.62944	0.25941
3706.70088	0.27125
3704.77231	0.28221
3702.84375	0.29428
3700.91519	0.30982
3698.98662	0.32773
3697.05806	0.34530
3695.12949	0.36364
3693.20093	0.38272
3691.27236	0.40295
3689.34380	0.42894
3687.41523	0.46244
3685.48667	0.49329
3683.55811	0.51956
3681.62954	0.54703
3679.70098	0.57788
3677.77241	0.60998
3675.84385	0.64726
3673.91528	0.69850
3671.98672	0.74188
3670.05815	0.77975
3668.12959	0.83091
3666.20103	0.87889
3664.27246	0.91984
3662.34390	0.96301
3660.41533	1.00868
3658.48677	1.05358
3656.55820	1.10157
3654.62964	1.15535
3652.70107	1.20060
3650.77251	1.23927
3648.84395	1.29258
3646.91538	1.35984
3644.98682	1.41080
3643.05825	1.44983
3641.12969	1.48913
3639.20112	1.53219
3637.27256	1.57519
3635.34399	1.61691
3633.41543	1.65921
3631.48687	1.69928
3629.55830	1.73941
3627.62974	1.79145
3625.70117	1.84113
3623.77261	1.87591
3621.84404	1.90955
3619.91548	1.94798
3617.98691	1.99359
3616.05835	2.03659
3614.12979	2.07220
3612.20122	2.11020
3610.27266	2.14966
3608.34409	2.18955
3606.41553	2.23172
3604.48696	2.27135
3602.55840	2.30688
3600.62983	2.34520
3598.70127	2.38665
3596.77271	2.42662
3594.84414	2.46705
3592.91558	2.50909
3590.98701	2.54891
3589.05845	2.58566
3587.12988	2.62862
3585.20132	2.67639
3583.27275	2.71839
3581.34419	2.75830
3579.41562	2.80019
3577.48706	2.84288
3575.55850	2.88557
3573.62993	2.92883
3571.70137	2.97030
3569.77280	3.01021
3567.84424	3.05298
3565.91567	3.10483
3563.98711	3.15381
3562.05854	3.19211
3560.12998	3.23219
3558.20142	3.27972
3556.27285	3.33015
3554.34429	3.37604
3552.41572	3.41987
3550.48716	3.46777
3548.55859	3.51757
3546.63003	3.56417
3544.70146	3.60829
3542.77290	3.65224
3540.84434	3.69600
3538.91577	3.73997
3536.98721	3.78642
3535.05864	3.83846
3533.13008	3.89129
3531.20151	3.94004
3529.27295	3.98384
3527.34438	4.02612
3525.41582	4.07241
3523.48726	4.12301
3521.55869	4.17508
3519.63013	4.22403
3517.70156	4.27011
3515.77300	4.31385
3513.84443	4.35671
3511.91587	4.40362
3509.98730	4.45472
3508.05874	4.50791
3506.13018	4.56006
3504.20161	4.60404
3502.27305	4.64211
3500.34448	4.68872
3498.41592	4.74642
3496.48735	4.80364
3494.55879	4.85228
3492.63022	4.89642
3490.70166	4.94379
3488.77310	4.99298
3486.84453	5.03642
3484.91597	5.07524
3482.98740	5.11990
3481.05884	5.17231
3479.13027	5.22821
3477.20171	5.28951
3475.27314	5.34452
3473.34458	5.38554
3471.41602	5.43298
3469.48745	5.49007
3467.55889	5.53913
3465.63032	5.58002
3463.70176	5.62344
3461.77319	5.66504
3459.84463	5.70358
3457.91606	5.75006
3455.98750	5.80500
3454.05894	5.86362
3452.13037	5.92526
3450.20181	5.97635
3448.27324	6.01116
3446.34468	6.05656
3444.41611	6.11354
3442.48755	6.16382
3440.55898	6.21602
3438.63042	6.27351
3436.70186	6.32210
3434.77329	6.36022
3432.84473	6.39247
3430.91616	6.42946
3428.98760	6.47893
3427.05903	6.52299
3425.13047	6.57298
3423.20190	6.62755
3421.27334	6.67409
3419.34478	6.73252
3417.41621	6.79152
3415.48765	6.83189
3413.55908	6.86290
3411.63052	6.90239
3409.70195	6.95883
3407.77339	7.01177
3405.84482	7.03328
3403.91626	7.04771
3401.98770	7.05219
3400.05913	7.05366
3398.13057	7.11156
3396.20200	7.20475
3394.27344	7.26897
3392.34487	7.29114
3390.41631	7.32463
3388.48774	7.39018
3386.55918	7.44984
3384.63062	7.47142
3382.70205	7.47771
3380.77349	7.52492
3378.84492	7.57991
3376.91636	7.58663
3374.98779	7.58317
3373.05923	7.62084
3371.13066	7.69462
3369.20210	7.78096
3367.27354	7.80470
3365.34497	7.78363
3363.41641	7.81895
3361.48784	7.84607
3359.55928	7.80874
3357.63071	7.77733
3355.70215	7.77998
3353.77358	7.78995
3351.84502	7.81386
3349.91646	7.87535
3347.98789	7.95980
3346.05933	8.00193
3344.13076	7.97633
3342.20220	7.91673
3340.27363	7.88697
3338.34507	7.95390
3336.41650	8.03043
3334.48794	8.02868
3332.55937	8.03906
3330.63081	8.07292
3328.70225	8.03378
3326.77368	7.96648
3324.84512	7.94514
3322.91655	7.96409
3320.98799	8.01534
3319.05942	8.07329
3317.13086	8.11329
3315.20229	8.06315
3313.27373	7.95812
3311.34517	7.97516
3309.41660	8.14391
3307.48804	8.27445
3305.55947	8.26888
3303.63091	8.25782
3301.70234	8.26053
3299.77378	8.19328
3297.84521	8.09203
3295.91665	8.07607
3293.98809	8.14116
3292.05952	8.20099
3290.13096	8.16956
3288.20239	8.11418
3286.27383	8.13999
3284.34526	8.12647
3282.41670	8.06007
3280.48813	8.07499
3278.55957	8.16901
3276.63101	8.26500
3274.70244	8.34112
3272.77388	8.31974
3270.84531	8.18226
3268.91675	8.09599
3266.98818	8.10564
3265.05962	8.21307
3263.13105	8.37122
3261.20249	8.37519
3259.27393	8.23982
3257.34536	8.16484
3255.41680	8.18033
3253.48823	8.25016
3251.55967	8.33545
3249.63110	8.31305
3247.70254	8.19318
3245.77397	8.10369
3243.84541	8.06582
3241.91685	8.06292
3239.98828	8.04008
3238.05972	7.94119
3236.13115	7.87203
3234.20259	7.96334
3232.27402	8.17963
3230.34546	8.28403
3228.41689	8.18406
3226.48833	8.09219
3224.55977	8.07808
3222.63120	8.04201
3220.70264	7.96241
3218.77407	7.91608
3216.84551	7.90246
3214.91694	7.88422
3212.98838	7.85324
3211.05981	7.80642
3209.13125	7.74751
3207.20269	7.69305
3205.27412	7.70155
3203.34556	7.74580
3201.41699	7.73150
3199.48843	7.66448
3197.55986	7.60271
3195.63130	7.59853
3193.70273	7.62762
3191.77417	7.58743
3189.84561	7.51847
3187.91704	7.51464
3185.98848	7.50867
3184.05991	7.44856
3182.13135	7.37100
3180.20278	7.29194
3178.27422	7.24444
3176.34565	7.21226
3174.41709	7.14297
3172.48853	7.07848
3170.55996	7.05648
3168.63140	7.03705
3166.70283	6.98517
3164.77427	6.91824
3162.84570	6.84781
3160.91714	6.75937
3158.98857	6.67400
3157.06001	6.60079
3155.13145	6.52205
3153.20288	6.45026
3151.27432	6.39617
3149.34575	6.33810
3147.41719	6.26098
3145.48862	6.19415
3143.56006	6.15322
3141.63149	6.10134
3139.70293	6.02389
3137.77437	5.94331
3135.84580	5.86797
3133.91724	5.80114
3131.98867	5.73744
3130.06011	5.66354
3128.13154	5.58280
3126.20298	5.50753
3124.27441	5.44848
3122.34585	5.39989
3120.41729	5.34079
3118.48872	5.26658
3116.56016	5.19016
3114.63159	5.11476
3112.70303	5.03962
3110.77446	4.96759
3108.84590	4.89551
3106.91733	4.82390
3104.98877	4.75820
3103.06021	4.69498
3101.13164	4.62704
3099.20308	4.55798
3097.27451	4.49316
3095.34595	4.43119
3093.41738	4.37063
3091.48882	4.30983
3089.56025	4.24556
3087.63169	4.17576
3085.70312	4.10581
3083.77456	4.04466
3081.84600	3.99161
3079.91743	3.93752
3077.98887	3.87738
3076.06030	3.81403
3074.13174	3.75216
3072.20317	3.69364
3070.27461	3.63717
3068.34604	3.58002
3066.41748	3.52189
3064.48892	3.46531
3062.56035	3.41101
3060.63179	3.35820
3058.70322	3.30483
3056.77466	3.24984
3054.84609	3.19523
3052.91753	3.14258
3050.98896	3.09278
3049.06040	3.04357
3047.13184	2.99125
3045.20327	2.93740
3043.27471	2.88621
3041.34614	2.83876
3039.41758	2.79331
3037.48901	2.74774
3035.56045	2.70125
3033.63188	2.65504
3031.70332	2.60891
3029.77476	2.56226
3027.84619	2.51733
3025.91763	2.47409
3023.98906	2.43080
3022.06050	2.38832
3020.13193	2.34726
3018.20337	2.30703
3016.27480	2.26713
3014.34624	2.22718
3012.41768	2.18770
3010.48911	2.14932
3008.56055	2.11182
3006.63198	2.07490
3004.70342	2.03868
3002.77485	2.00294
3000.84629	1.96771
2998.91772	1.93410
2996.98916	1.90233
2995.06060	1.87096
2993.13203	1.83921
2991.20347	1.80786
2989.27490	1.77796
2987.34634	1.74896
2985.41777	1.71997
2983.48921	1.69173
2981.56064	1.66501
2979.63208	1.63926
2977.70352	1.61375
2975.77495	1.58834
2973.84639	1.56316
2971.91782	1.53848
2969.98926	1.51449
2968.06069	1.49117
2966.13213	1.46809
2964.20356	1.44454
2962.27500	1.42076
2960.34644	1.39761
2958.41787	1.37450
2956.48931	1.35046
2954.56074	1.32631
2952.63218	1.30303
2950.70361	1.28013
2948.77505	1.25712
2946.84648	1.23478
2944.91792	1.21361
2942.98936	1.19295
2941.06079	1.17271
2939.13223	1.15303
2937.20366	1.13344
2935.27510	1.11392
2933.34653	1.09416
2931.41797	1.07415
2929.48940	1.05462
2927.56084	1.03581
2925.63228	1.01748
2923.70371	0.99931
2921.77515	0.98118
2919.84658	0.96315
2917.91802	0.94507
2915.98945	0.92740
2914.06089	0.91082
2912.13232	0.89467
2910.20376	0.87832
2908.27520	0.86219
2906.34663	0.84671
2904.41807	0.83179
2902.48950	0.81701
2900.56094	0.80208
2898.63237	0.78752
2896.70381	0.77410
2894.77524	0.76170
2892.84668	0.74935
2890.91812	0.73677
2888.98955	0.72482
2887.06099	0.71409
2885.13242	0.70402
2883.20386	0.69381
2881.27529	0.68357
2879.34673	0.67386
2877.41816	0.66457
2875.48960	0.65513
2873.56104	0.64515
2871.63247	0.63453
2869.70391	0.62341
2867.77534	0.61196
2865.84678	0.60010
2863.91821	0.58808
2861.98965	0.57643
2860.06108	0.56512
2858.13252	0.55412
2856.20396	0.54378
2854.27539	0.53408
2852.34683	0.52491
2850.41826	0.51624
2848.48970	0.50780
2846.56113	0.49931
2844.63257	0.49103
2842.70400	0.48364
2840.77544	0.47704
2838.84687	0.47047
2836.91831	0.46385
2834.98975	0.45745
2833.06118	0.45107
2831.13262	0.44464
2829.20405	0.43834
2827.27549	0.43221
2825.34692	0.42619
2823.41836	0.42026
2821.48979	0.41453
2819.56123	0.40883
2817.63267	0.40280
2815.70410	0.39669
2813.77554	0.39091
2811.84697	0.38533
2809.91841	0.37958
2807.98984	0.37377
2806.06128	0.36843
2804.13271	0.36353
2802.20415	0.35844
2800.27559	0.35325
2798.34702	0.34833
2796.41846	0.34348
2794.48989	0.33853
2792.56133	0.33363
2790.63276	0.32887
2788.70420	0.32438
2786.77563	0.32011
2784.84707	0.31586
2782.91851	0.31165
2780.98994	0.30749
2779.06138	0.30339
2777.13281	0.29939
2775.20425	0.29549
2773.27568	0.29170
2771.34712	0.28795
2769.41855	0.28414
2767.48999	0.28029
2765.56143	0.27648
2763.63286	0.27288
2761.70430	0.26954
2759.77573	0.26638
2757.84717	0.26325
2755.91860	0.26014
2753.99004	0.25704
2752.06147	0.25383
2750.13291	0.25065
2748.20435	0.24769
2746.27578	0.24488
2744.34722	0.24211
2742.41865	0.23927
2740.49009	0.23643
2738.56152	0.23372
2736.63296	0.23095
2734.70439	0.22806
2732.77583	0.22558
2730.84727	0.22356
2728.91870	0.22146
2726.99014	0.21911
2725.06157	0.21669
2723.13301	0.21435
2721.20444	0.21218
2719.27588	0.21010
2717.34731	0.20805
2715.41875	0.20607
2713.49019	0.20415
2711.56162	0.20229
2709.63306	0.20048
2707.70449	0.19867
2705.77593	0.19699
2703.84736	0.19560
2701.91880	0.19431
2699.99023	0.19280
2698.06167	0.19101
2696.13311	0.18919
2694.20454	0.18765
2692.27598	0.18648
2690.34741	0.18548
2688.41885	0.18432
2686.49028	0.18290
2684.56172	0.18155
2682.63315	0.18043
2680.70459	0.17931
2678.77603	0.17812
2676.84746	0.17688
2674.91890	0.17555
2672.99033	0.17432
2671.06177	0.17333
2669.13320	0.17233
2667.20464	0.17118
2665.27607	0.17012
2663.34751	0.16921
2661.41895	0.16822
2659.49038	0.16723
2657.56182	0.16643
2655.63325	0.16574
2653.70469	0.16500
2651.77612	0.16421
2649.84756	0.16344
2647.91899	0.16277
2645.99043	0.16223
2644.06187	0.16165
2642.13330	0.16092
2640.20474	0.16022
2638.27617	0.15978
2636.34761	0.15954
2634.41904	0.15919
2632.49048	0.15862
2630.56191	0.15796
2628.63335	0.15743
2626.70479	0.15704
2624.77622	0.15665
2622.84766	0.15624
2620.91909	0.15588
2618.99053	0.15559
2617.06196	0.15540
2615.13340	0.15524
2613.20483	0.15496
2611.27627	0.15467
2609.34771	0.15436
2607.41914	0.15404
2605.49058	0.15389
2603.56201	0.15386
2601.63345	0.15380
2599.70488	0.15375
2597.77632	0.15372
2595.84775	0.15361
2593.91919	0.15341
2591.99062	0.15336
2590.06206	0.15359
2588.13350	0.15391
2586.20493	0.15417
2584.27637	0.15443
2582.34780	0.15466
2580.41924	0.15484
2578.49067	0.15498
2576.56211	0.15509
2574.63354	0.15531
2572.70498	0.15558
2570.77642	0.15572
2568.84785	0.15591
2566.91929	0.15637
2564.99072	0.15704
2563.06216	0.15766
2561.13359	0.15808
2559.20503	0.15830
2557.27646	0.15849
2555.34790	0.15891
2553.41934	0.15939
2551.49077	0.15973
2549.56221	0.16018
2547.63364	0.16092
2545.70508	0.16158
2543.77651	0.16190
2541.84795	0.16220
2539.91938	0.16278
2537.99082	0.16348
2536.06226	0.16420
2534.13369	0.16487
2532.20513	0.16554
2530.27656	0.16627
2528.34800	0.16697
2526.41943	0.16766
2524.49087	0.16836
2522.56230	0.16902
2520.63374	0.16967
2518.70518	0.17037
2516.77661	0.17111
2514.84805	0.17188
2512.91948	0.17258
2510.99092	0.17314
2509.06235	0.17374
2507.13379	0.17448
2505.20522	0.17530
2503.27666	0.17621
2501.34810	0.17715
2499.41953	0.17788
2497.49097	0.17845
2495.56240	0.17920
2493.63384	0.18016
2491.70527	0.18108
2489.77671	0.18190
2487.84814	0.18267
2485.91958	0.18342
2483.99102	0.18428
2482.06245	0.18515
2480.13389	0.18591
2478.20532	0.18661
2476.27676	0.18743
2474.34819	0.18834
2472.41963	0.18915
2470.49106	0.18996
2468.56250	0.19091
2466.63394	0.19185
2464.70537	0.19277
2462.77681	0.19370
2460.84824	0.19459
2458.91968	0.19553
2456.99111	0.19657
2455.06255	0.19747
2453.13398	0.19818
2451.20542	0.19900
2449.27686	0.19999
2447.34829	0.20093
2445.41973	0.20192
2443.49116	0.20303
2441.56260	0.20405
2439.63403	0.20498
2437.70547	0.20587
2435.77690	0.20673
2433.84834	0.20766
2431.91978	0.20862
2429.99121	0.20961
2428.06265	0.21064
2426.13408	0.21166
2424.20552	0.21271
2422.27695	0.21386
2420.34839	0.21499
2418.41982	0.21605
2416.49126	0.21722
2414.56270	0.21847
2412.63413	0.21961
2410.70557	0.22067
2408.77700	0.22173
2406.84844	0.22270
2404.91987	0.22369
2402.99131	0.22481
2401.06274	0.22598
2399.13418	0.22722
2397.20562	0.22852
2395.27705	0.22982
2393.34849	0.23107
2391.41992	0.23226
2389.49136	0.23340
2387.56279	0.23456
2385.63423	0.23581
2383.70566	0.23727
2381.77710	0.23877
2379.84854	0.24007
2377.91997	0.24126
2375.99141	0.24231
2374.06284	0.24333
2372.13428	0.24488
2370.20571	0.24711
2368.27715	0.24913
2366.34858	0.25035
2364.42002	0.25186
2362.49146	0.25418
2360.56289	0.25525
2358.63433	0.25497
2356.70576	0.25618
2354.77720	0.25896
2352.84863	0.26143
2350.92007	0.26294
2348.99150	0.26390
2347.06294	0.26491
2345.13437	0.26651
2343.20581	0.26862
2341.27725	0.27008
2339.34868	0.27098
2337.42012	0.27253
2335.49155	0.27461
2333.56299	0.27604
2331.63442	0.27722
2329.70586	0.27902
2327.77729	0.28101
2325.84873	0.28235
2323.92017	0.28309
2321.99160	0.28438
2320.06304	0.28674
2318.13447	0.28929
2316.20591	0.29138
2314.27734	0.29306
2312.34878	0.29458
2310.42021	0.29628
2308.49165	0.29817
2306.56309	0.29999
2304.63452	0.30167
2302.70596	0.30337
2300.77739	0.30508
2298.84883	0.30678
2296.92026	0.30858
2294.99170	0.31045
2293.06313	0.31226
2291.13457	0.31405
2289.20601	0.31589
2287.27744	0.31778
2285.34888	0.31972
2283.42031	0.32166
2281.49175	0.32354
2279.56318	0.32549
2277.63462	0.32759
2275.70605	0.32971
2273.77749	0.33178
2271.84893	0.33386
2269.92036	0.33592
2267.99180	0.33798
2266.06323	0.34014
2264.13467	0.34220
2262.20610	0.34412
2260.27754	0.34619
2258.34897	0.34846
2256.42041	0.35073
2254.49185	0.35293
2252.56328	0.35510
2250.63472	0.35728
2248.70615	0.35944
2246.77759	0.36160
2244.84902	0.36381
2242.92046	0.36600
2240.99189	0.36817
2239.06333	0.37030
2237.13477	0.37248
2235.20620	0.37483
2233.27764	0.37723
2231.34907	0.37947
2229.42051	0.38148
2227.49194	0.38337
2225.56338	0.38540
2223.63481	0.38764
2221.70625	0.39004
2219.77769	0.39250
2217.84912	0.39479
2215.92056	0.39685
2213.99199	0.39885
2212.06343	0.40100
2210.13486	0.40326
2208.20630	0.40540
2206.27773	0.40734
2204.34917	0.40920
2202.42061	0.41121
2200.49204	0.41343
2198.56348	0.41555
2196.63491	0.41745
2194.70635	0.41940
2192.77778	0.42144
2190.84922	0.42325
2188.92065	0.42492
2186.99209	0.42673
2185.06353	0.42861
2183.13496	0.43040
2181.20640	0.43205
2179.27783	0.43353
2177.34927	0.43501
2175.42070	0.43658
2173.49214	0.43820
2171.56357	0.43979
2169.63501	0.44117
2167.70645	0.44237
2165.77788	0.44355
2163.84932	0.44474
2161.92075	0.44590
2159.99219	0.44694
2158.06362	0.44777
2156.13506	0.44861
2154.20649	0.44953
2152.27793	0.45042
2150.34937	0.45116
2148.42080	0.45169
2146.49224	0.45205
2144.56367	0.45243
2142.63511	0.45289
2140.70654	0.45331
2138.77798	0.45357
2136.84941	0.45370
2134.92085	0.45377
2132.99229	0.45369
2131.06372	0.45346
2129.13516	0.45330
2127.20659	0.45316
2125.27803	0.45273
2123.34946	0.45202
2121.42090	0.45137
2119.49233	0.45087
2117.56377	0.45032
2115.63521	0.44960
2113.70664	0.44873
2111.77808	0.44785
2109.84951	0.44697
2107.92095	0.44587
2105.99238	0.44452
2104.06382	0.44320
2102.13525	0.44194
2100.20669	0.44064
2098.27812	0.43923
2096.34956	0.43773
2094.42100	0.43616
2092.49243	0.43445
2090.56387	0.43266
2088.63530	0.43086
2086.70674	0.42905
2084.77817	0.42725
2082.84961	0.42549
2080.92104	0.42352
2078.99248	0.42133
2077.06392	0.41914
2075.13535	0.41698
2073.20679	0.41473
2071.27822	0.41239
2069.34966	0.40999
2067.42109	0.40751
2065.49253	0.40512
2063.56396	0.40289
2061.63540	0.40057
2059.70684	0.39801
2057.77827	0.39538
2055.84971	0.39296
2053.92114	0.39060
2051.99258	0.38798
2050.06401	0.38512
2048.13545	0.38234
2046.20688	0.37966
2044.27832	0.37697
2042.34976	0.37428
2040.42119	0.37163
2038.49263	0.36900
2036.56406	0.36634
2034.63550	0.36360
2032.70693	0.36084
2030.77837	0.35804
2028.84980	0.35514
2026.92124	0.35230
2024.99268	0.34957
2023.06411	0.34684
2021.13555	0.34408
2019.20698	0.34136
2017.27842	0.33872
2015.34985	0.33604
2013.42129	0.33331
2011.49272	0.33055
2009.56416	0.32775
2007.63560	0.32493
2005.70703	0.32215
2003.77847	0.31944
2001.84990	0.31687
1999.92134	0.31438
1997.99277	0.31181
1996.06421	0.30924
1994.13564	0.30677
1992.20708	0.30423
1990.27852	0.30158
1988.34995	0.29914
1986.42139	0.29683
1984.49282	0.29441
1982.56426	0.29199
1980.63569	0.28972
1978.70713	0.28756
1976.77856	0.28545
1974.85000	0.28326
1972.92144	0.28094
1970.99287	0.27876
1969.06431	0.27682
1967.13574	0.27490
1965.20718	0.27290
1963.27861	0.27099
1961.35005	0.26911
1959.42148	0.26716
1957.49292	0.26532
1955.56436	0.26364
1953.63579	0.26201
1951.70723	0.26033
1949.77866	0.25868
1947.85010	0.25710
1945.92153	0.25560
1943.99297	0.25413
1942.06440	0.25261
1940.13584	0.25109
1938.20728	0.24972
1936.27871	0.24842
1934.35015	0.24705
1932.42158	0.24575
1930.49302	0.24463
1928.56445	0.24363
1926.63589	0.24267
1924.70732	0.24181
1922.77876	0.24090
1920.85020	0.23986
1918.92163	0.23886
1916.99307	0.23798
1915.06450	0.23716
1913.13594	0.23638
1911.20737	0.23571
1909.27881	0.23505
1907.35024	0.23436
1905.42168	0.23373
1903.49312	0.23320
1901.56455	0.23269
1899.63599	0.23220
1897.70742	0.23174
1895.77886	0.23133
1893.85029	0.23097
1891.92173	0.23061
1889.99316	0.23039
1888.06460	0.23021
1886.13604	0.23000
1884.20747	0.22976
1882.27891	0.22954
1880.35034	0.22945
1878.42178	0.22942
1876.49321	0.22933
1874.56465	0.22924
1872.63608	0.22937
1870.70752	0.22967
1868.77896	0.23016
1866.85039	0.23049
1864.92183	0.23042
1862.99326	0.23040
1861.06470	0.23060
1859.13613	0.23094
1857.20757	0.23130
1855.27900	0.23185
1853.35044	0.23244
1851.42187	0.23299
1849.49331	0.23358
1847.56475	0.23424
1845.63618	0.23497
1843.70762	0.23585
1841.77905	0.23665
1839.85049	0.23720
1837.92192	0.23801
1835.99336	0.23906
1834.06479	0.24011
1832.13623	0.24104
1830.20767	0.24226
1828.27910	0.24368
1826.35054	0.24480
1824.42197	0.24605
1822.49341	0.24736
1820.56484	0.24868
1818.63628	0.25010
1816.70771	0.25172
1814.77915	0.25332
1812.85059	0.25501
1810.92202	0.25696
1808.99346	0.25901
1807.06489	0.26102
1805.13633	0.26295
1803.20776	0.26509
1801.27920	0.26745
1799.35063	0.27019
1797.42207	0.27281
1795.49351	0.27524
1793.56494	0.27794
1791.63638	0.28149
1789.70781	0.28504
1787.77925	0.28771
1785.85068	0.29075
1783.92212	0.29441
1781.99355	0.29834
1780.06499	0.30238
1778.13643	0.30659
1776.20786	0.31063
1774.27930	0.31487
1772.35073	0.32057
1770.42217	0.32691
1768.49360	0.33243
1766.56504	0.33776
1764.63647	0.34308
1762.70791	0.34869
1760.77935	0.35584
1758.85078	0.36284
1756.92222	0.37006
1754.99365	0.37788
1753.06509	0.38481
1751.13652	0.39288
1749.20796	0.40319
1747.27939	0.41360
1745.35083	0.42287
1743.42227	0.43266
1741.49370	0.44326
1739.56514	0.45558
1737.63657	0.46801
1735.70801	0.47910
1733.77944	0.49564
1731.85088	0.51510
1729.92231	0.53040
1727.99375	0.54615
1726.06519	0.56322
1724.13662	0.58156
1722.20806	0.60105
1720.27949	0.61903
1718.35093	0.64017
1716.42236	0.67156
1714.49380	0.70213
1712.56523	0.72740
1710.63667	0.75150
1708.70811	0.77698
1706.77954	0.80598
1704.85098	0.84100
1702.92241	0.87249
1700.99385	0.90390
1699.06528	0.95110
1697.13672	0.99470
1695.20815	1.03954
1693.27959	1.08390
1691.35103	1.12018
1689.42246	1.16209
1687.49390	1.20668
1685.56533	1.24979
1683.63677	1.31578
1681.70820	1.38471
1679.77964	1.42942
1677.85107	1.47171
1675.92251	1.51986
1673.99395	1.57943
1672.06538	1.63330
1670.13682	1.68753
1668.20825	1.75851
1666.27969	1.81669
1664.35112	1.86750
1662.42256	1.93389
1660.49399	2.00947
1658.56543	2.06719
1656.63687	2.11157
1654.70830	2.15021
1652.77974	2.21144
1650.85117	2.27184
1648.92261	2.29224
1646.99404	2.31304
1645.06548	2.33207
1643.13691	2.34348
1641.20835	2.34964
1639.27979	2.35683
1637.35122	2.35983
1635.42266	2.35444
1633.49409	2.34417
1631.56553	2.32814
1629.63696	2.30566
1627.70840	2.27144
1625.77983	2.23457
1623.85127	2.19010
1621.92271	2.13650
1619.99414	2.08804
1618.06558	2.03961
1616.13701	1.97296
1614.20845	1.90723
1612.27988	1.85601
1610.35132	1.80128
1608.42275	1.74286
1606.49419	1.68676
1604.56562	1.63526
1602.63706	1.58554
1600.70850	1.53743
1598.77993	1.49312
1596.85137	1.45182
1594.92280	1.41250
1592.99424	1.37481
1591.06567	1.34062
1589.13711	1.30951
1587.20854	1.28099
1585.27998	1.25464
1583.35142	1.23055
1581.42285	1.20910
1579.49429	1.19082
1577.56572	1.17485
1575.63716	1.15726
1573.70859	1.14280
1571.78003	1.13372
1569.85146	1.12542
1567.92290	1.11744
1565.99434	1.11220
1564.06577	1.10940
1562.13721	1.10835
1560.20864	1.10952
1558.28008	1.11719
1556.35151	1.12711
1554.42295	1.13322
1552.49438	1.13841
1550.56582	1.14106
1548.63726	1.14051
1546.70869	1.13666
1544.78013	1.12851
1542.85156	1.11572
1540.92300	1.09511
1538.99443	1.06193
1537.06587	1.03787
1535.13730	1.02160
1533.20874	0.99964
1531.28018	0.97600
1529.35161	0.95874
1527.42305	0.94244
1525.49448	0.92543
1523.56592	0.91095
1521.63735	0.89779
1519.70879	0.88504
1517.78022	0.87370
1515.85166	0.86014
1513.92310	0.84628
1511.99453	0.83411
1510.06597	0.82244
1508.13740	0.81051
1506.20884	0.79334
1504.28027	0.77938
1502.35171	0.77158
1500.42314	0.76455
1498.49458	0.75681
1496.56602	0.74781
1494.63745	0.73921
1492.70889	0.73260
1490.78032	0.72653
1488.85176	0.71967
1486.92319	0.71360
1484.99463	0.70882
1483.06606	0.70500
1481.13750	0.70208
1479.20894	0.70012
1477.28037	0.69921
1475.35181	0.69921
1473.42324	0.69983
1471.49468	0.69998
1469.56611	0.69898
1467.63755	0.69737
1465.70898	0.69598
1463.78042	0.69537
1461.85186	0.69526
1459.92329	0.69522
1457.99473	0.69548
1456.06616	0.69605
1454.13760	0.69530
1452.20903	0.69354
1450.28047	0.69130
1448.35190	0.68865
1446.42334	0.68578
1444.49478	0.68318
1442.56621	0.68059
1440.63765	0.67770
1438.70908	0.67462
1436.78052	0.67064
1434.85195	0.66610
1432.92339	0.66273
1430.99482	0.66058
1429.06626	0.65955
1427.13770	0.65956
1425.20913	0.66030
1423.28057	0.66156
1421.35200	0.66262
1419.42344	0.66330
1417.49487	0.66364
1415.56631	0.66333
1413.63774	0.66286
1411.70918	0.66295
1409.78062	0.66410
1407.85205	0.66606
1405.92349	0.66841
1403.99492	0.67058
1402.06636	0.67147
1400.13779	0.67102
1398.20923	0.66953
1396.28066	0.66692
1394.35210	0.66278
1392.42354	0.65775
1390.49497	0.65304
1388.56641	0.64827
1386.63784	0.64273
1384.70928	0.63705
1382.78071	0.63164
1380.85215	0.62636
1378.92358	0.62177
1376.99502	0.61833
1375.06646	0.61596
1373.13789	0.61445
1371.20933	0.61359
1369.28076	0.61299
1367.35220	0.61207
1365.42363	0.61055
1363.49507	0.60863
1361.56650	0.60667
1359.63794	0.60495
1357.70937	0.60340
1355.78081	0.60195
1353.85225	0.60071
1351.92368	0.59983
1349.99512	0.59921
1348.06655	0.59850
1346.13799	0.59763
1344.20942	0.59674
1342.28086	0.59591
1340.35229	0.59520
1338.42373	0.59458
1336.49517	0.59410
1334.56660	0.59382
1332.63804	0.59379
1330.70947	0.59414
1328.78091	0.59482
1326.85234	0.59566
1324.92378	0.59668
1322.99521	0.59781
1321.06665	0.59881
1319.13809	0.59964
1317.20952	0.60037
1315.28096	0.60076
1313.35239	0.60056
1311.42383	0.59996
1309.49526	0.59938
1307.56670	0.59897
1305.63813	0.59863
1303.70957	0.59820
1301.78101	0.59748
1299.85244	0.59648
1297.92388	0.59546
1295.99531	0.59444
1294.06675	0.59324
1292.13818	0.59194
1290.20962	0.59067
1288.28105	0.58919
1286.35249	0.58741
1284.42393	0.58570
1282.49536	0.58414
1280.56680	0.58262
1278.63823	0.58122
1276.70967	0.57995
1274.78110	0.57865
1272.85254	0.57740
1270.92397	0.57643
1268.99541	0.57569
1267.06685	0.57502
1265.13828	0.57430
1263.20972	0.57346
1261.28115	0.57250
1259.35259	0.57155
1257.42402	0.57074
1255.49546	0.57014
1253.56689	0.56987
1251.63833	0.56995
1249.70977	0.57011
1247.78120	0.56998
1245.85264	0.56949
1243.92407	0.56872
1241.99551	0.56776
1240.06694	0.56645
1238.13838	0.56442
1236.20981	0.56170
1234.28125	0.55883
1232.35269	0.55611
1230.42412	0.55351
1228.49556	0.55120
1226.56699	0.54913
1224.63843	0.54711
1222.70986	0.54514
1220.78130	0.54326
1218.85273	0.54157
1216.92417	0.54013
1214.99561	0.53890
1213.06704	0.53772
1211.13848	0.53670
1209.20991	0.53595
1207.28135	0.53516
1205.35278	0.53412
1203.42422	0.53303
1201.49565	0.53199
1199.56709	0.53096
1197.63853	0.53003
1195.70996	0.52924
1193.78140	0.52850
1191.85283	0.52782
1189.92427	0.52735
1187.99570	0.52710
1186.06714	0.52697
1184.13857	0.52692
1182.21001	0.52719
1180.28145	0.52814
1178.35288	0.52972
1176.42432	0.53150
1174.49575	0.53288
1172.56719	0.53361
1170.63862	0.53386
1168.71006	0.53399
1166.78149	0.53431
1164.85293	0.53465
1162.92437	0.53449
1160.99580	0.53380
1159.06724	0.53327
1157.13867	0.53305
1155.21011	0.53259
1153.28154	0.53158
1151.35298	0.53002
1149.42441	0.52783
1147.49585	0.52517
1145.56729	0.52234
1143.63872	0.51964
1141.71016	0.51732
1139.78159	0.51550
1137.85303	0.51417
1135.92446	0.51323
1133.99590	0.51280
1132.06733	0.51293
1130.13877	0.51313
1128.21021	0.51310
1126.28164	0.51293
1124.35308	0.51260
1122.42451	0.51235
1120.49595	0.51253
1118.56738	0.51285
1116.63882	0.51316
1114.71025	0.51371
1112.78169	0.51454
1110.85312	0.51554
1108.92456	0.51655
1106.99600	0.51747
1105.06743	0.51824
1103.13887	0.51908
1101.21030	0.52024
1099.28174	0.52151
1097.35317	0.52296
1095.42461	0.52523
1093.49604	0.52882
1091.56748	0.53387
1089.63892	0.54026
1087.71035	0.54768
1085.78179	0.55578
1083.85322	0.56409
1081.92466	0.57166
1079.99609	0.57723
1078.06753	0.57993
1076.13896	0.57959
1074.21040	0.57626
1072.28184	0.57052
1070.35327	0.56362
1068.42471	0.55629
1066.49614	0.54888
1064.56758	0.54205
1062.63901	0.53634
1060.71045	0.53196
1058.78188	0.52825
1056.85332	0.52431
1054.92476	0.52056
1052.99619	0.51763
1051.06763	0.51522
1049.13906	0.51308
1047.21050	0.51132
1045.28193	0.51014
1043.35337	0.50958
1041.42480	0.50942
1039.49624	0.50954
1037.56768	0.50974
1035.63911	0.50940
1033.71055	0.50849
1031.78198	0.50758
1029.85342	0.50665
1027.92485	0.50505
1025.99629	0.50290
1024.06772	0.50130
1022.13916	0.50057
1020.21060	0.50008
1018.28203	0.49970
1016.35347	0.49946
1014.42490	0.49924
1012.49634	0.49909
1010.56777	0.49908
1008.63921	0.49921
1006.71064	0.49963
1004.78208	0.50054
1002.85352	0.50220
1000.92495	0.50484
998.99639	0.50821
997.06782	0.51203
995.13926	0.51619
993.21069	0.52042
991.28213	0.52400
989.35356	0.52625
987.42500	0.52704
985.49644	0.52686
983.56787	0.52657
981.63931	0.52680
979.71074	0.52768
977.78218	0.52895
975.85361	0.53055
973.92505	0.53277
971.99648	0.53557
970.06792	0.53883
968.13936	0.54252
966.21079	0.54648
964.28223	0.55065
962.35366	0.55522
960.42510	0.56028
958.49653	0.56565
956.56797	0.57138
954.63940	0.57747
952.71084	0.58368
950.78228	0.59010
948.85371	0.59670
946.92515	0.60306
944.99658	0.60906
943.06802	0.61477
941.13945	0.62019
939.21089	0.62585
937.28232	0.63198
935.35376	0.63813
933.42520	0.64415
931.49663	0.65005
929.56807	0.65595
927.63950	0.66186
925.71094	0.66757
923.78237	0.67353
921.85381	0.68022
919.92524	0.68763
917.99668	0.69566
916.06812	0.70360
914.13955	0.71112
912.21099	0.71888
910.28242	0.72696
908.35386	0.73496
906.42529	0.74268
904.49673	0.75069
902.56816	0.75974
900.63960	0.76921
898.71104	0.77851
896.78247	0.78802
894.85391	0.79833
892.92534	0.80939
890.99678	0.81958
889.06821	0.82870
887.13965	0.83943
885.21108	0.85259
883.28252	0.86515
881.35396	0.87519
879.42539	0.88507
877.49683	0.89682
875.56826	0.90934
873.63970	0.92122
871.71113	0.93253
869.78257	0.94339
867.85400	0.95453
865.92544	0.96681
863.99687	0.97889
862.06831	0.99017
860.13975	1.00253
858.21118	1.01641
856.28262	1.02937
854.35405	1.03967
852.42549	1.04858
850.49692	1.05942
848.56836	1.07265
846.63979	1.08493
844.71123	1.09520
842.78267	1.10455
840.85410	1.11528
838.92554	1.12898
836.99697	1.14466
835.06841	1.15980
833.13984	1.16983
831.21128	1.17416
829.28271	1.18094
827.35415	1.19423
825.42559	1.20568
823.49702	1.21275
821.56846	1.22344
819.63989	1.23869
817.71133	1.24892
815.78276	1.25335
813.85420	1.25986
811.92563	1.26344
809.99707	1.26605
808.06851	1.28522
806.13994	1.32526
804.21138	1.35981
802.28281	1.36186
800.35425	1.34587
798.42568	1.33763
796.49712	1.35195
794.56855	1.38230
792.63999	1.39598
790.71143	1.38591
788.78286	1.39427
786.85430	1.45318
784.92573	1.48831
782.99717	1.39652
781.06860	1.32904
779.14004	1.37860
777.21147	1.45758
775.28291	1.41879
773.35435	1.34272
771.42578	1.35327
769.49722	1.40015
767.56865	1.34140
765.64009	1.25187
763.71152	1.17888
761.78296	1.09183
759.85439	1.03695
757.92583	1.05468
755.99727	1.16783
754.06870	1.31713
752.14014	1.25980
750.21157	1.21137
748.28301	1.28179
746.35444	1.25383
744.42588	1.12258
742.49731	1.06450
740.56875	1.13463
738.64019	1.12377
736.71162	0.89894
734.78306	0.77929
732.85449	0.69113
730.92593	0.49423
728.99736	0.29365
727.06880	0.15031
725.14023	0.03535
723.21167	-0.02402
721.28311	-0.10898
719.35454	-0.18583
717.42598	-0.21822
715.49741	-0.20081
713.56885	-0.14412
711.64028	-0.03653
709.71172	0.13898
707.78315	0.20955
705.85459	0.23663
703.92603	0.30370
701.99746	0.41591
700.06890	0.37392
698.14033	0.25232
696.21177	0.22664
694.28320	0.32337
692.35464	0.46335
690.42607	0.52941
688.49751	0.43988
686.56895	0.33604
684.64038	0.29333
682.71182	0.28939
680.78325	0.29838
678.85469	0.29855
676.92612	0.29596
674.99756	0.37088
673.06899	0.52640
671.14043	0.56499
669.21187	0.47485
667.28330	0.37990
665.35474	0.38008
663.42617	0.48890
661.49761	0.56278
659.56904	0.49298
657.64048	0.43735
655.71191	0.39280
653.78335	0.34009
651.85479	0.30333
649.92622	0.24164
647.99766	0.18303
646.06909	0.22080
644.14053	0.32546
642.21196	0.42364
640.28340	0.47857
638.35483	0.47412
636.42627	0.38704
634.49771	0.29973
632.56914	0.28507
630.64058	0.32157
628.71201	0.31290
626.78345	0.28974
624.85488	0.34516
622.92632	0.46939
620.99775	0.48041
619.06919	0.35638
617.14062	0.28727
615.21206	0.34004
613.28350	0.47965
611.35493	0.44169
609.42637	0.34881
607.49780	0.37758
605.56924	0.46568
603.64067	0.43907
601.71211	0.30617
599.78354	0.21794
597.85498	0.20779
595.92642	0.22002
593.99785	0.22262
592.06929	0.24033
590.14072	0.25228
588.21216	0.26816
586.28359	0.28184
584.35503	0.24835
582.42646	0.23810
580.49790	0.31630
578.56934	0.49419
576.64077	0.76762
574.71221	0.74861
572.78364	0.53465
570.85508	0.47249
568.92651	0.41502
566.99795	0.28592
565.06938	0.22346
563.14082	0.24611
561.21226	0.25301
559.28369	0.23518
557.35513	0.29040
555.42656	0.33239
553.49800	0.31837
551.56943	0.32408
549.64087	0.37862
547.71230	0.45678
545.78374	0.49821
543.85518	0.52354
541.92661	0.48553
539.99805	0.37803
538.06948	0.30608
536.14092	0.28970
534.21235	0.29468
532.28379	0.26419
530.35522	0.23650
528.42666	0.22413
526.49810	0.20510
524.56953	0.22561
522.64097	0.27143
520.71240	0.22379
518.78384	0.18385
516.85527	0.20034
514.92671	0.21717
512.99814	0.21798
511.06958	0.22732
509.14102	0.26928
507.21245	0.31369
505.28389	0.29165
503.35532	0.24756
501.42676	0.25150
499.49819	0.26652
