3997.91411	0.08070
3995.98555	0.08112
3994.05698	0.08118
3992.12842	0.08118
3990.19985	0.08079
3988.27129	0.08042
3986.34272	0.08062
3984.41416	0.08108
3982.48560	0.08155
3980.55703	0.08194
3978.62847	0.08208
3976.69990	0.08224
3974.77134	0.08260
3972.84277	0.08284
3970.91421	0.08288
3968.98564	0.08295
3967.05708	0.08294
3965.12852	0.08307
3963.19995	0.08365
3961.27139	0.08419
3959.34282	0.08425
3957.41426	0.08389
3955.48569	0.08344
3953.55713	0.08315
3951.62856	0.08336
3949.70000	0.08439
3947.77144	0.08537
3945.84287	0.08538
3943.91431	0.08522
3941.98574	0.08509
3940.05718	0.08416
3938.12861	0.08313
3936.20005	0.08297
3934.27148	0.08372
3932.34292	0.08497
3930.41436	0.08584
3928.48579	0.08587
3926.55723	0.08538
3924.62866	0.08493
3922.70010	0.08441
3920.77153	0.08374
3918.84297	0.08388
3916.91440	0.08496
3914.98584	0.08514
3913.05728	0.08387
3911.12871	0.08299
3909.20015	0.08311
3907.27158	0.08356
3905.34302	0.08442
3903.41445	0.08582
3901.48589	0.08673
3899.55732	0.08680
3897.62876	0.08667
3895.70020	0.08601
3893.77163	0.08511
3891.84307	0.08490
3889.91450	0.08499
3887.98594	0.08483
3886.05737	0.08540
3884.12881	0.08641
3882.20024	0.08654
3880.27168	0.08628
3878.34312	0.08572
3876.41455	0.08515
3874.48599	0.08573
3872.55742	0.08704
3870.62886	0.08815
3868.70029	0.08895
3866.77173	0.08891
3864.84316	0.08904
3862.91460	0.08964
3860.98604	0.08935
3859.05747	0.08897
3857.12891	0.08929
3855.20034	0.09018
3853.27178	0.09247
3851.34321	0.09452
3849.41465	0.09318
3847.48608	0.09140
3845.55752	0.09099
3843.62896	0.09202
3841.70039	0.09379
3839.77183	0.09558
3837.84326	0.09716
3835.91470	0.09806
3833.98613	0.09816
3832.05757	0.09778
3830.12900	0.09738
3828.20044	0.09766
3826.27187	0.09880
3824.34331	0.09974
3822.41475	0.10054
3820.48618	0.10289
3818.55762	0.10469
3816.62905	0.10446
3814.70049	0.10433
3812.77192	0.10408
3810.84336	0.10384
3808.91479	0.10486
3806.98623	0.10739
3805.05767	0.10964
3803.12910	0.11087
3801.20054	0.11253
3799.27197	0.11342
3797.34341	0.11326
3795.41484	0.11401
3793.48628	0.11474
3791.55771	0.11463
3789.62915	0.11481
3787.70059	0.11605
3785.77202	0.11824
3783.84346	0.12066
3781.91489	0.12230
3779.98633	0.12340
3778.05776	0.12466
3776.12920	0.12567
3774.20063	0.12659
3772.27207	0.12823
3770.34351	0.13094
3768.41494	0.13371
3766.48638	0.13567
3764.55781	0.13767
3762.62925	0.13946
3760.70068	0.14159
3758.77212	0.14524
3756.84355	0.14894
3754.91499	0.15125
3752.98643	0.15374
3751.05786	0.15817
3749.12930	0.16304
3747.20073	0.16498
3745.27217	0.16638
3743.34360	0.16936
3741.41504	0.17160
3739.48647	0.17294
3737.55791	0.17583
3735.62935	0.18113
3733.70078	0.18708
3731.77222	0.19097
3729.84365	0.19344
3727.91509	0.19634
3725.98652	0.20140
3724.05796	0.20869
3722.12939	0.21632
3720.20083	0.22352
3718.27227	0.23049
3716.34370	0.23780
3714.41514	0.24584
3712.48657	0.25576
3710.55801	0.26893
3708.62944	0.28211
3706.70088	0.29258
3704.77231	0.30294
3702.84375	0.31575
3700.91519	0.33233
3698.98662	0.34998
3697.05806	0.36694
3695.12949	0.38552
3693.20093	0.40564
3691.27236	0.42764
3689.34380	0.45576
3687.41523	0.49008
3685.48667	0.52048
3683.55811	0.54660
3681.62954	0.57459
3679.70098	0.60665
3677.77241	0.64049
3675.84385	0.67979
3673.91528	0.73187
3671.98672	0.77435
3670.05815	0.81247
3668.12959	0.86485
3666.20103	0.91260
3664.27246	0.95259
3662.34390	0.99547
3660.41533	1.04167
3658.48677	1.08737
3656.55820	1.13618
3654.62964	1.19063
3652.70107	1.23716
3650.77251	1.27844
3648.84395	1.33428
3646.91538	1.40123
3644.98682	1.44966
3643.05825	1.48694
3641.12969	1.52595
3639.20112	1.56923
3637.27256	1.61276
3635.34399	1.65539
3633.41543	1.69803
3631.48687	1.73780
3629.55830	1.77843
3627.62974	1.83092
3625.70117	1.87906
3623.77261	1.91239
3621.84404	1.94575
3619.91548	1.98482
3617.98691	2.03155
3616.05835	2.07549
3614.12979	2.11251
3612.20122	2.15168
3610.27266	2.18970
3608.34409	2.22766
3606.41553	2.26945
3604.48696	2.30911
3602.55840	2.34488
3600.62983	2.38297
3598.70127	2.42379
3596.77271	2.46328
3594.84414	2.50245
3592.91558	2.54222
3590.98701	2.58078
3589.05845	2.61899
3587.12988	2.66495
3585.20132	2.71375
3583.27275	2.75346
3581.34419	2.79033
3579.41562	2.83042
3577.48706	2.87289
3575.55850	2.91667
3573.62993	2.96134
3571.70137	3.00339
3569.77280	3.04328
3567.84424	3.08691
3565.91567	3.14087
3563.98711	3.19266
3562.05854	3.23356
3560.12998	3.27300
3558.20142	3.31520
3556.27285	3.35939
3554.34429	3.40338
3552.41572	3.44924
3550.48716	3.49713
3548.55859	3.54318
3546.63003	3.58729
3544.70146	3.63367
3542.77290	3.68283
3540.84434	3.73087
3538.91577	3.77643
3536.98721	3.82218
3535.05864	3.87153
3533.13008	3.92044
3531.20151	3.96856
3529.27295	4.01956
3527.34438	4.07093
3525.41582	4.11795
3523.48726	4.16320
3521.55869	4.21274
3519.63013	4.26482
3517.70156	4.31654
3515.77300	4.36530
3513.84443	4.40875
3511.91587	4.45273
3509.98730	4.50284
3508.05874	4.55444
3506.13018	4.60541
3504.20161	4.65694
3502.27305	4.70675
3500.34448	4.75293
3498.41592	4.79748
3496.48735	4.84617
3494.55879	4.89801
3492.63022	4.94737
3490.70166	4.99292
3488.77310	5.03752
3486.84453	5.09009
3484.91597	5.14783
3482.98740	5.19601
3481.05884	5.24092
3479.13027	5.29179
3477.20171	5.34432
3475.27314	5.39855
3473.34458	5.45428
3471.41602	5.50381
3469.48745	5.53680
3467.55889	5.56364
3465.63032	5.61330
3463.70176	5.68448
3461.77319	5.74356
3459.84463	5.78853
3457.91606	5.83646
3455.98750	5.88321
3454.05894	5.92491
3452.13037	5.96841
3450.20181	6.01938
3448.27324	6.07463
3446.34468	6.13393
3444.41611	6.19687
3442.48755	6.25702
3440.55898	6.30386
3438.63042	6.34646
3436.70186	6.40329
3434.77329	6.46447
3432.84473	6.51053
3430.91616	6.54468
3428.98760	6.59828
3427.05903	6.66973
3425.13047	6.72208
3423.20190	6.75513
3421.27334	6.79690
3419.34478	6.84607
3417.41621	6.89418
3415.48765	6.94182
3413.55908	6.99050
3411.63052	7.04917
3409.70195	7.09519
3407.77339	7.12494
3405.84482	7.16040
3403.91626	7.20704
3401.98770	7.27245
3400.05913	7.36555
3398.13057	7.45941
3396.20200	7.49612
3394.27344	7.47507
3392.34487	7.47036
3390.41631	7.53749
3388.48774	7.63142
3386.55918	7.70494
3384.63062	7.76893
3382.70205	7.81398
3380.77349	7.80659
3378.84492	7.79080
3376.91636	7.83463
3374.98779	7.88854
3373.05923	7.87858
3371.13066	7.84109
3369.20210	7.88808
3367.27354	8.01190
3365.34497	8.07343
3363.41641	8.02946
3361.48784	7.99961
3359.55928	8.03751
3357.63071	8.11994
3355.70215	8.23396
3353.77358	8.26441
3351.84502	8.24705
3349.91646	8.27050
3347.98789	8.25295
3346.05933	8.21912
3344.13076	8.22980
3342.20220	8.21406
3340.27363	8.17110
3338.34507	8.18953
3336.41650	8.23149
3334.48794	8.24863
3332.55937	8.25417
3330.63081	8.30464
3328.70225	8.40992
3326.77368	8.49071
3324.84512	8.54570
3322.91655	8.52921
3320.98799	8.37732
3319.05942	8.22898
3317.13086	8.21260
3315.20229	8.29022
3313.27373	8.42825
3311.34517	8.60730
3309.41660	8.71604
3307.48804	8.67905
3305.55947	8.53166
3303.63091	8.41549
3301.70234	8.43351
3299.77378	8.45191
3297.84521	8.32640
3295.91665	8.25454
3293.98809	8.34387
3292.05952	8.45403
3290.13096	8.48554
3288.20239	8.50682
3286.27383	8.56598
3284.34526	8.66363
3282.41670	8.80263
3280.48813	8.79799
3278.55957	8.66528
3276.63101	8.62164
3274.70244	8.66012
3272.77388	8.72901
3270.84531	8.75500
3268.91675	8.65843
3266.98818	8.53403
3265.05962	8.47945
3263.13105	8.52133
3261.20249	8.68585
3259.27393	8.84331
3257.34536	8.85457
3255.41680	8.80939
3253.48823	8.73473
3251.55967	8.63749
3249.63110	8.56372
3247.70254	8.49173
3245.77397	8.46094
3243.84541	8.50631
3241.91685	8.49052
3239.98828	8.37669
3238.05972	8.33718
3236.13115	8.43990
3234.20259	8.56311
3232.27402	8.60259
3230.34546	8.57562
3228.41689	8.50925
3226.48833	8.43421
3224.55977	8.36351
3222.63120	8.31447
3220.70264	8.29287
3218.77407	8.25980
3216.84551	8.21873
3214.91694	8.23058
3212.98838	8.26704
3211.05981	8.25182
3209.13125	8.20247
3207.20269	8.15434
3205.27412	8.09363
3203.34556	8.01641
3201.41699	8.01024
3199.48843	8.07270
3197.55986	8.04758
3195.63130	7.93561
3193.70273	7.84917
3191.77417	7.79406
3189.84561	7.74737
3187.91704	7.67726
3185.98848	7.56057
3184.05991	7.46735
3182.13135	7.44722
3180.20278	7.45297
3178.27422	7.45716
3176.34565	7.45548
3174.41709	7.41600
3172.48853	7.36541
3170.55996	7.33660
3168.63140	7.29921
3166.70283	7.22357
3164.77427	7.11287
3162.84570	7.00125
3160.91714	6.91691
3158.98857	6.85031
3157.06001	6.78963
3155.13145	6.74338
3153.20288	6.69816
3151.27432	6.63165
3149.34575	6.54417
3147.41719	6.44837
3145.48862	6.36249
3143.56006	6.29150
3141.63149	6.22235
3139.70293	6.14410
3137.77437	6.06606
3135.84580	5.99079
3133.91724	5.90776
3131.98867	5.81906
3130.06011	5.73689
3128.13154	5.67001
3126.20298	5.61456
3124.27441	5.55632
3122.34585	5.47772
3120.41729	5.38898
3118.48872	5.31570
3116.56016	5.24824
3114.63159	5.16944
3112.70303	5.08950
3110.77446	5.01811
3108.84590	4.95157
3106.91733	4.88502
3104.98877	4.81367
3103.06021	4.73718
3101.13164	4.66194
3099.20308	4.59186
3097.27451	4.52508
3095.34595	4.45886
3093.41738	4.39140
3091.48882	4.32195
3089.56025	4.25297
3087.63169	4.18684
3085.70312	4.12191
3083.77456	4.05709
3081.84600	3.99361
3079.91743	3.93163
3077.98887	3.86930
3076.06030	3.80505
3074.13174	3.74118
3072.20317	3.67939
3070.27461	3.61842
3068.34604	3.55766
3066.41748	3.49781
3064.48892	3.43950
3062.56035	3.38166
3060.63179	3.32473
3058.70322	3.27012
3056.77466	3.21659
3054.84609	3.16250
3052.91753	3.10837
3050.98896	3.05521
3049.06040	3.00231
3047.13184	2.94982
3045.20327	2.89878
3043.27471	2.84932
3041.34614	2.80084
3039.41758	2.75259
3037.48901	2.70499
3035.56045	2.65811
3033.63188	2.61158
3031.70332	2.56576
3029.77476	2.52082
3027.84619	2.47660
3025.91763	2.43266
3023.98906	2.38935
3022.06050	2.34736
3020.13193	2.30564
3018.20337	2.26366
3016.27480	2.22263
3014.34624	2.18266
3012.41768	2.14292
3010.48911	2.10394
3008.56055	2.06681
3006.63198	2.03092
3004.70342	1.99500
3002.77485	1.95868
3000.84629	1.92225
2998.91772	1.88659
2996.98916	1.85289
2995.06060	1.82057
2993.13203	1.78785
2991.20347	1.75478
2989.27490	1.72233
2987.34634	1.69081
2985.41777	1.66035
2983.48921	1.63056
2981.56064	1.60072
2979.63208	1.57100
2977.70352	1.54190
2975.77495	1.51299
2973.84639	1.48416
2971.91782	1.45607
2969.98926	1.42867
2968.06069	1.40155
2966.13213	1.37506
2964.20356	1.34937
2962.27500	1.32406
2960.34644	1.29901
2958.41787	1.27436
2956.48931	1.25035
2954.56074	1.22727
2952.63218	1.20496
2950.70361	1.18301
2948.77505	1.16114
2946.84648	1.13927
2944.91792	1.11781
2942.98936	1.09717
2941.06079	1.07685
2939.13223	1.05616
2937.20366	1.03522
2935.27510	1.01478
2933.34653	0.99522
2931.41797	0.97648
2929.48940	0.95807
2927.56084	0.93972
2925.63228	0.92219
2923.70371	0.90582
2921.77515	0.88986
2919.84658	0.87399
2917.91802	0.85845
2915.98945	0.84322
2914.06089	0.82804
2912.13232	0.81318
2910.20376	0.79919
2908.27520	0.78571
2906.34663	0.77228
2904.41807	0.75915
2902.48950	0.74627
2900.56094	0.73313
2898.63237	0.71984
2896.70381	0.70721
2894.77524	0.69560
2892.84668	0.68422
2890.91812	0.67247
2888.98955	0.66087
2887.06099	0.64980
2885.13242	0.63905
2883.20386	0.62814
2881.27529	0.61694
2879.34673	0.60591
2877.41816	0.59546
2875.48960	0.58537
2873.56104	0.57522
2871.63247	0.56502
2869.70391	0.55527
2867.77534	0.54611
2865.84678	0.53684
2863.91821	0.52718
2861.98965	0.51755
2860.06108	0.50829
2858.13252	0.49939
2856.20396	0.49070
2854.27539	0.48236
2852.34683	0.47456
2850.41826	0.46737
2848.48970	0.46047
2846.56113	0.45347
2844.63257	0.44674
2842.70400	0.44038
2840.77544	0.43400
2838.84687	0.42781
2836.91831	0.42205
2834.98975	0.41650
2833.06118	0.41079
2831.13262	0.40479
2829.20405	0.39883
2827.27549	0.39315
2825.34692	0.38755
2823.41836	0.38196
2821.48979	0.37634
2819.56123	0.37064
2817.63267	0.36512
2815.70410	0.35986
2813.77554	0.35460
2811.84697	0.34948
2809.91841	0.34471
2807.98984	0.33990
2806.06128	0.33479
2804.13271	0.32962
2802.20415	0.32475
2800.27559	0.32035
2798.34702	0.31619
2796.41846	0.31186
2794.48989	0.30746
2792.56133	0.30326
2790.63276	0.29919
2788.70420	0.29518
2786.77563	0.29128
2784.84707	0.28744
2782.91851	0.28360
2780.98994	0.27974
2779.06138	0.27590
2777.13281	0.27232
2775.20425	0.26910
2773.27568	0.26589
2771.34712	0.26241
2769.41855	0.25886
2767.48999	0.25550
2765.56143	0.25240
2763.63286	0.24945
2761.70430	0.24653
2759.77573	0.24355
2757.84717	0.24057
2755.91860	0.23781
2753.99004	0.23527
2752.06147	0.23274
2750.13291	0.23009
2748.20435	0.22742
2746.27578	0.22475
2744.34722	0.22224
2742.41865	0.22002
2740.49009	0.21785
2738.56152	0.21560
2736.63296	0.21329
2734.70439	0.21093
2732.77583	0.20867
2730.84727	0.20657
2728.91870	0.20457
2726.99014	0.20262
2725.06157	0.20071
2723.13301	0.19872
2721.20444	0.19660
2719.27588	0.19463
2717.34731	0.19294
2715.41875	0.19128
2713.49019	0.18957
2711.56162	0.18794
2709.63306	0.18650
2707.70449	0.18513
2705.77593	0.18359
2703.84736	0.18203
2701.91880	0.18059
2699.99023	0.17921
2698.06167	0.17784
2696.13311	0.17647
2694.20454	0.17507
2692.27598	0.17377
2690.34741	0.17263
2688.41885	0.17154
2686.49028	0.17037
2684.56172	0.16910
2682.63315	0.16783
2680.70459	0.16669
2678.77603	0.16575
2676.84746	0.16486
2674.91890	0.16394
2672.99033	0.16312
2671.06177	0.16241
2669.13320	0.16169
2667.20464	0.16098
2665.27607	0.16017
2663.34751	0.15919
2661.41895	0.15831
2659.49038	0.15769
2657.56182	0.15712
2655.63325	0.15649
2653.70469	0.15584
2651.77612	0.15519
2649.84756	0.15454
2647.91899	0.15387
2645.99043	0.15338
2644.06187	0.15309
2642.13330	0.15265
2640.20474	0.15212
2638.27617	0.15175
2636.34761	0.15145
2634.41904	0.15106
2632.49048	0.15073
2630.56191	0.15046
2628.63335	0.15012
2626.70479	0.14977
2624.77622	0.14958
2622.84766	0.14955
2620.91909	0.14948
2618.99053	0.14928
2617.06196	0.14910
2615.13340	0.14913
2613.20483	0.14928
2611.27627	0.14936
2609.34771	0.14932
2607.41914	0.14917
2605.49058	0.14903
2603.56201	0.14900
2601.63345	0.14912
2599.70488	0.14939
2597.77632	0.14965
2595.84775	0.14984
2593.91919	0.14994
2591.99062	0.14998
2590.06206	0.15008
2588.13350	0.15034
2586.20493	0.15075
2584.27637	0.15106
2582.34780	0.15121
2580.41924	0.15145
2578.49067	0.15186
2576.56211	0.15231
2574.63354	0.15277
2572.70498	0.15318
2570.77642	0.15349
2568.84785	0.15386
2566.91929	0.15438
2564.99072	0.15493
2563.06216	0.15547
2561.13359	0.15600
2559.20503	0.15655
2557.27646	0.15719
2555.34790	0.15781
2553.41934	0.15838
2551.49077	0.15897
2549.56221	0.15951
2547.63364	0.16011
2545.70508	0.16088
2543.77651	0.16163
2541.84795	0.16235
2539.91938	0.16312
2537.99082	0.16383
2536.06226	0.16453
2534.13369	0.16532
2532.20513	0.16616
2530.27656	0.16705
2528.34800	0.16777
2526.41943	0.16827
2524.49087	0.16891
2522.56230	0.16975
2520.63374	0.17061
2518.70518	0.17152
2516.77661	0.17246
2514.84805	0.17327
2512.91948	0.17404
2510.99092	0.17487
2509.06235	0.17573
2507.13379	0.17663
2505.20522	0.17749
2503.27666	0.17829
2501.34810	0.17915
2499.41953	0.18013
2497.49097	0.18113
2495.56240	0.18214
2493.63384	0.18303
2491.70527	0.18377
2489.77671	0.18459
2487.84814	0.18559
2485.91958	0.18665
2483.99102	0.18771
2482.06245	0.18876
2480.13389	0.18969
2478.20532	0.19050
2476.27676	0.19133
2474.34819	0.19229
2472.41963	0.19339
2470.49106	0.19455
2468.56250	0.19562
2466.63394	0.19653
2464.70537	0.19744
2462.77681	0.19848
2460.84824	0.19960
2458.91968	0.20057
2456.99111	0.20142
2455.06255	0.20236
2453.13398	0.20335
2451.20542	0.20431
2449.27686	0.20524
2447.34829	0.20630
2445.41973	0.20747
2443.49116	0.20863
2441.56260	0.20975
2439.63403	0.21081
2437.70547	0.21181
2435.77690	0.21280
2433.84834	0.21387
2431.91978	0.21500
2429.99121	0.21612
2428.06265	0.21727
2426.13408	0.21843
2424.20552	0.21960
2422.27695	0.22080
2420.34839	0.22198
2418.41982	0.22315
2416.49126	0.22434
2414.56270	0.22546
2412.63413	0.22648
2410.70557	0.22755
2408.77700	0.22869
2406.84844	0.22985
2404.91987	0.23111
2402.99131	0.23250
2401.06274	0.23389
2399.13418	0.23518
2397.20562	0.23632
2395.27705	0.23742
2393.34849	0.23873
2391.41992	0.24013
2389.49136	0.24124
2387.56279	0.24209
2385.63423	0.24278
2383.70566	0.24315
2381.77710	0.24319
2379.84854	0.24294
2377.91997	0.24230
2375.99141	0.24114
2374.06284	0.23939
2372.13428	0.23725
2370.20571	0.23528
2368.27715	0.23371
2366.34858	0.23226
2364.42002	0.23093
2362.49146	0.23087
2360.56289	0.23201
2358.63433	0.23288
2356.70576	0.23491
2354.77720	0.23950
2352.84863	0.24580
2350.92007	0.25202
2348.99150	0.25589
2347.06294	0.25665
2345.13437	0.25483
2343.20581	0.25264
2341.27725	0.25309
2339.34868	0.25540
2337.42012	0.25786
2335.49155	0.26051
2333.56299	0.26305
2331.63442	0.26537
2329.70586	0.26775
2327.77729	0.27028
2325.84873	0.27284
2323.92017	0.27542
2321.99160	0.27881
2320.06304	0.28291
2318.13447	0.28650
2316.20591	0.28933
2314.27734	0.29196
2312.34878	0.29470
2310.42021	0.29745
2308.49165	0.30013
2306.56309	0.30300
2304.63452	0.30587
2302.70596	0.30822
2300.77739	0.31026
2298.84883	0.31250
2296.92026	0.31498
2294.99170	0.31738
2293.06313	0.31967
2291.13457	0.32189
2289.20601	0.32409
2287.27744	0.32636
2285.34888	0.32868
2283.42031	0.33093
2281.49175	0.33299
2279.56318	0.33488
2277.63462	0.33678
2275.70605	0.33877
2273.77749	0.34080
2271.84893	0.34294
2269.92036	0.34521
2267.99180	0.34743
2266.06323	0.34958
2264.13467	0.35174
2262.20610	0.35380
2260.27754	0.35584
2258.34897	0.35800
2256.42041	0.36023
2254.49185	0.36248
2252.56328	0.36477
2250.63472	0.36713
2248.70615	0.36951
2246.77759	0.37184
2244.84902	0.37406
2242.92046	0.37624
2240.99189	0.37842
2239.06333	0.38059
2237.13477	0.38281
2235.20620	0.38512
2233.27764	0.38743
2231.34907	0.38974
2229.42051	0.39211
2227.49194	0.39435
2225.56338	0.39648
2223.63481	0.39877
2221.70625	0.40110
2219.77769	0.40326
2217.84912	0.40532
2215.92056	0.40753
2213.99199	0.40986
2212.06343	0.41203
2210.13486	0.41399
2208.20630	0.41598
2206.27773	0.41806
2204.34917	0.42017
2202.42061	0.42220
2200.49204	0.42413
2198.56348	0.42610
2196.63491	0.42810
2194.70635	0.43002
2192.77778	0.43200
2190.84922	0.43403
2188.92065	0.43599
2186.99209	0.43786
2185.06353	0.43952
2183.13496	0.44108
2181.20640	0.44279
2179.27783	0.44457
2177.34927	0.44613
2175.42070	0.44767
2173.49214	0.44936
2171.56357	0.45094
2169.63501	0.45228
2167.70645	0.45348
2165.77788	0.45472
2163.84932	0.45605
2161.92075	0.45728
2159.99219	0.45822
2158.06362	0.45899
2156.13506	0.45988
2154.20649	0.46090
2152.27793	0.46186
2150.34937	0.46267
2148.42080	0.46339
2146.49224	0.46402
2144.56367	0.46447
2142.63511	0.46478
2140.70654	0.46497
2138.77798	0.46512
2136.84941	0.46531
2134.92085	0.46546
2132.99229	0.46545
2131.06372	0.46531
2129.13516	0.46512
2127.20659	0.46483
2125.27803	0.46438
2123.34946	0.46386
2121.42090	0.46336
2119.49233	0.46280
2117.56377	0.46225
2115.63521	0.46178
2113.70664	0.46117
2111.77808	0.46024
2109.84951	0.45910
2107.92095	0.45793
2105.99238	0.45668
2104.06382	0.45534
2102.13525	0.45400
2100.20669	0.45266
2098.27812	0.45124
2096.34956	0.44972
2094.42100	0.44810
2092.49243	0.44639
2090.56387	0.44469
2088.63530	0.44298
2086.70674	0.44123
2084.77817	0.43932
2082.84961	0.43729
2080.92104	0.43533
2078.99248	0.43346
2077.06392	0.43144
2075.13535	0.42919
2073.20679	0.42692
2071.27822	0.42469
2069.34966	0.42243
2067.42109	0.42011
2065.49253	0.41776
2063.56396	0.41527
2061.63540	0.41260
2059.70684	0.40986
2057.77827	0.40726
2055.84971	0.40486
2053.92114	0.40244
2051.99258	0.39985
2050.06401	0.39716
2048.13545	0.39439
2046.20688	0.39159
2044.27832	0.38889
2042.34976	0.38631
2040.42119	0.38369
2038.49263	0.38092
2036.56406	0.37811
2034.63550	0.37532
2032.70693	0.37255
2030.77837	0.36975
2028.84980	0.36694
2026.92124	0.36418
2024.99268	0.36138
2023.06411	0.35848
2021.13555	0.35560
2019.20698	0.35287
2017.27842	0.35021
2015.34985	0.34739
2013.42129	0.34458
2011.49272	0.34189
2009.56416	0.33922
2007.63560	0.33654
2005.70703	0.33386
2003.77847	0.33117
2001.84990	0.32851
1999.92134	0.32582
1997.99277	0.32312
1996.06421	0.32061
1994.13564	0.31827
1992.20708	0.31589
1990.27852	0.31333
1988.34995	0.31072
1986.42139	0.30817
1984.49282	0.30577
1982.56426	0.30349
1980.63569	0.30120
1978.70713	0.29880
1976.77856	0.29637
1974.85000	0.29403
1972.92144	0.29174
1970.99287	0.28953
1969.06431	0.28752
1967.13574	0.28569
1965.20718	0.28376
1963.27861	0.28172
1961.35005	0.27973
1959.42148	0.27786
1957.49292	0.27612
1955.56436	0.27433
1953.63579	0.27245
1951.70723	0.27062
1949.77866	0.26893
1947.85010	0.26728
1945.92153	0.26579
1943.99297	0.26457
1942.06440	0.26340
1940.13584	0.26192
1938.20728	0.26024
1936.27871	0.25864
1934.35015	0.25727
1932.42158	0.25617
1930.49302	0.25517
1928.56445	0.25413
1926.63589	0.25301
1924.70732	0.25204
1922.77876	0.25129
1920.85020	0.25048
1918.92163	0.24960
1916.99307	0.24866
1915.06450	0.24757
1913.13594	0.24661
1911.20737	0.24602
1909.27881	0.24547
1907.35024	0.24463
1905.42168	0.24371
1903.49312	0.24302
1901.56455	0.24245
1899.63599	0.24189
1897.70742	0.24146
1895.77886	0.24117
1893.85029	0.24084
1891.92173	0.24049
1889.99316	0.24038
1888.06460	0.24016
1886.13604	0.23972
1884.20747	0.23944
1882.27891	0.23934
1880.35034	0.23927
1878.42178	0.23921
1876.49321	0.23917
1874.56465	0.23908
1872.63608	0.23919
1870.70752	0.23976
1868.77896	0.24069
1866.85039	0.24111
1864.92183	0.24081
1862.99326	0.24060
1861.06470	0.24075
1859.13613	0.24112
1857.20757	0.24146
1855.27900	0.24179
1853.35044	0.24216
1851.42187	0.24268
1849.49331	0.24336
1847.56475	0.24430
1845.63618	0.24546
1843.70762	0.24657
1841.77905	0.24713
1839.85049	0.24744
1837.92192	0.24819
1835.99336	0.24905
1834.06479	0.24985
1832.13623	0.25095
1830.20767	0.25274
1828.27910	0.25448
1826.35054	0.25551
1824.42197	0.25660
1822.49341	0.25767
1820.56484	0.25877
1818.63628	0.26008
1816.70771	0.26165
1814.77915	0.26328
1812.85059	0.26511
1810.92202	0.26732
1808.99346	0.26958
1807.06489	0.27156
1805.13633	0.27336
1803.20776	0.27556
1801.27920	0.27832
1799.35063	0.28145
1797.42207	0.28418
1795.49351	0.28662
1793.56494	0.28931
1791.63638	0.29281
1789.70781	0.29612
1787.77925	0.29855
1785.85068	0.30163
1783.92212	0.30548
1781.99355	0.30965
1780.06499	0.31396
1778.13643	0.31823
1776.20786	0.32231
1774.27930	0.32691
1772.35073	0.33320
1770.42217	0.33963
1768.49360	0.34459
1766.56504	0.34935
1764.63647	0.35455
1762.70791	0.36062
1760.77935	0.36831
1758.85078	0.37542
1756.92222	0.38252
1754.99365	0.39027
1753.06509	0.39751
1751.13652	0.40635
1749.20796	0.41734
1747.27939	0.42798
1745.35083	0.43730
1743.42227	0.44707
1741.49370	0.45775
1739.56514	0.47034
1737.63657	0.48301
1735.70801	0.49426
1733.77944	0.51114
1731.85088	0.53103
1729.92231	0.54649
1727.99375	0.56209
1726.06519	0.57895
1724.13662	0.59750
1722.20806	0.61763
1720.27949	0.63634
1718.35093	0.65841
1716.42236	0.69087
1714.49380	0.72121
1712.56523	0.74547
1710.63667	0.76914
1708.70811	0.79477
1706.77954	0.82397
1704.85098	0.85879
1702.92241	0.88976
1700.99385	0.92010
1699.06528	0.96504
1697.13672	1.00634
1695.20815	1.04808
1693.27959	1.08795
1691.35103	1.11980
1689.42246	1.15652
1687.49390	1.19492
1685.56533	1.23175
1683.63677	1.28852
1681.70820	1.34691
1679.77964	1.38393
1677.85107	1.41916
1675.92251	1.45972
1673.99395	1.50942
1672.06538	1.55338
1670.13682	1.59679
1668.20825	1.65181
1666.27969	1.69427
1664.35112	1.72924
1662.42256	1.77273
1660.49399	1.82039
1658.56543	1.85692
1656.63687	1.88752
1654.70830	1.91849
1652.77974	1.97167
1650.85117	2.02223
1648.92261	2.04217
1646.99404	2.07038
1645.06548	2.10449
1643.13691	2.12703
1641.20835	2.14098
1639.27979	2.15333
1637.35122	2.16276
1635.42266	2.16758
1633.49409	2.16410
1631.56553	2.15357
1629.63696	2.14089
1627.70840	2.11924
1625.77983	2.09149
1623.85127	2.05482
1621.92271	2.01002
1619.99414	1.97070
1618.06558	1.93236
1616.13701	1.87602
1614.20845	1.81726
1612.27988	1.77256
1610.35132	1.72596
1608.42275	1.67520
1606.49419	1.62515
1604.56562	1.57878
1602.63706	1.53328
1600.70850	1.48793
1598.77993	1.44566
1596.85137	1.40569
1594.92280	1.36655
1592.99424	1.32834
1591.06567	1.29321
1589.13711	1.26028
1587.20854	1.22895
1585.27998	1.19896
1583.35142	1.17021
1581.42285	1.14358
1579.49429	1.12048
1577.56572	1.09911
1575.63716	1.07195
1573.70859	1.04733
1571.78003	1.03105
1569.85146	1.01331
1567.92290	0.99226
1565.99434	0.97497
1564.06577	0.96007
1562.13721	0.94759
1560.20864	0.93704
1558.28008	0.91789
1556.35151	0.89949
1554.42295	0.88829
1552.49438	0.87734
1550.56582	0.86660
1548.63726	0.85580
1546.70869	0.84640
1544.78013	0.83853
1542.85156	0.83108
1540.92300	0.82213
1538.99443	0.80893
1537.06587	0.79934
1535.13730	0.79352
1533.20874	0.78643
1531.28018	0.77815
1529.35161	0.77181
1527.42305	0.76630
1525.49448	0.76057
1523.56592	0.75517
1521.63735	0.74951
1519.70879	0.74304
1517.78022	0.73722
1515.85166	0.73110
1513.92310	0.72526
1511.99453	0.72086
1510.06597	0.71747
1508.13740	0.71475
1506.20884	0.70989
1504.28027	0.70412
1502.35171	0.70033
1500.42314	0.69723
1498.49458	0.69427
1496.56602	0.69095
1494.63745	0.68729
1492.70889	0.68432
1490.78032	0.68229
1488.85176	0.67999
1486.92319	0.67678
1484.99463	0.67362
1483.06606	0.67100
1481.13750	0.66873
1479.20894	0.66661
1477.28037	0.66470
1475.35181	0.66307
1473.42324	0.66146
1471.49468	0.65868
1469.56611	0.65514
1467.63755	0.65213
1465.70898	0.64946
1463.78042	0.64669
1461.85186	0.64444
1459.92329	0.64327
1457.99473	0.64242
1456.06616	0.63951
1454.13760	0.63536
1452.20903	0.63228
1450.28047	0.62994
1448.35190	0.62791
1446.42334	0.62574
1444.49478	0.62351
1442.56621	0.62153
1440.63765	0.61977
1438.70908	0.61834
1436.78052	0.61707
1434.85195	0.61532
1432.92339	0.61337
1430.99482	0.61174
1429.06626	0.61027
1427.13770	0.60887
1425.20913	0.60759
1423.28057	0.60633
1421.35200	0.60521
1419.42344	0.60424
1417.49487	0.60270
1415.56631	0.60058
1413.63774	0.59861
1411.70918	0.59673
1409.78062	0.59491
1407.85205	0.59344
1405.92349	0.59235
1403.99492	0.59113
1402.06636	0.58957
1400.13779	0.58820
1398.20923	0.58710
1396.28066	0.58601
1394.35210	0.58464
1392.42354	0.58288
1390.49497	0.58117
1388.56641	0.57986
1386.63784	0.57868
1384.70928	0.57721
1382.78071	0.57583
1380.85215	0.57488
1378.92358	0.57412
1376.99502	0.57339
1375.06646	0.57271
1373.13789	0.57169
1371.20933	0.57049
1369.28076	0.56954
1367.35220	0.56871
1365.42363	0.56782
1363.49507	0.56694
1361.56650	0.56594
1359.63794	0.56477
1357.70937	0.56376
1355.78081	0.56286
1353.85225	0.56183
1351.92368	0.56076
1349.99512	0.55984
1348.06655	0.55891
1346.13799	0.55788
1344.20942	0.55686
1342.28086	0.55599
1340.35229	0.55539
1338.42373	0.55475
1336.49517	0.55370
1334.56660	0.55247
1332.63804	0.55147
1330.70947	0.55072
1328.78091	0.54998
1326.85234	0.54927
1324.92378	0.54869
1322.99521	0.54808
1321.06665	0.54731
1319.13809	0.54650
1317.20952	0.54573
1315.28096	0.54499
1313.35239	0.54409
1311.42383	0.54305
1309.49526	0.54211
1307.56670	0.54119
1305.63813	0.54017
1303.70957	0.53924
1301.78101	0.53858
1299.85244	0.53801
1297.92388	0.53736
1295.99531	0.53661
1294.06675	0.53575
1292.13818	0.53493
1290.20962	0.53435
1288.28105	0.53401
1286.35249	0.53358
1284.42393	0.53284
1282.49536	0.53208
1280.56680	0.53161
1278.63823	0.53130
1276.70967	0.53091
1274.78110	0.53037
1272.85254	0.52983
1270.92397	0.52947
1268.99541	0.52915
1267.06685	0.52861
1265.13828	0.52796
1263.20972	0.52747
1261.28115	0.52704
1259.35259	0.52652
1257.42402	0.52611
1255.49546	0.52595
1253.56689	0.52577
1251.63833	0.52543
1249.70977	0.52512
1247.78120	0.52488
1245.85264	0.52463
1243.92407	0.52425
1241.99551	0.52375
1240.06694	0.52329
1238.13838	0.52287
1236.20981	0.52236
1234.28125	0.52185
1232.35269	0.52134
1230.42412	0.52063
1228.49556	0.51976
1226.56699	0.51900
1224.63843	0.51839
1222.70986	0.51776
1220.78130	0.51704
1218.85273	0.51632
1216.92417	0.51573
1214.99561	0.51527
1213.06704	0.51466
1211.13848	0.51388
1209.20991	0.51314
1207.28135	0.51252
1205.35278	0.51192
1203.42422	0.51136
1201.49565	0.51085
1199.56709	0.51040
1197.63853	0.50997
1195.70996	0.50940
1193.78140	0.50875
1191.85283	0.50817
1189.92427	0.50772
1187.99570	0.50741
1186.06714	0.50734
1184.13857	0.50750
1182.21001	0.50766
1180.28145	0.50778
1178.35288	0.50794
1176.42432	0.50820
1174.49575	0.50865
1172.56719	0.50933
1170.63862	0.51003
1168.71006	0.51046
1166.78149	0.51079
1164.85293	0.51127
1162.92437	0.51178
1160.99580	0.51212
1159.06724	0.51223
1157.13867	0.51198
1155.21011	0.51132
1153.28154	0.51024
1151.35298	0.50874
1149.42441	0.50691
1147.49585	0.50487
1145.56729	0.50277
1143.63872	0.50051
1141.71016	0.49800
1139.78159	0.49543
1137.85303	0.49332
1135.92446	0.49181
1133.99590	0.49045
1132.06733	0.48895
1130.13877	0.48748
1128.21021	0.48611
1126.28164	0.48477
1124.35308	0.48362
1122.42451	0.48270
1120.49595	0.48193
1118.56738	0.48145
1116.63882	0.48129
1114.71025	0.48129
1112.78169	0.48132
1110.85312	0.48131
1108.92456	0.48147
1106.99600	0.48204
1105.06743	0.48311
1103.13887	0.48481
1101.21030	0.48695
1099.28174	0.48907
1097.35317	0.49128
1095.42461	0.49406
1093.49604	0.49762
1091.56748	0.50195
1089.63892	0.50698
1087.71035	0.51277
1085.78179	0.51934
1083.85322	0.52635
1081.92466	0.53322
1079.99609	0.53892
1078.06753	0.54276
1076.13896	0.54437
1074.21040	0.54304
1072.28184	0.53874
1070.35327	0.53258
1068.42471	0.52578
1066.49614	0.51909
1064.56758	0.51295
1062.63901	0.50733
1060.71045	0.50203
1058.78188	0.49734
1056.85332	0.49368
1054.92476	0.49082
1052.99619	0.48812
1051.06763	0.48534
1049.13906	0.48297
1047.21050	0.48150
1045.28193	0.48067
1043.35337	0.47999
1041.42480	0.47937
1039.49624	0.47871
1037.56768	0.47815
1035.63911	0.47790
1033.71055	0.47779
1031.78198	0.47773
1029.85342	0.47764
1027.92485	0.47749
1025.99629	0.47739
1024.06772	0.47741
1022.13916	0.47774
1020.21060	0.47850
1018.28203	0.47943
1016.35347	0.48029
1014.42490	0.48120
1012.49634	0.48216
1010.56777	0.48320
1008.63921	0.48449
1006.71064	0.48614
1004.78208	0.48812
1002.85352	0.49040
1000.92495	0.49307
998.99639	0.49624
997.06782	0.49981
995.13926	0.50358
993.21069	0.50718
991.28213	0.51028
989.35356	0.51273
987.42500	0.51444
985.49644	0.51545
983.56787	0.51611
981.63931	0.51687
979.71074	0.51810
977.78218	0.52008
975.85361	0.52272
973.92505	0.52570
971.99648	0.52893
970.06792	0.53240
968.13936	0.53627
966.21079	0.54067
964.28223	0.54534
962.35366	0.55003
960.42510	0.55494
958.49653	0.56033
956.56797	0.56609
954.63940	0.57217
952.71084	0.57845
950.78228	0.58473
948.85371	0.59128
946.92515	0.59791
944.99658	0.60394
943.06802	0.60982
941.13945	0.61584
939.21089	0.62144
937.28232	0.62686
935.35376	0.63277
933.42520	0.63913
931.49663	0.64558
929.56807	0.65172
927.63950	0.65732
925.71094	0.66273
923.78237	0.66857
921.85381	0.67505
919.92524	0.68253
917.99668	0.69063
916.06812	0.69815
914.13955	0.70522
912.21099	0.71272
910.28242	0.72121
908.35386	0.73036
906.42529	0.73919
904.49673	0.74780
902.56816	0.75730
900.63960	0.76822
898.71104	0.77961
896.78247	0.78989
894.85391	0.79869
892.92534	0.80764
890.99678	0.81795
889.06821	0.82863
887.13965	0.83875
885.21108	0.84909
883.28252	0.86098
881.35396	0.87344
879.42539	0.88488
877.49683	0.89603
875.56826	0.90752
873.63970	0.91838
871.71113	0.92885
869.78257	0.94071
867.85400	0.95250
865.92544	0.96251
863.99687	0.97409
862.06831	0.98812
860.13975	1.00072
858.21118	1.01175
856.28262	1.02365
854.35405	1.03662
852.42549	1.04828
850.49692	1.05779
848.56836	1.06899
846.63979	1.08173
844.71123	1.09318
842.78267	1.10643
840.85410	1.12086
838.92554	1.13054
836.99697	1.13961
835.06841	1.15561
833.13984	1.17609
831.21128	1.19498
829.28271	1.20989
827.35415	1.22137
825.42559	1.22885
823.49702	1.23400
821.56846	1.23991
819.63989	1.24545
817.71133	1.25657
815.78276	1.27585
813.85420	1.28958
811.92563	1.29713
809.99707	1.31234
808.06851	1.33314
806.13994	1.34933
804.21138	1.37204
802.28281	1.40828
800.35425	1.43345
798.42568	1.43233
796.49712	1.40444
794.56855	1.38960
792.63999	1.43050
790.71143	1.44962
788.78286	1.36348
786.85430	1.27612
784.92573	1.25518
782.99717	1.26315
781.06860	1.26431
779.14004	1.24360
777.21147	1.22651
775.28291	1.22214
773.35435	1.20280
771.42578	1.15782
769.49722	1.12961
767.56865	1.12576
765.64009	1.09106
763.71152	1.03127
761.78296	0.97926
759.85439	0.94323
757.92583	0.92635
755.99727	0.90057
754.06870	0.86184
752.14014	0.84813
750.21157	0.85232
748.28301	0.83441
746.35444	0.78739
744.42588	0.73345
742.49731	0.68448
740.56875	0.62172
738.64019	0.53849
736.71162	0.45332
734.78306	0.38279
732.85449	0.33149
730.92593	0.27883
728.99736	0.19964
727.06880	0.11870
725.14023	0.04252
723.21167	-0.04599
721.28311	-0.11177
719.35454	-0.07886
717.42598	0.00630
715.49741	0.08178
713.56885	0.12029
711.64028	0.11682
709.71172	0.09568
707.78315	0.08464
705.85459	0.12725
703.92603	0.15105
701.99746	0.09991
700.06890	0.05154
698.14033	0.06276
696.21177	0.10378
694.28320	0.10585
692.35464	0.05863
690.42607	0.04082
688.49751	0.06802
686.56895	0.09956
684.64038	0.14407
682.71182	0.19311
680.78325	0.19995
678.85469	0.18655
676.92612	0.18027
674.99756	0.15979
673.06899	0.11876
671.14043	0.07951
669.21187	0.03810
667.28330	0.00927
665.35474	0.02637
663.42617	0.06054
661.49761	0.04998
659.56904	0.01309
657.64048	0.02100
655.71191	0.07280
653.78335	0.10922
651.85479	0.11181
649.92622	0.08337
647.99766	0.04286
646.06909	0.02793
644.14053	0.03690
642.21196	0.04032
640.28340	0.03537
638.35483	0.06134
636.42627	0.13516
634.49771	0.18818
632.56914	0.18009
630.64058	0.14764
628.71201	0.12237
626.78345	0.13252
624.85488	0.15918
622.92632	0.15156
620.99775	0.11228
619.06919	0.05580
617.14062	0.00349
615.21206	-0.01343
613.28350	-0.00172
611.35493	0.02172
609.42637	0.05505
607.49780	0.09165
605.56924	0.11308
603.64067	0.09815
601.71211	0.07424
599.78354	0.05376
597.85498	0.03239
595.92642	0.04999
593.99785	0.09714
592.06929	0.12351
590.14072	0.10534
588.21216	0.08236
586.28359	0.08922
584.35503	0.10125
582.42646	0.10276
580.49790	0.11484
578.56934	0.12612
576.64077	0.12995
574.71221	0.13810
572.78364	0.13712
570.85508	0.12656
568.92651	0.12110
566.99795	0.11952
565.06938	0.10383
563.14082	0.07240
561.21226	0.05216
559.28369	0.06134
557.35513	0.09192
555.42656	0.10601
553.49800	0.10150
551.56943	0.11619
549.64087	0.13090
547.71230	0.11740
545.78374	0.09557
543.85518	0.06837
541.92661	0.03874
539.99805	0.01681
538.06948	0.01680
536.14092	0.04823
534.21235	0.08658
532.28379	0.09460
530.35522	0.08704
528.42666	0.07669
526.49810	0.06529
524.56953	0.06441
522.64097	0.05741
520.71240	0.04724
518.78384	0.06215
516.85527	0.08800
514.92671	0.06771
512.99814	0.02099
511.06958	0.01164
509.14102	0.04248
507.21245	0.07067
505.28389	0.07585
503.35532	0.07780
501.42676	0.07549
499.49819	0.05966
