3997.91411	0.06155
3995.98555	0.06196
3994.05698	0.06215
3992.12842	0.06274
3990.19985	0.06385
3988.27129	0.06433
3986.34272	0.06370
3984.41416	0.06319
3982.48560	0.06336
3980.55703	0.06357
3978.62847	0.06361
3976.69990	0.06379
3974.77134	0.06401
3972.84277	0.06390
3970.91421	0.06380
3968.98564	0.06422
3967.05708	0.06483
3965.12852	0.06515
3963.19995	0.06541
3961.27139	0.06593
3959.34282	0.06624
3957.41426	0.06604
3955.48569	0.06586
3953.55713	0.06578
3951.62856	0.06562
3949.70000	0.06576
3947.77144	0.06639
3945.84287	0.06688
3943.91431	0.06681
3941.98574	0.06626
3940.05718	0.06576
3938.12861	0.06569
3936.20005	0.06564
3934.27148	0.06569
3932.34292	0.06618
3930.41436	0.06656
3928.48579	0.06640
3926.55723	0.06596
3924.62866	0.06558
3922.70010	0.06516
3920.77153	0.06449
3918.84297	0.06412
3916.91440	0.06425
3914.98584	0.06423
3913.05728	0.06388
3911.12871	0.06354
3909.20015	0.06359
3907.27158	0.06436
3905.34302	0.06567
3903.41445	0.06655
3901.48589	0.06607
3899.55732	0.06529
3897.62876	0.06518
3895.70020	0.06520
3893.77163	0.06526
3891.84307	0.06540
3889.91450	0.06530
3887.98594	0.06503
3886.05737	0.06505
3884.12881	0.06549
3882.20024	0.06597
3880.27168	0.06636
3878.34312	0.06650
3876.41455	0.06629
3874.48599	0.06615
3872.55742	0.06609
3870.62886	0.06605
3868.70029	0.06639
3866.77173	0.06713
3864.84316	0.06795
3862.91460	0.06854
3860.98604	0.06874
3859.05747	0.06895
3857.12891	0.06936
3855.20034	0.06985
3853.27178	0.07022
3851.34321	0.07032
3849.41465	0.07054
3847.48608	0.07089
3845.55752	0.07106
3843.62896	0.07153
3841.70039	0.07262
3839.77183	0.07345
3837.84326	0.07366
3835.91470	0.07378
3833.98613	0.07427
3832.05757	0.07504
3830.12900	0.07576
3828.20044	0.07636
3826.27187	0.07720
3824.34331	0.07828
3822.41475	0.07924
3820.48618	0.08032
3818.55762	0.08108
3816.62905	0.08153
3814.70049	0.08242
3812.77192	0.08313
3810.84336	0.08353
3808.91479	0.08427
3806.98623	0.08568
3805.05767	0.08754
3803.12910	0.08915
3801.20054	0.09065
3799.27197	0.09192
3797.34341	0.09258
3795.41484	0.09319
3793.48628	0.09394
3791.55771	0.09478
3789.62915	0.09571
3787.70059	0.09685
3785.77202	0.09840
3783.84346	0.10015
3781.91489	0.10176
3779.98633	0.10338
3778.05776	0.10525
3776.12920	0.10679
3774.20063	0.10802
3772.27207	0.10937
3770.34351	0.11092
3768.41494	0.11298
3766.48638	0.11506
3764.55781	0.11656
3762.62925	0.11799
3760.70068	0.12013
3758.77212	0.12299
3756.84355	0.12565
3754.91499	0.12780
3752.98643	0.13024
3751.05786	0.13368
3749.12930	0.13726
3747.20073	0.13938
3745.27217	0.14143
3743.34360	0.14493
3741.41504	0.14851
3739.48647	0.15141
3737.55791	0.15481
3735.62935	0.15961
3733.70078	0.16482
3731.77222	0.16913
3729.84365	0.17382
3727.91509	0.17855
3725.98652	0.18340
3724.05796	0.18921
3722.12939	0.19574
3720.20083	0.20248
3718.27227	0.20924
3716.34370	0.21635
3714.41514	0.22372
3712.48657	0.23235
3710.55801	0.24473
3708.62944	0.25883
3706.70088	0.27046
3704.77231	0.28139
3702.84375	0.29446
3700.91519	0.31099
3698.98662	0.32849
3697.05806	0.34515
3695.12949	0.36280
3693.20093	0.38142
3691.27236	0.40162
3689.34380	0.42817
3687.41523	0.46209
3685.48667	0.49266
3683.55811	0.51873
3681.62954	0.54610
3679.70098	0.57660
3677.77241	0.60842
3675.84385	0.64561
3673.91528	0.69651
3671.98672	0.73961
3670.05815	0.77784
3668.12959	0.83040
3666.20103	0.87928
3664.27246	0.91954
3662.34390	0.96173
3660.41533	1.00710
3658.48677	1.05196
3656.55820	1.09990
3654.62964	1.15401
3652.70107	1.19990
3650.77251	1.23937
3648.84395	1.29339
3646.91538	1.35946
3644.98682	1.40849
3643.05825	1.44742
3641.12969	1.48763
3639.20112	1.53172
3637.27256	1.57616
3635.34399	1.61908
3633.41543	1.66117
3631.48687	1.70024
3629.55830	1.74005
3627.62974	1.79232
3625.70117	1.84214
3623.77261	1.87702
3621.84404	1.91001
3619.91548	1.94656
3617.98691	1.99085
3616.05835	2.03536
3614.12979	2.07267
3612.20122	2.11035
3610.27266	2.14890
3608.34409	2.18907
3606.41553	2.23202
3604.48696	2.27189
3602.55840	2.30769
3600.62983	2.34556
3598.70127	2.38587
3596.77271	2.42569
3594.84414	2.46605
3592.91558	2.50673
3590.98701	2.54465
3589.05845	2.58045
3587.12988	2.62391
3585.20132	2.67214
3583.27275	2.71356
3581.34419	2.75272
3579.41562	2.79452
3577.48706	2.83790
3575.55850	2.88051
3573.62993	2.92269
3571.70137	2.96457
3569.77280	3.00599
3567.84424	3.04828
3565.91567	3.09897
3563.98711	3.15218
3562.05854	3.19726
3560.12998	3.23939
3558.20142	3.28233
3556.27285	3.32654
3554.34429	3.37059
3552.41572	3.41657
3550.48716	3.46475
3548.55859	3.51075
3546.63003	3.55599
3544.70146	3.60465
3542.77290	3.65252
3540.84434	3.69717
3538.91577	3.74334
3536.98721	3.79301
3535.05864	3.84531
3533.13008	3.89440
3531.20151	3.93844
3529.27295	3.98319
3527.34438	4.03267
3525.41582	4.08261
3523.48726	4.13006
3521.55869	4.17896
3519.63013	4.22806
3517.70156	4.27286
3515.77300	4.31658
3513.84443	4.36634
3511.91587	4.41860
3509.98730	4.46801
3508.05874	4.51462
3506.13018	4.55703
3504.20161	4.60141
3502.27305	4.65619
3500.34448	4.71286
3498.41592	4.76094
3496.48735	4.80472
3494.55879	4.85235
3492.63022	4.90795
3490.70166	4.96345
3488.77310	5.00560
3486.84453	5.03905
3484.91597	5.08269
3482.98740	5.13604
3481.05884	5.18688
3479.13027	5.23287
3477.20171	5.27848
3475.27314	5.32709
3473.34458	5.37346
3471.41602	5.41370
3469.48745	5.45759
3467.55889	5.51036
3465.63032	5.56291
3463.70176	5.61662
3461.77319	5.66978
3459.84463	5.71308
3457.91606	5.75765
3455.98750	5.81777
3454.05894	5.88491
3452.13037	5.94043
3450.20181	5.98634
3448.27324	6.02828
3446.34468	6.06187
3444.41611	6.10606
3442.48755	6.17748
3440.55898	6.24467
3438.63042	6.29283
3436.70186	6.33699
3434.77329	6.36836
3432.84473	6.38455
3430.91616	6.41161
3428.98760	6.47370
3427.05903	6.56122
3425.13047	6.65412
3423.20190	6.73668
3421.27334	6.79671
3419.34478	6.81948
3417.41621	6.81014
3415.48765	6.81525
3413.55908	6.86250
3411.63052	6.92843
3409.70195	6.97340
3407.77339	7.00304
3405.84482	7.04311
3403.91626	7.10234
3401.98770	7.15047
3400.05913	7.17226
3398.13057	7.18401
3396.20200	7.20152
3394.27344	7.26025
3392.34487	7.34189
3390.41631	7.42019
3388.48774	7.50369
3386.55918	7.54969
3384.63062	7.51973
3382.70205	7.50156
3380.77349	7.53210
3378.84492	7.54576
3376.91636	7.54194
3374.98779	7.56222
3373.05923	7.67048
3371.13066	7.82557
3369.20210	7.89197
3367.27354	7.86808
3365.34497	7.83999
3363.41641	7.84323
3361.48784	7.86015
3359.55928	7.85568
3357.63071	7.80836
3355.70215	7.77671
3353.77358	7.77837
3351.84502	7.75132
3349.91646	7.74153
3347.98789	7.85239
3346.05933	8.00826
3344.13076	8.05467
3342.20220	8.02361
3340.27363	7.99474
3338.34507	7.98722
3336.41650	8.00969
3334.48794	8.04900
3332.55937	8.04782
3330.63081	8.03245
3328.70225	8.04510
3326.77368	8.04576
3324.84512	8.01968
3322.91655	7.99670
3320.98799	7.97028
3319.05942	7.95101
3317.13086	8.01873
3315.20229	8.12508
3313.27373	8.20248
3311.34517	8.27778
3309.41660	8.30832
3307.48804	8.30787
3305.55947	8.32689
3303.63091	8.31318
3301.70234	8.26902
3299.77378	8.28987
3297.84521	8.30131
3295.91665	8.19262
3293.98809	8.10980
3292.05952	8.15098
3290.13096	8.18143
3288.20239	8.17238
3286.27383	8.24150
3284.34526	8.33250
3282.41670	8.29477
3280.48813	8.14991
3278.55957	8.05948
3276.63101	8.06176
3274.70244	8.13220
3272.77388	8.23831
3270.84531	8.28829
3268.91675	8.25782
3266.98818	8.21310
3265.05962	8.24290
3263.13105	8.32996
3261.20249	8.32757
3259.27393	8.22175
3257.34536	8.15836
3255.41680	8.16231
3253.48823	8.21029
3251.55967	8.27978
3249.63110	8.28787
3247.70254	8.28803
3245.77397	8.32291
3243.84541	8.29417
3241.91685	8.27019
3239.98828	8.39544
3238.05972	8.55069
3236.13115	8.55951
3234.20259	8.49757
3232.27402	8.40460
3230.34546	8.24869
3228.41689	8.11345
3226.48833	8.07955
3224.55977	8.09117
3222.63120	8.06479
3220.70264	7.99215
3218.77407	7.91281
3216.84551	7.87300
3214.91694	7.88561
3212.98838	7.90027
3211.05981	7.88569
3209.13125	7.88812
3207.20269	7.87806
3205.27412	7.78251
3203.34556	7.65217
3201.41699	7.59286
3199.48843	7.64227
3197.55986	7.72908
3195.63130	7.74439
3193.70273	7.68520
3191.77417	7.60605
3189.84561	7.52524
3187.91704	7.45561
3185.98848	7.41924
3184.05991	7.41380
3182.13135	7.38456
3180.20278	7.31327
3178.27422	7.26095
3176.34565	7.23255
3174.41709	7.18683
3172.48853	7.15704
3170.55996	7.15839
3168.63140	7.12546
3166.70283	7.03222
3164.77427	6.92287
3162.84570	6.84133
3160.91714	6.79197
3158.98857	6.73735
3157.06001	6.65706
3155.13145	6.57790
3153.20288	6.50521
3151.27432	6.42456
3149.34575	6.35660
3147.41719	6.31614
3145.48862	6.26815
3143.56006	6.19066
3141.63149	6.10663
3139.70293	6.03395
3137.77437	5.97033
3135.84580	5.90192
3133.91724	5.82897
3131.98867	5.75966
3130.06011	5.69517
3128.13154	5.62777
3126.20298	5.54799
3124.27441	5.46832
3122.34585	5.39475
3120.41729	5.32179
3118.48872	5.24903
3116.56016	5.17516
3114.63159	5.10483
3112.70303	5.04003
3110.77446	4.97444
3108.84590	4.90751
3106.91733	4.84221
3104.98877	4.77623
3103.06021	4.70988
3101.13164	4.64314
3099.20308	4.57557
3097.27451	4.50944
3095.34595	4.44187
3093.41738	4.37159
3091.48882	4.30139
3089.56025	4.23398
3087.63169	4.17191
3085.70312	4.11218
3083.77456	4.05158
3081.84600	3.99203
3079.91743	3.93226
3077.98887	3.87023
3076.06030	3.80796
3074.13174	3.74839
3072.20317	3.69085
3070.27461	3.63218
3068.34604	3.57439
3066.41748	3.51969
3064.48892	3.46571
3062.56035	3.41062
3060.63179	3.35436
3058.70322	3.29877
3056.77466	3.24500
3054.84609	3.19182
3052.91753	3.13918
3050.98896	3.08866
3049.06040	3.04002
3047.13184	2.99055
3045.20327	2.93890
3043.27471	2.88739
3041.34614	2.83815
3039.41758	2.79037
3037.48901	2.74298
3035.56045	2.69654
3033.63188	2.65122
3031.70332	2.60590
3029.77476	2.56056
3027.84619	2.51605
3025.91763	2.47195
3023.98906	2.42784
3022.06050	2.38493
3020.13193	2.34435
3018.20337	2.30508
3016.27480	2.26511
3014.34624	2.22398
3012.41768	2.18311
3010.48911	2.14393
3008.56055	2.10680
3006.63198	2.07078
3004.70342	2.03491
3002.77485	1.99971
3000.84629	1.96552
2998.91772	1.93158
2996.98916	1.89813
2995.06060	1.86619
2993.13203	1.83524
2991.20347	1.80480
2989.27490	1.77532
2987.34634	1.74633
2985.41777	1.71769
2983.48921	1.68956
2981.56064	1.66157
2979.63208	1.63440
2977.70352	1.60848
2975.77495	1.58350
2973.84639	1.55950
2971.91782	1.53620
2969.98926	1.51257
2968.06069	1.48817
2966.13213	1.46405
2964.20356	1.44097
2962.27500	1.41841
2960.34644	1.39552
2958.41787	1.37206
2956.48931	1.34813
2954.56074	1.32374
2952.63218	1.29933
2950.70361	1.27562
2948.77505	1.25297
2946.84648	1.23127
2944.91792	1.21015
2942.98936	1.18917
2941.06079	1.16836
2939.13223	1.14818
2937.20366	1.12858
2935.27510	1.10939
2933.34653	1.09044
2931.41797	1.07116
2929.48940	1.05184
2927.56084	1.03298
2925.63228	1.01400
2923.70371	0.99473
2921.77515	0.97605
2919.84658	0.95832
2917.91802	0.94091
2915.98945	0.92341
2914.06089	0.90619
2912.13232	0.88931
2910.20376	0.87268
2908.27520	0.85654
2906.34663	0.84103
2904.41807	0.82589
2902.48950	0.81115
2900.56094	0.79706
2898.63237	0.78342
2896.70381	0.76990
2894.77524	0.75661
2892.84668	0.74370
2890.91812	0.73126
2888.98955	0.71947
2887.06099	0.70826
2885.13242	0.69766
2883.20386	0.68783
2881.27529	0.67839
2879.34673	0.66874
2877.41816	0.65908
2875.48960	0.64979
2873.56104	0.64021
2871.63247	0.62979
2869.70391	0.61871
2867.77534	0.60699
2865.84678	0.59490
2863.91821	0.58307
2861.98965	0.57185
2860.06108	0.56121
2858.13252	0.55083
2856.20396	0.54063
2854.27539	0.53097
2852.34683	0.52201
2850.41826	0.51335
2848.48970	0.50440
2846.56113	0.49531
2844.63257	0.48688
2842.70400	0.47933
2840.77544	0.47254
2838.84687	0.46597
2836.91831	0.45928
2834.98975	0.45264
2833.06118	0.44615
2831.13262	0.43993
2829.20405	0.43407
2827.27549	0.42832
2825.34692	0.42235
2823.41836	0.41611
2821.48979	0.40996
2819.56123	0.40417
2817.63267	0.39857
2815.70410	0.39301
2813.77554	0.38748
2811.84697	0.38181
2809.91841	0.37606
2807.98984	0.37038
2806.06128	0.36493
2804.13271	0.35979
2802.20415	0.35468
2800.27559	0.34957
2798.34702	0.34468
2796.41846	0.33996
2794.48989	0.33519
2792.56133	0.33040
2790.63276	0.32582
2788.70420	0.32147
2786.77563	0.31710
2784.84707	0.31270
2782.91851	0.30840
2780.98994	0.30426
2779.06138	0.30021
2777.13281	0.29608
2775.20425	0.29187
2773.27568	0.28784
2771.34712	0.28418
2769.41855	0.28066
2767.48999	0.27708
2765.56143	0.27352
2763.63286	0.27005
2761.70430	0.26666
2759.77573	0.26324
2757.84717	0.25977
2755.91860	0.25637
2753.99004	0.25316
2752.06147	0.25009
2750.13291	0.24714
2748.20435	0.24439
2746.27578	0.24163
2744.34722	0.23875
2742.41865	0.23602
2740.49009	0.23354
2738.56152	0.23112
2736.63296	0.22860
2734.70439	0.22590
2732.77583	0.22324
2730.84727	0.22085
2728.91870	0.21866
2726.99014	0.21638
2725.06157	0.21396
2723.13301	0.21167
2721.20444	0.20954
2719.27588	0.20748
2717.34731	0.20554
2715.41875	0.20370
2713.49019	0.20174
2711.56162	0.19965
2709.63306	0.19782
2707.70449	0.19626
2705.77593	0.19465
2703.84736	0.19307
2701.91880	0.19156
2699.99023	0.19013
2698.06167	0.18881
2696.13311	0.18752
2694.20454	0.18605
2692.27598	0.18441
2690.34741	0.18284
2688.41885	0.18141
2686.49028	0.18020
2684.56172	0.17928
2682.63315	0.17836
2680.70459	0.17712
2678.77603	0.17579
2676.84746	0.17465
2674.91890	0.17363
2672.99033	0.17250
2671.06177	0.17125
2669.13320	0.17000
2667.20464	0.16892
2665.27607	0.16801
2663.34751	0.16718
2661.41895	0.16642
2659.49038	0.16571
2657.56182	0.16493
2655.63325	0.16398
2653.70469	0.16304
2651.77612	0.16228
2649.84756	0.16169
2647.91899	0.16111
2645.99043	0.16046
2644.06187	0.15980
2642.13330	0.15917
2640.20474	0.15860
2638.27617	0.15804
2636.34761	0.15747
2634.41904	0.15693
2632.49048	0.15642
2630.56191	0.15606
2628.63335	0.15578
2626.70479	0.15537
2624.77622	0.15481
2622.84766	0.15426
2620.91909	0.15397
2618.99053	0.15397
2617.06196	0.15401
2615.13340	0.15391
2613.20483	0.15369
2611.27627	0.15332
2609.34771	0.15287
2607.41914	0.15268
2605.49058	0.15272
2603.56201	0.15259
2601.63345	0.15250
2599.70488	0.15261
2597.77632	0.15267
2595.84775	0.15268
2593.91919	0.15275
2591.99062	0.15276
2590.06206	0.15282
2588.13350	0.15310
2586.20493	0.15340
2584.27637	0.15359
2582.34780	0.15372
2580.41924	0.15383
2578.49067	0.15381
2576.56211	0.15369
2574.63354	0.15383
2572.70498	0.15437
2570.77642	0.15486
2568.84785	0.15501
2566.91929	0.15519
2564.99072	0.15565
2563.06216	0.15612
2561.13359	0.15652
2559.20503	0.15694
2557.27646	0.15736
2555.34790	0.15775
2553.41934	0.15808
2551.49077	0.15840
2549.56221	0.15884
2547.63364	0.15944
2545.70508	0.16013
2543.77651	0.16075
2541.84795	0.16128
2539.91938	0.16193
2537.99082	0.16268
2536.06226	0.16337
2534.13369	0.16398
2532.20513	0.16450
2530.27656	0.16505
2528.34800	0.16576
2526.41943	0.16656
2524.49087	0.16733
2522.56230	0.16797
2520.63374	0.16852
2518.70518	0.16916
2516.77661	0.16992
2514.84805	0.17066
2512.91948	0.17135
2510.99092	0.17215
2509.06235	0.17310
2507.13379	0.17394
2505.20522	0.17467
2503.27666	0.17541
2501.34810	0.17610
2499.41953	0.17665
2497.49097	0.17729
2495.56240	0.17820
2493.63384	0.17920
2491.70527	0.17999
2489.77671	0.18058
2487.84814	0.18127
2485.91958	0.18213
2483.99102	0.18302
2482.06245	0.18386
2480.13389	0.18470
2478.20532	0.18555
2476.27676	0.18650
2474.34819	0.18754
2472.41963	0.18851
2470.49106	0.18934
2468.56250	0.19015
2466.63394	0.19102
2464.70537	0.19186
2462.77681	0.19269
2460.84824	0.19360
2458.91968	0.19449
2456.99111	0.19538
2455.06255	0.19635
2453.13398	0.19728
2451.20542	0.19820
2449.27686	0.19916
2447.34829	0.20004
2445.41973	0.20091
2443.49116	0.20202
2441.56260	0.20323
2439.63403	0.20429
2437.70547	0.20517
2435.77690	0.20597
2433.84834	0.20684
2431.91978	0.20782
2429.99121	0.20873
2428.06265	0.20959
2426.13408	0.21066
2424.20552	0.21194
2422.27695	0.21320
2420.34839	0.21434
2418.41982	0.21527
2416.49126	0.21614
2414.56270	0.21731
2412.63413	0.21872
2410.70557	0.22001
2408.77700	0.22112
2406.84844	0.22212
2404.91987	0.22310
2402.99131	0.22422
2401.06274	0.22549
2399.13418	0.22677
2397.20562	0.22802
2395.27705	0.22932
2393.34849	0.23057
2391.41992	0.23176
2389.49136	0.23303
2387.56279	0.23439
2385.63423	0.23574
2383.70566	0.23735
2381.77710	0.23936
2379.84854	0.24146
2377.91997	0.24359
2375.99141	0.24572
2374.06284	0.24787
2372.13428	0.25032
2370.20571	0.25316
2368.27715	0.25604
2366.34858	0.25810
2364.42002	0.25938
2362.49146	0.26117
2360.56289	0.26319
2358.63433	0.26515
2356.70576	0.26720
2354.77720	0.26824
2352.84863	0.26864
2350.92007	0.26910
2348.99150	0.26977
2347.06294	0.27098
2345.13437	0.27318
2343.20581	0.27618
2341.27725	0.27883
2339.34868	0.28057
2337.42012	0.28159
2335.49155	0.28238
2333.56299	0.28338
2331.63442	0.28475
2329.70586	0.28618
2327.77729	0.28779
2325.84873	0.28940
2323.92017	0.29031
2321.99160	0.29085
2320.06304	0.29210
2318.13447	0.29391
2316.20591	0.29527
2314.27734	0.29627
2312.34878	0.29761
2310.42021	0.29919
2308.49165	0.30049
2306.56309	0.30176
2304.63452	0.30341
2302.70596	0.30512
2300.77739	0.30666
2298.84883	0.30808
2296.92026	0.30945
2294.99170	0.31098
2293.06313	0.31281
2291.13457	0.31473
2289.20601	0.31644
2287.27744	0.31799
2285.34888	0.31963
2283.42031	0.32136
2281.49175	0.32311
2279.56318	0.32503
2277.63462	0.32711
2275.70605	0.32926
2273.77749	0.33146
2271.84893	0.33362
2269.92036	0.33575
2267.99180	0.33795
2266.06323	0.34012
2264.13467	0.34219
2262.20610	0.34415
2260.27754	0.34603
2258.34897	0.34811
2256.42041	0.35043
2254.49185	0.35273
2252.56328	0.35485
2250.63472	0.35705
2248.70615	0.35940
2246.77759	0.36157
2244.84902	0.36353
2242.92046	0.36550
2240.99189	0.36762
2239.06333	0.36989
2237.13477	0.37225
2235.20620	0.37454
2233.27764	0.37670
2231.34907	0.37877
2229.42051	0.38089
2227.49194	0.38312
2225.56338	0.38535
2223.63481	0.38757
2221.70625	0.38978
2219.77769	0.39194
2217.84912	0.39410
2215.92056	0.39636
2213.99199	0.39857
2212.06343	0.40067
2210.13486	0.40277
2208.20630	0.40483
2206.27773	0.40686
2204.34917	0.40895
2202.42061	0.41107
2200.49204	0.41311
2198.56348	0.41519
2196.63491	0.41733
2194.70635	0.41931
2192.77778	0.42109
2190.84922	0.42279
2188.92065	0.42451
2186.99209	0.42636
2185.06353	0.42823
2183.13496	0.42995
2181.20640	0.43154
2179.27783	0.43312
2177.34927	0.43474
2175.42070	0.43629
2173.49214	0.43775
2171.56357	0.43918
2169.63501	0.44059
2167.70645	0.44191
2165.77788	0.44303
2163.84932	0.44410
2161.92075	0.44534
2159.99219	0.44662
2158.06362	0.44765
2156.13506	0.44848
2154.20649	0.44925
2152.27793	0.44998
2150.34937	0.45070
2148.42080	0.45141
2146.49224	0.45197
2144.56367	0.45234
2142.63511	0.45265
2140.70654	0.45296
2138.77798	0.45319
2136.84941	0.45326
2134.92085	0.45323
2132.99229	0.45321
2131.06372	0.45318
2129.13516	0.45303
2127.20659	0.45273
2125.27803	0.45230
2123.34946	0.45180
2121.42090	0.45125
2119.49233	0.45053
2117.56377	0.44971
2115.63521	0.44896
2113.70664	0.44829
2111.77808	0.44752
2109.84951	0.44662
2107.92095	0.44561
2105.99238	0.44436
2104.06382	0.44299
2102.13525	0.44172
2100.20669	0.44050
2098.27812	0.43913
2096.34956	0.43759
2094.42100	0.43597
2092.49243	0.43432
2090.56387	0.43254
2088.63530	0.43054
2086.70674	0.42849
2084.77817	0.42654
2082.84961	0.42472
2080.92104	0.42290
2078.99248	0.42091
2077.06392	0.41871
2075.13535	0.41648
2073.20679	0.41435
2071.27822	0.41221
2069.34966	0.40999
2067.42109	0.40761
2065.49253	0.40511
2063.56396	0.40260
2061.63540	0.40013
2059.70684	0.39773
2057.77827	0.39534
2055.84971	0.39285
2053.92114	0.39023
2051.99258	0.38750
2050.06401	0.38472
2048.13545	0.38200
2046.20688	0.37937
2044.27832	0.37677
2042.34976	0.37411
2040.42119	0.37140
2038.49263	0.36862
2036.56406	0.36576
2034.63550	0.36295
2032.70693	0.36020
2030.77837	0.35747
2028.84980	0.35477
2026.92124	0.35208
2024.99268	0.34927
2023.06411	0.34643
2021.13555	0.34367
2019.20698	0.34097
2017.27842	0.33826
2015.34985	0.33551
2013.42129	0.33273
2011.49272	0.33003
2009.56416	0.32742
2007.63560	0.32469
2005.70703	0.32191
2003.77847	0.31919
2001.84990	0.31648
1999.92134	0.31387
1997.99277	0.31136
1996.06421	0.30892
1994.13564	0.30658
1992.20708	0.30419
1990.27852	0.30149
1988.34995	0.29872
1986.42139	0.29617
1984.49282	0.29390
1982.56426	0.29175
1980.63569	0.28948
1978.70713	0.28722
1976.77856	0.28508
1974.85000	0.28298
1972.92144	0.28082
1970.99287	0.27865
1969.06431	0.27650
1967.13574	0.27440
1965.20718	0.27242
1963.27861	0.27061
1961.35005	0.26890
1959.42148	0.26712
1957.49292	0.26522
1955.56436	0.26336
1953.63579	0.26157
1951.70723	0.25977
1949.77866	0.25808
1947.85010	0.25659
1945.92153	0.25525
1943.99297	0.25391
1942.06440	0.25246
1940.13584	0.25089
1938.20728	0.24938
1936.27871	0.24803
1934.35015	0.24678
1932.42158	0.24564
1930.49302	0.24452
1928.56445	0.24338
1926.63589	0.24222
1924.70732	0.24113
1922.77876	0.24020
1920.85020	0.23944
1918.92163	0.23866
1916.99307	0.23773
1915.06450	0.23681
1913.13594	0.23596
1911.20737	0.23526
1909.27881	0.23460
1907.35024	0.23379
1905.42168	0.23296
1903.49312	0.23236
1901.56455	0.23187
1899.63599	0.23137
1897.70742	0.23098
1895.77886	0.23074
1893.85029	0.23056
1891.92173	0.23030
1889.99316	0.23011
1888.06460	0.22993
1886.13604	0.22963
1884.20747	0.22935
1882.27891	0.22919
1880.35034	0.22909
1878.42178	0.22896
1876.49321	0.22889
1874.56465	0.22885
1872.63608	0.22894
1870.70752	0.22922
1868.77896	0.22969
1866.85039	0.22992
1864.92183	0.22984
1862.99326	0.22992
1861.06470	0.23024
1859.13613	0.23068
1857.20757	0.23109
1855.27900	0.23155
1853.35044	0.23198
1851.42187	0.23244
1849.49331	0.23296
1847.56475	0.23359
1845.63618	0.23437
1843.70762	0.23540
1841.77905	0.23634
1839.85049	0.23691
1837.92192	0.23763
1835.99336	0.23855
1834.06479	0.23955
1832.13623	0.24066
1830.20767	0.24212
1828.27910	0.24350
1826.35054	0.24446
1824.42197	0.24572
1822.49341	0.24712
1820.56484	0.24844
1818.63628	0.24978
1816.70771	0.25131
1814.77915	0.25287
1812.85059	0.25464
1810.92202	0.25672
1808.99346	0.25880
1807.06489	0.26076
1805.13633	0.26267
1803.20776	0.26485
1801.27920	0.26736
1799.35063	0.27021
1797.42207	0.27278
1795.49351	0.27511
1793.56494	0.27764
1791.63638	0.28099
1789.70781	0.28461
1787.77925	0.28751
1785.85068	0.29070
1783.92212	0.29436
1781.99355	0.29817
1780.06499	0.30217
1778.13643	0.30639
1776.20786	0.31041
1774.27930	0.31474
1772.35073	0.32052
1770.42217	0.32667
1768.49360	0.33199
1766.56504	0.33728
1764.63647	0.34268
1762.70791	0.34849
1760.77935	0.35585
1758.85078	0.36293
1756.92222	0.37017
1754.99365	0.37801
1753.06509	0.38494
1751.13652	0.39294
1749.20796	0.40307
1747.27939	0.41349
1745.35083	0.42300
1743.42227	0.43286
1741.49370	0.44339
1739.56514	0.45588
1737.63657	0.46856
1735.70801	0.47944
1733.77944	0.49550
1731.85088	0.51497
1729.92231	0.53054
1727.99375	0.54625
1726.06519	0.56317
1724.13662	0.58154
1722.20806	0.60131
1720.27949	0.61959
1718.35093	0.64090
1716.42236	0.67241
1714.49380	0.70279
1712.56523	0.72764
1710.63667	0.75165
1708.70811	0.77739
1706.77954	0.80670
1704.85098	0.84192
1702.92241	0.87361
1700.99385	0.90522
1699.06528	0.95244
1697.13672	0.99627
1695.20815	1.04197
1693.27959	1.08711
1691.35103	1.12373
1689.42246	1.16569
1687.49390	1.21010
1685.56533	1.25325
1683.63677	1.32006
1681.70820	1.39015
1679.77964	1.43553
1677.85107	1.47833
1675.92251	1.52746
1673.99395	1.58866
1672.06538	1.64357
1670.13682	1.69773
1668.20825	1.76887
1666.27969	1.82811
1664.35112	1.87885
1662.42256	1.94353
1660.49399	2.01754
1658.56543	2.07451
1656.63687	2.11965
1654.70830	2.16053
1652.77974	2.21999
1650.85117	2.27386
1648.92261	2.29280
1646.99404	2.31783
1645.06548	2.34463
1643.13691	2.35979
1641.20835	2.36584
1639.27979	2.37133
1637.35122	2.37295
1635.42266	2.36804
1633.49409	2.35869
1631.56553	2.34368
1629.63696	2.32441
1627.70840	2.29332
1625.77983	2.25579
1623.85127	2.20770
1621.92271	2.15110
1619.99414	2.10314
1618.06558	2.05686
1616.13701	1.99059
1614.20845	1.92358
1612.27988	1.87254
1610.35132	1.81919
1608.42275	1.76180
1606.49419	1.70602
1604.56562	1.65524
1602.63706	1.60628
1600.70850	1.55813
1598.77993	1.51381
1596.85137	1.47267
1594.92280	1.43312
1592.99424	1.39503
1591.06567	1.36022
1589.13711	1.32804
1587.20854	1.29879
1585.27998	1.27219
1583.35142	1.24734
1581.42285	1.22478
1579.49429	1.20588
1577.56572	1.18923
1575.63716	1.17019
1573.70859	1.15487
1571.78003	1.14556
1569.85146	1.13659
1567.92290	1.12765
1565.99434	1.12192
1564.06577	1.11875
1562.13721	1.11706
1560.20864	1.11776
1558.28008	1.12607
1556.35151	1.13574
1554.42295	1.14006
1552.49438	1.14352
1550.56582	1.14543
1548.63726	1.14499
1546.70869	1.14138
1544.78013	1.13328
1542.85156	1.12017
1540.92300	1.09864
1538.99443	1.06564
1537.06587	1.04298
1535.13730	1.02723
1533.20874	1.00483
1531.28018	0.98060
1529.35161	0.96294
1527.42305	0.94613
1525.49448	0.92882
1523.56592	0.91435
1521.63735	0.90093
1519.70879	0.88816
1517.78022	0.87760
1515.85166	0.86471
1513.92310	0.85072
1511.99453	0.83834
1510.06597	0.82695
1508.13740	0.81540
1506.20884	0.79757
1504.28027	0.78304
1502.35171	0.77560
1500.42314	0.76903
1498.49458	0.76154
1496.56602	0.75260
1494.63745	0.74405
1492.70889	0.73763
1490.78032	0.73191
1488.85176	0.72536
1486.92319	0.71952
1484.99463	0.71510
1483.06606	0.71164
1481.13750	0.70894
1479.20894	0.70727
1477.28037	0.70676
1475.35181	0.70715
1473.42324	0.70824
1471.49468	0.70880
1469.56611	0.70760
1467.63755	0.70552
1465.70898	0.70364
1463.78042	0.70261
1461.85186	0.70236
1459.92329	0.70243
1457.99473	0.70260
1456.06616	0.70212
1454.13760	0.70009
1452.20903	0.69742
1450.28047	0.69460
1448.35190	0.69188
1446.42334	0.68901
1444.49478	0.68595
1442.56621	0.68280
1440.63765	0.67953
1438.70908	0.67615
1436.78052	0.67184
1434.85195	0.66705
1432.92339	0.66369
1430.99482	0.66172
1429.06626	0.66071
1427.13770	0.66054
1425.20913	0.66112
1423.28057	0.66217
1421.35200	0.66291
1419.42344	0.66344
1417.49487	0.66389
1415.56631	0.66358
1413.63774	0.66317
1411.70918	0.66347
1409.78062	0.66474
1407.85205	0.66663
1405.92349	0.66887
1403.99492	0.67103
1402.06636	0.67194
1400.13779	0.67141
1398.20923	0.66979
1396.28066	0.66713
1394.35210	0.66310
1392.42354	0.65826
1390.49497	0.65360
1388.56641	0.64882
1386.63784	0.64319
1384.70928	0.63713
1382.78071	0.63137
1380.85215	0.62598
1378.92358	0.62123
1376.99502	0.61752
1375.06646	0.61510
1373.13789	0.61366
1371.20933	0.61264
1369.28076	0.61175
1367.35220	0.61060
1365.42363	0.60898
1363.49507	0.60712
1361.56650	0.60536
1359.63794	0.60375
1357.70937	0.60223
1355.78081	0.60081
1353.85225	0.59969
1351.92368	0.59890
1349.99512	0.59821
1348.06655	0.59743
1346.13799	0.59656
1344.20942	0.59576
1342.28086	0.59505
1340.35229	0.59441
1338.42373	0.59381
1336.49517	0.59329
1334.56660	0.59305
1332.63804	0.59315
1330.70947	0.59356
1328.78091	0.59420
1326.85234	0.59501
1324.92378	0.59596
1322.99521	0.59703
1321.06665	0.59808
1319.13809	0.59892
1317.20952	0.59949
1315.28096	0.59982
1313.35239	0.59983
1311.42383	0.59948
1309.49526	0.59900
1307.56670	0.59863
1305.63813	0.59819
1303.70957	0.59746
1301.78101	0.59662
1299.85244	0.59582
1297.92388	0.59491
1295.99531	0.59378
1294.06675	0.59248
1292.13818	0.59102
1290.20962	0.58950
1288.28105	0.58810
1286.35249	0.58666
1284.42393	0.58510
1282.49536	0.58361
1280.56680	0.58223
1278.63823	0.58084
1276.70967	0.57941
1274.78110	0.57798
1272.85254	0.57674
1270.92397	0.57588
1268.99541	0.57527
1267.06685	0.57454
1265.13828	0.57371
1263.20972	0.57290
1261.28115	0.57204
1259.35259	0.57110
1257.42402	0.57019
1255.49546	0.56961
1253.56689	0.56951
1251.63833	0.56965
1249.70977	0.56975
1247.78120	0.56963
1245.85264	0.56930
1243.92407	0.56872
1241.99551	0.56771
1240.06694	0.56613
1238.13838	0.56413
1236.20981	0.56179
1234.28125	0.55911
1232.35269	0.55634
1230.42412	0.55377
1228.49556	0.55152
1226.56699	0.54940
1224.63843	0.54723
1222.70986	0.54518
1220.78130	0.54346
1218.85273	0.54191
1216.92417	0.54038
1214.99561	0.53906
1213.06704	0.53801
1211.13848	0.53707
1209.20991	0.53620
1207.28135	0.53547
1205.35278	0.53469
1203.42422	0.53374
1201.49565	0.53280
1199.56709	0.53197
1197.63853	0.53111
1195.70996	0.53019
1193.78140	0.52935
1191.85283	0.52886
1189.92427	0.52869
1187.99570	0.52844
1186.06714	0.52810
1184.13857	0.52814
1182.21001	0.52862
1180.28145	0.52950
1178.35288	0.53093
1176.42432	0.53271
1174.49575	0.53431
1172.56719	0.53521
1170.63862	0.53544
1168.71006	0.53548
1166.78149	0.53540
1164.85293	0.53528
1162.92437	0.53526
1160.99580	0.53518
1159.06724	0.53487
1157.13867	0.53425
1155.21011	0.53326
1153.28154	0.53180
1151.35298	0.52986
1149.42441	0.52754
1147.49585	0.52492
1145.56729	0.52213
1143.63872	0.51932
1141.71016	0.51669
1139.78159	0.51456
1137.85303	0.51315
1135.92446	0.51243
1133.99590	0.51213
1132.06733	0.51191
1130.13877	0.51151
1128.21021	0.51103
1126.28164	0.51062
1124.35308	0.51012
1122.42451	0.50958
1120.49595	0.50916
1118.56738	0.50899
1116.63882	0.50908
1114.71025	0.50921
1112.78169	0.50934
1110.85312	0.50972
1108.92456	0.51056
1106.99600	0.51168
1105.06743	0.51278
1103.13887	0.51398
1101.21030	0.51542
1099.28174	0.51712
1097.35317	0.51912
1095.42461	0.52170
1093.49604	0.52525
1091.56748	0.52983
1089.63892	0.53532
1087.71035	0.54172
1085.78179	0.54901
1083.85322	0.55666
1081.92466	0.56346
1079.99609	0.56872
1078.06753	0.57191
1076.13896	0.57193
1074.21040	0.56866
1072.28184	0.56326
1070.35327	0.55678
1068.42471	0.54981
1066.49614	0.54281
1064.56758	0.53621
1062.63901	0.53038
1060.71045	0.52539
1058.78188	0.52106
1056.85332	0.51714
1054.92476	0.51359
1052.99619	0.51043
1051.06763	0.50756
1049.13906	0.50517
1047.21050	0.50346
1045.28193	0.50220
1043.35337	0.50114
1041.42480	0.50048
1039.49624	0.50009
1037.56768	0.49963
1035.63911	0.49909
1033.71055	0.49858
1031.78198	0.49799
1029.85342	0.49705
1027.92485	0.49573
1025.99629	0.49430
1024.06772	0.49335
1022.13916	0.49302
1020.21060	0.49290
1018.28203	0.49283
1016.35347	0.49291
1014.42490	0.49324
1012.49634	0.49366
1010.56777	0.49402
1008.63921	0.49451
1006.71064	0.49536
1004.78208	0.49654
1002.85352	0.49810
1000.92495	0.50048
998.99639	0.50402
997.06782	0.50831
995.13926	0.51268
993.21069	0.51659
991.28213	0.51975
989.35356	0.52206
987.42500	0.52337
985.49644	0.52381
983.56787	0.52391
981.63931	0.52423
979.71074	0.52503
977.78218	0.52639
975.85361	0.52847
973.92505	0.53112
971.99648	0.53392
970.06792	0.53699
968.13936	0.54076
966.21079	0.54492
964.28223	0.54919
962.35366	0.55380
960.42510	0.55887
958.49653	0.56445
956.56797	0.57053
954.63940	0.57655
952.71084	0.58223
950.78228	0.58824
948.85371	0.59492
946.92515	0.60170
944.99658	0.60806
943.06802	0.61413
941.13945	0.62003
939.21089	0.62576
937.28232	0.63158
935.35376	0.63769
933.42520	0.64384
931.49663	0.64946
929.56807	0.65510
927.63950	0.66140
925.71094	0.66772
923.78237	0.67379
921.85381	0.68036
919.92524	0.68792
917.99668	0.69565
916.06812	0.70261
914.13955	0.70923
912.21099	0.71634
910.28242	0.72418
908.35386	0.73259
906.42529	0.74108
904.49673	0.74958
902.56816	0.75846
900.63960	0.76795
898.71104	0.77812
896.78247	0.78801
894.85391	0.79714
892.92534	0.80718
890.99678	0.81828
889.06821	0.82888
887.13965	0.83959
885.21108	0.85175
883.28252	0.86426
881.35396	0.87555
879.42539	0.88574
877.49683	0.89565
875.56826	0.90733
873.63970	0.92179
871.71113	0.93611
869.78257	0.94786
867.85400	0.95822
865.92544	0.96886
863.99687	0.98025
862.06831	0.99082
860.13975	0.99988
858.21118	1.01029
856.28262	1.02306
854.35405	1.03674
852.42549	1.05026
850.49692	1.06217
848.56836	1.07279
846.63979	1.08355
844.71123	1.09373
842.78267	1.10222
840.85410	1.11049
838.92554	1.12185
836.99697	1.13623
835.06841	1.15079
833.13984	1.16527
831.21128	1.17880
829.28271	1.19243
827.35415	1.20921
825.42559	1.22287
823.49702	1.22496
821.56846	1.21963
819.63989	1.21942
817.71133	1.22903
815.78276	1.24476
813.85420	1.26558
811.92563	1.29226
809.99707	1.31502
808.06851	1.32263
806.13994	1.31955
804.21138	1.31731
802.28281	1.32537
800.35425	1.33070
798.42568	1.32647
796.49712	1.32725
794.56855	1.31328
792.63999	1.27937
790.71143	1.27399
788.78286	1.30889
786.85430	1.32358
784.92573	1.27499
782.99717	1.21510
781.06860	1.21079
779.14004	1.25938
777.21147	1.32452
775.28291	1.40453
773.35435	1.42650
771.42578	1.35755
769.49722	1.30370
767.56865	1.28256
765.64009	1.25146
763.71152	1.20191
761.78296	1.18673
759.85439	1.22079
757.92583	1.20481
755.99727	1.12625
754.06870	1.14279
752.14014	1.33586
750.21157	1.45394
748.28301	1.21329
746.35444	1.04702
744.42588	0.96684
742.49731	0.91532
740.56875	0.86583
738.64019	0.80690
736.71162	0.73926
734.78306	0.71557
732.85449	0.77430
730.92593	0.74418
728.99736	0.45940
727.06880	0.07465
725.14023	-1.03360
723.21167	4.33927
721.28311	4.32770
719.35454	4.31613
717.42598	-0.61823
715.49741	-0.15310
713.56885	0.13783
711.64028	0.22484
709.71172	0.24993
707.78315	0.30361
705.85459	0.36241
703.92603	0.38336
701.99746	0.50634
700.06890	0.80166
698.14033	0.74583
696.21177	0.47657
694.28320	0.35693
692.35464	0.38879
690.42607	0.59106
688.49751	0.66165
686.56895	0.38103
684.64038	0.28283
682.71182	0.27587
680.78325	0.26328
678.85469	0.28281
676.92612	0.35194
674.99756	0.43081
673.06899	0.49666
671.14043	0.52545
669.21187	0.57183
667.28330	0.54781
665.35474	0.41207
663.42617	0.32549
661.49761	0.33246
659.56904	0.37944
657.64048	0.42126
655.71191	0.45714
653.78335	0.45539
651.85479	0.42219
649.92622	0.38316
647.99766	0.36332
646.06909	0.37764
644.14053	0.34992
642.21196	0.26385
640.28340	0.26080
638.35483	0.38346
636.42627	0.43380
634.49771	0.34315
632.56914	0.28588
630.64058	0.30494
628.71201	0.36063
626.78345	0.37613
624.85488	0.30416
622.92632	0.22461
620.99775	0.19965
619.06919	0.22281
617.14062	0.24110
615.21206	0.25417
613.28350	0.31067
611.35493	0.38677
609.42637	0.38946
607.49780	0.38507
605.56924	0.43049
603.64067	0.47880
601.71211	0.47345
599.78354	0.47356
597.85498	0.45313
595.92642	0.35769
593.99785	0.28656
592.06929	0.27741
590.14072	0.29824
588.21216	0.34284
586.28359	0.33914
584.35503	0.28455
582.42646	0.27254
580.49790	0.31492
578.56934	0.38995
576.64077	0.44555
574.71221	0.46495
572.78364	0.44775
570.85508	0.34685
568.92651	0.25007
566.99795	0.22632
565.06938	0.24478
563.14082	0.26927
561.21226	0.27127
559.28369	0.23932
557.35513	0.24260
555.42656	0.28920
553.49800	0.27122
551.56943	0.22278
549.64087	0.24768
547.71230	0.32683
545.78374	0.33121
543.85518	0.27217
541.92661	0.23817
539.99805	0.24682
538.06948	0.27932
536.14092	0.28847
534.21235	0.24773
532.28379	0.20975
530.35522	0.22306
528.42666	0.26626
526.49810	0.27851
524.56953	0.27081
522.64097	0.27502
520.71240	0.27529
518.78384	0.30181
516.85527	0.35499
514.92671	0.32617
512.99814	0.26328
511.06958	0.25189
509.14102	0.27730
507.21245	0.31737
505.28389	0.35612
503.35532	0.42691
501.42676	0.50711
499.49819	0.42635
