3997.91411	0.06515
3995.98555	0.06550
3994.05698	0.06572
3992.12842	0.06613
3990.19985	0.06679
3988.27129	0.06723
3986.34272	0.06703
3984.41416	0.06684
3982.48560	0.06753
3980.55703	0.06845
3978.62847	0.06866
3976.69990	0.06848
3974.77134	0.06852
3972.84277	0.06883
3970.91421	0.06905
3968.98564	0.06890
3967.05708	0.06851
3965.12852	0.06830
3963.19995	0.06835
3961.27139	0.06837
3959.34282	0.06850
3957.41426	0.06907
3955.48569	0.06963
3953.55713	0.06973
3951.62856	0.06968
3949.70000	0.06992
3947.77144	0.07036
3945.84287	0.07048
3943.91431	0.07027
3941.98574	0.07012
3940.05718	0.06983
3938.12861	0.06940
3936.20005	0.06917
3934.27148	0.06899
3932.34292	0.06902
3930.41436	0.06951
3928.48579	0.06993
3926.55723	0.06988
3924.62866	0.06965
3922.70010	0.06947
3920.77153	0.06935
3918.84297	0.06922
3916.91440	0.06900
3914.98584	0.06874
3913.05728	0.06860
3911.12871	0.06867
3909.20015	0.06889
3907.27158	0.06925
3905.34302	0.06951
3903.41445	0.06932
3901.48589	0.06907
3899.55732	0.06927
3897.62876	0.06924
3895.70020	0.06883
3893.77163	0.06877
3891.84307	0.06972
3889.91450	0.07089
3887.98594	0.07053
3886.05737	0.06936
3884.12881	0.06873
3882.20024	0.06864
3880.27168	0.06857
3878.34312	0.06872
3876.41455	0.06930
3874.48599	0.07017
3872.55742	0.07072
3870.62886	0.07069
3868.70029	0.07097
3866.77173	0.07147
3864.84316	0.07197
3862.91460	0.07260
3860.98604	0.07287
3859.05747	0.07296
3857.12891	0.07299
3855.20034	0.07293
3853.27178	0.07370
3851.34321	0.07564
3849.41465	0.07593
3847.48608	0.07513
3845.55752	0.07495
3843.62896	0.07554
3841.70039	0.07621
3839.77183	0.07699
3837.84326	0.07825
3835.91470	0.07898
3833.98613	0.07891
3832.05757	0.07901
3830.12900	0.07934
3828.20044	0.07946
3826.27187	0.07983
3824.34331	0.08105
3822.41475	0.08272
3820.48618	0.08477
3818.55762	0.08601
3816.62905	0.08623
3814.70049	0.08689
3812.77192	0.08730
3810.84336	0.08722
3808.91479	0.08754
3806.98623	0.08865
3805.05767	0.09018
3803.12910	0.09139
3801.20054	0.09283
3799.27197	0.09472
3797.34341	0.09588
3795.41484	0.09653
3793.48628	0.09723
3791.55771	0.09833
3789.62915	0.09953
3787.70059	0.10040
3785.77202	0.10161
3783.84346	0.10331
3781.91489	0.10484
3779.98633	0.10662
3778.05776	0.10884
3776.12920	0.11029
3774.20063	0.11112
3772.27207	0.11237
3770.34351	0.11456
3768.41494	0.11728
3766.48638	0.11924
3764.55781	0.12063
3762.62925	0.12189
3760.70068	0.12313
3758.77212	0.12506
3756.84355	0.12779
3754.91499	0.13023
3752.98643	0.13250
3751.05786	0.13581
3749.12930	0.13961
3747.20073	0.14199
3745.27217	0.14445
3743.34360	0.14889
3741.41504	0.15308
3739.48647	0.15546
3737.55791	0.15792
3735.62935	0.16196
3733.70078	0.16733
3731.77222	0.17181
3729.84365	0.17568
3727.91509	0.17995
3725.98652	0.18505
3724.05796	0.19117
3722.12939	0.19816
3720.20083	0.20578
3718.27227	0.21337
3716.34370	0.22074
3714.41514	0.22791
3712.48657	0.23619
3710.55801	0.24819
3708.62944	0.26211
3706.70088	0.27362
3704.77231	0.28423
3702.84375	0.29698
3700.91519	0.31364
3698.98662	0.33162
3697.05806	0.34851
3695.12949	0.36644
3693.20093	0.38553
3691.27236	0.40619
3689.34380	0.43307
3687.41523	0.46689
3685.48667	0.49743
3683.55811	0.52378
3681.62954	0.55141
3679.70098	0.58193
3677.77241	0.61349
3675.84385	0.65066
3673.91528	0.70196
3671.98672	0.74534
3670.05815	0.78341
3668.12959	0.83489
3666.20103	0.88299
3664.27246	0.92349
3662.34390	0.96635
3660.41533	1.01270
3658.48677	1.05845
3656.55820	1.10649
3654.62964	1.15972
3652.70107	1.20474
3650.77251	1.24328
3648.84395	1.29605
3646.91538	1.36340
3644.98682	1.41445
3643.05825	1.45337
3641.12969	1.49319
3639.20112	1.53688
3637.27256	1.58042
3635.34399	1.62269
3633.41543	1.66464
3631.48687	1.70376
3629.55830	1.74368
3627.62974	1.79609
3625.70117	1.84597
3623.77261	1.88061
3621.84404	1.91361
3619.91548	1.95118
3617.98691	1.99627
3616.05835	2.03916
3614.12979	2.07489
3612.20122	2.11320
3610.27266	2.15293
3608.34409	2.19398
3606.41553	2.23702
3604.48696	2.27465
3602.55840	2.30721
3600.62983	2.34344
3598.70127	2.38478
3596.77271	2.42637
3594.84414	2.46762
3592.91558	2.50942
3590.98701	2.54855
3589.05845	2.58420
3587.12988	2.62667
3585.20132	2.67493
3583.27275	2.71719
3581.34419	2.75622
3579.41562	2.79663
3577.48706	2.83852
3575.55850	2.88169
3573.62993	2.92668
3571.70137	2.96896
3569.77280	3.00743
3567.84424	3.04902
3565.91567	3.10081
3563.98711	3.15138
3562.05854	3.19458
3560.12998	3.23767
3558.20142	3.28037
3556.27285	3.32288
3554.34429	3.36700
3552.41572	3.41382
3550.48716	3.46151
3548.55859	3.50799
3546.63003	3.55536
3544.70146	3.60705
3542.77290	3.65769
3540.84434	3.70219
3538.91577	3.74543
3536.98721	3.79054
3535.05864	3.83798
3533.13008	3.88508
3531.20151	3.93095
3529.27295	3.97762
3527.34438	4.02654
3525.41582	4.07417
3523.48726	4.11814
3521.55869	4.16314
3519.63013	4.20761
3517.70156	4.25101
3515.77300	4.29913
3513.84443	4.35100
3511.91587	4.40183
3509.98730	4.45321
3508.05874	4.50529
3506.13018	4.55375
3504.20161	4.59739
3502.27305	4.64102
3500.34448	4.69159
3498.41592	4.74543
3496.48735	4.79679
3494.55879	4.84674
3492.63022	4.89222
3490.70166	4.93312
3488.77310	4.98162
3486.84453	5.03680
3484.91597	5.08433
3482.98740	5.12773
3481.05884	5.17294
3479.13027	5.21115
3477.20171	5.24827
3475.27314	5.29541
3473.34458	5.34663
3471.41602	5.39706
3469.48745	5.44600
3467.55889	5.49263
3465.63032	5.54136
3463.70176	5.59436
3461.77319	5.65030
3459.84463	5.70870
3457.91606	5.75977
3455.98750	5.81102
3454.05894	5.87397
3452.13037	5.92630
3450.20181	5.95569
3448.27324	5.98038
3446.34468	6.02138
3444.41611	6.08426
3442.48755	6.15822
3440.55898	6.20957
3438.63042	6.23235
3436.70186	6.26834
3434.77329	6.32578
3432.84473	6.38423
3430.91616	6.43847
3428.98760	6.48641
3427.05903	6.52326
3425.13047	6.55700
3423.20190	6.58262
3421.27334	6.61429
3419.34478	6.68639
3417.41621	6.76915
3415.48765	6.81380
3413.55908	6.84727
3411.63052	6.90471
3409.70195	6.96490
3407.77339	7.01722
3405.84482	7.05823
3403.91626	7.07482
3401.98770	7.05780
3400.05913	7.04183
3398.13057	7.09024
3396.20200	7.18116
3394.27344	7.23787
3392.34487	7.27106
3390.41631	7.31689
3388.48774	7.35805
3386.55918	7.42302
3384.63062	7.47677
3382.70205	7.46941
3380.77349	7.46686
3378.84492	7.51076
3376.91636	7.58631
3374.98779	7.63485
3373.05923	7.64409
3371.13066	7.64164
3369.20210	7.65779
3367.27354	7.69467
3365.34497	7.71883
3363.41641	7.72393
3361.48784	7.71997
3359.55928	7.71903
3357.63071	7.72966
3355.70215	7.76712
3353.77358	7.81464
3351.84502	7.85918
3349.91646	7.89104
3347.98789	7.91308
3346.05933	7.93592
3344.13076	7.92348
3342.20220	7.87526
3340.27363	7.84875
3338.34507	7.86776
3336.41650	7.89798
3334.48794	7.96133
3332.55937	8.03088
3330.63081	8.03432
3328.70225	8.02214
3326.77368	8.00368
3324.84512	7.94759
3322.91655	7.92386
3320.98799	7.94936
3319.05942	7.93808
3317.13086	7.90167
3315.20229	7.88905
3313.27373	7.91009
3311.34517	7.96045
3309.41660	8.01952
3307.48804	8.03856
3305.55947	7.99224
3303.63091	7.95618
3301.70234	7.96227
3299.77378	7.98126
3297.84521	8.00756
3295.91665	8.04005
3293.98809	8.03681
3292.05952	8.03210
3290.13096	8.06198
3288.20239	8.05065
3286.27383	8.04222
3284.34526	8.11106
3282.41670	8.16269
3280.48813	8.15582
3278.55957	8.21213
3276.63101	8.28538
3274.70244	8.22970
3272.77388	8.12922
3270.84531	8.07973
3268.91675	8.04591
3266.98818	8.02415
3265.05962	8.07449
3263.13105	8.14737
3261.20249	8.15775
3259.27393	8.18638
3257.34536	8.25494
3255.41680	8.22636
3253.48823	8.15489
3251.55967	8.15271
3249.63110	8.15995
3247.70254	8.13940
3245.77397	8.08169
3243.84541	8.02190
3241.91685	8.03784
3239.98828	8.08221
3238.05972	8.07066
3236.13115	8.03765
3234.20259	8.02736
3232.27402	8.05179
3230.34546	8.06063
3228.41689	7.96340
3226.48833	7.86707
3224.55977	7.90755
3222.63120	8.02525
3220.70264	8.09855
3218.77407	8.12954
3216.84551	8.14569
3214.91694	8.07039
3212.98838	7.91710
3211.05981	7.81099
3209.13125	7.76414
3207.20269	7.72950
3205.27412	7.69668
3203.34556	7.66547
3201.41699	7.65079
3199.48843	7.64729
3197.55986	7.64459
3195.63130	7.64289
3193.70273	7.61117
3191.77417	7.55827
3189.84561	7.51415
3187.91704	7.45808
3185.98848	7.39154
3184.05991	7.32040
3182.13135	7.23010
3180.20278	7.15975
3178.27422	7.14450
3176.34565	7.14408
3174.41709	7.11757
3172.48853	7.09139
3170.55996	7.06397
3168.63140	6.99469
3166.70283	6.90407
3164.77427	6.84079
3162.84570	6.79366
3160.91714	6.71950
3158.98857	6.61924
3157.06001	6.52783
3155.13145	6.47386
3153.20288	6.43925
3151.27432	6.38947
3149.34575	6.32188
3147.41719	6.24243
3145.48862	6.15764
3143.56006	6.08290
3141.63149	6.02712
3139.70293	5.96947
3137.77437	5.90328
3135.84580	5.83914
3133.91724	5.77208
3131.98867	5.70764
3130.06011	5.64751
3128.13154	5.57765
3126.20298	5.49927
3124.27441	5.42934
3122.34585	5.36457
3120.41729	5.29107
3118.48872	5.21492
3116.56016	5.14043
3114.63159	5.06352
3112.70303	4.98872
3110.77446	4.92134
3108.84590	4.85820
3106.91733	4.79435
3104.98877	4.72837
3103.06021	4.66131
3101.13164	4.59700
3099.20308	4.53810
3097.27451	4.47907
3095.34595	4.41328
3093.41738	4.34268
3091.48882	4.27123
3089.56025	4.20244
3087.63169	4.14105
3085.70312	4.08378
3083.77456	4.02389
3081.84600	3.96281
3079.91743	3.90262
3077.98887	3.84102
3076.06030	3.77830
3074.13174	3.71874
3072.20317	3.66316
3070.27461	3.60825
3068.34604	3.55199
3066.41748	3.49352
3064.48892	3.43486
3062.56035	3.37965
3060.63179	3.32692
3058.70322	3.27266
3056.77466	3.21709
3054.84609	3.16347
3052.91753	3.11179
3050.98896	3.06113
3049.06040	3.01135
3047.13184	2.96120
3045.20327	2.91041
3043.27471	2.86051
3041.34614	2.81203
3039.41758	2.76375
3037.48901	2.71537
3035.56045	2.66839
3033.63188	2.62354
3031.70332	2.57932
3029.77476	2.53424
3027.84619	2.48944
3025.91763	2.44645
3023.98906	2.40458
3022.06050	2.36257
3020.13193	2.32066
3018.20337	2.27978
3016.27480	2.23955
3014.34624	2.19975
3012.41768	2.16081
3010.48911	2.12208
3008.56055	2.08433
3006.63198	2.04852
3004.70342	2.01361
3002.77485	1.97902
3000.84629	1.94451
2998.91772	1.90987
2996.98916	1.87622
2995.06060	1.84390
2993.13203	1.81203
2991.20347	1.78122
2989.27490	1.75192
2987.34634	1.72284
2985.41777	1.69329
2983.48921	1.66413
2981.56064	1.63610
2979.63208	1.60896
2977.70352	1.58246
2975.77495	1.55662
2973.84639	1.53115
2971.91782	1.50595
2969.98926	1.48109
2968.06069	1.45661
2966.13213	1.43295
2964.20356	1.40999
2962.27500	1.38700
2960.34644	1.36369
2958.41787	1.34000
2956.48931	1.31613
2954.56074	1.29277
2952.63218	1.27015
2950.70361	1.24780
2948.77505	1.22560
2946.84648	1.20372
2944.91792	1.18232
2942.98936	1.16160
2941.06079	1.14152
2939.13223	1.12206
2937.20366	1.10290
2935.27510	1.08372
2933.34653	1.06458
2931.41797	1.04542
2929.48940	1.02650
2927.56084	1.00822
2925.63228	0.99043
2923.70371	0.97294
2921.77515	0.95571
2919.84658	0.93861
2917.91802	0.92171
2915.98945	0.90463
2914.06089	0.88726
2912.13232	0.87085
2910.20376	0.85550
2908.27520	0.84034
2906.34663	0.82539
2904.41807	0.81074
2902.48950	0.79641
2900.56094	0.78264
2898.63237	0.76941
2896.70381	0.75668
2894.77524	0.74457
2892.84668	0.73273
2890.91812	0.72067
2888.98955	0.70862
2887.06099	0.69692
2885.13242	0.68571
2883.20386	0.67515
2881.27529	0.66519
2879.34673	0.65562
2877.41816	0.64619
2875.48960	0.63660
2873.56104	0.62657
2871.63247	0.61625
2869.70391	0.60590
2867.77534	0.59516
2865.84678	0.58385
2863.91821	0.57234
2861.98965	0.56106
2860.06108	0.55055
2858.13252	0.54079
2856.20396	0.53134
2854.27539	0.52234
2852.34683	0.51380
2850.41826	0.50523
2848.48970	0.49659
2846.56113	0.48821
2844.63257	0.48018
2842.70400	0.47250
2840.77544	0.46537
2838.84687	0.45877
2836.91831	0.45241
2834.98975	0.44593
2833.06118	0.43926
2831.13262	0.43273
2829.20405	0.42659
2827.27549	0.42087
2825.34692	0.41533
2823.41836	0.40949
2821.48979	0.40326
2819.56123	0.39693
2817.63267	0.39079
2815.70410	0.38508
2813.77554	0.37975
2811.84697	0.37460
2809.91841	0.36950
2807.98984	0.36438
2806.06128	0.35920
2804.13271	0.35399
2802.20415	0.34875
2800.27559	0.34362
2798.34702	0.33877
2796.41846	0.33398
2794.48989	0.32914
2792.56133	0.32447
2790.63276	0.32000
2788.70420	0.31568
2786.77563	0.31142
2784.84707	0.30720
2782.91851	0.30313
2780.98994	0.29902
2779.06138	0.29478
2777.13281	0.29073
2775.20425	0.28698
2773.27568	0.28335
2771.34712	0.27973
2769.41855	0.27615
2767.48999	0.27268
2765.56143	0.26929
2763.63286	0.26592
2761.70430	0.26264
2759.77573	0.25944
2757.84717	0.25619
2755.91860	0.25291
2753.99004	0.24975
2752.06147	0.24680
2750.13291	0.24398
2748.20435	0.24118
2746.27578	0.23841
2744.34722	0.23576
2742.41865	0.23323
2740.49009	0.23084
2738.56152	0.22853
2736.63296	0.22608
2734.70439	0.22346
2732.77583	0.22076
2730.84727	0.21822
2728.91870	0.21601
2726.99014	0.21397
2725.06157	0.21185
2723.13301	0.20969
2721.20444	0.20761
2719.27588	0.20552
2717.34731	0.20350
2715.41875	0.20166
2713.49019	0.19989
2711.56162	0.19802
2709.63306	0.19616
2707.70449	0.19448
2705.77593	0.19291
2703.84736	0.19136
2701.91880	0.18990
2699.99023	0.18845
2698.06167	0.18687
2696.13311	0.18531
2694.20454	0.18396
2692.27598	0.18266
2690.34741	0.18125
2688.41885	0.17982
2686.49028	0.17842
2684.56172	0.17711
2682.63315	0.17587
2680.70459	0.17471
2678.77603	0.17358
2676.84746	0.17242
2674.91890	0.17133
2672.99033	0.17025
2671.06177	0.16915
2669.13320	0.16826
2667.20464	0.16752
2665.27607	0.16664
2663.34751	0.16568
2661.41895	0.16478
2659.49038	0.16390
2657.56182	0.16312
2655.63325	0.16240
2653.70469	0.16159
2651.77612	0.16066
2649.84756	0.15982
2647.91899	0.15912
2645.99043	0.15843
2644.06187	0.15774
2642.13330	0.15729
2640.20474	0.15698
2638.27617	0.15646
2636.34761	0.15573
2634.41904	0.15516
2632.49048	0.15489
2630.56191	0.15467
2628.63335	0.15439
2626.70479	0.15406
2624.77622	0.15359
2622.84766	0.15304
2620.91909	0.15266
2618.99053	0.15250
2617.06196	0.15236
2615.13340	0.15214
2613.20483	0.15192
2611.27627	0.15171
2609.34771	0.15152
2607.41914	0.15141
2605.49058	0.15132
2603.56201	0.15122
2601.63345	0.15113
2599.70488	0.15108
2597.77632	0.15110
2595.84775	0.15115
2593.91919	0.15122
2591.99062	0.15127
2590.06206	0.15131
2588.13350	0.15151
2586.20493	0.15179
2584.27637	0.15192
2582.34780	0.15197
2580.41924	0.15213
2578.49067	0.15239
2576.56211	0.15265
2574.63354	0.15302
2572.70498	0.15352
2570.77642	0.15394
2568.84785	0.15422
2566.91929	0.15456
2564.99072	0.15502
2563.06216	0.15544
2561.13359	0.15579
2559.20503	0.15623
2557.27646	0.15665
2555.34790	0.15701
2553.41934	0.15737
2551.49077	0.15783
2549.56221	0.15848
2547.63364	0.15924
2545.70508	0.15986
2543.77651	0.16035
2541.84795	0.16092
2539.91938	0.16157
2537.99082	0.16221
2536.06226	0.16282
2534.13369	0.16333
2532.20513	0.16385
2530.27656	0.16460
2528.34800	0.16557
2526.41943	0.16643
2524.49087	0.16703
2522.56230	0.16758
2520.63374	0.16823
2518.70518	0.16895
2516.77661	0.16975
2514.84805	0.17051
2512.91948	0.17118
2510.99092	0.17185
2509.06235	0.17258
2507.13379	0.17340
2505.20522	0.17425
2503.27666	0.17504
2501.34810	0.17571
2499.41953	0.17634
2497.49097	0.17711
2495.56240	0.17797
2493.63384	0.17886
2491.70527	0.17983
2489.77671	0.18079
2487.84814	0.18160
2485.91958	0.18234
2483.99102	0.18318
2482.06245	0.18403
2480.13389	0.18482
2478.20532	0.18564
2476.27676	0.18657
2474.34819	0.18745
2472.41963	0.18825
2470.49106	0.18908
2468.56250	0.18989
2466.63394	0.19074
2464.70537	0.19171
2462.77681	0.19271
2460.84824	0.19368
2458.91968	0.19462
2456.99111	0.19562
2455.06255	0.19677
2453.13398	0.19781
2451.20542	0.19860
2449.27686	0.19932
2447.34829	0.20013
2445.41973	0.20098
2443.49116	0.20185
2441.56260	0.20285
2439.63403	0.20398
2437.70547	0.20502
2435.77690	0.20596
2433.84834	0.20698
2431.91978	0.20805
2429.99121	0.20917
2428.06265	0.21041
2426.13408	0.21161
2424.20552	0.21259
2422.27695	0.21352
2420.34839	0.21456
2418.41982	0.21558
2416.49126	0.21660
2414.56270	0.21776
2412.63413	0.21897
2410.70557	0.22001
2408.77700	0.22091
2406.84844	0.22194
2404.91987	0.22325
2402.99131	0.22459
2401.06274	0.22568
2399.13418	0.22675
2397.20562	0.22804
2395.27705	0.22939
2393.34849	0.23067
2391.41992	0.23192
2389.49136	0.23315
2387.56279	0.23439
2385.63423	0.23567
2383.70566	0.23695
2381.77710	0.23815
2379.84854	0.23922
2377.91997	0.24015
2375.99141	0.24115
2374.06284	0.24237
2372.13428	0.24337
2370.20571	0.24409
2368.27715	0.24486
2366.34858	0.24553
2364.42002	0.24683
2362.49146	0.24925
2360.56289	0.25151
2358.63433	0.25349
2356.70576	0.25526
2354.77720	0.25621
2352.84863	0.25768
2350.92007	0.25997
2348.99150	0.26176
2347.06294	0.26270
2345.13437	0.26340
2343.20581	0.26463
2341.27725	0.26641
2339.34868	0.26827
2337.42012	0.27008
2335.49155	0.27193
2333.56299	0.27354
2331.63442	0.27501
2329.70586	0.27664
2327.77729	0.27855
2325.84873	0.28072
2323.92017	0.28266
2321.99160	0.28411
2320.06304	0.28555
2318.13447	0.28746
2316.20591	0.28965
2314.27734	0.29178
2312.34878	0.29362
2310.42021	0.29518
2308.49165	0.29671
2306.56309	0.29839
2304.63452	0.30022
2302.70596	0.30208
2300.77739	0.30394
2298.84883	0.30581
2296.92026	0.30775
2294.99170	0.30978
2293.06313	0.31177
2291.13457	0.31357
2289.20601	0.31535
2287.27744	0.31734
2285.34888	0.31934
2283.42031	0.32116
2281.49175	0.32292
2279.56318	0.32479
2277.63462	0.32679
2275.70605	0.32882
2273.77749	0.33093
2271.84893	0.33319
2269.92036	0.33535
2267.99180	0.33725
2266.06323	0.33915
2264.13467	0.34123
2262.20610	0.34343
2260.27754	0.34571
2258.34897	0.34793
2256.42041	0.35005
2254.49185	0.35226
2252.56328	0.35455
2250.63472	0.35676
2248.70615	0.35886
2246.77759	0.36082
2244.84902	0.36283
2242.92046	0.36506
2240.99189	0.36739
2239.06333	0.36960
2237.13477	0.37172
2235.20620	0.37385
2233.27764	0.37602
2231.34907	0.37830
2229.42051	0.38068
2227.49194	0.38300
2225.56338	0.38526
2223.63481	0.38749
2221.70625	0.38959
2219.77769	0.39162
2217.84912	0.39370
2215.92056	0.39587
2213.99199	0.39804
2212.06343	0.40016
2210.13486	0.40237
2208.20630	0.40462
2206.27773	0.40673
2204.34917	0.40876
2202.42061	0.41081
2200.49204	0.41290
2198.56348	0.41489
2196.63491	0.41665
2194.70635	0.41851
2192.77778	0.42060
2190.84922	0.42261
2188.92065	0.42447
2186.99209	0.42620
2185.06353	0.42786
2183.13496	0.42960
2181.20640	0.43137
2179.27783	0.43306
2177.34927	0.43465
2175.42070	0.43613
2173.49214	0.43748
2171.56357	0.43873
2169.63501	0.43994
2167.70645	0.44123
2165.77788	0.44269
2163.84932	0.44414
2161.92075	0.44531
2159.99219	0.44627
2158.06362	0.44729
2156.13506	0.44843
2154.20649	0.44942
2152.27793	0.45013
2150.34937	0.45065
2148.42080	0.45107
2146.49224	0.45143
2144.56367	0.45183
2142.63511	0.45229
2140.70654	0.45273
2138.77798	0.45312
2136.84941	0.45330
2134.92085	0.45330
2132.99229	0.45331
2131.06372	0.45325
2129.13516	0.45306
2127.20659	0.45276
2125.27803	0.45239
2123.34946	0.45196
2121.42090	0.45141
2119.49233	0.45073
2117.56377	0.45007
2115.63521	0.44947
2113.70664	0.44884
2111.77808	0.44802
2109.84951	0.44702
2107.92095	0.44594
2105.99238	0.44478
2104.06382	0.44350
2102.13525	0.44210
2100.20669	0.44070
2098.27812	0.43927
2096.34956	0.43769
2094.42100	0.43600
2092.49243	0.43438
2090.56387	0.43289
2088.63530	0.43129
2086.70674	0.42947
2084.77817	0.42750
2082.84961	0.42561
2080.92104	0.42377
2078.99248	0.42181
2077.06392	0.41966
2075.13535	0.41744
2073.20679	0.41527
2071.27822	0.41314
2069.34966	0.41096
2067.42109	0.40864
2065.49253	0.40631
2063.56396	0.40388
2061.63540	0.40132
2059.70684	0.39879
2057.77827	0.39628
2055.84971	0.39374
2053.92114	0.39125
2051.99258	0.38877
2050.06401	0.38614
2048.13545	0.38342
2046.20688	0.38076
2044.27832	0.37812
2042.34976	0.37539
2040.42119	0.37261
2038.49263	0.36983
2036.56406	0.36706
2034.63550	0.36439
2032.70693	0.36176
2030.77837	0.35907
2028.84980	0.35633
2026.92124	0.35365
2024.99268	0.35091
2023.06411	0.34808
2021.13555	0.34524
2019.20698	0.34246
2017.27842	0.33975
2015.34985	0.33696
2013.42129	0.33408
2011.49272	0.33127
2009.56416	0.32857
2007.63560	0.32585
2005.70703	0.32315
2003.77847	0.32056
2001.84990	0.31801
1999.92134	0.31542
1997.99277	0.31281
1996.06421	0.31031
1994.13564	0.30796
1992.20708	0.30565
1990.27852	0.30320
1988.34995	0.30069
1986.42139	0.29823
1984.49282	0.29578
1982.56426	0.29334
1980.63569	0.29099
1978.70713	0.28878
1976.77856	0.28660
1974.85000	0.28443
1972.92144	0.28230
1970.99287	0.28015
1969.06431	0.27808
1967.13574	0.27616
1965.20718	0.27418
1963.27861	0.27224
1961.35005	0.27042
1959.42148	0.26856
1957.49292	0.26668
1955.56436	0.26486
1953.63579	0.26309
1951.70723	0.26137
1949.77866	0.25972
1947.85010	0.25818
1945.92153	0.25675
1943.99297	0.25531
1942.06440	0.25383
1940.13584	0.25236
1938.20728	0.25100
1936.27871	0.24972
1934.35015	0.24844
1932.42158	0.24722
1930.49302	0.24610
1928.56445	0.24503
1926.63589	0.24394
1924.70732	0.24291
1922.77876	0.24200
1920.85020	0.24112
1918.92163	0.24018
1916.99307	0.23917
1915.06450	0.23816
1913.13594	0.23729
1911.20737	0.23660
1909.27881	0.23596
1907.35024	0.23538
1905.42168	0.23484
1903.49312	0.23429
1901.56455	0.23379
1899.63599	0.23334
1897.70742	0.23290
1895.77886	0.23247
1893.85029	0.23209
1891.92173	0.23174
1889.99316	0.23153
1888.06460	0.23130
1886.13604	0.23102
1884.20747	0.23080
1882.27891	0.23061
1880.35034	0.23049
1878.42178	0.23045
1876.49321	0.23054
1874.56465	0.23063
1872.63608	0.23072
1870.70752	0.23087
1868.77896	0.23125
1866.85039	0.23160
1864.92183	0.23169
1862.99326	0.23177
1861.06470	0.23202
1859.13613	0.23234
1857.20757	0.23256
1855.27900	0.23290
1853.35044	0.23336
1851.42187	0.23391
1849.49331	0.23453
1847.56475	0.23524
1845.63618	0.23604
1843.70762	0.23694
1841.77905	0.23769
1839.85049	0.23825
1837.92192	0.23912
1835.99336	0.24016
1834.06479	0.24117
1832.13623	0.24209
1830.20767	0.24333
1828.27910	0.24480
1826.35054	0.24595
1824.42197	0.24720
1822.49341	0.24849
1820.56484	0.24976
1818.63628	0.25117
1816.70771	0.25284
1814.77915	0.25443
1812.85059	0.25606
1810.92202	0.25799
1808.99346	0.26006
1807.06489	0.26211
1805.13633	0.26408
1803.20776	0.26619
1801.27920	0.26861
1799.35063	0.27144
1797.42207	0.27396
1795.49351	0.27630
1793.56494	0.27902
1791.63638	0.28257
1789.70781	0.28609
1787.77925	0.28873
1785.85068	0.29179
1783.92212	0.29547
1781.99355	0.29939
1780.06499	0.30355
1778.13643	0.30794
1776.20786	0.31204
1774.27930	0.31625
1772.35073	0.32190
1770.42217	0.32829
1768.49360	0.33378
1766.56504	0.33888
1764.63647	0.34405
1762.70791	0.34971
1760.77935	0.35694
1758.85078	0.36389
1756.92222	0.37099
1754.99365	0.37887
1753.06509	0.38603
1751.13652	0.39422
1749.20796	0.40443
1747.27939	0.41476
1745.35083	0.42405
1743.42227	0.43381
1741.49370	0.44441
1739.56514	0.45682
1737.63657	0.46938
1735.70801	0.48033
1733.77944	0.49649
1731.85088	0.51614
1729.92231	0.53196
1727.99375	0.54779
1726.06519	0.56466
1724.13662	0.58291
1722.20806	0.60256
1720.27949	0.62069
1718.35093	0.64177
1716.42236	0.67304
1714.49380	0.70342
1712.56523	0.72848
1710.63667	0.75269
1708.70811	0.77837
1706.77954	0.80731
1704.85098	0.84196
1702.92241	0.87285
1700.99385	0.90343
1699.06528	0.94939
1697.13672	0.99200
1695.20815	1.03608
1693.27959	1.07959
1691.35103	1.11480
1689.42246	1.15497
1687.49390	1.19736
1685.56533	1.23839
1683.63677	1.30138
1681.70820	1.36696
1679.77964	1.40878
1677.85107	1.44809
1675.92251	1.49395
1673.99395	1.55140
1672.06538	1.60239
1670.13682	1.65213
1668.20825	1.71701
1666.27969	1.77087
1664.35112	1.81694
1662.42256	1.87458
1660.49399	1.93964
1658.56543	1.99013
1656.63687	2.03034
1654.70830	2.06586
1652.77974	2.11931
1650.85117	2.17283
1648.92261	2.19267
1646.99404	2.21478
1645.06548	2.24159
1643.13691	2.26107
1641.20835	2.27090
1639.27979	2.27886
1637.35122	2.28463
1635.42266	2.28514
1633.49409	2.27599
1631.56553	2.25879
1629.63696	2.23783
1627.70840	2.20661
1625.77983	2.17217
1623.85127	2.13163
1621.92271	2.08262
1619.99414	2.03794
1618.06558	1.99333
1616.13701	1.92960
1614.20845	1.86538
1612.27988	1.81670
1610.35132	1.76569
1608.42275	1.71047
1606.49419	1.65649
1604.56562	1.60666
1602.63706	1.55845
1600.70850	1.51178
1598.77993	1.46880
1596.85137	1.42803
1594.92280	1.38874
1592.99424	1.35135
1591.06567	1.31713
1589.13711	1.28498
1587.20854	1.25529
1585.27998	1.22830
1583.35142	1.20330
1581.42285	1.18057
1579.49429	1.16128
1577.56572	1.14385
1575.63716	1.12280
1573.70859	1.10485
1571.78003	1.09350
1569.85146	1.08173
1567.92290	1.06899
1565.99434	1.06019
1564.06577	1.05409
1562.13721	1.04916
1560.20864	1.04549
1558.28008	1.04393
1556.35151	1.04515
1554.42295	1.04557
1552.49438	1.04542
1550.56582	1.04380
1548.63726	1.03982
1546.70869	1.03370
1544.78013	1.02466
1542.85156	1.01231
1540.92300	0.99464
1538.99443	0.96891
1537.06587	0.95075
1535.13730	0.93798
1533.20874	0.92086
1531.28018	0.90267
1529.35161	0.88921
1527.42305	0.87628
1525.49448	0.86283
1523.56592	0.85167
1521.63735	0.84153
1519.70879	0.83131
1517.78022	0.82220
1515.85166	0.81156
1513.92310	0.80048
1511.99453	0.79066
1510.06597	0.78151
1508.13740	0.77242
1506.20884	0.75928
1504.28027	0.74871
1502.35171	0.74283
1500.42314	0.73744
1498.49458	0.73148
1496.56602	0.72449
1494.63745	0.71770
1492.70889	0.71221
1490.78032	0.70686
1488.85176	0.70088
1486.92319	0.69600
1484.99463	0.69241
1483.06606	0.68953
1481.13750	0.68715
1479.20894	0.68531
1477.28037	0.68404
1475.35181	0.68321
1473.42324	0.68279
1471.49468	0.68216
1469.56611	0.68078
1467.63755	0.67896
1465.70898	0.67732
1463.78042	0.67627
1461.85186	0.67568
1459.92329	0.67545
1457.99473	0.67560
1456.06616	0.67501
1454.13760	0.67304
1452.20903	0.67086
1450.28047	0.66848
1448.35190	0.66597
1446.42334	0.66349
1444.49478	0.66126
1442.56621	0.65906
1440.63765	0.65662
1438.70908	0.65400
1436.78052	0.65076
1434.85195	0.64723
1432.92339	0.64462
1430.99482	0.64288
1429.06626	0.64190
1427.13770	0.64159
1425.20913	0.64161
1423.28057	0.64171
1421.35200	0.64174
1419.42344	0.64165
1417.49487	0.64124
1415.56631	0.64029
1413.63774	0.63936
1411.70918	0.63887
1409.78062	0.63901
1407.85205	0.63973
1405.92349	0.64082
1403.99492	0.64186
1402.06636	0.64208
1400.13779	0.64137
1398.20923	0.63986
1396.28066	0.63757
1394.35210	0.63441
1392.42354	0.63081
1390.49497	0.62736
1388.56641	0.62384
1386.63784	0.61977
1384.70928	0.61542
1382.78071	0.61148
1380.85215	0.60804
1378.92358	0.60510
1376.99502	0.60276
1375.06646	0.60109
1373.13789	0.59990
1371.20933	0.59897
1369.28076	0.59823
1367.35220	0.59736
1365.42363	0.59609
1363.49507	0.59453
1361.56650	0.59286
1359.63794	0.59131
1357.70937	0.58996
1355.78081	0.58878
1353.85225	0.58776
1351.92368	0.58681
1349.99512	0.58585
1348.06655	0.58486
1346.13799	0.58391
1344.20942	0.58306
1342.28086	0.58226
1340.35229	0.58142
1338.42373	0.58051
1336.49517	0.57966
1334.56660	0.57901
1332.63804	0.57866
1330.70947	0.57865
1328.78091	0.57895
1326.85234	0.57941
1324.92378	0.57977
1322.99521	0.58001
1321.06665	0.58033
1319.13809	0.58076
1317.20952	0.58103
1315.28096	0.58092
1313.35239	0.58051
1311.42383	0.57990
1309.49526	0.57914
1307.56670	0.57835
1305.63813	0.57766
1303.70957	0.57702
1301.78101	0.57632
1299.85244	0.57551
1297.92388	0.57455
1295.99531	0.57354
1294.06675	0.57255
1292.13818	0.57142
1290.20962	0.57011
1288.28105	0.56882
1286.35249	0.56772
1284.42393	0.56672
1282.49536	0.56564
1280.56680	0.56442
1278.63823	0.56319
1276.70967	0.56213
1274.78110	0.56123
1272.85254	0.56036
1270.92397	0.55954
1268.99541	0.55877
1267.06685	0.55806
1265.13828	0.55744
1263.20972	0.55686
1261.28115	0.55608
1259.35259	0.55518
1257.42402	0.55447
1255.49546	0.55408
1253.56689	0.55391
1251.63833	0.55380
1249.70977	0.55362
1247.78120	0.55332
1245.85264	0.55295
1243.92407	0.55240
1241.99551	0.55159
1240.06694	0.55043
1238.13838	0.54901
1236.20981	0.54736
1234.28125	0.54539
1232.35269	0.54321
1230.42412	0.54114
1228.49556	0.53932
1226.56699	0.53762
1224.63843	0.53593
1222.70986	0.53430
1220.78130	0.53283
1218.85273	0.53144
1216.92417	0.53010
1214.99561	0.52892
1213.06704	0.52800
1211.13848	0.52738
1209.20991	0.52685
1207.28135	0.52614
1205.35278	0.52522
1203.42422	0.52438
1201.49565	0.52365
1199.56709	0.52284
1197.63853	0.52198
1195.70996	0.52123
1193.78140	0.52055
1191.85283	0.51983
1189.92427	0.51916
1187.99570	0.51864
1186.06714	0.51828
1184.13857	0.51830
1182.21001	0.51878
1180.28145	0.51949
1178.35288	0.52047
1176.42432	0.52170
1174.49575	0.52292
1172.56719	0.52378
1170.63862	0.52428
1168.71006	0.52470
1166.78149	0.52527
1164.85293	0.52590
1162.92437	0.52636
1160.99580	0.52668
1159.06724	0.52691
1157.13867	0.52684
1155.21011	0.52637
1153.28154	0.52535
1151.35298	0.52369
1149.42441	0.52158
1147.49585	0.51914
1145.56729	0.51638
1143.63872	0.51362
1141.71016	0.51132
1139.78159	0.50966
1137.85303	0.50841
1135.92446	0.50733
1133.99590	0.50657
1132.06733	0.50631
1130.13877	0.50629
1128.21021	0.50617
1126.28164	0.50589
1124.35308	0.50557
1122.42451	0.50533
1120.49595	0.50536
1118.56738	0.50579
1116.63882	0.50648
1114.71025	0.50721
1112.78169	0.50798
1110.85312	0.50882
1108.92456	0.50976
1106.99600	0.51068
1105.06743	0.51142
1103.13887	0.51216
1101.21030	0.51296
1099.28174	0.51401
1097.35317	0.51573
1095.42461	0.51843
1093.49604	0.52222
1091.56748	0.52712
1089.63892	0.53331
1087.71035	0.54097
1085.78179	0.54971
1083.85322	0.55867
1081.92466	0.56667
1079.99609	0.57239
1078.06753	0.57517
1076.13896	0.57491
1074.21040	0.57169
1072.28184	0.56609
1070.35327	0.55917
1068.42471	0.55186
1066.49614	0.54486
1064.56758	0.53866
1062.63901	0.53336
1060.71045	0.52871
1058.78188	0.52453
1056.85332	0.52070
1054.92476	0.51718
1052.99619	0.51414
1051.06763	0.51165
1049.13906	0.50992
1047.21050	0.50919
1045.28193	0.50917
1043.35337	0.50944
1041.42480	0.50999
1039.49624	0.51064
1037.56768	0.51089
1035.63911	0.51049
1033.71055	0.50962
1031.78198	0.50842
1029.85342	0.50686
1027.92485	0.50512
1025.99629	0.50350
1024.06772	0.50212
1022.13916	0.50098
1020.21060	0.50016
1018.28203	0.49957
1016.35347	0.49903
1014.42490	0.49847
1012.49634	0.49799
1010.56777	0.49768
1008.63921	0.49750
1006.71064	0.49756
1004.78208	0.49821
1002.85352	0.49980
1000.92495	0.50238
998.99639	0.50584
997.06782	0.50993
995.13926	0.51432
993.21069	0.51846
991.28213	0.52158
989.35356	0.52325
987.42500	0.52369
985.49644	0.52348
983.56787	0.52317
981.63931	0.52311
979.71074	0.52350
977.78218	0.52458
975.85361	0.52644
973.92505	0.52897
971.99648	0.53194
970.06792	0.53527
968.13936	0.53892
966.21079	0.54272
964.28223	0.54682
962.35366	0.55154
960.42510	0.55656
958.49653	0.56164
956.56797	0.56716
954.63940	0.57327
952.71084	0.57971
950.78228	0.58614
948.85371	0.59232
946.92515	0.59853
944.99658	0.60501
943.06802	0.61139
941.13945	0.61728
939.21089	0.62268
937.28232	0.62790
935.35376	0.63362
933.42520	0.63955
931.49663	0.64482
929.56807	0.65003
927.63950	0.65608
925.71094	0.66258
923.78237	0.66891
921.85381	0.67488
919.92524	0.68102
917.99668	0.68830
916.06812	0.69625
914.13955	0.70416
912.21099	0.71234
910.28242	0.72045
908.35386	0.72827
906.42529	0.73635
904.49673	0.74472
902.56816	0.75321
900.63960	0.76222
898.71104	0.77206
896.78247	0.78213
894.85391	0.79208
892.92534	0.80237
890.99678	0.81307
889.06821	0.82374
887.13965	0.83396
885.21108	0.84476
883.28252	0.85721
881.35396	0.86976
879.42539	0.88091
877.49683	0.89140
875.56826	0.90141
873.63970	0.91107
871.71113	0.92237
869.78257	0.93555
867.85400	0.94935
865.92544	0.96300
863.99687	0.97409
862.06831	0.98188
860.13975	0.98992
858.21118	1.00124
856.28262	1.01531
854.35405	1.02958
852.42549	1.04252
850.49692	1.05450
848.56836	1.06541
846.63979	1.07447
844.71123	1.08329
842.78267	1.09411
840.85410	1.10609
838.92554	1.11795
836.99697	1.12849
835.06841	1.13643
833.13984	1.14586
831.21128	1.15806
829.28271	1.16612
827.35415	1.17094
825.42559	1.17948
823.49702	1.19228
821.56846	1.20682
819.63989	1.21961
817.71133	1.22936
815.78276	1.23531
813.85420	1.23238
811.92563	1.23199
809.99707	1.24505
808.06851	1.25832
806.13994	1.26672
804.21138	1.27475
802.28281	1.27879
800.35425	1.27419
798.42568	1.26058
796.49712	1.24196
794.56855	1.22980
792.63999	1.22831
790.71143	1.23157
788.78286	1.24255
786.85430	1.24158
784.92573	1.22460
782.99717	1.23155
781.06860	1.26228
779.14004	1.27481
777.21147	1.26376
775.28291	1.24316
773.35435	1.20650
771.42578	1.16827
769.49722	1.14667
767.56865	1.14679
765.64009	1.14770
763.71152	1.12575
761.78296	1.09205
759.85439	1.04611
757.92583	1.00310
755.99727	0.99042
754.06870	0.99840
752.14014	1.00278
750.21157	0.96828
748.28301	0.89087
746.35444	0.82592
744.42588	0.80252
742.49731	0.83835
740.56875	0.88293
738.64019	0.80863
736.71162	0.72489
734.78306	0.70146
732.85449	0.62853
730.92593	0.47563
728.99736	0.32193
727.06880	0.22709
725.14023	0.22100
723.21167	0.25542
721.28311	0.24790
719.35454	0.21303
717.42598	0.12056
715.49741	-0.01927
713.56885	-0.04067
711.64028	0.02601
709.71172	0.13472
707.78315	0.29825
705.85459	0.41772
703.92603	0.37485
701.99746	0.29022
700.06890	0.25682
698.14033	0.24870
696.21177	0.25196
694.28320	0.26133
692.35464	0.21231
690.42607	0.16171
688.49751	0.16411
686.56895	0.16372
684.64038	0.14141
682.71182	0.14282
680.78325	0.18434
678.85469	0.26572
676.92612	0.34162
674.99756	0.26503
673.06899	0.09639
671.14043	0.01638
669.21187	0.03571
667.28330	0.10669
665.35474	0.18536
663.42617	0.20991
661.49761	0.20016
659.56904	0.18310
657.64048	0.12549
655.71191	0.09763
653.78335	0.12298
651.85479	0.17160
649.92622	0.25488
647.99766	0.32803
646.06909	0.26690
644.14053	0.13674
642.21196	0.05039
640.28340	0.04583
638.35483	0.13283
636.42627	0.20105
634.49771	0.18181
632.56914	0.17142
630.64058	0.17288
628.71201	0.16079
626.78345	0.15291
624.85488	0.13483
622.92632	0.08535
620.99775	0.03026
619.06919	0.04232
617.14062	0.13309
615.21206	0.23010
613.28350	0.28732
611.35493	0.32903
609.42637	0.32251
607.49780	0.23483
605.56924	0.13146
603.64067	0.08303
601.71211	0.09079
599.78354	0.13548
597.85498	0.14657
595.92642	0.12525
593.99785	0.12031
592.06929	0.11939
590.14072	0.08934
588.21216	0.07702
586.28359	0.09109
584.35503	0.08151
582.42646	0.09092
580.49790	0.16838
578.56934	0.16073
576.64077	0.06928
574.71221	0.00107
572.78364	0.00234
570.85508	0.06756
568.92651	0.16947
566.99795	0.21864
565.06938	0.14721
563.14082	0.09623
561.21226	0.11493
559.28369	0.11235
557.35513	0.06828
555.42656	0.05614
553.49800	0.13074
551.56943	0.22987
549.64087	0.23534
547.71230	0.17884
545.78374	0.11633
543.85518	0.06431
541.92661	0.05783
539.99805	0.07726
538.06948	0.07894
536.14092	0.06541
534.21235	0.09279
532.28379	0.16196
530.35522	0.24671
528.42666	0.28374
526.49810	0.20085
524.56953	0.12373
522.64097	0.11067
520.71240	0.14431
518.78384	0.18573
516.85527	0.23220
514.92671	0.26222
512.99814	0.23202
511.06958	0.17385
509.14102	0.12222
507.21245	0.09163
505.28389	0.09102
503.35532	0.12136
501.42676	0.17634
499.49819	0.24390
