3997.91411	0.07465
3995.98555	0.07467
3994.05698	0.07395
3992.12842	0.07364
3990.19985	0.07422
3988.27129	0.07481
3986.34272	0.07497
3984.41416	0.07516
3982.48560	0.07547
3980.55703	0.07575
3978.62847	0.07598
3976.69990	0.07611
3974.77134	0.07615
3972.84277	0.07624
3970.91421	0.07655
3968.98564	0.07697
3967.05708	0.07719
3965.12852	0.07719
3963.19995	0.07741
3961.27139	0.07790
3959.34282	0.07809
3957.41426	0.07772
3955.48569	0.07720
3953.55713	0.07717
3951.62856	0.07786
3949.70000	0.07881
3947.77144	0.07912
3945.84287	0.07856
3943.91431	0.07801
3941.98574	0.07757
3940.05718	0.07694
3938.12861	0.07669
3936.20005	0.07701
3934.27148	0.07743
3932.34292	0.07777
3930.41436	0.07819
3928.48579	0.07854
3926.55723	0.07849
3924.62866	0.07808
3922.70010	0.07745
3920.77153	0.07691
3918.84297	0.07669
3916.91440	0.07687
3914.98584	0.07702
3913.05728	0.07688
3911.12871	0.07702
3909.20015	0.07727
3907.27158	0.07710
3905.34302	0.07686
3903.41445	0.07722
3901.48589	0.07783
3899.55732	0.07809
3897.62876	0.07829
3895.70020	0.07831
3893.77163	0.07795
3891.84307	0.07744
3889.91450	0.07694
3887.98594	0.07656
3886.05737	0.07658
3884.12881	0.07704
3882.20024	0.07760
3880.27168	0.07804
3878.34312	0.07793
3876.41455	0.07754
3874.48599	0.07785
3872.55742	0.07891
3870.62886	0.08002
3868.70029	0.08035
3866.77173	0.07973
3864.84316	0.07950
3862.91460	0.07980
3860.98604	0.07982
3859.05747	0.07993
3857.12891	0.08023
3855.20034	0.08052
3853.27178	0.08122
3851.34321	0.08261
3849.41465	0.08329
3847.48608	0.08319
3845.55752	0.08298
3843.62896	0.08350
3841.70039	0.08510
3839.77183	0.08664
3837.84326	0.08733
3835.91470	0.08753
3833.98613	0.08785
3832.05757	0.08826
3830.12900	0.08875
3828.20044	0.08946
3826.27187	0.09025
3824.34331	0.09097
3822.41475	0.09205
3820.48618	0.09423
3818.55762	0.09556
3816.62905	0.09498
3814.70049	0.09485
3812.77192	0.09567
3810.84336	0.09642
3808.91479	0.09716
3806.98623	0.09844
3805.05767	0.10000
3803.12910	0.10092
3801.20054	0.10164
3799.27197	0.10285
3797.34341	0.10452
3795.41484	0.10630
3793.48628	0.10710
3791.55771	0.10707
3789.62915	0.10753
3787.70059	0.10885
3785.77202	0.11080
3783.84346	0.11289
3781.91489	0.11466
3779.98633	0.11639
3778.05776	0.11809
3776.12920	0.11920
3774.20063	0.11997
3772.27207	0.12101
3770.34351	0.12282
3768.41494	0.12514
3766.48638	0.12704
3764.55781	0.12888
3762.62925	0.13076
3760.70068	0.13264
3758.77212	0.13520
3756.84355	0.13817
3754.91499	0.14065
3752.98643	0.14322
3751.05786	0.14713
3749.12930	0.15158
3747.20073	0.15389
3745.27217	0.15552
3743.34360	0.15852
3741.41504	0.16167
3739.48647	0.16465
3737.55791	0.16875
3735.62935	0.17406
3733.70078	0.17991
3731.77222	0.18507
3729.84365	0.18896
3727.91509	0.19270
3725.98652	0.19785
3724.05796	0.20433
3722.12939	0.21094
3720.20083	0.21740
3718.27227	0.22402
3716.34370	0.23117
3714.41514	0.23861
3712.48657	0.24740
3710.55801	0.25977
3708.62944	0.27391
3706.70088	0.28641
3704.77231	0.29803
3702.84375	0.31076
3700.91519	0.32718
3698.98662	0.34549
3697.05806	0.36287
3695.12949	0.38126
3693.20093	0.40076
3691.27236	0.42177
3689.34380	0.44917
3687.41523	0.48345
3685.48667	0.51362
3683.55811	0.53958
3681.62954	0.56743
3679.70098	0.59867
3677.77241	0.63141
3675.84385	0.67000
3673.91528	0.72189
3671.98672	0.76481
3670.05815	0.80290
3668.12959	0.85487
3666.20103	0.90294
3664.27246	0.94366
3662.34390	0.98721
3660.41533	1.03393
3658.48677	1.07987
3656.55820	1.12858
3654.62964	1.18254
3652.70107	1.22779
3650.77251	1.26683
3648.84395	1.32096
3646.91538	1.38908
3644.98682	1.43992
3643.05825	1.47849
3641.12969	1.51766
3639.20112	1.56090
3637.27256	1.60474
3635.34399	1.64787
3633.41543	1.69077
3631.48687	1.73023
3629.55830	1.77004
3627.62974	1.82257
3625.70117	1.87196
3623.77261	1.90521
3621.84404	1.93720
3619.91548	1.97474
3617.98691	2.02056
3616.05835	2.06475
3614.12979	2.10125
3612.20122	2.13908
3610.27266	2.17826
3608.34409	2.21872
3606.41553	2.26080
3604.48696	2.29884
3602.55840	2.33328
3600.62983	2.37175
3598.70127	2.41410
3596.77271	2.45466
3594.84414	2.49464
3592.91558	2.53604
3590.98701	2.57504
3589.05845	2.61057
3587.12988	2.65276
3585.20132	2.70012
3583.27275	2.74104
3581.34419	2.77944
3579.41562	2.82033
3577.48706	2.86263
3575.55850	2.90500
3573.62993	2.94788
3571.70137	2.98927
3569.77280	3.02883
3567.84424	3.07034
3565.91567	3.12209
3563.98711	3.17478
3562.05854	3.21709
3560.12998	3.25683
3558.20142	3.29853
3556.27285	3.34202
3554.34429	3.38649
3552.41572	3.43315
3550.48716	3.48168
3548.55859	3.53009
3546.63003	3.57700
3544.70146	3.62406
3542.77290	3.67156
3540.84434	3.71772
3538.91577	3.76206
3536.98721	3.80558
3535.05864	3.85282
3533.13008	3.90178
3531.20151	3.94969
3529.27295	3.99924
3527.34438	4.05023
3525.41582	4.09646
3523.48726	4.14041
3521.55869	4.19009
3519.63013	4.24101
3517.70156	4.28949
3515.77300	4.33568
3513.84443	4.38015
3511.91587	4.42810
3509.98730	4.48274
3508.05874	4.53788
3506.13018	4.58513
3504.20161	4.62827
3502.27305	4.67802
3500.34448	4.73044
3498.41592	4.77388
3496.48735	4.81794
3494.55879	4.87404
3492.63022	4.93044
3490.70166	4.97516
3488.77310	5.01592
3486.84453	5.06403
3484.91597	5.12055
3482.98740	5.18052
3481.05884	5.23857
3479.13027	5.28366
3477.20171	5.31484
3475.27314	5.34662
3473.34458	5.38671
3471.41602	5.43363
3469.48745	5.48434
3467.55889	5.53900
3465.63032	5.59579
3463.70176	5.64592
3461.77319	5.69104
3459.84463	5.74738
3457.91606	5.80763
3455.98750	5.85546
3454.05894	5.90203
3452.13037	5.96344
3450.20181	6.02982
3448.27324	6.07992
3446.34468	6.13116
3444.41611	6.19569
3442.48755	6.24878
3440.55898	6.29124
3438.63042	6.34106
3436.70186	6.39362
3434.77329	6.44485
3432.84473	6.49769
3430.91616	6.55072
3428.98760	6.61267
3427.05903	6.67526
3425.13047	6.71278
3423.20190	6.72901
3421.27334	6.77240
3419.34478	6.84841
3417.41621	6.90363
3415.48765	6.93368
3413.55908	6.98321
3411.63052	7.05560
3409.70195	7.09448
3407.77339	7.11748
3405.84482	7.17165
3403.91626	7.23281
3401.98770	7.27733
3400.05913	7.31407
3398.13057	7.33481
3396.20200	7.33761
3394.27344	7.37634
3392.34487	7.47252
3390.41631	7.57162
3388.48774	7.60140
3386.55918	7.59145
3384.63062	7.60878
3382.70205	7.64392
3380.77349	7.67693
3378.84492	7.74465
3376.91636	7.82934
3374.98779	7.85639
3373.05923	7.88019
3371.13066	7.91691
3369.20210	7.91619
3367.27354	7.89032
3365.34497	7.87375
3363.41641	7.92145
3361.48784	8.01793
3359.55928	8.06058
3357.63071	8.06842
3355.70215	8.11147
3353.77358	8.13481
3351.84502	8.15285
3349.91646	8.20615
3347.98789	8.23862
3346.05933	8.20748
3344.13076	8.16493
3342.20220	8.16669
3340.27363	8.19483
3338.34507	8.22138
3336.41650	8.25930
3334.48794	8.36049
3332.55937	8.42600
3330.63081	8.35258
3328.70225	8.26295
3326.77368	8.25098
3324.84512	8.27112
3322.91655	8.33462
3320.98799	8.46163
3319.05942	8.47358
3317.13086	8.39672
3315.20229	8.39178
3313.27373	8.43470
3311.34517	8.45560
3309.41660	8.42194
3307.48804	8.36095
3305.55947	8.33077
3303.63091	8.34021
3301.70234	8.36724
3299.77378	8.42765
3297.84521	8.47059
3295.91665	8.47299
3293.98809	8.43973
3292.05952	8.35282
3290.13096	8.31983
3288.20239	8.41296
3286.27383	8.52016
3284.34526	8.53833
3282.41670	8.52931
3280.48813	8.46939
3278.55957	8.35179
3276.63101	8.29332
3274.70244	8.33820
3272.77388	8.39229
3270.84531	8.40183
3268.91675	8.45006
3266.98818	8.48774
3265.05962	8.42392
3263.13105	8.36594
3261.20249	8.35784
3259.27393	8.30731
3257.34536	8.30475
3255.41680	8.40858
3253.48823	8.50473
3251.55967	8.58912
3249.63110	8.61303
3247.70254	8.52783
3245.77397	8.48178
3243.84541	8.54131
3241.91685	8.58790
3239.98828	8.58916
3238.05972	8.58304
3236.13115	8.50345
3234.20259	8.45165
3232.27402	8.50784
3230.34546	8.53451
3228.41689	8.49700
3226.48833	8.50542
3224.55977	8.53530
3222.63120	8.43893
3220.70264	8.28502
3218.77407	8.24746
3216.84551	8.27173
3214.91694	8.27289
3212.98838	8.27873
3211.05981	8.25476
3209.13125	8.22794
3207.20269	8.27130
3205.27412	8.29271
3203.34556	8.22853
3201.41699	8.15617
3199.48843	8.09635
3197.55986	8.01187
3195.63130	7.86660
3193.70273	7.72905
3191.77417	7.72348
3189.84561	7.81767
3187.91704	7.83222
3185.98848	7.72240
3184.05991	7.60396
3182.13135	7.53593
3180.20278	7.49982
3178.27422	7.44503
3176.34565	7.37593
3174.41709	7.31098
3172.48853	7.23891
3170.55996	7.19479
3168.63140	7.17900
3166.70283	7.14189
3164.77427	7.07946
3162.84570	7.01009
3160.91714	6.95282
3158.98857	6.89030
3157.06001	6.79154
3155.13145	6.69865
3153.20288	6.63140
3151.27432	6.55258
3149.34575	6.46521
3147.41719	6.39140
3145.48862	6.32299
3143.56006	6.24958
3141.63149	6.17717
3139.70293	6.11224
3137.77437	6.05074
3135.84580	5.98050
3133.91724	5.90055
3131.98867	5.82241
3130.06011	5.74927
3128.13154	5.67435
3126.20298	5.60118
3124.27441	5.53039
3122.34585	5.44632
3120.41729	5.36044
3118.48872	5.29118
3116.56016	5.22471
3114.63159	5.15196
3112.70303	5.07665
3110.77446	4.99978
3108.84590	4.92817
3106.91733	4.86039
3104.98877	4.78892
3103.06021	4.71903
3101.13164	4.65101
3099.20308	4.57884
3097.27451	4.50491
3095.34595	4.43323
3093.41738	4.36365
3091.48882	4.29576
3089.56025	4.23133
3087.63169	4.16913
3085.70312	4.10404
3083.77456	4.03619
3081.84600	3.97077
3079.91743	3.90767
3077.98887	3.84498
3076.06030	3.78372
3074.13174	3.72373
3072.20317	3.66409
3070.27461	3.60369
3068.34604	3.54292
3066.41748	3.48449
3064.48892	3.42848
3062.56035	3.37249
3060.63179	3.31648
3058.70322	3.26076
3056.77466	3.20449
3054.84609	3.14821
3052.91753	3.09336
3050.98896	3.04044
3049.06040	2.98824
3047.13184	2.93634
3045.20327	2.88542
3043.27471	2.83512
3041.34614	2.78516
3039.41758	2.73642
3037.48901	2.68916
3035.56045	2.64269
3033.63188	2.59709
3031.70332	2.55212
3029.77476	2.50732
3027.84619	2.46320
3025.91763	2.42009
3023.98906	2.37781
3022.06050	2.33598
3020.13193	2.29424
3018.20337	2.25273
3016.27480	2.21165
3014.34624	2.17135
3012.41768	2.13198
3010.48911	2.09333
3008.56055	2.05597
3006.63198	2.02005
3004.70342	1.98455
3002.77485	1.94861
3000.84629	1.91266
2998.91772	1.87790
2996.98916	1.84406
2995.06060	1.81020
2993.13203	1.77653
2991.20347	1.74385
2989.27490	1.71237
2987.34634	1.68125
2985.41777	1.65022
2983.48921	1.61983
2981.56064	1.58985
2979.63208	1.56000
2977.70352	1.53108
2975.77495	1.50314
2973.84639	1.47511
2971.91782	1.44686
2969.98926	1.41904
2968.06069	1.39230
2966.13213	1.36650
2964.20356	1.34113
2962.27500	1.31633
2960.34644	1.29231
2958.41787	1.26888
2956.48931	1.24560
2954.56074	1.22247
2952.63218	1.19985
2950.70361	1.17744
2948.77505	1.15505
2946.84648	1.13313
2944.91792	1.11186
2942.98936	1.09068
2941.06079	1.06945
2939.13223	1.04907
2937.20366	1.03008
2935.27510	1.01162
2933.34653	0.99263
2931.41797	0.97377
2929.48940	0.95600
2927.56084	0.93911
2925.63228	0.92271
2923.70371	0.90665
2921.77515	0.89050
2919.84658	0.87427
2917.91802	0.85814
2915.98945	0.84164
2914.06089	0.82511
2912.13232	0.80955
2910.20376	0.79504
2908.27520	0.78104
2906.34663	0.76715
2904.41807	0.75326
2902.48950	0.73968
2900.56094	0.72657
2898.63237	0.71385
2896.70381	0.70157
2894.77524	0.68964
2892.84668	0.67760
2890.91812	0.66527
2888.98955	0.65331
2887.06099	0.64218
2885.13242	0.63157
2883.20386	0.62101
2881.27529	0.61021
2879.34673	0.59929
2877.41816	0.58866
2875.48960	0.57845
2873.56104	0.56839
2871.63247	0.55830
2869.70391	0.54839
2867.77534	0.53901
2865.84678	0.52983
2863.91821	0.52059
2861.98965	0.51173
2860.06108	0.50328
2858.13252	0.49487
2856.20396	0.48655
2854.27539	0.47861
2852.34683	0.47085
2850.41826	0.46310
2848.48970	0.45549
2846.56113	0.44806
2844.63257	0.44108
2842.70400	0.43447
2840.77544	0.42768
2838.84687	0.42086
2836.91831	0.41460
2834.98975	0.40907
2833.06118	0.40375
2831.13262	0.39792
2829.20405	0.39167
2827.27549	0.38555
2825.34692	0.37980
2823.41836	0.37445
2821.48979	0.36907
2819.56123	0.36340
2817.63267	0.35773
2815.70410	0.35224
2813.77554	0.34684
2811.84697	0.34161
2809.91841	0.33670
2807.98984	0.33194
2806.06128	0.32708
2804.13271	0.32216
2802.20415	0.31746
2800.27559	0.31309
2798.34702	0.30883
2796.41846	0.30452
2794.48989	0.30023
2792.56133	0.29604
2790.63276	0.29195
2788.70420	0.28797
2786.77563	0.28396
2784.84707	0.27987
2782.91851	0.27597
2780.98994	0.27230
2779.06138	0.26873
2777.13281	0.26529
2775.20425	0.26208
2773.27568	0.25898
2771.34712	0.25580
2769.41855	0.25244
2767.48999	0.24907
2765.56143	0.24592
2763.63286	0.24285
2761.70430	0.23977
2759.77573	0.23669
2757.84717	0.23359
2755.91860	0.23072
2753.99004	0.22817
2752.06147	0.22582
2750.13291	0.22339
2748.20435	0.22071
2746.27578	0.21794
2744.34722	0.21541
2742.41865	0.21323
2740.49009	0.21114
2738.56152	0.20883
2736.63296	0.20628
2734.70439	0.20390
2732.77583	0.20188
2730.84727	0.19995
2728.91870	0.19799
2726.99014	0.19617
2725.06157	0.19442
2723.13301	0.19253
2721.20444	0.19044
2719.27588	0.18839
2717.34731	0.18653
2715.41875	0.18481
2713.49019	0.18312
2711.56162	0.18140
2709.63306	0.17982
2707.70449	0.17832
2705.77593	0.17674
2703.84736	0.17528
2701.91880	0.17404
2699.99023	0.17277
2698.06167	0.17142
2696.13311	0.17012
2694.20454	0.16894
2692.27598	0.16782
2690.34741	0.16659
2688.41885	0.16527
2686.49028	0.16411
2684.56172	0.16309
2682.63315	0.16208
2680.70459	0.16103
2678.77603	0.15994
2676.84746	0.15888
2674.91890	0.15787
2672.99033	0.15691
2671.06177	0.15608
2669.13320	0.15534
2667.20464	0.15466
2665.27607	0.15396
2663.34751	0.15323
2661.41895	0.15256
2659.49038	0.15192
2657.56182	0.15118
2655.63325	0.15039
2653.70469	0.14963
2651.77612	0.14893
2649.84756	0.14831
2647.91899	0.14782
2645.99043	0.14751
2644.06187	0.14728
2642.13330	0.14686
2640.20474	0.14632
2638.27617	0.14587
2636.34761	0.14547
2634.41904	0.14512
2632.49048	0.14491
2630.56191	0.14467
2628.63335	0.14429
2626.70479	0.14398
2624.77622	0.14388
2622.84766	0.14385
2620.91909	0.14368
2618.99053	0.14346
2617.06196	0.14330
2615.13340	0.14320
2613.20483	0.14313
2611.27627	0.14315
2609.34771	0.14324
2607.41914	0.14331
2605.49058	0.14337
2603.56201	0.14336
2601.63345	0.14337
2599.70488	0.14354
2597.77632	0.14382
2595.84775	0.14407
2593.91919	0.14419
2591.99062	0.14428
2590.06206	0.14461
2588.13350	0.14503
2586.20493	0.14522
2584.27637	0.14524
2582.34780	0.14539
2580.41924	0.14579
2578.49067	0.14639
2576.56211	0.14708
2574.63354	0.14761
2572.70498	0.14788
2570.77642	0.14814
2568.84785	0.14851
2566.91929	0.14897
2564.99072	0.14948
2563.06216	0.14999
2561.13359	0.15049
2559.20503	0.15106
2557.27646	0.15175
2555.34790	0.15247
2553.41934	0.15305
2551.49077	0.15354
2549.56221	0.15406
2547.63364	0.15464
2545.70508	0.15530
2543.77651	0.15605
2541.84795	0.15686
2539.91938	0.15764
2537.99082	0.15830
2536.06226	0.15891
2534.13369	0.15963
2532.20513	0.16042
2530.27656	0.16123
2528.34800	0.16203
2526.41943	0.16273
2524.49087	0.16342
2522.56230	0.16427
2520.63374	0.16525
2518.70518	0.16617
2516.77661	0.16693
2514.84805	0.16768
2512.91948	0.16855
2510.99092	0.16941
2509.06235	0.17021
2507.13379	0.17111
2505.20522	0.17202
2503.27666	0.17283
2501.34810	0.17374
2499.41953	0.17476
2497.49097	0.17568
2495.56240	0.17648
2493.63384	0.17727
2491.70527	0.17813
2489.77671	0.17910
2487.84814	0.18007
2485.91958	0.18100
2483.99102	0.18194
2482.06245	0.18292
2480.13389	0.18391
2478.20532	0.18494
2476.27676	0.18600
2474.34819	0.18690
2472.41963	0.18766
2470.49106	0.18861
2468.56250	0.18976
2466.63394	0.19093
2464.70537	0.19208
2462.77681	0.19314
2460.84824	0.19413
2458.91968	0.19505
2456.99111	0.19592
2455.06255	0.19689
2453.13398	0.19802
2451.20542	0.19909
2449.27686	0.20004
2447.34829	0.20104
2445.41973	0.20210
2443.49116	0.20318
2441.56260	0.20423
2439.63403	0.20527
2437.70547	0.20632
2435.77690	0.20742
2433.84834	0.20852
2431.91978	0.20959
2429.99121	0.21065
2428.06265	0.21174
2426.13408	0.21292
2424.20552	0.21412
2422.27695	0.21525
2420.34839	0.21641
2418.41982	0.21767
2416.49126	0.21889
2414.56270	0.22002
2412.63413	0.22116
2410.70557	0.22235
2408.77700	0.22350
2406.84844	0.22455
2404.91987	0.22560
2402.99131	0.22678
2401.06274	0.22806
2399.13418	0.22936
2397.20562	0.23066
2395.27705	0.23187
2393.34849	0.23306
2391.41992	0.23432
2389.49136	0.23563
2387.56279	0.23706
2385.63423	0.23870
2383.70566	0.24050
2381.77710	0.24257
2379.84854	0.24495
2377.91997	0.24751
2375.99141	0.25013
2374.06284	0.25267
2372.13428	0.25549
2370.20571	0.25959
2368.27715	0.26484
2366.34858	0.26951
2364.42002	0.27214
2362.49146	0.27372
2360.56289	0.27538
2358.63433	0.27670
2356.70576	0.27738
2354.77720	0.27693
2352.84863	0.27623
2350.92007	0.27568
2348.99150	0.27539
2347.06294	0.27611
2345.13437	0.27845
2343.20581	0.28210
2341.27725	0.28562
2339.34868	0.28797
2337.42012	0.28972
2335.49155	0.29159
2333.56299	0.29302
2331.63442	0.29418
2329.70586	0.29525
2327.77729	0.29575
2325.84873	0.29594
2323.92017	0.29645
2321.99160	0.29754
2320.06304	0.29892
2318.13447	0.29985
2316.20591	0.30036
2314.27734	0.30128
2312.34878	0.30266
2310.42021	0.30404
2308.49165	0.30526
2306.56309	0.30656
2304.63452	0.30798
2302.70596	0.30932
2300.77739	0.31069
2298.84883	0.31231
2296.92026	0.31406
2294.99170	0.31579
2293.06313	0.31754
2291.13457	0.31924
2289.20601	0.32087
2287.27744	0.32253
2285.34888	0.32426
2283.42031	0.32610
2281.49175	0.32804
2279.56318	0.33010
2277.63462	0.33230
2275.70605	0.33450
2273.77749	0.33664
2271.84893	0.33883
2269.92036	0.34094
2267.99180	0.34284
2266.06323	0.34483
2264.13467	0.34703
2262.20610	0.34919
2260.27754	0.35121
2258.34897	0.35323
2256.42041	0.35527
2254.49185	0.35735
2252.56328	0.35951
2250.63472	0.36168
2248.70615	0.36388
2246.77759	0.36619
2244.84902	0.36840
2242.92046	0.37046
2240.99189	0.37266
2239.06333	0.37508
2237.13477	0.37750
2235.20620	0.37966
2233.27764	0.38170
2231.34907	0.38400
2229.42051	0.38651
2227.49194	0.38882
2225.56338	0.39091
2223.63481	0.39306
2221.70625	0.39531
2219.77769	0.39748
2217.84912	0.39949
2215.92056	0.40150
2213.99199	0.40372
2212.06343	0.40604
2210.13486	0.40823
2208.20630	0.41032
2206.27773	0.41239
2204.34917	0.41446
2202.42061	0.41652
2200.49204	0.41849
2198.56348	0.42042
2196.63491	0.42239
2194.70635	0.42444
2192.77778	0.42646
2190.84922	0.42826
2188.92065	0.42997
2186.99209	0.43180
2185.06353	0.43368
2183.13496	0.43547
2181.20640	0.43725
2179.27783	0.43902
2177.34927	0.44064
2175.42070	0.44205
2173.49214	0.44341
2171.56357	0.44487
2169.63501	0.44640
2167.70645	0.44785
2165.77788	0.44921
2163.84932	0.45050
2161.92075	0.45163
2159.99219	0.45262
2158.06362	0.45356
2156.13506	0.45451
2154.20649	0.45547
2152.27793	0.45637
2150.34937	0.45720
2148.42080	0.45794
2146.49224	0.45846
2144.56367	0.45879
2142.63511	0.45910
2140.70654	0.45942
2138.77798	0.45969
2136.84941	0.45994
2134.92085	0.46016
2132.99229	0.46020
2131.06372	0.45992
2129.13516	0.45956
2127.20659	0.45932
2125.27803	0.45911
2123.34946	0.45876
2121.42090	0.45813
2119.49233	0.45736
2117.56377	0.45664
2115.63521	0.45586
2113.70664	0.45494
2111.77808	0.45402
2109.84951	0.45311
2107.92095	0.45211
2105.99238	0.45101
2104.06382	0.44981
2102.13525	0.44850
2100.20669	0.44712
2098.27812	0.44568
2096.34956	0.44428
2094.42100	0.44285
2092.49243	0.44120
2090.56387	0.43939
2088.63530	0.43760
2086.70674	0.43588
2084.77817	0.43415
2082.84961	0.43228
2080.92104	0.43019
2078.99248	0.42802
2077.06392	0.42591
2075.13535	0.42377
2073.20679	0.42160
2071.27822	0.41943
2069.34966	0.41718
2067.42109	0.41486
2065.49253	0.41251
2063.56396	0.41007
2061.63540	0.40748
2059.70684	0.40481
2057.77827	0.40225
2055.84971	0.39989
2053.92114	0.39746
2051.99258	0.39480
2050.06401	0.39212
2048.13545	0.38950
2046.20688	0.38673
2044.27832	0.38390
2042.34976	0.38120
2040.42119	0.37855
2038.49263	0.37580
2036.56406	0.37295
2034.63550	0.37016
2032.70693	0.36753
2030.77837	0.36489
2028.84980	0.36206
2026.92124	0.35916
2024.99268	0.35630
2023.06411	0.35351
2021.13555	0.35085
2019.20698	0.34827
2017.27842	0.34555
2015.34985	0.34264
2013.42129	0.33980
2011.49272	0.33715
2009.56416	0.33449
2007.63560	0.33169
2005.70703	0.32895
2003.77847	0.32640
2001.84990	0.32387
1999.92134	0.32127
1997.99277	0.31864
1996.06421	0.31609
1994.13564	0.31363
1992.20708	0.31110
1990.27852	0.30837
1988.34995	0.30571
1986.42139	0.30326
1984.49282	0.30095
1982.56426	0.29867
1980.63569	0.29632
1978.70713	0.29399
1976.77856	0.29175
1974.85000	0.28952
1972.92144	0.28726
1970.99287	0.28507
1969.06431	0.28296
1967.13574	0.28094
1965.20718	0.27901
1963.27861	0.27717
1961.35005	0.27528
1959.42148	0.27336
1957.49292	0.27156
1955.56436	0.26981
1953.63579	0.26797
1951.70723	0.26609
1949.77866	0.26434
1947.85010	0.26273
1945.92153	0.26128
1943.99297	0.25994
1942.06440	0.25852
1940.13584	0.25702
1938.20728	0.25558
1936.27871	0.25416
1934.35015	0.25271
1932.42158	0.25142
1930.49302	0.25036
1928.56445	0.24939
1926.63589	0.24835
1924.70732	0.24734
1922.77876	0.24647
1920.85020	0.24562
1918.92163	0.24473
1916.99307	0.24379
1915.06450	0.24286
1913.13594	0.24197
1911.20737	0.24124
1909.27881	0.24058
1907.35024	0.23988
1905.42168	0.23910
1903.49312	0.23838
1901.56455	0.23780
1899.63599	0.23734
1897.70742	0.23699
1895.77886	0.23663
1893.85029	0.23627
1891.92173	0.23596
1889.99316	0.23575
1888.06460	0.23540
1886.13604	0.23496
1884.20747	0.23470
1882.27891	0.23468
1880.35034	0.23474
1878.42178	0.23474
1876.49321	0.23475
1874.56465	0.23475
1872.63608	0.23479
1870.70752	0.23491
1868.77896	0.23528
1866.85039	0.23565
1864.92183	0.23571
1862.99326	0.23575
1861.06470	0.23597
1859.13613	0.23641
1857.20757	0.23683
1855.27900	0.23724
1853.35044	0.23770
1851.42187	0.23823
1849.49331	0.23879
1847.56475	0.23945
1845.63618	0.24026
1843.70762	0.24121
1841.77905	0.24202
1839.85049	0.24257
1837.92192	0.24339
1835.99336	0.24437
1834.06479	0.24528
1832.13623	0.24622
1830.20767	0.24758
1828.27910	0.24911
1826.35054	0.25023
1824.42197	0.25144
1822.49341	0.25275
1820.56484	0.25407
1818.63628	0.25544
1816.70771	0.25701
1814.77915	0.25863
1812.85059	0.26032
1810.92202	0.26231
1808.99346	0.26452
1807.06489	0.26663
1805.13633	0.26853
1803.20776	0.27065
1801.27920	0.27313
1799.35063	0.27601
1797.42207	0.27868
1795.49351	0.28109
1793.56494	0.28376
1791.63638	0.28734
1789.70781	0.29100
1787.77925	0.29378
1785.85068	0.29684
1783.92212	0.30047
1781.99355	0.30442
1780.06499	0.30865
1778.13643	0.31306
1776.20786	0.31713
1774.27930	0.32130
1772.35073	0.32700
1770.42217	0.33354
1768.49360	0.33917
1766.56504	0.34443
1764.63647	0.34974
1762.70791	0.35553
1760.77935	0.36301
1758.85078	0.37028
1756.92222	0.37750
1754.99365	0.38526
1753.06509	0.39239
1751.13652	0.40092
1749.20796	0.41157
1747.27939	0.42215
1745.35083	0.43160
1743.42227	0.44154
1741.49370	0.45249
1739.56514	0.46528
1737.63657	0.47783
1735.70801	0.48868
1733.77944	0.50513
1731.85088	0.52505
1729.92231	0.54078
1727.99375	0.55659
1726.06519	0.57363
1724.13662	0.59220
1722.20806	0.61218
1720.27949	0.63050
1718.35093	0.65154
1716.42236	0.68282
1714.49380	0.71359
1712.56523	0.73888
1710.63667	0.76306
1708.70811	0.78866
1706.77954	0.81733
1704.85098	0.85146
1702.92241	0.88216
1700.99385	0.91227
1699.06528	0.95616
1697.13672	0.99654
1695.20815	1.03842
1693.27959	1.07875
1691.35103	1.11052
1689.42246	1.14664
1687.49390	1.18443
1685.56533	1.22083
1683.63677	1.27651
1681.70820	1.33334
1679.77964	1.36966
1677.85107	1.40461
1675.92251	1.44464
1673.99395	1.49331
1672.06538	1.53629
1670.13682	1.57854
1668.20825	1.63302
1666.27969	1.67612
1664.35112	1.71068
1662.42256	1.75284
1660.49399	1.80094
1658.56543	1.83950
1656.63687	1.87169
1654.70830	1.90277
1652.77974	1.95291
1650.85117	2.00113
1648.92261	2.02099
1646.99404	2.04781
1645.06548	2.08067
1643.13691	2.10345
1641.20835	2.11755
1639.27979	2.12915
1637.35122	2.13654
1635.42266	2.13936
1633.49409	2.13590
1631.56553	2.12565
1629.63696	2.11284
1627.70840	2.09158
1625.77983	2.06512
1623.85127	2.02990
1621.92271	1.98615
1619.99414	1.94714
1618.06558	1.90828
1616.13701	1.85252
1614.20845	1.79536
1612.27988	1.75087
1610.35132	1.70368
1608.42275	1.65213
1606.49419	1.60111
1604.56562	1.55367
1602.63706	1.50734
1600.70850	1.46170
1598.77993	1.41933
1596.85137	1.37912
1594.92280	1.33972
1592.99424	1.30157
1591.06567	1.26687
1589.13711	1.23437
1587.20854	1.20342
1585.27998	1.17402
1583.35142	1.14589
1581.42285	1.11978
1579.49429	1.09707
1577.56572	1.07603
1575.63716	1.04951
1573.70859	1.02572
1571.78003	1.00995
1569.85146	0.99269
1567.92290	0.97256
1565.99434	0.95620
1564.06577	0.94201
1562.13721	0.92997
1560.20864	0.91934
1558.28008	0.90045
1556.35151	0.88319
1554.42295	0.87272
1552.49438	0.86235
1550.56582	0.85216
1548.63726	0.84177
1546.70869	0.83255
1544.78013	0.82439
1542.85156	0.81643
1540.92300	0.80777
1538.99443	0.79625
1537.06587	0.78754
1535.13730	0.78133
1533.20874	0.77369
1531.28018	0.76593
1529.35161	0.76047
1527.42305	0.75539
1525.49448	0.74980
1523.56592	0.74415
1521.63735	0.73783
1519.70879	0.73140
1517.78022	0.72638
1515.85166	0.72121
1513.92310	0.71606
1511.99453	0.71195
1510.06597	0.70848
1508.13740	0.70514
1506.20884	0.69952
1504.28027	0.69403
1502.35171	0.69068
1500.42314	0.68770
1498.49458	0.68455
1496.56602	0.68107
1494.63745	0.67755
1492.70889	0.67451
1490.78032	0.67180
1488.85176	0.66862
1486.92319	0.66520
1484.99463	0.66206
1483.06606	0.65913
1481.13750	0.65619
1479.20894	0.65333
1477.28037	0.65080
1475.35181	0.64844
1473.42324	0.64595
1471.49468	0.64276
1469.56611	0.63958
1467.63755	0.63691
1465.70898	0.63435
1463.78042	0.63167
1461.85186	0.62949
1459.92329	0.62802
1457.99473	0.62638
1456.06616	0.62379
1454.13760	0.62144
1452.20903	0.61950
1450.28047	0.61755
1448.35190	0.61577
1446.42334	0.61407
1444.49478	0.61237
1442.56621	0.61069
1440.63765	0.60901
1438.70908	0.60749
1436.78052	0.60604
1434.85195	0.60446
1432.92339	0.60293
1430.99482	0.60160
1429.06626	0.60018
1427.13770	0.59850
1425.20913	0.59673
1423.28057	0.59510
1421.35200	0.59381
1419.42344	0.59268
1417.49487	0.59137
1415.56631	0.58998
1413.63774	0.58858
1411.70918	0.58696
1409.78062	0.58529
1407.85205	0.58392
1405.92349	0.58276
1403.99492	0.58155
1402.06636	0.58036
1400.13779	0.57926
1398.20923	0.57807
1396.28066	0.57684
1394.35210	0.57552
1392.42354	0.57404
1390.49497	0.57264
1388.56641	0.57140
1386.63784	0.57017
1384.70928	0.56883
1382.78071	0.56750
1380.85215	0.56635
1378.92358	0.56545
1376.99502	0.56465
1375.06646	0.56395
1373.13789	0.56322
1371.20933	0.56217
1369.28076	0.56100
1367.35220	0.55981
1365.42363	0.55869
1363.49507	0.55778
1361.56650	0.55692
1359.63794	0.55601
1357.70937	0.55522
1355.78081	0.55444
1353.85225	0.55350
1351.92368	0.55254
1349.99512	0.55170
1348.06655	0.55086
1346.13799	0.54996
1344.20942	0.54906
1342.28086	0.54829
1340.35229	0.54755
1338.42373	0.54663
1336.49517	0.54561
1334.56660	0.54470
1332.63804	0.54385
1330.70947	0.54306
1328.78091	0.54234
1326.85234	0.54156
1324.92378	0.54070
1322.99521	0.53981
1321.06665	0.53899
1319.13809	0.53831
1317.20952	0.53758
1315.28096	0.53672
1313.35239	0.53597
1311.42383	0.53533
1309.49526	0.53463
1307.56670	0.53383
1305.63813	0.53308
1303.70957	0.53242
1301.78101	0.53182
1299.85244	0.53111
1297.92388	0.53026
1295.99531	0.52944
1294.06675	0.52879
1292.13818	0.52835
1290.20962	0.52796
1288.28105	0.52749
1286.35249	0.52692
1284.42393	0.52628
1282.49536	0.52570
1280.56680	0.52523
1278.63823	0.52476
1276.70967	0.52428
1274.78110	0.52377
1272.85254	0.52330
1270.92397	0.52302
1268.99541	0.52278
1267.06685	0.52236
1265.13828	0.52180
1263.20972	0.52133
1261.28115	0.52108
1259.35259	0.52083
1257.42402	0.52045
1255.49546	0.52017
1253.56689	0.51992
1251.63833	0.51954
1249.70977	0.51916
1247.78120	0.51892
1245.85264	0.51878
1243.92407	0.51853
1241.99551	0.51808
1240.06694	0.51756
1238.13838	0.51703
1236.20981	0.51650
1234.28125	0.51592
1232.35269	0.51522
1230.42412	0.51455
1228.49556	0.51400
1226.56699	0.51347
1224.63843	0.51291
1222.70986	0.51231
1220.78130	0.51166
1218.85273	0.51101
1216.92417	0.51040
1214.99561	0.50978
1213.06704	0.50909
1211.13848	0.50846
1209.20991	0.50797
1207.28135	0.50745
1205.35278	0.50679
1203.42422	0.50608
1201.49565	0.50548
1199.56709	0.50510
1197.63853	0.50477
1195.70996	0.50436
1193.78140	0.50395
1191.85283	0.50352
1189.92427	0.50316
1187.99570	0.50291
1186.06714	0.50270
1184.13857	0.50246
1182.21001	0.50218
1180.28145	0.50210
1178.35288	0.50239
1176.42432	0.50276
1174.49575	0.50301
1172.56719	0.50325
1170.63862	0.50349
1168.71006	0.50378
1166.78149	0.50416
1164.85293	0.50448
1162.92437	0.50465
1160.99580	0.50465
1159.06724	0.50431
1157.13867	0.50370
1155.21011	0.50307
1153.28154	0.50225
1151.35298	0.50093
1149.42441	0.49916
1147.49585	0.49725
1145.56729	0.49538
1143.63872	0.49330
1141.71016	0.49082
1139.78159	0.48842
1137.85303	0.48649
1135.92446	0.48474
1133.99590	0.48293
1132.06733	0.48127
1130.13877	0.47974
1128.21021	0.47799
1126.28164	0.47618
1124.35308	0.47482
1122.42451	0.47387
1120.49595	0.47305
1118.56738	0.47247
1116.63882	0.47220
1114.71025	0.47211
1112.78169	0.47217
1110.85312	0.47231
1108.92456	0.47261
1106.99600	0.47345
1105.06743	0.47501
1103.13887	0.47690
1101.21030	0.47873
1099.28174	0.48076
1097.35317	0.48332
1095.42461	0.48638
1093.49604	0.49005
1091.56748	0.49454
1089.63892	0.49953
1087.71035	0.50463
1085.78179	0.51011
1083.85322	0.51637
1081.92466	0.52302
1079.99609	0.52887
1078.06753	0.53277
1076.13896	0.53434
1074.21040	0.53326
1072.28184	0.52925
1070.35327	0.52326
1068.42471	0.51667
1066.49614	0.51019
1064.56758	0.50408
1062.63901	0.49833
1060.71045	0.49300
1058.78188	0.48847
1056.85332	0.48474
1054.92476	0.48151
1052.99619	0.47851
1051.06763	0.47565
1049.13906	0.47325
1047.21050	0.47161
1045.28193	0.47039
1043.35337	0.46919
1041.42480	0.46811
1039.49624	0.46717
1037.56768	0.46628
1035.63911	0.46579
1033.71055	0.46591
1031.78198	0.46617
1029.85342	0.46633
1027.92485	0.46664
1025.99629	0.46717
1024.06772	0.46780
1022.13916	0.46856
1020.21060	0.46942
1018.28203	0.47037
1016.35347	0.47140
1014.42490	0.47249
1012.49634	0.47375
1010.56777	0.47531
1008.63921	0.47717
1006.71064	0.47923
1004.78208	0.48128
1002.85352	0.48344
1000.92495	0.48605
998.99639	0.48912
997.06782	0.49255
995.13926	0.49637
993.21069	0.50031
991.28213	0.50372
989.35356	0.50613
987.42500	0.50767
985.49644	0.50877
983.56787	0.50973
981.63931	0.51077
979.71074	0.51226
977.78218	0.51444
975.85361	0.51730
973.92505	0.52046
971.99648	0.52364
970.06792	0.52719
968.13936	0.53137
966.21079	0.53555
964.28223	0.53963
962.35366	0.54435
960.42510	0.54982
958.49653	0.55537
956.56797	0.56091
954.63940	0.56698
952.71084	0.57333
950.78228	0.57944
948.85371	0.58587
946.92515	0.59301
944.99658	0.59983
943.06802	0.60556
941.13945	0.61081
939.21089	0.61624
937.28232	0.62224
935.35376	0.62871
933.42520	0.63490
931.49663	0.64058
929.56807	0.64624
927.63950	0.65228
925.71094	0.65824
923.78237	0.66383
921.85381	0.67023
919.92524	0.67780
917.99668	0.68579
916.06812	0.69370
914.13955	0.70075
912.21099	0.70747
910.28242	0.71554
908.35386	0.72484
906.42529	0.73394
904.49673	0.74243
902.56816	0.75117
900.63960	0.76041
898.71104	0.77029
896.78247	0.78163
894.85391	0.79319
892.92534	0.80252
890.99678	0.81078
889.06821	0.82122
887.13965	0.83363
885.21108	0.84597
883.28252	0.85795
881.35396	0.86929
879.42539	0.88044
877.49683	0.89256
875.56826	0.90467
873.63970	0.91639
871.71113	0.92873
869.78257	0.94100
867.85400	0.95219
865.92544	0.96232
863.99687	0.97310
862.06831	0.98527
860.13975	0.99641
858.21118	1.00575
856.28262	1.01457
854.35405	1.02465
852.42549	1.03756
850.49692	1.05303
848.56836	1.06740
846.63979	1.07846
844.71123	1.08974
842.78267	1.10098
840.85410	1.11135
838.92554	1.12639
836.99697	1.14497
835.06841	1.15791
833.13984	1.16423
831.21128	1.17236
829.28271	1.18757
827.35415	1.20564
825.42559	1.22056
823.49702	1.23372
821.56846	1.24429
819.63989	1.25198
817.71133	1.25971
815.78276	1.26841
813.85420	1.28568
811.92563	1.31956
809.99707	1.36254
808.06851	1.38546
806.13994	1.37736
804.21138	1.37050
802.28281	1.38895
800.35425	1.41071
798.42568	1.40281
796.49712	1.39644
794.56855	1.42802
792.63999	1.47733
790.71143	1.53657
788.78286	1.66713
786.85430	1.95259
784.92573	2.02384
782.99717	1.67104
781.06860	1.50255
779.14004	1.48242
777.21147	1.50214
775.28291	1.54005
773.35435	1.66527
771.42578	1.83048
769.49722	1.83680
767.56865	1.67958
765.64009	1.52917
763.71152	1.43664
761.78296	1.40617
759.85439	1.39540
757.92583	1.33989
755.99727	1.26690
754.06870	1.21940
752.14014	1.18858
750.21157	1.17344
748.28301	1.24320
746.35444	1.37661
744.42588	1.19469
742.49731	0.95908
740.56875	0.84488
738.64019	0.78122
736.71162	0.69546
734.78306	0.58540
732.85449	0.52553
730.92593	0.54107
728.99736	0.57781
727.06880	0.55361
725.14023	0.38882
723.21167	0.22468
721.28311	0.18715
719.35454	0.28261
717.42598	0.32239
715.49741	0.28752
713.56885	0.32852
711.64028	0.43764
709.71172	0.46024
707.78315	0.40466
705.85459	0.35173
703.92603	0.36137
701.99746	0.41342
700.06890	0.36533
698.14033	0.32138
696.21177	0.36727
694.28320	0.40989
692.35464	0.41266
690.42607	0.43882
688.49751	0.43925
686.56895	0.40395
684.64038	0.39147
682.71182	0.38184
680.78325	0.35943
678.85469	0.34280
676.92612	0.34632
674.99756	0.36639
673.06899	0.33686
671.14043	0.27105
669.21187	0.27120
667.28330	0.36319
665.35474	0.40590
663.42617	0.36273
661.49761	0.35551
659.56904	0.33537
657.64048	0.27788
655.71191	0.22376
653.78335	0.17523
651.85479	0.15152
649.92622	0.16083
647.99766	0.17799
646.06909	0.20116
644.14053	0.24115
642.21196	0.32046
640.28340	0.40590
638.35483	0.35464
636.42627	0.30776
634.49771	0.32774
632.56914	0.32378
630.64058	0.28685
628.71201	0.28749
626.78345	0.32776
624.85488	0.37581
622.92632	0.39070
620.99775	0.33506
619.06919	0.27222
617.14062	0.22892
615.21206	0.18268
613.28350	0.14960
611.35493	0.18228
609.42637	0.29677
607.49780	0.42294
605.56924	0.45053
603.64067	0.37605
601.71211	0.27642
599.78354	0.22712
597.85498	0.24613
595.92642	0.30121
593.99785	0.35245
592.06929	0.37563
590.14072	0.36473
588.21216	0.36434
586.28359	0.34669
584.35503	0.30203
582.42646	0.28225
580.49790	0.28955
578.56934	0.31480
576.64077	0.36107
574.71221	0.38968
572.78364	0.33452
570.85508	0.23878
568.92651	0.20676
566.99795	0.26046
565.06938	0.32726
563.14082	0.31446
561.21226	0.27332
559.28369	0.27338
557.35513	0.30763
555.42656	0.32945
553.49800	0.31702
551.56943	0.31165
549.64087	0.30324
547.71230	0.26805
545.78374	0.25566
543.85518	0.25984
541.92661	0.22976
539.99805	0.20122
538.06948	0.22743
536.14092	0.25383
534.21235	0.24136
532.28379	0.25076
530.35522	0.27724
528.42666	0.25380
526.49810	0.21452
524.56953	0.21175
522.64097	0.23396
520.71240	0.24814
518.78384	0.23971
516.85527	0.22764
514.92671	0.20663
512.99814	0.18381
511.06958	0.17884
509.14102	0.18138
507.21245	0.20109
505.28389	0.24497
503.35532	0.26785
501.42676	0.25066
499.49819	0.23775
