3997.91411	0.06263
3995.98555	0.06285
3994.05698	0.06348
3992.12842	0.06441
3990.19985	0.06501
3988.27129	0.06519
3986.34272	0.06492
3984.41416	0.06446
3982.48560	0.06434
3980.55703	0.06470
3978.62847	0.06529
3976.69990	0.06571
3974.77134	0.06574
3972.84277	0.06547
3970.91421	0.06557
3968.98564	0.06627
3967.05708	0.06692
3965.12852	0.06713
3963.19995	0.06718
3961.27139	0.06724
3959.34282	0.06709
3957.41426	0.06682
3955.48569	0.06685
3953.55713	0.06709
3951.62856	0.06718
3949.70000	0.06732
3947.77144	0.06782
3945.84287	0.06833
3943.91431	0.06848
3941.98574	0.06825
3940.05718	0.06783
3938.12861	0.06763
3936.20005	0.06774
3934.27148	0.06796
3932.34292	0.06808
3930.41436	0.06785
3928.48579	0.06738
3926.55723	0.06719
3924.62866	0.06730
3922.70010	0.06702
3920.77153	0.06602
3918.84297	0.06525
3916.91440	0.06563
3914.98584	0.06632
3913.05728	0.06614
3911.12871	0.06536
3909.20015	0.06496
3907.27158	0.06553
3905.34302	0.06658
3903.41445	0.06721
3901.48589	0.06698
3899.55732	0.06667
3897.62876	0.06667
3895.70020	0.06654
3893.77163	0.06653
3891.84307	0.06662
3889.91450	0.06620
3887.98594	0.06565
3886.05737	0.06576
3884.12881	0.06641
3882.20024	0.06675
3880.27168	0.06659
3878.34312	0.06640
3876.41455	0.06654
3874.48599	0.06695
3872.55742	0.06716
3870.62886	0.06728
3868.70029	0.06796
3866.77173	0.06862
3864.84316	0.06891
3862.91460	0.06919
3860.98604	0.06953
3859.05747	0.06995
3857.12891	0.07071
3855.20034	0.07173
3853.27178	0.07239
3851.34321	0.07225
3849.41465	0.07178
3847.48608	0.07163
3845.55752	0.07199
3843.62896	0.07276
3841.70039	0.07343
3839.77183	0.07367
3837.84326	0.07392
3835.91470	0.07465
3833.98613	0.07567
3832.05757	0.07632
3830.12900	0.07675
3828.20044	0.07726
3826.27187	0.07793
3824.34331	0.07899
3822.41475	0.08038
3820.48618	0.08209
3818.55762	0.08300
3816.62905	0.08291
3814.70049	0.08329
3812.77192	0.08406
3810.84336	0.08482
3808.91479	0.08571
3806.98623	0.08682
3805.05767	0.08845
3803.12910	0.09016
3801.20054	0.09157
3799.27197	0.09244
3797.34341	0.09319
3795.41484	0.09447
3793.48628	0.09555
3791.55771	0.09613
3789.62915	0.09681
3787.70059	0.09790
3785.77202	0.09923
3783.84346	0.10056
3781.91489	0.10191
3779.98633	0.10362
3778.05776	0.10570
3776.12920	0.10756
3774.20063	0.10923
3772.27207	0.11088
3770.34351	0.11251
3768.41494	0.11442
3766.48638	0.11643
3764.55781	0.11830
3762.62925	0.12008
3760.70068	0.12200
3758.77212	0.12428
3756.84355	0.12661
3754.91499	0.12857
3752.98643	0.13062
3751.05786	0.13358
3749.12930	0.13736
3747.20073	0.14031
3745.27217	0.14286
3743.34360	0.14660
3741.41504	0.15013
3739.48647	0.15255
3737.55791	0.15564
3735.62935	0.16039
3733.70078	0.16560
3731.77222	0.17009
3729.84365	0.17482
3727.91509	0.17976
3725.98652	0.18519
3724.05796	0.19115
3722.12939	0.19705
3720.20083	0.20347
3718.27227	0.21075
3716.34370	0.21809
3714.41514	0.22500
3712.48657	0.23322
3710.55801	0.24538
3708.62944	0.25952
3706.70088	0.27151
3704.77231	0.28262
3702.84375	0.29551
3700.91519	0.31178
3698.98662	0.32937
3697.05806	0.34655
3695.12949	0.36504
3693.20093	0.38432
3691.27236	0.40438
3689.34380	0.42993
3687.41523	0.46313
3685.48667	0.49389
3683.55811	0.52018
3681.62954	0.54758
3679.70098	0.57790
3677.77241	0.60956
3675.84385	0.64736
3673.91528	0.69896
3671.98672	0.74146
3670.05815	0.77866
3668.12959	0.83008
3666.20103	0.87827
3664.27246	0.91898
3662.34390	0.96220
3660.41533	1.00843
3658.48677	1.05389
3656.55820	1.10180
3654.62964	1.15474
3652.70107	1.19963
3650.77251	1.23889
3648.84395	1.29234
3646.91538	1.35857
3644.98682	1.40984
3643.05825	1.45071
3641.12969	1.49128
3639.20112	1.53403
3637.27256	1.57673
3635.34399	1.61913
3633.41543	1.66163
3631.48687	1.70059
3629.55830	1.73948
3627.62974	1.79189
3625.70117	1.84345
3623.77261	1.87930
3621.84404	1.91265
3619.91548	1.94986
3617.98691	1.99333
3616.05835	2.03498
3614.12979	2.07225
3612.20122	2.11232
3610.27266	2.15109
3608.34409	2.18994
3606.41553	2.23329
3604.48696	2.27505
3602.55840	2.31182
3600.62983	2.34949
3598.70127	2.38994
3596.77271	2.42989
3594.84414	2.46899
3592.91558	2.50815
3590.98701	2.54647
3589.05845	2.58318
3587.12988	2.62651
3585.20132	2.67474
3583.27275	2.71630
3581.34419	2.75595
3579.41562	2.79885
3577.48706	2.84226
3575.55850	2.88489
3573.62993	2.92919
3571.70137	2.97259
3569.77280	3.01271
3567.84424	3.05343
3565.91567	3.10196
3563.98711	3.14961
3562.05854	3.19052
3560.12998	3.23310
3558.20142	3.27981
3556.27285	3.32823
3554.34429	3.37395
3552.41572	3.41809
3550.48716	3.46518
3548.55859	3.51470
3546.63003	3.56216
3544.70146	3.60952
3542.77290	3.65863
3540.84434	3.70595
3538.91577	3.75258
3536.98721	3.79915
3535.05864	3.84573
3533.13008	3.89297
3531.20151	3.93971
3529.27295	3.98386
3527.34438	4.03057
3525.41582	4.08387
3523.48726	4.13723
3521.55869	4.18644
3519.63013	4.23228
3517.70156	4.27527
3515.77300	4.31671
3513.84443	4.36275
3511.91587	4.41459
3509.98730	4.46844
3508.05874	4.51970
3506.13018	4.56428
3504.20161	4.60655
3502.27305	4.65506
3500.34448	4.71086
3498.41592	4.76159
3496.48735	4.80362
3494.55879	4.84829
3492.63022	4.89757
3490.70166	4.94528
3488.77310	4.99132
3486.84453	5.03760
3484.91597	5.08717
3482.98740	5.14098
3481.05884	5.19374
3479.13027	5.24304
3477.20171	5.29462
3475.27314	5.34597
3473.34458	5.39161
3471.41602	5.43820
3469.48745	5.48621
3467.55889	5.52594
3465.63032	5.56472
3463.70176	5.61617
3461.77319	5.66343
3459.84463	5.69595
3457.91606	5.73819
3455.98750	5.80353
3454.05894	5.87430
3452.13037	5.93461
3450.20181	5.98814
3448.27324	6.04145
3446.34468	6.09638
3444.41611	6.15216
3442.48755	6.20904
3440.55898	6.25188
3438.63042	6.27795
3436.70186	6.30421
3434.77329	6.33754
3432.84473	6.37567
3430.91616	6.41643
3428.98760	6.47072
3427.05903	6.53237
3425.13047	6.58777
3423.20190	6.64770
3421.27334	6.71995
3419.34478	6.76730
3417.41621	6.77889
3415.48765	6.78800
3413.55908	6.79899
3411.63052	6.83111
3409.70195	6.89425
3407.77339	6.95098
3405.84482	6.99070
3403.91626	7.04907
3401.98770	7.10270
3400.05913	7.14169
3398.13057	7.19900
3396.20200	7.24294
3394.27344	7.25742
3392.34487	7.25832
3390.41631	7.27937
3388.48774	7.36624
3386.55918	7.49307
3384.63062	7.55846
3382.70205	7.57875
3380.77349	7.60425
3378.84492	7.59489
3376.91636	7.59354
3374.98779	7.63979
3373.05923	7.68453
3371.13066	7.67008
3369.20210	7.66014
3367.27354	7.70863
3365.34497	7.74887
3363.41641	7.74609
3361.48784	7.74218
3359.55928	7.75476
3357.63071	7.74442
3355.70215	7.74765
3353.77358	7.80678
3351.84502	7.82881
3349.91646	7.76141
3347.98789	7.72171
3346.05933	7.75372
3344.13076	7.78933
3342.20220	7.80514
3340.27363	7.81990
3338.34507	7.82985
3336.41650	7.85869
3334.48794	7.94693
3332.55937	7.97832
3330.63081	7.93926
3328.70225	7.97448
3326.77368	8.06922
3324.84512	8.08562
3322.91655	7.98957
3320.98799	7.94140
3319.05942	8.00465
3317.13086	8.08589
3315.20229	8.10931
3313.27373	8.10839
3311.34517	8.12042
3309.41660	8.12974
3307.48804	8.14845
3305.55947	8.19165
3303.63091	8.18801
3301.70234	8.09503
3299.77378	8.01135
3297.84521	8.00608
3295.91665	8.06227
3293.98809	8.08126
3292.05952	8.09580
3290.13096	8.20990
3288.20239	8.31812
3286.27383	8.31755
3284.34526	8.24242
3282.41670	8.12974
3280.48813	8.04159
3278.55957	8.07289
3276.63101	8.15964
3274.70244	8.17868
3272.77388	8.17782
3270.84531	8.14981
3268.91675	8.06165
3266.98818	8.03272
3265.05962	8.09825
3263.13105	8.08218
3261.20249	7.94246
3259.27393	7.84420
3257.34536	7.85819
3255.41680	7.90878
3253.48823	7.95206
3251.55967	8.01942
3249.63110	8.06755
3247.70254	8.09002
3245.77397	8.14039
3243.84541	8.14900
3241.91685	8.05099
3239.98828	7.99489
3238.05972	8.02202
3236.13115	8.02324
3234.20259	7.96161
3232.27402	7.84696
3230.34546	7.79531
3228.41689	7.87741
3226.48833	8.02113
3224.55977	8.13068
3222.63120	8.07932
3220.70264	7.91243
3218.77407	7.80842
3216.84551	7.78250
3214.91694	7.80338
3212.98838	7.84115
3211.05981	7.83987
3209.13125	7.81532
3207.20269	7.79449
3205.27412	7.79971
3203.34556	7.82514
3201.41699	7.82521
3199.48843	7.78158
3197.55986	7.70502
3195.63130	7.63774
3193.70273	7.59099
3191.77417	7.52578
3189.84561	7.44410
3187.91704	7.42654
3185.98848	7.47474
3184.05991	7.46839
3182.13135	7.38203
3180.20278	7.26825
3178.27422	7.16058
3176.34565	7.10144
3174.41709	7.09015
3172.48853	7.08884
3170.55996	7.06743
3168.63140	7.00661
3166.70283	6.91696
3164.77427	6.84021
3162.84570	6.78382
3160.91714	6.72974
3158.98857	6.68637
3157.06001	6.64660
3155.13145	6.58021
3153.20288	6.48960
3151.27432	6.41241
3149.34575	6.36962
3147.41719	6.33539
3145.48862	6.26158
3143.56006	6.15497
3141.63149	6.06633
3139.70293	6.00488
3137.77437	5.95728
3135.84580	5.91075
3133.91724	5.84351
3131.98867	5.75299
3130.06011	5.66479
3128.13154	5.59614
3126.20298	5.53500
3124.27441	5.46523
3122.34585	5.38991
3120.41729	5.32022
3118.48872	5.25373
3116.56016	5.18309
3114.63159	5.10985
3112.70303	5.03640
3110.77446	4.96574
3108.84590	4.90025
3106.91733	4.83682
3104.98877	4.77345
3103.06021	4.70766
3101.13164	4.63789
3099.20308	4.57075
3097.27451	4.50608
3095.34595	4.43731
3093.41738	4.36705
3091.48882	4.30254
3089.56025	4.24291
3087.63169	4.18165
3085.70312	4.11964
3083.77456	4.06020
3081.84600	4.00100
3079.91743	3.93812
3077.98887	3.87354
3076.06030	3.81168
3074.13174	3.75072
3072.20317	3.69044
3070.27461	3.63476
3068.34604	3.58212
3066.41748	3.52746
3064.48892	3.47052
3062.56035	3.41448
3060.63179	3.36089
3058.70322	3.30746
3056.77466	3.25311
3054.84609	3.20015
3052.91753	3.14807
3050.98896	3.09658
3049.06040	3.04684
3047.13184	2.99633
3045.20327	2.94359
3043.27471	2.89155
3041.34614	2.84259
3039.41758	2.79616
3037.48901	2.75009
3035.56045	2.70253
3033.63188	2.65450
3031.70332	2.60832
3029.77476	2.56414
3027.84619	2.52114
3025.91763	2.47861
3023.98906	2.43619
3022.06050	2.39379
3020.13193	2.35097
3018.20337	2.30876
3016.27480	2.26883
3014.34624	2.23027
3012.41768	2.19150
3010.48911	2.15279
3008.56055	2.11472
3006.63198	2.07720
3004.70342	2.04011
3002.77485	2.00410
3000.84629	1.97015
2998.91772	1.93757
2996.98916	1.90497
2995.06060	1.87251
2993.13203	1.84076
2991.20347	1.80984
2989.27490	1.78022
2987.34634	1.75189
2985.41777	1.72391
2983.48921	1.69611
2981.56064	1.66888
2979.63208	1.64222
2977.70352	1.61612
2975.77495	1.59089
2973.84639	1.56641
2971.91782	1.54223
2969.98926	1.51834
2968.06069	1.49470
2966.13213	1.47108
2964.20356	1.44771
2962.27500	1.42480
2960.34644	1.40186
2958.41787	1.37825
2956.48931	1.35391
2954.56074	1.32971
2952.63218	1.30621
2950.70361	1.28319
2948.77505	1.26040
2946.84648	1.23798
2944.91792	1.21666
2942.98936	1.19658
2941.06079	1.17694
2939.13223	1.15722
2937.20366	1.13733
2935.27510	1.11750
2933.34653	1.09800
2931.41797	1.07878
2929.48940	1.05982
2927.56084	1.04110
2925.63228	1.02223
2923.70371	1.00308
2921.77515	0.98443
2919.84658	0.96685
2917.91802	0.94991
2915.98945	0.93310
2914.06089	0.91616
2912.13232	0.89899
2910.20376	0.88184
2908.27520	0.86512
2906.34663	0.84929
2904.41807	0.83456
2902.48950	0.82051
2900.56094	0.80661
2898.63237	0.79273
2896.70381	0.77907
2894.77524	0.76574
2892.84668	0.75281
2890.91812	0.74062
2888.98955	0.72913
2887.06099	0.71813
2885.13242	0.70769
2883.20386	0.69764
2881.27529	0.68780
2879.34673	0.67819
2877.41816	0.66868
2875.48960	0.65907
2873.56104	0.64898
2871.63247	0.63842
2869.70391	0.62742
2867.77534	0.61555
2865.84678	0.60322
2863.91821	0.59132
2861.98965	0.58009
2860.06108	0.56944
2858.13252	0.55898
2856.20396	0.54856
2854.27539	0.53870
2852.34683	0.52946
2850.41826	0.52038
2848.48970	0.51139
2846.56113	0.50263
2844.63257	0.49420
2842.70400	0.48653
2840.77544	0.47973
2838.84687	0.47325
2836.91831	0.46675
2834.98975	0.46027
2833.06118	0.45373
2831.13262	0.44702
2829.20405	0.44044
2827.27549	0.43425
2825.34692	0.42824
2823.41836	0.42213
2821.48979	0.41599
2819.56123	0.41002
2817.63267	0.40420
2815.70410	0.39852
2813.77554	0.39290
2811.84697	0.38714
2809.91841	0.38128
2807.98984	0.37561
2806.06128	0.37043
2804.13271	0.36552
2802.20415	0.36035
2800.27559	0.35494
2798.34702	0.34967
2796.41846	0.34483
2794.48989	0.34028
2792.56133	0.33565
2790.63276	0.33099
2788.70420	0.32647
2786.77563	0.32195
2784.84707	0.31736
2782.91851	0.31286
2780.98994	0.30866
2779.06138	0.30465
2777.13281	0.30065
2775.20425	0.29673
2773.27568	0.29296
2771.34712	0.28920
2769.41855	0.28538
2767.48999	0.28163
2765.56143	0.27801
2763.63286	0.27446
2761.70430	0.27097
2759.77573	0.26757
2757.84717	0.26431
2755.91860	0.26110
2753.99004	0.25786
2752.06147	0.25466
2750.13291	0.25159
2748.20435	0.24873
2746.27578	0.24601
2744.34722	0.24334
2742.41865	0.24059
2740.49009	0.23763
2738.56152	0.23475
2736.63296	0.23220
2734.70439	0.22974
2732.77583	0.22723
2730.84727	0.22481
2728.91870	0.22245
2726.99014	0.22005
2725.06157	0.21772
2723.13301	0.21541
2721.20444	0.21303
2719.27588	0.21088
2717.34731	0.20901
2715.41875	0.20715
2713.49019	0.20523
2711.56162	0.20332
2709.63306	0.20155
2707.70449	0.19998
2705.77593	0.19854
2703.84736	0.19707
2701.91880	0.19557
2699.99023	0.19410
2698.06167	0.19261
2696.13311	0.19098
2694.20454	0.18927
2692.27598	0.18769
2690.34741	0.18623
2688.41885	0.18491
2686.49028	0.18385
2684.56172	0.18284
2682.63315	0.18156
2680.70459	0.18007
2678.77603	0.17863
2676.84746	0.17739
2674.91890	0.17634
2672.99033	0.17530
2671.06177	0.17414
2669.13320	0.17307
2667.20464	0.17220
2665.27607	0.17123
2663.34751	0.17017
2661.41895	0.16928
2659.49038	0.16844
2657.56182	0.16756
2655.63325	0.16671
2653.70469	0.16585
2651.77612	0.16498
2649.84756	0.16417
2647.91899	0.16346
2645.99043	0.16285
2644.06187	0.16228
2642.13330	0.16162
2640.20474	0.16092
2638.27617	0.16025
2636.34761	0.15971
2634.41904	0.15926
2632.49048	0.15878
2630.56191	0.15833
2628.63335	0.15798
2626.70479	0.15760
2624.77622	0.15709
2622.84766	0.15652
2620.91909	0.15612
2618.99053	0.15596
2617.06196	0.15581
2615.13340	0.15570
2613.20483	0.15559
2611.27627	0.15529
2609.34771	0.15496
2607.41914	0.15481
2605.49058	0.15472
2603.56201	0.15458
2601.63345	0.15461
2599.70488	0.15480
2597.77632	0.15492
2595.84775	0.15495
2593.91919	0.15497
2591.99062	0.15498
2590.06206	0.15498
2588.13350	0.15502
2586.20493	0.15515
2584.27637	0.15532
2582.34780	0.15544
2580.41924	0.15554
2578.49067	0.15562
2576.56211	0.15577
2574.63354	0.15614
2572.70498	0.15662
2570.77642	0.15684
2568.84785	0.15682
2566.91929	0.15709
2564.99072	0.15771
2563.06216	0.15812
2561.13359	0.15833
2559.20503	0.15866
2557.27646	0.15905
2555.34790	0.15950
2553.41934	0.16000
2551.49077	0.16044
2549.56221	0.16089
2547.63364	0.16137
2545.70508	0.16189
2543.77651	0.16247
2541.84795	0.16305
2539.91938	0.16370
2537.99082	0.16444
2536.06226	0.16519
2534.13369	0.16585
2532.20513	0.16637
2530.27656	0.16690
2528.34800	0.16755
2526.41943	0.16816
2524.49087	0.16870
2522.56230	0.16936
2520.63374	0.17015
2518.70518	0.17088
2516.77661	0.17160
2514.84805	0.17236
2512.91948	0.17307
2510.99092	0.17383
2509.06235	0.17475
2507.13379	0.17565
2505.20522	0.17633
2503.27666	0.17694
2501.34810	0.17759
2499.41953	0.17826
2497.49097	0.17900
2495.56240	0.17992
2493.63384	0.18084
2491.70527	0.18156
2489.77671	0.18215
2487.84814	0.18279
2485.91958	0.18358
2483.99102	0.18450
2482.06245	0.18547
2480.13389	0.18639
2478.20532	0.18728
2476.27676	0.18822
2474.34819	0.18911
2472.41963	0.18988
2470.49106	0.19061
2468.56250	0.19141
2466.63394	0.19223
2464.70537	0.19305
2462.77681	0.19399
2460.84824	0.19501
2458.91968	0.19591
2456.99111	0.19678
2455.06255	0.19764
2453.13398	0.19848
2451.20542	0.19944
2449.27686	0.20039
2447.34829	0.20113
2445.41973	0.20196
2443.49116	0.20310
2441.56260	0.20426
2439.63403	0.20526
2437.70547	0.20626
2435.77690	0.20717
2433.84834	0.20796
2431.91978	0.20888
2429.99121	0.20991
2428.06265	0.21090
2426.13408	0.21202
2424.20552	0.21330
2422.27695	0.21441
2420.34839	0.21528
2418.41982	0.21622
2416.49126	0.21733
2414.56270	0.21852
2412.63413	0.21973
2410.70557	0.22088
2408.77700	0.22211
2406.84844	0.22343
2404.91987	0.22465
2402.99131	0.22573
2401.06274	0.22678
2399.13418	0.22790
2397.20562	0.22915
2395.27705	0.23050
2393.34849	0.23170
2391.41992	0.23275
2389.49136	0.23390
2387.56279	0.23521
2385.63423	0.23669
2383.70566	0.23849
2381.77710	0.24044
2379.84854	0.24228
2377.91997	0.24407
2375.99141	0.24592
2374.06284	0.24813
2372.13428	0.25100
2370.20571	0.25398
2368.27715	0.25629
2366.34858	0.25766
2364.42002	0.25860
2362.49146	0.25978
2360.56289	0.26085
2358.63433	0.26259
2356.70576	0.26530
2354.77720	0.26729
2352.84863	0.26835
2350.92007	0.26915
2348.99150	0.26998
2347.06294	0.27125
2345.13437	0.27350
2343.20581	0.27607
2341.27725	0.27752
2339.34868	0.27848
2337.42012	0.28013
2335.49155	0.28203
2333.56299	0.28277
2331.63442	0.28318
2329.70586	0.28466
2327.77729	0.28678
2325.84873	0.28859
2323.92017	0.28965
2321.99160	0.29036
2320.06304	0.29149
2318.13447	0.29314
2316.20591	0.29489
2314.27734	0.29662
2312.34878	0.29838
2310.42021	0.29993
2308.49165	0.30126
2306.56309	0.30254
2304.63452	0.30393
2302.70596	0.30551
2300.77739	0.30708
2298.84883	0.30853
2296.92026	0.31007
2294.99170	0.31179
2293.06313	0.31356
2291.13457	0.31540
2289.20601	0.31727
2287.27744	0.31900
2285.34888	0.32063
2283.42031	0.32229
2281.49175	0.32414
2279.56318	0.32626
2277.63462	0.32839
2275.70605	0.33034
2273.77749	0.33227
2271.84893	0.33427
2269.92036	0.33635
2267.99180	0.33857
2266.06323	0.34083
2264.13467	0.34301
2262.20610	0.34508
2260.27754	0.34708
2258.34897	0.34920
2256.42041	0.35140
2254.49185	0.35352
2252.56328	0.35569
2250.63472	0.35800
2248.70615	0.36026
2246.77759	0.36234
2244.84902	0.36433
2242.92046	0.36633
2240.99189	0.36842
2239.06333	0.37065
2237.13477	0.37292
2235.20620	0.37521
2233.27764	0.37753
2231.34907	0.37979
2229.42051	0.38197
2227.49194	0.38420
2225.56338	0.38648
2223.63481	0.38869
2221.70625	0.39088
2219.77769	0.39304
2217.84912	0.39509
2215.92056	0.39716
2213.99199	0.39939
2212.06343	0.40167
2210.13486	0.40379
2208.20630	0.40575
2206.27773	0.40769
2204.34917	0.40968
2202.42061	0.41177
2200.49204	0.41395
2198.56348	0.41608
2196.63491	0.41805
2194.70635	0.41993
2192.77778	0.42187
2190.84922	0.42385
2188.92065	0.42571
2186.99209	0.42739
2185.06353	0.42907
2183.13496	0.43088
2181.20640	0.43267
2179.27783	0.43425
2177.34927	0.43571
2175.42070	0.43721
2173.49214	0.43872
2171.56357	0.44009
2169.63501	0.44133
2167.70645	0.44251
2165.77788	0.44370
2163.84932	0.44498
2161.92075	0.44613
2159.99219	0.44710
2158.06362	0.44812
2156.13506	0.44922
2154.20649	0.45021
2152.27793	0.45105
2150.34937	0.45176
2148.42080	0.45240
2146.49224	0.45301
2144.56367	0.45345
2142.63511	0.45371
2140.70654	0.45400
2138.77798	0.45429
2136.84941	0.45445
2134.92085	0.45458
2132.99229	0.45464
2131.06372	0.45443
2129.13516	0.45400
2127.20659	0.45358
2125.27803	0.45319
2123.34946	0.45278
2121.42090	0.45228
2119.49233	0.45153
2117.56377	0.45070
2115.63521	0.45006
2113.70664	0.44936
2111.77808	0.44837
2109.84951	0.44730
2107.92095	0.44626
2105.99238	0.44516
2104.06382	0.44409
2102.13525	0.44291
2100.20669	0.44151
2098.27812	0.44004
2096.34956	0.43845
2094.42100	0.43673
2092.49243	0.43511
2090.56387	0.43345
2088.63530	0.43155
2086.70674	0.42957
2084.77817	0.42760
2082.84961	0.42564
2080.92104	0.42374
2078.99248	0.42185
2077.06392	0.41973
2075.13535	0.41741
2073.20679	0.41515
2071.27822	0.41294
2069.34966	0.41063
2067.42109	0.40819
2065.49253	0.40581
2063.56396	0.40349
2061.63540	0.40107
2059.70684	0.39863
2057.77827	0.39635
2055.84971	0.39400
2053.92114	0.39133
2051.99258	0.38842
2050.06401	0.38544
2048.13545	0.38256
2046.20688	0.37990
2044.27832	0.37739
2042.34976	0.37482
2040.42119	0.37223
2038.49263	0.36955
2036.56406	0.36672
2034.63550	0.36389
2032.70693	0.36106
2030.77837	0.35829
2028.84980	0.35566
2026.92124	0.35306
2024.99268	0.35030
2023.06411	0.34741
2021.13555	0.34448
2019.20698	0.34164
2017.27842	0.33892
2015.34985	0.33624
2013.42129	0.33359
2011.49272	0.33103
2009.56416	0.32848
2007.63560	0.32573
2005.70703	0.32293
2003.77847	0.32019
2001.84990	0.31739
1999.92134	0.31465
1997.99277	0.31200
1996.06421	0.30944
1994.13564	0.30710
1992.20708	0.30485
1990.27852	0.30241
1988.34995	0.29987
1986.42139	0.29742
1984.49282	0.29509
1982.56426	0.29275
1980.63569	0.29039
1978.70713	0.28809
1976.77856	0.28586
1974.85000	0.28374
1972.92144	0.28173
1970.99287	0.27969
1969.06431	0.27753
1967.13574	0.27535
1965.20718	0.27326
1963.27861	0.27140
1961.35005	0.26973
1959.42148	0.26788
1957.49292	0.26589
1955.56436	0.26408
1953.63579	0.26242
1951.70723	0.26076
1949.77866	0.25912
1947.85010	0.25747
1945.92153	0.25598
1943.99297	0.25469
1942.06440	0.25332
1940.13584	0.25173
1938.20728	0.25016
1936.27871	0.24884
1934.35015	0.24769
1932.42158	0.24658
1930.49302	0.24538
1928.56445	0.24413
1926.63589	0.24297
1924.70732	0.24197
1922.77876	0.24108
1920.85020	0.24020
1918.92163	0.23932
1916.99307	0.23851
1915.06450	0.23769
1913.13594	0.23677
1911.20737	0.23599
1909.27881	0.23536
1907.35024	0.23472
1905.42168	0.23402
1903.49312	0.23339
1901.56455	0.23284
1899.63599	0.23238
1897.70742	0.23201
1895.77886	0.23167
1893.85029	0.23139
1891.92173	0.23110
1889.99316	0.23091
1888.06460	0.23071
1886.13604	0.23042
1884.20747	0.23012
1882.27891	0.22992
1880.35034	0.22983
1878.42178	0.22982
1876.49321	0.22980
1874.56465	0.22974
1872.63608	0.22984
1870.70752	0.23012
1868.77896	0.23054
1866.85039	0.23076
1864.92183	0.23071
1862.99326	0.23079
1861.06470	0.23109
1859.13613	0.23152
1857.20757	0.23199
1855.27900	0.23257
1853.35044	0.23305
1851.42187	0.23345
1849.49331	0.23397
1847.56475	0.23474
1845.63618	0.23558
1843.70762	0.23642
1841.77905	0.23715
1839.85049	0.23768
1837.92192	0.23846
1835.99336	0.23945
1834.06479	0.24042
1832.13623	0.24141
1830.20767	0.24277
1828.27910	0.24419
1826.35054	0.24529
1824.42197	0.24658
1822.49341	0.24786
1820.56484	0.24908
1818.63628	0.25048
1816.70771	0.25215
1814.77915	0.25380
1812.85059	0.25551
1810.92202	0.25747
1808.99346	0.25950
1807.06489	0.26146
1805.13633	0.26343
1803.20776	0.26569
1801.27920	0.26821
1799.35063	0.27103
1797.42207	0.27362
1795.49351	0.27601
1793.56494	0.27865
1791.63638	0.28210
1789.70781	0.28565
1787.77925	0.28849
1785.85068	0.29172
1783.92212	0.29533
1781.99355	0.29908
1780.06499	0.30307
1778.13643	0.30730
1776.20786	0.31133
1774.27930	0.31558
1772.35073	0.32121
1770.42217	0.32737
1768.49360	0.33274
1766.56504	0.33801
1764.63647	0.34343
1762.70791	0.34935
1760.77935	0.35678
1758.85078	0.36384
1756.92222	0.37097
1754.99365	0.37877
1753.06509	0.38576
1751.13652	0.39376
1749.20796	0.40379
1747.27939	0.41420
1745.35083	0.42373
1743.42227	0.43359
1741.49370	0.44411
1739.56514	0.45662
1737.63657	0.46930
1735.70801	0.48006
1733.77944	0.49587
1731.85088	0.51547
1729.92231	0.53159
1727.99375	0.54758
1726.06519	0.56431
1724.13662	0.58249
1722.20806	0.60223
1720.27949	0.62030
1718.35093	0.64124
1716.42236	0.67270
1714.49380	0.70325
1712.56523	0.72824
1710.63667	0.75248
1708.70811	0.77841
1706.77954	0.80769
1704.85098	0.84285
1702.92241	0.87434
1700.99385	0.90532
1699.06528	0.95190
1697.13672	0.99572
1695.20815	1.04129
1693.27959	1.08607
1691.35103	1.12256
1689.42246	1.16458
1687.49390	1.20890
1685.56533	1.25156
1683.63677	1.31730
1681.70820	1.38660
1679.77964	1.43197
1677.85107	1.47496
1675.92251	1.52398
1673.99395	1.58426
1672.06538	1.63803
1670.13682	1.69108
1668.20825	1.76091
1666.27969	1.81971
1664.35112	1.87080
1662.42256	1.93606
1660.49399	2.01093
1658.56543	2.06912
1656.63687	2.11441
1654.70830	2.15364
1652.77974	2.21356
1650.85117	2.27162
1648.92261	2.29153
1646.99404	2.31314
1645.06548	2.33569
1643.13691	2.35209
1641.20835	2.36056
1639.27979	2.36566
1637.35122	2.36456
1635.42266	2.35526
1633.49409	2.34151
1631.56553	2.32572
1629.63696	2.30736
1627.70840	2.27635
1625.77983	2.23778
1623.85127	2.19008
1621.92271	2.13525
1619.99414	2.08718
1618.06558	2.03945
1616.13701	1.97278
1614.20845	1.90671
1612.27988	1.85630
1610.35132	1.80296
1608.42275	1.74476
1606.49419	1.68754
1604.56562	1.63567
1602.63706	1.58660
1600.70850	1.53905
1598.77993	1.49552
1596.85137	1.45491
1594.92280	1.41543
1592.99424	1.37749
1591.06567	1.34346
1589.13711	1.31234
1587.20854	1.28394
1585.27998	1.25831
1583.35142	1.23481
1581.42285	1.21372
1579.49429	1.19618
1577.56572	1.18074
1575.63716	1.16260
1573.70859	1.14770
1571.78003	1.13859
1569.85146	1.12978
1567.92290	1.12129
1565.99434	1.11608
1564.06577	1.11327
1562.13721	1.11189
1560.20864	1.11277
1558.28008	1.12095
1556.35151	1.13083
1554.42295	1.13610
1552.49438	1.14089
1550.56582	1.14372
1548.63726	1.14333
1546.70869	1.13928
1544.78013	1.13068
1542.85156	1.11724
1540.92300	1.09641
1538.99443	1.06430
1537.06587	1.04100
1535.13730	1.02463
1533.20874	1.00214
1531.28018	0.97815
1529.35161	0.96075
1527.42305	0.94413
1525.49448	0.92695
1523.56592	0.91268
1521.63735	0.89930
1519.70879	0.88621
1517.78022	0.87544
1515.85166	0.86253
1513.92310	0.84866
1511.99453	0.83628
1510.06597	0.82456
1508.13740	0.81255
1506.20884	0.79513
1504.28027	0.78143
1502.35171	0.77399
1500.42314	0.76706
1498.49458	0.75922
1496.56602	0.75015
1494.63745	0.74153
1492.70889	0.73484
1490.78032	0.72873
1488.85176	0.72178
1486.92319	0.71565
1484.99463	0.71100
1483.06606	0.70735
1481.13750	0.70447
1479.20894	0.70252
1477.28037	0.70167
1475.35181	0.70162
1473.42324	0.70202
1471.49468	0.70201
1469.56611	0.70123
1467.63755	0.70000
1465.70898	0.69857
1463.78042	0.69743
1461.85186	0.69718
1459.92329	0.69767
1457.99473	0.69881
1456.06616	0.69954
1454.13760	0.69812
1452.20903	0.69593
1450.28047	0.69349
1448.35190	0.69084
1446.42334	0.68806
1444.49478	0.68547
1442.56621	0.68299
1440.63765	0.68030
1438.70908	0.67730
1436.78052	0.67320
1434.85195	0.66853
1432.92339	0.66529
1430.99482	0.66335
1429.06626	0.66237
1427.13770	0.66231
1425.20913	0.66302
1423.28057	0.66430
1421.35200	0.66538
1419.42344	0.66609
1417.49487	0.66648
1415.56631	0.66612
1413.63774	0.66569
1411.70918	0.66595
1409.78062	0.66720
1407.85205	0.66909
1405.92349	0.67122
1403.99492	0.67315
1402.06636	0.67401
1400.13779	0.67356
1398.20923	0.67190
1396.28066	0.66920
1394.35210	0.66527
1392.42354	0.66053
1390.49497	0.65591
1388.56641	0.65107
1386.63784	0.64531
1384.70928	0.63928
1382.78071	0.63374
1380.85215	0.62871
1378.92358	0.62445
1376.99502	0.62106
1375.06646	0.61867
1373.13789	0.61735
1371.20933	0.61663
1369.28076	0.61589
1367.35220	0.61478
1365.42363	0.61321
1363.49507	0.61142
1361.56650	0.60964
1359.63794	0.60804
1357.70937	0.60655
1355.78081	0.60495
1353.85225	0.60356
1351.92368	0.60271
1349.99512	0.60213
1348.06655	0.60136
1346.13799	0.60027
1344.20942	0.59913
1342.28086	0.59820
1340.35229	0.59755
1338.42373	0.59697
1336.49517	0.59640
1334.56660	0.59602
1332.63804	0.59602
1330.70947	0.59645
1328.78091	0.59714
1326.85234	0.59792
1324.92378	0.59888
1322.99521	0.60009
1321.06665	0.60139
1319.13809	0.60251
1317.20952	0.60313
1315.28096	0.60325
1313.35239	0.60302
1311.42383	0.60247
1309.49526	0.60182
1307.56670	0.60128
1305.63813	0.60079
1303.70957	0.60013
1301.78101	0.59927
1299.85244	0.59828
1297.92388	0.59721
1295.99531	0.59607
1294.06675	0.59481
1292.13818	0.59338
1290.20962	0.59181
1288.28105	0.59036
1286.35249	0.58912
1284.42393	0.58785
1282.49536	0.58643
1280.56680	0.58493
1278.63823	0.58331
1276.70967	0.58165
1274.78110	0.58027
1272.85254	0.57933
1270.92397	0.57851
1268.99541	0.57763
1267.06685	0.57677
1265.13828	0.57578
1263.20972	0.57472
1261.28115	0.57385
1259.35259	0.57308
1257.42402	0.57225
1255.49546	0.57164
1253.56689	0.57149
1251.63833	0.57157
1249.70977	0.57157
1247.78120	0.57148
1245.85264	0.57127
1243.92407	0.57062
1241.99551	0.56938
1240.06694	0.56768
1238.13838	0.56564
1236.20981	0.56331
1234.28125	0.56079
1232.35269	0.55808
1230.42412	0.55537
1228.49556	0.55292
1226.56699	0.55059
1224.63843	0.54837
1222.70986	0.54645
1220.78130	0.54463
1218.85273	0.54269
1216.92417	0.54091
1214.99561	0.53962
1213.06704	0.53874
1211.13848	0.53802
1209.20991	0.53734
1207.28135	0.53668
1205.35278	0.53595
1203.42422	0.53492
1201.49565	0.53363
1199.56709	0.53248
1197.63853	0.53159
1195.70996	0.53066
1193.78140	0.52970
1191.85283	0.52898
1189.92427	0.52856
1187.99570	0.52814
1186.06714	0.52778
1184.13857	0.52784
1182.21001	0.52836
1180.28145	0.52933
1178.35288	0.53075
1176.42432	0.53227
1174.49575	0.53356
1172.56719	0.53462
1170.63862	0.53537
1168.71006	0.53561
1166.78149	0.53552
1164.85293	0.53560
1162.92437	0.53585
1160.99580	0.53579
1159.06724	0.53551
1157.13867	0.53518
1155.21011	0.53444
1153.28154	0.53306
1151.35298	0.53123
1149.42441	0.52898
1147.49585	0.52640
1145.56729	0.52381
1143.63872	0.52140
1141.71016	0.51907
1139.78159	0.51704
1137.85303	0.51570
1135.92446	0.51506
1133.99590	0.51488
1132.06733	0.51489
1130.13877	0.51505
1128.21021	0.51529
1126.28164	0.51537
1124.35308	0.51536
1122.42451	0.51532
1120.49595	0.51526
1118.56738	0.51537
1116.63882	0.51579
1114.71025	0.51644
1112.78169	0.51722
1110.85312	0.51801
1108.92456	0.51873
1106.99600	0.51952
1105.06743	0.52056
1103.13887	0.52170
1101.21030	0.52270
1099.28174	0.52376
1097.35317	0.52539
1095.42461	0.52778
1093.49604	0.53106
1091.56748	0.53570
1089.63892	0.54200
1087.71035	0.54985
1085.78179	0.55871
1083.85322	0.56749
1081.92466	0.57494
1079.99609	0.58034
1078.06753	0.58329
1076.13896	0.58287
1074.21040	0.57874
1072.28184	0.57227
1070.35327	0.56518
1068.42471	0.55808
1066.49614	0.55116
1064.56758	0.54506
1062.63901	0.53984
1060.71045	0.53499
1058.78188	0.53073
1056.85332	0.52713
1054.92476	0.52365
1052.99619	0.52036
1051.06763	0.51766
1049.13906	0.51568
1047.21050	0.51450
1045.28193	0.51399
1043.35337	0.51385
1041.42480	0.51406
1039.49624	0.51454
1037.56768	0.51495
1035.63911	0.51497
1033.71055	0.51447
1031.78198	0.51337
1029.85342	0.51155
1027.92485	0.50922
1025.99629	0.50694
1024.06772	0.50518
1022.13916	0.50404
1020.21060	0.50326
1018.28203	0.50274
1016.35347	0.50241
1014.42490	0.50213
1012.49634	0.50186
1010.56777	0.50154
1008.63921	0.50114
1006.71064	0.50100
1004.78208	0.50160
1002.85352	0.50301
1000.92495	0.50523
998.99639	0.50855
997.06782	0.51289
995.13926	0.51766
993.21069	0.52209
991.28213	0.52548
989.35356	0.52757
987.42500	0.52849
985.49644	0.52836
983.56787	0.52770
981.63931	0.52745
979.71074	0.52798
977.78218	0.52912
975.85361	0.53093
973.92505	0.53335
971.99648	0.53595
970.06792	0.53880
968.13936	0.54237
966.21079	0.54657
964.28223	0.55095
962.35366	0.55563
960.42510	0.56091
958.49653	0.56663
956.56797	0.57245
954.63940	0.57838
952.71084	0.58444
950.78228	0.59051
948.85371	0.59656
946.92515	0.60266
944.99658	0.60885
943.06802	0.61499
941.13945	0.62078
939.21089	0.62661
937.28232	0.63303
935.35376	0.63957
933.42520	0.64558
931.49663	0.65104
929.56807	0.65621
927.63950	0.66195
925.71094	0.66863
923.78237	0.67560
921.85381	0.68258
919.92524	0.68912
917.99668	0.69483
916.06812	0.70097
914.13955	0.70876
912.21099	0.71713
910.28242	0.72488
908.35386	0.73305
906.42529	0.74196
904.49673	0.75075
902.56816	0.75969
900.63960	0.76920
898.71104	0.77901
896.78247	0.78914
894.85391	0.80020
892.92534	0.81218
890.99678	0.82355
889.06821	0.83320
887.13965	0.84188
885.21108	0.85094
883.28252	0.86168
881.35396	0.87433
879.42539	0.88712
877.49683	0.89873
875.56826	0.91028
873.63970	0.92263
871.71113	0.93484
869.78257	0.94617
867.85400	0.95781
865.92544	0.97023
863.99687	0.98227
862.06831	0.99420
860.13975	1.00604
858.21118	1.01537
856.28262	1.02260
854.35405	1.03267
852.42549	1.04574
850.49692	1.05745
848.56836	1.06802
846.63979	1.08037
844.71123	1.09466
842.78267	1.10831
840.85410	1.12059
838.92554	1.13242
836.99697	1.14373
835.06841	1.15423
833.13984	1.16262
831.21128	1.16944
829.28271	1.17858
827.35415	1.18892
825.42559	1.19384
823.49702	1.19833
821.56846	1.21200
819.63989	1.22836
817.71133	1.23524
815.78276	1.23436
813.85420	1.23370
811.92563	1.23961
809.99707	1.25648
808.06851	1.27641
806.13994	1.29322
804.21138	1.30623
802.28281	1.31316
800.35425	1.31870
798.42568	1.32826
796.49712	1.34174
794.56855	1.32661
792.63999	1.26456
790.71143	1.21659
788.78286	1.23201
786.85430	1.28572
784.92573	1.30938
782.99717	1.29416
781.06860	1.27490
779.14004	1.26602
777.21147	1.26260
775.28291	1.24787
773.35435	1.23177
771.42578	1.25026
769.49722	1.26945
767.56865	1.23091
765.64009	1.20792
763.71152	1.21526
761.78296	1.17496
759.85439	1.10722
757.92583	1.07296
755.99727	1.08841
754.06870	1.12858
752.14014	1.16888
750.21157	1.20925
748.28301	1.23205
746.35444	1.18076
744.42588	1.03281
742.49731	0.90061
740.56875	0.81510
738.64019	0.75333
736.71162	0.71749
734.78306	0.68493
732.85449	0.67224
730.92593	0.70724
728.99736	0.63793
727.06880	0.30874
725.14023	-0.81200
723.21167	4.33927
721.28311	4.32770
719.35454	4.31613
717.42598	-0.62271
715.49741	-0.15670
713.56885	0.06289
711.64028	0.10495
709.71172	0.14236
707.78315	0.20378
705.85459	0.28114
703.92603	0.32239
701.99746	0.32102
700.06890	0.33514
698.14033	0.37329
696.21177	0.34983
694.28320	0.31191
692.35464	0.33987
690.42607	0.39739
688.49751	0.38198
686.56895	0.31937
684.64038	0.37545
682.71182	0.44867
680.78325	0.32269
678.85469	0.21211
676.92612	0.24261
674.99756	0.27712
673.06899	0.22617
671.14043	0.17559
669.21187	0.21691
667.28330	0.30385
665.35474	0.35937
663.42617	0.34663
661.49761	0.29127
659.56904	0.28914
657.64048	0.34551
655.71191	0.38689
653.78335	0.37983
651.85479	0.37407
649.92622	0.39747
647.99766	0.37322
646.06909	0.27950
644.14053	0.22973
642.21196	0.22904
640.28340	0.22409
638.35483	0.23783
636.42627	0.27468
634.49771	0.25814
632.56914	0.21912
630.64058	0.24405
628.71201	0.32234
626.78345	0.36881
624.85488	0.35336
622.92632	0.30044
620.99775	0.23097
619.06919	0.24006
617.14062	0.29934
615.21206	0.28900
613.28350	0.28318
611.35493	0.33562
609.42637	0.32746
607.49780	0.26743
605.56924	0.25653
603.64067	0.31072
601.71211	0.36800
599.78354	0.33017
597.85498	0.25636
595.92642	0.19028
593.99785	0.17479
592.06929	0.23782
590.14072	0.29533
588.21216	0.29571
586.28359	0.28574
584.35503	0.28243
582.42646	0.25404
580.49790	0.24425
578.56934	0.31419
576.64077	0.37426
574.71221	0.31133
572.78364	0.23855
570.85508	0.26388
568.92651	0.39213
566.99795	0.46749
565.06938	0.42665
563.14082	0.36992
561.21226	0.32131
559.28369	0.30554
557.35513	0.28902
555.42656	0.25614
553.49800	0.24554
551.56943	0.25322
549.64087	0.28317
547.71230	0.32225
545.78374	0.29014
543.85518	0.23241
541.92661	0.22265
539.99805	0.25456
538.06948	0.28412
536.14092	0.29952
534.21235	0.32800
532.28379	0.31568
530.35522	0.25910
528.42666	0.22279
526.49810	0.20034
524.56953	0.20648
522.64097	0.25638
520.71240	0.28711
518.78384	0.28565
516.85527	0.27638
514.92671	0.25320
512.99814	0.23942
511.06958	0.24470
509.14102	0.23780
507.21245	0.22665
505.28389	0.22602
503.35532	0.22311
501.42676	0.24262
499.49819	0.26321
