3997.91411	0.07888
3995.98555	0.07928
3994.05698	0.07895
3992.12842	0.07874
3990.19985	0.07880
3988.27129	0.07885
3986.34272	0.07908
3984.41416	0.07972
3982.48560	0.08055
3980.55703	0.08101
3978.62847	0.08099
3976.69990	0.08118
3974.77134	0.08172
3972.84277	0.08201
3970.91421	0.08193
3968.98564	0.08181
3967.05708	0.08174
3965.12852	0.08188
3963.19995	0.08251
3961.27139	0.08303
3959.34282	0.08272
3957.41426	0.08210
3955.48569	0.08182
3953.55713	0.08179
3951.62856	0.08194
3949.70000	0.08261
3947.77144	0.08342
3945.84287	0.08358
3943.91431	0.08350
3941.98574	0.08348
3940.05718	0.08295
3938.12861	0.08223
3936.20005	0.08212
3934.27148	0.08272
3932.34292	0.08361
3930.41436	0.08422
3928.48579	0.08414
3926.55723	0.08370
3924.62866	0.08347
3922.70010	0.08313
3920.77153	0.08252
3918.84297	0.08226
3916.91440	0.08261
3914.98584	0.08286
3913.05728	0.08238
3911.12871	0.08203
3909.20015	0.08215
3907.27158	0.08208
3905.34302	0.08210
3903.41445	0.08252
3901.48589	0.08290
3899.55732	0.08332
3897.62876	0.08378
3895.70020	0.08374
3893.77163	0.08344
3891.84307	0.08341
3889.91450	0.08338
3887.98594	0.08311
3886.05737	0.08344
3884.12881	0.08434
3882.20024	0.08475
3880.27168	0.08477
3878.34312	0.08429
3876.41455	0.08356
3874.48599	0.08376
3872.55742	0.08450
3870.62886	0.08520
3868.70029	0.08615
3866.77173	0.08623
3864.84316	0.08604
3862.91460	0.08642
3860.98604	0.08628
3859.05747	0.08593
3857.12891	0.08607
3855.20034	0.08679
3853.27178	0.08875
3851.34321	0.09059
3849.41465	0.08990
3847.48608	0.08901
3845.55752	0.08902
3843.62896	0.08977
3841.70039	0.09097
3839.77183	0.09208
3837.84326	0.09276
3835.91470	0.09325
3833.98613	0.09379
3832.05757	0.09416
3830.12900	0.09444
3828.20044	0.09501
3826.27187	0.09590
3824.34331	0.09650
3822.41475	0.09730
3820.48618	0.09965
3818.55762	0.10141
3816.62905	0.10121
3814.70049	0.10129
3812.77192	0.10163
3810.84336	0.10175
3808.91479	0.10234
3806.98623	0.10390
3805.05767	0.10596
3803.12910	0.10742
3801.20054	0.10872
3799.27197	0.11016
3797.34341	0.11118
3795.41484	0.11214
3793.48628	0.11271
3791.55771	0.11284
3789.62915	0.11313
3787.70059	0.11423
3785.77202	0.11627
3783.84346	0.11826
3781.91489	0.11971
3779.98633	0.12130
3778.05776	0.12298
3776.12920	0.12410
3774.20063	0.12505
3772.27207	0.12638
3770.34351	0.12838
3768.41494	0.13081
3766.48638	0.13308
3764.55781	0.13511
3762.62925	0.13663
3760.70068	0.13857
3758.77212	0.14179
3756.84355	0.14477
3754.91499	0.14637
3752.98643	0.14804
3751.05786	0.15188
3749.12930	0.15743
3747.20073	0.16047
3745.27217	0.16213
3743.34360	0.16498
3741.41504	0.16731
3739.48647	0.16876
3737.55791	0.17152
3735.62935	0.17672
3733.70078	0.18308
3731.77222	0.18760
3729.84365	0.19065
3727.91509	0.19382
3725.98652	0.19837
3724.05796	0.20476
3722.12939	0.21236
3720.20083	0.22032
3718.27227	0.22770
3716.34370	0.23484
3714.41514	0.24247
3712.48657	0.25198
3710.55801	0.26504
3708.62944	0.27819
3706.70088	0.28869
3704.77231	0.29922
3702.84375	0.31193
3700.91519	0.32838
3698.98662	0.34648
3697.05806	0.36399
3695.12949	0.38273
3693.20093	0.40248
3691.27236	0.42388
3689.34380	0.45194
3687.41523	0.48664
3685.48667	0.51674
3683.55811	0.54221
3681.62954	0.56965
3679.70098	0.60113
3677.77241	0.63439
3675.84385	0.67305
3673.91528	0.72478
3671.98672	0.76787
3670.05815	0.80652
3668.12959	0.85897
3666.20103	0.90663
3664.27246	0.94647
3662.34390	0.98923
3660.41533	1.03567
3658.48677	1.08215
3656.55820	1.13178
3654.62964	1.18590
3652.70107	1.23067
3650.77251	1.27030
3648.84395	1.32657
3646.91538	1.39513
3644.98682	1.44410
3643.05825	1.48177
3641.12969	1.52044
3639.20112	1.56246
3637.27256	1.60531
3635.34399	1.64824
3633.41543	1.69130
3631.48687	1.73114
3629.55830	1.77174
3627.62974	1.82552
3625.70117	1.87565
3623.77261	1.90921
3621.84404	1.94085
3619.91548	1.97780
3617.98691	2.02413
3616.05835	2.06872
3614.12979	2.10572
3612.20122	2.14498
3610.27266	2.18428
3608.34409	2.22298
3606.41553	2.26356
3604.48696	2.30210
3602.55840	2.33744
3600.62983	2.37479
3598.70127	2.41524
3596.77271	2.45619
3594.84414	2.49842
3592.91558	2.54094
3590.98701	2.57974
3589.05845	2.61598
3587.12988	2.65985
3585.20132	2.70772
3583.27275	2.74721
3581.34419	2.78407
3579.41562	2.82551
3577.48706	2.87015
3575.55850	2.91378
3573.62993	2.95652
3571.70137	2.99736
3569.77280	3.03640
3567.84424	3.07882
3565.91567	3.13244
3563.98711	3.18525
3562.05854	3.22672
3560.12998	3.26741
3558.20142	3.31233
3556.27285	3.35769
3554.34429	3.40047
3552.41572	3.44453
3550.48716	3.49236
3548.55859	3.54136
3546.63003	3.58815
3544.70146	3.63469
3542.77290	3.68337
3540.84434	3.73181
3538.91577	3.77968
3536.98721	3.82581
3535.05864	3.86952
3533.13008	3.91544
3531.20151	3.96873
3529.27295	4.02339
3527.34438	4.07165
3525.41582	4.11474
3523.48726	4.15818
3521.55869	4.20623
3519.63013	4.25651
3517.70156	4.30744
3515.77300	4.35809
3513.84443	4.40457
3511.91587	4.44963
3509.98730	4.50036
3508.05874	4.55537
3506.13018	4.60894
3504.20161	4.65684
3502.27305	4.69918
3500.34448	4.74376
3498.41592	4.79193
3496.48735	4.84106
3494.55879	4.89295
3492.63022	4.94217
3490.70166	4.98684
3488.77310	5.03701
3486.84453	5.09115
3484.91597	5.13939
3482.98740	5.18273
3481.05884	5.22999
3479.13027	5.28291
3477.20171	5.33118
3475.27314	5.37075
3473.34458	5.41087
3471.41602	5.45748
3469.48745	5.51047
3467.55889	5.56697
3465.63032	5.62217
3463.70176	5.67876
3461.77319	5.73254
3459.84463	5.77858
3457.91606	5.82613
3455.98750	5.88744
3454.05894	5.95102
3452.13037	5.99430
3450.20181	6.03105
3448.27324	6.08408
3446.34468	6.14994
3444.41611	6.20230
3442.48755	6.23712
3440.55898	6.27739
3438.63042	6.32932
3436.70186	6.38557
3434.77329	6.45082
3432.84473	6.51696
3430.91616	6.56620
3428.98760	6.61911
3427.05903	6.68181
3425.13047	6.73585
3423.20190	6.78192
3421.27334	6.83134
3419.34478	6.87773
3417.41621	6.92929
3415.48765	6.98936
3413.55908	7.02697
3411.63052	7.04862
3409.70195	7.06372
3407.77339	7.09528
3405.84482	7.16473
3403.91626	7.23915
3401.98770	7.28081
3400.05913	7.30676
3398.13057	7.35733
3396.20200	7.43591
3394.27344	7.51173
3392.34487	7.54265
3390.41631	7.55616
3388.48774	7.58307
3386.55918	7.63475
3384.63062	7.70472
3382.70205	7.73704
3380.77349	7.76235
3378.84492	7.83852
3376.91636	7.90048
3374.98779	7.90792
3373.05923	7.94271
3371.13066	7.98784
3369.20210	7.96008
3367.27354	7.90217
3365.34497	7.94683
3363.41641	8.10416
3361.48784	8.23645
3359.55928	8.28678
3357.63071	8.29025
3355.70215	8.25794
3353.77358	8.20493
3351.84502	8.21633
3349.91646	8.28479
3347.98789	8.31154
3346.05933	8.28830
3344.13076	8.29129
3342.20220	8.33355
3340.27363	8.32006
3338.34507	8.24211
3336.41650	8.18413
3334.48794	8.19975
3332.55937	8.26224
3330.63081	8.32156
3328.70225	8.32995
3326.77368	8.34427
3324.84512	8.40871
3322.91655	8.40612
3320.98799	8.36131
3319.05942	8.34966
3317.13086	8.36906
3315.20229	8.39784
3313.27373	8.42537
3311.34517	8.44044
3309.41660	8.40491
3307.48804	8.35710
3305.55947	8.36390
3303.63091	8.44957
3301.70234	8.52919
3299.77378	8.49187
3297.84521	8.40384
3295.91665	8.41757
3293.98809	8.52394
3292.05952	8.56710
3290.13096	8.52414
3288.20239	8.54576
3286.27383	8.66199
3284.34526	8.71648
3282.41670	8.74761
3280.48813	8.82513
3278.55957	8.78900
3276.63101	8.65956
3274.70244	8.58390
3272.77388	8.60980
3270.84531	8.72467
3268.91675	8.75869
3266.98818	8.60982
3265.05962	8.49142
3263.13105	8.51951
3261.20249	8.58473
3259.27393	8.60989
3257.34536	8.61088
3255.41680	8.51918
3253.48823	8.44091
3251.55967	8.55900
3249.63110	8.75697
3247.70254	8.82485
3245.77397	8.82267
3243.84541	8.83672
3241.91685	8.81522
3239.98828	8.77965
3238.05972	8.76487
3236.13115	8.75411
3234.20259	8.72661
3232.27402	8.64629
3230.34546	8.56823
3228.41689	8.57129
3226.48833	8.63265
3224.55977	8.62731
3222.63120	8.51342
3220.70264	8.41366
3218.77407	8.37385
3216.84551	8.35839
3214.91694	8.36399
3212.98838	8.32802
3211.05981	8.22877
3209.13125	8.15848
3207.20269	8.15572
3205.27412	8.18531
3203.34556	8.18845
3201.41699	8.15327
3199.48843	8.09807
3197.55986	8.09152
3195.63130	8.16790
3193.70273	8.17095
3191.77417	8.02640
3189.84561	7.88158
3187.91704	7.79853
3185.98848	7.74127
3184.05991	7.72021
3182.13135	7.71522
3180.20278	7.63964
3178.27422	7.54524
3176.34565	7.51731
3174.41709	7.47496
3172.48853	7.37043
3170.55996	7.30102
3168.63140	7.28989
3166.70283	7.25259
3164.77427	7.15945
3162.84570	7.04716
3160.91714	6.93716
3158.98857	6.84461
3157.06001	6.77050
3155.13145	6.70006
3153.20288	6.62640
3151.27432	6.55522
3149.34575	6.49215
3147.41719	6.43514
3145.48862	6.36721
3143.56006	6.27439
3141.63149	6.18598
3139.70293	6.12641
3137.77437	6.07022
3135.84580	5.98992
3133.91724	5.89648
3131.98867	5.81222
3130.06011	5.74305
3128.13154	5.68040
3126.20298	5.61669
3124.27441	5.55209
3122.34585	5.47993
3120.41729	5.39914
3118.48872	5.31895
3116.56016	5.24042
3114.63159	5.16117
3112.70303	5.08225
3110.77446	5.00690
3108.84590	4.93339
3106.91733	4.85852
3104.98877	4.78858
3103.06021	4.72812
3101.13164	4.66936
3099.20308	4.60360
3097.27451	4.53239
3095.34595	4.46058
3093.41738	4.38803
3091.48882	4.31709
3089.56025	4.25134
3087.63169	4.18703
3085.70312	4.12134
3083.77456	4.05634
3081.84600	3.99196
3079.91743	3.92701
3077.98887	3.86277
3076.06030	3.80046
3074.13174	3.74007
3072.20317	3.67988
3070.27461	3.61901
3068.34604	3.55952
3066.41748	3.50112
3064.48892	3.44302
3062.56035	3.38674
3060.63179	3.33300
3058.70322	3.27969
3056.77466	3.22456
3054.84609	3.16855
3052.91753	3.11359
3050.98896	3.06038
3049.06040	3.00837
3047.13184	2.95674
3045.20327	2.90526
3043.27471	2.85496
3041.34614	2.80689
3039.41758	2.76008
3037.48901	2.71313
3035.56045	2.66546
3033.63188	2.61829
3031.70332	2.57285
3029.77476	2.52789
3027.84619	2.48359
3025.91763	2.44092
3023.98906	2.39869
3022.06050	2.35629
3020.13193	2.31414
3018.20337	2.27284
3016.27480	2.23243
3014.34624	2.19235
3012.41768	2.15262
3010.48911	2.11349
3008.56055	2.07541
3006.63198	2.03852
3004.70342	2.00224
3002.77485	1.96632
3000.84629	1.93107
2998.91772	1.89677
2996.98916	1.86325
2995.06060	1.83025
2993.13203	1.79802
2991.20347	1.76609
2989.27490	1.73388
2987.34634	1.70232
2985.41777	1.67204
2983.48921	1.64238
2981.56064	1.61303
2979.63208	1.58432
2977.70352	1.55643
2975.77495	1.52900
2973.84639	1.50141
2971.91782	1.47388
2969.98926	1.44681
2968.06069	1.41998
2966.13213	1.39358
2964.20356	1.36798
2962.27500	1.34313
2960.34644	1.31884
2958.41787	1.29489
2956.48931	1.27141
2954.56074	1.24845
2952.63218	1.22555
2950.70361	1.20276
2948.77505	1.18055
2946.84648	1.15895
2944.91792	1.13790
2942.98936	1.11721
2941.06079	1.09633
2939.13223	1.07534
2937.20366	1.05518
2935.27510	1.03580
2933.34653	1.01618
2931.41797	0.99624
2929.48940	0.97684
2927.56084	0.95845
2925.63228	0.94065
2923.70371	0.92347
2921.77515	0.90732
2919.84658	0.89188
2917.91802	0.87643
2915.98945	0.86070
2914.06089	0.84526
2912.13232	0.83047
2910.20376	0.81605
2908.27520	0.80194
2906.34663	0.78814
2904.41807	0.77456
2902.48950	0.76103
2900.56094	0.74782
2898.63237	0.73518
2896.70381	0.72292
2894.77524	0.71108
2892.84668	0.69944
2890.91812	0.68756
2888.98955	0.67585
2887.06099	0.66461
2885.13242	0.65368
2883.20386	0.64302
2881.27529	0.63236
2879.34673	0.62149
2877.41816	0.61071
2875.48960	0.60033
2873.56104	0.59040
2871.63247	0.58048
2869.70391	0.57044
2867.77534	0.56074
2865.84678	0.55098
2863.91821	0.54076
2861.98965	0.53077
2860.06108	0.52116
2858.13252	0.51165
2856.20396	0.50267
2854.27539	0.49424
2852.34683	0.48608
2850.41826	0.47837
2848.48970	0.47110
2846.56113	0.46406
2844.63257	0.45730
2842.70400	0.45064
2840.77544	0.44395
2838.84687	0.43757
2836.91831	0.43163
2834.98975	0.42590
2833.06118	0.42011
2831.13262	0.41409
2829.20405	0.40803
2827.27549	0.40225
2825.34692	0.39665
2823.41836	0.39108
2821.48979	0.38546
2819.56123	0.37985
2817.63267	0.37437
2815.70410	0.36896
2813.77554	0.36339
2811.84697	0.35790
2809.91841	0.35290
2807.98984	0.34822
2806.06128	0.34328
2804.13271	0.33801
2802.20415	0.33290
2800.27559	0.32837
2798.34702	0.32421
2796.41846	0.31998
2794.48989	0.31552
2792.56133	0.31101
2790.63276	0.30671
2788.70420	0.30268
2786.77563	0.29858
2784.84707	0.29425
2782.91851	0.29009
2780.98994	0.28638
2779.06138	0.28287
2777.13281	0.27948
2775.20425	0.27623
2773.27568	0.27284
2771.34712	0.26931
2769.41855	0.26586
2767.48999	0.26249
2765.56143	0.25918
2763.63286	0.25588
2761.70430	0.25259
2759.77573	0.24944
2757.84717	0.24644
2755.91860	0.24361
2753.99004	0.24094
2752.06147	0.23825
2750.13291	0.23547
2748.20435	0.23273
2746.27578	0.23014
2744.34722	0.22771
2742.41865	0.22534
2740.49009	0.22291
2738.56152	0.22046
2736.63296	0.21807
2734.70439	0.21567
2732.77583	0.21345
2730.84727	0.21149
2728.91870	0.20948
2726.99014	0.20746
2725.06157	0.20553
2723.13301	0.20351
2721.20444	0.20141
2719.27588	0.19942
2717.34731	0.19750
2715.41875	0.19565
2713.49019	0.19394
2711.56162	0.19224
2709.63306	0.19067
2707.70449	0.18928
2705.77593	0.18781
2703.84736	0.18629
2701.91880	0.18491
2699.99023	0.18352
2698.06167	0.18198
2696.13311	0.18040
2694.20454	0.17894
2692.27598	0.17770
2690.34741	0.17660
2688.41885	0.17548
2686.49028	0.17434
2684.56172	0.17321
2682.63315	0.17203
2680.70459	0.17078
2678.77603	0.16955
2676.84746	0.16840
2674.91890	0.16741
2672.99033	0.16662
2671.06177	0.16586
2669.13320	0.16499
2667.20464	0.16414
2665.27607	0.16328
2663.34751	0.16239
2661.41895	0.16167
2659.49038	0.16105
2657.56182	0.16027
2655.63325	0.15943
2653.70469	0.15874
2651.77612	0.15815
2649.84756	0.15754
2647.91899	0.15696
2645.99043	0.15648
2644.06187	0.15601
2642.13330	0.15545
2640.20474	0.15490
2638.27617	0.15447
2636.34761	0.15416
2634.41904	0.15388
2632.49048	0.15359
2630.56191	0.15326
2628.63335	0.15287
2626.70479	0.15247
2624.77622	0.15222
2622.84766	0.15219
2620.91909	0.15209
2618.99053	0.15176
2617.06196	0.15146
2615.13340	0.15142
2613.20483	0.15144
2611.27627	0.15140
2609.34771	0.15135
2607.41914	0.15127
2605.49058	0.15118
2603.56201	0.15115
2601.63345	0.15123
2599.70488	0.15148
2597.77632	0.15176
2595.84775	0.15191
2593.91919	0.15181
2591.99062	0.15168
2590.06206	0.15185
2588.13350	0.15225
2586.20493	0.15264
2584.27637	0.15296
2582.34780	0.15318
2580.41924	0.15338
2578.49067	0.15364
2576.56211	0.15402
2574.63354	0.15445
2572.70498	0.15478
2570.77642	0.15516
2568.84785	0.15570
2566.91929	0.15623
2564.99072	0.15668
2563.06216	0.15713
2561.13359	0.15757
2559.20503	0.15796
2557.27646	0.15837
2555.34790	0.15891
2553.41934	0.15956
2551.49077	0.16023
2549.56221	0.16081
2547.63364	0.16138
2545.70508	0.16216
2543.77651	0.16297
2541.84795	0.16352
2539.91938	0.16394
2537.99082	0.16451
2536.06226	0.16527
2534.13369	0.16614
2532.20513	0.16712
2530.27656	0.16807
2528.34800	0.16874
2526.41943	0.16924
2524.49087	0.16983
2522.56230	0.17065
2520.63374	0.17163
2518.70518	0.17256
2516.77661	0.17333
2514.84805	0.17401
2512.91948	0.17477
2510.99092	0.17562
2509.06235	0.17646
2507.13379	0.17721
2505.20522	0.17791
2503.27666	0.17866
2501.34810	0.17951
2499.41953	0.18041
2497.49097	0.18131
2495.56240	0.18226
2493.63384	0.18318
2491.70527	0.18408
2489.77671	0.18500
2487.84814	0.18587
2485.91958	0.18677
2483.99102	0.18781
2482.06245	0.18883
2480.13389	0.18969
2478.20532	0.19048
2476.27676	0.19135
2474.34819	0.19230
2472.41963	0.19322
2470.49106	0.19417
2468.56250	0.19524
2466.63394	0.19637
2464.70537	0.19744
2462.77681	0.19844
2460.84824	0.19946
2458.91968	0.20041
2456.99111	0.20124
2455.06255	0.20207
2453.13398	0.20301
2451.20542	0.20406
2449.27686	0.20511
2447.34829	0.20617
2445.41973	0.20733
2443.49116	0.20846
2441.56260	0.20939
2439.63403	0.21029
2437.70547	0.21128
2435.77690	0.21237
2433.84834	0.21349
2431.91978	0.21455
2429.99121	0.21554
2428.06265	0.21646
2426.13408	0.21736
2424.20552	0.21856
2422.27695	0.22001
2420.34839	0.22131
2418.41982	0.22250
2416.49126	0.22380
2414.56270	0.22500
2412.63413	0.22601
2410.70557	0.22699
2408.77700	0.22809
2406.84844	0.22928
2404.91987	0.23048
2402.99131	0.23163
2401.06274	0.23270
2399.13418	0.23390
2397.20562	0.23522
2395.27705	0.23642
2393.34849	0.23762
2391.41992	0.23893
2389.49136	0.24011
2387.56279	0.24112
2385.63423	0.24199
2383.70566	0.24245
2381.77710	0.24224
2379.84854	0.24154
2377.91997	0.24081
2375.99141	0.23992
2374.06284	0.23821
2372.13428	0.23576
2370.20571	0.23352
2368.27715	0.23194
2366.34858	0.23062
2364.42002	0.22935
2362.49146	0.22923
2360.56289	0.22991
2358.63433	0.22993
2356.70576	0.23132
2354.77720	0.23625
2352.84863	0.24347
2350.92007	0.25009
2348.99150	0.25378
2347.06294	0.25429
2345.13437	0.25258
2343.20581	0.25110
2341.27725	0.25209
2339.34868	0.25416
2337.42012	0.25623
2335.49155	0.25849
2333.56299	0.26084
2331.63442	0.26352
2329.70586	0.26615
2327.77729	0.26843
2325.84873	0.27096
2323.92017	0.27403
2321.99160	0.27737
2320.06304	0.28077
2318.13447	0.28426
2316.20591	0.28751
2314.27734	0.29044
2312.34878	0.29317
2310.42021	0.29570
2308.49165	0.29822
2306.56309	0.30096
2304.63452	0.30375
2302.70596	0.30622
2300.77739	0.30848
2298.84883	0.31084
2296.92026	0.31328
2294.99170	0.31566
2293.06313	0.31794
2291.13457	0.32015
2289.20601	0.32244
2287.27744	0.32478
2285.34888	0.32705
2283.42031	0.32930
2281.49175	0.33147
2279.56318	0.33343
2277.63462	0.33526
2275.70605	0.33715
2273.77749	0.33914
2271.84893	0.34124
2269.92036	0.34342
2267.99180	0.34557
2266.06323	0.34770
2264.13467	0.34990
2262.20610	0.35211
2260.27754	0.35425
2258.34897	0.35645
2256.42041	0.35869
2254.49185	0.36090
2252.56328	0.36324
2250.63472	0.36566
2248.70615	0.36795
2246.77759	0.37014
2244.84902	0.37229
2242.92046	0.37442
2240.99189	0.37662
2239.06333	0.37893
2237.13477	0.38128
2235.20620	0.38351
2233.27764	0.38568
2231.34907	0.38796
2229.42051	0.39030
2227.49194	0.39249
2225.56338	0.39459
2223.63481	0.39682
2221.70625	0.39915
2219.77769	0.40137
2217.84912	0.40345
2215.92056	0.40557
2213.99199	0.40780
2212.06343	0.41006
2210.13486	0.41227
2208.20630	0.41445
2206.27773	0.41653
2204.34917	0.41849
2202.42061	0.42044
2200.49204	0.42242
2198.56348	0.42443
2196.63491	0.42640
2194.70635	0.42836
2192.77778	0.43035
2190.84922	0.43224
2188.92065	0.43404
2186.99209	0.43587
2185.06353	0.43771
2183.13496	0.43944
2181.20640	0.44109
2179.27783	0.44265
2177.34927	0.44412
2175.42070	0.44560
2173.49214	0.44713
2171.56357	0.44868
2169.63501	0.45015
2167.70645	0.45145
2165.77788	0.45274
2163.84932	0.45402
2161.92075	0.45504
2159.99219	0.45587
2158.06362	0.45679
2156.13506	0.45786
2154.20649	0.45888
2152.27793	0.45979
2150.34937	0.46065
2148.42080	0.46141
2146.49224	0.46195
2144.56367	0.46234
2142.63511	0.46262
2140.70654	0.46286
2138.77798	0.46316
2136.84941	0.46346
2134.92085	0.46359
2132.99229	0.46349
2131.06372	0.46318
2129.13516	0.46288
2127.20659	0.46267
2125.27803	0.46241
2123.34946	0.46205
2121.42090	0.46165
2119.49233	0.46109
2117.56377	0.46041
2115.63521	0.45970
2113.70664	0.45879
2111.77808	0.45766
2109.84951	0.45654
2107.92095	0.45551
2105.99238	0.45448
2104.06382	0.45338
2102.13525	0.45212
2100.20669	0.45072
2098.27812	0.44924
2096.34956	0.44778
2094.42100	0.44625
2092.49243	0.44455
2090.56387	0.44270
2088.63530	0.44077
2086.70674	0.43891
2084.77817	0.43716
2082.84961	0.43528
2080.92104	0.43326
2078.99248	0.43128
2077.06392	0.42927
2075.13535	0.42715
2073.20679	0.42502
2071.27822	0.42284
2069.34966	0.42057
2067.42109	0.41814
2065.49253	0.41560
2063.56396	0.41311
2061.63540	0.41068
2059.70684	0.40817
2057.77827	0.40559
2055.84971	0.40309
2053.92114	0.40059
2051.99258	0.39799
2050.06401	0.39535
2048.13545	0.39270
2046.20688	0.38995
2044.27832	0.38725
2042.34976	0.38465
2040.42119	0.38196
2038.49263	0.37908
2036.56406	0.37618
2034.63550	0.37342
2032.70693	0.37073
2030.77837	0.36793
2028.84980	0.36501
2026.92124	0.36209
2024.99268	0.35925
2023.06411	0.35655
2021.13555	0.35388
2019.20698	0.35123
2017.27842	0.34865
2015.34985	0.34599
2013.42129	0.34321
2011.49272	0.34042
2009.56416	0.33770
2007.63560	0.33494
2005.70703	0.33214
2003.77847	0.32944
2001.84990	0.32689
1999.92134	0.32424
1997.99277	0.32145
1996.06421	0.31879
1994.13564	0.31635
1992.20708	0.31395
1990.27852	0.31141
1988.34995	0.30883
1986.42139	0.30627
1984.49282	0.30383
1982.56426	0.30160
1980.63569	0.29941
1978.70713	0.29718
1976.77856	0.29494
1974.85000	0.29269
1972.92144	0.29042
1970.99287	0.28823
1969.06431	0.28615
1967.13574	0.28424
1965.20718	0.28237
1963.27861	0.28038
1961.35005	0.27829
1959.42148	0.27627
1957.49292	0.27443
1955.56436	0.27269
1953.63579	0.27093
1951.70723	0.26917
1949.77866	0.26757
1947.85010	0.26608
1945.92153	0.26460
1943.99297	0.26317
1942.06440	0.26181
1940.13584	0.26031
1938.20728	0.25870
1936.27871	0.25723
1934.35015	0.25599
1932.42158	0.25486
1930.49302	0.25370
1928.56445	0.25253
1926.63589	0.25139
1924.70732	0.25044
1922.77876	0.24961
1920.85020	0.24873
1918.92163	0.24787
1916.99307	0.24699
1915.06450	0.24594
1913.13594	0.24499
1911.20737	0.24439
1909.27881	0.24384
1907.35024	0.24309
1905.42168	0.24228
1903.49312	0.24156
1901.56455	0.24093
1899.63599	0.24034
1897.70742	0.23991
1895.77886	0.23969
1893.85029	0.23955
1891.92173	0.23930
1889.99316	0.23910
1888.06460	0.23883
1886.13604	0.23843
1884.20747	0.23811
1882.27891	0.23794
1880.35034	0.23787
1878.42178	0.23778
1876.49321	0.23773
1874.56465	0.23768
1872.63608	0.23778
1870.70752	0.23822
1868.77896	0.23897
1866.85039	0.23930
1864.92183	0.23907
1862.99326	0.23896
1861.06470	0.23922
1859.13613	0.23972
1857.20757	0.24009
1855.27900	0.24042
1853.35044	0.24084
1851.42187	0.24140
1849.49331	0.24199
1847.56475	0.24265
1845.63618	0.24352
1843.70762	0.24457
1841.77905	0.24536
1839.85049	0.24576
1837.92192	0.24649
1835.99336	0.24744
1834.06479	0.24833
1832.13623	0.24930
1830.20767	0.25081
1828.27910	0.25243
1826.35054	0.25350
1824.42197	0.25467
1822.49341	0.25591
1820.56484	0.25713
1818.63628	0.25845
1816.70771	0.26002
1814.77915	0.26164
1812.85059	0.26335
1810.92202	0.26536
1808.99346	0.26747
1807.06489	0.26943
1805.13633	0.27135
1803.20776	0.27364
1801.27920	0.27632
1799.35063	0.27932
1797.42207	0.28202
1795.49351	0.28442
1793.56494	0.28702
1791.63638	0.29046
1789.70781	0.29397
1787.77925	0.29668
1785.85068	0.29981
1783.92212	0.30354
1781.99355	0.30763
1780.06499	0.31193
1778.13643	0.31620
1776.20786	0.32018
1774.27930	0.32460
1772.35073	0.33064
1770.42217	0.33700
1768.49360	0.34218
1766.56504	0.34725
1764.63647	0.35257
1762.70791	0.35846
1760.77935	0.36598
1758.85078	0.37315
1756.92222	0.38035
1754.99365	0.38813
1753.06509	0.39520
1751.13652	0.40362
1749.20796	0.41422
1747.27939	0.42471
1745.35083	0.43401
1743.42227	0.44382
1741.49370	0.45460
1739.56514	0.46726
1737.63657	0.47988
1735.70801	0.49104
1733.77944	0.50797
1731.85088	0.52792
1729.92231	0.54345
1727.99375	0.55925
1726.06519	0.57615
1724.13662	0.59450
1722.20806	0.61449
1720.27949	0.63311
1718.35093	0.65474
1716.42236	0.68651
1714.49380	0.71684
1712.56523	0.74158
1710.63667	0.76563
1708.70811	0.79129
1706.77954	0.82017
1704.85098	0.85484
1702.92241	0.88609
1700.99385	0.91696
1699.06528	0.96226
1697.13672	1.00339
1695.20815	1.04562
1693.27959	1.08676
1691.35103	1.11956
1689.42246	1.15690
1687.49390	1.19601
1685.56533	1.23386
1683.63677	1.29262
1681.70820	1.35318
1679.77964	1.39175
1677.85107	1.42874
1675.92251	1.47177
1673.99395	1.52443
1672.06538	1.56998
1670.13682	1.61413
1668.20825	1.67152
1666.27969	1.71753
1664.35112	1.75621
1662.42256	1.80407
1660.49399	1.85670
1658.56543	1.89764
1656.63687	1.93177
1654.70830	1.96505
1652.77974	2.01840
1650.85117	2.06821
1648.92261	2.08838
1646.99404	2.11578
1645.06548	2.14766
1643.13691	2.16850
1641.20835	2.18034
1639.27979	2.19111
1637.35122	2.19950
1635.42266	2.20124
1633.49409	2.19449
1631.56553	2.18282
1629.63696	2.16763
1627.70840	2.14134
1625.77983	2.11153
1623.85127	2.07613
1621.92271	2.03165
1619.99414	1.99025
1618.06558	1.94922
1616.13701	1.89059
1614.20845	1.82993
1612.27988	1.78375
1610.35132	1.73639
1608.42275	1.68465
1606.49419	1.63244
1604.56562	1.58402
1602.63706	1.53786
1600.70850	1.49259
1598.77993	1.44991
1596.85137	1.40934
1594.92280	1.37015
1592.99424	1.33231
1591.06567	1.29745
1589.13711	1.26461
1587.20854	1.23368
1585.27998	1.20479
1583.35142	1.17763
1581.42285	1.15267
1579.49429	1.13103
1577.56572	1.11103
1575.63716	1.08583
1573.70859	1.06304
1571.78003	1.04805
1569.85146	1.03238
1567.92290	1.01447
1565.99434	0.99979
1564.06577	0.98697
1562.13721	0.97620
1560.20864	0.96738
1558.28008	0.95363
1556.35151	0.94161
1554.42295	0.93385
1552.49438	0.92554
1550.56582	0.91689
1548.63726	0.90777
1546.70869	0.89931
1544.78013	0.89107
1542.85156	0.88205
1540.92300	0.87091
1538.99443	0.85467
1537.06587	0.84227
1535.13730	0.83394
1533.20874	0.82387
1531.28018	0.81324
1529.35161	0.80530
1527.42305	0.79779
1525.49448	0.78988
1523.56592	0.78272
1521.63735	0.77546
1519.70879	0.76766
1517.78022	0.76090
1515.85166	0.75362
1513.92310	0.74639
1511.99453	0.74065
1510.06597	0.73592
1508.13740	0.73159
1506.20884	0.72389
1504.28027	0.71596
1502.35171	0.71148
1500.42314	0.70797
1498.49458	0.70432
1496.56602	0.69988
1494.63745	0.69537
1492.70889	0.69192
1490.78032	0.68910
1488.85176	0.68559
1486.92319	0.68160
1484.99463	0.67812
1483.06606	0.67530
1481.13750	0.67286
1479.20894	0.67059
1477.28037	0.66874
1475.35181	0.66726
1473.42324	0.66578
1471.49468	0.66333
1469.56611	0.66038
1467.63755	0.65783
1465.70898	0.65560
1463.78042	0.65339
1461.85186	0.65144
1459.92329	0.65021
1457.99473	0.64935
1456.06616	0.64728
1454.13760	0.64434
1452.20903	0.64198
1450.28047	0.63995
1448.35190	0.63792
1446.42334	0.63549
1444.49478	0.63304
1442.56621	0.63102
1440.63765	0.62933
1438.70908	0.62779
1436.78052	0.62598
1434.85195	0.62385
1432.92339	0.62191
1430.99482	0.62032
1429.06626	0.61887
1427.13770	0.61760
1425.20913	0.61666
1423.28057	0.61590
1421.35200	0.61511
1419.42344	0.61436
1417.49487	0.61336
1415.56631	0.61172
1413.63774	0.61000
1411.70918	0.60854
1409.78062	0.60745
1407.85205	0.60678
1405.92349	0.60634
1403.99492	0.60552
1402.06636	0.60425
1400.13779	0.60307
1398.20923	0.60192
1396.28066	0.60046
1394.35210	0.59845
1392.42354	0.59618
1390.49497	0.59418
1388.56641	0.59239
1386.63784	0.59023
1384.70928	0.58778
1382.78071	0.58569
1380.85215	0.58407
1378.92358	0.58263
1376.99502	0.58137
1375.06646	0.58049
1373.13789	0.57960
1371.20933	0.57852
1369.28076	0.57755
1367.35220	0.57659
1365.42363	0.57553
1363.49507	0.57446
1361.56650	0.57330
1359.63794	0.57207
1357.70937	0.57098
1355.78081	0.57006
1353.85225	0.56924
1351.92368	0.56839
1349.99512	0.56740
1348.06655	0.56630
1346.13799	0.56526
1344.20942	0.56431
1342.28086	0.56351
1340.35229	0.56290
1338.42373	0.56212
1336.49517	0.56108
1334.56660	0.56019
1332.63804	0.55948
1330.70947	0.55884
1328.78091	0.55824
1326.85234	0.55766
1324.92378	0.55715
1322.99521	0.55673
1321.06665	0.55634
1319.13809	0.55598
1317.20952	0.55557
1315.28096	0.55507
1313.35239	0.55437
1311.42383	0.55346
1309.49526	0.55261
1307.56670	0.55188
1305.63813	0.55097
1303.70957	0.54997
1301.78101	0.54919
1299.85244	0.54840
1297.92388	0.54755
1295.99531	0.54682
1294.06675	0.54608
1292.13818	0.54525
1290.20962	0.54449
1288.28105	0.54385
1286.35249	0.54310
1284.42393	0.54225
1282.49536	0.54158
1280.56680	0.54110
1278.63823	0.54056
1276.70967	0.53989
1274.78110	0.53912
1272.85254	0.53838
1270.92397	0.53777
1268.99541	0.53717
1267.06685	0.53661
1265.13828	0.53621
1263.20972	0.53580
1261.28115	0.53522
1259.35259	0.53460
1257.42402	0.53408
1255.49546	0.53367
1253.56689	0.53344
1251.63833	0.53340
1249.70977	0.53337
1247.78120	0.53330
1245.85264	0.53313
1243.92407	0.53268
1241.99551	0.53195
1240.06694	0.53112
1238.13838	0.53029
1236.20981	0.52953
1234.28125	0.52878
1232.35269	0.52793
1230.42412	0.52690
1228.49556	0.52565
1226.56699	0.52442
1224.63843	0.52346
1222.70986	0.52268
1220.78130	0.52185
1218.85273	0.52093
1216.92417	0.51999
1214.99561	0.51916
1213.06704	0.51848
1211.13848	0.51790
1209.20991	0.51738
1207.28135	0.51681
1205.35278	0.51611
1203.42422	0.51542
1201.49565	0.51495
1199.56709	0.51453
1197.63853	0.51387
1195.70996	0.51308
1193.78140	0.51245
1191.85283	0.51199
1189.92427	0.51150
1187.99570	0.51104
1186.06714	0.51075
1184.13857	0.51059
1182.21001	0.51063
1180.28145	0.51094
1178.35288	0.51135
1176.42432	0.51176
1174.49575	0.51230
1172.56719	0.51294
1170.63862	0.51353
1168.71006	0.51412
1166.78149	0.51477
1164.85293	0.51541
1162.92437	0.51585
1160.99580	0.51600
1159.06724	0.51582
1157.13867	0.51536
1155.21011	0.51474
1153.28154	0.51390
1151.35298	0.51259
1149.42441	0.51080
1147.49585	0.50871
1145.56729	0.50644
1143.63872	0.50396
1141.71016	0.50142
1139.78159	0.49926
1137.85303	0.49744
1135.92446	0.49580
1133.99590	0.49440
1132.06733	0.49317
1130.13877	0.49217
1128.21021	0.49143
1126.28164	0.49057
1124.35308	0.48948
1122.42451	0.48854
1120.49595	0.48799
1118.56738	0.48770
1116.63882	0.48761
1114.71025	0.48771
1112.78169	0.48808
1110.85312	0.48847
1108.92456	0.48875
1106.99600	0.48956
1105.06743	0.49107
1103.13887	0.49275
1101.21030	0.49443
1099.28174	0.49616
1097.35317	0.49818
1095.42461	0.50073
1093.49604	0.50402
1091.56748	0.50838
1089.63892	0.51385
1087.71035	0.52028
1085.78179	0.52752
1083.85322	0.53510
1081.92466	0.54210
1079.99609	0.54766
1078.06753	0.55134
1076.13896	0.55239
1074.21040	0.55026
1072.28184	0.54551
1070.35327	0.53922
1068.42471	0.53231
1066.49614	0.52560
1064.56758	0.51953
1062.63901	0.51404
1060.71045	0.50916
1058.78188	0.50482
1056.85332	0.50084
1054.92476	0.49746
1052.99619	0.49475
1051.06763	0.49226
1049.13906	0.49012
1047.21050	0.48876
1045.28193	0.48801
1043.35337	0.48749
1041.42480	0.48717
1039.49624	0.48698
1037.56768	0.48669
1035.63911	0.48625
1033.71055	0.48582
1031.78198	0.48546
1029.85342	0.48512
1027.92485	0.48469
1025.99629	0.48417
1024.06772	0.48381
1022.13916	0.48371
1020.21060	0.48386
1018.28203	0.48429
1016.35347	0.48483
1014.42490	0.48543
1012.49634	0.48617
1010.56777	0.48700
1008.63921	0.48797
1006.71064	0.48925
1004.78208	0.49096
1002.85352	0.49297
1000.92495	0.49538
998.99639	0.49864
997.06782	0.50263
995.13926	0.50673
993.21069	0.51061
991.28213	0.51399
989.35356	0.51652
987.42500	0.51790
985.49644	0.51818
983.56787	0.51814
981.63931	0.51858
979.71074	0.51967
977.78218	0.52140
975.85361	0.52388
973.92505	0.52692
971.99648	0.53010
970.06792	0.53345
968.13936	0.53737
966.21079	0.54184
964.28223	0.54646
962.35366	0.55111
960.42510	0.55603
958.49653	0.56141
956.56797	0.56712
954.63940	0.57307
952.71084	0.57933
950.78228	0.58591
948.85371	0.59251
946.92515	0.59904
944.99658	0.60556
943.06802	0.61184
941.13945	0.61763
939.21089	0.62296
937.28232	0.62848
935.35376	0.63453
933.42520	0.64070
931.49663	0.64679
929.56807	0.65263
927.63950	0.65834
925.71094	0.66437
923.78237	0.67051
921.85381	0.67700
919.92524	0.68432
917.99668	0.69186
916.06812	0.69938
914.13955	0.70728
912.21099	0.71529
910.28242	0.72351
908.35386	0.73215
906.42529	0.74050
904.49673	0.74857
902.56816	0.75664
900.63960	0.76545
898.71104	0.77615
896.78247	0.78719
894.85391	0.79716
892.92534	0.80723
890.99678	0.81814
889.06821	0.83018
887.13965	0.84190
885.21108	0.85173
883.28252	0.86169
881.35396	0.87342
879.42539	0.88594
877.49683	0.89880
875.56826	0.91281
873.63970	0.92582
871.71113	0.93567
869.78257	0.94550
867.85400	0.95705
865.92544	0.96821
863.99687	0.97893
862.06831	0.99087
860.13975	1.00373
858.21118	1.01662
856.28262	1.02868
854.35405	1.03886
852.42549	1.04782
850.49692	1.05760
848.56836	1.07090
846.63979	1.08619
844.71123	1.09774
842.78267	1.10639
840.85410	1.11693
838.92554	1.12990
836.99697	1.14477
835.06841	1.15889
833.13984	1.16971
831.21128	1.18068
829.28271	1.19400
827.35415	1.21029
825.42559	1.22933
823.49702	1.24281
821.56846	1.24982
819.63989	1.26226
817.71133	1.28030
815.78276	1.30015
813.85420	1.32335
811.92563	1.34468
809.99707	1.36305
808.06851	1.38265
806.13994	1.40733
804.21138	1.43147
802.28281	1.44258
800.35425	1.45064
798.42568	1.46225
796.49712	1.46237
794.56855	1.46115
792.63999	1.53103
790.71143	1.72665
788.78286	1.87882
786.85430	1.83231
784.92573	1.88533
782.99717	1.86331
781.06860	1.63405
779.14004	1.51198
777.21147	1.48384
775.28291	1.44079
773.35435	1.35511
771.42578	1.31631
769.49722	1.33424
767.56865	1.36417
765.64009	1.38279
763.71152	1.40634
761.78296	1.41708
759.85439	1.33339
757.92583	1.21648
755.99727	1.15964
754.06870	1.12563
752.14014	1.10102
750.21157	1.14591
748.28301	1.23289
746.35444	1.24833
744.42588	1.14060
742.49731	0.99719
740.56875	0.91560
738.64019	0.92662
736.71162	1.04467
734.78306	1.03747
732.85449	0.75264
730.92593	0.52072
728.99736	0.38033
727.06880	0.28808
725.14023	0.22905
723.21167	0.24453
721.28311	0.29931
719.35454	0.33350
717.42598	0.32935
715.49741	0.29960
713.56885	0.31407
711.64028	0.39752
709.71172	0.47888
707.78315	0.45941
705.85459	0.41982
703.92603	0.43113
701.99746	0.41270
700.06890	0.33466
698.14033	0.29535
696.21177	0.31284
694.28320	0.33488
692.35464	0.34743
690.42607	0.41322
688.49751	0.55634
686.56895	0.70649
684.64038	0.66076
682.71182	0.53128
680.78325	0.45547
678.85469	0.40238
676.92612	0.37103
674.99756	0.37428
673.06899	0.37942
671.14043	0.35053
669.21187	0.32754
667.28330	0.31838
665.35474	0.29754
663.42617	0.28597
661.49761	0.30081
659.56904	0.33304
657.64048	0.32353
655.71191	0.26464
653.78335	0.23794
651.85479	0.23298
649.92622	0.20926
647.99766	0.20149
646.06909	0.24915
644.14053	0.32662
642.21196	0.36787
640.28340	0.36567
638.35483	0.38527
636.42627	0.45391
634.49771	0.50747
632.56914	0.48772
630.64058	0.42725
628.71201	0.39256
626.78345	0.39909
624.85488	0.40891
622.92632	0.40133
620.99775	0.39723
619.06919	0.38747
617.14062	0.38234
615.21206	0.40514
613.28350	0.39748
611.35493	0.39395
609.42637	0.48763
607.49780	0.54374
605.56924	0.42142
603.64067	0.32644
601.71211	0.29485
599.78354	0.25774
597.85498	0.23602
595.92642	0.25969
593.99785	0.26934
592.06929	0.24566
590.14072	0.24758
588.21216	0.31182
586.28359	0.36197
584.35503	0.34202
582.42646	0.33583
580.49790	0.36089
578.56934	0.34258
576.64077	0.31610
574.71221	0.33353
572.78364	0.33354
570.85508	0.28938
568.92651	0.26638
566.99795	0.28064
565.06938	0.28852
563.14082	0.27053
561.21226	0.28217
559.28369	0.33525
557.35513	0.31007
555.42656	0.21562
553.49800	0.16446
551.56943	0.17835
549.64087	0.23426
547.71230	0.26862
545.78374	0.24586
543.85518	0.18258
541.92661	0.12938
539.99805	0.13902
538.06948	0.18207
536.14092	0.19434
534.21235	0.20724
532.28379	0.24083
530.35522	0.25607
528.42666	0.28239
526.49810	0.38284
524.56953	0.50382
522.64097	0.44246
520.71240	0.30831
518.78384	0.22703
516.85527	0.20285
514.92671	0.19428
512.99814	0.17372
511.06958	0.18584
509.14102	0.26586
507.21245	0.33055
505.28389	0.28822
503.35532	0.25367
501.42676	0.24701
499.49819	0.24823
