3997.91411	0.06031
3995.98555	0.05992
3994.05698	0.06046
3992.12842	0.06102
3990.19985	0.06121
3988.27129	0.06146
3986.34272	0.06190
3984.41416	0.06245
3982.48560	0.06294
3980.55703	0.06326
3978.62847	0.06338
3976.69990	0.06346
3974.77134	0.06371
3972.84277	0.06381
3970.91421	0.06364
3968.98564	0.06371
3967.05708	0.06413
3965.12852	0.06457
3963.19995	0.06474
3961.27139	0.06470
3959.34282	0.06477
3957.41426	0.06505
3955.48569	0.06539
3953.55713	0.06559
3951.62856	0.06554
3949.70000	0.06572
3947.77144	0.06613
3945.84287	0.06577
3943.91431	0.06488
3941.98574	0.06472
3940.05718	0.06518
3938.12861	0.06525
3936.20005	0.06494
3934.27148	0.06502
3932.34292	0.06570
3930.41436	0.06612
3928.48579	0.06581
3926.55723	0.06547
3924.62866	0.06533
3922.70010	0.06498
3920.77153	0.06455
3918.84297	0.06461
3916.91440	0.06519
3914.98584	0.06550
3913.05728	0.06488
3911.12871	0.06417
3909.20015	0.06410
3907.27158	0.06427
3905.34302	0.06446
3903.41445	0.06475
3901.48589	0.06474
3899.55732	0.06455
3897.62876	0.06462
3895.70020	0.06455
3893.77163	0.06433
3891.84307	0.06438
3889.91450	0.06453
3887.98594	0.06438
3886.05737	0.06443
3884.12881	0.06499
3882.20024	0.06569
3880.27168	0.06619
3878.34312	0.06600
3876.41455	0.06542
3874.48599	0.06538
3872.55742	0.06569
3870.62886	0.06595
3868.70029	0.06657
3866.77173	0.06694
3864.84316	0.06695
3862.91460	0.06747
3860.98604	0.06802
3859.05747	0.06798
3857.12891	0.06804
3855.20034	0.06840
3853.27178	0.06861
3851.34321	0.06954
3849.41465	0.07063
3847.48608	0.07083
3845.55752	0.07090
3843.62896	0.07166
3841.70039	0.07295
3839.77183	0.07382
3837.84326	0.07433
3835.91470	0.07503
3833.98613	0.07543
3832.05757	0.07533
3830.12900	0.07538
3828.20044	0.07588
3826.27187	0.07667
3824.34331	0.07756
3822.41475	0.07844
3820.48618	0.07983
3818.55762	0.08130
3816.62905	0.08223
3814.70049	0.08328
3812.77192	0.08387
3810.84336	0.08377
3808.91479	0.08396
3806.98623	0.08518
3805.05767	0.08685
3803.12910	0.08825
3801.20054	0.09008
3799.27197	0.09173
3797.34341	0.09235
3795.41484	0.09328
3793.48628	0.09436
3791.55771	0.09499
3789.62915	0.09575
3787.70059	0.09693
3785.77202	0.09841
3783.84346	0.09990
3781.91489	0.10136
3779.98633	0.10330
3778.05776	0.10547
3776.12920	0.10680
3774.20063	0.10788
3772.27207	0.10935
3770.34351	0.11115
3768.41494	0.11322
3766.48638	0.11507
3764.55781	0.11689
3762.62925	0.11866
3760.70068	0.12040
3758.77212	0.12297
3756.84355	0.12599
3754.91499	0.12805
3752.98643	0.12978
3751.05786	0.13259
3749.12930	0.13641
3747.20073	0.13907
3745.27217	0.14111
3743.34360	0.14499
3741.41504	0.14972
3739.48647	0.15288
3737.55791	0.15543
3735.62935	0.15909
3733.70078	0.16444
3731.77222	0.16962
3729.84365	0.17373
3727.91509	0.17732
3725.98652	0.18183
3724.05796	0.18819
3722.12939	0.19551
3720.20083	0.20295
3718.27227	0.21022
3716.34370	0.21727
3714.41514	0.22432
3712.48657	0.23279
3710.55801	0.24503
3708.62944	0.25916
3706.70088	0.27130
3704.77231	0.28262
3702.84375	0.29541
3700.91519	0.31175
3698.98662	0.32999
3697.05806	0.34746
3695.12949	0.36592
3693.20093	0.38541
3691.27236	0.40610
3689.34380	0.43257
3687.41523	0.46582
3685.48667	0.49617
3683.55811	0.52264
3681.62954	0.55035
3679.70098	0.58133
3677.77241	0.61401
3675.84385	0.65226
3673.91528	0.70371
3671.98672	0.74641
3670.05815	0.78439
3668.12959	0.83661
3666.20103	0.88479
3664.27246	0.92498
3662.34390	0.96783
3660.41533	1.01413
3658.48677	1.05968
3656.55820	1.10765
3654.62964	1.16120
3652.70107	1.20706
3650.77251	1.24691
3648.84395	1.30002
3646.91538	1.36584
3644.98682	1.41662
3643.05825	1.45612
3641.12969	1.49589
3639.20112	1.53925
3637.27256	1.58250
3635.34399	1.62477
3633.41543	1.66759
3631.48687	1.70779
3629.55830	1.74795
3627.62974	1.79925
3625.70117	1.84808
3623.77261	1.88304
3621.84404	1.91602
3619.91548	1.95226
3617.98691	1.99695
3616.05835	2.04136
3614.12979	2.07775
3612.20122	2.11510
3610.27266	2.15336
3608.34409	2.19326
3606.41553	2.23665
3604.48696	2.27624
3602.55840	2.31090
3600.62983	2.34905
3598.70127	2.39117
3596.77271	2.43098
3594.84414	2.46962
3592.91558	2.51050
3590.98701	2.55036
3589.05845	2.58721
3587.12988	2.63036
3585.20132	2.67748
3583.27275	2.71736
3581.34419	2.75551
3579.41562	2.79742
3577.48706	2.84010
3575.55850	2.88108
3573.62993	2.92315
3571.70137	2.96506
3569.77280	3.00502
3567.84424	3.04592
3565.91567	3.09521
3563.98711	3.14517
3562.05854	3.18748
3560.12998	3.23009
3558.20142	3.27662
3556.27285	3.32434
3554.34429	3.36909
3552.41572	3.41175
3550.48716	3.45463
3548.55859	3.49848
3546.63003	3.54367
3544.70146	3.59394
3542.77290	3.64625
3540.84434	3.69316
3538.91577	3.73793
3536.98721	3.78461
3535.05864	3.83590
3533.13008	3.88939
3531.20151	3.93863
3529.27295	3.98273
3527.34438	4.02623
3525.41582	4.06983
3523.48726	4.11482
3521.55869	4.16534
3519.63013	4.21749
3517.70156	4.26656
3515.77300	4.31240
3513.84443	4.35848
3511.91587	4.40678
3509.98730	4.45656
3508.05874	4.50494
3506.13018	4.54995
3504.20161	4.59576
3502.27305	4.64507
3500.34448	4.69307
3498.41592	4.73661
3496.48735	4.78192
3494.55879	4.83488
3492.63022	4.89076
3490.70166	4.94061
3488.77310	4.98953
3486.84453	5.04367
3484.91597	5.09538
3482.98740	5.13924
3481.05884	5.17708
3479.13027	5.21753
3477.20171	5.26572
3475.27314	5.31588
3473.34458	5.36948
3471.41602	5.42787
3469.48745	5.47804
3467.55889	5.51623
3465.63032	5.55437
3463.70176	5.59936
3461.77319	5.65030
3459.84463	5.70472
3457.91606	5.76488
3455.98750	5.83288
3454.05894	5.88993
3452.13037	5.92876
3450.20181	5.96800
3448.27324	6.01888
3446.34468	6.07846
3444.41611	6.13279
3442.48755	6.18084
3440.55898	6.22023
3438.63042	6.25237
3436.70186	6.29358
3434.77329	6.35611
3432.84473	6.42690
3430.91616	6.46794
3428.98760	6.49505
3427.05903	6.55967
3425.13047	6.64729
3423.20190	6.68664
3421.27334	6.68794
3419.34478	6.73439
3417.41621	6.83326
3415.48765	6.91123
3413.55908	6.94014
3411.63052	6.96417
3409.70195	7.01541
3407.77339	7.09643
3405.84482	7.18140
3403.91626	7.24925
3401.98770	7.28080
3400.05913	7.28905
3398.13057	7.30803
3396.20200	7.34105
3394.27344	7.37128
3392.34487	7.38472
3390.41631	7.42853
3388.48774	7.49912
3386.55918	7.56198
3384.63062	7.59876
3382.70205	7.58783
3380.77349	7.56318
3378.84492	7.56210
3376.91636	7.60196
3374.98779	7.68345
3373.05923	7.80077
3371.13066	7.89046
3369.20210	7.89439
3367.27354	7.86243
3365.34497	7.86793
3363.41641	7.91036
3361.48784	7.94666
3359.55928	7.98055
3357.63071	8.05483
3355.70215	8.13161
3353.77358	8.13667
3351.84502	8.16272
3349.91646	8.19081
3347.98789	8.15968
3346.05933	8.14322
3344.13076	8.13319
3342.20220	8.10956
3340.27363	8.08679
3338.34507	8.06375
3336.41650	8.02250
3334.48794	8.00256
3332.55937	7.98686
3330.63081	7.93303
3328.70225	7.92629
3326.77368	8.04641
3324.84512	8.23028
3322.91655	8.28536
3320.98799	8.18524
3319.05942	8.09718
3317.13086	8.12951
3315.20229	8.23393
3313.27373	8.29801
3311.34517	8.29717
3309.41660	8.24812
3307.48804	8.16507
3305.55947	8.12858
3303.63091	8.19312
3301.70234	8.27297
3299.77378	8.26718
3297.84521	8.16160
3295.91665	8.06936
3293.98809	8.04622
3292.05952	8.08010
3290.13096	8.20757
3288.20239	8.31360
3286.27383	8.27199
3284.34526	8.17615
3282.41670	8.14012
3280.48813	8.20725
3278.55957	8.28002
3276.63101	8.25553
3274.70244	8.26387
3272.77388	8.35621
3270.84531	8.38201
3268.91675	8.32771
3266.98818	8.25486
3265.05962	8.19453
3263.13105	8.21216
3261.20249	8.24431
3259.27393	8.18777
3257.34536	8.15688
3255.41680	8.22211
3253.48823	8.30082
3251.55967	8.35218
3249.63110	8.37527
3247.70254	8.36150
3245.77397	8.28845
3243.84541	8.17488
3241.91685	8.16765
3239.98828	8.31098
3238.05972	8.36515
3236.13115	8.21180
3234.20259	8.07802
3232.27402	8.09177
3230.34546	8.17765
3228.41689	8.23685
3226.48833	8.28345
3224.55977	8.35612
3222.63120	8.42297
3220.70264	8.38062
3218.77407	8.26655
3216.84551	8.20853
3214.91694	8.22026
3212.98838	8.22810
3211.05981	8.13013
3209.13125	7.97138
3207.20269	7.88901
3205.27412	7.90255
3203.34556	7.93419
3201.41699	7.91956
3199.48843	7.86913
3197.55986	7.80057
3195.63130	7.69864
3193.70273	7.62352
3191.77417	7.59524
3189.84561	7.55856
3187.91704	7.54588
3185.98848	7.55772
3184.05991	7.51838
3182.13135	7.43224
3180.20278	7.36602
3178.27422	7.33969
3176.34565	7.30812
3174.41709	7.26520
3172.48853	7.22422
3170.55996	7.15273
3168.63140	7.05597
3166.70283	6.97033
3164.77427	6.91318
3162.84570	6.87373
3160.91714	6.83076
3158.98857	6.76902
3157.06001	6.67573
3155.13145	6.58169
3153.20288	6.51417
3151.27432	6.45942
3149.34575	6.40929
3147.41719	6.34362
3145.48862	6.25130
3143.56006	6.16811
3141.63149	6.10400
3139.70293	6.03802
3137.77437	5.96938
3135.84580	5.89800
3133.91724	5.82549
3131.98867	5.75636
3130.06011	5.68904
3128.13154	5.62441
3126.20298	5.55912
3124.27441	5.48552
3122.34585	5.40652
3120.41729	5.33419
3118.48872	5.26391
3116.56016	5.18311
3114.63159	5.09951
3112.70303	5.02925
3110.77446	4.96883
3108.84590	4.90291
3106.91733	4.82878
3104.98877	4.75455
3103.06021	4.68450
3101.13164	4.61539
3099.20308	4.54798
3097.27451	4.48190
3095.34595	4.41261
3093.41738	4.34406
3091.48882	4.28054
3089.56025	4.21779
3087.63169	4.15283
3085.70312	4.08753
3083.77456	4.02116
3081.84600	3.95521
3079.91743	3.89426
3077.98887	3.83659
3076.06030	3.77708
3074.13174	3.71552
3072.20317	3.65480
3070.27461	3.59464
3068.34604	3.53509
3066.41748	3.47839
3064.48892	3.42288
3062.56035	3.36505
3060.63179	3.30741
3058.70322	3.25345
3056.77466	3.20006
3054.84609	3.14518
3052.91753	3.09174
3050.98896	3.04059
3049.06040	2.99029
3047.13184	2.93976
3045.20327	2.88858
3043.27471	2.83807
3041.34614	2.78906
3039.41758	2.74117
3037.48901	2.69449
3035.56045	2.64897
3033.63188	2.60371
3031.70332	2.55743
3029.77476	2.51076
3027.84619	2.46573
3025.91763	2.42269
3023.98906	2.38045
3022.06050	2.33849
3020.13193	2.29715
3018.20337	2.25668
3016.27480	2.21667
3014.34624	2.17673
3012.41768	2.13751
3010.48911	2.09954
3008.56055	2.06258
3006.63198	2.02583
3004.70342	1.98880
3002.77485	1.95244
3000.84629	1.91786
2998.91772	1.88452
2996.98916	1.85128
2995.06060	1.81789
2993.13203	1.78480
2991.20347	1.75277
2989.27490	1.72203
2987.34634	1.69184
2985.41777	1.66149
2983.48921	1.63157
2981.56064	1.60283
2979.63208	1.57479
2977.70352	1.54709
2975.77495	1.51984
2973.84639	1.49303
2971.91782	1.46654
2969.98926	1.44038
2968.06069	1.41480
2966.13213	1.38965
2964.20356	1.36461
2962.27500	1.33984
2960.34644	1.31567
2958.41787	1.29191
2956.48931	1.26805
2954.56074	1.24453
2952.63218	1.22193
2950.70361	1.19973
2948.77505	1.17745
2946.84648	1.15544
2944.91792	1.13410
2942.98936	1.11346
2941.06079	1.09370
2939.13223	1.07442
2937.20366	1.05459
2935.27510	1.03421
2933.34653	1.01465
2931.41797	0.99639
2929.48940	0.97835
2927.56084	0.95979
2925.63228	0.94134
2923.70371	0.92395
2921.77515	0.90741
2919.84658	0.89084
2917.91802	0.87409
2915.98945	0.85764
2914.06089	0.84187
2912.13232	0.82663
2910.20376	0.81171
2908.27520	0.79709
2906.34663	0.78271
2904.41807	0.76836
2902.48950	0.75451
2900.56094	0.74160
2898.63237	0.72889
2896.70381	0.71595
2894.77524	0.70297
2892.84668	0.69024
2890.91812	0.67827
2888.98955	0.66718
2887.06099	0.65643
2885.13242	0.64565
2883.20386	0.63490
2881.27529	0.62430
2879.34673	0.61391
2877.41816	0.60375
2875.48960	0.59397
2873.56104	0.58438
2871.63247	0.57443
2869.70391	0.56412
2867.77534	0.55393
2865.84678	0.54382
2863.91821	0.53369
2861.98965	0.52383
2860.06108	0.51425
2858.13252	0.50486
2856.20396	0.49590
2854.27539	0.48732
2852.34683	0.47911
2850.41826	0.47119
2848.48970	0.46306
2846.56113	0.45488
2844.63257	0.44758
2842.70400	0.44107
2840.77544	0.43462
2838.84687	0.42822
2836.91831	0.42214
2834.98975	0.41620
2833.06118	0.41035
2831.13262	0.40453
2829.20405	0.39851
2827.27549	0.39243
2825.34692	0.38652
2823.41836	0.38078
2821.48979	0.37510
2819.56123	0.36935
2817.63267	0.36365
2815.70410	0.35812
2813.77554	0.35271
2811.84697	0.34752
2809.91841	0.34247
2807.98984	0.33726
2806.06128	0.33204
2804.13271	0.32718
2802.20415	0.32266
2800.27559	0.31811
2798.34702	0.31336
2796.41846	0.30859
2794.48989	0.30403
2792.56133	0.29980
2790.63276	0.29580
2788.70420	0.29180
2786.77563	0.28775
2784.84707	0.28383
2782.91851	0.28001
2780.98994	0.27617
2779.06138	0.27240
2777.13281	0.26873
2775.20425	0.26493
2773.27568	0.26111
2771.34712	0.25756
2769.41855	0.25426
2767.48999	0.25107
2765.56143	0.24794
2763.63286	0.24464
2761.70430	0.24122
2759.77573	0.23812
2757.84717	0.23536
2755.91860	0.23254
2753.99004	0.22958
2752.06147	0.22666
2750.13291	0.22397
2748.20435	0.22153
2746.27578	0.21910
2744.34722	0.21649
2742.41865	0.21378
2740.49009	0.21104
2738.56152	0.20846
2736.63296	0.20621
2734.70439	0.20402
2732.77583	0.20183
2730.84727	0.19970
2728.91870	0.19762
2726.99014	0.19568
2725.06157	0.19384
2723.13301	0.19189
2721.20444	0.18983
2719.27588	0.18792
2717.34731	0.18624
2715.41875	0.18448
2713.49019	0.18250
2711.56162	0.18052
2709.63306	0.17874
2707.70449	0.17720
2705.77593	0.17583
2703.84736	0.17444
2701.91880	0.17298
2699.99023	0.17155
2698.06167	0.17007
2696.13311	0.16866
2694.20454	0.16748
2692.27598	0.16632
2690.34741	0.16505
2688.41885	0.16387
2686.49028	0.16283
2684.56172	0.16173
2682.63315	0.16065
2680.70459	0.15963
2678.77603	0.15857
2676.84746	0.15750
2674.91890	0.15644
2672.99033	0.15538
2671.06177	0.15441
2669.13320	0.15356
2667.20464	0.15270
2665.27607	0.15174
2663.34751	0.15081
2661.41895	0.15014
2659.49038	0.14955
2657.56182	0.14880
2655.63325	0.14800
2653.70469	0.14724
2651.77612	0.14656
2649.84756	0.14609
2647.91899	0.14571
2645.99043	0.14528
2644.06187	0.14475
2642.13330	0.14422
2640.20474	0.14383
2638.27617	0.14353
2636.34761	0.14321
2634.41904	0.14291
2632.49048	0.14263
2630.56191	0.14233
2628.63335	0.14197
2626.70479	0.14160
2624.77622	0.14133
2622.84766	0.14116
2620.91909	0.14106
2618.99053	0.14091
2617.06196	0.14076
2615.13340	0.14071
2613.20483	0.14062
2611.27627	0.14038
2609.34771	0.14022
2607.41914	0.14014
2605.49058	0.14006
2603.56201	0.14010
2601.63345	0.14021
2599.70488	0.14031
2597.77632	0.14049
2595.84775	0.14074
2593.91919	0.14099
2591.99062	0.14124
2590.06206	0.14140
2588.13350	0.14153
2586.20493	0.14175
2584.27637	0.14202
2582.34780	0.14227
2580.41924	0.14252
2578.49067	0.14280
2576.56211	0.14314
2574.63354	0.14351
2572.70498	0.14386
2570.77642	0.14424
2568.84785	0.14475
2566.91929	0.14524
2564.99072	0.14564
2563.06216	0.14612
2561.13359	0.14667
2559.20503	0.14718
2557.27646	0.14770
2555.34790	0.14816
2553.41934	0.14855
2551.49077	0.14909
2549.56221	0.14979
2547.63364	0.15048
2545.70508	0.15114
2543.77651	0.15183
2541.84795	0.15255
2539.91938	0.15314
2537.99082	0.15368
2536.06226	0.15443
2534.13369	0.15527
2532.20513	0.15591
2530.27656	0.15638
2528.34800	0.15693
2526.41943	0.15758
2524.49087	0.15834
2522.56230	0.15926
2520.63374	0.16020
2518.70518	0.16105
2516.77661	0.16179
2514.84805	0.16242
2512.91948	0.16317
2510.99092	0.16415
2509.06235	0.16513
2507.13379	0.16592
2505.20522	0.16675
2503.27666	0.16774
2501.34810	0.16858
2499.41953	0.16923
2497.49097	0.16993
2495.56240	0.17078
2493.63384	0.17165
2491.70527	0.17257
2489.77671	0.17365
2487.84814	0.17472
2485.91958	0.17560
2483.99102	0.17645
2482.06245	0.17747
2480.13389	0.17844
2478.20532	0.17918
2476.27676	0.17992
2474.34819	0.18077
2472.41963	0.18165
2470.49106	0.18261
2468.56250	0.18367
2466.63394	0.18469
2464.70537	0.18561
2462.77681	0.18651
2460.84824	0.18752
2458.91968	0.18867
2456.99111	0.18977
2455.06255	0.19077
2453.13398	0.19178
2451.20542	0.19274
2449.27686	0.19362
2447.34829	0.19463
2445.41973	0.19565
2443.49116	0.19661
2441.56260	0.19769
2439.63403	0.19881
2437.70547	0.19983
2435.77690	0.20090
2433.84834	0.20208
2431.91978	0.20314
2429.99121	0.20404
2428.06265	0.20500
2426.13408	0.20609
2424.20552	0.20720
2422.27695	0.20836
2420.34839	0.20951
2418.41982	0.21062
2416.49126	0.21170
2414.56270	0.21280
2412.63413	0.21396
2410.70557	0.21508
2408.77700	0.21616
2406.84844	0.21738
2404.91987	0.21868
2402.99131	0.21994
2401.06274	0.22114
2399.13418	0.22240
2397.20562	0.22371
2395.27705	0.22503
2393.34849	0.22631
2391.41992	0.22744
2389.49136	0.22849
2387.56279	0.22962
2385.63423	0.23093
2383.70566	0.23243
2381.77710	0.23401
2379.84854	0.23555
2377.91997	0.23706
2375.99141	0.23848
2374.06284	0.23971
2372.13428	0.24088
2370.20571	0.24212
2368.27715	0.24381
2366.34858	0.24613
2364.42002	0.24844
2362.49146	0.25031
2360.56289	0.25135
2358.63433	0.25209
2356.70576	0.25424
2354.77720	0.25704
2352.84863	0.25874
2350.92007	0.25949
2348.99150	0.26017
2347.06294	0.26096
2345.13437	0.26201
2343.20581	0.26360
2341.27725	0.26595
2339.34868	0.26890
2337.42012	0.27150
2335.49155	0.27298
2333.56299	0.27365
2331.63442	0.27448
2329.70586	0.27585
2327.77729	0.27760
2325.84873	0.27956
2323.92017	0.28150
2321.99160	0.28333
2320.06304	0.28519
2318.13447	0.28690
2316.20591	0.28831
2314.27734	0.28987
2312.34878	0.29157
2310.42021	0.29326
2308.49165	0.29494
2306.56309	0.29655
2304.63452	0.29814
2302.70596	0.29976
2300.77739	0.30142
2298.84883	0.30318
2296.92026	0.30512
2294.99170	0.30723
2293.06313	0.30925
2291.13457	0.31099
2289.20601	0.31265
2287.27744	0.31455
2285.34888	0.31668
2283.42031	0.31879
2281.49175	0.32067
2279.56318	0.32252
2277.63462	0.32453
2275.70605	0.32663
2273.77749	0.32874
2271.84893	0.33089
2269.92036	0.33301
2267.99180	0.33509
2266.06323	0.33723
2264.13467	0.33946
2262.20610	0.34167
2260.27754	0.34382
2258.34897	0.34594
2256.42041	0.34800
2254.49185	0.35005
2252.56328	0.35223
2250.63472	0.35437
2248.70615	0.35637
2246.77759	0.35848
2244.84902	0.36086
2242.92046	0.36326
2240.99189	0.36553
2239.06333	0.36775
2237.13477	0.36998
2235.20620	0.37225
2233.27764	0.37446
2231.34907	0.37657
2229.42051	0.37877
2227.49194	0.38121
2225.56338	0.38365
2223.63481	0.38587
2221.70625	0.38793
2219.77769	0.39002
2217.84912	0.39218
2215.92056	0.39437
2213.99199	0.39654
2212.06343	0.39873
2210.13486	0.40084
2208.20630	0.40276
2206.27773	0.40475
2204.34917	0.40702
2202.42061	0.40931
2200.49204	0.41141
2198.56348	0.41347
2196.63491	0.41549
2194.70635	0.41747
2192.77778	0.41941
2190.84922	0.42123
2188.92065	0.42292
2186.99209	0.42470
2185.06353	0.42654
2183.13496	0.42827
2181.20640	0.42992
2179.27783	0.43165
2177.34927	0.43339
2175.42070	0.43500
2173.49214	0.43651
2171.56357	0.43792
2169.63501	0.43933
2167.70645	0.44074
2165.77788	0.44191
2163.84932	0.44289
2161.92075	0.44395
2159.99219	0.44509
2158.06362	0.44616
2156.13506	0.44715
2154.20649	0.44808
2152.27793	0.44896
2150.34937	0.44970
2148.42080	0.45029
2146.49224	0.45077
2144.56367	0.45115
2142.63511	0.45155
2140.70654	0.45188
2138.77798	0.45206
2136.84941	0.45220
2134.92085	0.45238
2132.99229	0.45248
2131.06372	0.45242
2129.13516	0.45228
2127.20659	0.45200
2125.27803	0.45165
2123.34946	0.45119
2121.42090	0.45067
2119.49233	0.45006
2117.56377	0.44932
2115.63521	0.44854
2113.70664	0.44777
2111.77808	0.44690
2109.84951	0.44591
2107.92095	0.44481
2105.99238	0.44362
2104.06382	0.44237
2102.13525	0.44102
2100.20669	0.43968
2098.27812	0.43836
2096.34956	0.43696
2094.42100	0.43542
2092.49243	0.43374
2090.56387	0.43200
2088.63530	0.43025
2086.70674	0.42846
2084.77817	0.42660
2082.84961	0.42473
2080.92104	0.42282
2078.99248	0.42080
2077.06392	0.41865
2075.13535	0.41648
2073.20679	0.41436
2071.27822	0.41219
2069.34966	0.40999
2067.42109	0.40776
2065.49253	0.40545
2063.56396	0.40300
2061.63540	0.40045
2059.70684	0.39777
2057.77827	0.39507
2055.84971	0.39251
2053.92114	0.39004
2051.99258	0.38753
2050.06401	0.38495
2048.13545	0.38231
2046.20688	0.37951
2044.27832	0.37673
2042.34976	0.37418
2040.42119	0.37165
2038.49263	0.36895
2036.56406	0.36614
2034.63550	0.36325
2032.70693	0.36037
2030.77837	0.35761
2028.84980	0.35493
2026.92124	0.35225
2024.99268	0.34949
2023.06411	0.34660
2021.13555	0.34368
2019.20698	0.34092
2017.27842	0.33833
2015.34985	0.33570
2013.42129	0.33304
2011.49272	0.33037
2009.56416	0.32764
2007.63560	0.32483
2005.70703	0.32207
2003.77847	0.31940
2001.84990	0.31679
1999.92134	0.31423
1997.99277	0.31165
1996.06421	0.30912
1994.13564	0.30674
1992.20708	0.30433
1990.27852	0.30169
1988.34995	0.29903
1986.42139	0.29647
1984.49282	0.29402
1982.56426	0.29173
1980.63569	0.28959
1978.70713	0.28740
1976.77856	0.28510
1974.85000	0.28284
1972.92144	0.28066
1970.99287	0.27862
1969.06431	0.27673
1967.13574	0.27477
1965.20718	0.27265
1963.27861	0.27057
1961.35005	0.26865
1959.42148	0.26676
1957.49292	0.26489
1955.56436	0.26311
1953.63579	0.26140
1951.70723	0.25969
1949.77866	0.25798
1947.85010	0.25637
1945.92153	0.25499
1943.99297	0.25373
1942.06440	0.25237
1940.13584	0.25090
1938.20728	0.24943
1936.27871	0.24797
1934.35015	0.24654
1932.42158	0.24530
1930.49302	0.24418
1928.56445	0.24306
1926.63589	0.24193
1924.70732	0.24094
1922.77876	0.24010
1920.85020	0.23933
1918.92163	0.23857
1916.99307	0.23768
1915.06450	0.23667
1913.13594	0.23577
1911.20737	0.23507
1909.27881	0.23445
1907.35024	0.23387
1905.42168	0.23325
1903.49312	0.23259
1901.56455	0.23194
1899.63599	0.23135
1897.70742	0.23089
1895.77886	0.23055
1893.85029	0.23029
1891.92173	0.23001
1889.99316	0.22976
1888.06460	0.22949
1886.13604	0.22921
1884.20747	0.22901
1882.27891	0.22891
1880.35034	0.22889
1878.42178	0.22884
1876.49321	0.22879
1874.56465	0.22878
1872.63608	0.22887
1870.70752	0.22902
1868.77896	0.22944
1866.85039	0.22982
1864.92183	0.22984
1862.99326	0.22989
1861.06470	0.23012
1859.13613	0.23051
1857.20757	0.23089
1855.27900	0.23133
1853.35044	0.23173
1851.42187	0.23216
1849.49331	0.23269
1847.56475	0.23331
1845.63618	0.23410
1843.70762	0.23509
1841.77905	0.23593
1839.85049	0.23639
1837.92192	0.23709
1835.99336	0.23813
1834.06479	0.23928
1832.13623	0.24037
1830.20767	0.24170
1828.27910	0.24303
1826.35054	0.24405
1824.42197	0.24532
1822.49341	0.24663
1820.56484	0.24784
1818.63628	0.24920
1816.70771	0.25087
1814.77915	0.25259
1812.85059	0.25437
1810.92202	0.25635
1808.99346	0.25842
1807.06489	0.26038
1805.13633	0.26229
1803.20776	0.26458
1801.27920	0.26719
1799.35063	0.27000
1797.42207	0.27247
1795.49351	0.27478
1793.56494	0.27751
1791.63638	0.28120
1789.70781	0.28483
1787.77925	0.28746
1785.85068	0.29040
1783.92212	0.29399
1781.99355	0.29804
1780.06499	0.30238
1778.13643	0.30670
1776.20786	0.31065
1774.27930	0.31479
1772.35073	0.32044
1770.42217	0.32678
1768.49360	0.33228
1766.56504	0.33760
1764.63647	0.34302
1762.70791	0.34888
1760.77935	0.35629
1758.85078	0.36341
1756.92222	0.37067
1754.99365	0.37863
1753.06509	0.38580
1751.13652	0.39406
1749.20796	0.40448
1747.27939	0.41512
1745.35083	0.42463
1743.42227	0.43448
1741.49370	0.44503
1739.56514	0.45737
1737.63657	0.46993
1735.70801	0.48105
1733.77944	0.49754
1731.85088	0.51722
1729.92231	0.53290
1727.99375	0.54880
1726.06519	0.56576
1724.13662	0.58405
1722.20806	0.60369
1720.27949	0.62193
1718.35093	0.64349
1716.42236	0.67532
1714.49380	0.70565
1712.56523	0.73036
1710.63667	0.75429
1708.70811	0.77986
1706.77954	0.80861
1704.85098	0.84288
1702.92241	0.87383
1700.99385	0.90465
1699.06528	0.95023
1697.13672	0.99205
1695.20815	1.03467
1693.27959	1.07592
1691.35103	1.10892
1689.42246	1.14676
1687.49390	1.18665
1685.56533	1.22541
1683.63677	1.28518
1681.70820	1.34621
1679.77964	1.38475
1677.85107	1.42160
1675.92251	1.46445
1673.99395	1.51785
1672.06538	1.56534
1670.13682	1.61141
1668.20825	1.67048
1666.27969	1.71792
1664.35112	1.75783
1662.42256	1.80795
1660.49399	1.86439
1658.56543	1.90894
1656.63687	1.94536
1654.70830	1.97806
1652.77974	2.02931
1650.85117	2.08074
1648.92261	2.10097
1646.99404	2.12638
1645.06548	2.15654
1643.13691	2.17683
1641.20835	2.18865
1639.27979	2.19820
1637.35122	2.20253
1635.42266	2.20089
1633.49409	2.19577
1631.56553	2.18631
1629.63696	2.17359
1627.70840	2.14922
1625.77983	2.11681
1623.85127	2.07583
1621.92271	2.02822
1619.99414	1.98637
1618.06558	1.94521
1616.13701	1.88675
1614.20845	1.82608
1612.27988	1.77851
1610.35132	1.72912
1608.42275	1.67611
1606.49419	1.62355
1604.56562	1.57480
1602.63706	1.52767
1600.70850	1.48120
1598.77993	1.43813
1596.85137	1.39783
1594.92280	1.35881
1592.99424	1.32101
1591.06567	1.28629
1589.13711	1.25368
1587.20854	1.22312
1585.27998	1.19474
1583.35142	1.16821
1581.42285	1.14392
1579.49429	1.12301
1577.56572	1.10410
1575.63716	1.08080
1573.70859	1.05987
1571.78003	1.04628
1569.85146	1.03209
1567.92290	1.01592
1565.99434	1.00325
1564.06577	0.99293
1562.13721	0.98458
1560.20864	0.97820
1558.28008	0.96907
1556.35151	0.96064
1554.42295	0.95476
1552.49438	0.94895
1550.56582	0.94297
1548.63726	0.93596
1546.70869	0.92830
1544.78013	0.91953
1542.85156	0.90943
1540.92300	0.89705
1538.99443	0.87873
1537.06587	0.86476
1535.13730	0.85536
1533.20874	0.84338
1531.28018	0.83022
1529.35161	0.82027
1527.42305	0.81099
1525.49448	0.80152
1523.56592	0.79323
1521.63735	0.78492
1519.70879	0.77623
1517.78022	0.76911
1515.85166	0.76159
1513.92310	0.75373
1511.99453	0.74677
1510.06597	0.74037
1508.13740	0.73403
1506.20884	0.72487
1504.28027	0.71700
1502.35171	0.71223
1500.42314	0.70787
1498.49458	0.70316
1496.56602	0.69774
1494.63745	0.69263
1492.70889	0.68872
1490.78032	0.68514
1488.85176	0.68073
1486.92319	0.67616
1484.99463	0.67241
1483.06606	0.66934
1481.13750	0.66650
1479.20894	0.66394
1477.28037	0.66211
1475.35181	0.66073
1473.42324	0.65906
1471.49468	0.65664
1469.56611	0.65432
1467.63755	0.65235
1465.70898	0.65046
1463.78042	0.64848
1461.85186	0.64687
1459.92329	0.64584
1457.99473	0.64493
1456.06616	0.64332
1454.13760	0.64116
1452.20903	0.63905
1450.28047	0.63690
1448.35190	0.63472
1446.42334	0.63250
1444.49478	0.63069
1442.56621	0.62909
1440.63765	0.62710
1438.70908	0.62498
1436.78052	0.62281
1434.85195	0.62053
1432.92339	0.61852
1430.99482	0.61678
1429.06626	0.61530
1427.13770	0.61415
1425.20913	0.61331
1423.28057	0.61264
1421.35200	0.61201
1419.42344	0.61146
1417.49487	0.61079
1415.56631	0.60964
1413.63774	0.60840
1411.70918	0.60744
1409.78062	0.60683
1407.85205	0.60640
1405.92349	0.60617
1403.99492	0.60604
1402.06636	0.60558
1400.13779	0.60463
1398.20923	0.60331
1396.28066	0.60168
1394.35210	0.59956
1392.42354	0.59695
1390.49497	0.59437
1388.56641	0.59209
1386.63784	0.58973
1384.70928	0.58703
1382.78071	0.58426
1380.85215	0.58167
1378.92358	0.57957
1376.99502	0.57805
1375.06646	0.57690
1373.13789	0.57579
1371.20933	0.57468
1369.28076	0.57366
1367.35220	0.57252
1365.42363	0.57125
1363.49507	0.57012
1361.56650	0.56908
1359.63794	0.56783
1357.70937	0.56653
1355.78081	0.56546
1353.85225	0.56464
1351.92368	0.56385
1349.99512	0.56302
1348.06655	0.56215
1346.13799	0.56133
1344.20942	0.56054
1342.28086	0.55971
1340.35229	0.55902
1338.42373	0.55847
1336.49517	0.55768
1334.56660	0.55665
1332.63804	0.55588
1330.70947	0.55558
1328.78091	0.55541
1326.85234	0.55506
1324.92378	0.55464
1322.99521	0.55432
1321.06665	0.55406
1319.13809	0.55391
1317.20952	0.55372
1315.28096	0.55322
1313.35239	0.55247
1311.42383	0.55173
1309.49526	0.55113
1307.56670	0.55054
1305.63813	0.54986
1303.70957	0.54918
1301.78101	0.54856
1299.85244	0.54793
1297.92388	0.54723
1295.99531	0.54644
1294.06675	0.54553
1292.13818	0.54460
1290.20962	0.54386
1288.28105	0.54321
1286.35249	0.54242
1284.42393	0.54147
1282.49536	0.54052
1280.56680	0.53970
1278.63823	0.53887
1276.70967	0.53806
1274.78110	0.53747
1272.85254	0.53710
1270.92397	0.53666
1268.99541	0.53596
1267.06685	0.53517
1265.13828	0.53449
1263.20972	0.53396
1261.28115	0.53338
1259.35259	0.53270
1257.42402	0.53212
1255.49546	0.53182
1253.56689	0.53172
1251.63833	0.53167
1249.70977	0.53152
1247.78120	0.53118
1245.85264	0.53075
1243.92407	0.53035
1241.99551	0.52978
1240.06694	0.52888
1238.13838	0.52791
1236.20981	0.52698
1234.28125	0.52585
1232.35269	0.52448
1230.42412	0.52313
1228.49556	0.52196
1226.56699	0.52093
1224.63843	0.51990
1222.70986	0.51883
1220.78130	0.51784
1218.85273	0.51695
1216.92417	0.51600
1214.99561	0.51495
1213.06704	0.51406
1211.13848	0.51348
1209.20991	0.51300
1207.28135	0.51240
1205.35278	0.51163
1203.42422	0.51084
1201.49565	0.51020
1199.56709	0.50957
1197.63853	0.50891
1195.70996	0.50841
1193.78140	0.50795
1191.85283	0.50739
1189.92427	0.50696
1187.99570	0.50661
1186.06714	0.50614
1184.13857	0.50581
1182.21001	0.50579
1180.28145	0.50599
1178.35288	0.50649
1176.42432	0.50723
1174.49575	0.50802
1172.56719	0.50862
1170.63862	0.50883
1168.71006	0.50881
1166.78149	0.50894
1164.85293	0.50920
1162.92437	0.50941
1160.99580	0.50948
1159.06724	0.50924
1157.13867	0.50859
1155.21011	0.50768
1153.28154	0.50654
1151.35298	0.50514
1149.42441	0.50338
1147.49585	0.50113
1145.56729	0.49867
1143.63872	0.49644
1141.71016	0.49433
1139.78159	0.49202
1137.85303	0.48980
1135.92446	0.48799
1133.99590	0.48654
1132.06733	0.48539
1130.13877	0.48436
1128.21021	0.48335
1126.28164	0.48233
1124.35308	0.48105
1122.42451	0.47981
1120.49595	0.47915
1118.56738	0.47899
1116.63882	0.47913
1114.71025	0.47945
1112.78169	0.47971
1110.85312	0.47995
1108.92456	0.48048
1106.99600	0.48142
1105.06743	0.48272
1103.13887	0.48411
1101.21030	0.48544
1099.28174	0.48704
1097.35317	0.48926
1095.42461	0.49209
1093.49604	0.49563
1091.56748	0.50003
1089.63892	0.50524
1087.71035	0.51132
1085.78179	0.51824
1083.85322	0.52558
1081.92466	0.53259
1079.99609	0.53832
1078.06753	0.54179
1076.13896	0.54247
1074.21040	0.54044
1072.28184	0.53609
1070.35327	0.52998
1068.42471	0.52298
1066.49614	0.51605
1064.56758	0.50974
1062.63901	0.50417
1060.71045	0.49922
1058.78188	0.49483
1056.85332	0.49102
1054.92476	0.48763
1052.99619	0.48463
1051.06763	0.48207
1049.13906	0.47996
1047.21050	0.47829
1045.28193	0.47702
1043.35337	0.47624
1041.42480	0.47590
1039.49624	0.47565
1037.56768	0.47524
1035.63911	0.47494
1033.71055	0.47496
1031.78198	0.47506
1029.85342	0.47478
1027.92485	0.47422
1025.99629	0.47395
1024.06772	0.47415
1022.13916	0.47456
1020.21060	0.47486
1018.28203	0.47504
1016.35347	0.47549
1014.42490	0.47628
1012.49634	0.47722
1010.56777	0.47826
1008.63921	0.47939
1006.71064	0.48064
1004.78208	0.48213
1002.85352	0.48408
1000.92495	0.48671
998.99639	0.48993
997.06782	0.49375
995.13926	0.49808
993.21069	0.50227
991.28213	0.50563
989.35356	0.50795
987.42500	0.50927
985.49644	0.50983
983.56787	0.51024
981.63931	0.51106
979.71074	0.51241
977.78218	0.51425
975.85361	0.51669
973.92505	0.51960
971.99648	0.52272
970.06792	0.52613
968.13936	0.52989
966.21079	0.53406
964.28223	0.53875
962.35366	0.54375
960.42510	0.54887
958.49653	0.55429
956.56797	0.56014
954.63940	0.56622
952.71084	0.57233
950.78228	0.57871
948.85371	0.58540
946.92515	0.59199
944.99658	0.59813
943.06802	0.60387
941.13945	0.60956
939.21089	0.61532
937.28232	0.62126
935.35376	0.62739
933.42520	0.63339
931.49663	0.63931
929.56807	0.64522
927.63950	0.65115
925.71094	0.65704
923.78237	0.66258
921.85381	0.66848
919.92524	0.67556
917.99668	0.68317
916.06812	0.69030
914.13955	0.69694
912.21099	0.70422
910.28242	0.71266
908.35386	0.72168
906.42529	0.73098
904.49673	0.74005
902.56816	0.74867
900.63960	0.75763
898.71104	0.76686
896.78247	0.77621
894.85391	0.78633
892.92534	0.79699
890.99678	0.80792
889.06821	0.81912
887.13965	0.82972
885.21108	0.84027
883.28252	0.85148
881.35396	0.86301
879.42539	0.87546
877.49683	0.88768
875.56826	0.89882
873.63970	0.91025
871.71113	0.92171
869.78257	0.93239
867.85400	0.94298
865.92544	0.95509
863.99687	0.96881
862.06831	0.98202
860.13975	0.99357
858.21118	1.00511
856.28262	1.01703
854.35405	1.02766
852.42549	1.03722
850.49692	1.04729
848.56836	1.05893
846.63979	1.07106
844.71123	1.08254
842.78267	1.09368
840.85410	1.10496
838.92554	1.11757
836.99697	1.13102
835.06841	1.14273
833.13984	1.15322
831.21128	1.16433
829.28271	1.17431
827.35415	1.18418
825.42559	1.19739
823.49702	1.21028
821.56846	1.22112
819.63989	1.23486
817.71133	1.24876
815.78276	1.26301
813.85420	1.28536
811.92563	1.30603
809.99707	1.31026
808.06851	1.30548
806.13994	1.30996
804.21138	1.33038
802.28281	1.35148
800.35425	1.34692
798.42568	1.31855
796.49712	1.30337
794.56855	1.31951
792.63999	1.34540
790.71143	1.36606
788.78286	1.38875
786.85430	1.39747
784.92573	1.40994
782.99717	1.49282
781.06860	1.60429
779.14004	1.54579
777.21147	1.44216
775.28291	1.43262
773.35435	1.50073
771.42578	1.57626
769.49722	1.51794
767.56865	1.42372
765.64009	1.41264
763.71152	1.44815
761.78296	1.41462
759.85439	1.36452
757.92583	1.48879
755.99727	1.82327
754.06870	1.66343
752.14014	1.34721
750.21157	1.22223
748.28301	1.18038
746.35444	1.08548
744.42588	1.05560
742.49731	1.15500
740.56875	1.11679
738.64019	0.96463
736.71162	0.85479
734.78306	0.70992
732.85449	0.55572
730.92593	0.44230
728.99736	0.39761
727.06880	0.23297
725.14023	4.35084
723.21167	4.33927
721.28311	4.32770
719.35454	4.31613
717.42598	-0.39979
715.49741	0.03824
713.56885	0.27917
711.64028	0.47275
709.71172	0.63728
707.78315	0.70092
705.85459	0.73249
703.92603	0.79031
701.99746	0.86793
700.06890	0.92428
698.14033	0.85650
696.21177	0.74722
694.28320	0.63545
692.35464	0.58310
690.42607	0.62297
688.49751	0.68945
686.56895	0.81329
684.64038	0.94000
682.71182	0.79018
680.78325	0.65017
678.85469	0.53490
676.92612	0.41989
674.99756	0.37851
673.06899	0.41878
671.14043	0.44436
669.21187	0.38732
667.28330	0.37853
665.35474	0.48448
663.42617	0.62738
661.49761	0.66718
659.56904	0.68952
657.64048	0.68862
655.71191	0.63586
653.78335	0.67188
651.85479	0.82594
649.92622	0.79246
647.99766	0.58747
646.06909	0.53950
644.14053	0.54955
642.21196	0.51125
640.28340	0.50381
638.35483	0.63074
636.42627	0.89606
634.49771	0.73396
632.56914	0.48907
630.64058	0.42830
628.71201	0.51841
626.78345	0.74140
624.85488	1.02657
622.92632	0.71101
620.99775	0.44138
619.06919	0.35942
617.14062	0.39028
615.21206	0.42528
613.28350	0.42111
611.35493	0.41797
609.42637	0.41329
607.49780	0.39303
605.56924	0.42117
603.64067	0.53249
601.71211	0.62820
599.78354	0.68178
597.85498	0.84974
595.92642	0.89721
593.99785	0.61750
592.06929	0.45309
590.14072	0.39299
588.21216	0.39490
586.28359	0.40645
584.35503	0.37689
582.42646	0.33956
580.49790	0.35001
578.56934	0.40731
576.64077	0.53922
574.71221	0.76871
572.78364	0.59029
570.85508	0.43680
568.92651	0.44594
566.99795	0.46225
565.06938	0.41898
563.14082	0.41608
561.21226	0.42034
559.28369	0.38460
557.35513	0.38279
555.42656	0.45150
553.49800	0.54803
551.56943	0.56137
549.64087	0.51554
547.71230	0.49590
545.78374	0.49546
543.85518	0.44242
541.92661	0.38455
539.99805	0.42531
538.06948	0.54738
536.14092	0.47932
534.21235	0.35336
532.28379	0.37437
530.35522	0.47245
528.42666	0.49339
526.49810	0.42674
524.56953	0.38903
522.64097	0.41272
520.71240	0.42830
518.78384	0.42682
516.85527	0.43445
514.92671	0.39132
512.99814	0.32576
511.06958	0.30385
509.14102	0.32608
507.21245	0.33631
505.28389	0.32097
503.35532	0.33063
501.42676	0.35525
499.49819	0.36748
