3997.91411	0.08376
3995.98555	0.08420
3994.05698	0.08412
3992.12842	0.08418
3990.19985	0.08467
3988.27129	0.08504
3986.34272	0.08515
3984.41416	0.08547
3982.48560	0.08610
3980.55703	0.08640
3978.62847	0.08632
3976.69990	0.08651
3974.77134	0.08704
3972.84277	0.08740
3970.91421	0.08740
3968.98564	0.08735
3967.05708	0.08728
3965.12852	0.08711
3963.19995	0.08741
3961.27139	0.08807
3959.34282	0.08822
3957.41426	0.08782
3955.48569	0.08745
3953.55713	0.08753
3951.62856	0.08828
3949.70000	0.08923
3947.77144	0.08934
3945.84287	0.08869
3943.91431	0.08847
3941.98574	0.08869
3940.05718	0.08839
3938.12861	0.08774
3936.20005	0.08755
3934.27148	0.08827
3932.34292	0.08937
3930.41436	0.08982
3928.48579	0.08955
3926.55723	0.08921
3924.62866	0.08896
3922.70010	0.08831
3920.77153	0.08764
3918.84297	0.08800
3916.91440	0.08890
3914.98584	0.08873
3913.05728	0.08770
3911.12871	0.08712
3909.20015	0.08704
3907.27158	0.08693
3905.34302	0.08738
3903.41445	0.08886
3901.48589	0.09009
3899.55732	0.09031
3897.62876	0.08985
3895.70020	0.08900
3893.77163	0.08868
3891.84307	0.08930
3889.91450	0.08940
3887.98594	0.08835
3886.05737	0.08833
3884.12881	0.08991
3882.20024	0.09097
3880.27168	0.09065
3878.34312	0.08941
3876.41455	0.08860
3874.48599	0.08931
3872.55742	0.09086
3870.62886	0.09234
3868.70029	0.09319
3866.77173	0.09253
3864.84316	0.09223
3862.91460	0.09303
3860.98604	0.09303
3859.05747	0.09244
3857.12891	0.09256
3855.20034	0.09369
3853.27178	0.09603
3851.34321	0.09714
3849.41465	0.09542
3847.48608	0.09401
3845.55752	0.09379
3843.62896	0.09461
3841.70039	0.09627
3839.77183	0.09822
3837.84326	0.10004
3835.91470	0.10100
3833.98613	0.10098
3832.05757	0.10077
3830.12900	0.10060
3828.20044	0.10069
3826.27187	0.10145
3824.34331	0.10243
3822.41475	0.10372
3820.48618	0.10635
3818.55762	0.10795
3816.62905	0.10754
3814.70049	0.10730
3812.77192	0.10698
3810.84336	0.10659
3808.91479	0.10715
3806.98623	0.10911
3805.05767	0.11143
3803.12910	0.11321
3801.20054	0.11530
3799.27197	0.11678
3797.34341	0.11718
3795.41484	0.11784
3793.48628	0.11813
3791.55771	0.11784
3789.62915	0.11812
3787.70059	0.11969
3785.77202	0.12199
3783.84346	0.12399
3781.91489	0.12547
3779.98633	0.12696
3778.05776	0.12856
3776.12920	0.12968
3774.20063	0.13050
3772.27207	0.13175
3770.34351	0.13384
3768.41494	0.13633
3766.48638	0.13834
3764.55781	0.14012
3762.62925	0.14174
3760.70068	0.14393
3758.77212	0.14755
3756.84355	0.15106
3754.91499	0.15323
3752.98643	0.15564
3751.05786	0.15969
3749.12930	0.16398
3747.20073	0.16596
3745.27217	0.16778
3743.34360	0.17143
3741.41504	0.17445
3739.48647	0.17622
3737.55791	0.17897
3735.62935	0.18352
3733.70078	0.18873
3731.77222	0.19268
3729.84365	0.19541
3727.91509	0.19831
3725.98652	0.20305
3724.05796	0.20979
3722.12939	0.21718
3720.20083	0.22464
3718.27227	0.23199
3716.34370	0.23946
3714.41514	0.24740
3712.48657	0.25716
3710.55801	0.27025
3708.62944	0.28316
3706.70088	0.29314
3704.77231	0.30306
3702.84375	0.31561
3700.91519	0.33245
3698.98662	0.35092
3697.05806	0.36833
3695.12949	0.38655
3693.20093	0.40590
3691.27236	0.42746
3689.34380	0.45577
3687.41523	0.49010
3685.48667	0.51988
3683.55811	0.54563
3681.62954	0.57348
3679.70098	0.60497
3677.77241	0.63809
3675.84385	0.67708
3673.91528	0.72889
3671.98672	0.77145
3670.05815	0.80996
3668.12959	0.86216
3666.20103	0.90919
3664.27246	0.94897
3662.34390	0.99224
3660.41533	1.03880
3658.48677	1.08462
3656.55820	1.13395
3654.62964	1.18891
3652.70107	1.23448
3650.77251	1.27424
3648.84395	1.32989
3646.91538	1.39708
3644.98682	1.44540
3643.05825	1.48311
3641.12969	1.52239
3639.20112	1.56531
3637.27256	1.60818
3635.34399	1.65072
3633.41543	1.69441
3631.48687	1.73557
3629.55830	1.77667
3627.62974	1.82957
3625.70117	1.87847
3623.77261	1.91108
3621.84404	1.94266
3619.91548	1.98006
3617.98691	2.02579
3616.05835	2.06998
3614.12979	2.10784
3612.20122	2.14760
3610.27266	2.18617
3608.34409	2.22464
3606.41553	2.26680
3604.48696	2.30638
3602.55840	2.34259
3600.62983	2.38201
3598.70127	2.42283
3596.77271	2.46163
3594.84414	2.50095
3592.91558	2.54111
3590.98701	2.58050
3589.05845	2.61890
3587.12988	2.66325
3585.20132	2.71094
3583.27275	2.75181
3581.34419	2.78974
3579.41562	2.83025
3577.48706	2.87310
3575.55850	2.91591
3573.62993	2.95862
3571.70137	3.00080
3569.77280	3.04358
3567.84424	3.09012
3565.91567	3.14385
3563.98711	3.19226
3562.05854	3.23029
3560.12998	3.26967
3558.20142	3.31400
3556.27285	3.36016
3554.34429	3.40558
3552.41572	3.45283
3550.48716	3.50064
3548.55859	3.54613
3546.63003	3.59392
3544.70146	3.64783
3542.77290	3.69945
3540.84434	3.74518
3538.91577	3.79168
3536.98721	3.83829
3535.05864	3.88322
3533.13008	3.92661
3531.20151	3.97098
3529.27295	4.01944
3527.34438	4.07182
3525.41582	4.12485
3523.48726	4.17681
3521.55869	4.22837
3519.63013	4.27841
3517.70156	4.32643
3515.77300	4.37001
3513.84443	4.41178
3511.91587	4.45934
3509.98730	4.51176
3508.05874	4.56272
3506.13018	4.61286
3504.20161	4.66526
3502.27305	4.71625
3500.34448	4.76128
3498.41592	4.80596
3496.48735	4.85721
3494.55879	4.91004
3492.63022	4.95914
3490.70166	5.00530
3488.77310	5.04915
3486.84453	5.09739
3484.91597	5.15376
3482.98740	5.20787
3481.05884	5.25572
3479.13027	5.30522
3477.20171	5.35684
3475.27314	5.40392
3473.34458	5.44887
3471.41602	5.49556
3469.48745	5.54301
3467.55889	5.59264
3465.63032	5.64047
3463.70176	5.68651
3461.77319	5.73423
3459.84463	5.78781
3457.91606	5.84977
3455.98750	5.90900
3454.05894	5.95622
3452.13037	5.99562
3450.20181	6.03630
3448.27324	6.08845
3446.34468	6.15741
3444.41611	6.22706
3442.48755	6.28084
3440.55898	6.31955
3438.63042	6.35986
3436.70186	6.41362
3434.77329	6.47642
3432.84473	6.54530
3430.91616	6.61215
3428.98760	6.67184
3427.05903	6.73062
3425.13047	6.78809
3423.20190	6.81713
3421.27334	6.83502
3419.34478	6.90468
3417.41621	7.01040
3415.48765	7.06529
3413.55908	7.07709
3411.63052	7.12638
3409.70195	7.18675
3407.77339	7.20472
3405.84482	7.21160
3403.91626	7.24851
3401.98770	7.31312
3400.05913	7.39765
3398.13057	7.47795
3396.20200	7.51772
3394.27344	7.54271
3392.34487	7.58331
3390.41631	7.63723
3388.48774	7.67966
3386.55918	7.69867
3384.63062	7.70361
3382.70205	7.75105
3380.77349	7.84766
3378.84492	7.87999
3376.91636	7.84483
3374.98779	7.84187
3373.05923	7.90102
3371.13066	7.95591
3369.20210	7.96714
3367.27354	8.00376
3365.34497	8.08562
3363.41641	8.13863
3361.48784	8.16879
3359.55928	8.19905
3357.63071	8.23346
3355.70215	8.30713
3353.77358	8.35020
3351.84502	8.34239
3349.91646	8.30527
3347.98789	8.26125
3346.05933	8.27614
3344.13076	8.33531
3342.20220	8.38903
3340.27363	8.40899
3338.34507	8.37053
3336.41650	8.31875
3334.48794	8.36963
3332.55937	8.48346
3330.63081	8.55274
3328.70225	8.57278
3326.77368	8.56280
3324.84512	8.56924
3322.91655	8.59365
3320.98799	8.60887
3319.05942	8.61121
3317.13086	8.54195
3315.20229	8.44878
3313.27373	8.51827
3311.34517	8.66221
3309.41660	8.63617
3307.48804	8.51974
3305.55947	8.49416
3303.63091	8.53477
3301.70234	8.52117
3299.77378	8.51527
3297.84521	8.52950
3295.91665	8.49452
3293.98809	8.49443
3292.05952	8.61847
3290.13096	8.73895
3288.20239	8.67283
3286.27383	8.56400
3284.34526	8.55987
3282.41670	8.62420
3280.48813	8.66968
3278.55957	8.67126
3276.63101	8.63293
3274.70244	8.56144
3272.77388	8.57343
3270.84531	8.76520
3268.91675	8.96630
3266.98818	8.94207
3265.05962	8.80006
3263.13105	8.72114
3261.20249	8.73312
3259.27393	8.72538
3257.34536	8.64367
3255.41680	8.53846
3253.48823	8.54677
3251.55967	8.72509
3249.63110	8.88892
3247.70254	8.91240
3245.77397	8.88962
3243.84541	8.86868
3241.91685	8.81868
3239.98828	8.83675
3238.05972	8.92997
3236.13115	8.88672
3234.20259	8.64853
3232.27402	8.39855
3230.34546	8.33761
3228.41689	8.44922
3226.48833	8.51732
3224.55977	8.51156
3222.63120	8.53530
3220.70264	8.50819
3218.77407	8.43143
3216.84551	8.42470
3214.91694	8.45286
3212.98838	8.40369
3211.05981	8.29281
3209.13125	8.28926
3207.20269	8.43533
3205.27412	8.47614
3203.34556	8.37046
3201.41699	8.33200
3199.48843	8.26613
3197.55986	8.13961
3195.63130	8.12372
3193.70273	8.16853
3191.77417	8.10760
3189.84561	7.95263
3187.91704	7.80569
3185.98848	7.72000
3184.05991	7.69237
3182.13135	7.70549
3180.20278	7.74582
3178.27422	7.75237
3176.34565	7.67514
3174.41709	7.54849
3172.48853	7.41425
3170.55996	7.30176
3168.63140	7.23783
3166.70283	7.19960
3164.77427	7.13473
3162.84570	7.05320
3160.91714	6.98746
3158.98857	6.92276
3157.06001	6.83321
3155.13145	6.73336
3153.20288	6.65039
3151.27432	6.57197
3149.34575	6.48773
3147.41719	6.42270
3145.48862	6.37135
3143.56006	6.30847
3141.63149	6.24618
3139.70293	6.18540
3137.77437	6.10720
3135.84580	6.01300
3133.91724	5.91687
3131.98867	5.83624
3130.06011	5.77470
3128.13154	5.70839
3126.20298	5.63318
3124.27441	5.56721
3122.34585	5.49291
3120.41729	5.40339
3118.48872	5.32810
3116.56016	5.26616
3114.63159	5.19692
3112.70303	5.12054
3110.77446	5.04282
3108.84590	4.96638
3106.91733	4.89410
3104.98877	4.82184
3103.06021	4.74971
3101.13164	4.68242
3099.20308	4.61566
3097.27451	4.54606
3095.34595	4.47506
3093.41738	4.40184
3091.48882	4.32845
3089.56025	4.26098
3087.63169	4.19901
3085.70312	4.13559
3083.77456	4.07028
3081.84600	4.00797
3079.91743	3.94829
3077.98887	3.88842
3076.06030	3.82833
3074.13174	3.76771
3072.20317	3.70479
3070.27461	3.64085
3068.34604	3.57898
3066.41748	3.51986
3064.48892	3.46267
3062.56035	3.40646
3060.63179	3.35058
3058.70322	3.29489
3056.77466	3.24016
3054.84609	3.18587
3052.91753	3.13082
3050.98896	3.07704
3049.06040	3.02573
3047.13184	2.97495
3045.20327	2.92478
3043.27471	2.87628
3041.34614	2.82776
3039.41758	2.77833
3037.48901	2.72955
3035.56045	2.68191
3033.63188	2.63507
3031.70332	2.58982
3029.77476	2.54588
3027.84619	2.50140
3025.91763	2.45704
3023.98906	2.41420
3022.06050	2.37242
3020.13193	2.33088
3018.20337	2.28916
3016.27480	2.24737
3014.34624	2.20639
3012.41768	2.16710
3010.48911	2.12928
3008.56055	2.09241
3006.63198	2.05616
3004.70342	2.01973
3002.77485	1.98317
3000.84629	1.94749
2998.91772	1.91273
2996.98916	1.87892
2995.06060	1.84617
2993.13203	1.81394
2991.20347	1.78184
2989.27490	1.74987
2987.34634	1.71895
2985.41777	1.68962
2983.48921	1.66068
2981.56064	1.63158
2979.63208	1.60289
2977.70352	1.57476
2975.77495	1.54700
2973.84639	1.51952
2971.91782	1.49256
2969.98926	1.46650
2968.06069	1.44104
2966.13213	1.41539
2964.20356	1.38940
2962.27500	1.36407
2960.34644	1.34036
2958.41787	1.31753
2956.48931	1.29440
2954.56074	1.27110
2952.63218	1.24816
2950.70361	1.22553
2948.77505	1.20335
2946.84648	1.18174
2944.91792	1.16056
2942.98936	1.13984
2941.06079	1.11948
2939.13223	1.09936
2937.20366	1.07960
2935.27510	1.05994
2933.34653	1.04020
2931.41797	1.02070
2929.48940	1.00164
2927.56084	0.98309
2925.63228	0.96516
2923.70371	0.94786
2921.77515	0.93124
2919.84658	0.91531
2917.91802	0.89962
2915.98945	0.88392
2914.06089	0.86828
2912.13232	0.85257
2910.20376	0.83733
2908.27520	0.82321
2906.34663	0.80962
2904.41807	0.79569
2902.48950	0.78154
2900.56094	0.76783
2898.63237	0.75495
2896.70381	0.74275
2894.77524	0.73082
2892.84668	0.71873
2890.91812	0.70636
2888.98955	0.69443
2887.06099	0.68340
2885.13242	0.67271
2883.20386	0.66205
2881.27529	0.65143
2879.34673	0.64091
2877.41816	0.63065
2875.48960	0.62078
2873.56104	0.61095
2871.63247	0.60063
2869.70391	0.59008
2867.77534	0.57984
2865.84678	0.56955
2863.91821	0.55895
2861.98965	0.54865
2860.06108	0.53895
2858.13252	0.52946
2856.20396	0.52020
2854.27539	0.51154
2852.34683	0.50330
2850.41826	0.49526
2848.48970	0.48738
2846.56113	0.47992
2844.63257	0.47300
2842.70400	0.46615
2840.77544	0.45923
2838.84687	0.45273
2836.91831	0.44669
2834.98975	0.44075
2833.06118	0.43478
2831.13262	0.42864
2829.20405	0.42245
2827.27549	0.41648
2825.34692	0.41075
2823.41836	0.40506
2821.48979	0.39910
2819.56123	0.39300
2817.63267	0.38713
2815.70410	0.38155
2813.77554	0.37617
2811.84697	0.37105
2809.91841	0.36616
2807.98984	0.36124
2806.06128	0.35607
2804.13271	0.35070
2802.20415	0.34555
2800.27559	0.34098
2798.34702	0.33658
2796.41846	0.33184
2794.48989	0.32703
2792.56133	0.32256
2790.63276	0.31835
2788.70420	0.31438
2786.77563	0.31044
2784.84707	0.30617
2782.91851	0.30193
2780.98994	0.29805
2779.06138	0.29426
2777.13281	0.29053
2775.20425	0.28704
2773.27568	0.28362
2771.34712	0.28011
2769.41855	0.27658
2767.48999	0.27316
2765.56143	0.26982
2763.63286	0.26648
2761.70430	0.26322
2759.77573	0.26003
2757.84717	0.25695
2755.91860	0.25413
2753.99004	0.25137
2752.06147	0.24845
2750.13291	0.24550
2748.20435	0.24267
2746.27578	0.24000
2744.34722	0.23742
2742.41865	0.23492
2740.49009	0.23262
2738.56152	0.23041
2736.63296	0.22801
2734.70439	0.22552
2732.77583	0.22316
2730.84727	0.22101
2728.91870	0.21902
2726.99014	0.21708
2725.06157	0.21501
2723.13301	0.21282
2721.20444	0.21062
2719.27588	0.20855
2717.34731	0.20666
2715.41875	0.20487
2713.49019	0.20311
2711.56162	0.20137
2709.63306	0.19972
2707.70449	0.19820
2705.77593	0.19667
2703.84736	0.19515
2701.91880	0.19365
2699.99023	0.19214
2698.06167	0.19064
2696.13311	0.18921
2694.20454	0.18790
2692.27598	0.18669
2690.34741	0.18543
2688.41885	0.18409
2686.49028	0.18284
2684.56172	0.18170
2682.63315	0.18056
2680.70459	0.17935
2678.77603	0.17812
2676.84746	0.17693
2674.91890	0.17585
2672.99033	0.17493
2671.06177	0.17406
2669.13320	0.17311
2667.20464	0.17220
2665.27607	0.17141
2663.34751	0.17063
2661.41895	0.16989
2659.49038	0.16920
2657.56182	0.16831
2655.63325	0.16722
2653.70469	0.16632
2651.77612	0.16576
2649.84756	0.16528
2647.91899	0.16460
2645.99043	0.16388
2644.06187	0.16332
2642.13330	0.16278
2640.20474	0.16229
2638.27617	0.16197
2636.34761	0.16158
2634.41904	0.16103
2632.49048	0.16047
2630.56191	0.15995
2628.63335	0.15957
2626.70479	0.15938
2624.77622	0.15918
2622.84766	0.15893
2620.91909	0.15868
2618.99053	0.15831
2617.06196	0.15798
2615.13340	0.15790
2613.20483	0.15793
2611.27627	0.15792
2609.34771	0.15796
2607.41914	0.15798
2605.49058	0.15789
2603.56201	0.15771
2601.63345	0.15760
2599.70488	0.15769
2597.77632	0.15791
2595.84775	0.15809
2593.91919	0.15822
2591.99062	0.15837
2590.06206	0.15853
2588.13350	0.15878
2586.20493	0.15908
2584.27637	0.15929
2582.34780	0.15945
2580.41924	0.15968
2578.49067	0.15996
2576.56211	0.16022
2574.63354	0.16050
2572.70498	0.16090
2570.77642	0.16135
2568.84785	0.16179
2566.91929	0.16226
2564.99072	0.16281
2563.06216	0.16340
2561.13359	0.16390
2559.20503	0.16427
2557.27646	0.16463
2555.34790	0.16503
2553.41934	0.16551
2551.49077	0.16606
2549.56221	0.16665
2547.63364	0.16722
2545.70508	0.16773
2543.77651	0.16836
2541.84795	0.16918
2539.91938	0.16991
2537.99082	0.17037
2536.06226	0.17093
2534.13369	0.17184
2532.20513	0.17281
2530.27656	0.17355
2528.34800	0.17411
2526.41943	0.17470
2524.49087	0.17542
2522.56230	0.17629
2520.63374	0.17726
2518.70518	0.17820
2516.77661	0.17895
2514.84805	0.17957
2512.91948	0.18020
2510.99092	0.18094
2509.06235	0.18181
2507.13379	0.18274
2505.20522	0.18363
2503.27666	0.18446
2501.34810	0.18515
2499.41953	0.18582
2497.49097	0.18675
2495.56240	0.18786
2493.63384	0.18882
2491.70527	0.18962
2489.77671	0.19052
2487.84814	0.19145
2485.91958	0.19224
2483.99102	0.19315
2482.06245	0.19424
2480.13389	0.19510
2478.20532	0.19571
2476.27676	0.19648
2474.34819	0.19748
2472.41963	0.19852
2470.49106	0.19950
2468.56250	0.20041
2466.63394	0.20132
2464.70537	0.20231
2462.77681	0.20340
2460.84824	0.20446
2458.91968	0.20534
2456.99111	0.20613
2455.06255	0.20704
2453.13398	0.20811
2451.20542	0.20922
2449.27686	0.21023
2447.34829	0.21119
2445.41973	0.21216
2443.49116	0.21309
2441.56260	0.21405
2439.63403	0.21507
2437.70547	0.21608
2435.77690	0.21708
2433.84834	0.21808
2431.91978	0.21916
2429.99121	0.22030
2428.06265	0.22140
2426.13408	0.22246
2424.20552	0.22354
2422.27695	0.22461
2420.34839	0.22569
2418.41982	0.22688
2416.49126	0.22806
2414.56270	0.22910
2412.63413	0.23009
2410.70557	0.23122
2408.77700	0.23255
2406.84844	0.23380
2404.91987	0.23492
2402.99131	0.23612
2401.06274	0.23739
2399.13418	0.23863
2397.20562	0.23988
2395.27705	0.24111
2393.34849	0.24229
2391.41992	0.24346
2389.49136	0.24452
2387.56279	0.24544
2385.63423	0.24611
2383.70566	0.24622
2381.77710	0.24578
2379.84854	0.24506
2377.91997	0.24411
2375.99141	0.24275
2374.06284	0.24078
2372.13428	0.23819
2370.20571	0.23543
2368.27715	0.23289
2366.34858	0.23021
2364.42002	0.22724
2362.49146	0.22565
2360.56289	0.22616
2358.63433	0.22812
2356.70576	0.23160
2354.77720	0.23653
2352.84863	0.24343
2350.92007	0.25076
2348.99150	0.25520
2347.06294	0.25607
2345.13437	0.25438
2343.20581	0.25210
2341.27725	0.25141
2339.34868	0.25276
2337.42012	0.25531
2335.49155	0.25809
2333.56299	0.26080
2331.63442	0.26369
2329.70586	0.26665
2327.77729	0.26927
2325.84873	0.27172
2323.92017	0.27450
2321.99160	0.27806
2320.06304	0.28228
2318.13447	0.28635
2316.20591	0.28970
2314.27734	0.29262
2312.34878	0.29551
2310.42021	0.29841
2308.49165	0.30133
2306.56309	0.30436
2304.63452	0.30728
2302.70596	0.30960
2300.77739	0.31167
2298.84883	0.31405
2296.92026	0.31656
2294.99170	0.31903
2293.06313	0.32152
2291.13457	0.32390
2289.20601	0.32618
2287.27744	0.32855
2285.34888	0.33102
2283.42031	0.33331
2281.49175	0.33525
2279.56318	0.33701
2277.63462	0.33888
2275.70605	0.34097
2273.77749	0.34311
2271.84893	0.34515
2269.92036	0.34722
2267.99180	0.34943
2266.06323	0.35171
2264.13467	0.35394
2262.20610	0.35600
2260.27754	0.35798
2258.34897	0.36016
2256.42041	0.36253
2254.49185	0.36490
2252.56328	0.36719
2250.63472	0.36938
2248.70615	0.37163
2246.77759	0.37401
2244.84902	0.37631
2242.92046	0.37849
2240.99189	0.38073
2239.06333	0.38303
2237.13477	0.38538
2235.20620	0.38768
2233.27764	0.38985
2231.34907	0.39205
2229.42051	0.39426
2227.49194	0.39638
2225.56338	0.39851
2223.63481	0.40073
2221.70625	0.40305
2219.77769	0.40529
2217.84912	0.40735
2215.92056	0.40945
2213.99199	0.41166
2212.06343	0.41390
2210.13486	0.41611
2208.20630	0.41822
2206.27773	0.42022
2204.34917	0.42220
2202.42061	0.42420
2200.49204	0.42622
2198.56348	0.42827
2196.63491	0.43018
2194.70635	0.43193
2192.77778	0.43368
2190.84922	0.43548
2188.92065	0.43740
2186.99209	0.43944
2185.06353	0.44146
2183.13496	0.44331
2181.20640	0.44501
2179.27783	0.44666
2177.34927	0.44814
2175.42070	0.44955
2173.49214	0.45113
2171.56357	0.45268
2169.63501	0.45406
2167.70645	0.45533
2165.77788	0.45652
2163.84932	0.45772
2161.92075	0.45895
2159.99219	0.46006
2158.06362	0.46093
2156.13506	0.46170
2154.20649	0.46251
2152.27793	0.46333
2150.34937	0.46410
2148.42080	0.46482
2146.49224	0.46536
2144.56367	0.46574
2142.63511	0.46617
2140.70654	0.46663
2138.77798	0.46689
2136.84941	0.46698
2134.92085	0.46708
2132.99229	0.46714
2131.06372	0.46698
2129.13516	0.46665
2127.20659	0.46632
2125.27803	0.46606
2123.34946	0.46565
2121.42090	0.46502
2119.49233	0.46434
2117.56377	0.46371
2115.63521	0.46307
2113.70664	0.46233
2111.77808	0.46139
2109.84951	0.46025
2107.92095	0.45906
2105.99238	0.45797
2104.06382	0.45689
2102.13525	0.45557
2100.20669	0.45402
2098.27812	0.45238
2096.34956	0.45083
2094.42100	0.44940
2092.49243	0.44792
2090.56387	0.44615
2088.63530	0.44421
2086.70674	0.44243
2084.77817	0.44077
2082.84961	0.43892
2080.92104	0.43679
2078.99248	0.43463
2077.06392	0.43250
2075.13535	0.43029
2073.20679	0.42802
2071.27822	0.42581
2069.34966	0.42359
2067.42109	0.42120
2065.49253	0.41881
2063.56396	0.41643
2061.63540	0.41392
2059.70684	0.41128
2057.77827	0.40865
2055.84971	0.40612
2053.92114	0.40361
2051.99258	0.40095
2050.06401	0.39826
2048.13545	0.39563
2046.20688	0.39287
2044.27832	0.39010
2042.34976	0.38759
2040.42119	0.38506
2038.49263	0.38224
2036.56406	0.37933
2034.63550	0.37648
2032.70693	0.37369
2030.77837	0.37094
2028.84980	0.36820
2026.92124	0.36538
2024.99268	0.36251
2023.06411	0.35974
2021.13555	0.35707
2019.20698	0.35442
2017.27842	0.35173
2015.34985	0.34894
2013.42129	0.34618
2011.49272	0.34347
2009.56416	0.34073
2007.63560	0.33799
2005.70703	0.33529
2003.77847	0.33262
2001.84990	0.32998
1999.92134	0.32732
1997.99277	0.32466
1996.06421	0.32207
1994.13564	0.31960
1992.20708	0.31716
1990.27852	0.31457
1988.34995	0.31195
1986.42139	0.30940
1984.49282	0.30700
1982.56426	0.30475
1980.63569	0.30255
1978.70713	0.30034
1976.77856	0.29811
1974.85000	0.29584
1972.92144	0.29354
1970.99287	0.29131
1969.06431	0.28931
1967.13574	0.28751
1965.20718	0.28559
1963.27861	0.28351
1961.35005	0.28152
1959.42148	0.27967
1957.49292	0.27787
1955.56436	0.27604
1953.63579	0.27411
1951.70723	0.27220
1949.77866	0.27044
1947.85010	0.26887
1945.92153	0.26751
1943.99297	0.26632
1942.06440	0.26508
1940.13584	0.26359
1938.20728	0.26196
1936.27871	0.26041
1934.35015	0.25906
1932.42158	0.25793
1930.49302	0.25686
1928.56445	0.25578
1926.63589	0.25466
1924.70732	0.25369
1922.77876	0.25292
1920.85020	0.25208
1918.92163	0.25125
1916.99307	0.25039
1915.06450	0.24930
1913.13594	0.24821
1911.20737	0.24749
1909.27881	0.24703
1907.35024	0.24640
1905.42168	0.24554
1903.49312	0.24478
1901.56455	0.24421
1899.63599	0.24370
1897.70742	0.24329
1895.77886	0.24298
1893.85029	0.24272
1891.92173	0.24247
1889.99316	0.24237
1888.06460	0.24218
1886.13604	0.24174
1884.20747	0.24134
1882.27891	0.24113
1880.35034	0.24107
1878.42178	0.24105
1876.49321	0.24100
1874.56465	0.24087
1872.63608	0.24095
1870.70752	0.24147
1868.77896	0.24239
1866.85039	0.24285
1864.92183	0.24261
1862.99326	0.24244
1861.06470	0.24256
1859.13613	0.24288
1857.20757	0.24322
1855.27900	0.24357
1853.35044	0.24398
1851.42187	0.24460
1849.49331	0.24535
1847.56475	0.24617
1845.63618	0.24714
1843.70762	0.24819
1841.77905	0.24880
1839.85049	0.24909
1837.92192	0.24978
1835.99336	0.25065
1834.06479	0.25156
1832.13623	0.25271
1830.20767	0.25436
1828.27910	0.25594
1826.35054	0.25693
1824.42197	0.25812
1822.49341	0.25932
1820.56484	0.26041
1818.63628	0.26168
1816.70771	0.26331
1814.77915	0.26499
1812.85059	0.26683
1810.92202	0.26898
1808.99346	0.27108
1807.06489	0.27297
1805.13633	0.27488
1803.20776	0.27719
1801.27920	0.27984
1799.35063	0.28274
1797.42207	0.28534
1795.49351	0.28780
1793.56494	0.29067
1791.63638	0.29424
1789.70781	0.29750
1787.77925	0.30001
1785.85068	0.30306
1783.92212	0.30667
1781.99355	0.31065
1780.06499	0.31493
1778.13643	0.31927
1776.20786	0.32342
1774.27930	0.32799
1772.35073	0.33406
1770.42217	0.34036
1768.49360	0.34541
1766.56504	0.35031
1764.63647	0.35560
1762.70791	0.36167
1760.77935	0.36931
1758.85078	0.37641
1756.92222	0.38353
1754.99365	0.39127
1753.06509	0.39842
1751.13652	0.40711
1749.20796	0.41793
1747.27939	0.42846
1745.35083	0.43784
1743.42227	0.44769
1741.49370	0.45838
1739.56514	0.47093
1737.63657	0.48348
1735.70801	0.49457
1733.77944	0.51131
1731.85088	0.53099
1729.92231	0.54637
1727.99375	0.56202
1726.06519	0.57888
1724.13662	0.59731
1722.20806	0.61733
1720.27949	0.63601
1718.35093	0.65800
1716.42236	0.69003
1714.49380	0.71990
1712.56523	0.74423
1710.63667	0.76828
1708.70811	0.79426
1706.77954	0.82368
1704.85098	0.85865
1702.92241	0.88980
1700.99385	0.92057
1699.06528	0.96610
1697.13672	1.00795
1695.20815	1.05099
1693.27959	1.09263
1691.35103	1.12587
1689.42246	1.16383
1687.49390	1.20367
1685.56533	1.24241
1683.63677	1.30228
1681.70820	1.36355
1679.77964	1.40246
1677.85107	1.43992
1675.92251	1.48337
1673.99395	1.53691
1672.06538	1.58479
1670.13682	1.63202
1668.20825	1.69125
1666.27969	1.73803
1664.35112	1.77816
1662.42256	1.82866
1660.49399	1.88470
1658.56543	1.92804
1656.63687	1.96376
1654.70830	1.99937
1652.77974	2.05719
1650.85117	2.10752
1648.92261	2.12424
1646.99404	2.14861
1645.06548	2.17893
1643.13691	2.19919
1641.20835	2.21088
1639.27979	2.22110
1637.35122	2.22688
1635.42266	2.22567
1633.49409	2.21823
1631.56553	2.20570
1629.63696	2.19005
1627.70840	2.16528
1625.77983	2.13655
1623.85127	2.09854
1621.92271	2.05047
1619.99414	2.00835
1618.06558	1.96828
1616.13701	1.90970
1614.20845	1.84767
1612.27988	1.80007
1610.35132	1.75099
1608.42275	1.69768
1606.49419	1.64481
1604.56562	1.59594
1602.63706	1.54922
1600.70850	1.50373
1598.77993	1.46126
1596.85137	1.42089
1594.92280	1.38163
1592.99424	1.34381
1591.06567	1.30920
1589.13711	1.27666
1587.20854	1.24616
1585.27998	1.21771
1583.35142	1.19086
1581.42285	1.16613
1579.49429	1.14487
1577.56572	1.12590
1575.63716	1.10253
1573.70859	1.08122
1571.78003	1.06721
1569.85146	1.05255
1567.92290	1.03537
1565.99434	1.02159
1564.06577	1.01058
1562.13721	1.00210
1560.20864	0.99609
1558.28008	0.98594
1556.35151	0.97492
1554.42295	0.96768
1552.49438	0.96074
1550.56582	0.95358
1548.63726	0.94577
1546.70869	0.93788
1544.78013	0.92945
1542.85156	0.91996
1540.92300	0.90766
1538.99443	0.88881
1537.06587	0.87465
1535.13730	0.86524
1533.20874	0.85318
1531.28018	0.84029
1529.35161	0.83126
1527.42305	0.82288
1525.49448	0.81352
1523.56592	0.80522
1521.63735	0.79750
1519.70879	0.78923
1517.78022	0.78194
1515.85166	0.77393
1513.92310	0.76561
1511.99453	0.75845
1510.06597	0.75233
1508.13740	0.74713
1506.20884	0.73868
1504.28027	0.73003
1502.35171	0.72505
1500.42314	0.72106
1498.49458	0.71697
1496.56602	0.71196
1494.63745	0.70666
1492.70889	0.70267
1490.78032	0.69963
1488.85176	0.69580
1486.92319	0.69134
1484.99463	0.68762
1483.06606	0.68461
1481.13750	0.68187
1479.20894	0.67964
1477.28037	0.67826
1475.35181	0.67736
1473.42324	0.67645
1471.49468	0.67464
1469.56611	0.67198
1467.63755	0.66946
1465.70898	0.66740
1463.78042	0.66583
1461.85186	0.66469
1459.92329	0.66400
1457.99473	0.66356
1456.06616	0.66207
1454.13760	0.65924
1452.20903	0.65647
1450.28047	0.65400
1448.35190	0.65176
1446.42334	0.64938
1444.49478	0.64707
1442.56621	0.64501
1440.63765	0.64303
1438.70908	0.64124
1436.78052	0.63936
1434.85195	0.63707
1432.92339	0.63492
1430.99482	0.63334
1429.06626	0.63210
1427.13770	0.63098
1425.20913	0.63009
1423.28057	0.62946
1421.35200	0.62908
1419.42344	0.62878
1417.49487	0.62776
1415.56631	0.62600
1413.63774	0.62436
1411.70918	0.62305
1409.78062	0.62213
1407.85205	0.62155
1405.92349	0.62119
1403.99492	0.62072
1402.06636	0.61980
1400.13779	0.61855
1398.20923	0.61714
1396.28066	0.61560
1394.35210	0.61352
1392.42354	0.61088
1390.49497	0.60851
1388.56641	0.60648
1386.63784	0.60413
1384.70928	0.60132
1382.78071	0.59868
1380.85215	0.59654
1378.92358	0.59484
1376.99502	0.59347
1375.06646	0.59255
1373.13789	0.59187
1371.20933	0.59097
1369.28076	0.58993
1367.35220	0.58883
1365.42363	0.58773
1363.49507	0.58685
1361.56650	0.58588
1359.63794	0.58448
1357.70937	0.58321
1355.78081	0.58223
1353.85225	0.58112
1351.92368	0.57991
1349.99512	0.57892
1348.06655	0.57806
1346.13799	0.57704
1344.20942	0.57585
1342.28086	0.57484
1340.35229	0.57412
1338.42373	0.57332
1336.49517	0.57229
1334.56660	0.57137
1332.63804	0.57073
1330.70947	0.57028
1328.78091	0.56987
1326.85234	0.56939
1324.92378	0.56908
1322.99521	0.56899
1321.06665	0.56885
1319.13809	0.56859
1317.20952	0.56823
1315.28096	0.56776
1313.35239	0.56709
1311.42383	0.56626
1309.49526	0.56538
1307.56670	0.56450
1305.63813	0.56359
1303.70957	0.56255
1301.78101	0.56148
1299.85244	0.56057
1297.92388	0.55978
1295.99531	0.55890
1294.06675	0.55795
1292.13818	0.55715
1290.20962	0.55652
1288.28105	0.55582
1286.35249	0.55500
1284.42393	0.55418
1282.49536	0.55334
1280.56680	0.55241
1278.63823	0.55144
1276.70967	0.55054
1274.78110	0.54977
1272.85254	0.54922
1270.92397	0.54878
1268.99541	0.54826
1267.06685	0.54757
1265.13828	0.54683
1263.20972	0.54634
1261.28115	0.54594
1259.35259	0.54536
1257.42402	0.54484
1255.49546	0.54454
1253.56689	0.54430
1251.63833	0.54402
1249.70977	0.54371
1247.78120	0.54338
1245.85264	0.54293
1243.92407	0.54235
1241.99551	0.54163
1240.06694	0.54082
1238.13838	0.53992
1236.20981	0.53879
1234.28125	0.53750
1232.35269	0.53630
1230.42412	0.53508
1228.49556	0.53377
1226.56699	0.53253
1224.63843	0.53147
1222.70986	0.53041
1220.78130	0.52922
1218.85273	0.52800
1216.92417	0.52690
1214.99561	0.52609
1213.06704	0.52550
1211.13848	0.52484
1209.20991	0.52424
1207.28135	0.52376
1205.35278	0.52306
1203.42422	0.52215
1201.49565	0.52135
1199.56709	0.52074
1197.63853	0.52017
1195.70996	0.51948
1193.78140	0.51873
1191.85283	0.51806
1189.92427	0.51749
1187.99570	0.51700
1186.06714	0.51671
1184.13857	0.51660
1182.21001	0.51662
1180.28145	0.51695
1178.35288	0.51763
1176.42432	0.51829
1174.49575	0.51882
1172.56719	0.51957
1170.63862	0.52058
1168.71006	0.52158
1166.78149	0.52235
1164.85293	0.52294
1162.92437	0.52350
1160.99580	0.52392
1159.06724	0.52416
1157.13867	0.52420
1155.21011	0.52389
1153.28154	0.52299
1151.35298	0.52143
1149.42441	0.51940
1147.49585	0.51706
1145.56729	0.51450
1143.63872	0.51198
1141.71016	0.50983
1139.78159	0.50806
1137.85303	0.50647
1135.92446	0.50506
1133.99590	0.50393
1132.06733	0.50306
1130.13877	0.50240
1128.21021	0.50187
1126.28164	0.50136
1124.35308	0.50089
1122.42451	0.50063
1120.49595	0.50065
1118.56738	0.50077
1116.63882	0.50099
1114.71025	0.50143
1112.78169	0.50198
1110.85312	0.50253
1108.92456	0.50326
1106.99600	0.50417
1105.06743	0.50492
1103.13887	0.50578
1101.21030	0.50715
1099.28174	0.50883
1097.35317	0.51072
1095.42461	0.51318
1093.49604	0.51668
1091.56748	0.52147
1089.63892	0.52748
1087.71035	0.53481
1085.78179	0.54329
1083.85322	0.55204
1081.92466	0.55976
1079.99609	0.56558
1078.06753	0.56908
1076.13896	0.56953
1074.21040	0.56658
1072.28184	0.56103
1070.35327	0.55419
1068.42471	0.54707
1066.49614	0.54022
1064.56758	0.53377
1062.63901	0.52795
1060.71045	0.52311
1058.78188	0.51901
1056.85332	0.51525
1054.92476	0.51195
1052.99619	0.50924
1051.06763	0.50715
1049.13906	0.50575
1047.21050	0.50487
1045.28193	0.50434
1043.35337	0.50433
1041.42480	0.50483
1039.49624	0.50526
1037.56768	0.50533
1035.63911	0.50523
1033.71055	0.50477
1031.78198	0.50371
1029.85342	0.50230
1027.92485	0.50087
1025.99629	0.49961
1024.06772	0.49861
1022.13916	0.49801
1020.21060	0.49779
1018.28203	0.49765
1016.35347	0.49759
1014.42490	0.49774
1012.49634	0.49798
1010.56777	0.49825
1008.63921	0.49866
1006.71064	0.49928
1004.78208	0.50023
1002.85352	0.50170
1000.92495	0.50397
998.99639	0.50725
997.06782	0.51128
995.13926	0.51555
993.21069	0.51956
991.28213	0.52264
989.35356	0.52442
987.42500	0.52512
985.49644	0.52527
983.56787	0.52535
981.63931	0.52574
979.71074	0.52669
977.78218	0.52839
975.85361	0.53067
973.92505	0.53320
971.99648	0.53591
970.06792	0.53912
968.13936	0.54312
966.21079	0.54763
964.28223	0.55223
962.35366	0.55681
960.42510	0.56157
958.49653	0.56682
956.56797	0.57262
954.63940	0.57875
952.71084	0.58500
950.78228	0.59137
948.85371	0.59784
946.92515	0.60401
944.99658	0.61008
943.06802	0.61634
941.13945	0.62243
939.21089	0.62848
937.28232	0.63447
935.35376	0.63992
933.42520	0.64526
931.49663	0.65118
929.56807	0.65766
927.63950	0.66428
925.71094	0.67047
923.78237	0.67649
921.85381	0.68330
919.92524	0.69063
917.99668	0.69755
916.06812	0.70444
914.13955	0.71212
912.21099	0.72031
910.28242	0.72873
908.35386	0.73778
906.42529	0.74764
904.49673	0.75784
902.56816	0.76752
900.63960	0.77620
898.71104	0.78452
896.78247	0.79376
894.85391	0.80397
892.92534	0.81438
890.99678	0.82491
889.06821	0.83601
887.13965	0.84811
885.21108	0.86066
883.28252	0.87258
881.35396	0.88356
879.42539	0.89405
877.49683	0.90466
875.56826	0.91602
873.63970	0.92857
871.71113	0.94106
869.78257	0.95312
867.85400	0.96652
865.92544	0.97984
863.99687	0.99107
862.06831	1.00195
860.13975	1.01347
858.21118	1.02409
856.28262	1.03367
854.35405	1.04557
852.42549	1.06016
850.49692	1.07407
848.56836	1.08684
846.63979	1.09938
844.71123	1.11193
842.78267	1.12423
840.85410	1.13764
838.92554	1.15186
836.99697	1.16295
835.06841	1.17288
833.13984	1.18534
831.21128	1.19833
829.28271	1.21117
827.35415	1.22805
825.42559	1.25060
823.49702	1.27334
821.56846	1.28842
819.63989	1.29169
817.71133	1.29286
815.78276	1.30828
813.85420	1.33736
811.92563	1.36970
809.99707	1.40498
808.06851	1.44619
806.13994	1.48264
804.21138	1.49812
802.28281	1.51021
800.35425	1.54461
798.42568	1.58719
796.49712	1.61624
794.56855	1.64993
792.63999	1.72495
790.71143	1.79751
788.78286	1.91537
786.85430	3.08896
784.92573	4.70955
782.99717	2.43883
781.06860	1.57413
779.14004	1.42033
777.21147	1.47521
775.28291	1.55330
773.35435	1.51451
771.42578	1.46925
769.49722	1.54393
767.56865	1.65456
765.64009	1.56882
763.71152	1.41726
761.78296	1.32538
759.85439	1.32105
757.92583	1.29544
755.99727	1.17168
754.06870	1.08669
752.14014	1.04268
750.21157	1.01427
748.28301	0.98802
746.35444	0.98216
744.42588	1.00830
742.49731	0.97474
740.56875	0.86965
738.64019	0.81395
736.71162	0.79218
734.78306	0.70965
732.85449	0.55628
730.92593	0.42113
728.99736	0.33085
727.06880	0.24678
725.14023	0.14832
723.21167	0.07754
721.28311	0.07325
719.35454	0.13177
717.42598	0.17181
715.49741	0.20175
713.56885	0.22024
711.64028	0.19398
709.71172	0.16889
707.78315	0.18773
705.85459	0.24809
703.92603	0.25383
701.99746	0.23607
700.06890	0.25778
698.14033	0.30725
696.21177	0.31474
694.28320	0.24703
692.35464	0.20137
690.42607	0.23702
688.49751	0.30021
686.56895	0.32535
684.64038	0.31215
682.71182	0.29939
680.78325	0.30501
678.85469	0.34564
676.92612	0.42846
674.99756	0.50707
673.06899	0.44624
671.14043	0.30507
669.21187	0.19874
667.28330	0.13627
665.35474	0.12828
663.42617	0.17183
661.49761	0.23740
659.56904	0.28574
657.64048	0.32970
655.71191	0.36870
653.78335	0.31445
651.85479	0.25465
649.92622	0.27410
647.99766	0.34116
646.06909	0.36604
644.14053	0.33427
642.21196	0.29156
640.28340	0.24568
638.35483	0.22152
636.42627	0.21168
634.49771	0.19906
632.56914	0.19965
630.64058	0.21734
628.71201	0.22765
626.78345	0.24001
624.85488	0.26795
622.92632	0.24965
620.99775	0.19502
619.06919	0.18596
617.14062	0.21216
615.21206	0.23652
613.28350	0.27808
611.35493	0.31855
609.42637	0.30573
607.49780	0.30150
605.56924	0.32219
603.64067	0.30576
601.71211	0.24694
599.78354	0.20814
597.85498	0.20035
595.92642	0.18705
593.99785	0.17514
592.06929	0.17390
590.14072	0.17964
588.21216	0.20159
586.28359	0.22615
584.35503	0.22952
582.42646	0.23014
580.49790	0.23896
578.56934	0.22984
576.64077	0.22661
574.71221	0.25437
572.78364	0.26708
570.85508	0.23012
568.92651	0.21972
566.99795	0.26613
565.06938	0.28195
563.14082	0.25405
561.21226	0.23295
559.28369	0.21590
557.35513	0.20315
555.42656	0.18462
553.49800	0.16375
551.56943	0.14640
549.64087	0.12620
547.71230	0.12300
545.78374	0.15391
543.85518	0.20224
541.92661	0.21608
539.99805	0.17344
538.06948	0.13347
536.14092	0.11221
534.21235	0.10328
532.28379	0.10397
530.35522	0.12028
528.42666	0.13627
526.49810	0.12908
524.56953	0.14011
522.64097	0.17010
520.71240	0.17264
518.78384	0.16485
516.85527	0.18357
514.92671	0.21858
512.99814	0.23070
511.06958	0.21770
509.14102	0.20845
507.21245	0.19449
505.28389	0.16779
503.35532	0.13956
501.42676	0.13966
499.49819	0.17288
