3997.91411	0.07292
3995.98555	0.07320
3994.05698	0.07263
3992.12842	0.07245
3990.19985	0.07292
3988.27129	0.07340
3986.34272	0.07408
3984.41416	0.07482
3982.48560	0.07507
3980.55703	0.07512
3978.62847	0.07524
3976.69990	0.07522
3974.77134	0.07515
3972.84277	0.07530
3970.91421	0.07544
3968.98564	0.07543
3967.05708	0.07547
3965.12852	0.07563
3963.19995	0.07593
3961.27139	0.07632
3959.34282	0.07667
3957.41426	0.07678
3955.48569	0.07650
3953.55713	0.07614
3951.62856	0.07625
3949.70000	0.07706
3947.77144	0.07795
3945.84287	0.07815
3943.91431	0.07789
3941.98574	0.07749
3940.05718	0.07694
3938.12861	0.07643
3936.20005	0.07613
3934.27148	0.07634
3932.34292	0.07716
3930.41436	0.07789
3928.48579	0.07779
3926.55723	0.07725
3924.62866	0.07698
3922.70010	0.07659
3920.77153	0.07596
3918.84297	0.07584
3916.91440	0.07634
3914.98584	0.07647
3913.05728	0.07577
3911.12871	0.07532
3909.20015	0.07563
3907.27158	0.07613
3905.34302	0.07663
3903.41445	0.07719
3901.48589	0.07738
3899.55732	0.07748
3897.62876	0.07780
3895.70020	0.07762
3893.77163	0.07702
3891.84307	0.07661
3889.91450	0.07649
3887.98594	0.07641
3886.05737	0.07666
3884.12881	0.07750
3882.20024	0.07830
3880.27168	0.07814
3878.34312	0.07711
3876.41455	0.07674
3874.48599	0.07765
3872.55742	0.07874
3870.62886	0.07918
3868.70029	0.07931
3866.77173	0.07901
3864.84316	0.07900
3862.91460	0.07951
3860.98604	0.07963
3859.05747	0.07976
3857.12891	0.08029
3855.20034	0.08096
3853.27178	0.08223
3851.34321	0.08354
3849.41465	0.08313
3847.48608	0.08248
3845.55752	0.08272
3843.62896	0.08369
3841.70039	0.08485
3839.77183	0.08575
3837.84326	0.08618
3835.91470	0.08678
3833.98613	0.08786
3832.05757	0.08855
3830.12900	0.08876
3828.20044	0.08906
3826.27187	0.08972
3824.34331	0.09059
3822.41475	0.09179
3820.48618	0.09398
3818.55762	0.09522
3816.62905	0.09475
3814.70049	0.09492
3812.77192	0.09564
3810.84336	0.09617
3808.91479	0.09697
3806.98623	0.09841
3805.05767	0.10027
3803.12910	0.10197
3801.20054	0.10354
3799.27197	0.10449
3797.34341	0.10465
3795.41484	0.10522
3793.48628	0.10605
3791.55771	0.10644
3789.62915	0.10695
3787.70059	0.10847
3785.77202	0.11081
3783.84346	0.11296
3781.91489	0.11445
3779.98633	0.11566
3778.05776	0.11698
3776.12920	0.11827
3774.20063	0.11950
3772.27207	0.12100
3770.34351	0.12322
3768.41494	0.12574
3766.48638	0.12771
3764.55781	0.12980
3762.62925	0.13186
3760.70068	0.13371
3758.77212	0.13626
3756.84355	0.13916
3754.91499	0.14136
3752.98643	0.14356
3751.05786	0.14701
3749.12930	0.15119
3747.20073	0.15382
3745.27217	0.15580
3743.34360	0.15876
3741.41504	0.16172
3739.48647	0.16429
3737.55791	0.16765
3735.62935	0.17249
3733.70078	0.17810
3731.77222	0.18244
3729.84365	0.18552
3727.91509	0.18876
3725.98652	0.19386
3724.05796	0.20100
3722.12939	0.20865
3720.20083	0.21610
3718.27227	0.22313
3716.34370	0.23018
3714.41514	0.23737
3712.48657	0.24598
3710.55801	0.25866
3708.62944	0.27269
3706.70088	0.28406
3704.77231	0.29506
3702.84375	0.30812
3700.91519	0.32446
3698.98662	0.34199
3697.05806	0.35902
3695.12949	0.37737
3693.20093	0.39692
3691.27236	0.41815
3689.34380	0.44532
3687.41523	0.47896
3685.48667	0.50916
3683.55811	0.53542
3681.62954	0.56341
3679.70098	0.59468
3677.77241	0.62730
3675.84385	0.66545
3673.91528	0.71678
3671.98672	0.75939
3670.05815	0.79730
3668.12959	0.84930
3666.20103	0.89737
3664.27246	0.93772
3662.34390	0.98066
3660.41533	1.02688
3658.48677	1.07265
3656.55820	1.12127
3654.62964	1.17527
3652.70107	1.22075
3650.77251	1.26003
3648.84395	1.31427
3646.91538	1.38178
3644.98682	1.43161
3643.05825	1.46989
3641.12969	1.50934
3639.20112	1.55282
3637.27256	1.59680
3635.34399	1.64020
3633.41543	1.68353
3631.48687	1.72259
3629.55830	1.76076
3627.62974	1.81221
3625.70117	1.86219
3623.77261	1.89679
3621.84404	1.93000
3619.91548	1.96754
3617.98691	2.01238
3616.05835	2.05615
3614.12979	2.09387
3612.20122	2.13370
3610.27266	2.17268
3608.34409	2.21049
3606.41553	2.25144
3604.48696	2.29115
3602.55840	2.32690
3600.62983	2.36498
3598.70127	2.40622
3596.77271	2.44624
3594.84414	2.48714
3592.91558	2.53060
3590.98701	2.57171
3589.05845	2.60838
3587.12988	2.65051
3585.20132	2.69816
3583.27275	2.73973
3581.34419	2.77854
3579.41562	2.82082
3577.48706	2.86414
3575.55850	2.90474
3573.62993	2.94535
3571.70137	2.98586
3569.77280	3.02467
3567.84424	3.06637
3565.91567	3.11898
3563.98711	3.17174
3562.05854	3.21545
3560.12998	3.25898
3558.20142	3.30519
3556.27285	3.34985
3554.34429	3.39170
3552.41572	3.43599
3550.48716	3.48287
3548.55859	3.52844
3546.63003	3.57340
3544.70146	3.62057
3542.77290	3.66752
3540.84434	3.71272
3538.91577	3.75658
3536.98721	3.79916
3535.05864	3.84730
3533.13008	3.89942
3531.20151	3.94765
3529.27295	3.99422
3527.34438	4.04475
3525.41582	4.09558
3523.48726	4.14321
3521.55869	4.19105
3519.63013	4.23728
3517.70156	4.28168
3515.77300	4.32924
3513.84443	4.38009
3511.91587	4.42940
3509.98730	4.47897
3508.05874	4.53093
3506.13018	4.57889
3504.20161	4.62319
3502.27305	4.67190
3500.34448	4.72212
3498.41592	4.76954
3496.48735	4.81938
3494.55879	4.87115
3492.63022	4.92131
3490.70166	4.96912
3488.77310	5.01408
3486.84453	5.05722
3484.91597	5.10501
3482.98740	5.15787
3481.05884	5.20763
3479.13027	5.25627
3477.20171	5.30831
3475.27314	5.35776
3473.34458	5.40213
3471.41602	5.44273
3469.48745	5.47706
3467.55889	5.51415
3465.63032	5.56361
3463.70176	5.61653
3461.77319	5.66956
3459.84463	5.73353
3457.91606	5.79449
3455.98750	5.83129
3454.05894	5.86433
3452.13037	5.92171
3450.20181	5.98909
3448.27324	6.03773
3446.34468	6.07931
3444.41611	6.13734
3442.48755	6.20340
3440.55898	6.25391
3438.63042	6.28997
3436.70186	6.32291
3434.77329	6.36041
3432.84473	6.41961
3430.91616	6.48633
3428.98760	6.53170
3427.05903	6.56474
3425.13047	6.60768
3423.20190	6.65383
3421.27334	6.69828
3419.34478	6.74190
3417.41621	6.77175
3415.48765	6.80982
3413.55908	6.88924
3411.63052	6.97334
3409.70195	7.00661
3407.77339	7.01250
3405.84482	7.01738
3403.91626	7.02643
3401.98770	7.05873
3400.05913	7.12350
3398.13057	7.17899
3396.20200	7.20053
3394.27344	7.24706
3392.34487	7.32221
3390.41631	7.37166
3388.48774	7.40609
3386.55918	7.46859
3384.63062	7.52496
3382.70205	7.54513
3380.77349	7.56138
3378.84492	7.58417
3376.91636	7.60541
3374.98779	7.60911
3373.05923	7.59699
3371.13066	7.59622
3369.20210	7.64538
3367.27354	7.71194
3365.34497	7.73661
3363.41641	7.74620
3361.48784	7.77463
3359.55928	7.80511
3357.63071	7.82520
3355.70215	7.83353
3353.77358	7.83177
3351.84502	7.84940
3349.91646	7.88055
3347.98789	7.94386
3346.05933	8.00556
3344.13076	8.00340
3342.20220	7.97137
3340.27363	7.89308
3338.34507	7.81434
3336.41650	7.83225
3334.48794	7.90364
3332.55937	7.91950
3330.63081	7.93305
3328.70225	7.97110
3326.77368	7.97070
3324.84512	7.97286
3322.91655	7.99289
3320.98799	8.01407
3319.05942	8.08075
3317.13086	8.17553
3315.20229	8.13888
3313.27373	8.01004
3311.34517	7.99239
3309.41660	8.09196
3307.48804	8.13115
3305.55947	8.05020
3303.63091	7.99333
3301.70234	7.97053
3299.77378	7.96391
3297.84521	8.04261
3295.91665	8.11832
3293.98809	8.07700
3292.05952	8.03568
3290.13096	8.05451
3288.20239	8.08525
3286.27383	8.11769
3284.34526	8.13907
3282.41670	8.14993
3280.48813	8.17904
3278.55957	8.23075
3276.63101	8.25576
3274.70244	8.26715
3272.77388	8.27378
3270.84531	8.19797
3268.91675	8.09186
3266.98818	8.10620
3265.05962	8.17737
3263.13105	8.11475
3261.20249	8.03429
3259.27393	8.05056
3257.34536	8.08895
3255.41680	8.09354
3253.48823	8.05003
3251.55967	7.98815
3249.63110	7.99397
3247.70254	8.04926
3245.77397	8.04771
3243.84541	8.04097
3241.91685	8.05771
3239.98828	8.04727
3238.05972	8.00946
3236.13115	7.93497
3234.20259	7.89143
3232.27402	7.95912
3230.34546	8.06246
3228.41689	8.09183
3226.48833	8.10585
3224.55977	8.12473
3222.63120	8.07535
3220.70264	7.99918
3218.77407	7.98694
3216.84551	7.99650
3214.91694	7.92338
3212.98838	7.81973
3211.05981	7.77761
3209.13125	7.79349
3207.20269	7.83609
3205.27412	7.86493
3203.34556	7.83178
3201.41699	7.76313
3199.48843	7.73012
3197.55986	7.71525
3195.63130	7.66014
3193.70273	7.58940
3191.77417	7.54524
3189.84561	7.53606
3187.91704	7.53869
3185.98848	7.52252
3184.05991	7.47737
3182.13135	7.37845
3180.20278	7.27135
3178.27422	7.22664
3176.34565	7.20884
3174.41709	7.17118
3172.48853	7.13098
3170.55996	7.09112
3168.63140	7.03707
3166.70283	6.97797
3164.77427	6.92699
3162.84570	6.87433
3160.91714	6.80677
3158.98857	6.73212
3157.06001	6.65882
3155.13145	6.58708
3153.20288	6.51363
3151.27432	6.45294
3149.34575	6.40645
3147.41719	6.33773
3145.48862	6.25634
3143.56006	6.18487
3141.63149	6.10645
3139.70293	6.02625
3137.77437	5.95867
3135.84580	5.89224
3133.91724	5.81403
3131.98867	5.73627
3130.06011	5.67698
3128.13154	5.61791
3126.20298	5.53924
3124.27441	5.46099
3122.34585	5.39504
3120.41729	5.32618
3118.48872	5.25102
3116.56016	5.18108
3114.63159	5.11766
3112.70303	5.05506
3110.77446	4.99131
3108.84590	4.92346
3106.91733	4.85258
3104.98877	4.78293
3103.06021	4.70981
3101.13164	4.63199
3099.20308	4.55857
3097.27451	4.49041
3095.34595	4.42352
3093.41738	4.35928
3091.48882	4.29763
3089.56025	4.23410
3087.63169	4.16673
3085.70312	4.09996
3083.77456	4.03820
3081.84600	3.98055
3079.91743	3.92287
3077.98887	3.86264
3076.06030	3.79963
3074.13174	3.73681
3072.20317	3.67777
3070.27461	3.62085
3068.34604	3.56357
3066.41748	3.50616
3064.48892	3.44912
3062.56035	3.39180
3060.63179	3.33420
3058.70322	3.27856
3056.77466	3.22584
3054.84609	3.17418
3052.91753	3.12168
3050.98896	3.06893
3049.06040	3.01702
3047.13184	2.96572
3045.20327	2.91571
3043.27471	2.86728
3041.34614	2.81865
3039.41758	2.76940
3037.48901	2.72047
3035.56045	2.67241
3033.63188	2.62616
3031.70332	2.58170
3029.77476	2.53758
3027.84619	2.49350
3025.91763	2.44992
3023.98906	2.40738
3022.06050	2.36666
3020.13193	2.32651
3018.20337	2.28501
3016.27480	2.24329
3014.34624	2.20321
3012.41768	2.16420
3010.48911	2.12581
3008.56055	2.08824
3006.63198	2.05132
3004.70342	2.01511
3002.77485	1.97931
3000.84629	1.94386
2998.91772	1.90937
2996.98916	1.87616
2995.06060	1.84412
2993.13203	1.81257
2991.20347	1.78117
2989.27490	1.75029
2987.34634	1.72018
2985.41777	1.69090
2983.48921	1.66207
2981.56064	1.63304
2979.63208	1.60429
2977.70352	1.57652
2975.77495	1.54952
2973.84639	1.52299
2971.91782	1.49699
2969.98926	1.47142
2968.06069	1.44628
2966.13213	1.42175
2964.20356	1.39742
2962.27500	1.37298
2960.34644	1.34884
2958.41787	1.32520
2956.48931	1.30162
2954.56074	1.27793
2952.63218	1.25453
2950.70361	1.23158
2948.77505	1.20926
2946.84648	1.18791
2944.91792	1.16690
2942.98936	1.14553
2941.06079	1.12462
2939.13223	1.10467
2937.20366	1.08459
2935.27510	1.06451
2933.34653	1.04525
2931.41797	1.02597
2929.48940	1.00643
2927.56084	0.98732
2925.63228	0.96848
2923.70371	0.94991
2921.77515	0.93245
2919.84658	0.91660
2917.91802	0.90134
2915.98945	0.88553
2914.06089	0.86944
2912.13232	0.85352
2910.20376	0.83805
2908.27520	0.82365
2906.34663	0.80987
2904.41807	0.79586
2902.48950	0.78199
2900.56094	0.76869
2898.63237	0.75576
2896.70381	0.74297
2894.77524	0.73037
2892.84668	0.71792
2890.91812	0.70577
2888.98955	0.69428
2887.06099	0.68337
2885.13242	0.67290
2883.20386	0.66276
2881.27529	0.65251
2879.34673	0.64204
2877.41816	0.63175
2875.48960	0.62180
2873.56104	0.61204
2871.63247	0.60214
2869.70391	0.59164
2867.77534	0.58065
2865.84678	0.56942
2863.91821	0.55818
2861.98965	0.54744
2860.06108	0.53731
2858.13252	0.52749
2856.20396	0.51801
2854.27539	0.50904
2852.34683	0.50045
2850.41826	0.49248
2848.48970	0.48496
2846.56113	0.47738
2844.63257	0.47010
2842.70400	0.46341
2840.77544	0.45696
2838.84687	0.45073
2836.91831	0.44491
2834.98975	0.43923
2833.06118	0.43329
2831.13262	0.42697
2829.20405	0.42068
2827.27549	0.41465
2825.34692	0.40874
2823.41836	0.40293
2821.48979	0.39714
2819.56123	0.39138
2817.63267	0.38578
2815.70410	0.38030
2813.77554	0.37492
2811.84697	0.36970
2809.91841	0.36466
2807.98984	0.35966
2806.06128	0.35453
2804.13271	0.34933
2802.20415	0.34431
2800.27559	0.33956
2798.34702	0.33498
2796.41846	0.33039
2794.48989	0.32577
2792.56133	0.32113
2790.63276	0.31654
2788.70420	0.31220
2786.77563	0.30803
2784.84707	0.30376
2782.91851	0.29957
2780.98994	0.29556
2779.06138	0.29160
2777.13281	0.28788
2775.20425	0.28454
2773.27568	0.28117
2771.34712	0.27746
2769.41855	0.27365
2767.48999	0.27015
2765.56143	0.26685
2763.63286	0.26348
2761.70430	0.26009
2759.77573	0.25681
2757.84717	0.25376
2755.91860	0.25092
2753.99004	0.24805
2752.06147	0.24509
2750.13291	0.24212
2748.20435	0.23918
2746.27578	0.23650
2744.34722	0.23406
2742.41865	0.23165
2740.49009	0.22913
2738.56152	0.22647
2736.63296	0.22383
2734.70439	0.22133
2732.77583	0.21908
2730.84727	0.21721
2728.91870	0.21547
2726.99014	0.21355
2725.06157	0.21137
2723.13301	0.20901
2721.20444	0.20664
2719.27588	0.20454
2717.34731	0.20264
2715.41875	0.20072
2713.49019	0.19878
2711.56162	0.19696
2709.63306	0.19538
2707.70449	0.19393
2705.77593	0.19245
2703.84736	0.19092
2701.91880	0.18938
2699.99023	0.18789
2698.06167	0.18654
2696.13311	0.18530
2694.20454	0.18391
2692.27598	0.18243
2690.34741	0.18108
2688.41885	0.17984
2686.49028	0.17859
2684.56172	0.17735
2682.63315	0.17610
2680.70459	0.17489
2678.77603	0.17380
2676.84746	0.17279
2674.91890	0.17179
2672.99033	0.17078
2671.06177	0.16979
2669.13320	0.16884
2667.20464	0.16802
2665.27607	0.16726
2663.34751	0.16647
2661.41895	0.16578
2659.49038	0.16506
2657.56182	0.16417
2655.63325	0.16324
2653.70469	0.16245
2651.77612	0.16180
2649.84756	0.16115
2647.91899	0.16041
2645.99043	0.15983
2644.06187	0.15949
2642.13330	0.15909
2640.20474	0.15857
2638.27617	0.15807
2636.34761	0.15754
2634.41904	0.15705
2632.49048	0.15666
2630.56191	0.15625
2628.63335	0.15583
2626.70479	0.15548
2624.77622	0.15516
2622.84766	0.15490
2620.91909	0.15466
2618.99053	0.15437
2617.06196	0.15409
2615.13340	0.15393
2613.20483	0.15389
2611.27627	0.15389
2609.34771	0.15385
2607.41914	0.15375
2605.49058	0.15370
2603.56201	0.15366
2601.63345	0.15361
2599.70488	0.15376
2597.77632	0.15403
2595.84775	0.15411
2593.91919	0.15399
2591.99062	0.15388
2590.06206	0.15393
2588.13350	0.15413
2586.20493	0.15437
2584.27637	0.15464
2582.34780	0.15491
2580.41924	0.15512
2578.49067	0.15524
2576.56211	0.15547
2574.63354	0.15590
2572.70498	0.15633
2570.77642	0.15672
2568.84785	0.15709
2566.91929	0.15745
2564.99072	0.15783
2563.06216	0.15821
2561.13359	0.15855
2559.20503	0.15902
2557.27646	0.15968
2555.34790	0.16031
2553.41934	0.16081
2551.49077	0.16128
2549.56221	0.16169
2547.63364	0.16212
2545.70508	0.16273
2543.77651	0.16349
2541.84795	0.16427
2539.91938	0.16500
2537.99082	0.16561
2536.06226	0.16617
2534.13369	0.16686
2532.20513	0.16767
2530.27656	0.16845
2528.34800	0.16908
2526.41943	0.16958
2524.49087	0.17017
2522.56230	0.17101
2520.63374	0.17193
2518.70518	0.17281
2516.77661	0.17359
2514.84805	0.17423
2512.91948	0.17489
2510.99092	0.17571
2509.06235	0.17665
2507.13379	0.17750
2505.20522	0.17815
2503.27666	0.17880
2501.34810	0.17953
2499.41953	0.18025
2497.49097	0.18111
2495.56240	0.18221
2493.63384	0.18334
2491.70527	0.18427
2489.77671	0.18511
2487.84814	0.18589
2485.91958	0.18669
2483.99102	0.18761
2482.06245	0.18863
2480.13389	0.18965
2478.20532	0.19059
2476.27676	0.19145
2474.34819	0.19233
2472.41963	0.19316
2470.49106	0.19403
2468.56250	0.19508
2466.63394	0.19616
2464.70537	0.19710
2462.77681	0.19793
2460.84824	0.19879
2458.91968	0.19974
2456.99111	0.20072
2455.06255	0.20166
2453.13398	0.20260
2451.20542	0.20355
2449.27686	0.20451
2447.34829	0.20551
2445.41973	0.20657
2443.49116	0.20763
2441.56260	0.20857
2439.63403	0.20939
2437.70547	0.21029
2435.77690	0.21141
2433.84834	0.21257
2431.91978	0.21362
2429.99121	0.21463
2428.06265	0.21570
2426.13408	0.21684
2424.20552	0.21791
2422.27695	0.21892
2420.34839	0.22004
2418.41982	0.22129
2416.49126	0.22250
2414.56270	0.22360
2412.63413	0.22470
2410.70557	0.22589
2408.77700	0.22708
2406.84844	0.22818
2404.91987	0.22922
2402.99131	0.23036
2401.06274	0.23164
2399.13418	0.23290
2397.20562	0.23404
2395.27705	0.23515
2393.34849	0.23634
2391.41992	0.23757
2389.49136	0.23877
2387.56279	0.24000
2385.63423	0.24121
2383.70566	0.24212
2381.77710	0.24273
2379.84854	0.24333
2377.91997	0.24395
2375.99141	0.24426
2374.06284	0.24397
2372.13428	0.24333
2370.20571	0.24316
2368.27715	0.24367
2366.34858	0.24393
2364.42002	0.24316
2362.49146	0.24287
2360.56289	0.24367
2358.63433	0.24418
2356.70576	0.24571
2354.77720	0.24988
2352.84863	0.25531
2350.92007	0.25980
2348.99150	0.26222
2347.06294	0.26286
2345.13437	0.26276
2343.20581	0.26340
2341.27725	0.26496
2339.34868	0.26634
2337.42012	0.26770
2335.49155	0.26972
2333.56299	0.27201
2331.63442	0.27401
2329.70586	0.27582
2327.77729	0.27791
2325.84873	0.28023
2323.92017	0.28243
2321.99160	0.28468
2320.06304	0.28726
2318.13447	0.28985
2316.20591	0.29204
2314.27734	0.29405
2312.34878	0.29628
2310.42021	0.29873
2308.49165	0.30110
2306.56309	0.30334
2304.63452	0.30544
2302.70596	0.30737
2300.77739	0.30926
2298.84883	0.31130
2296.92026	0.31348
2294.99170	0.31566
2293.06313	0.31780
2291.13457	0.31992
2289.20601	0.32198
2287.27744	0.32398
2285.34888	0.32604
2283.42031	0.32817
2281.49175	0.33021
2279.56318	0.33214
2277.63462	0.33411
2275.70605	0.33615
2273.77749	0.33815
2271.84893	0.34016
2269.92036	0.34232
2267.99180	0.34452
2266.06323	0.34662
2264.13467	0.34870
2262.20610	0.35071
2260.27754	0.35270
2258.34897	0.35482
2256.42041	0.35698
2254.49185	0.35918
2252.56328	0.36145
2250.63472	0.36365
2248.70615	0.36581
2246.77759	0.36808
2244.84902	0.37038
2242.92046	0.37255
2240.99189	0.37463
2239.06333	0.37675
2237.13477	0.37896
2235.20620	0.38126
2233.27764	0.38362
2231.34907	0.38597
2229.42051	0.38825
2227.49194	0.39038
2225.56338	0.39243
2223.63481	0.39462
2221.70625	0.39701
2219.77769	0.39937
2217.84912	0.40141
2215.92056	0.40338
2213.99199	0.40563
2212.06343	0.40795
2210.13486	0.41012
2208.20630	0.41217
2206.27773	0.41421
2204.34917	0.41635
2202.42061	0.41843
2200.49204	0.42033
2198.56348	0.42217
2196.63491	0.42405
2194.70635	0.42609
2192.77778	0.42825
2190.84922	0.43015
2188.92065	0.43182
2186.99209	0.43353
2185.06353	0.43528
2183.13496	0.43707
2181.20640	0.43891
2179.27783	0.44063
2177.34927	0.44217
2175.42070	0.44373
2173.49214	0.44534
2171.56357	0.44680
2169.63501	0.44812
2167.70645	0.44931
2165.77788	0.45036
2163.84932	0.45142
2161.92075	0.45258
2159.99219	0.45375
2158.06362	0.45480
2156.13506	0.45576
2154.20649	0.45663
2152.27793	0.45735
2150.34937	0.45801
2148.42080	0.45872
2146.49224	0.45931
2144.56367	0.45972
2142.63511	0.46010
2140.70654	0.46048
2138.77798	0.46077
2136.84941	0.46096
2134.92085	0.46110
2132.99229	0.46107
2131.06372	0.46082
2129.13516	0.46056
2127.20659	0.46030
2125.27803	0.45995
2123.34946	0.45951
2121.42090	0.45898
2119.49233	0.45832
2117.56377	0.45762
2115.63521	0.45685
2113.70664	0.45593
2111.77808	0.45492
2109.84951	0.45394
2107.92095	0.45294
2105.99238	0.45188
2104.06382	0.45079
2102.13525	0.44953
2100.20669	0.44807
2098.27812	0.44656
2096.34956	0.44506
2094.42100	0.44351
2092.49243	0.44183
2090.56387	0.44007
2088.63530	0.43828
2086.70674	0.43651
2084.77817	0.43467
2082.84961	0.43272
2080.92104	0.43068
2078.99248	0.42869
2077.06392	0.42665
2075.13535	0.42433
2073.20679	0.42195
2071.27822	0.41980
2069.34966	0.41770
2067.42109	0.41539
2065.49253	0.41296
2063.56396	0.41048
2061.63540	0.40796
2059.70684	0.40537
2057.77827	0.40281
2055.84971	0.40036
2053.92114	0.39783
2051.99258	0.39513
2050.06401	0.39243
2048.13545	0.38981
2046.20688	0.38712
2044.27832	0.38441
2042.34976	0.38176
2040.42119	0.37902
2038.49263	0.37617
2036.56406	0.37336
2034.63550	0.37066
2032.70693	0.36801
2030.77837	0.36524
2028.84980	0.36234
2026.92124	0.35952
2024.99268	0.35670
2023.06411	0.35385
2021.13555	0.35112
2019.20698	0.34856
2017.27842	0.34591
2015.34985	0.34304
2013.42129	0.34021
2011.49272	0.33758
2009.56416	0.33500
2007.63560	0.33234
2005.70703	0.32967
2003.77847	0.32705
2001.84990	0.32437
1999.92134	0.32161
1997.99277	0.31891
1996.06421	0.31643
1994.13564	0.31411
1992.20708	0.31173
1990.27852	0.30918
1988.34995	0.30659
1986.42139	0.30402
1984.49282	0.30160
1982.56426	0.29932
1980.63569	0.29699
1978.70713	0.29461
1976.77856	0.29235
1974.85000	0.29021
1972.92144	0.28803
1970.99287	0.28581
1969.06431	0.28374
1967.13574	0.28187
1965.20718	0.27997
1963.27861	0.27797
1961.35005	0.27595
1959.42148	0.27403
1957.49292	0.27230
1955.56436	0.27064
1953.63579	0.26891
1951.70723	0.26716
1949.77866	0.26547
1947.85010	0.26388
1945.92153	0.26236
1943.99297	0.26088
1942.06440	0.25955
1940.13584	0.25826
1938.20728	0.25684
1936.27871	0.25532
1934.35015	0.25386
1932.42158	0.25256
1930.49302	0.25138
1928.56445	0.25032
1926.63589	0.24928
1924.70732	0.24829
1922.77876	0.24741
1920.85020	0.24661
1918.92163	0.24584
1916.99307	0.24492
1915.06450	0.24384
1913.13594	0.24291
1911.20737	0.24231
1909.27881	0.24174
1907.35024	0.24098
1905.42168	0.24023
1903.49312	0.23965
1901.56455	0.23916
1899.63599	0.23866
1897.70742	0.23819
1895.77886	0.23778
1893.85029	0.23741
1891.92173	0.23709
1889.99316	0.23694
1888.06460	0.23673
1886.13604	0.23642
1884.20747	0.23618
1882.27891	0.23604
1880.35034	0.23603
1878.42178	0.23605
1876.49321	0.23600
1874.56465	0.23585
1872.63608	0.23586
1870.70752	0.23620
1868.77896	0.23684
1866.85039	0.23723
1864.92183	0.23718
1862.99326	0.23716
1861.06470	0.23734
1859.13613	0.23770
1857.20757	0.23804
1855.27900	0.23839
1853.35044	0.23882
1851.42187	0.23942
1849.49331	0.24011
1847.56475	0.24085
1845.63618	0.24163
1843.70762	0.24249
1841.77905	0.24323
1839.85049	0.24376
1837.92192	0.24461
1835.99336	0.24560
1834.06479	0.24656
1832.13623	0.24763
1830.20767	0.24914
1828.27910	0.25065
1826.35054	0.25165
1824.42197	0.25279
1822.49341	0.25401
1820.56484	0.25526
1818.63628	0.25665
1816.70771	0.25827
1814.77915	0.25994
1812.85059	0.26172
1810.92202	0.26377
1808.99346	0.26591
1807.06489	0.26789
1805.13633	0.26977
1803.20776	0.27198
1801.27920	0.27452
1799.35063	0.27742
1797.42207	0.28012
1795.49351	0.28252
1793.56494	0.28505
1791.63638	0.28849
1789.70781	0.29205
1787.77925	0.29474
1785.85068	0.29780
1783.92212	0.30144
1781.99355	0.30536
1780.06499	0.30952
1778.13643	0.31381
1776.20786	0.31783
1774.27930	0.32215
1772.35073	0.32802
1770.42217	0.33446
1768.49360	0.33987
1766.56504	0.34500
1764.63647	0.35022
1762.70791	0.35597
1760.77935	0.36343
1758.85078	0.37065
1756.92222	0.37788
1754.99365	0.38560
1753.06509	0.39255
1751.13652	0.40080
1749.20796	0.41119
1747.27939	0.42164
1745.35083	0.43096
1743.42227	0.44078
1741.49370	0.45155
1739.56514	0.46424
1737.63657	0.47696
1735.70801	0.48801
1733.77944	0.50439
1731.85088	0.52401
1729.92231	0.53957
1727.99375	0.55537
1726.06519	0.57247
1724.13662	0.59103
1722.20806	0.61080
1720.27949	0.62886
1718.35093	0.65007
1716.42236	0.68201
1714.49380	0.71272
1712.56523	0.73752
1710.63667	0.76158
1708.70811	0.78746
1706.77954	0.81667
1704.85098	0.85150
1702.92241	0.88267
1700.99385	0.91351
1699.06528	0.95935
1697.13672	1.00172
1695.20815	1.04589
1693.27959	1.08939
1691.35103	1.12445
1689.42246	1.16414
1687.49390	1.20541
1685.56533	1.24534
1683.63677	1.30770
1681.70820	1.37273
1679.77964	1.41499
1677.85107	1.45542
1675.92251	1.50119
1673.99395	1.55715
1672.06538	1.60709
1670.13682	1.65594
1668.20825	1.71920
1666.27969	1.77104
1664.35112	1.81527
1662.42256	1.87111
1660.49399	1.93338
1658.56543	1.98025
1656.63687	2.01737
1654.70830	2.05150
1652.77974	2.10534
1650.85117	2.15846
1648.92261	2.17805
1646.99404	2.20210
1645.06548	2.23144
1643.13691	2.25214
1641.20835	2.26448
1639.27979	2.27468
1637.35122	2.27831
1635.42266	2.27287
1633.49409	2.26600
1631.56553	2.25737
1629.63696	2.24296
1627.70840	2.21469
1625.77983	2.18114
1623.85127	2.14073
1621.92271	2.09144
1619.99414	2.04664
1618.06558	2.00237
1616.13701	1.94019
1614.20845	1.87792
1612.27988	1.83006
1610.35132	1.77936
1608.42275	1.72457
1606.49419	1.67068
1604.56562	1.62109
1602.63706	1.57386
1600.70850	1.52844
1598.77993	1.48654
1596.85137	1.44607
1594.92280	1.40598
1592.99424	1.36746
1591.06567	1.33241
1589.13711	1.29948
1587.20854	1.26861
1585.27998	1.23988
1583.35142	1.21303
1581.42285	1.18860
1579.49429	1.16768
1577.56572	1.14865
1575.63716	1.12532
1573.70859	1.10531
1571.78003	1.09295
1569.85146	1.08020
1567.92290	1.06575
1565.99434	1.05464
1564.06577	1.04599
1562.13721	1.03933
1560.20864	1.03509
1558.28008	1.03094
1556.35151	1.02714
1554.42295	1.02415
1552.49438	1.02114
1550.56582	1.01734
1548.63726	1.01189
1546.70869	1.00503
1544.78013	0.99621
1542.85156	0.98479
1540.92300	0.96866
1538.99443	0.94522
1537.06587	0.92884
1535.13730	0.91754
1533.20874	0.90198
1531.28018	0.88532
1529.35161	0.87350
1527.42305	0.86245
1525.49448	0.85065
1523.56592	0.84023
1521.63735	0.83023
1519.70879	0.82016
1517.78022	0.81171
1515.85166	0.80226
1513.92310	0.79251
1511.99453	0.78399
1510.06597	0.77607
1508.13740	0.76809
1506.20884	0.75622
1504.28027	0.74647
1502.35171	0.74110
1500.42314	0.73625
1498.49458	0.73105
1496.56602	0.72498
1494.63745	0.71871
1492.70889	0.71370
1490.78032	0.70953
1488.85176	0.70502
1486.92319	0.70074
1484.99463	0.69742
1483.06606	0.69474
1481.13750	0.69232
1479.20894	0.69040
1477.28037	0.68933
1475.35181	0.68871
1473.42324	0.68802
1471.49468	0.68655
1469.56611	0.68447
1467.63755	0.68229
1465.70898	0.68018
1463.78042	0.67847
1461.85186	0.67747
1459.92329	0.67694
1457.99473	0.67647
1456.06616	0.67497
1454.13760	0.67219
1452.20903	0.66936
1450.28047	0.66652
1448.35190	0.66361
1446.42334	0.66089
1444.49478	0.65864
1442.56621	0.65638
1440.63765	0.65376
1438.70908	0.65101
1436.78052	0.64799
1434.85195	0.64481
1432.92339	0.64221
1430.99482	0.64025
1429.06626	0.63874
1427.13770	0.63772
1425.20913	0.63732
1423.28057	0.63734
1421.35200	0.63728
1419.42344	0.63682
1417.49487	0.63595
1415.56631	0.63487
1413.63774	0.63397
1411.70918	0.63336
1409.78062	0.63322
1407.85205	0.63353
1405.92349	0.63407
1403.99492	0.63447
1402.06636	0.63423
1400.13779	0.63333
1398.20923	0.63174
1396.28066	0.62953
1394.35210	0.62683
1392.42354	0.62377
1390.49497	0.62061
1388.56641	0.61745
1386.63784	0.61399
1384.70928	0.61020
1382.78071	0.60659
1380.85215	0.60333
1378.92358	0.60057
1376.99502	0.59855
1375.06646	0.59712
1373.13789	0.59581
1371.20933	0.59468
1369.28076	0.59382
1367.35220	0.59274
1365.42363	0.59145
1363.49507	0.59026
1361.56650	0.58904
1359.63794	0.58758
1357.70937	0.58622
1355.78081	0.58503
1353.85225	0.58391
1351.92368	0.58294
1349.99512	0.58217
1348.06655	0.58146
1346.13799	0.58067
1344.20942	0.57976
1342.28086	0.57876
1340.35229	0.57791
1338.42373	0.57727
1336.49517	0.57666
1334.56660	0.57602
1332.63804	0.57548
1330.70947	0.57521
1328.78091	0.57516
1326.85234	0.57522
1324.92378	0.57534
1322.99521	0.57545
1321.06665	0.57558
1319.13809	0.57571
1317.20952	0.57563
1315.28096	0.57536
1313.35239	0.57507
1311.42383	0.57463
1309.49526	0.57386
1307.56670	0.57294
1305.63813	0.57216
1303.70957	0.57147
1301.78101	0.57069
1299.85244	0.56981
1297.92388	0.56894
1295.99531	0.56811
1294.06675	0.56717
1292.13818	0.56623
1290.20962	0.56544
1288.28105	0.56464
1286.35249	0.56362
1284.42393	0.56250
1282.49536	0.56140
1280.56680	0.56029
1278.63823	0.55913
1276.70967	0.55805
1274.78110	0.55712
1272.85254	0.55630
1270.92397	0.55548
1268.99541	0.55467
1267.06685	0.55401
1265.13828	0.55348
1263.20972	0.55294
1261.28115	0.55231
1259.35259	0.55158
1257.42402	0.55095
1255.49546	0.55061
1253.56689	0.55043
1251.63833	0.55031
1249.70977	0.55029
1247.78120	0.55024
1245.85264	0.55005
1243.92407	0.54962
1241.99551	0.54889
1240.06694	0.54787
1238.13838	0.54655
1236.20981	0.54491
1234.28125	0.54310
1232.35269	0.54135
1230.42412	0.53970
1228.49556	0.53811
1226.56699	0.53664
1224.63843	0.53526
1222.70986	0.53393
1220.78130	0.53262
1218.85273	0.53133
1216.92417	0.53013
1214.99561	0.52916
1213.06704	0.52832
1211.13848	0.52759
1209.20991	0.52703
1207.28135	0.52647
1205.35278	0.52569
1203.42422	0.52486
1201.49565	0.52408
1199.56709	0.52327
1197.63853	0.52240
1195.70996	0.52158
1193.78140	0.52102
1191.85283	0.52068
1189.92427	0.52030
1187.99570	0.51989
1186.06714	0.51962
1184.13857	0.51957
1182.21001	0.51977
1180.28145	0.52035
1178.35288	0.52130
1176.42432	0.52256
1174.49575	0.52392
1172.56719	0.52491
1170.63862	0.52536
1168.71006	0.52562
1166.78149	0.52598
1164.85293	0.52642
1162.92437	0.52681
1160.99580	0.52698
1159.06724	0.52685
1157.13867	0.52653
1155.21011	0.52598
1153.28154	0.52482
1151.35298	0.52300
1149.42441	0.52082
1147.49585	0.51845
1145.56729	0.51590
1143.63872	0.51322
1141.71016	0.51053
1139.78159	0.50822
1137.85303	0.50662
1135.92446	0.50557
1133.99590	0.50469
1132.06733	0.50369
1130.13877	0.50276
1128.21021	0.50203
1126.28164	0.50139
1124.35308	0.50081
1122.42451	0.50017
1120.49595	0.49953
1118.56738	0.49934
1116.63882	0.49964
1114.71025	0.50001
1112.78169	0.50024
1110.85312	0.50041
1108.92456	0.50079
1106.99600	0.50165
1105.06743	0.50280
1103.13887	0.50409
1101.21030	0.50564
1099.28174	0.50745
1097.35317	0.50965
1095.42461	0.51253
1093.49604	0.51621
1091.56748	0.52070
1089.63892	0.52609
1087.71035	0.53246
1085.78179	0.53958
1083.85322	0.54697
1081.92466	0.55402
1079.99609	0.55992
1078.06753	0.56358
1076.13896	0.56429
1074.21040	0.56206
1072.28184	0.55727
1070.35327	0.55067
1068.42471	0.54342
1066.49614	0.53651
1064.56758	0.53010
1062.63901	0.52420
1060.71045	0.51905
1058.78188	0.51472
1056.85332	0.51093
1054.92476	0.50742
1052.99619	0.50430
1051.06763	0.50175
1049.13906	0.49984
1047.21050	0.49854
1045.28193	0.49768
1043.35337	0.49696
1041.42480	0.49632
1039.49624	0.49598
1037.56768	0.49581
1035.63911	0.49543
1033.71055	0.49489
1031.78198	0.49423
1029.85342	0.49339
1027.92485	0.49255
1025.99629	0.49186
1024.06772	0.49134
1022.13916	0.49120
1020.21060	0.49127
1018.28203	0.49121
1016.35347	0.49132
1014.42490	0.49181
1012.49634	0.49234
1010.56777	0.49292
1008.63921	0.49381
1006.71064	0.49485
1004.78208	0.49606
1002.85352	0.49790
1000.92495	0.50059
998.99639	0.50393
997.06782	0.50773
995.13926	0.51183
993.21069	0.51592
991.28213	0.51946
989.35356	0.52191
987.42500	0.52292
985.49644	0.52299
983.56787	0.52305
981.63931	0.52350
979.71074	0.52450
977.78218	0.52611
975.85361	0.52815
973.92505	0.53066
971.99648	0.53384
970.06792	0.53755
968.13936	0.54143
966.21079	0.54547
964.28223	0.54984
962.35366	0.55454
960.42510	0.55952
958.49653	0.56474
956.56797	0.57014
954.63940	0.57590
952.71084	0.58227
950.78228	0.58909
948.85371	0.59584
946.92515	0.60211
944.99658	0.60778
943.06802	0.61317
941.13945	0.61911
939.21089	0.62543
937.28232	0.63118
935.35376	0.63671
933.42520	0.64290
931.49663	0.64939
929.56807	0.65524
927.63950	0.66067
925.71094	0.66625
923.78237	0.67218
921.85381	0.67830
919.92524	0.68479
917.99668	0.69219
916.06812	0.69986
914.13955	0.70739
912.21099	0.71554
910.28242	0.72424
908.35386	0.73313
906.42529	0.74166
904.49673	0.74932
902.56816	0.75768
900.63960	0.76768
898.71104	0.77769
896.78247	0.78767
894.85391	0.79767
892.92534	0.80594
890.99678	0.81382
889.06821	0.82418
887.13965	0.83598
885.21108	0.84773
883.28252	0.86012
881.35396	0.87208
879.42539	0.88189
877.49683	0.89119
875.56826	0.90318
873.63970	0.91698
871.71113	0.92843
869.78257	0.93711
867.85400	0.94714
865.92544	0.96052
863.99687	0.97401
862.06831	0.98497
860.13975	0.99451
858.21118	1.00496
856.28262	1.01677
854.35405	1.02889
852.42549	1.04110
850.49692	1.05332
848.56836	1.06541
846.63979	1.07881
844.71123	1.09356
842.78267	1.10485
840.85410	1.11224
838.92554	1.12078
836.99697	1.13135
835.06841	1.14154
833.13984	1.14953
831.21128	1.15708
829.28271	1.16563
827.35415	1.17274
825.42559	1.17870
823.49702	1.18682
821.56846	1.19739
819.63989	1.20930
817.71133	1.22198
815.78276	1.23590
813.85420	1.25048
811.92563	1.25864
809.99707	1.25489
808.06851	1.24690
806.13994	1.25110
804.21138	1.26848
802.28281	1.27491
800.35425	1.25781
798.42568	1.24279
796.49712	1.25394
794.56855	1.28967
792.63999	1.33482
790.71143	1.33994
788.78286	1.28533
786.85430	1.23043
784.92573	1.20989
782.99717	1.22535
781.06860	1.26097
779.14004	1.28269
777.21147	1.26001
775.28291	1.19839
773.35435	1.14938
771.42578	1.14620
769.49722	1.15865
767.56865	1.15087
765.64009	1.13736
763.71152	1.13084
761.78296	1.12442
759.85439	1.13225
757.92583	1.14587
755.99727	1.09374
754.06870	1.02524
752.14014	1.02253
750.21157	1.06669
748.28301	1.08809
746.35444	1.05848
744.42588	1.05758
742.49731	1.10202
740.56875	1.08123
738.64019	0.99381
736.71162	0.85034
734.78306	0.67421
732.85449	0.50575
730.92593	0.35594
728.99736	0.26668
727.06880	0.26135
725.14023	0.30449
723.21167	0.29241
721.28311	0.18214
719.35454	0.15047
717.42598	0.18485
715.49741	0.20674
713.56885	0.24809
711.64028	0.34818
709.71172	0.42261
707.78315	0.34060
705.85459	0.25291
703.92603	0.27128
701.99746	0.34427
700.06890	0.33201
698.14033	0.26223
696.21177	0.24924
694.28320	0.27651
692.35464	0.28100
690.42607	0.27508
688.49751	0.29960
686.56895	0.35590
684.64038	0.42487
682.71182	0.41468
680.78325	0.31966
678.85469	0.25921
676.92612	0.27212
674.99756	0.29882
673.06899	0.28381
671.14043	0.25985
669.21187	0.22050
667.28330	0.16562
665.35474	0.14673
663.42617	0.18153
661.49761	0.24838
659.56904	0.31278
657.64048	0.33230
655.71191	0.29875
653.78335	0.25973
651.85479	0.26603
649.92622	0.29163
647.99766	0.28711
646.06909	0.27752
644.14053	0.29690
642.21196	0.30319
640.28340	0.23437
638.35483	0.17600
636.42627	0.19838
634.49771	0.25059
632.56914	0.26303
630.64058	0.25603
628.71201	0.30575
626.78345	0.41178
624.85488	0.41635
622.92632	0.30011
620.99775	0.23016
619.06919	0.24562
617.14062	0.26258
615.21206	0.22136
613.28350	0.19607
611.35493	0.23711
609.42637	0.29919
607.49780	0.33478
605.56924	0.38276
603.64067	0.38937
601.71211	0.28303
599.78354	0.19852
597.85498	0.19078
595.92642	0.21965
593.99785	0.23175
592.06929	0.24615
590.14072	0.28658
588.21216	0.30984
586.28359	0.28598
584.35503	0.26910
582.42646	0.28321
580.49790	0.30339
578.56934	0.32729
576.64077	0.35338
574.71221	0.36024
572.78364	0.34612
570.85508	0.33658
568.92651	0.35655
566.99795	0.36697
565.06938	0.35072
563.14082	0.34561
561.21226	0.36748
559.28369	0.35386
557.35513	0.26167
555.42656	0.17999
553.49800	0.14767
551.56943	0.16280
549.64087	0.21277
547.71230	0.25452
545.78374	0.26226
543.85518	0.24984
541.92661	0.22088
539.99805	0.19204
538.06948	0.20054
536.14092	0.21356
534.21235	0.19161
532.28379	0.19432
530.35522	0.22895
528.42666	0.22045
526.49810	0.20173
524.56953	0.23084
522.64097	0.24941
520.71240	0.22453
518.78384	0.22327
516.85527	0.26663
514.92671	0.30276
512.99814	0.30502
511.06958	0.29600
509.14102	0.26997
507.21245	0.22805
505.28389	0.21143
503.35532	0.21687
501.42676	0.20383
499.49819	0.18331
