3997.91411	0.06293
3995.98555	0.06321
3994.05698	0.06354
3992.12842	0.06325
3990.19985	0.06329
3988.27129	0.06438
3986.34272	0.06531
3984.41416	0.06557
3982.48560	0.06571
3980.55703	0.06551
3978.62847	0.06495
3976.69990	0.06501
3974.77134	0.06592
3972.84277	0.06686
3970.91421	0.06718
3968.98564	0.06690
3967.05708	0.06664
3965.12852	0.06677
3963.19995	0.06712
3961.27139	0.06735
3959.34282	0.06714
3957.41426	0.06672
3955.48569	0.06666
3953.55713	0.06682
3951.62856	0.06696
3949.70000	0.06709
3947.77144	0.06726
3945.84287	0.06742
3943.91431	0.06761
3941.98574	0.06781
3940.05718	0.06789
3938.12861	0.06787
3936.20005	0.06762
3934.27148	0.06713
3932.34292	0.06688
3930.41436	0.06718
3928.48579	0.06753
3926.55723	0.06759
3924.62866	0.06741
3922.70010	0.06700
3920.77153	0.06681
3918.84297	0.06704
3916.91440	0.06719
3914.98584	0.06697
3913.05728	0.06667
3911.12871	0.06648
3909.20015	0.06639
3907.27158	0.06618
3905.34302	0.06600
3903.41445	0.06616
3901.48589	0.06620
3899.55732	0.06606
3897.62876	0.06630
3895.70020	0.06656
3893.77163	0.06628
3891.84307	0.06574
3889.91450	0.06555
3887.98594	0.06546
3886.05737	0.06539
3884.12881	0.06578
3882.20024	0.06661
3880.27168	0.06744
3878.34312	0.06740
3876.41455	0.06679
3874.48599	0.06697
3872.55742	0.06766
3870.62886	0.06758
3868.70029	0.06745
3866.77173	0.06788
3864.84316	0.06822
3862.91460	0.06864
3860.98604	0.06916
3859.05747	0.06926
3857.12891	0.06889
3855.20034	0.06864
3853.27178	0.06929
3851.34321	0.07110
3849.41465	0.07214
3847.48608	0.07225
3845.55752	0.07243
3843.62896	0.07310
3841.70039	0.07392
3839.77183	0.07456
3837.84326	0.07504
3835.91470	0.07531
3833.98613	0.07574
3832.05757	0.07637
3830.12900	0.07692
3828.20044	0.07726
3826.27187	0.07773
3824.34331	0.07840
3822.41475	0.07898
3820.48618	0.08033
3818.55762	0.08215
3816.62905	0.08305
3814.70049	0.08387
3812.77192	0.08463
3810.84336	0.08499
3808.91479	0.08555
3806.98623	0.08685
3805.05767	0.08869
3803.12910	0.09018
3801.20054	0.09134
3799.27197	0.09217
3797.34341	0.09294
3795.41484	0.09430
3793.48628	0.09566
3791.55771	0.09678
3789.62915	0.09776
3787.70059	0.09861
3785.77202	0.09988
3783.84346	0.10162
3781.91489	0.10313
3779.98633	0.10448
3778.05776	0.10603
3776.12920	0.10745
3774.20063	0.10869
3772.27207	0.10994
3770.34351	0.11165
3768.41494	0.11393
3766.48638	0.11617
3764.55781	0.11839
3762.62925	0.12026
3760.70068	0.12181
3758.77212	0.12402
3756.84355	0.12672
3754.91499	0.12889
3752.98643	0.13088
3751.05786	0.13375
3749.12930	0.13771
3747.20073	0.14037
3745.27217	0.14177
3743.34360	0.14480
3741.41504	0.14912
3739.48647	0.15237
3737.55791	0.15526
3735.62935	0.15894
3733.70078	0.16409
3731.77222	0.16969
3729.84365	0.17443
3727.91509	0.17851
3725.98652	0.18331
3724.05796	0.18943
3722.12939	0.19650
3720.20083	0.20406
3718.27227	0.21142
3716.34370	0.21862
3714.41514	0.22582
3712.48657	0.23416
3710.55801	0.24592
3708.62944	0.25967
3706.70088	0.27209
3704.77231	0.28374
3702.84375	0.29640
3700.91519	0.31264
3698.98662	0.33108
3697.05806	0.34844
3695.12949	0.36631
3693.20093	0.38553
3691.27236	0.40646
3689.34380	0.43326
3687.41523	0.46699
3685.48667	0.49737
3683.55811	0.52360
3681.62954	0.55157
3679.70098	0.58284
3677.77241	0.61509
3675.84385	0.65192
3673.91528	0.70231
3671.98672	0.74576
3670.05815	0.78415
3668.12959	0.83591
3666.20103	0.88446
3664.27246	0.92584
3662.34390	0.96982
3660.41533	1.01638
3658.48677	1.06115
3656.55820	1.10805
3654.62964	1.16107
3652.70107	1.20701
3650.77251	1.24694
3648.84395	1.29993
3646.91538	1.36549
3644.98682	1.41646
3643.05825	1.45651
3641.12969	1.49647
3639.20112	1.53994
3637.27256	1.58399
3635.34399	1.62682
3633.41543	1.66918
3631.48687	1.70865
3629.55830	1.74759
3627.62974	1.79777
3625.70117	1.84657
3623.77261	1.88124
3621.84404	1.91471
3619.91548	1.95186
3617.98691	1.99605
3616.05835	2.04105
3614.12979	2.07985
3612.20122	2.11849
3610.27266	2.15650
3608.34409	2.19580
3606.41553	2.23860
3604.48696	2.27878
3602.55840	2.31472
3600.62983	2.35317
3598.70127	2.39461
3596.77271	2.43364
3594.84414	2.47187
3592.91558	2.51221
3590.98701	2.55107
3589.05845	2.58649
3587.12988	2.62841
3585.20132	2.67770
3583.27275	2.72141
3581.34419	2.76067
3579.41562	2.80191
3577.48706	2.84432
3575.55850	2.88526
3573.62993	2.92716
3571.70137	2.96917
3569.77280	3.00975
3567.84424	3.05219
3565.91567	3.10316
3563.98711	3.15320
3562.05854	3.19488
3560.12998	3.23642
3558.20142	3.28081
3556.27285	3.32632
3554.34429	3.37022
3552.41572	3.41547
3550.48716	3.46358
3548.55859	3.51013
3546.63003	3.55347
3544.70146	3.59919
3542.77290	3.65038
3540.84434	3.70082
3538.91577	3.74574
3536.98721	3.78747
3535.05864	3.83365
3533.13008	3.88440
3531.20151	3.93405
3529.27295	3.97969
3527.34438	4.02369
3525.41582	4.07075
3523.48726	4.12219
3521.55869	4.17368
3519.63013	4.22042
3517.70156	4.26700
3515.77300	4.31778
3513.84443	4.37026
3511.91587	4.42019
3509.98730	4.46947
3508.05874	4.51953
3506.13018	4.56445
3504.20161	4.60469
3502.27305	4.64998
3500.34448	4.70195
3498.41592	4.74890
3496.48735	4.78996
3494.55879	4.83341
3492.63022	4.88065
3490.70166	4.93171
3488.77310	4.98266
3486.84453	5.02604
3484.91597	5.07162
3482.98740	5.13149
3481.05884	5.19185
3479.13027	5.23459
3477.20171	5.27419
3475.27314	5.32865
3473.34458	5.38424
3471.41602	5.42683
3469.48745	5.46653
3467.55889	5.51050
3465.63032	5.55673
3463.70176	5.61010
3461.77319	5.66789
3459.84463	5.71651
3457.91606	5.75630
3455.98750	5.80913
3454.05894	5.88216
3452.13037	5.94692
3450.20181	5.98406
3448.27324	6.01353
3446.34468	6.05516
3444.41611	6.10512
3442.48755	6.15993
3440.55898	6.20945
3438.63042	6.25020
3436.70186	6.29018
3434.77329	6.33451
3432.84473	6.38224
3430.91616	6.42539
3428.98760	6.47273
3427.05903	6.53053
3425.13047	6.59324
3423.20190	6.64576
3421.27334	6.68309
3419.34478	6.71712
3417.41621	6.76227
3415.48765	6.81559
3413.55908	6.85805
3411.63052	6.89574
3409.70195	6.94939
3407.77339	7.02822
3405.84482	7.08849
3403.91626	7.10464
3401.98770	7.10882
3400.05913	7.14097
3398.13057	7.22702
3396.20200	7.34052
3394.27344	7.43153
3392.34487	7.46293
3390.41631	7.43385
3388.48774	7.37700
3386.55918	7.35407
3384.63062	7.37245
3382.70205	7.39909
3380.77349	7.44902
3378.84492	7.55181
3376.91636	7.67459
3374.98779	7.71177
3373.05923	7.67640
3371.13066	7.65571
3369.20210	7.68053
3367.27354	7.72305
3365.34497	7.73160
3363.41641	7.71644
3361.48784	7.69970
3359.55928	7.68137
3357.63071	7.69626
3355.70215	7.77108
3353.77358	7.86334
3351.84502	7.92880
3349.91646	7.92143
3347.98789	7.87628
3346.05933	7.87208
3344.13076	7.87580
3342.20220	7.85212
3340.27363	7.87175
3338.34507	7.96749
3336.41650	8.02064
3334.48794	7.98665
3332.55937	7.97147
3330.63081	8.01883
3328.70225	8.03582
3326.77368	7.98503
3324.84512	7.94732
3322.91655	7.97532
3320.98799	8.05717
3319.05942	8.08960
3317.13086	8.06576
3315.20229	8.05441
3313.27373	8.02402
3311.34517	7.96775
3309.41660	7.99334
3307.48804	8.11104
3305.55947	8.20532
3303.63091	8.23506
3301.70234	8.18556
3299.77378	8.11547
3297.84521	8.09367
3295.91665	8.06451
3293.98809	7.99306
3292.05952	8.02374
3290.13096	8.21429
3288.20239	8.34144
3286.27383	8.29466
3284.34526	8.18980
3282.41670	8.13084
3280.48813	8.14815
3278.55957	8.13738
3276.63101	8.07825
3274.70244	8.06610
3272.77388	8.07182
3270.84531	8.04045
3268.91675	7.99899
3266.98818	7.99424
3265.05962	8.04923
3263.13105	8.10992
3261.20249	8.07796
3259.27393	7.94316
3257.34536	7.86426
3255.41680	7.92581
3253.48823	8.06679
3251.55967	8.20679
3249.63110	8.26185
3247.70254	8.20006
3245.77397	8.08065
3243.84541	8.01568
3241.91685	8.05034
3239.98828	8.12478
3238.05972	8.15456
3236.13115	8.11144
3234.20259	8.07735
3232.27402	8.14095
3230.34546	8.23887
3228.41689	8.19910
3226.48833	8.01615
3224.55977	7.85703
3222.63120	7.84184
3220.70264	7.96053
3218.77407	8.09472
3216.84551	8.11954
3214.91694	8.05622
3212.98838	7.98370
3211.05981	7.92008
3209.13125	7.87513
3207.20269	7.82690
3205.27412	7.79460
3203.34556	7.83150
3201.41699	7.86539
3199.48843	7.82459
3197.55986	7.73076
3195.63130	7.58800
3193.70273	7.47349
3191.77417	7.44670
3189.84561	7.44252
3187.91704	7.42676
3185.98848	7.41798
3184.05991	7.39846
3182.13135	7.36427
3180.20278	7.32364
3178.27422	7.28245
3176.34565	7.25245
3174.41709	7.22258
3172.48853	7.18267
3170.55996	7.12080
3168.63140	7.03696
3166.70283	6.95203
3164.77427	6.87472
3162.84570	6.82195
3160.91714	6.78589
3158.98857	6.71867
3157.06001	6.62101
3155.13145	6.53477
3153.20288	6.46930
3151.27432	6.41738
3149.34575	6.35773
3147.41719	6.27254
3145.48862	6.18322
3143.56006	6.11060
3141.63149	6.05519
3139.70293	6.00002
3137.77437	5.92745
3135.84580	5.84587
3133.91724	5.77126
3131.98867	5.70516
3130.06011	5.64208
3128.13154	5.57342
3126.20298	5.49876
3124.27441	5.43132
3122.34585	5.37365
3120.41729	5.31548
3118.48872	5.25045
3116.56016	5.18121
3114.63159	5.11032
3112.70303	5.03770
3110.77446	4.96203
3108.84590	4.88466
3106.91733	4.81239
3104.98877	4.74431
3103.06021	4.67753
3101.13164	4.61214
3099.20308	4.54697
3097.27451	4.48173
3095.34595	4.41464
3093.41738	4.34625
3091.48882	4.27976
3089.56025	4.21439
3087.63169	4.15043
3085.70312	4.08952
3083.77456	4.02798
3081.84600	3.96523
3079.91743	3.90410
3077.98887	3.84254
3076.06030	3.77990
3074.13174	3.71900
3072.20317	3.65968
3070.27461	3.60024
3068.34604	3.54240
3066.41748	3.48704
3064.48892	3.43130
3062.56035	3.37373
3060.63179	3.31687
3058.70322	3.26309
3056.77466	3.21121
3054.84609	3.15855
3052.91753	3.10470
3050.98896	3.05152
3049.06040	3.00014
3047.13184	2.95026
3045.20327	2.90074
3043.27471	2.85087
3041.34614	2.80150
3039.41758	2.75367
3037.48901	2.70714
3035.56045	2.66068
3033.63188	2.61434
3031.70332	2.56893
3029.77476	2.52424
3027.84619	2.48051
3025.91763	2.43772
3023.98906	2.39484
3022.06050	2.35243
3020.13193	2.31136
3018.20337	2.27087
3016.27480	2.23076
3014.34624	2.19162
3012.41768	2.15319
3010.48911	2.11453
3008.56055	2.07639
3006.63198	2.03995
3004.70342	2.00395
3002.77485	1.96745
3000.84629	1.93175
2998.91772	1.89806
2996.98916	1.86603
2995.06060	1.83391
2993.13203	1.80117
2991.20347	1.76946
2989.27490	1.73925
2987.34634	1.70914
2985.41777	1.67915
2983.48921	1.65036
2981.56064	1.62238
2979.63208	1.59459
2977.70352	1.56733
2975.77495	1.54049
2973.84639	1.51376
2971.91782	1.48757
2969.98926	1.46226
2968.06069	1.43780
2966.13213	1.41364
2964.20356	1.38948
2962.27500	1.36548
2960.34644	1.34136
2958.41787	1.31717
2956.48931	1.29300
2954.56074	1.26885
2952.63218	1.24555
2950.70361	1.22310
2948.77505	1.20075
2946.84648	1.17894
2944.91792	1.15795
2942.98936	1.13697
2941.06079	1.11614
2939.13223	1.09615
2937.20366	1.07704
2935.27510	1.05827
2933.34653	1.03923
2931.41797	1.02007
2929.48940	1.00138
2927.56084	0.98307
2925.63228	0.96510
2923.70371	0.94781
2921.77515	0.93108
2919.84658	0.91425
2917.91802	0.89732
2915.98945	0.88064
2914.06089	0.86430
2912.13232	0.84858
2910.20376	0.83332
2908.27520	0.81816
2906.34663	0.80357
2904.41807	0.78953
2902.48950	0.77541
2900.56094	0.76125
2898.63237	0.74777
2896.70381	0.73503
2894.77524	0.72247
2892.84668	0.71002
2890.91812	0.69785
2888.98955	0.68610
2887.06099	0.67505
2885.13242	0.66474
2883.20386	0.65459
2881.27529	0.64445
2879.34673	0.63446
2877.41816	0.62445
2875.48960	0.61444
2873.56104	0.60441
2871.63247	0.59399
2869.70391	0.58309
2867.77534	0.57229
2865.84678	0.56178
2863.91821	0.55122
2861.98965	0.54094
2860.06108	0.53119
2858.13252	0.52169
2856.20396	0.51233
2854.27539	0.50332
2852.34683	0.49485
2850.41826	0.48678
2848.48970	0.47843
2846.56113	0.46991
2844.63257	0.46228
2842.70400	0.45563
2840.77544	0.44923
2838.84687	0.44304
2836.91831	0.43704
2834.98975	0.43080
2833.06118	0.42443
2831.13262	0.41840
2829.20405	0.41246
2827.27549	0.40633
2825.34692	0.40032
2823.41836	0.39453
2821.48979	0.38881
2819.56123	0.38322
2817.63267	0.37766
2815.70410	0.37192
2813.77554	0.36626
2811.84697	0.36080
2809.91841	0.35530
2807.98984	0.34986
2806.06128	0.34487
2804.13271	0.34012
2802.20415	0.33519
2800.27559	0.33030
2798.34702	0.32561
2796.41846	0.32100
2794.48989	0.31649
2792.56133	0.31210
2790.63276	0.30780
2788.70420	0.30364
2786.77563	0.29949
2784.84707	0.29526
2782.91851	0.29110
2780.98994	0.28723
2779.06138	0.28368
2777.13281	0.28014
2775.20425	0.27638
2773.27568	0.27259
2771.34712	0.26890
2769.41855	0.26531
2767.48999	0.26183
2765.56143	0.25846
2763.63286	0.25514
2761.70430	0.25182
2759.77573	0.24866
2757.84717	0.24568
2755.91860	0.24271
2753.99004	0.23972
2752.06147	0.23668
2750.13291	0.23368
2748.20435	0.23089
2746.27578	0.22830
2744.34722	0.22590
2742.41865	0.22345
2740.49009	0.22087
2738.56152	0.21835
2736.63296	0.21586
2734.70439	0.21334
2732.77583	0.21104
2730.84727	0.20895
2728.91870	0.20677
2726.99014	0.20455
2725.06157	0.20244
2723.13301	0.20045
2721.20444	0.19851
2719.27588	0.19644
2717.34731	0.19430
2715.41875	0.19241
2713.49019	0.19085
2711.56162	0.18931
2709.63306	0.18758
2707.70449	0.18567
2705.77593	0.18390
2703.84736	0.18252
2701.91880	0.18125
2699.99023	0.17973
2698.06167	0.17827
2696.13311	0.17707
2694.20454	0.17580
2692.27598	0.17452
2690.34741	0.17337
2688.41885	0.17218
2686.49028	0.17077
2684.56172	0.16932
2682.63315	0.16806
2680.70459	0.16688
2678.77603	0.16569
2676.84746	0.16452
2674.91890	0.16344
2672.99033	0.16256
2671.06177	0.16179
2669.13320	0.16087
2667.20464	0.15984
2665.27607	0.15893
2663.34751	0.15805
2661.41895	0.15699
2659.49038	0.15605
2657.56182	0.15551
2655.63325	0.15510
2653.70469	0.15435
2651.77612	0.15332
2649.84756	0.15252
2647.91899	0.15203
2645.99043	0.15166
2644.06187	0.15124
2642.13330	0.15076
2640.20474	0.15034
2638.27617	0.15000
2636.34761	0.14960
2634.41904	0.14919
2632.49048	0.14880
2630.56191	0.14832
2628.63335	0.14778
2626.70479	0.14730
2624.77622	0.14697
2622.84766	0.14681
2620.91909	0.14674
2618.99053	0.14661
2617.06196	0.14637
2615.13340	0.14615
2613.20483	0.14608
2611.27627	0.14604
2609.34771	0.14592
2607.41914	0.14584
2605.49058	0.14581
2603.56201	0.14572
2601.63345	0.14565
2599.70488	0.14562
2597.77632	0.14565
2595.84775	0.14572
2593.91919	0.14575
2591.99062	0.14577
2590.06206	0.14590
2588.13350	0.14613
2586.20493	0.14638
2584.27637	0.14672
2582.34780	0.14706
2580.41924	0.14726
2578.49067	0.14737
2576.56211	0.14744
2574.63354	0.14776
2572.70498	0.14839
2570.77642	0.14896
2568.84785	0.14934
2566.91929	0.14964
2564.99072	0.15002
2563.06216	0.15052
2561.13359	0.15106
2559.20503	0.15151
2557.27646	0.15184
2555.34790	0.15224
2553.41934	0.15272
2551.49077	0.15317
2549.56221	0.15372
2547.63364	0.15446
2545.70508	0.15520
2543.77651	0.15581
2541.84795	0.15635
2539.91938	0.15683
2537.99082	0.15737
2536.06226	0.15807
2534.13369	0.15881
2532.20513	0.15950
2530.27656	0.16020
2528.34800	0.16099
2526.41943	0.16175
2524.49087	0.16239
2522.56230	0.16306
2520.63374	0.16392
2518.70518	0.16481
2516.77661	0.16556
2514.84805	0.16623
2512.91948	0.16695
2510.99092	0.16773
2509.06235	0.16853
2507.13379	0.16933
2505.20522	0.17014
2503.27666	0.17107
2501.34810	0.17199
2499.41953	0.17273
2497.49097	0.17338
2495.56240	0.17419
2493.63384	0.17519
2491.70527	0.17620
2489.77671	0.17710
2487.84814	0.17794
2485.91958	0.17887
2483.99102	0.17980
2482.06245	0.18063
2480.13389	0.18143
2478.20532	0.18228
2476.27676	0.18330
2474.34819	0.18443
2472.41963	0.18539
2470.49106	0.18623
2468.56250	0.18710
2466.63394	0.18789
2464.70537	0.18869
2462.77681	0.18963
2460.84824	0.19064
2458.91968	0.19171
2456.99111	0.19281
2455.06255	0.19372
2453.13398	0.19455
2451.20542	0.19552
2449.27686	0.19652
2447.34829	0.19749
2445.41973	0.19845
2443.49116	0.19943
2441.56260	0.20047
2439.63403	0.20153
2437.70547	0.20256
2435.77690	0.20361
2433.84834	0.20465
2431.91978	0.20552
2429.99121	0.20644
2428.06265	0.20757
2426.13408	0.20884
2424.20552	0.21012
2422.27695	0.21127
2420.34839	0.21226
2418.41982	0.21319
2416.49126	0.21425
2414.56270	0.21552
2412.63413	0.21679
2410.70557	0.21790
2408.77700	0.21901
2406.84844	0.22014
2404.91987	0.22122
2402.99131	0.22231
2401.06274	0.22352
2399.13418	0.22487
2397.20562	0.22620
2395.27705	0.22748
2393.34849	0.22873
2391.41992	0.22997
2389.49136	0.23112
2387.56279	0.23219
2385.63423	0.23337
2383.70566	0.23472
2381.77710	0.23597
2379.84854	0.23710
2377.91997	0.23842
2375.99141	0.23982
2374.06284	0.24113
2372.13428	0.24263
2370.20571	0.24471
2368.27715	0.24698
2366.34858	0.24862
2364.42002	0.24983
2362.49146	0.25050
2360.56289	0.25040
2358.63433	0.25148
2356.70576	0.25441
2354.77720	0.25695
2352.84863	0.25872
2350.92007	0.26035
2348.99150	0.26142
2347.06294	0.26219
2345.13437	0.26368
2343.20581	0.26623
2341.27725	0.26852
2339.34868	0.26965
2337.42012	0.27040
2335.49155	0.27197
2333.56299	0.27397
2331.63442	0.27562
2329.70586	0.27718
2327.77729	0.27891
2325.84873	0.28059
2323.92017	0.28195
2321.99160	0.28318
2320.06304	0.28498
2318.13447	0.28733
2316.20591	0.28946
2314.27734	0.29113
2312.34878	0.29270
2310.42021	0.29442
2308.49165	0.29633
2306.56309	0.29821
2304.63452	0.29987
2302.70596	0.30148
2300.77739	0.30322
2298.84883	0.30491
2296.92026	0.30657
2294.99170	0.30840
2293.06313	0.31034
2291.13457	0.31221
2289.20601	0.31412
2287.27744	0.31615
2285.34888	0.31810
2283.42031	0.31991
2281.49175	0.32188
2279.56318	0.32401
2277.63462	0.32603
2275.70605	0.32795
2273.77749	0.32998
2271.84893	0.33213
2269.92036	0.33423
2267.99180	0.33634
2266.06323	0.33858
2264.13467	0.34078
2262.20610	0.34280
2260.27754	0.34478
2258.34897	0.34684
2256.42041	0.34904
2254.49185	0.35132
2252.56328	0.35358
2250.63472	0.35580
2248.70615	0.35795
2246.77759	0.36003
2244.84902	0.36211
2242.92046	0.36430
2240.99189	0.36659
2239.06333	0.36882
2237.13477	0.37104
2235.20620	0.37333
2233.27764	0.37550
2231.34907	0.37757
2229.42051	0.37983
2227.49194	0.38222
2225.56338	0.38455
2223.63481	0.38674
2221.70625	0.38880
2219.77769	0.39090
2217.84912	0.39311
2215.92056	0.39533
2213.99199	0.39748
2212.06343	0.39962
2210.13486	0.40178
2208.20630	0.40387
2206.27773	0.40593
2204.34917	0.40805
2202.42061	0.41015
2200.49204	0.41218
2198.56348	0.41413
2196.63491	0.41604
2194.70635	0.41803
2192.77778	0.42003
2190.84922	0.42195
2188.92065	0.42383
2186.99209	0.42570
2185.06353	0.42742
2183.13496	0.42900
2181.20640	0.43066
2179.27783	0.43237
2177.34927	0.43406
2175.42070	0.43569
2173.49214	0.43730
2171.56357	0.43882
2169.63501	0.44025
2167.70645	0.44158
2165.77788	0.44275
2163.84932	0.44379
2161.92075	0.44479
2159.99219	0.44573
2158.06362	0.44659
2156.13506	0.44747
2154.20649	0.44843
2152.27793	0.44939
2150.34937	0.45017
2148.42080	0.45081
2146.49224	0.45140
2144.56367	0.45185
2142.63511	0.45225
2140.70654	0.45258
2138.77798	0.45271
2136.84941	0.45276
2134.92085	0.45287
2132.99229	0.45292
2131.06372	0.45280
2129.13516	0.45265
2127.20659	0.45248
2125.27803	0.45206
2123.34946	0.45142
2121.42090	0.45081
2119.49233	0.45023
2117.56377	0.44962
2115.63521	0.44887
2113.70664	0.44794
2111.77808	0.44706
2109.84951	0.44626
2107.92095	0.44531
2105.99238	0.44410
2104.06382	0.44288
2102.13525	0.44171
2100.20669	0.44041
2098.27812	0.43890
2096.34956	0.43733
2094.42100	0.43584
2092.49243	0.43430
2090.56387	0.43262
2088.63530	0.43084
2086.70674	0.42899
2084.77817	0.42718
2082.84961	0.42542
2080.92104	0.42354
2078.99248	0.42141
2077.06392	0.41909
2075.13535	0.41684
2073.20679	0.41482
2071.27822	0.41278
2069.34966	0.41047
2067.42109	0.40796
2065.49253	0.40554
2063.56396	0.40315
2061.63540	0.40069
2059.70684	0.39822
2057.77827	0.39578
2055.84971	0.39329
2053.92114	0.39067
2051.99258	0.38798
2050.06401	0.38537
2048.13545	0.38273
2046.20688	0.37998
2044.27832	0.37727
2042.34976	0.37463
2040.42119	0.37192
2038.49263	0.36917
2036.56406	0.36653
2034.63550	0.36392
2032.70693	0.36120
2030.77837	0.35838
2028.84980	0.35560
2026.92124	0.35288
2024.99268	0.35008
2023.06411	0.34716
2021.13555	0.34421
2019.20698	0.34143
2017.27842	0.33884
2015.34985	0.33625
2013.42129	0.33363
2011.49272	0.33096
2009.56416	0.32826
2007.63560	0.32551
2005.70703	0.32270
2003.77847	0.31997
2001.84990	0.31741
1999.92134	0.31488
1997.99277	0.31227
1996.06421	0.30967
1994.13564	0.30709
1992.20708	0.30451
1990.27852	0.30198
1988.34995	0.29954
1986.42139	0.29710
1984.49282	0.29465
1982.56426	0.29231
1980.63569	0.29009
1978.70713	0.28786
1976.77856	0.28558
1974.85000	0.28328
1972.92144	0.28104
1970.99287	0.27895
1969.06431	0.27692
1967.13574	0.27492
1965.20718	0.27298
1963.27861	0.27109
1961.35005	0.26914
1959.42148	0.26714
1957.49292	0.26527
1955.56436	0.26355
1953.63579	0.26182
1951.70723	0.26012
1949.77866	0.25864
1947.85010	0.25721
1945.92153	0.25569
1943.99297	0.25413
1942.06440	0.25259
1940.13584	0.25110
1938.20728	0.24972
1936.27871	0.24847
1934.35015	0.24724
1932.42158	0.24600
1930.49302	0.24476
1928.56445	0.24359
1926.63589	0.24257
1924.70732	0.24170
1922.77876	0.24075
1920.85020	0.23966
1918.92163	0.23867
1916.99307	0.23786
1915.06450	0.23710
1913.13594	0.23631
1911.20737	0.23560
1909.27881	0.23490
1907.35024	0.23420
1905.42168	0.23351
1903.49312	0.23285
1901.56455	0.23233
1899.63599	0.23193
1897.70742	0.23162
1895.77886	0.23128
1893.85029	0.23085
1891.92173	0.23039
1889.99316	0.23011
1888.06460	0.22991
1886.13604	0.22966
1884.20747	0.22940
1882.27891	0.22920
1880.35034	0.22914
1878.42178	0.22918
1876.49321	0.22918
1874.56465	0.22913
1872.63608	0.22929
1870.70752	0.22960
1868.77896	0.22993
1866.85039	0.23005
1864.92183	0.22999
1862.99326	0.23009
1861.06470	0.23041
1859.13613	0.23084
1857.20757	0.23122
1855.27900	0.23169
1853.35044	0.23223
1851.42187	0.23280
1849.49331	0.23343
1847.56475	0.23420
1845.63618	0.23498
1843.70762	0.23581
1841.77905	0.23661
1839.85049	0.23716
1837.92192	0.23788
1835.99336	0.23875
1834.06479	0.23970
1832.13623	0.24062
1830.20767	0.24179
1828.27910	0.24320
1826.35054	0.24439
1824.42197	0.24571
1822.49341	0.24710
1820.56484	0.24843
1818.63628	0.24979
1816.70771	0.25143
1814.77915	0.25315
1812.85059	0.25491
1810.92202	0.25689
1808.99346	0.25892
1807.06489	0.26079
1805.13633	0.26264
1803.20776	0.26484
1801.27920	0.26731
1799.35063	0.27012
1797.42207	0.27277
1795.49351	0.27514
1793.56494	0.27769
1791.63638	0.28107
1789.70781	0.28469
1787.77925	0.28761
1785.85068	0.29091
1783.92212	0.29464
1781.99355	0.29848
1780.06499	0.30248
1778.13643	0.30677
1776.20786	0.31085
1774.27930	0.31491
1772.35073	0.32039
1770.42217	0.32681
1768.49360	0.33249
1766.56504	0.33787
1764.63647	0.34318
1762.70791	0.34881
1760.77935	0.35609
1758.85078	0.36324
1756.92222	0.37048
1754.99365	0.37826
1753.06509	0.38525
1751.13652	0.39350
1749.20796	0.40399
1747.27939	0.41457
1745.35083	0.42401
1743.42227	0.43383
1741.49370	0.44433
1739.56514	0.45662
1737.63657	0.46910
1735.70801	0.47993
1733.77944	0.49604
1731.85088	0.51573
1729.92231	0.53162
1727.99375	0.54766
1726.06519	0.56488
1724.13662	0.58347
1722.20806	0.60315
1720.27949	0.62103
1718.35093	0.64192
1716.42236	0.67333
1714.49380	0.70396
1712.56523	0.72912
1710.63667	0.75329
1708.70811	0.77891
1706.77954	0.80791
1704.85098	0.84267
1702.92241	0.87360
1700.99385	0.90395
1699.06528	0.94971
1697.13672	0.99255
1695.20815	1.03644
1693.27959	1.07893
1691.35103	1.11306
1689.42246	1.15229
1687.49390	1.19370
1685.56533	1.23343
1683.63677	1.29456
1681.70820	1.35877
1679.77964	1.40041
1677.85107	1.43970
1675.92251	1.48451
1673.99395	1.54028
1672.06538	1.59092
1670.13682	1.64057
1668.20825	1.70332
1666.27969	1.75391
1664.35112	1.79709
1662.42256	1.85212
1660.49399	1.91464
1658.56543	1.96267
1656.63687	2.00021
1654.70830	2.03342
1652.77974	2.08672
1650.85117	2.14124
1648.92261	2.16108
1646.99404	2.18382
1645.06548	2.21230
1643.13691	2.23321
1641.20835	2.24471
1639.27979	2.25268
1637.35122	2.25502
1635.42266	2.25261
1633.49409	2.24783
1631.56553	2.23663
1629.63696	2.21920
1627.70840	2.19020
1625.77983	2.15759
1623.85127	2.11714
1621.92271	2.06779
1619.99414	2.02465
1618.06558	1.98254
1616.13701	1.92125
1614.20845	1.85817
1612.27988	1.81042
1610.35132	1.76080
1608.42275	1.70644
1606.49419	1.65253
1604.56562	1.60299
1602.63706	1.55510
1600.70850	1.50827
1598.77993	1.46538
1596.85137	1.42537
1594.92280	1.38676
1592.99424	1.34943
1591.06567	1.31484
1589.13711	1.28224
1587.20854	1.25186
1585.27998	1.22368
1583.35142	1.19728
1581.42285	1.17319
1579.49429	1.15266
1577.56572	1.13414
1575.63716	1.11165
1573.70859	1.09233
1571.78003	1.08000
1569.85146	1.06706
1567.92290	1.05265
1565.99434	1.04159
1564.06577	1.03277
1562.13721	1.02584
1560.20864	1.02071
1558.28008	1.01465
1556.35151	1.01078
1554.42295	1.00853
1552.49438	1.00589
1550.56582	1.00204
1548.63726	0.99641
1546.70869	0.98958
1544.78013	0.98060
1542.85156	0.96857
1540.92300	0.95263
1538.99443	0.93090
1537.06587	0.91503
1535.13730	0.90353
1533.20874	0.88823
1531.28018	0.87200
1529.35161	0.86024
1527.42305	0.84915
1525.49448	0.83746
1523.56592	0.82724
1521.63735	0.81726
1519.70879	0.80717
1517.78022	0.79877
1515.85166	0.78969
1513.92310	0.78052
1511.99453	0.77233
1510.06597	0.76448
1508.13740	0.75639
1506.20884	0.74456
1504.28027	0.73522
1502.35171	0.73002
1500.42314	0.72515
1498.49458	0.71984
1496.56602	0.71383
1494.63745	0.70801
1492.70889	0.70324
1490.78032	0.69878
1488.85176	0.69399
1486.92319	0.68982
1484.99463	0.68642
1483.06606	0.68353
1481.13750	0.68099
1479.20894	0.67899
1477.28037	0.67765
1475.35181	0.67678
1473.42324	0.67612
1471.49468	0.67478
1469.56611	0.67276
1467.63755	0.67080
1465.70898	0.66904
1463.78042	0.66740
1461.85186	0.66619
1459.92329	0.66535
1457.99473	0.66415
1456.06616	0.66251
1454.13760	0.66092
1452.20903	0.65901
1450.28047	0.65662
1448.35190	0.65400
1446.42334	0.65124
1444.49478	0.64858
1442.56621	0.64616
1440.63765	0.64387
1438.70908	0.64150
1436.78052	0.63848
1434.85195	0.63527
1432.92339	0.63284
1430.99482	0.63103
1429.06626	0.62975
1427.13770	0.62919
1425.20913	0.62912
1423.28057	0.62912
1421.35200	0.62888
1419.42344	0.62844
1417.49487	0.62772
1415.56631	0.62661
1413.63774	0.62560
1411.70918	0.62503
1409.78062	0.62498
1407.85205	0.62529
1405.92349	0.62582
1403.99492	0.62622
1402.06636	0.62591
1400.13779	0.62493
1398.20923	0.62345
1396.28066	0.62131
1394.35210	0.61843
1392.42354	0.61540
1390.49497	0.61256
1388.56641	0.60962
1386.63784	0.60624
1384.70928	0.60270
1382.78071	0.59935
1380.85215	0.59612
1378.92358	0.59322
1376.99502	0.59090
1375.06646	0.58908
1373.13789	0.58778
1371.20933	0.58697
1369.28076	0.58625
1367.35220	0.58527
1365.42363	0.58408
1363.49507	0.58276
1361.56650	0.58137
1359.63794	0.58020
1357.70937	0.57921
1355.78081	0.57812
1353.85225	0.57697
1351.92368	0.57593
1349.99512	0.57497
1348.06655	0.57405
1346.13799	0.57310
1344.20942	0.57217
1342.28086	0.57137
1340.35229	0.57070
1338.42373	0.56996
1336.49517	0.56921
1334.56660	0.56870
1332.63804	0.56838
1330.70947	0.56813
1328.78091	0.56801
1326.85234	0.56812
1324.92378	0.56837
1322.99521	0.56852
1321.06665	0.56851
1319.13809	0.56850
1317.20952	0.56845
1315.28096	0.56824
1313.35239	0.56779
1311.42383	0.56719
1309.49526	0.56659
1307.56670	0.56600
1305.63813	0.56541
1303.70957	0.56469
1301.78101	0.56374
1299.85244	0.56274
1297.92388	0.56195
1295.99531	0.56118
1294.06675	0.56034
1292.13818	0.55949
1290.20962	0.55845
1288.28105	0.55728
1286.35249	0.55610
1284.42393	0.55486
1282.49536	0.55377
1280.56680	0.55291
1278.63823	0.55209
1276.70967	0.55122
1274.78110	0.55033
1272.85254	0.54947
1270.92397	0.54873
1268.99541	0.54810
1267.06685	0.54745
1265.13828	0.54680
1263.20972	0.54618
1261.28115	0.54556
1259.35259	0.54497
1257.42402	0.54446
1255.49546	0.54408
1253.56689	0.54376
1251.63833	0.54348
1249.70977	0.54333
1247.78120	0.54325
1245.85264	0.54305
1243.92407	0.54246
1241.99551	0.54154
1240.06694	0.54044
1238.13838	0.53902
1236.20981	0.53737
1234.28125	0.53588
1232.35269	0.53458
1230.42412	0.53321
1228.49556	0.53170
1226.56699	0.53017
1224.63843	0.52866
1222.70986	0.52725
1220.78130	0.52607
1218.85273	0.52508
1216.92417	0.52415
1214.99561	0.52327
1213.06704	0.52253
1211.13848	0.52185
1209.20991	0.52109
1207.28135	0.52028
1205.35278	0.51946
1203.42422	0.51863
1201.49565	0.51771
1199.56709	0.51675
1197.63853	0.51590
1195.70996	0.51524
1193.78140	0.51476
1191.85283	0.51434
1189.92427	0.51394
1187.99570	0.51368
1186.06714	0.51357
1184.13857	0.51348
1182.21001	0.51346
1180.28145	0.51381
1178.35288	0.51478
1176.42432	0.51607
1174.49575	0.51706
1172.56719	0.51763
1170.63862	0.51800
1168.71006	0.51836
1166.78149	0.51873
1164.85293	0.51904
1162.92437	0.51923
1160.99580	0.51925
1159.06724	0.51911
1157.13867	0.51878
1155.21011	0.51806
1153.28154	0.51682
1151.35298	0.51523
1149.42441	0.51343
1147.49585	0.51128
1145.56729	0.50883
1143.63872	0.50643
1141.71016	0.50418
1139.78159	0.50203
1137.85303	0.50017
1135.92446	0.49869
1133.99590	0.49747
1132.06733	0.49654
1130.13877	0.49592
1128.21021	0.49523
1126.28164	0.49434
1124.35308	0.49370
1122.42451	0.49348
1120.49595	0.49331
1118.56738	0.49296
1116.63882	0.49261
1114.71025	0.49248
1112.78169	0.49267
1110.85312	0.49319
1108.92456	0.49408
1106.99600	0.49527
1105.06743	0.49643
1103.13887	0.49752
1101.21030	0.49873
1099.28174	0.50031
1097.35317	0.50244
1095.42461	0.50516
1093.49604	0.50859
1091.56748	0.51299
1089.63892	0.51856
1087.71035	0.52538
1085.78179	0.53308
1083.85322	0.54086
1081.92466	0.54789
1079.99609	0.55323
1078.06753	0.55618
1076.13896	0.55641
1074.21040	0.55383
1072.28184	0.54898
1070.35327	0.54279
1068.42471	0.53595
1066.49614	0.52882
1064.56758	0.52198
1062.63901	0.51628
1060.71045	0.51169
1058.78188	0.50749
1056.85332	0.50361
1054.92476	0.50033
1052.99619	0.49743
1051.06763	0.49476
1049.13906	0.49266
1047.21050	0.49127
1045.28193	0.49043
1043.35337	0.49002
1041.42480	0.48984
1039.49624	0.48963
1037.56768	0.48926
1035.63911	0.48898
1033.71055	0.48869
1031.78198	0.48812
1029.85342	0.48736
1027.92485	0.48634
1025.99629	0.48514
1024.06772	0.48453
1022.13916	0.48462
1020.21060	0.48488
1018.28203	0.48524
1016.35347	0.48555
1014.42490	0.48571
1012.49634	0.48603
1010.56777	0.48655
1008.63921	0.48712
1006.71064	0.48793
1004.78208	0.48929
1002.85352	0.49128
1000.92495	0.49392
998.99639	0.49733
997.06782	0.50147
995.13926	0.50581
993.21069	0.50968
991.28213	0.51269
989.35356	0.51482
987.42500	0.51611
985.49644	0.51664
983.56787	0.51688
981.63931	0.51740
979.71074	0.51831
977.78218	0.51954
975.85361	0.52139
973.92505	0.52402
971.99648	0.52731
970.06792	0.53109
968.13936	0.53491
966.21079	0.53886
964.28223	0.54336
962.35366	0.54826
960.42510	0.55341
958.49653	0.55892
956.56797	0.56474
954.63940	0.57083
952.71084	0.57703
950.78228	0.58338
948.85371	0.58999
946.92515	0.59639
944.99658	0.60222
943.06802	0.60812
941.13945	0.61445
939.21089	0.62042
937.28232	0.62577
935.35376	0.63162
933.42520	0.63813
931.49663	0.64435
929.56807	0.64993
927.63950	0.65509
925.71094	0.66070
923.78237	0.66733
921.85381	0.67425
919.92524	0.68118
917.99668	0.68820
916.06812	0.69508
914.13955	0.70238
912.21099	0.70997
910.28242	0.71672
908.35386	0.72409
906.42529	0.73351
904.49673	0.74365
902.56816	0.75382
900.63960	0.76374
898.71104	0.77266
896.78247	0.78182
894.85391	0.79190
892.92534	0.80140
890.99678	0.81006
889.06821	0.81939
887.13965	0.83070
885.21108	0.84372
883.28252	0.85621
881.35396	0.86747
879.42539	0.87902
877.49683	0.89085
875.56826	0.90203
873.63970	0.91313
871.71113	0.92443
869.78257	0.93467
867.85400	0.94477
865.92544	0.95685
863.99687	0.96931
862.06831	0.98069
860.13975	0.99246
858.21118	1.00438
856.28262	1.01547
854.35405	1.02703
852.42549	1.03825
850.49692	1.04761
848.56836	1.05745
846.63979	1.06807
844.71123	1.07973
842.78267	1.09616
840.85410	1.11496
838.92554	1.12804
836.99697	1.13483
835.06841	1.14227
833.13984	1.15249
831.21128	1.16070
829.28271	1.16864
827.35415	1.18153
825.42559	1.19575
823.49702	1.20942
821.56846	1.22277
819.63989	1.23380
817.71133	1.23906
815.78276	1.23692
813.85420	1.23587
811.92563	1.24287
809.99707	1.25626
808.06851	1.27090
806.13994	1.28865
804.21138	1.30378
802.28281	1.29937
800.35425	1.29060
798.42568	1.29154
796.49712	1.28471
794.56855	1.26437
792.63999	1.24346
790.71143	1.24515
788.78286	1.27576
786.85430	1.30986
784.92573	1.33619
782.99717	1.34371
781.06860	1.32451
779.14004	1.31294
777.21147	1.30511
775.28291	1.28085
773.35435	1.27927
771.42578	1.28895
769.49722	1.26555
767.56865	1.25844
765.64009	1.24518
763.71152	1.17921
761.78296	1.12235
759.85439	1.11760
757.92583	1.14374
755.99727	1.17544
754.06870	1.19343
752.14014	1.15008
750.21157	1.05712
748.28301	0.96715
746.35444	0.93097
744.42588	0.93851
742.49731	0.95528
740.56875	0.96754
738.64019	0.92375
736.71162	0.78648
734.78306	0.64773
732.85449	0.55408
730.92593	0.51832
728.99736	0.51797
727.06880	0.48413
725.14023	0.27236
723.21167	-0.01212
721.28311	-0.20121
719.35454	-0.26811
717.42598	-0.28745
715.49741	-0.26308
713.56885	-0.21920
711.64028	-0.18539
709.71172	-0.07053
707.78315	0.06036
705.85459	0.18990
703.92603	0.25264
701.99746	0.22461
700.06890	0.25442
698.14033	0.32120
696.21177	0.30505
694.28320	0.23460
692.35464	0.21708
690.42607	0.28639
688.49751	0.35836
686.56895	0.28920
684.64038	0.19366
682.71182	0.14507
680.78325	0.17804
678.85469	0.23940
676.92612	0.23936
674.99756	0.20333
673.06899	0.19565
671.14043	0.20774
669.21187	0.27638
667.28330	0.37901
665.35474	0.34620
663.42617	0.27175
661.49761	0.27079
659.56904	0.36458
657.64048	0.49582
655.71191	0.49889
653.78335	0.35713
651.85479	0.24037
649.92622	0.17944
647.99766	0.18316
646.06909	0.25929
644.14053	0.35190
642.21196	0.38915
640.28340	0.38017
638.35483	0.32325
636.42627	0.23821
634.49771	0.21609
632.56914	0.23618
630.64058	0.23422
628.71201	0.23362
626.78345	0.25550
624.85488	0.27327
622.92632	0.28841
620.99775	0.29002
619.06919	0.24654
617.14062	0.18245
615.21206	0.12819
613.28350	0.10913
611.35493	0.14800
609.42637	0.17456
607.49780	0.15100
605.56924	0.16517
603.64067	0.22056
601.71211	0.24484
599.78354	0.23699
597.85498	0.26098
595.92642	0.32094
593.99785	0.33416
592.06929	0.32911
590.14072	0.36198
588.21216	0.37124
586.28359	0.29559
584.35503	0.21094
582.42646	0.20215
580.49790	0.22325
578.56934	0.21565
576.64077	0.22407
574.71221	0.23777
572.78364	0.20555
570.85508	0.16872
568.92651	0.15542
566.99795	0.15564
565.06938	0.17184
563.14082	0.17584
561.21226	0.14188
559.28369	0.13766
557.35513	0.19619
555.42656	0.23870
553.49800	0.24389
551.56943	0.22888
549.64087	0.20187
547.71230	0.19479
545.78374	0.21660
543.85518	0.26246
541.92661	0.32145
539.99805	0.33781
538.06948	0.26271
536.14092	0.18345
534.21235	0.16464
532.28379	0.20396
530.35522	0.28335
528.42666	0.29530
526.49810	0.23183
524.56953	0.20080
522.64097	0.18697
520.71240	0.15996
518.78384	0.19210
516.85527	0.25306
514.92671	0.22813
512.99814	0.17245
511.06958	0.19941
509.14102	0.26228
507.21245	0.23685
505.28389	0.17112
503.35532	0.12910
501.42676	0.12155
499.49819	0.17457
