3997.91411	0.07874
3995.98555	0.07885
3994.05698	0.07836
3992.12842	0.07821
3990.19985	0.07850
3988.27129	0.07888
3986.34272	0.07938
3984.41416	0.07981
3982.48560	0.08004
3980.55703	0.08045
3978.62847	0.08091
3976.69990	0.08110
3974.77134	0.08128
3972.84277	0.08154
3970.91421	0.08157
3968.98564	0.08143
3967.05708	0.08128
3965.12852	0.08134
3963.19995	0.08192
3961.27139	0.08237
3959.34282	0.08223
3957.41426	0.08195
3955.48569	0.08176
3953.55713	0.08176
3951.62856	0.08216
3949.70000	0.08277
3947.77144	0.08294
3945.84287	0.08250
3943.91431	0.08224
3941.98574	0.08234
3940.05718	0.08223
3938.12861	0.08189
3936.20005	0.08159
3934.27148	0.08179
3932.34292	0.08266
3930.41436	0.08328
3928.48579	0.08316
3926.55723	0.08285
3924.62866	0.08254
3922.70010	0.08189
3920.77153	0.08110
3918.84297	0.08113
3916.91440	0.08208
3914.98584	0.08249
3913.05728	0.08195
3911.12871	0.08168
3909.20015	0.08157
3907.27158	0.08107
3905.34302	0.08099
3903.41445	0.08188
3901.48589	0.08292
3899.55732	0.08365
3897.62876	0.08390
3895.70020	0.08335
3893.77163	0.08263
3891.84307	0.08218
3889.91450	0.08177
3887.98594	0.08149
3886.05737	0.08194
3884.12881	0.08297
3882.20024	0.08373
3880.27168	0.08376
3878.34312	0.08288
3876.41455	0.08216
3874.48599	0.08254
3872.55742	0.08335
3870.62886	0.08396
3868.70029	0.08446
3866.77173	0.08458
3864.84316	0.08500
3862.91460	0.08568
3860.98604	0.08565
3859.05747	0.08549
3857.12891	0.08573
3855.20034	0.08630
3853.27178	0.08778
3851.34321	0.08916
3849.41465	0.08882
3847.48608	0.08837
3845.55752	0.08837
3843.62896	0.08894
3841.70039	0.09003
3839.77183	0.09089
3837.84326	0.09132
3835.91470	0.09179
3833.98613	0.09234
3832.05757	0.09266
3830.12900	0.09300
3828.20044	0.09385
3826.27187	0.09511
3824.34331	0.09593
3822.41475	0.09654
3820.48618	0.09822
3818.55762	0.09952
3816.62905	0.09949
3814.70049	0.09988
3812.77192	0.10044
3810.84336	0.10078
3808.91479	0.10158
3806.98623	0.10324
3805.05767	0.10509
3803.12910	0.10630
3801.20054	0.10768
3799.27197	0.10908
3797.34341	0.10988
3795.41484	0.11090
3793.48628	0.11167
3791.55771	0.11180
3789.62915	0.11215
3787.70059	0.11334
3785.77202	0.11527
3783.84346	0.11722
3781.91489	0.11878
3779.98633	0.12026
3778.05776	0.12182
3776.12920	0.12323
3774.20063	0.12460
3772.27207	0.12605
3770.34351	0.12803
3768.41494	0.13066
3766.48638	0.13304
3764.55781	0.13495
3762.62925	0.13627
3760.70068	0.13766
3758.77212	0.14023
3756.84355	0.14318
3754.91499	0.14515
3752.98643	0.14700
3751.05786	0.15038
3749.12930	0.15510
3747.20073	0.15781
3745.27217	0.15924
3743.34360	0.16218
3741.41504	0.16557
3739.48647	0.16806
3737.55791	0.17116
3735.62935	0.17585
3733.70078	0.18103
3731.77222	0.18454
3729.84365	0.18729
3727.91509	0.19060
3725.98652	0.19541
3724.05796	0.20221
3722.12939	0.21020
3720.20083	0.21848
3718.27227	0.22624
3716.34370	0.23368
3714.41514	0.24127
3712.48657	0.25015
3710.55801	0.26211
3708.62944	0.27513
3706.70088	0.28634
3704.77231	0.29716
3702.84375	0.30957
3700.91519	0.32554
3698.98662	0.34351
3697.05806	0.36097
3695.12949	0.37953
3693.20093	0.39944
3691.27236	0.42093
3689.34380	0.44826
3687.41523	0.48228
3685.48667	0.51287
3683.55811	0.53919
3681.62954	0.56693
3679.70098	0.59803
3677.77241	0.63076
3675.84385	0.66911
3673.91528	0.72039
3671.98672	0.76266
3670.05815	0.80021
3668.12959	0.85197
3666.20103	0.90029
3664.27246	0.94098
3662.34390	0.98409
3660.41533	1.03046
3658.48677	1.07635
3656.55820	1.12526
3654.62964	1.17946
3652.70107	1.22420
3650.77251	1.26196
3648.84395	1.31512
3646.91538	1.38376
3644.98682	1.43530
3643.05825	1.47423
3641.12969	1.51315
3639.20112	1.55573
3637.27256	1.59923
3635.34399	1.64170
3633.41543	1.68422
3631.48687	1.72470
3629.55830	1.76491
3627.62974	1.81604
3625.70117	1.86564
3623.77261	1.90077
3621.84404	1.93357
3619.91548	1.97077
3617.98691	2.01668
3616.05835	2.06156
3614.12979	2.09893
3612.20122	2.13715
3610.27266	2.17537
3608.34409	2.21444
3606.41553	2.25650
3604.48696	2.29553
3602.55840	2.33001
3600.62983	2.36661
3598.70127	2.40659
3596.77271	2.44720
3594.84414	2.48844
3592.91558	2.52935
3590.98701	2.56757
3589.05845	2.60387
3587.12988	2.64818
3585.20132	2.69768
3583.27275	2.73942
3581.34419	2.77788
3579.41562	2.81858
3577.48706	2.86077
3575.55850	2.90340
3573.62993	2.94702
3571.70137	2.98886
3569.77280	3.02903
3567.84424	3.07375
3565.91567	3.12794
3563.98711	3.17806
3562.05854	3.21957
3560.12998	3.26162
3558.20142	3.30512
3556.27285	3.34882
3554.34429	3.39100
3552.41572	3.43402
3550.48716	3.48118
3548.55859	3.53034
3546.63003	3.57751
3544.70146	3.62329
3542.77290	3.66874
3540.84434	3.71560
3538.91577	3.76491
3536.98721	3.81371
3535.05864	3.86349
3533.13008	3.91230
3531.20151	3.95798
3529.27295	4.00549
3527.34438	4.05661
3525.41582	4.10588
3523.48726	4.15454
3521.55869	4.20678
3519.63013	4.25613
3517.70156	4.30229
3515.77300	4.35094
3513.84443	4.40124
3511.91587	4.44889
3509.98730	4.49308
3508.05874	4.53693
3506.13018	4.58310
3504.20161	4.63225
3502.27305	4.68562
3500.34448	4.73804
3498.41592	4.78355
3496.48735	4.83149
3494.55879	4.88489
3492.63022	4.93192
3490.70166	4.97422
3488.77310	5.02375
3486.84453	5.07646
3484.91597	5.12323
3482.98740	5.17013
3481.05884	5.22078
3479.13027	5.26731
3477.20171	5.30899
3475.27314	5.35160
3473.34458	5.40344
3471.41602	5.46957
3469.48745	5.53202
3467.55889	5.57560
3465.63032	5.62195
3463.70176	5.68553
3461.77319	5.74037
3459.84463	5.77741
3457.91606	5.81909
3455.98750	5.86936
3454.05894	5.91701
3452.13037	5.96932
3450.20181	6.02650
3448.27324	6.07220
3446.34468	6.12198
3444.41611	6.19024
3442.48755	6.25328
3440.55898	6.29171
3438.63042	6.32008
3436.70186	6.35675
3434.77329	6.40617
3432.84473	6.45867
3430.91616	6.50271
3428.98760	6.55190
3427.05903	6.60615
3425.13047	6.65633
3423.20190	6.69272
3421.27334	6.71864
3419.34478	6.77217
3417.41621	6.86934
3415.48765	6.96737
3413.55908	7.02126
3411.63052	7.03818
3409.70195	7.04582
3407.77339	7.06947
3405.84482	7.11038
3403.91626	7.16975
3401.98770	7.22672
3400.05913	7.24520
3398.13057	7.27346
3396.20200	7.36934
3394.27344	7.45150
3392.34487	7.44217
3390.41631	7.45395
3388.48774	7.51021
3386.55918	7.53850
3384.63062	7.55533
3382.70205	7.58084
3380.77349	7.63923
3378.84492	7.75143
3376.91636	7.81343
3374.98779	7.78163
3373.05923	7.80655
3371.13066	7.89461
3369.20210	7.94181
3367.27354	7.92627
3365.34497	7.87387
3363.41641	7.83929
3361.48784	7.88395
3359.55928	7.97712
3357.63071	8.01867
3355.70215	8.02610
3353.77358	8.06795
3351.84502	8.13754
3349.91646	8.14529
3347.98789	8.08599
3346.05933	8.05400
3344.13076	8.12648
3342.20220	8.28552
3340.27363	8.34950
3338.34507	8.26236
3336.41650	8.18450
3334.48794	8.21445
3332.55937	8.29677
3330.63081	8.36498
3328.70225	8.35707
3326.77368	8.24894
3324.84512	8.19444
3322.91655	8.28650
3320.98799	8.37365
3319.05942	8.31826
3317.13086	8.26621
3315.20229	8.22121
3313.27373	8.12039
3311.34517	8.10101
3309.41660	8.20506
3307.48804	8.27629
3305.55947	8.25114
3303.63091	8.22956
3301.70234	8.24562
3299.77378	8.32933
3297.84521	8.47025
3295.91665	8.52164
3293.98809	8.37912
3292.05952	8.19898
3290.13096	8.12443
3288.20239	8.19018
3286.27383	8.37602
3284.34526	8.45438
3282.41670	8.32735
3280.48813	8.26581
3278.55957	8.40140
3276.63101	8.57212
3274.70244	8.62423
3272.77388	8.60370
3270.84531	8.52524
3268.91675	8.41298
3266.98818	8.34328
3265.05962	8.35808
3263.13105	8.43338
3261.20249	8.49767
3259.27393	8.45213
3257.34536	8.36048
3255.41680	8.34701
3253.48823	8.37244
3251.55967	8.38923
3249.63110	8.43683
3247.70254	8.50169
3245.77397	8.44543
3243.84541	8.26869
3241.91685	8.20182
3239.98828	8.29435
3238.05972	8.32736
3236.13115	8.27066
3234.20259	8.27105
3232.27402	8.31085
3230.34546	8.34190
3228.41689	8.37559
3226.48833	8.43191
3224.55977	8.45001
3222.63120	8.36336
3220.70264	8.23788
3218.77407	8.18367
3216.84551	8.20539
3214.91694	8.18598
3212.98838	8.07265
3211.05981	7.97496
3209.13125	7.99340
3207.20269	8.06670
3205.27412	8.05919
3203.34556	7.98655
3201.41699	7.98731
3199.48843	8.09171
3197.55986	8.12598
3195.63130	7.96152
3193.70273	7.77495
3191.77417	7.71939
3189.84561	7.73016
3187.91704	7.68761
3185.98848	7.60712
3184.05991	7.53762
3182.13135	7.45962
3180.20278	7.39747
3178.27422	7.36453
3176.34565	7.30724
3174.41709	7.25988
3172.48853	7.25961
3170.55996	7.23481
3168.63140	7.16364
3166.70283	7.08459
3164.77427	7.01300
3162.84570	6.94194
3160.91714	6.84545
3158.98857	6.74183
3157.06001	6.67435
3155.13145	6.65105
3153.20288	6.62452
3151.27432	6.54302
3149.34575	6.44337
3147.41719	6.36181
3145.48862	6.26882
3143.56006	6.16578
3141.63149	6.08492
3139.70293	6.02570
3137.77437	5.97630
3135.84580	5.92122
3133.91724	5.85308
3131.98867	5.78752
3130.06011	5.71995
3128.13154	5.63726
3126.20298	5.56048
3124.27441	5.49929
3122.34585	5.42530
3120.41729	5.33548
3118.48872	5.25926
3116.56016	5.20127
3114.63159	5.13742
3112.70303	5.06015
3110.77446	4.98395
3108.84590	4.91385
3106.91733	4.84849
3104.98877	4.78299
3103.06021	4.71175
3101.13164	4.63968
3099.20308	4.57383
3097.27451	4.51240
3095.34595	4.44892
3093.41738	4.38192
3091.48882	4.31314
3089.56025	4.24443
3087.63169	4.17778
3085.70312	4.11422
3083.77456	4.05271
3081.84600	3.98931
3079.91743	3.92343
3077.98887	3.86011
3076.06030	3.80131
3074.13174	3.74355
3072.20317	3.68525
3070.27461	3.62700
3068.34604	3.56807
3066.41748	3.50920
3064.48892	3.45222
3062.56035	3.39684
3060.63179	3.34149
3058.70322	3.28645
3056.77466	3.23354
3054.84609	3.18192
3052.91753	3.13057
3050.98896	3.07932
3049.06040	3.02734
3047.13184	2.97638
3045.20327	2.92673
3043.27471	2.87617
3041.34614	2.82522
3039.41758	2.77575
3037.48901	2.72847
3035.56045	2.68252
3033.63188	2.63695
3031.70332	2.59123
3029.77476	2.54528
3027.84619	2.50095
3025.91763	2.45927
3023.98906	2.41813
3022.06050	2.37605
3020.13193	2.33411
3018.20337	2.29283
3016.27480	2.25131
3014.34624	2.21024
3012.41768	2.17115
3010.48911	2.13360
3008.56055	2.09609
3006.63198	2.05900
3004.70342	2.02345
3002.77485	1.98835
3000.84629	1.95264
2998.91772	1.91796
2996.98916	1.88530
2995.06060	1.85347
2993.13203	1.82180
2991.20347	1.79073
2989.27490	1.76028
2987.34634	1.73024
2985.41777	1.70070
2983.48921	1.67176
2981.56064	1.64336
2979.63208	1.61569
2977.70352	1.58887
2975.77495	1.56269
2973.84639	1.53697
2971.91782	1.51145
2969.98926	1.48627
2968.06069	1.46174
2966.13213	1.43767
2964.20356	1.41383
2962.27500	1.38999
2960.34644	1.36586
2958.41787	1.34150
2956.48931	1.31721
2954.56074	1.29310
2952.63218	1.26907
2950.70361	1.24580
2948.77505	1.22369
2946.84648	1.20221
2944.91792	1.18103
2942.98936	1.15995
2941.06079	1.13925
2939.13223	1.11913
2937.20366	1.09949
2935.27510	1.08014
2933.34653	1.06052
2931.41797	1.04084
2929.48940	1.02179
2927.56084	1.00305
2925.63228	0.98435
2923.70371	0.96646
2921.77515	0.94937
2919.84658	0.93246
2917.91802	0.91572
2915.98945	0.89901
2914.06089	0.88212
2912.13232	0.86555
2910.20376	0.85002
2908.27520	0.83537
2906.34663	0.82078
2904.41807	0.80593
2902.48950	0.79120
2900.56094	0.77699
2898.63237	0.76324
2896.70381	0.75001
2894.77524	0.73757
2892.84668	0.72557
2890.91812	0.71336
2888.98955	0.70127
2887.06099	0.69016
2885.13242	0.67987
2883.20386	0.66969
2881.27529	0.65945
2879.34673	0.64915
2877.41816	0.63905
2875.48960	0.62950
2873.56104	0.61993
2871.63247	0.60984
2869.70391	0.59919
2867.77534	0.58804
2865.84678	0.57680
2863.91821	0.56583
2861.98965	0.55506
2860.06108	0.54457
2858.13252	0.53464
2856.20396	0.52538
2854.27539	0.51665
2852.34683	0.50810
2850.41826	0.49979
2848.48970	0.49180
2846.56113	0.48389
2844.63257	0.47624
2842.70400	0.46922
2840.77544	0.46259
2838.84687	0.45609
2836.91831	0.44987
2834.98975	0.44383
2833.06118	0.43765
2831.13262	0.43146
2829.20405	0.42555
2827.27549	0.41974
2825.34692	0.41382
2823.41836	0.40788
2821.48979	0.40200
2819.56123	0.39621
2817.63267	0.39054
2815.70410	0.38511
2813.77554	0.37987
2811.84697	0.37470
2809.91841	0.36958
2807.98984	0.36442
2806.06128	0.35921
2804.13271	0.35393
2802.20415	0.34858
2800.27559	0.34350
2798.34702	0.33884
2796.41846	0.33433
2794.48989	0.32987
2792.56133	0.32547
2790.63276	0.32106
2788.70420	0.31678
2786.77563	0.31256
2784.84707	0.30822
2782.91851	0.30399
2780.98994	0.29997
2779.06138	0.29608
2777.13281	0.29246
2775.20425	0.28903
2773.27568	0.28544
2771.34712	0.28163
2769.41855	0.27790
2767.48999	0.27445
2765.56143	0.27108
2763.63286	0.26768
2761.70430	0.26432
2759.77573	0.26104
2757.84717	0.25791
2755.91860	0.25502
2753.99004	0.25225
2752.06147	0.24935
2750.13291	0.24630
2748.20435	0.24332
2746.27578	0.24055
2744.34722	0.23802
2742.41865	0.23565
2740.49009	0.23325
2738.56152	0.23072
2736.63296	0.22808
2734.70439	0.22546
2732.77583	0.22304
2730.84727	0.22088
2728.91870	0.21887
2726.99014	0.21678
2725.06157	0.21446
2723.13301	0.21210
2721.20444	0.20992
2719.27588	0.20792
2717.34731	0.20604
2715.41875	0.20428
2713.49019	0.20248
2711.56162	0.20066
2709.63306	0.19913
2707.70449	0.19770
2705.77593	0.19600
2703.84736	0.19427
2701.91880	0.19280
2699.99023	0.19144
2698.06167	0.19006
2696.13311	0.18879
2694.20454	0.18761
2692.27598	0.18631
2690.34741	0.18489
2688.41885	0.18358
2686.49028	0.18240
2684.56172	0.18126
2682.63315	0.18008
2680.70459	0.17886
2678.77603	0.17767
2676.84746	0.17653
2674.91890	0.17542
2672.99033	0.17439
2671.06177	0.17336
2669.13320	0.17235
2667.20464	0.17153
2665.27607	0.17079
2663.34751	0.16999
2661.41895	0.16934
2659.49038	0.16884
2657.56182	0.16822
2655.63325	0.16739
2653.70469	0.16652
2651.77612	0.16576
2649.84756	0.16510
2647.91899	0.16444
2645.99043	0.16390
2644.06187	0.16349
2642.13330	0.16302
2640.20474	0.16253
2638.27617	0.16209
2636.34761	0.16151
2634.41904	0.16091
2632.49048	0.16051
2630.56191	0.16015
2628.63335	0.15973
2626.70479	0.15928
2624.77622	0.15894
2622.84766	0.15886
2620.91909	0.15878
2618.99053	0.15844
2617.06196	0.15810
2615.13340	0.15808
2613.20483	0.15807
2611.27627	0.15790
2609.34771	0.15782
2607.41914	0.15781
2605.49058	0.15770
2603.56201	0.15752
2601.63345	0.15742
2599.70488	0.15755
2597.77632	0.15781
2595.84775	0.15795
2593.91919	0.15787
2591.99062	0.15777
2590.06206	0.15790
2588.13350	0.15816
2586.20493	0.15838
2584.27637	0.15848
2582.34780	0.15862
2580.41924	0.15893
2578.49067	0.15927
2576.56211	0.15962
2574.63354	0.15999
2572.70498	0.16032
2570.77642	0.16062
2568.84785	0.16096
2566.91929	0.16134
2564.99072	0.16172
2563.06216	0.16211
2561.13359	0.16250
2559.20503	0.16290
2557.27646	0.16329
2555.34790	0.16375
2553.41934	0.16439
2551.49077	0.16515
2549.56221	0.16581
2547.63364	0.16632
2545.70508	0.16679
2543.77651	0.16729
2541.84795	0.16789
2539.91938	0.16856
2537.99082	0.16915
2536.06226	0.16974
2534.13369	0.17043
2532.20513	0.17117
2530.27656	0.17188
2528.34800	0.17249
2526.41943	0.17309
2524.49087	0.17377
2522.56230	0.17458
2520.63374	0.17547
2518.70518	0.17630
2516.77661	0.17708
2514.84805	0.17787
2512.91948	0.17861
2510.99092	0.17927
2509.06235	0.18004
2507.13379	0.18092
2505.20522	0.18170
2503.27666	0.18230
2501.34810	0.18297
2499.41953	0.18390
2497.49097	0.18494
2495.56240	0.18593
2493.63384	0.18683
2491.70527	0.18768
2489.77671	0.18851
2487.84814	0.18916
2485.91958	0.18985
2483.99102	0.19092
2482.06245	0.19207
2480.13389	0.19298
2478.20532	0.19385
2476.27676	0.19476
2474.34819	0.19551
2472.41963	0.19623
2470.49106	0.19718
2468.56250	0.19828
2466.63394	0.19934
2464.70537	0.20031
2462.77681	0.20126
2460.84824	0.20223
2458.91968	0.20317
2456.99111	0.20405
2455.06255	0.20493
2453.13398	0.20589
2451.20542	0.20684
2449.27686	0.20776
2447.34829	0.20880
2445.41973	0.20985
2443.49116	0.21086
2441.56260	0.21189
2439.63403	0.21287
2437.70547	0.21381
2435.77690	0.21473
2433.84834	0.21568
2431.91978	0.21680
2429.99121	0.21801
2428.06265	0.21907
2426.13408	0.22002
2424.20552	0.22115
2422.27695	0.22237
2420.34839	0.22349
2418.41982	0.22461
2416.49126	0.22581
2414.56270	0.22692
2412.63413	0.22793
2410.70557	0.22896
2408.77700	0.23005
2406.84844	0.23114
2404.91987	0.23226
2402.99131	0.23347
2401.06274	0.23473
2399.13418	0.23596
2397.20562	0.23714
2395.27705	0.23832
2393.34849	0.23958
2391.41992	0.24079
2389.49136	0.24180
2387.56279	0.24277
2385.63423	0.24357
2383.70566	0.24370
2381.77710	0.24308
2379.84854	0.24213
2377.91997	0.24098
2375.99141	0.23916
2374.06284	0.23653
2372.13428	0.23347
2370.20571	0.23024
2368.27715	0.22717
2366.34858	0.22436
2364.42002	0.22177
2362.49146	0.22053
2360.56289	0.21998
2358.63433	0.21985
2356.70576	0.22290
2354.77720	0.22987
2352.84863	0.23880
2350.92007	0.24666
2348.99150	0.25141
2347.06294	0.25269
2345.13437	0.25071
2343.20581	0.24774
2341.27725	0.24732
2339.34868	0.24906
2337.42012	0.25162
2335.49155	0.25484
2333.56299	0.25798
2331.63442	0.26050
2329.70586	0.26277
2327.77729	0.26530
2325.84873	0.26822
2323.92017	0.27140
2321.99160	0.27489
2320.06304	0.27878
2318.13447	0.28272
2316.20591	0.28614
2314.27734	0.28923
2312.34878	0.29228
2310.42021	0.29525
2308.49165	0.29817
2306.56309	0.30121
2304.63452	0.30407
2302.70596	0.30642
2300.77739	0.30866
2298.84883	0.31113
2296.92026	0.31368
2294.99170	0.31612
2293.06313	0.31854
2291.13457	0.32098
2289.20601	0.32338
2287.27744	0.32579
2285.34888	0.32820
2283.42031	0.33047
2281.49175	0.33250
2279.56318	0.33431
2277.63462	0.33604
2275.70605	0.33792
2273.77749	0.34002
2271.84893	0.34229
2269.92036	0.34452
2267.99180	0.34661
2266.06323	0.34860
2264.13467	0.35060
2262.20610	0.35268
2260.27754	0.35484
2258.34897	0.35709
2256.42041	0.35936
2254.49185	0.36160
2252.56328	0.36385
2250.63472	0.36610
2248.70615	0.36837
2246.77759	0.37070
2244.84902	0.37302
2242.92046	0.37522
2240.99189	0.37733
2239.06333	0.37945
2237.13477	0.38174
2235.20620	0.38412
2233.27764	0.38643
2231.34907	0.38878
2229.42051	0.39114
2227.49194	0.39327
2225.56338	0.39527
2223.63481	0.39736
2221.70625	0.39957
2219.77769	0.40185
2217.84912	0.40401
2215.92056	0.40611
2213.99199	0.40830
2212.06343	0.41045
2210.13486	0.41248
2208.20630	0.41453
2206.27773	0.41669
2204.34917	0.41891
2202.42061	0.42100
2200.49204	0.42290
2198.56348	0.42483
2196.63491	0.42678
2194.70635	0.42872
2192.77778	0.43063
2190.84922	0.43242
2188.92065	0.43419
2186.99209	0.43610
2185.06353	0.43799
2183.13496	0.43968
2181.20640	0.44125
2179.27783	0.44279
2177.34927	0.44434
2175.42070	0.44593
2173.49214	0.44748
2171.56357	0.44883
2169.63501	0.45006
2167.70645	0.45139
2165.77788	0.45278
2163.84932	0.45405
2161.92075	0.45517
2159.99219	0.45617
2158.06362	0.45709
2156.13506	0.45798
2154.20649	0.45882
2152.27793	0.45961
2150.34937	0.46040
2148.42080	0.46118
2146.49224	0.46183
2144.56367	0.46223
2142.63511	0.46250
2140.70654	0.46280
2138.77798	0.46314
2136.84941	0.46331
2134.92085	0.46324
2132.99229	0.46308
2131.06372	0.46294
2129.13516	0.46282
2127.20659	0.46257
2125.27803	0.46214
2123.34946	0.46164
2121.42090	0.46113
2119.49233	0.46051
2117.56377	0.45978
2115.63521	0.45902
2113.70664	0.45823
2111.77808	0.45738
2109.84951	0.45642
2107.92095	0.45538
2105.99238	0.45429
2104.06382	0.45308
2102.13525	0.45170
2100.20669	0.45028
2098.27812	0.44884
2096.34956	0.44729
2094.42100	0.44575
2092.49243	0.44422
2090.56387	0.44248
2088.63530	0.44058
2086.70674	0.43875
2084.77817	0.43689
2082.84961	0.43484
2080.92104	0.43276
2078.99248	0.43077
2077.06392	0.42866
2075.13535	0.42631
2073.20679	0.42402
2071.27822	0.42197
2069.34966	0.41998
2067.42109	0.41773
2065.49253	0.41524
2063.56396	0.41274
2061.63540	0.41021
2059.70684	0.40757
2057.77827	0.40491
2055.84971	0.40240
2053.92114	0.39989
2051.99258	0.39721
2050.06401	0.39451
2048.13545	0.39191
2046.20688	0.38916
2044.27832	0.38636
2042.34976	0.38376
2040.42119	0.38111
2038.49263	0.37822
2036.56406	0.37539
2034.63550	0.37271
2032.70693	0.37006
2030.77837	0.36734
2028.84980	0.36451
2026.92124	0.36163
2024.99268	0.35880
2023.06411	0.35604
2021.13555	0.35335
2019.20698	0.35067
2017.27842	0.34792
2015.34985	0.34508
2013.42129	0.34234
2011.49272	0.33973
2009.56416	0.33709
2007.63560	0.33426
2005.70703	0.33146
2003.77847	0.32886
2001.84990	0.32635
1999.92134	0.32378
1997.99277	0.32113
1996.06421	0.31850
1994.13564	0.31596
1992.20708	0.31348
1990.27852	0.31097
1988.34995	0.30847
1986.42139	0.30597
1984.49282	0.30364
1982.56426	0.30144
1980.63569	0.29914
1978.70713	0.29676
1976.77856	0.29445
1974.85000	0.29219
1972.92144	0.28998
1970.99287	0.28782
1969.06431	0.28577
1967.13574	0.28381
1965.20718	0.28184
1963.27861	0.27984
1961.35005	0.27788
1959.42148	0.27602
1957.49292	0.27427
1955.56436	0.27252
1953.63579	0.27073
1951.70723	0.26891
1949.77866	0.26723
1947.85010	0.26572
1945.92153	0.26425
1943.99297	0.26288
1942.06440	0.26162
1940.13584	0.26021
1938.20728	0.25864
1936.27871	0.25712
1934.35015	0.25576
1932.42158	0.25459
1930.49302	0.25350
1928.56445	0.25243
1926.63589	0.25138
1924.70732	0.25039
1922.77876	0.24950
1920.85020	0.24867
1918.92163	0.24788
1916.99307	0.24699
1915.06450	0.24595
1913.13594	0.24495
1911.20737	0.24424
1909.27881	0.24365
1907.35024	0.24295
1905.42168	0.24217
1903.49312	0.24152
1901.56455	0.24097
1899.63599	0.24047
1897.70742	0.24011
1895.77886	0.23977
1893.85029	0.23936
1891.92173	0.23893
1889.99316	0.23870
1888.06460	0.23852
1886.13604	0.23825
1884.20747	0.23803
1882.27891	0.23793
1880.35034	0.23794
1878.42178	0.23793
1876.49321	0.23789
1874.56465	0.23781
1872.63608	0.23786
1870.70752	0.23818
1868.77896	0.23882
1866.85039	0.23921
1864.92183	0.23913
1862.99326	0.23909
1861.06470	0.23925
1859.13613	0.23958
1857.20757	0.23993
1855.27900	0.24034
1853.35044	0.24085
1851.42187	0.24146
1849.49331	0.24201
1847.56475	0.24256
1845.63618	0.24329
1843.70762	0.24431
1841.77905	0.24517
1839.85049	0.24569
1837.92192	0.24650
1835.99336	0.24745
1834.06479	0.24840
1832.13623	0.24945
1830.20767	0.25092
1828.27910	0.25242
1826.35054	0.25342
1824.42197	0.25455
1822.49341	0.25579
1820.56484	0.25707
1818.63628	0.25842
1816.70771	0.26001
1814.77915	0.26165
1812.85059	0.26334
1810.92202	0.26539
1808.99346	0.26759
1807.06489	0.26958
1805.13633	0.27146
1803.20776	0.27370
1801.27920	0.27626
1799.35063	0.27911
1797.42207	0.28171
1795.49351	0.28407
1793.56494	0.28668
1791.63638	0.29010
1789.70781	0.29355
1787.77925	0.29625
1785.85068	0.29941
1783.92212	0.30317
1781.99355	0.30723
1780.06499	0.31145
1778.13643	0.31573
1776.20786	0.31975
1774.27930	0.32399
1772.35073	0.32978
1770.42217	0.33626
1768.49360	0.34166
1766.56504	0.34668
1764.63647	0.35190
1762.70791	0.35778
1760.77935	0.36531
1758.85078	0.37246
1756.92222	0.37954
1754.99365	0.38721
1753.06509	0.39425
1751.13652	0.40257
1749.20796	0.41302
1747.27939	0.42355
1745.35083	0.43295
1743.42227	0.44286
1741.49370	0.45370
1739.56514	0.46632
1737.63657	0.47872
1735.70801	0.48946
1733.77944	0.50591
1731.85088	0.52572
1729.92231	0.54109
1727.99375	0.55654
1726.06519	0.57346
1724.13662	0.59214
1722.20806	0.61224
1720.27949	0.63052
1718.35093	0.65173
1716.42236	0.68363
1714.49380	0.71441
1712.56523	0.73920
1710.63667	0.76309
1708.70811	0.78877
1706.77954	0.81800
1704.85098	0.85301
1702.92241	0.88439
1700.99385	0.91555
1699.06528	0.96180
1697.13672	1.00457
1695.20815	1.04912
1693.27959	1.09265
1691.35103	1.12764
1689.42246	1.16790
1687.49390	1.21042
1685.56533	1.25151
1683.63677	1.31557
1681.70820	1.38266
1679.77964	1.42515
1677.85107	1.46522
1675.92251	1.51199
1673.99395	1.57006
1672.06538	1.62147
1670.13682	1.67187
1668.20825	1.73783
1666.27969	1.79238
1664.35112	1.83865
1662.42256	1.89629
1660.49399	1.96168
1658.56543	2.01295
1656.63687	2.05414
1654.70830	2.09270
1652.77974	2.15266
1650.85117	2.20595
1648.92261	2.22312
1646.99404	2.24570
1645.06548	2.27292
1643.13691	2.29201
1641.20835	2.30159
1639.27979	2.30806
1637.35122	2.31006
1635.42266	2.30638
1633.49409	2.29835
1631.56553	2.28523
1629.63696	2.26761
1627.70840	2.23811
1625.77983	2.20392
1623.85127	2.16170
1621.92271	2.10970
1619.99414	2.06381
1618.06558	2.01971
1616.13701	1.95620
1614.20845	1.89131
1612.27988	1.84189
1610.35132	1.79038
1608.42275	1.73466
1606.49419	1.68014
1604.56562	1.63047
1602.63706	1.58298
1600.70850	1.53685
1598.77993	1.49429
1596.85137	1.45390
1594.92280	1.41439
1592.99424	1.37640
1591.06567	1.34181
1589.13711	1.30945
1587.20854	1.27937
1585.27998	1.25172
1583.35142	1.22610
1581.42285	1.20287
1579.49429	1.18299
1577.56572	1.16524
1575.63716	1.14437
1573.70859	1.12623
1571.78003	1.11430
1569.85146	1.10229
1567.92290	1.08965
1565.99434	1.08066
1564.06577	1.07423
1562.13721	1.06936
1560.20864	1.06648
1558.28008	1.06558
1556.35151	1.06553
1554.42295	1.06473
1552.49438	1.06368
1550.56582	1.06118
1548.63726	1.05657
1546.70869	1.05048
1544.78013	1.04227
1542.85156	1.03139
1540.92300	1.01498
1538.99443	0.98785
1537.06587	0.96774
1535.13730	0.95454
1533.20874	0.93700
1531.28018	0.91785
1529.35161	0.90399
1527.42305	0.89141
1525.49448	0.87841
1523.56592	0.86679
1521.63735	0.85526
1519.70879	0.84392
1517.78022	0.83471
1515.85166	0.82423
1513.92310	0.81322
1511.99453	0.80366
1510.06597	0.79499
1508.13740	0.78619
1506.20884	0.77224
1504.28027	0.76040
1502.35171	0.75408
1500.42314	0.74845
1498.49458	0.74218
1496.56602	0.73495
1494.63745	0.72805
1492.70889	0.72273
1490.78032	0.71818
1488.85176	0.71303
1486.92319	0.70793
1484.99463	0.70378
1483.06606	0.70057
1481.13750	0.69790
1479.20894	0.69570
1477.28037	0.69440
1475.35181	0.69405
1473.42324	0.69404
1471.49468	0.69311
1469.56611	0.69110
1467.63755	0.68872
1465.70898	0.68634
1463.78042	0.68447
1461.85186	0.68355
1459.92329	0.68321
1457.99473	0.68298
1456.06616	0.68210
1454.13760	0.67983
1452.20903	0.67700
1450.28047	0.67414
1448.35190	0.67138
1446.42334	0.66843
1444.49478	0.66561
1442.56621	0.66302
1440.63765	0.66034
1438.70908	0.65753
1436.78052	0.65410
1434.85195	0.65040
1432.92339	0.64761
1430.99482	0.64571
1429.06626	0.64460
1427.13770	0.64417
1425.20913	0.64433
1423.28057	0.64500
1421.35200	0.64554
1419.42344	0.64575
1417.49487	0.64543
1415.56631	0.64447
1413.63774	0.64371
1411.70918	0.64335
1409.78062	0.64341
1407.85205	0.64403
1405.92349	0.64529
1403.99492	0.64658
1402.06636	0.64676
1400.13779	0.64581
1398.20923	0.64422
1396.28066	0.64206
1394.35210	0.63892
1392.42354	0.63507
1390.49497	0.63134
1388.56641	0.62766
1386.63784	0.62337
1384.70928	0.61871
1382.78071	0.61428
1380.85215	0.61010
1378.92358	0.60652
1376.99502	0.60376
1375.06646	0.60168
1373.13789	0.60017
1371.20933	0.59912
1369.28076	0.59829
1367.35220	0.59726
1365.42363	0.59586
1363.49507	0.59436
1361.56650	0.59297
1359.63794	0.59157
1357.70937	0.59021
1355.78081	0.58897
1353.85225	0.58785
1351.92368	0.58698
1349.99512	0.58641
1348.06655	0.58587
1346.13799	0.58506
1344.20942	0.58412
1342.28086	0.58335
1340.35229	0.58285
1338.42373	0.58226
1336.49517	0.58158
1334.56660	0.58111
1332.63804	0.58092
1330.70947	0.58094
1328.78091	0.58113
1326.85234	0.58157
1324.92378	0.58217
1322.99521	0.58281
1321.06665	0.58332
1319.13809	0.58357
1317.20952	0.58366
1315.28096	0.58370
1313.35239	0.58357
1311.42383	0.58305
1309.49526	0.58232
1307.56670	0.58162
1305.63813	0.58100
1303.70957	0.58036
1301.78101	0.57963
1299.85244	0.57875
1297.92388	0.57772
1295.99531	0.57655
1294.06675	0.57539
1292.13818	0.57440
1290.20962	0.57354
1288.28105	0.57260
1286.35249	0.57146
1284.42393	0.57018
1282.49536	0.56884
1280.56680	0.56755
1278.63823	0.56638
1276.70967	0.56524
1274.78110	0.56414
1272.85254	0.56321
1270.92397	0.56238
1268.99541	0.56161
1267.06685	0.56095
1265.13828	0.56022
1263.20972	0.55937
1261.28115	0.55860
1259.35259	0.55791
1257.42402	0.55722
1255.49546	0.55668
1253.56689	0.55646
1251.63833	0.55647
1249.70977	0.55649
1247.78120	0.55642
1245.85264	0.55622
1243.92407	0.55570
1241.99551	0.55480
1240.06694	0.55366
1238.13838	0.55225
1236.20981	0.55038
1234.28125	0.54832
1232.35269	0.54649
1230.42412	0.54483
1228.49556	0.54304
1226.56699	0.54114
1224.63843	0.53945
1222.70986	0.53810
1220.78130	0.53691
1218.85273	0.53568
1216.92417	0.53447
1214.99561	0.53341
1213.06704	0.53254
1211.13848	0.53180
1209.20991	0.53114
1207.28135	0.53045
1205.35278	0.52947
1203.42422	0.52827
1201.49565	0.52724
1199.56709	0.52653
1197.63853	0.52599
1195.70996	0.52549
1193.78140	0.52512
1191.85283	0.52480
1189.92427	0.52436
1187.99570	0.52395
1186.06714	0.52374
1184.13857	0.52370
1182.21001	0.52401
1180.28145	0.52481
1178.35288	0.52596
1176.42432	0.52720
1174.49575	0.52833
1172.56719	0.52915
1170.63862	0.52948
1168.71006	0.52947
1166.78149	0.52935
1164.85293	0.52916
1162.92437	0.52884
1160.99580	0.52837
1159.06724	0.52771
1157.13867	0.52685
1155.21011	0.52573
1153.28154	0.52431
1151.35298	0.52251
1149.42441	0.52049
1147.49585	0.51837
1145.56729	0.51617
1143.63872	0.51404
1141.71016	0.51188
1139.78159	0.50974
1137.85303	0.50799
1135.92446	0.50667
1133.99590	0.50555
1132.06733	0.50457
1130.13877	0.50386
1128.21021	0.50310
1126.28164	0.50210
1124.35308	0.50130
1122.42451	0.50070
1120.49595	0.49997
1118.56738	0.49927
1116.63882	0.49877
1114.71025	0.49847
1112.78169	0.49835
1110.85312	0.49842
1108.92456	0.49880
1106.99600	0.49965
1105.06743	0.50083
1103.13887	0.50232
1101.21030	0.50427
1099.28174	0.50649
1097.35317	0.50891
1095.42461	0.51177
1093.49604	0.51519
1091.56748	0.51926
1089.63892	0.52382
1087.71035	0.52894
1085.78179	0.53509
1083.85322	0.54188
1081.92466	0.54809
1079.99609	0.55297
1078.06753	0.55599
1076.13896	0.55676
1074.21040	0.55524
1072.28184	0.55140
1070.35327	0.54560
1068.42471	0.53884
1066.49614	0.53208
1064.56758	0.52573
1062.63901	0.51983
1060.71045	0.51439
1058.78188	0.50952
1056.85332	0.50537
1054.92476	0.50198
1052.99619	0.49904
1051.06763	0.49613
1049.13906	0.49339
1047.21050	0.49125
1045.28193	0.48964
1043.35337	0.48827
1041.42480	0.48702
1039.49624	0.48567
1037.56768	0.48438
1035.63911	0.48355
1033.71055	0.48309
1031.78198	0.48286
1029.85342	0.48272
1027.92485	0.48243
1025.99629	0.48237
1024.06772	0.48286
1022.13916	0.48352
1020.21060	0.48401
1018.28203	0.48451
1016.35347	0.48526
1014.42490	0.48616
1012.49634	0.48717
1010.56777	0.48835
1008.63921	0.48995
1006.71064	0.49200
1004.78208	0.49411
1002.85352	0.49629
1000.92495	0.49893
998.99639	0.50204
997.06782	0.50551
995.13926	0.50944
993.21069	0.51352
991.28213	0.51704
989.35356	0.51972
987.42500	0.52157
985.49644	0.52268
983.56787	0.52328
981.63931	0.52387
979.71074	0.52494
977.78218	0.52668
975.85361	0.52896
973.92505	0.53153
971.99648	0.53453
970.06792	0.53819
968.13936	0.54224
966.21079	0.54628
964.28223	0.55043
962.35366	0.55516
960.42510	0.56058
958.49653	0.56628
956.56797	0.57202
954.63940	0.57797
952.71084	0.58415
950.78228	0.59053
948.85371	0.59700
946.92515	0.60325
944.99658	0.60925
943.06802	0.61520
941.13945	0.62121
939.21089	0.62738
937.28232	0.63332
935.35376	0.63885
933.42520	0.64482
931.49663	0.65141
929.56807	0.65757
927.63950	0.66290
925.71094	0.66841
923.78237	0.67512
921.85381	0.68241
919.92524	0.68945
917.99668	0.69659
916.06812	0.70406
914.13955	0.71108
912.21099	0.71776
910.28242	0.72545
908.35386	0.73426
906.42529	0.74352
904.49673	0.75350
902.56816	0.76403
900.63960	0.77412
898.71104	0.78397
896.78247	0.79393
894.85391	0.80332
892.92534	0.81210
890.99678	0.82124
889.06821	0.83237
887.13965	0.84526
885.21108	0.85749
883.28252	0.86814
881.35396	0.87784
879.42539	0.88906
877.49683	0.90289
875.56826	0.91637
873.63970	0.92805
871.71113	0.93871
869.78257	0.94894
867.85400	0.95993
865.92544	0.97191
863.99687	0.98367
862.06831	0.99529
860.13975	1.00771
858.21118	1.01904
856.28262	1.02719
854.35405	1.03661
852.42549	1.05099
850.49692	1.06556
848.56836	1.07655
846.63979	1.08781
844.71123	1.10249
842.78267	1.11670
840.85410	1.12801
838.92554	1.13827
836.99697	1.14974
835.06841	1.16583
833.13984	1.18118
831.21128	1.18776
829.28271	1.19485
827.35415	1.20912
825.42559	1.22360
823.49702	1.23800
821.56846	1.25129
819.63989	1.25970
817.71133	1.27119
815.78276	1.28868
813.85420	1.30552
811.92563	1.32202
809.99707	1.34039
808.06851	1.35470
806.13994	1.36088
804.21138	1.36526
802.28281	1.37678
800.35425	1.40197
798.42568	1.43964
796.49712	1.46143
794.56855	1.44132
792.63999	1.41469
790.71143	1.42573
788.78286	1.46930
786.85430	1.50314
784.92573	1.49963
782.99717	1.44690
781.06860	1.40609
779.14004	1.43798
777.21147	1.52923
775.28291	1.67957
773.35435	1.88302
771.42578	2.06561
769.49722	1.95568
767.56865	1.69252
765.64009	1.64598
763.71152	1.69473
761.78296	1.52621
759.85439	1.36692
757.92583	1.29390
755.99727	1.30187
754.06870	1.40891
752.14014	1.47222
750.21157	1.32099
748.28301	1.20854
746.35444	1.33156
744.42588	1.67447
742.49731	1.38623
740.56875	1.13732
738.64019	1.06192
736.71162	0.96901
734.78306	0.80202
732.85449	0.72386
730.92593	0.82916
728.99736	0.88371
727.06880	0.60329
725.14023	0.41877
723.21167	0.33085
721.28311	0.28886
719.35454	0.38162
717.42598	0.67546
715.49741	4.29298
713.56885	4.28141
711.64028	4.26984
709.71172	0.69528
707.78315	0.54755
705.85459	0.63489
703.92603	0.61188
701.99746	0.56070
700.06890	0.60284
698.14033	0.72690
696.21177	0.76576
694.28320	0.72938
692.35464	1.14514
690.42607	4.14256
688.49751	1.42860
686.56895	0.87601
684.64038	1.20163
682.71182	0.95582
680.78325	0.59531
678.85469	0.49250
676.92612	0.50058
674.99756	0.55234
673.06899	0.58987
671.14043	0.57374
669.21187	0.56886
667.28330	0.68702
665.35474	1.55982
663.42617	3.98056
661.49761	0.90208
659.56904	0.60048
657.64048	0.56576
655.71191	0.69905
653.78335	0.81968
651.85479	0.76288
649.92622	0.53232
647.99766	0.33524
646.06909	0.29805
644.14053	0.40790
642.21196	0.72029
640.28340	3.84170
638.35483	3.83013
636.42627	0.68241
634.49771	0.55154
632.56914	0.67161
630.64058	0.87708
628.71201	0.76147
626.78345	0.66653
624.85488	0.74679
622.92632	0.87486
620.99775	1.25999
619.06919	3.71442
617.14062	3.70284
615.21206	0.52251
613.28350	0.36086
611.35493	0.43897
609.42637	0.66527
607.49780	0.77447
605.56924	0.70968
603.64067	0.81171
601.71211	0.77348
599.78354	0.54760
597.85498	0.49110
595.92642	0.51156
593.99785	0.52166
592.06929	0.51210
590.14072	0.48854
588.21216	0.50258
586.28359	0.56669
584.35503	0.61166
582.42646	0.67175
580.49790	0.91741
578.56934	0.77796
576.64077	0.56254
574.71221	0.54576
572.78364	0.53468
570.85508	0.50300
568.92651	0.61196
566.99795	0.96665
565.06938	1.36019
563.14082	0.93033
561.21226	0.59057
559.28369	0.36823
557.35513	0.27638
555.42656	0.29052
553.49800	0.39054
551.56943	0.51102
549.64087	0.45935
547.71230	0.36536
545.78374	0.32809
543.85518	0.32701
541.92661	0.33092
539.99805	0.32795
538.06948	0.39775
536.14092	0.54832
534.21235	0.56692
532.28379	0.46204
530.35522	0.46368
528.42666	0.58083
526.49810	0.56332
524.56953	0.44800
522.64097	0.43283
520.71240	0.42874
518.78384	0.38254
516.85527	0.40075
514.92671	0.49735
512.99814	0.49261
511.06958	0.44207
509.14102	0.52016
507.21245	0.78039
505.28389	0.69823
503.35532	0.53646
501.42676	0.53134
499.49819	0.47276
