3997.91411	0.06969
3995.98555	0.07034
3994.05698	0.07049
3992.12842	0.07047
3990.19985	0.07034
3988.27129	0.07039
3986.34272	0.07112
3984.41416	0.07225
3982.48560	0.07300
3980.55703	0.07297
3978.62847	0.07254
3976.69990	0.07257
3974.77134	0.07302
3972.84277	0.07325
3970.91421	0.07342
3968.98564	0.07380
3967.05708	0.07393
3965.12852	0.07371
3963.19995	0.07354
3961.27139	0.07365
3959.34282	0.07379
3957.41426	0.07381
3955.48569	0.07400
3953.55713	0.07421
3951.62856	0.07413
3949.70000	0.07404
3947.77144	0.07399
3945.84287	0.07412
3943.91431	0.07457
3941.98574	0.07461
3940.05718	0.07383
3938.12861	0.07317
3936.20005	0.07321
3934.27148	0.07349
3932.34292	0.07378
3930.41436	0.07403
3928.48579	0.07397
3926.55723	0.07385
3924.62866	0.07419
3922.70010	0.07453
3920.77153	0.07417
3918.84297	0.07346
3916.91440	0.07308
3914.98584	0.07317
3913.05728	0.07321
3911.12871	0.07323
3909.20015	0.07342
3907.27158	0.07364
3905.34302	0.07391
3903.41445	0.07441
3901.48589	0.07479
3899.55732	0.07453
3897.62876	0.07384
3895.70020	0.07324
3893.77163	0.07298
3891.84307	0.07317
3889.91450	0.07354
3887.98594	0.07342
3886.05737	0.07314
3884.12881	0.07343
3882.20024	0.07400
3880.27168	0.07463
3878.34312	0.07528
3876.41455	0.07521
3874.48599	0.07470
3872.55742	0.07428
3870.62886	0.07430
3868.70029	0.07492
3866.77173	0.07539
3864.84316	0.07556
3862.91460	0.07573
3860.98604	0.07588
3859.05747	0.07617
3857.12891	0.07647
3855.20034	0.07673
3853.27178	0.07747
3851.34321	0.07857
3849.41465	0.07887
3847.48608	0.07899
3845.55752	0.07943
3843.62896	0.08020
3841.70039	0.08091
3839.77183	0.08144
3837.84326	0.08214
3835.91470	0.08282
3833.98613	0.08328
3832.05757	0.08382
3830.12900	0.08455
3828.20044	0.08515
3826.27187	0.08570
3824.34331	0.08649
3822.41475	0.08751
3820.48618	0.08894
3818.55762	0.08992
3816.62905	0.09035
3814.70049	0.09135
3812.77192	0.09240
3810.84336	0.09285
3808.91479	0.09312
3806.98623	0.09381
3805.05767	0.09499
3803.12910	0.09594
3801.20054	0.09724
3799.27197	0.09910
3797.34341	0.10047
3795.41484	0.10190
3793.48628	0.10349
3791.55771	0.10478
3789.62915	0.10579
3787.70059	0.10652
3785.77202	0.10734
3783.84346	0.10870
3781.91489	0.11034
3779.98633	0.11205
3778.05776	0.11407
3776.12920	0.11575
3774.20063	0.11687
3772.27207	0.11789
3770.34351	0.11933
3768.41494	0.12177
3766.48638	0.12448
3764.55781	0.12660
3762.62925	0.12839
3760.70068	0.13018
3758.77212	0.13233
3756.84355	0.13505
3754.91499	0.13763
3752.98643	0.13959
3751.05786	0.14221
3749.12930	0.14676
3747.20073	0.15025
3745.27217	0.15258
3743.34360	0.15673
3741.41504	0.16134
3739.48647	0.16441
3737.55791	0.16699
3735.62935	0.17041
3733.70078	0.17655
3731.77222	0.18373
3729.84365	0.18925
3727.91509	0.19397
3725.98652	0.19930
3724.05796	0.20535
3722.12939	0.21161
3720.20083	0.21811
3718.27227	0.22490
3716.34370	0.23177
3714.41514	0.23833
3712.48657	0.24637
3710.55801	0.25933
3708.62944	0.27496
3706.70088	0.28825
3704.77231	0.30027
3702.84375	0.31345
3700.91519	0.33033
3698.98662	0.34903
3697.05806	0.36667
3695.12949	0.38510
3693.20093	0.40441
3691.27236	0.42498
3689.34380	0.45171
3687.41523	0.48591
3685.48667	0.51684
3683.55811	0.54352
3681.62954	0.57193
3679.70098	0.60355
3677.77241	0.63595
3675.84385	0.67342
3673.91528	0.72571
3671.98672	0.77011
3670.05815	0.80882
3668.12959	0.86206
3666.20103	0.91169
3664.27246	0.95309
3662.34390	0.99708
3660.41533	1.04427
3658.48677	1.09019
3656.55820	1.13886
3654.62964	1.19438
3652.70107	1.24156
3650.77251	1.28096
3648.84395	1.33385
3646.91538	1.40176
3644.98682	1.45451
3643.05825	1.49513
3641.12969	1.53591
3639.20112	1.58072
3637.27256	1.62609
3635.34399	1.67019
3633.41543	1.71378
3631.48687	1.75378
3629.55830	1.79316
3627.62974	1.84609
3625.70117	1.89840
3623.77261	1.93387
3621.84404	1.96632
3619.91548	2.00270
3617.98691	2.04763
3616.05835	2.09296
3614.12979	2.13053
3612.20122	2.16827
3610.27266	2.20699
3608.34409	2.24770
3606.41553	2.29150
3604.48696	2.33134
3602.55840	2.36584
3600.62983	2.40296
3598.70127	2.44388
3596.77271	2.48325
3594.84414	2.52262
3592.91558	2.56383
3590.98701	2.60195
3589.05845	2.63640
3587.12988	2.68032
3585.20132	2.73298
3583.27275	2.77625
3581.34419	2.81287
3579.41562	2.85138
3577.48706	2.89227
3575.55850	2.93338
3573.62993	2.97539
3571.70137	3.01731
3569.77280	3.05769
3567.84424	3.09993
3565.91567	3.15318
3563.98711	3.20657
3562.05854	3.24774
3560.12998	3.28651
3558.20142	3.33024
3556.27285	3.37770
3554.34429	3.42392
3552.41572	3.47033
3550.48716	3.51728
3548.55859	3.56187
3546.63003	3.60528
3544.70146	3.65069
3542.77290	3.69818
3540.84434	3.74526
3538.91577	3.79037
3536.98721	3.83601
3535.05864	3.88605
3533.13008	3.93448
3531.20151	3.97787
3529.27295	4.02171
3527.34438	4.07061
3525.41582	4.12245
3523.48726	4.17420
3521.55869	4.22440
3519.63013	4.26975
3517.70156	4.31336
3515.77300	4.35965
3513.84443	4.40619
3511.91587	4.44921
3509.98730	4.49529
3508.05874	4.55026
3506.13018	4.60521
3504.20161	4.65264
3502.27305	4.69697
3500.34448	4.74099
3498.41592	4.78319
3496.48735	4.82837
3494.55879	4.87766
3492.63022	4.92746
3490.70166	4.97703
3488.77310	5.02900
3486.84453	5.08713
3484.91597	5.14394
3482.98740	5.18646
3481.05884	5.21644
3479.13027	5.25231
3477.20171	5.30749
3475.27314	5.36759
3473.34458	5.41572
3471.41602	5.45828
3469.48745	5.50330
3467.55889	5.54935
3465.63032	5.59602
3463.70176	5.64341
3461.77319	5.68549
3459.84463	5.73096
3457.91606	5.78924
3455.98750	5.84627
3454.05894	5.89762
3452.13037	5.94665
3450.20181	5.98473
3448.27324	6.01976
3446.34468	6.07332
3444.41611	6.12663
3442.48755	6.16327
3440.55898	6.21676
3438.63042	6.29198
3436.70186	6.34929
3434.77329	6.38640
3432.84473	6.43002
3430.91616	6.48904
3428.98760	6.55299
3427.05903	6.60072
3425.13047	6.64482
3423.20190	6.69895
3421.27334	6.75188
3419.34478	6.78447
3417.41621	6.79669
3415.48765	6.82665
3413.55908	6.89324
3411.63052	6.98490
3409.70195	7.06544
3407.77339	7.10547
3405.84482	7.13234
3403.91626	7.16605
3401.98770	7.17377
3400.05913	7.18290
3398.13057	7.23342
3396.20200	7.29398
3394.27344	7.34275
3392.34487	7.37875
3390.41631	7.41017
3388.48774	7.44731
3386.55918	7.48704
3384.63062	7.49935
3382.70205	7.51094
3380.77349	7.55694
3378.84492	7.59540
3376.91636	7.61628
3374.98779	7.65120
3373.05923	7.70875
3371.13066	7.75975
3369.20210	7.78911
3367.27354	7.77336
3365.34497	7.74937
3363.41641	7.79743
3361.48784	7.89314
3359.55928	7.94247
3357.63071	7.90935
3355.70215	7.87360
3353.77358	7.87876
3351.84502	7.88899
3349.91646	7.88761
3347.98789	7.89864
3346.05933	7.91353
3344.13076	7.94541
3342.20220	8.00185
3340.27363	8.03012
3338.34507	8.03199
3336.41650	8.03425
3334.48794	8.04008
3332.55937	8.03671
3330.63081	8.04936
3328.70225	8.04875
3326.77368	8.01136
3324.84512	7.99513
3322.91655	8.03264
3320.98799	8.11270
3319.05942	8.14853
3317.13086	8.10436
3315.20229	8.03799
3313.27373	8.05073
3311.34517	8.10195
3309.41660	8.05722
3307.48804	7.97841
3305.55947	7.96284
3303.63091	8.01995
3301.70234	8.08982
3299.77378	8.09780
3297.84521	8.05900
3295.91665	8.05799
3293.98809	8.05593
3292.05952	8.04201
3290.13096	8.09124
3288.20239	8.14978
3286.27383	8.16179
3284.34526	8.10369
3282.41670	8.06287
3280.48813	8.15182
3278.55957	8.22244
3276.63101	8.14658
3274.70244	8.11773
3272.77388	8.18146
3270.84531	8.20050
3268.91675	8.18627
3266.98818	8.14951
3265.05962	8.10160
3263.13105	8.11871
3261.20249	8.16212
3259.27393	8.13561
3257.34536	8.08773
3255.41680	8.12423
3253.48823	8.24478
3251.55967	8.29648
3249.63110	8.21028
3247.70254	8.12544
3245.77397	8.07112
3243.84541	8.00195
3241.91685	7.96270
3239.98828	8.02962
3238.05972	8.17283
3236.13115	8.23430
3234.20259	8.11104
3232.27402	7.93331
3230.34546	7.86473
3228.41689	7.89819
3226.48833	7.97025
3224.55977	7.99753
3222.63120	7.92179
3220.70264	7.86818
3218.77407	7.90922
3216.84551	7.92121
3214.91694	7.87345
3212.98838	7.86934
3211.05981	7.87426
3209.13125	7.83095
3207.20269	7.81523
3205.27412	7.84982
3203.34556	7.83653
3201.41699	7.74233
3199.48843	7.64848
3197.55986	7.60728
3195.63130	7.59191
3193.70273	7.57289
3191.77417	7.56863
3189.84561	7.56131
3187.91704	7.51651
3185.98848	7.45892
3184.05991	7.39382
3182.13135	7.28890
3180.20278	7.17601
3178.27422	7.11894
3176.34565	7.10748
3174.41709	7.07135
3172.48853	6.97873
3170.55996	6.88698
3168.63140	6.85333
3166.70283	6.85046
3164.77427	6.82607
3162.84570	6.75486
3160.91714	6.64829
3158.98857	6.55898
3157.06001	6.50838
3155.13145	6.45913
3153.20288	6.38171
3151.27432	6.29867
3149.34575	6.23052
3147.41719	6.17024
3145.48862	6.10841
3143.56006	6.03432
3141.63149	5.95185
3139.70293	5.88318
3137.77437	5.82975
3135.84580	5.76864
3133.91724	5.70119
3131.98867	5.63944
3130.06011	5.57060
3128.13154	5.48801
3126.20298	5.40569
3124.27441	5.33172
3122.34585	5.26299
3120.41729	5.19776
3118.48872	5.13174
3116.56016	5.06154
3114.63159	4.98952
3112.70303	4.92097
3110.77446	4.85855
3108.84590	4.79769
3106.91733	4.73567
3104.98877	4.67288
3103.06021	4.60696
3101.13164	4.53490
3099.20308	4.46041
3097.27451	4.39040
3095.34595	4.32556
3093.41738	4.26217
3091.48882	4.19845
3089.56025	4.13558
3087.63169	4.07311
3085.70312	4.00931
3083.77456	3.94507
3081.84600	3.88291
3079.91743	3.82307
3077.98887	3.76490
3076.06030	3.70821
3074.13174	3.65069
3072.20317	3.59100
3070.27461	3.53167
3068.34604	3.47500
3066.41748	3.42033
3064.48892	3.36623
3062.56035	3.31189
3060.63179	3.25757
3058.70322	3.20362
3056.77466	3.14995
3054.84609	3.09723
3052.91753	3.04692
3050.98896	2.99878
3049.06040	2.94917
3047.13184	2.89762
3045.20327	2.84800
3043.27471	2.80087
3041.34614	2.75371
3039.41758	2.70614
3037.48901	2.66014
3035.56045	2.61607
3033.63188	2.57240
3031.70332	2.52763
3029.77476	2.48214
3027.84619	2.43852
3025.91763	2.39734
3023.98906	2.35666
3022.06050	2.31567
3020.13193	2.27482
3018.20337	2.23483
3016.27480	2.19590
3014.34624	2.15738
3012.41768	2.11917
3010.48911	2.08197
3008.56055	2.04616
3006.63198	2.01106
3004.70342	1.97594
3002.77485	1.94099
3000.84629	1.90646
2998.91772	1.87279
2996.98916	1.84037
2995.06060	1.80868
2993.13203	1.77741
2991.20347	1.74682
2989.27490	1.71675
2987.34634	1.68730
2985.41777	1.65878
2983.48921	1.63074
2981.56064	1.60287
2979.63208	1.57559
2977.70352	1.54893
2975.77495	1.52255
2973.84639	1.49643
2971.91782	1.47103
2969.98926	1.44664
2968.06069	1.42293
2966.13213	1.39953
2964.20356	1.37621
2962.27500	1.35298
2960.34644	1.32988
2958.41787	1.30664
2956.48931	1.28335
2954.56074	1.26042
2952.63218	1.23767
2950.70361	1.21494
2948.77505	1.19297
2946.84648	1.17197
2944.91792	1.15136
2942.98936	1.13090
2941.06079	1.11085
2939.13223	1.09160
2937.20366	1.07277
2935.27510	1.05380
2933.34653	1.03538
2931.41797	1.01770
2929.48940	0.99995
2927.56084	0.98234
2925.63228	0.96498
2923.70371	0.94739
2921.77515	0.92975
2919.84658	0.91259
2917.91802	0.89595
2915.98945	0.87948
2914.06089	0.86323
2912.13232	0.84723
2910.20376	0.83148
2908.27520	0.81657
2906.34663	0.80227
2904.41807	0.78793
2902.48950	0.77389
2900.56094	0.76036
2898.63237	0.74731
2896.70381	0.73480
2894.77524	0.72243
2892.84668	0.71001
2890.91812	0.69796
2888.98955	0.68642
2887.06099	0.67514
2885.13242	0.66449
2883.20386	0.65469
2881.27529	0.64494
2879.34673	0.63498
2877.41816	0.62521
2875.48960	0.61557
2873.56104	0.60578
2871.63247	0.59571
2869.70391	0.58534
2867.77534	0.57489
2865.84678	0.56444
2863.91821	0.55407
2861.98965	0.54406
2860.06108	0.53442
2858.13252	0.52514
2856.20396	0.51629
2854.27539	0.50767
2852.34683	0.49884
2850.41826	0.48998
2848.48970	0.48154
2846.56113	0.47351
2844.63257	0.46584
2842.70400	0.45861
2840.77544	0.45186
2838.84687	0.44546
2836.91831	0.43931
2834.98975	0.43315
2833.06118	0.42693
2831.13262	0.42090
2829.20405	0.41502
2827.27549	0.40916
2825.34692	0.40336
2823.41836	0.39751
2821.48979	0.39173
2819.56123	0.38612
2817.63267	0.38049
2815.70410	0.37493
2813.77554	0.36964
2811.84697	0.36437
2809.91841	0.35893
2807.98984	0.35358
2806.06128	0.34847
2804.13271	0.34348
2802.20415	0.33857
2800.27559	0.33387
2798.34702	0.32933
2796.41846	0.32478
2794.48989	0.32022
2792.56133	0.31578
2790.63276	0.31145
2788.70420	0.30728
2786.77563	0.30322
2784.84707	0.29906
2782.91851	0.29484
2780.98994	0.29068
2779.06138	0.28660
2777.13281	0.28286
2775.20425	0.27947
2773.27568	0.27599
2771.34712	0.27235
2769.41855	0.26889
2767.48999	0.26567
2765.56143	0.26251
2763.63286	0.25925
2761.70430	0.25597
2759.77573	0.25284
2757.84717	0.24975
2755.91860	0.24653
2753.99004	0.24336
2752.06147	0.24038
2750.13291	0.23747
2748.20435	0.23467
2746.27578	0.23197
2744.34722	0.22927
2742.41865	0.22666
2740.49009	0.22425
2738.56152	0.22200
2736.63296	0.21970
2734.70439	0.21724
2732.77583	0.21478
2730.84727	0.21250
2728.91870	0.21033
2726.99014	0.20825
2725.06157	0.20629
2723.13301	0.20430
2721.20444	0.20220
2719.27588	0.20002
2717.34731	0.19797
2715.41875	0.19621
2713.49019	0.19454
2711.56162	0.19278
2709.63306	0.19101
2707.70449	0.18937
2705.77593	0.18790
2703.84736	0.18649
2701.91880	0.18501
2699.99023	0.18354
2698.06167	0.18218
2696.13311	0.18069
2694.20454	0.17904
2692.27598	0.17761
2690.34741	0.17641
2688.41885	0.17527
2686.49028	0.17419
2684.56172	0.17310
2682.63315	0.17196
2680.70459	0.17077
2678.77603	0.16957
2676.84746	0.16840
2674.91890	0.16722
2672.99033	0.16619
2671.06177	0.16532
2669.13320	0.16434
2667.20464	0.16325
2665.27607	0.16230
2663.34751	0.16150
2661.41895	0.16073
2659.49038	0.15993
2657.56182	0.15917
2655.63325	0.15850
2653.70469	0.15779
2651.77612	0.15703
2649.84756	0.15640
2647.91899	0.15580
2645.99043	0.15522
2644.06187	0.15469
2642.13330	0.15424
2640.20474	0.15384
2638.27617	0.15334
2636.34761	0.15274
2634.41904	0.15231
2632.49048	0.15197
2630.56191	0.15151
2628.63335	0.15105
2626.70479	0.15069
2624.77622	0.15031
2622.84766	0.14999
2620.91909	0.14987
2618.99053	0.14984
2617.06196	0.14965
2615.13340	0.14930
2613.20483	0.14899
2611.27627	0.14878
2609.34771	0.14870
2607.41914	0.14874
2605.49058	0.14875
2603.56201	0.14870
2601.63345	0.14861
2599.70488	0.14852
2597.77632	0.14852
2595.84775	0.14857
2593.91919	0.14870
2591.99062	0.14888
2590.06206	0.14903
2588.13350	0.14919
2586.20493	0.14940
2584.27637	0.14954
2582.34780	0.14966
2580.41924	0.14988
2578.49067	0.15013
2576.56211	0.15040
2574.63354	0.15070
2572.70498	0.15095
2570.77642	0.15115
2568.84785	0.15146
2566.91929	0.15191
2564.99072	0.15243
2563.06216	0.15294
2561.13359	0.15334
2559.20503	0.15377
2557.27646	0.15435
2555.34790	0.15493
2553.41934	0.15537
2551.49077	0.15577
2549.56221	0.15626
2547.63364	0.15680
2545.70508	0.15732
2543.77651	0.15778
2541.84795	0.15822
2539.91938	0.15875
2537.99082	0.15955
2536.06226	0.16038
2534.13369	0.16103
2532.20513	0.16162
2530.27656	0.16223
2528.34800	0.16291
2526.41943	0.16367
2524.49087	0.16439
2522.56230	0.16514
2520.63374	0.16597
2518.70518	0.16680
2516.77661	0.16758
2514.84805	0.16829
2512.91948	0.16894
2510.99092	0.16957
2509.06235	0.17022
2507.13379	0.17097
2505.20522	0.17183
2503.27666	0.17265
2501.34810	0.17343
2499.41953	0.17424
2497.49097	0.17501
2495.56240	0.17575
2493.63384	0.17654
2491.70527	0.17748
2489.77671	0.17858
2487.84814	0.17962
2485.91958	0.18045
2483.99102	0.18112
2482.06245	0.18187
2480.13389	0.18289
2478.20532	0.18395
2476.27676	0.18476
2474.34819	0.18546
2472.41963	0.18623
2470.49106	0.18706
2468.56250	0.18799
2466.63394	0.18899
2464.70537	0.18991
2462.77681	0.19070
2460.84824	0.19154
2458.91968	0.19248
2456.99111	0.19341
2455.06255	0.19433
2453.13398	0.19521
2451.20542	0.19613
2449.27686	0.19724
2447.34829	0.19837
2445.41973	0.19927
2443.49116	0.20014
2441.56260	0.20115
2439.63403	0.20220
2437.70547	0.20327
2435.77690	0.20431
2433.84834	0.20532
2431.91978	0.20639
2429.99121	0.20749
2428.06265	0.20851
2426.13408	0.20947
2424.20552	0.21057
2422.27695	0.21169
2420.34839	0.21270
2418.41982	0.21376
2416.49126	0.21494
2414.56270	0.21618
2412.63413	0.21745
2410.70557	0.21861
2408.77700	0.21957
2406.84844	0.22042
2404.91987	0.22136
2402.99131	0.22249
2401.06274	0.22376
2399.13418	0.22513
2397.20562	0.22647
2395.27705	0.22763
2393.34849	0.22870
2391.41992	0.22983
2389.49136	0.23119
2387.56279	0.23299
2385.63423	0.23525
2383.70566	0.23799
2381.77710	0.24124
2379.84854	0.24502
2377.91997	0.24956
2375.99141	0.25497
2374.06284	0.26089
2372.13428	0.26715
2370.20571	0.27413
2368.27715	0.28180
2366.34858	0.28934
2364.42002	0.29513
2362.49146	0.29843
2360.56289	0.30071
2358.63433	0.30268
2356.70576	0.30299
2354.77720	0.30069
2352.84863	0.29596
2350.92007	0.29035
2348.99150	0.28708
2347.06294	0.28759
2345.13437	0.29237
2343.20581	0.29970
2341.27725	0.30376
2339.34868	0.30412
2337.42012	0.30479
2335.49155	0.30598
2333.56299	0.30651
2331.63442	0.30712
2329.70586	0.30809
2327.77729	0.30888
2325.84873	0.30914
2323.92017	0.30883
2321.99160	0.30814
2320.06304	0.30724
2318.13447	0.30617
2316.20591	0.30518
2314.27734	0.30485
2312.34878	0.30539
2310.42021	0.30631
2308.49165	0.30702
2306.56309	0.30722
2304.63452	0.30721
2302.70596	0.30772
2300.77739	0.30886
2298.84883	0.31014
2296.92026	0.31134
2294.99170	0.31248
2293.06313	0.31356
2291.13457	0.31459
2289.20601	0.31569
2287.27744	0.31693
2285.34888	0.31834
2283.42031	0.31984
2281.49175	0.32138
2279.56318	0.32322
2277.63462	0.32542
2275.70605	0.32772
2273.77749	0.33001
2271.84893	0.33227
2269.92036	0.33445
2267.99180	0.33652
2266.06323	0.33845
2264.13467	0.34031
2262.20610	0.34234
2260.27754	0.34444
2258.34897	0.34633
2256.42041	0.34817
2254.49185	0.35014
2252.56328	0.35217
2250.63472	0.35432
2248.70615	0.35654
2246.77759	0.35862
2244.84902	0.36056
2242.92046	0.36248
2240.99189	0.36453
2239.06333	0.36671
2237.13477	0.36895
2235.20620	0.37122
2233.27764	0.37348
2231.34907	0.37562
2229.42051	0.37772
2227.49194	0.37987
2225.56338	0.38206
2223.63481	0.38423
2221.70625	0.38629
2219.77769	0.38833
2217.84912	0.39050
2215.92056	0.39270
2213.99199	0.39482
2212.06343	0.39693
2210.13486	0.39906
2208.20630	0.40112
2206.27773	0.40312
2204.34917	0.40512
2202.42061	0.40721
2200.49204	0.40927
2198.56348	0.41129
2196.63491	0.41337
2194.70635	0.41545
2192.77778	0.41736
2190.84922	0.41913
2188.92065	0.42091
2186.99209	0.42276
2185.06353	0.42458
2183.13496	0.42630
2181.20640	0.42792
2179.27783	0.42949
2177.34927	0.43113
2175.42070	0.43281
2173.49214	0.43432
2171.56357	0.43559
2169.63501	0.43687
2167.70645	0.43828
2165.77788	0.43966
2163.84932	0.44090
2161.92075	0.44204
2159.99219	0.44314
2158.06362	0.44415
2156.13506	0.44511
2154.20649	0.44605
2152.27793	0.44696
2150.34937	0.44780
2148.42080	0.44846
2146.49224	0.44897
2144.56367	0.44953
2142.63511	0.45006
2140.70654	0.45046
2138.77798	0.45073
2136.84941	0.45080
2134.92085	0.45086
2132.99229	0.45097
2131.06372	0.45094
2129.13516	0.45083
2127.20659	0.45082
2125.27803	0.45077
2123.34946	0.45044
2121.42090	0.44997
2119.49233	0.44950
2117.56377	0.44888
2115.63521	0.44806
2113.70664	0.44726
2111.77808	0.44655
2109.84951	0.44579
2107.92095	0.44488
2105.99238	0.44375
2104.06382	0.44256
2102.13525	0.44137
2100.20669	0.44016
2098.27812	0.43884
2096.34956	0.43743
2094.42100	0.43606
2092.49243	0.43472
2090.56387	0.43320
2088.63530	0.43144
2086.70674	0.42965
2084.77817	0.42791
2082.84961	0.42615
2080.92104	0.42428
2078.99248	0.42246
2077.06392	0.42062
2075.13535	0.41855
2073.20679	0.41630
2071.27822	0.41400
2069.34966	0.41180
2067.42109	0.40965
2065.49253	0.40748
2063.56396	0.40510
2061.63540	0.40261
2059.70684	0.40019
2057.77827	0.39778
2055.84971	0.39537
2053.92114	0.39303
2051.99258	0.39065
2050.06401	0.38806
2048.13545	0.38543
2046.20688	0.38283
2044.27832	0.38026
2042.34976	0.37770
2040.42119	0.37506
2038.49263	0.37231
2036.56406	0.36956
2034.63550	0.36686
2032.70693	0.36420
2030.77837	0.36156
2028.84980	0.35887
2026.92124	0.35613
2024.99268	0.35338
2023.06411	0.35069
2021.13555	0.34807
2019.20698	0.34542
2017.27842	0.34256
2015.34985	0.33965
2013.42129	0.33701
2011.49272	0.33453
2009.56416	0.33198
2007.63560	0.32936
2005.70703	0.32667
2003.77847	0.32399
2001.84990	0.32138
1999.92134	0.31884
1997.99277	0.31631
1996.06421	0.31382
1994.13564	0.31125
1992.20708	0.30856
1990.27852	0.30593
1988.34995	0.30347
1986.42139	0.30104
1984.49282	0.29869
1982.56426	0.29644
1980.63569	0.29421
1978.70713	0.29197
1976.77856	0.28978
1974.85000	0.28767
1972.92144	0.28557
1970.99287	0.28338
1969.06431	0.28120
1967.13574	0.27916
1965.20718	0.27718
1963.27861	0.27522
1961.35005	0.27326
1959.42148	0.27137
1957.49292	0.26961
1955.56436	0.26785
1953.63579	0.26604
1951.70723	0.26429
1949.77866	0.26264
1947.85010	0.26105
1945.92153	0.25953
1943.99297	0.25803
1942.06440	0.25646
1940.13584	0.25493
1938.20728	0.25358
1936.27871	0.25233
1934.35015	0.25099
1932.42158	0.24957
1930.49302	0.24824
1928.56445	0.24714
1926.63589	0.24614
1924.70732	0.24516
1922.77876	0.24422
1920.85020	0.24328
1918.92163	0.24231
1916.99307	0.24133
1915.06450	0.24047
1913.13594	0.23970
1911.20737	0.23892
1909.27881	0.23815
1907.35024	0.23745
1905.42168	0.23680
1903.49312	0.23624
1901.56455	0.23575
1899.63599	0.23525
1897.70742	0.23478
1895.77886	0.23438
1893.85029	0.23403
1891.92173	0.23362
1889.99316	0.23326
1888.06460	0.23301
1886.13604	0.23274
1884.20747	0.23248
1882.27891	0.23231
1880.35034	0.23223
1878.42178	0.23214
1876.49321	0.23212
1874.56465	0.23216
1872.63608	0.23220
1870.70752	0.23215
1868.77896	0.23223
1866.85039	0.23242
1864.92183	0.23255
1862.99326	0.23283
1861.06470	0.23322
1859.13613	0.23364
1857.20757	0.23403
1855.27900	0.23443
1853.35044	0.23481
1851.42187	0.23523
1849.49331	0.23566
1847.56475	0.23619
1845.63618	0.23692
1843.70762	0.23786
1841.77905	0.23874
1839.85049	0.23928
1837.92192	0.23996
1835.99336	0.24080
1834.06479	0.24177
1832.13623	0.24276
1830.20767	0.24403
1828.27910	0.24546
1826.35054	0.24658
1824.42197	0.24784
1822.49341	0.24919
1820.56484	0.25047
1818.63628	0.25179
1816.70771	0.25339
1814.77915	0.25510
1812.85059	0.25683
1810.92202	0.25875
1808.99346	0.26082
1807.06489	0.26276
1805.13633	0.26451
1803.20776	0.26656
1801.27920	0.26901
1799.35063	0.27178
1797.42207	0.27426
1795.49351	0.27649
1793.56494	0.27895
1791.63638	0.28245
1789.70781	0.28624
1787.77925	0.28904
1785.85068	0.29203
1783.92212	0.29560
1781.99355	0.29944
1780.06499	0.30356
1778.13643	0.30792
1776.20786	0.31193
1774.27930	0.31590
1772.35073	0.32119
1770.42217	0.32737
1768.49360	0.33295
1766.56504	0.33830
1764.63647	0.34365
1762.70791	0.34935
1760.77935	0.35661
1758.85078	0.36359
1756.92222	0.37071
1754.99365	0.37858
1753.06509	0.38556
1751.13652	0.39356
1749.20796	0.40382
1747.27939	0.41431
1745.35083	0.42364
1743.42227	0.43340
1741.49370	0.44392
1739.56514	0.45616
1737.63657	0.46856
1735.70801	0.47935
1733.77944	0.49539
1731.85088	0.51505
1729.92231	0.53082
1727.99375	0.54654
1726.06519	0.56318
1724.13662	0.58119
1722.20806	0.60080
1720.27949	0.61882
1718.35093	0.63945
1716.42236	0.67041
1714.49380	0.70081
1712.56523	0.72571
1710.63667	0.74977
1708.70811	0.77536
1706.77954	0.80388
1704.85098	0.83808
1702.92241	0.86912
1700.99385	0.89977
1699.06528	0.94510
1697.13672	0.98720
1695.20815	1.03122
1693.27959	1.07417
1691.35103	1.10862
1689.42246	1.14837
1687.49390	1.19045
1685.56533	1.23065
1683.63677	1.29216
1681.70820	1.35657
1679.77964	1.39836
1677.85107	1.43813
1675.92251	1.48368
1673.99395	1.54005
1672.06538	1.58994
1670.13682	1.63815
1668.20825	1.70132
1666.27969	1.75347
1664.35112	1.79774
1662.42256	1.85353
1660.49399	1.91703
1658.56543	1.96676
1656.63687	2.00606
1654.70830	2.04087
1652.77974	2.09609
1650.85117	2.15078
1648.92261	2.17173
1646.99404	2.19810
1645.06548	2.22800
1643.13691	2.24746
1641.20835	2.25815
1639.27979	2.26628
1637.35122	2.27048
1635.42266	2.27118
1633.49409	2.26639
1631.56553	2.25464
1629.63696	2.23891
1627.70840	2.21114
1625.77983	2.17746
1623.85127	2.13564
1621.92271	2.08569
1619.99414	2.04193
1618.06558	1.99804
1616.13701	1.93457
1614.20845	1.87115
1612.27988	1.82323
1610.35132	1.77265
1608.42275	1.71738
1606.49419	1.66275
1604.56562	1.61236
1602.63706	1.56376
1600.70850	1.51657
1598.77993	1.47344
1596.85137	1.43265
1594.92280	1.39275
1592.99424	1.35448
1591.06567	1.31942
1589.13711	1.28635
1587.20854	1.25563
1585.27998	1.22707
1583.35142	1.20014
1581.42285	1.17568
1579.49429	1.15492
1577.56572	1.13610
1575.63716	1.11314
1573.70859	1.09332
1571.78003	1.08067
1569.85146	1.06721
1567.92290	1.05215
1565.99434	1.04108
1564.06577	1.03253
1562.13721	1.02564
1560.20864	1.02076
1558.28008	1.01535
1556.35151	1.01111
1554.42295	1.00840
1552.49438	1.00567
1550.56582	1.00181
1548.63726	0.99620
1546.70869	0.98947
1544.78013	0.98084
1542.85156	0.96951
1540.92300	0.95374
1538.99443	0.93088
1537.06587	0.91449
1535.13730	0.90320
1533.20874	0.88800
1531.28018	0.87166
1529.35161	0.85991
1527.42305	0.84868
1525.49448	0.83667
1523.56592	0.82613
1521.63735	0.81581
1519.70879	0.80564
1517.78022	0.79751
1515.85166	0.78848
1513.92310	0.77897
1511.99453	0.77046
1510.06597	0.76247
1508.13740	0.75444
1506.20884	0.74288
1504.28027	0.73366
1502.35171	0.72846
1500.42314	0.72357
1498.49458	0.71799
1496.56602	0.71153
1494.63745	0.70549
1492.70889	0.70072
1490.78032	0.69632
1488.85176	0.69147
1486.92319	0.68725
1484.99463	0.68398
1483.06606	0.68114
1481.13750	0.67851
1479.20894	0.67638
1477.28037	0.67491
1475.35181	0.67390
1473.42324	0.67327
1471.49468	0.67222
1469.56611	0.67048
1467.63755	0.66860
1465.70898	0.66683
1463.78042	0.66526
1461.85186	0.66405
1459.92329	0.66312
1457.99473	0.66209
1456.06616	0.66066
1454.13760	0.65902
1452.20903	0.65708
1450.28047	0.65471
1448.35190	0.65218
1446.42334	0.64951
1444.49478	0.64683
1442.56621	0.64437
1440.63765	0.64218
1438.70908	0.63998
1436.78052	0.63708
1434.85195	0.63386
1432.92339	0.63145
1430.99482	0.62984
1429.06626	0.62874
1427.13770	0.62792
1425.20913	0.62736
1423.28057	0.62723
1421.35200	0.62723
1419.42344	0.62702
1417.49487	0.62653
1415.56631	0.62565
1413.63774	0.62475
1411.70918	0.62415
1409.78062	0.62396
1407.85205	0.62409
1405.92349	0.62444
1403.99492	0.62472
1402.06636	0.62437
1400.13779	0.62345
1398.20923	0.62210
1396.28066	0.62022
1394.35210	0.61751
1392.42354	0.61428
1390.49497	0.61123
1388.56641	0.60828
1386.63784	0.60492
1384.70928	0.60126
1382.78071	0.59787
1380.85215	0.59487
1378.92358	0.59221
1376.99502	0.59001
1375.06646	0.58844
1373.13789	0.58730
1371.20933	0.58636
1369.28076	0.58554
1367.35220	0.58450
1365.42363	0.58312
1363.49507	0.58170
1361.56650	0.58049
1359.63794	0.57934
1357.70937	0.57816
1355.78081	0.57703
1353.85225	0.57595
1351.92368	0.57494
1349.99512	0.57411
1348.06655	0.57343
1346.13799	0.57263
1344.20942	0.57170
1342.28086	0.57082
1340.35229	0.57006
1338.42373	0.56943
1336.49517	0.56896
1334.56660	0.56860
1332.63804	0.56829
1330.70947	0.56799
1328.78091	0.56776
1326.85234	0.56780
1324.92378	0.56808
1322.99521	0.56828
1321.06665	0.56830
1319.13809	0.56838
1317.20952	0.56847
1315.28096	0.56826
1313.35239	0.56769
1311.42383	0.56698
1309.49526	0.56631
1307.56670	0.56580
1305.63813	0.56528
1303.70957	0.56454
1301.78101	0.56370
1299.85244	0.56290
1297.92388	0.56206
1295.99531	0.56111
1294.06675	0.56002
1292.13818	0.55885
1290.20962	0.55787
1288.28105	0.55707
1286.35249	0.55615
1284.42393	0.55513
1282.49536	0.55409
1280.56680	0.55306
1278.63823	0.55215
1276.70967	0.55136
1274.78110	0.55057
1272.85254	0.54982
1270.92397	0.54920
1268.99541	0.54859
1267.06685	0.54792
1265.13828	0.54726
1263.20972	0.54663
1261.28115	0.54606
1259.35259	0.54550
1257.42402	0.54495
1255.49546	0.54456
1253.56689	0.54440
1251.63833	0.54433
1249.70977	0.54423
1247.78120	0.54406
1245.85264	0.54376
1243.92407	0.54326
1241.99551	0.54257
1240.06694	0.54165
1238.13838	0.54041
1236.20981	0.53888
1234.28125	0.53724
1232.35269	0.53563
1230.42412	0.53422
1228.49556	0.53296
1226.56699	0.53163
1224.63843	0.53019
1222.70986	0.52872
1220.78130	0.52734
1218.85273	0.52611
1216.92417	0.52500
1214.99561	0.52405
1213.06704	0.52337
1211.13848	0.52281
1209.20991	0.52214
1207.28135	0.52139
1205.35278	0.52060
1203.42422	0.51980
1201.49565	0.51909
1199.56709	0.51855
1197.63853	0.51810
1195.70996	0.51751
1193.78140	0.51679
1191.85283	0.51619
1189.92427	0.51577
1187.99570	0.51542
1186.06714	0.51512
1184.13857	0.51515
1182.21001	0.51557
1180.28145	0.51621
1178.35288	0.51709
1176.42432	0.51815
1174.49575	0.51913
1172.56719	0.51983
1170.63862	0.52032
1168.71006	0.52072
1166.78149	0.52106
1164.85293	0.52134
1162.92437	0.52156
1160.99580	0.52162
1159.06724	0.52134
1157.13867	0.52084
1155.21011	0.52026
1153.28154	0.51926
1151.35298	0.51761
1149.42441	0.51554
1147.49585	0.51335
1145.56729	0.51101
1143.63872	0.50843
1141.71016	0.50585
1139.78159	0.50373
1137.85303	0.50223
1135.92446	0.50105
1133.99590	0.50001
1132.06733	0.49925
1130.13877	0.49867
1128.21021	0.49812
1126.28164	0.49757
1124.35308	0.49681
1122.42451	0.49606
1120.49595	0.49574
1118.56738	0.49570
1116.63882	0.49573
1114.71025	0.49601
1112.78169	0.49659
1110.85312	0.49726
1108.92456	0.49797
1106.99600	0.49884
1105.06743	0.49977
1103.13887	0.50074
1101.21030	0.50201
1099.28174	0.50376
1097.35317	0.50602
1095.42461	0.50868
1093.49604	0.51191
1091.56748	0.51623
1089.63892	0.52185
1087.71035	0.52855
1085.78179	0.53593
1083.85322	0.54357
1081.92466	0.55082
1079.99609	0.55635
1078.06753	0.55908
1076.13896	0.55912
1074.21040	0.55686
1072.28184	0.55223
1070.35327	0.54583
1068.42471	0.53890
1066.49614	0.53224
1064.56758	0.52598
1062.63901	0.52016
1060.71045	0.51496
1058.78188	0.51045
1056.85332	0.50663
1054.92476	0.50349
1052.99619	0.50092
1051.06763	0.49868
1049.13906	0.49675
1047.21050	0.49531
1045.28193	0.49434
1043.35337	0.49372
1041.42480	0.49336
1039.49624	0.49304
1037.56768	0.49265
1035.63911	0.49228
1033.71055	0.49188
1031.78198	0.49136
1029.85342	0.49065
1027.92485	0.48958
1025.99629	0.48843
1024.06772	0.48778
1022.13916	0.48757
1020.21060	0.48748
1018.28203	0.48757
1016.35347	0.48784
1014.42490	0.48818
1012.49634	0.48868
1010.56777	0.48934
1008.63921	0.49009
1006.71064	0.49101
1004.78208	0.49219
1002.85352	0.49385
1000.92495	0.49630
998.99639	0.49955
997.06782	0.50334
995.13926	0.50746
993.21069	0.51154
991.28213	0.51482
989.35356	0.51687
987.42500	0.51790
985.49644	0.51830
983.56787	0.51848
981.63931	0.51889
979.71074	0.51982
977.78218	0.52137
975.85361	0.52350
973.92505	0.52606
971.99648	0.52891
970.06792	0.53195
968.13936	0.53536
966.21079	0.53941
964.28223	0.54380
962.35366	0.54825
960.42510	0.55315
958.49653	0.55858
956.56797	0.56408
954.63940	0.56968
952.71084	0.57576
950.78228	0.58215
948.85371	0.58841
946.92515	0.59452
944.99658	0.60063
943.06802	0.60662
941.13945	0.61246
939.21089	0.61850
937.28232	0.62472
935.35376	0.63056
933.42520	0.63597
931.49663	0.64130
929.56807	0.64651
927.63950	0.65180
925.71094	0.65746
923.78237	0.66304
921.85381	0.66867
919.92524	0.67522
917.99668	0.68280
916.06812	0.69083
914.13955	0.69840
912.21099	0.70550
910.28242	0.71307
908.35386	0.72143
906.42529	0.72996
904.49673	0.73803
902.56816	0.74643
900.63960	0.75548
898.71104	0.76480
896.78247	0.77544
894.85391	0.78667
892.92534	0.79612
890.99678	0.80426
889.06821	0.81362
887.13965	0.82535
885.21108	0.83757
883.28252	0.84820
881.35396	0.85826
879.42539	0.86944
877.49683	0.88125
875.56826	0.89272
873.63970	0.90370
871.71113	0.91505
869.78257	0.92682
867.85400	0.93796
865.92544	0.94864
863.99687	0.95951
862.06831	0.97083
860.13975	0.98277
858.21118	0.99447
856.28262	1.00448
854.35405	1.01379
852.42549	1.02430
850.49692	1.03586
848.56836	1.04814
846.63979	1.06085
844.71123	1.07343
842.78267	1.08552
840.85410	1.09628
838.92554	1.10612
836.99697	1.11767
835.06841	1.13179
833.13984	1.14428
831.21128	1.15192
829.28271	1.15826
827.35415	1.16574
825.42559	1.17439
823.49702	1.18624
821.56846	1.19973
819.63989	1.21363
817.71133	1.22577
815.78276	1.23063
813.85420	1.22847
811.92563	1.22779
809.99707	1.24128
808.06851	1.27068
806.13994	1.29235
804.21138	1.28916
802.28281	1.28731
800.35425	1.30075
798.42568	1.32109
796.49712	1.34290
794.56855	1.34060
792.63999	1.30748
790.71143	1.28867
788.78286	1.31041
786.85430	1.33553
784.92573	1.33536
782.99717	1.32343
781.06860	1.31289
779.14004	1.33427
777.21147	1.39399
775.28291	1.44329
773.35435	1.46162
771.42578	1.48461
769.49722	1.43952
767.56865	1.33486
765.64009	1.27424
763.71152	1.26810
761.78296	1.28216
759.85439	1.26060
757.92583	1.20297
755.99727	1.17171
754.06870	1.19128
752.14014	1.26254
750.21157	1.43795
748.28301	1.86886
746.35444	1.83439
744.42588	1.27775
742.49731	0.99727
740.56875	0.86397
738.64019	0.85191
736.71162	0.91960
734.78306	0.89121
732.85449	0.75358
730.92593	0.67752
728.99736	0.65557
727.06880	0.67520
725.14023	0.74734
723.21167	0.69031
721.28311	0.61286
719.35454	0.74320
717.42598	1.34046
715.49741	4.29298
713.56885	0.79031
711.64028	0.46493
709.71172	0.26745
707.78315	0.21066
705.85459	0.23446
703.92603	0.23806
701.99746	-0.01455
700.06890	-0.20220
698.14033	-0.02190
696.21177	0.14272
694.28320	0.11627
692.35464	0.01977
690.42607	0.06893
688.49751	0.26650
686.56895	0.95387
684.64038	4.10784
682.71182	0.61956
680.78325	0.39267
678.85469	0.34816
676.92612	0.28559
674.99756	0.23074
673.06899	0.21304
671.14043	0.14073
669.21187	-0.05372
667.28330	-0.08993
665.35474	0.10202
663.42617	0.34274
661.49761	0.57431
659.56904	0.56725
657.64048	0.45539
655.71191	0.34935
653.78335	0.19262
651.85479	0.09189
649.92622	0.07034
647.99766	0.05235
646.06909	0.01377
644.14053	0.02572
642.21196	0.15174
640.28340	0.42737
638.35483	0.44739
636.42627	0.21298
634.49771	0.08074
632.56914	0.03112
630.64058	0.04937
628.71201	0.13514
626.78345	0.25066
624.85488	0.30630
622.92632	0.29563
620.99775	0.30585
619.06919	0.28428
617.14062	0.23635
615.21206	0.19572
613.28350	0.13258
611.35493	0.05822
609.42637	0.04929
607.49780	0.10578
605.56924	0.14178
603.64067	0.10808
601.71211	0.03291
599.78354	-0.00557
597.85498	0.03376
595.92642	0.10950
593.99785	0.17963
592.06929	0.22578
590.14072	0.22394
588.21216	0.14930
586.28359	0.06269
584.35503	0.05520
582.42646	0.07021
580.49790	0.05818
578.56934	0.07006
576.64077	0.19530
574.71221	0.46034
572.78364	0.85926
570.85508	0.73231
568.92651	0.29192
566.99795	0.14844
565.06938	0.14790
563.14082	0.18730
561.21226	0.20142
559.28369	0.18336
557.35513	0.19541
555.42656	0.26942
553.49800	0.36785
551.56943	0.38068
549.64087	0.28954
547.71230	0.21962
545.78374	0.20328
543.85518	0.17393
541.92661	0.09788
539.99805	0.07848
538.06948	0.12515
536.14092	0.21953
534.21235	0.25710
532.28379	0.22138
530.35522	0.16651
528.42666	0.13055
526.49810	0.14854
524.56953	0.19725
522.64097	0.23994
520.71240	0.28122
518.78384	0.31679
516.85527	0.27268
514.92671	0.19876
512.99814	0.14861
511.06958	0.10505
509.14102	0.11566
507.21245	0.22679
505.28389	0.31161
503.35532	0.30100
501.42676	0.34602
499.49819	0.34709
