3997.91411	0.06519
3995.98555	0.06576
3994.05698	0.06587
3992.12842	0.06616
3990.19985	0.06700
3988.27129	0.06758
3986.34272	0.06771
3984.41416	0.06790
3982.48560	0.06833
3980.55703	0.06891
3978.62847	0.06921
3976.69990	0.06928
3974.77134	0.06945
3972.84277	0.06958
3970.91421	0.06955
3968.98564	0.06943
3967.05708	0.06936
3965.12852	0.06969
3963.19995	0.07056
3961.27139	0.07122
3959.34282	0.07131
3957.41426	0.07127
3955.48569	0.07117
3953.55713	0.07119
3951.62856	0.07143
3949.70000	0.07150
3947.77144	0.07154
3945.84287	0.07163
3943.91431	0.07166
3941.98574	0.07170
3940.05718	0.07151
3938.12861	0.07133
3936.20005	0.07149
3934.27148	0.07176
3932.34292	0.07224
3930.41436	0.07295
3928.48579	0.07297
3926.55723	0.07233
3924.62866	0.07204
3922.70010	0.07192
3920.77153	0.07169
3918.84297	0.07205
3916.91440	0.07289
3914.98584	0.07286
3913.05728	0.07159
3911.12871	0.07044
3909.20015	0.07025
3907.27158	0.07086
3905.34302	0.07234
3903.41445	0.07463
3901.48589	0.07639
3899.55732	0.07649
3897.62876	0.07491
3895.70020	0.07273
3893.77163	0.07186
3891.84307	0.07270
3889.91450	0.07338
3887.98594	0.07288
3886.05737	0.07300
3884.12881	0.07397
3882.20024	0.07462
3880.27168	0.07504
3878.34312	0.07419
3876.41455	0.07262
3874.48599	0.07285
3872.55742	0.07468
3870.62886	0.07664
3868.70029	0.07779
3866.77173	0.07732
3864.84316	0.07722
3862.91460	0.07808
3860.98604	0.07782
3859.05747	0.07678
3857.12891	0.07669
3855.20034	0.07839
3853.27178	0.08237
3851.34321	0.08461
3849.41465	0.08199
3847.48608	0.07927
3845.55752	0.07817
3843.62896	0.07900
3841.70039	0.08128
3839.77183	0.08380
3837.84326	0.08572
3835.91470	0.08584
3833.98613	0.08474
3832.05757	0.08420
3830.12900	0.08469
3828.20044	0.08581
3826.27187	0.08704
3824.34331	0.08796
3822.41475	0.08946
3820.48618	0.09247
3818.55762	0.09387
3816.62905	0.09304
3814.70049	0.09203
3812.77192	0.09086
3810.84336	0.09049
3808.91479	0.09177
3806.98623	0.09472
3805.05767	0.09763
3803.12910	0.09975
3801.20054	0.10248
3799.27197	0.10351
3797.34341	0.10228
3795.41484	0.10165
3793.48628	0.10165
3791.55771	0.10218
3789.62915	0.10347
3787.70059	0.10494
3785.77202	0.10656
3783.84346	0.10836
3781.91489	0.10967
3779.98633	0.11112
3778.05776	0.11317
3776.12920	0.11437
3774.20063	0.11507
3772.27207	0.11664
3770.34351	0.11917
3768.41494	0.12189
3766.48638	0.12414
3764.55781	0.12628
3762.62925	0.12809
3760.70068	0.13009
3758.77212	0.13332
3756.84355	0.13656
3754.91499	0.13895
3752.98643	0.14239
3751.05786	0.14804
3749.12930	0.15354
3747.20073	0.15577
3745.27217	0.15785
3743.34360	0.16290
3741.41504	0.16833
3739.48647	0.17272
3737.55791	0.17873
3735.62935	0.18765
3733.70078	0.19667
3731.77222	0.20205
3729.84365	0.20632
3727.91509	0.21119
3725.98652	0.21687
3724.05796	0.22266
3722.12939	0.22755
3720.20083	0.23180
3718.27227	0.23551
3716.34370	0.23915
3714.41514	0.24437
3712.48657	0.25454
3710.55801	0.27237
3708.62944	0.29054
3706.70088	0.30224
3704.77231	0.31230
3702.84375	0.32497
3700.91519	0.34151
3698.98662	0.35925
3697.05806	0.37634
3695.12949	0.39463
3693.20093	0.41410
3691.27236	0.43571
3689.34380	0.46348
3687.41523	0.49639
3685.48667	0.52531
3683.55811	0.55095
3681.62954	0.57851
3679.70098	0.60954
3677.77241	0.64280
3675.84385	0.68287
3673.91528	0.73612
3671.98672	0.77923
3670.05815	0.81801
3668.12959	0.87045
3666.20103	0.91727
3664.27246	0.95673
3662.34390	1.00005
3660.41533	1.04774
3658.48677	1.09525
3656.55820	1.14532
3654.62964	1.20015
3652.70107	1.24613
3650.77251	1.28804
3648.84395	1.34785
3646.91538	1.41856
3644.98682	1.46716
3643.05825	1.50413
3641.12969	1.54365
3639.20112	1.58867
3637.27256	1.63441
3635.34399	1.67906
3633.41543	1.72441
3631.48687	1.76722
3629.55830	1.81014
3627.62974	1.86653
3625.70117	1.91829
3623.77261	1.95094
3621.84404	1.98123
3619.91548	2.01659
3617.98691	2.06082
3616.05835	2.10400
3614.12979	2.13968
3612.20122	2.17799
3610.27266	2.21816
3608.34409	2.25871
3606.41553	2.30068
3604.48696	2.34009
3602.55840	2.37666
3600.62983	2.41613
3598.70127	2.45796
3596.77271	2.49808
3594.84414	2.53850
3592.91558	2.57923
3590.98701	2.61644
3589.05845	2.65096
3587.12988	2.69343
3585.20132	2.74161
3583.27275	2.78161
3581.34419	2.81811
3579.41562	2.85863
3577.48706	2.90138
3575.55850	2.94224
3573.62993	2.98241
3571.70137	3.02134
3569.77280	3.05878
3567.84424	3.10015
3565.91567	3.15397
3563.98711	3.20727
3562.05854	3.24961
3560.12998	3.29157
3558.20142	3.33638
3556.27285	3.38097
3554.34429	3.42349
3552.41572	3.46790
3550.48716	3.51465
3548.55859	3.55856
3546.63003	3.60152
3544.70146	3.65008
3542.77290	3.70053
3540.84434	3.74730
3538.91577	3.79315
3536.98721	3.84035
3535.05864	3.89048
3533.13008	3.93963
3531.20151	3.98536
3529.27295	4.03178
3527.34438	4.07989
3525.41582	4.12406
3523.48726	4.16599
3521.55869	4.21400
3519.63013	4.26669
3517.70156	4.31711
3515.77300	4.36046
3513.84443	4.40190
3511.91587	4.45030
3509.98730	4.50561
3508.05874	4.55927
3506.13018	4.60558
3504.20161	4.65122
3502.27305	4.70284
3500.34448	4.75544
3498.41592	4.80149
3496.48735	4.84448
3494.55879	4.89489
3492.63022	4.95157
3490.70166	5.00061
3488.77310	5.03781
3486.84453	5.07503
3484.91597	5.12579
3482.98740	5.18399
3481.05884	5.23593
3479.13027	5.28317
3477.20171	5.33019
3475.27314	5.37399
3473.34458	5.42183
3471.41602	5.48096
3469.48745	5.53508
3467.55889	5.57845
3465.63032	5.62513
3463.70176	5.66592
3461.77319	5.69014
3459.84463	5.72247
3457.91606	5.77115
3455.98750	5.82244
3454.05894	5.88126
3452.13037	5.95176
3450.20181	6.01533
3448.27324	6.06265
3446.34468	6.12042
3444.41611	6.18826
3442.48755	6.23523
3440.55898	6.26569
3438.63042	6.30541
3436.70186	6.35198
3434.77329	6.39803
3432.84473	6.44999
3430.91616	6.50206
3428.98760	6.55539
3427.05903	6.60064
3425.13047	6.64646
3423.20190	6.71935
3421.27334	6.80166
3419.34478	6.85722
3417.41621	6.88346
3415.48765	6.90118
3413.55908	6.93071
3411.63052	6.99325
3409.70195	7.06719
3407.77339	7.11642
3405.84482	7.15399
3403.91626	7.20416
3401.98770	7.24441
3400.05913	7.26954
3398.13057	7.29642
3396.20200	7.31933
3394.27344	7.34446
3392.34487	7.36544
3390.41631	7.40128
3388.48774	7.48521
3386.55918	7.60314
3384.63062	7.67396
3382.70205	7.66736
3380.77349	7.65984
3378.84492	7.70990
3376.91636	7.82008
3374.98779	7.90872
3373.05923	7.92179
3371.13066	7.88338
3369.20210	7.85891
3367.27354	7.91032
3365.34497	7.99050
3363.41641	7.99736
3361.48784	7.97672
3359.55928	7.98165
3357.63071	7.96685
3355.70215	7.97258
3353.77358	7.99762
3351.84502	7.99605
3349.91646	8.01432
3347.98789	8.09147
3346.05933	8.17121
3344.13076	8.21582
3342.20220	8.22821
3340.27363	8.18369
3338.34507	8.13566
3336.41650	8.13181
3334.48794	8.16419
3332.55937	8.17556
3330.63081	8.15838
3328.70225	8.14373
3326.77368	8.11633
3324.84512	8.09837
3322.91655	8.10835
3320.98799	8.10482
3319.05942	8.09870
3317.13086	8.17298
3315.20229	8.22309
3313.27373	8.15946
3311.34517	8.14884
3309.41660	8.22042
3307.48804	8.25847
3305.55947	8.27327
3303.63091	8.27021
3301.70234	8.25577
3299.77378	8.30855
3297.84521	8.32574
3295.91665	8.27099
3293.98809	8.24263
3292.05952	8.21988
3290.13096	8.19165
3288.20239	8.23346
3286.27383	8.36322
3284.34526	8.42584
3282.41670	8.36094
3280.48813	8.26576
3278.55957	8.19169
3276.63101	8.11860
3274.70244	8.05328
3272.77388	8.05694
3270.84531	8.13994
3268.91675	8.26138
3266.98818	8.34840
3265.05962	8.37319
3263.13105	8.33748
3261.20249	8.26761
3259.27393	8.23528
3257.34536	8.27453
3255.41680	8.28879
3253.48823	8.20742
3251.55967	8.19232
3249.63110	8.28739
3247.70254	8.34015
3245.77397	8.35256
3243.84541	8.34499
3241.91685	8.21379
3239.98828	8.08786
3238.05972	8.09266
3236.13115	8.11848
3234.20259	8.11522
3232.27402	8.12360
3230.34546	8.08916
3228.41689	8.03319
3226.48833	8.03346
3224.55977	8.02921
3222.63120	7.99499
3220.70264	7.97895
3218.77407	7.94542
3216.84551	7.90273
3214.91694	7.92808
3212.98838	8.03400
3211.05981	8.16809
3209.13125	8.25977
3207.20269	8.23862
3205.27412	8.09211
3203.34556	7.92414
3201.41699	7.83776
3199.48843	7.82143
3197.55986	7.77926
3195.63130	7.67884
3193.70273	7.60545
3191.77417	7.59880
3189.84561	7.61450
3187.91704	7.61310
3185.98848	7.58120
3184.05991	7.50775
3182.13135	7.40633
3180.20278	7.30915
3178.27422	7.22342
3176.34565	7.16447
3174.41709	7.12835
3172.48853	7.08721
3170.55996	7.04008
3168.63140	6.97740
3166.70283	6.89977
3164.77427	6.83210
3162.84570	6.76821
3160.91714	6.68534
3158.98857	6.59338
3157.06001	6.52666
3155.13145	6.48826
3153.20288	6.44203
3151.27432	6.37708
3149.34575	6.30779
3147.41719	6.24137
3145.48862	6.17893
3143.56006	6.10489
3141.63149	6.01401
3139.70293	5.93115
3137.77437	5.86950
3135.84580	5.80855
3133.91724	5.73431
3131.98867	5.65765
3130.06011	5.59089
3128.13154	5.53137
3126.20298	5.46891
3124.27441	5.40059
3122.34585	5.32167
3120.41729	5.23752
3118.48872	5.16391
3116.56016	5.09678
3114.63159	5.02414
3112.70303	4.95041
3110.77446	4.88349
3108.84590	4.81912
3106.91733	4.74944
3104.98877	4.67681
3103.06021	4.60863
3101.13164	4.54268
3099.20308	4.47487
3097.27451	4.40511
3095.34595	4.33476
3093.41738	4.26721
3091.48882	4.20062
3089.56025	4.13540
3087.63169	4.07500
3085.70312	4.01392
3083.77456	3.95052
3081.84600	3.89041
3079.91743	3.83082
3077.98887	3.76803
3076.06030	3.70503
3074.13174	3.64399
3072.20317	3.58416
3070.27461	3.52467
3068.34604	3.46723
3066.41748	3.41202
3064.48892	3.35607
3062.56035	3.29934
3060.63179	3.24458
3058.70322	3.19145
3056.77466	3.13699
3054.84609	3.08241
3052.91753	3.03155
3050.98896	2.98320
3049.06040	2.93304
3047.13184	2.88140
3045.20327	2.83158
3043.27471	2.78293
3041.34614	2.73394
3039.41758	2.68588
3037.48901	2.63938
3035.56045	2.59399
3033.63188	2.54943
3031.70332	2.50537
3029.77476	2.46183
3027.84619	2.41897
3025.91763	2.37686
3023.98906	2.33557
3022.06050	2.29507
3020.13193	2.25496
3018.20337	2.21502
3016.27480	2.17553
3014.34624	2.13635
3012.41768	2.09760
3010.48911	2.06017
3008.56055	2.02390
3006.63198	1.98783
3004.70342	1.95184
3002.77485	1.91629
3000.84629	1.88149
2998.91772	1.84744
2996.98916	1.81400
2995.06060	1.78121
2993.13203	1.74913
2991.20347	1.71730
2989.27490	1.68574
2987.34634	1.65515
2985.41777	1.62532
2983.48921	1.59588
2981.56064	1.56672
2979.63208	1.53798
2977.70352	1.51014
2975.77495	1.48272
2973.84639	1.45498
2971.91782	1.42742
2969.98926	1.40082
2968.06069	1.37502
2966.13213	1.34948
2964.20356	1.32418
2962.27500	1.29939
2960.34644	1.27509
2958.41787	1.25137
2956.48931	1.22854
2954.56074	1.20628
2952.63218	1.18420
2950.70361	1.16260
2948.77505	1.14152
2946.84648	1.12081
2944.91792	1.10058
2942.98936	1.08040
2941.06079	1.05988
2939.13223	1.03968
2937.20366	1.02033
2935.27510	1.00162
2933.34653	0.98345
2931.41797	0.96531
2929.48940	0.94712
2927.56084	0.93009
2925.63228	0.91397
2923.70371	0.89742
2921.77515	0.88093
2919.84658	0.86544
2917.91802	0.85027
2915.98945	0.83481
2914.06089	0.81952
2912.13232	0.80478
2910.20376	0.79067
2908.27520	0.77679
2906.34663	0.76291
2904.41807	0.74925
2902.48950	0.73594
2900.56094	0.72299
2898.63237	0.71050
2896.70381	0.69848
2894.77524	0.68653
2892.84668	0.67453
2890.91812	0.66298
2888.98955	0.65204
2887.06099	0.64119
2885.13242	0.63023
2883.20386	0.61941
2881.27529	0.60876
2879.34673	0.59819
2877.41816	0.58770
2875.48960	0.57740
2873.56104	0.56741
2871.63247	0.55773
2869.70391	0.54814
2867.77534	0.53840
2865.84678	0.52859
2863.91821	0.51913
2861.98965	0.51026
2860.06108	0.50180
2858.13252	0.49347
2856.20396	0.48502
2854.27539	0.47652
2852.34683	0.46830
2850.41826	0.46052
2848.48970	0.45305
2846.56113	0.44575
2844.63257	0.43877
2842.70400	0.43227
2840.77544	0.42613
2838.84687	0.42016
2836.91831	0.41428
2834.98975	0.40834
2833.06118	0.40224
2831.13262	0.39614
2829.20405	0.39029
2827.27549	0.38470
2825.34692	0.37901
2823.41836	0.37319
2821.48979	0.36769
2819.56123	0.36248
2817.63267	0.35711
2815.70410	0.35156
2813.77554	0.34602
2811.84697	0.34074
2809.91841	0.33581
2807.98984	0.33116
2806.06128	0.32649
2804.13271	0.32162
2802.20415	0.31689
2800.27559	0.31244
2798.34702	0.30797
2796.41846	0.30340
2794.48989	0.29900
2792.56133	0.29476
2790.63276	0.29046
2788.70420	0.28614
2786.77563	0.28208
2784.84707	0.27837
2782.91851	0.27474
2780.98994	0.27104
2779.06138	0.26736
2777.13281	0.26378
2775.20425	0.26035
2773.27568	0.25707
2771.34712	0.25388
2769.41855	0.25065
2767.48999	0.24729
2765.56143	0.24389
2763.63286	0.24064
2761.70430	0.23771
2759.77573	0.23498
2757.84717	0.23224
2755.91860	0.22939
2753.99004	0.22650
2752.06147	0.22374
2750.13291	0.22114
2748.20435	0.21850
2746.27578	0.21584
2744.34722	0.21337
2742.41865	0.21109
2740.49009	0.20882
2738.56152	0.20654
2736.63296	0.20430
2734.70439	0.20204
2732.77583	0.19974
2730.84727	0.19757
2728.91870	0.19561
2726.99014	0.19377
2725.06157	0.19193
2723.13301	0.19006
2721.20444	0.18808
2719.27588	0.18612
2717.34731	0.18440
2715.41875	0.18280
2713.49019	0.18107
2711.56162	0.17926
2709.63306	0.17762
2707.70449	0.17617
2705.77593	0.17478
2703.84736	0.17330
2701.91880	0.17172
2699.99023	0.17022
2698.06167	0.16888
2696.13311	0.16758
2694.20454	0.16633
2692.27598	0.16513
2690.34741	0.16387
2688.41885	0.16248
2686.49028	0.16115
2684.56172	0.16000
2682.63315	0.15907
2680.70459	0.15818
2678.77603	0.15714
2676.84746	0.15600
2674.91890	0.15489
2672.99033	0.15377
2671.06177	0.15268
2669.13320	0.15173
2667.20464	0.15081
2665.27607	0.14994
2663.34751	0.14922
2661.41895	0.14857
2659.49038	0.14794
2657.56182	0.14732
2655.63325	0.14674
2653.70469	0.14613
2651.77612	0.14544
2649.84756	0.14476
2647.91899	0.14416
2645.99043	0.14361
2644.06187	0.14309
2642.13330	0.14258
2640.20474	0.14211
2638.27617	0.14168
2636.34761	0.14127
2634.41904	0.14087
2632.49048	0.14055
2630.56191	0.14032
2628.63335	0.14013
2626.70479	0.13991
2624.77622	0.13971
2622.84766	0.13963
2620.91909	0.13961
2618.99053	0.13946
2617.06196	0.13914
2615.13340	0.13886
2613.20483	0.13869
2611.27627	0.13863
2609.34771	0.13873
2607.41914	0.13892
2605.49058	0.13902
2603.56201	0.13903
2601.63345	0.13912
2599.70488	0.13923
2597.77632	0.13925
2595.84775	0.13931
2593.91919	0.13949
2591.99062	0.13965
2590.06206	0.13977
2588.13350	0.14001
2586.20493	0.14030
2584.27637	0.14047
2582.34780	0.14069
2580.41924	0.14108
2578.49067	0.14142
2576.56211	0.14164
2574.63354	0.14198
2572.70498	0.14251
2570.77642	0.14298
2568.84785	0.14328
2566.91929	0.14357
2564.99072	0.14397
2563.06216	0.14445
2561.13359	0.14495
2559.20503	0.14553
2557.27646	0.14614
2555.34790	0.14673
2553.41934	0.14732
2551.49077	0.14795
2549.56221	0.14859
2547.63364	0.14910
2545.70508	0.14957
2543.77651	0.15023
2541.84795	0.15099
2539.91938	0.15163
2537.99082	0.15219
2536.06226	0.15282
2534.13369	0.15357
2532.20513	0.15433
2530.27656	0.15512
2528.34800	0.15600
2526.41943	0.15686
2524.49087	0.15750
2522.56230	0.15803
2520.63374	0.15874
2518.70518	0.15963
2516.77661	0.16058
2514.84805	0.16147
2512.91948	0.16222
2510.99092	0.16296
2509.06235	0.16376
2507.13379	0.16470
2505.20522	0.16571
2503.27666	0.16654
2501.34810	0.16722
2499.41953	0.16811
2497.49097	0.16919
2495.56240	0.17015
2493.63384	0.17091
2491.70527	0.17170
2489.77671	0.17265
2487.84814	0.17361
2485.91958	0.17446
2483.99102	0.17540
2482.06245	0.17642
2480.13389	0.17736
2478.20532	0.17823
2476.27676	0.17917
2474.34819	0.18018
2472.41963	0.18117
2470.49106	0.18203
2468.56250	0.18277
2466.63394	0.18353
2464.70537	0.18440
2462.77681	0.18537
2460.84824	0.18647
2458.91968	0.18775
2456.99111	0.18896
2455.06255	0.18986
2453.13398	0.19063
2451.20542	0.19161
2449.27686	0.19275
2447.34829	0.19383
2445.41973	0.19480
2443.49116	0.19584
2441.56260	0.19693
2439.63403	0.19800
2437.70547	0.19906
2435.77690	0.20002
2433.84834	0.20086
2431.91978	0.20184
2429.99121	0.20306
2428.06265	0.20434
2426.13408	0.20561
2424.20552	0.20684
2422.27695	0.20799
2420.34839	0.20909
2418.41982	0.21013
2416.49126	0.21111
2414.56270	0.21221
2412.63413	0.21351
2410.70557	0.21475
2408.77700	0.21585
2406.84844	0.21697
2404.91987	0.21816
2402.99131	0.21935
2401.06274	0.22050
2399.13418	0.22171
2397.20562	0.22299
2395.27705	0.22412
2393.34849	0.22525
2391.41992	0.22675
2389.49136	0.22875
2387.56279	0.23166
2385.63423	0.23638
2383.70566	0.24374
2381.77710	0.25373
2379.84854	0.26578
2377.91997	0.27984
2375.99141	0.29659
2374.06284	0.31644
2372.13428	0.33900
2370.20571	0.36362
2368.27715	0.38947
2366.34858	0.41411
2364.42002	0.43466
2362.49146	0.45098
2360.56289	0.46183
2358.63433	0.46240
2356.70576	0.45133
2354.77720	0.43117
2352.84863	0.40490
2350.92007	0.37888
2348.99150	0.36421
2347.06294	0.36532
2345.13437	0.38190
2343.20581	0.40577
2341.27725	0.41976
2339.34868	0.42120
2337.42012	0.41848
2335.49155	0.41533
2333.56299	0.41164
2331.63442	0.40834
2329.70586	0.40560
2327.77729	0.40231
2325.84873	0.39684
2323.92017	0.38906
2321.99160	0.38026
2320.06304	0.37159
2318.13447	0.36333
2316.20591	0.35598
2314.27734	0.35078
2312.34878	0.34787
2310.42021	0.34540
2308.49165	0.34151
2306.56309	0.33627
2304.63452	0.33127
2302.70596	0.32834
2300.77739	0.32730
2298.84883	0.32664
2296.92026	0.32594
2294.99170	0.32521
2293.06313	0.32435
2291.13457	0.32346
2289.20601	0.32259
2287.27744	0.32173
2285.34888	0.32102
2283.42031	0.32105
2281.49175	0.32250
2279.56318	0.32514
2277.63462	0.32805
2275.70605	0.33067
2273.77749	0.33295
2271.84893	0.33505
2269.92036	0.33712
2267.99180	0.33912
2266.06323	0.34101
2264.13467	0.34275
2262.20610	0.34439
2260.27754	0.34592
2258.34897	0.34740
2256.42041	0.34896
2254.49185	0.35069
2252.56328	0.35242
2250.63472	0.35417
2248.70615	0.35606
2246.77759	0.35794
2244.84902	0.35972
2242.92046	0.36162
2240.99189	0.36365
2239.06333	0.36565
2237.13477	0.36768
2235.20620	0.36977
2233.27764	0.37190
2231.34907	0.37412
2229.42051	0.37634
2227.49194	0.37849
2225.56338	0.38075
2223.63481	0.38313
2221.70625	0.38535
2219.77769	0.38737
2217.84912	0.38947
2215.92056	0.39166
2213.99199	0.39371
2212.06343	0.39572
2210.13486	0.39788
2208.20630	0.40008
2206.27773	0.40221
2204.34917	0.40429
2202.42061	0.40633
2200.49204	0.40831
2198.56348	0.41031
2196.63491	0.41237
2194.70635	0.41438
2192.77778	0.41624
2190.84922	0.41801
2188.92065	0.41981
2186.99209	0.42171
2185.06353	0.42364
2183.13496	0.42544
2181.20640	0.42719
2179.27783	0.42898
2177.34927	0.43072
2175.42070	0.43232
2173.49214	0.43374
2171.56357	0.43507
2169.63501	0.43643
2167.70645	0.43773
2165.77788	0.43896
2163.84932	0.44020
2161.92075	0.44139
2159.99219	0.44254
2158.06362	0.44360
2156.13506	0.44450
2154.20649	0.44539
2152.27793	0.44638
2150.34937	0.44729
2148.42080	0.44796
2146.49224	0.44853
2144.56367	0.44907
2142.63511	0.44952
2140.70654	0.44996
2138.77798	0.45039
2136.84941	0.45074
2134.92085	0.45094
2132.99229	0.45093
2131.06372	0.45078
2129.13516	0.45061
2127.20659	0.45040
2125.27803	0.45014
2123.34946	0.44981
2121.42090	0.44946
2119.49233	0.44904
2117.56377	0.44857
2115.63521	0.44797
2113.70664	0.44720
2111.77808	0.44626
2109.84951	0.44524
2107.92095	0.44423
2105.99238	0.44327
2104.06382	0.44230
2102.13525	0.44119
2100.20669	0.43998
2098.27812	0.43871
2096.34956	0.43733
2094.42100	0.43584
2092.49243	0.43430
2090.56387	0.43277
2088.63530	0.43129
2086.70674	0.42974
2084.77817	0.42800
2082.84961	0.42604
2080.92104	0.42403
2078.99248	0.42214
2077.06392	0.42029
2075.13535	0.41827
2073.20679	0.41613
2071.27822	0.41395
2069.34966	0.41171
2067.42109	0.40945
2065.49253	0.40716
2063.56396	0.40479
2061.63540	0.40234
2059.70684	0.39987
2057.77827	0.39749
2055.84971	0.39510
2053.92114	0.39258
2051.99258	0.39012
2050.06401	0.38768
2048.13545	0.38502
2046.20688	0.38220
2044.27832	0.37957
2042.34976	0.37719
2040.42119	0.37475
2038.49263	0.37212
2036.56406	0.36938
2034.63550	0.36667
2032.70693	0.36397
2030.77837	0.36123
2028.84980	0.35842
2026.92124	0.35572
2024.99268	0.35309
2023.06411	0.35039
2021.13555	0.34768
2019.20698	0.34511
2017.27842	0.34261
2015.34985	0.33993
2013.42129	0.33713
2011.49272	0.33430
2009.56416	0.33146
2007.63560	0.32863
2005.70703	0.32587
2003.77847	0.32322
2001.84990	0.32061
1999.92134	0.31805
1997.99277	0.31550
1996.06421	0.31301
1994.13564	0.31071
1992.20708	0.30850
1990.27852	0.30601
1988.34995	0.30335
1986.42139	0.30079
1984.49282	0.29832
1982.56426	0.29586
1980.63569	0.29345
1978.70713	0.29123
1976.77856	0.28909
1974.85000	0.28686
1972.92144	0.28465
1970.99287	0.28257
1969.06431	0.28067
1967.13574	0.27883
1965.20718	0.27681
1963.27861	0.27461
1961.35005	0.27247
1959.42148	0.27046
1957.49292	0.26867
1955.56436	0.26705
1953.63579	0.26543
1951.70723	0.26367
1949.77866	0.26189
1947.85010	0.26023
1945.92153	0.25881
1943.99297	0.25761
1942.06440	0.25627
1940.13584	0.25453
1938.20728	0.25283
1936.27871	0.25143
1934.35015	0.25014
1932.42158	0.24886
1930.49302	0.24760
1928.56445	0.24642
1926.63589	0.24534
1924.70732	0.24451
1922.77876	0.24385
1920.85020	0.24301
1918.92163	0.24207
1916.99307	0.24106
1915.06450	0.23989
1913.13594	0.23889
1911.20737	0.23831
1909.27881	0.23786
1907.35024	0.23715
1905.42168	0.23622
1903.49312	0.23543
1901.56455	0.23480
1899.63599	0.23428
1897.70742	0.23393
1895.77886	0.23366
1893.85029	0.23326
1891.92173	0.23287
1889.99316	0.23282
1888.06460	0.23262
1886.13604	0.23209
1884.20747	0.23171
1882.27891	0.23152
1880.35034	0.23139
1878.42178	0.23126
1876.49321	0.23118
1874.56465	0.23119
1872.63608	0.23140
1870.70752	0.23195
1868.77896	0.23291
1866.85039	0.23330
1864.92183	0.23276
1862.99326	0.23234
1861.06470	0.23244
1859.13613	0.23284
1857.20757	0.23317
1855.27900	0.23353
1853.35044	0.23397
1851.42187	0.23447
1849.49331	0.23511
1847.56475	0.23604
1845.63618	0.23725
1843.70762	0.23840
1841.77905	0.23888
1839.85049	0.23899
1837.92192	0.23959
1835.99336	0.24048
1834.06479	0.24141
1832.13623	0.24264
1830.20767	0.24450
1828.27910	0.24607
1826.35054	0.24688
1824.42197	0.24795
1822.49341	0.24900
1820.56484	0.24994
1818.63628	0.25114
1816.70771	0.25271
1814.77915	0.25437
1812.85059	0.25627
1810.92202	0.25855
1808.99346	0.26061
1807.06489	0.26230
1805.13633	0.26409
1803.20776	0.26654
1801.27920	0.26945
1799.35063	0.27239
1797.42207	0.27483
1795.49351	0.27726
1793.56494	0.28031
1791.63638	0.28408
1789.70781	0.28721
1787.77925	0.28936
1785.85068	0.29224
1783.92212	0.29590
1781.99355	0.29997
1780.06499	0.30429
1778.13643	0.30858
1776.20786	0.31268
1774.27930	0.31741
1772.35073	0.32377
1770.42217	0.32998
1768.49360	0.33474
1766.56504	0.33945
1764.63647	0.34460
1762.70791	0.35063
1760.77935	0.35828
1758.85078	0.36536
1756.92222	0.37253
1754.99365	0.38026
1753.06509	0.38724
1751.13652	0.39583
1749.20796	0.40680
1747.27939	0.41737
1745.35083	0.42641
1743.42227	0.43592
1741.49370	0.44639
1739.56514	0.45868
1737.63657	0.47103
1735.70801	0.48222
1733.77944	0.49914
1731.85088	0.51861
1729.92231	0.53348
1727.99375	0.54876
1726.06519	0.56543
1724.13662	0.58367
1722.20806	0.60327
1720.27949	0.62150
1718.35093	0.64337
1716.42236	0.67595
1714.49380	0.70631
1712.56523	0.73028
1710.63667	0.75357
1708.70811	0.77885
1706.77954	0.80775
1704.85098	0.84235
1702.92241	0.87320
1700.99385	0.90355
1699.06528	0.94827
1697.13672	0.98869
1695.20815	1.02954
1693.27959	1.06876
1691.35103	1.10020
1689.42246	1.13676
1687.49390	1.17504
1685.56533	1.21135
1683.63677	1.26772
1681.70820	1.32609
1679.77964	1.36309
1677.85107	1.39880
1675.92251	1.44026
1673.99395	1.49069
1672.06538	1.53456
1670.13682	1.57744
1668.20825	1.63274
1666.27969	1.67621
1664.35112	1.71159
1662.42256	1.75483
1660.49399	1.80289
1658.56543	1.84110
1656.63687	1.87315
1654.70830	1.90435
1652.77974	1.95898
1650.85117	2.01243
1648.92261	2.03322
1646.99404	2.06154
1645.06548	2.09426
1643.13691	2.11581
1641.20835	2.13147
1639.27979	2.14657
1637.35122	2.15675
1635.42266	2.16015
1633.49409	2.15667
1631.56553	2.14660
1629.63696	2.13281
1627.70840	2.10963
1625.77983	2.08236
1623.85127	2.04818
1621.92271	2.00581
1619.99414	1.96732
1618.06558	1.92902
1616.13701	1.87195
1614.20845	1.81109
1612.27988	1.76434
1610.35132	1.71655
1608.42275	1.66504
1606.49419	1.61405
1604.56562	1.56675
1602.63706	1.52055
1600.70850	1.47482
1598.77993	1.43251
1596.85137	1.39278
1594.92280	1.35379
1592.99424	1.31535
1591.06567	1.27995
1589.13711	1.24664
1587.20854	1.21482
1585.27998	1.18462
1583.35142	1.15590
1581.42285	1.12936
1579.49429	1.10652
1577.56572	1.08571
1575.63716	1.05903
1573.70859	1.03423
1571.78003	1.01770
1569.85146	0.99996
1567.92290	0.97913
1565.99434	0.96195
1564.06577	0.94688
1562.13721	0.93434
1560.20864	0.92426
1558.28008	0.90562
1556.35151	0.88667
1554.42295	0.87477
1552.49438	0.86338
1550.56582	0.85234
1548.63726	0.84120
1546.70869	0.83188
1544.78013	0.82430
1542.85156	0.81692
1540.92300	0.80811
1538.99443	0.79475
1537.06587	0.78470
1535.13730	0.77875
1533.20874	0.77174
1531.28018	0.76359
1529.35161	0.75737
1527.42305	0.75187
1525.49448	0.74615
1523.56592	0.74090
1521.63735	0.73534
1519.70879	0.72873
1517.78022	0.72294
1515.85166	0.71705
1513.92310	0.71125
1511.99453	0.70681
1510.06597	0.70357
1508.13740	0.70119
1506.20884	0.69634
1504.28027	0.69008
1502.35171	0.68611
1500.42314	0.68319
1498.49458	0.68071
1496.56602	0.67763
1494.63745	0.67372
1492.70889	0.67065
1490.78032	0.66873
1488.85176	0.66648
1486.92319	0.66304
1484.99463	0.65960
1483.06606	0.65694
1481.13750	0.65466
1479.20894	0.65240
1477.28037	0.65050
1475.35181	0.64904
1473.42324	0.64759
1471.49468	0.64500
1469.56611	0.64173
1467.63755	0.63907
1465.70898	0.63690
1463.78042	0.63460
1461.85186	0.63246
1459.92329	0.63115
1457.99473	0.63017
1456.06616	0.62763
1454.13760	0.62426
1452.20903	0.62166
1450.28047	0.61948
1448.35190	0.61739
1446.42334	0.61502
1444.49478	0.61269
1442.56621	0.61079
1440.63765	0.60933
1438.70908	0.60835
1436.78052	0.60738
1434.85195	0.60578
1432.92339	0.60415
1430.99482	0.60286
1429.06626	0.60139
1427.13770	0.59968
1425.20913	0.59834
1423.28057	0.59730
1421.35200	0.59631
1419.42344	0.59537
1417.49487	0.59376
1415.56631	0.59139
1413.63774	0.58929
1411.70918	0.58757
1409.78062	0.58601
1407.85205	0.58456
1405.92349	0.58316
1403.99492	0.58157
1402.06636	0.57996
1400.13779	0.57880
1398.20923	0.57790
1396.28066	0.57688
1394.35210	0.57539
1392.42354	0.57348
1390.49497	0.57190
1388.56641	0.57100
1386.63784	0.57014
1384.70928	0.56872
1382.78071	0.56741
1380.85215	0.56659
1378.92358	0.56599
1376.99502	0.56543
1375.06646	0.56495
1373.13789	0.56420
1371.20933	0.56314
1369.28076	0.56219
1367.35220	0.56142
1365.42363	0.56068
1363.49507	0.56009
1361.56650	0.55938
1359.63794	0.55819
1357.70937	0.55696
1355.78081	0.55595
1353.85225	0.55490
1351.92368	0.55377
1349.99512	0.55276
1348.06655	0.55179
1346.13799	0.55076
1344.20942	0.54985
1342.28086	0.54922
1340.35229	0.54869
1338.42373	0.54777
1336.49517	0.54651
1334.56660	0.54537
1332.63804	0.54448
1330.70947	0.54368
1328.78091	0.54284
1326.85234	0.54202
1324.92378	0.54131
1322.99521	0.54066
1321.06665	0.54002
1319.13809	0.53943
1317.20952	0.53883
1315.28096	0.53811
1313.35239	0.53727
1311.42383	0.53630
1309.49526	0.53516
1307.56670	0.53402
1305.63813	0.53303
1303.70957	0.53219
1301.78101	0.53139
1299.85244	0.53062
1297.92388	0.52994
1295.99531	0.52923
1294.06675	0.52841
1292.13818	0.52764
1290.20962	0.52703
1288.28105	0.52659
1286.35249	0.52619
1284.42393	0.52580
1282.49536	0.52544
1280.56680	0.52507
1278.63823	0.52463
1276.70967	0.52415
1274.78110	0.52355
1272.85254	0.52286
1270.92397	0.52229
1268.99541	0.52195
1267.06685	0.52174
1265.13828	0.52148
1263.20972	0.52107
1261.28115	0.52060
1259.35259	0.52012
1257.42402	0.51962
1255.49546	0.51922
1253.56689	0.51898
1251.63833	0.51871
1249.70977	0.51841
1247.78120	0.51817
1245.85264	0.51794
1243.92407	0.51750
1241.99551	0.51690
1240.06694	0.51637
1238.13838	0.51593
1236.20981	0.51551
1234.28125	0.51510
1232.35269	0.51465
1230.42412	0.51401
1228.49556	0.51318
1226.56699	0.51228
1224.63843	0.51150
1222.70986	0.51084
1220.78130	0.51027
1218.85273	0.50971
1216.92417	0.50911
1214.99561	0.50850
1213.06704	0.50794
1211.13848	0.50750
1209.20991	0.50709
1207.28135	0.50657
1205.35278	0.50595
1203.42422	0.50535
1201.49565	0.50483
1199.56709	0.50435
1197.63853	0.50376
1195.70996	0.50317
1193.78140	0.50279
1191.85283	0.50237
1189.92427	0.50181
1187.99570	0.50140
1186.06714	0.50119
1184.13857	0.50105
1182.21001	0.50093
1180.28145	0.50091
1178.35288	0.50114
1176.42432	0.50165
1174.49575	0.50235
1172.56719	0.50313
1170.63862	0.50385
1168.71006	0.50443
1166.78149	0.50496
1164.85293	0.50553
1162.92437	0.50630
1160.99580	0.50711
1159.06724	0.50748
1157.13867	0.50722
1155.21011	0.50643
1153.28154	0.50528
1151.35298	0.50386
1149.42441	0.50209
1147.49585	0.49992
1145.56729	0.49758
1143.63872	0.49529
1141.71016	0.49302
1139.78159	0.49077
1137.85303	0.48877
1135.92446	0.48713
1133.99590	0.48579
1132.06733	0.48471
1130.13877	0.48386
1128.21021	0.48308
1126.28164	0.48219
1124.35308	0.48128
1122.42451	0.48065
1120.49595	0.48027
1118.56738	0.48004
1116.63882	0.48000
1114.71025	0.48015
1112.78169	0.48058
1110.85312	0.48123
1108.92456	0.48187
1106.99600	0.48269
1105.06743	0.48387
1103.13887	0.48504
1101.21030	0.48610
1099.28174	0.48744
1097.35317	0.48943
1095.42461	0.49225
1093.49604	0.49591
1091.56748	0.50060
1089.63892	0.50651
1087.71035	0.51348
1085.78179	0.52116
1083.85322	0.52909
1081.92466	0.53649
1079.99609	0.54226
1078.06753	0.54553
1076.13896	0.54590
1074.21040	0.54337
1072.28184	0.53848
1070.35327	0.53233
1068.42471	0.52577
1066.49614	0.51911
1064.56758	0.51272
1062.63901	0.50716
1060.71045	0.50246
1058.78188	0.49834
1056.85332	0.49474
1054.92476	0.49153
1052.99619	0.48874
1051.06763	0.48660
1049.13906	0.48525
1047.21050	0.48466
1045.28193	0.48462
1043.35337	0.48481
1041.42480	0.48500
1039.49624	0.48504
1037.56768	0.48487
1035.63911	0.48462
1033.71055	0.48434
1031.78198	0.48382
1029.85342	0.48286
1027.92485	0.48182
1025.99629	0.48096
1024.06772	0.48025
1022.13916	0.47983
1020.21060	0.47980
1018.28203	0.48009
1016.35347	0.48058
1014.42490	0.48112
1012.49634	0.48154
1010.56777	0.48182
1008.63921	0.48238
1006.71064	0.48352
1004.78208	0.48494
1002.85352	0.48664
1000.92495	0.48891
998.99639	0.49183
997.06782	0.49539
995.13926	0.49939
993.21069	0.50345
991.28213	0.50687
989.35356	0.50904
987.42500	0.51006
985.49644	0.51049
983.56787	0.51083
981.63931	0.51142
979.71074	0.51251
977.78218	0.51419
975.85361	0.51627
973.92505	0.51872
971.99648	0.52167
970.06792	0.52505
968.13936	0.52891
966.21079	0.53320
964.28223	0.53762
962.35366	0.54224
960.42510	0.54732
958.49653	0.55286
956.56797	0.55863
954.63940	0.56456
952.71084	0.57066
950.78228	0.57684
948.85371	0.58297
946.92515	0.58887
944.99658	0.59463
943.06802	0.60054
941.13945	0.60648
939.21089	0.61241
937.28232	0.61843
935.35376	0.62435
933.42520	0.62978
931.49663	0.63472
929.56807	0.63991
927.63950	0.64582
925.71094	0.65217
923.78237	0.65858
921.85381	0.66508
919.92524	0.67174
917.99668	0.67810
916.06812	0.68447
914.13955	0.69143
912.21099	0.69857
910.28242	0.70648
908.35386	0.71566
906.42529	0.72471
904.49673	0.73294
902.56816	0.74115
900.63960	0.75010
898.71104	0.75967
896.78247	0.76960
894.85391	0.77994
892.92534	0.79056
890.99678	0.80125
889.06821	0.81149
887.13965	0.82117
885.21108	0.83133
883.28252	0.84191
881.35396	0.85252
879.42539	0.86409
877.49683	0.87613
875.56826	0.88767
873.63970	0.89885
871.71113	0.91054
869.78257	0.92347
867.85400	0.93563
865.92544	0.94587
863.99687	0.95668
862.06831	0.96842
860.13975	0.97914
858.21118	0.98943
856.28262	0.99992
854.35405	1.00992
852.42549	1.01999
850.49692	1.03148
848.56836	1.04419
846.63979	1.05679
844.71123	1.06913
842.78267	1.08091
840.85410	1.09167
838.92554	1.10116
836.99697	1.11026
835.06841	1.12081
833.13984	1.13206
831.21128	1.14287
829.28271	1.15643
827.35415	1.17437
825.42559	1.19122
823.49702	1.20232
821.56846	1.20648
819.63989	1.20766
817.71133	1.21401
815.78276	1.22928
813.85420	1.24837
811.92563	1.26389
809.99707	1.27848
808.06851	1.29755
806.13994	1.31612
804.21138	1.32339
802.28281	1.32970
800.35425	1.34569
798.42568	1.36014
796.49712	1.36813
794.56855	1.37019
792.63999	1.37314
790.71143	1.38499
788.78286	1.39937
786.85430	1.39882
784.92573	1.38174
782.99717	1.35369
781.06860	1.34339
779.14004	1.37455
777.21147	1.40621
775.28291	1.42014
773.35435	1.42045
771.42578	1.37441
769.49722	1.35855
767.56865	1.42860
765.64009	1.45031
763.71152	1.43886
761.78296	1.48859
759.85439	1.47177
757.92583	1.48259
755.99727	1.66067
754.06870	1.71749
752.14014	1.53951
750.21157	1.47705
748.28301	1.72936
746.35444	4.47813
744.42588	4.46656
742.49731	1.09910
740.56875	0.92963
738.64019	0.96286
736.71162	1.00219
734.78306	0.97139
732.85449	0.96890
730.92593	0.88612
728.99736	0.75196
727.06880	0.72374
725.14023	0.75543
723.21167	0.67238
721.28311	0.58081
719.35454	0.93167
717.42598	4.30456
715.49741	0.95598
713.56885	0.36737
711.64028	0.15797
709.71172	0.02014
707.78315	-0.03206
705.85459	-0.02517
703.92603	0.00524
701.99746	0.05832
700.06890	0.19665
698.14033	0.36178
696.21177	0.50484
694.28320	0.55681
692.35464	0.35920
690.42607	0.27472
688.49751	0.48600
686.56895	0.83847
684.64038	0.47236
682.71182	0.20093
680.78325	0.11860
678.85469	0.14140
676.92612	0.20617
674.99756	0.24554
673.06899	0.27154
671.14043	0.27308
669.21187	0.22003
667.28330	0.18803
665.35474	0.26395
663.42617	0.37057
661.49761	0.41263
659.56904	0.45021
657.64048	0.45211
655.71191	0.41370
653.78335	0.37511
651.85479	0.31343
649.92622	0.22853
647.99766	0.17732
646.06909	0.17353
644.14053	0.19258
642.21196	0.24627
640.28340	0.31765
638.35483	0.31856
636.42627	0.29301
634.49771	0.28756
632.56914	0.28871
630.64058	0.31085
628.71201	0.37409
626.78345	0.49901
624.85488	0.58770
622.92632	0.45317
620.99775	0.37527
619.06919	0.41449
617.14062	0.50954
615.21206	0.48842
613.28350	0.34273
611.35493	0.26766
609.42637	0.31564
607.49780	0.34941
605.56924	0.29187
603.64067	0.22481
601.71211	0.17103
599.78354	0.13986
597.85498	0.14654
595.92642	0.19944
593.99785	0.28560
592.06929	0.35710
590.14072	0.40558
588.21216	0.38229
586.28359	0.28865
584.35503	0.23134
582.42646	0.24399
580.49790	0.37102
578.56934	0.55779
576.64077	0.54710
574.71221	0.39524
572.78364	0.29039
570.85508	0.26472
568.92651	0.27279
566.99795	0.29753
565.06938	0.25126
563.14082	0.16929
561.21226	0.18245
559.28369	0.22996
557.35513	0.23053
555.42656	0.21976
553.49800	0.21728
551.56943	0.19581
549.64087	0.17816
547.71230	0.18355
545.78374	0.19645
543.85518	0.20917
541.92661	0.23770
539.99805	0.28033
538.06948	0.30079
536.14092	0.29828
534.21235	0.28691
532.28379	0.23764
530.35522	0.18497
528.42666	0.24603
526.49810	0.46396
524.56953	0.46502
522.64097	0.32618
520.71240	0.24865
518.78384	0.18718
516.85527	0.12474
514.92671	0.08667
512.99814	0.13295
511.06958	0.25786
509.14102	0.36523
507.21245	0.34473
505.28389	0.30969
503.35532	0.24264
501.42676	0.19732
499.49819	0.28378
