3997.91411	0.07227
3995.98555	0.07262
3994.05698	0.07307
3992.12842	0.07368
3990.19985	0.07399
3988.27129	0.07388
3986.34272	0.07359
3984.41416	0.07329
3982.48560	0.07323
3980.55703	0.07372
3978.62847	0.07456
3976.69990	0.07509
3974.77134	0.07497
3972.84277	0.07474
3970.91421	0.07479
3968.98564	0.07485
3967.05708	0.07498
3965.12852	0.07560
3963.19995	0.07648
3961.27139	0.07685
3959.34282	0.07677
3957.41426	0.07675
3955.48569	0.07658
3953.55713	0.07612
3951.62856	0.07590
3949.70000	0.07625
3947.77144	0.07674
3945.84287	0.07682
3943.91431	0.07668
3941.98574	0.07677
3940.05718	0.07701
3938.12861	0.07706
3936.20005	0.07683
3934.27148	0.07665
3932.34292	0.07662
3930.41436	0.07633
3928.48579	0.07572
3926.55723	0.07547
3924.62866	0.07586
3922.70010	0.07629
3920.77153	0.07647
3918.84297	0.07645
3916.91440	0.07635
3914.98584	0.07639
3913.05728	0.07624
3911.12871	0.07579
3909.20015	0.07551
3907.27158	0.07543
3905.34302	0.07546
3903.41445	0.07579
3901.48589	0.07608
3899.55732	0.07612
3897.62876	0.07601
3895.70020	0.07567
3893.77163	0.07550
3891.84307	0.07587
3889.91450	0.07621
3887.98594	0.07602
3886.05737	0.07637
3884.12881	0.07724
3882.20024	0.07720
3880.27168	0.07679
3878.34312	0.07675
3876.41455	0.07675
3874.48599	0.07687
3872.55742	0.07714
3870.62886	0.07761
3868.70029	0.07828
3866.77173	0.07843
3864.84316	0.07857
3862.91460	0.07899
3860.98604	0.07922
3859.05747	0.07935
3857.12891	0.07949
3855.20034	0.07995
3853.27178	0.08121
3851.34321	0.08192
3849.41465	0.08124
3847.48608	0.08111
3845.55752	0.08174
3843.62896	0.08245
3841.70039	0.08317
3839.77183	0.08436
3837.84326	0.08570
3835.91470	0.08612
3833.98613	0.08601
3832.05757	0.08645
3830.12900	0.08732
3828.20044	0.08804
3826.27187	0.08868
3824.34331	0.08936
3822.41475	0.09012
3820.48618	0.09143
3818.55762	0.09231
3816.62905	0.09254
3814.70049	0.09351
3812.77192	0.09461
3810.84336	0.09529
3808.91479	0.09608
3806.98623	0.09720
3805.05767	0.09823
3803.12910	0.09888
3801.20054	0.10039
3799.27197	0.10256
3797.34341	0.10356
3795.41484	0.10429
3793.48628	0.10537
3791.55771	0.10646
3789.62915	0.10758
3787.70059	0.10885
3785.77202	0.11021
3783.84346	0.11155
3781.91489	0.11285
3779.98633	0.11454
3778.05776	0.11666
3776.12920	0.11811
3774.20063	0.11886
3772.27207	0.11996
3770.34351	0.12212
3768.41494	0.12499
3766.48638	0.12719
3764.55781	0.12895
3762.62925	0.13068
3760.70068	0.13236
3758.77212	0.13474
3756.84355	0.13768
3754.91499	0.13994
3752.98643	0.14209
3751.05786	0.14561
3749.12930	0.15010
3747.20073	0.15291
3745.27217	0.15498
3743.34360	0.15852
3741.41504	0.16210
3739.48647	0.16476
3737.55791	0.16815
3735.62935	0.17331
3733.70078	0.17930
3731.77222	0.18370
3729.84365	0.18727
3727.91509	0.19128
3725.98652	0.19651
3724.05796	0.20303
3722.12939	0.20985
3720.20083	0.21685
3718.27227	0.22409
3716.34370	0.23151
3714.41514	0.23918
3712.48657	0.24854
3710.55801	0.26151
3708.62944	0.27546
3706.70088	0.28741
3704.77231	0.29884
3702.84375	0.31183
3700.91519	0.32879
3698.98662	0.34780
3697.05806	0.36592
3695.12949	0.38479
3693.20093	0.40450
3691.27236	0.42595
3689.34380	0.45406
3687.41523	0.48877
3685.48667	0.51948
3683.55811	0.54602
3681.62954	0.57435
3679.70098	0.60652
3677.77241	0.64059
3675.84385	0.68022
3673.91528	0.73258
3671.98672	0.77522
3670.05815	0.81321
3668.12959	0.86691
3666.20103	0.91684
3664.27246	0.95770
3662.34390	1.00101
3660.41533	1.04810
3658.48677	1.09471
3656.55820	1.14432
3654.62964	1.19985
3652.70107	1.24671
3650.77251	1.28712
3648.84395	1.34242
3646.91538	1.41063
3644.98682	1.46097
3643.05825	1.50002
3641.12969	1.54079
3639.20112	1.58578
3637.27256	1.63087
3635.34399	1.67419
3633.41543	1.71605
3631.48687	1.75502
3629.55830	1.79577
3627.62974	1.85034
3625.70117	1.90263
3623.77261	1.93793
3621.84404	1.97024
3619.91548	2.00790
3617.98691	2.05476
3616.05835	2.09792
3614.12979	2.13216
3612.20122	2.16965
3610.27266	2.21001
3608.34409	2.25187
3606.41553	2.29520
3604.48696	2.33445
3602.55840	2.36938
3600.62983	2.40630
3598.70127	2.44562
3596.77271	2.48363
3594.84414	2.52280
3592.91558	2.56573
3590.98701	2.60743
3589.05845	2.64461
3587.12988	2.68684
3585.20132	2.73443
3583.27275	2.77627
3581.34419	2.81430
3579.41562	2.85420
3577.48706	2.89791
3575.55850	2.94304
3573.62993	2.98713
3571.70137	3.02873
3569.77280	3.06854
3567.84424	3.10969
3565.91567	3.15871
3563.98711	3.20738
3562.05854	3.24913
3560.12998	3.29156
3558.20142	3.33544
3556.27285	3.37899
3554.34429	3.42245
3552.41572	3.46839
3550.48716	3.51547
3548.55859	3.56083
3546.63003	3.60644
3544.70146	3.65451
3542.77290	3.70190
3540.84434	3.74869
3538.91577	3.79857
3536.98721	3.84932
3535.05864	3.89759
3533.13008	3.94239
3531.20151	3.98728
3529.27295	4.03471
3527.34438	4.08323
3525.41582	4.12860
3523.48726	4.17062
3521.55869	4.21461
3519.63013	4.26153
3517.70156	4.30999
3515.77300	4.35995
3513.84443	4.41226
3511.91587	4.46338
3509.98730	4.51272
3508.05874	4.56363
3506.13018	4.61029
3504.20161	4.65022
3502.27305	4.69577
3500.34448	4.75194
3498.41592	4.80460
3496.48735	4.84533
3494.55879	4.88390
3492.63022	4.93543
3490.70166	4.99627
3488.77310	5.05319
3486.84453	5.10089
3484.91597	5.13835
3482.98740	5.17268
3481.05884	5.21624
3479.13027	5.26872
3477.20171	5.32157
3475.27314	5.37515
3473.34458	5.43022
3471.41602	5.47846
3469.48745	5.51476
3467.55889	5.54929
3465.63032	5.59752
3463.70176	5.65989
3461.77319	5.72139
3459.84463	5.77364
3457.91606	5.81616
3455.98750	5.85744
3454.05894	5.90981
3452.13037	5.96958
3450.20181	6.02751
3448.27324	6.07985
3446.34468	6.12296
3444.41611	6.15715
3442.48755	6.19787
3440.55898	6.25329
3438.63042	6.31282
3436.70186	6.35109
3434.77329	6.37699
3432.84473	6.43402
3430.91616	6.51103
3428.98760	6.57887
3427.05903	6.63882
3425.13047	6.68646
3423.20190	6.71642
3421.27334	6.74502
3419.34478	6.78899
3417.41621	6.83866
3415.48765	6.87396
3413.55908	6.91165
3411.63052	6.97352
3409.70195	7.03310
3407.77339	7.06396
3405.84482	7.06487
3403.91626	7.08169
3401.98770	7.14328
3400.05913	7.22230
3398.13057	7.31220
3396.20200	7.41276
3394.27344	7.49091
3392.34487	7.53203
3390.41631	7.55486
3388.48774	7.53977
3386.55918	7.50177
3384.63062	7.50906
3382.70205	7.59914
3380.77349	7.72220
3378.84492	7.79966
3376.91636	7.81924
3374.98779	7.80066
3373.05923	7.79567
3371.13066	7.82179
3369.20210	7.84503
3367.27354	7.83453
3365.34497	7.82638
3363.41641	7.85714
3361.48784	7.91148
3359.55928	7.95456
3357.63071	7.95130
3355.70215	7.94186
3353.77358	7.98074
3351.84502	8.06883
3349.91646	8.12370
3347.98789	8.13743
3346.05933	8.14699
3344.13076	8.11496
3342.20220	8.06851
3340.27363	8.04897
3338.34507	8.07725
3336.41650	8.12112
3334.48794	8.11716
3332.55937	8.09206
3330.63081	8.11746
3328.70225	8.16765
3326.77368	8.20467
3324.84512	8.20300
3322.91655	8.14901
3320.98799	8.11632
3319.05942	8.09784
3317.13086	8.09315
3315.20229	8.10044
3313.27373	8.09004
3311.34517	8.09582
3309.41660	8.09855
3307.48804	8.09369
3305.55947	8.13298
3303.63091	8.18636
3301.70234	8.21790
3299.77378	8.26861
3297.84521	8.31279
3295.91665	8.29078
3293.98809	8.21264
3292.05952	8.17069
3290.13096	8.19790
3288.20239	8.18538
3286.27383	8.12375
3284.34526	8.11833
3282.41670	8.15878
3280.48813	8.15909
3278.55957	8.19622
3276.63101	8.36351
3274.70244	8.51946
3272.77388	8.47184
3270.84531	8.35847
3268.91675	8.34441
3266.98818	8.34312
3265.05962	8.27698
3263.13105	8.19854
3261.20249	8.18728
3259.27393	8.24504
3257.34536	8.26422
3255.41680	8.23450
3253.48823	8.21546
3251.55967	8.18617
3249.63110	8.18110
3247.70254	8.22260
3245.77397	8.25864
3243.84541	8.29653
3241.91685	8.34446
3239.98828	8.37144
3238.05972	8.34291
3236.13115	8.28972
3234.20259	8.28213
3232.27402	8.29409
3230.34546	8.24365
3228.41689	8.15714
3226.48833	8.15224
3224.55977	8.22444
3222.63120	8.23421
3220.70264	8.17234
3218.77407	8.16526
3216.84551	8.16874
3214.91694	8.05093
3212.98838	7.93158
3211.05981	7.95937
3209.13125	7.98677
3207.20269	7.85475
3205.27412	7.70036
3203.34556	7.61876
3201.41699	7.61869
3199.48843	7.69448
3197.55986	7.75663
3195.63130	7.71689
3193.70273	7.64192
3191.77417	7.60897
3189.84561	7.59067
3187.91704	7.56330
3185.98848	7.52028
3184.05991	7.45262
3182.13135	7.37400
3180.20278	7.29281
3178.27422	7.22170
3176.34565	7.18794
3174.41709	7.16155
3172.48853	7.09168
3170.55996	7.00111
3168.63140	6.91871
3166.70283	6.84961
3164.77427	6.80341
3162.84570	6.76505
3160.91714	6.70682
3158.98857	6.64102
3157.06001	6.58481
3155.13145	6.52004
3153.20288	6.43821
3151.27432	6.36140
3149.34575	6.29973
3147.41719	6.24061
3145.48862	6.16612
3143.56006	6.06743
3141.63149	5.96853
3139.70293	5.88964
3137.77437	5.82088
3135.84580	5.75866
3133.91724	5.70125
3131.98867	5.63553
3130.06011	5.56373
3128.13154	5.49583
3126.20298	5.42923
3124.27441	5.36256
3122.34585	5.29483
3120.41729	5.22309
3118.48872	5.14874
3116.56016	5.07337
3114.63159	4.99828
3112.70303	4.92723
3110.77446	4.86146
3108.84590	4.79584
3106.91733	4.72834
3104.98877	4.66154
3103.06021	4.59388
3101.13164	4.52398
3099.20308	4.45685
3097.27451	4.39571
3095.34595	4.33712
3093.41738	4.27511
3091.48882	4.20744
3089.56025	4.13778
3087.63169	4.06962
3085.70312	4.00488
3083.77456	3.94330
3081.84600	3.88192
3079.91743	3.82029
3077.98887	3.76105
3076.06030	3.70423
3074.13174	3.64723
3072.20317	3.59050
3070.27461	3.53462
3068.34604	3.47730
3066.41748	3.41863
3064.48892	3.36137
3062.56035	3.30552
3060.63179	3.25043
3058.70322	3.19753
3056.77466	3.14644
3054.84609	3.09520
3052.91753	3.04359
3050.98896	2.99268
3049.06040	2.94315
3047.13184	2.89392
3045.20327	2.84403
3043.27471	2.79454
3041.34614	2.74595
3039.41758	2.69815
3037.48901	2.65196
3035.56045	2.60747
3033.63188	2.56350
3031.70332	2.51954
3029.77476	2.47637
3027.84619	2.43409
3025.91763	2.39224
3023.98906	2.35102
3022.06050	2.31051
3020.13193	2.26998
3018.20337	2.22924
3016.27480	2.18911
3014.34624	2.15015
3012.41768	2.11237
3010.48911	2.07528
3008.56055	2.03860
3006.63198	2.00258
3004.70342	1.96710
3002.77485	1.93228
3000.84629	1.89829
2998.91772	1.86476
2996.98916	1.83186
2995.06060	1.79978
2993.13203	1.76830
2991.20347	1.73756
2989.27490	1.70761
2987.34634	1.67799
2985.41777	1.64878
2983.48921	1.62032
2981.56064	1.59235
2979.63208	1.56462
2977.70352	1.53719
2975.77495	1.51025
2973.84639	1.48392
2971.91782	1.45806
2969.98926	1.43269
2968.06069	1.40780
2966.13213	1.38330
2964.20356	1.35927
2962.27500	1.33568
2960.34644	1.31219
2958.41787	1.28875
2956.48931	1.26563
2954.56074	1.24296
2952.63218	1.22096
2950.70361	1.19937
2948.77505	1.17758
2946.84648	1.15586
2944.91792	1.13521
2942.98936	1.11595
2941.06079	1.09701
2939.13223	1.07752
2937.20366	1.05771
2935.27510	1.03809
2933.34653	1.01927
2931.41797	1.00154
2929.48940	0.98404
2927.56084	0.96612
2925.63228	0.94826
2923.70371	0.93093
2921.77515	0.91411
2919.84658	0.89792
2917.91802	0.88157
2915.98945	0.86461
2914.06089	0.84869
2912.13232	0.83448
2910.20376	0.82076
2908.27520	0.80666
2906.34663	0.79239
2904.41807	0.77857
2902.48950	0.76531
2900.56094	0.75203
2898.63237	0.73873
2896.70381	0.72613
2894.77524	0.71431
2892.84668	0.70281
2890.91812	0.69135
2888.98955	0.67992
2887.06099	0.66861
2885.13242	0.65751
2883.20386	0.64675
2881.27529	0.63643
2879.34673	0.62655
2877.41816	0.61698
2875.48960	0.60736
2873.56104	0.59744
2871.63247	0.58721
2869.70391	0.57657
2867.77534	0.56583
2865.84678	0.55578
2863.91821	0.54640
2861.98965	0.53708
2860.06108	0.52757
2858.13252	0.51810
2856.20396	0.50899
2854.27539	0.50043
2852.34683	0.49224
2850.41826	0.48410
2848.48970	0.47602
2846.56113	0.46823
2844.63257	0.46087
2842.70400	0.45406
2840.77544	0.44756
2838.84687	0.44111
2836.91831	0.43489
2834.98975	0.42891
2833.06118	0.42300
2831.13262	0.41703
2829.20405	0.41103
2827.27549	0.40499
2825.34692	0.39899
2823.41836	0.39330
2821.48979	0.38770
2819.56123	0.38179
2817.63267	0.37593
2815.70410	0.37050
2813.77554	0.36533
2811.84697	0.36009
2809.91841	0.35474
2807.98984	0.34953
2806.06128	0.34459
2804.13271	0.33980
2802.20415	0.33496
2800.27559	0.33008
2798.34702	0.32531
2796.41846	0.32072
2794.48989	0.31627
2792.56133	0.31205
2790.63276	0.30800
2788.70420	0.30405
2786.77563	0.30014
2784.84707	0.29610
2782.91851	0.29190
2780.98994	0.28796
2779.06138	0.28434
2777.13281	0.28066
2775.20425	0.27687
2773.27568	0.27317
2771.34712	0.26970
2769.41855	0.26633
2767.48999	0.26293
2765.56143	0.25960
2763.63286	0.25642
2761.70430	0.25336
2759.77573	0.25036
2757.84717	0.24735
2755.91860	0.24439
2753.99004	0.24148
2752.06147	0.23845
2750.13291	0.23554
2748.20435	0.23300
2746.27578	0.23056
2744.34722	0.22798
2742.41865	0.22538
2740.49009	0.22286
2738.56152	0.22036
2736.63296	0.21793
2734.70439	0.21574
2732.77583	0.21364
2730.84727	0.21135
2728.91870	0.20905
2726.99014	0.20695
2725.06157	0.20499
2723.13301	0.20301
2721.20444	0.20094
2719.27588	0.19890
2717.34731	0.19703
2715.41875	0.19528
2713.49019	0.19366
2711.56162	0.19206
2709.63306	0.19026
2707.70449	0.18836
2705.77593	0.18665
2703.84736	0.18511
2701.91880	0.18364
2699.99023	0.18219
2698.06167	0.18080
2696.13311	0.17953
2694.20454	0.17822
2692.27598	0.17687
2690.34741	0.17565
2688.41885	0.17441
2686.49028	0.17310
2684.56172	0.17184
2682.63315	0.17062
2680.70459	0.16940
2678.77603	0.16823
2676.84746	0.16711
2674.91890	0.16607
2672.99033	0.16516
2671.06177	0.16432
2669.13320	0.16341
2667.20464	0.16236
2665.27607	0.16126
2663.34751	0.16033
2661.41895	0.15963
2659.49038	0.15895
2657.56182	0.15810
2655.63325	0.15717
2653.70469	0.15642
2651.77612	0.15589
2649.84756	0.15535
2647.91899	0.15469
2645.99043	0.15404
2644.06187	0.15345
2642.13330	0.15285
2640.20474	0.15228
2638.27617	0.15185
2636.34761	0.15155
2634.41904	0.15125
2632.49048	0.15085
2630.56191	0.15037
2628.63335	0.14993
2626.70479	0.14962
2624.77622	0.14937
2622.84766	0.14919
2620.91909	0.14901
2618.99053	0.14878
2617.06196	0.14847
2615.13340	0.14813
2613.20483	0.14791
2611.27627	0.14791
2609.34771	0.14795
2607.41914	0.14796
2605.49058	0.14793
2603.56201	0.14780
2601.63345	0.14760
2599.70488	0.14755
2597.77632	0.14773
2595.84775	0.14795
2593.91919	0.14810
2591.99062	0.14815
2590.06206	0.14820
2588.13350	0.14835
2586.20493	0.14858
2584.27637	0.14887
2582.34780	0.14919
2580.41924	0.14944
2578.49067	0.14963
2576.56211	0.14979
2574.63354	0.14995
2572.70498	0.15024
2570.77642	0.15062
2568.84785	0.15101
2566.91929	0.15145
2564.99072	0.15191
2563.06216	0.15249
2561.13359	0.15327
2559.20503	0.15398
2557.27646	0.15440
2555.34790	0.15466
2553.41934	0.15503
2551.49077	0.15550
2549.56221	0.15593
2547.63364	0.15646
2545.70508	0.15724
2543.77651	0.15801
2541.84795	0.15858
2539.91938	0.15907
2537.99082	0.15961
2536.06226	0.16014
2534.13369	0.16062
2532.20513	0.16124
2530.27656	0.16207
2528.34800	0.16297
2526.41943	0.16377
2524.49087	0.16441
2522.56230	0.16497
2520.63374	0.16558
2518.70518	0.16635
2516.77661	0.16718
2514.84805	0.16798
2512.91948	0.16880
2510.99092	0.16966
2509.06235	0.17046
2507.13379	0.17117
2505.20522	0.17193
2503.27666	0.17277
2501.34810	0.17362
2499.41953	0.17448
2497.49097	0.17538
2495.56240	0.17627
2493.63384	0.17707
2491.70527	0.17780
2489.77671	0.17855
2487.84814	0.17942
2485.91958	0.18041
2483.99102	0.18142
2482.06245	0.18235
2480.13389	0.18313
2478.20532	0.18390
2476.27676	0.18478
2474.34819	0.18571
2472.41963	0.18667
2470.49106	0.18772
2468.56250	0.18873
2466.63394	0.18961
2464.70537	0.19042
2462.77681	0.19122
2460.84824	0.19203
2458.91968	0.19289
2456.99111	0.19385
2455.06255	0.19494
2453.13398	0.19614
2451.20542	0.19732
2449.27686	0.19836
2447.34829	0.19926
2445.41973	0.20004
2443.49116	0.20079
2441.56260	0.20166
2439.63403	0.20272
2437.70547	0.20383
2435.77690	0.20490
2433.84834	0.20589
2431.91978	0.20684
2429.99121	0.20790
2428.06265	0.20904
2426.13408	0.21011
2424.20552	0.21116
2422.27695	0.21232
2420.34839	0.21352
2418.41982	0.21464
2416.49126	0.21565
2414.56270	0.21661
2412.63413	0.21762
2410.70557	0.21870
2408.77700	0.21987
2406.84844	0.22112
2404.91987	0.22224
2402.99131	0.22321
2401.06274	0.22441
2399.13418	0.22589
2397.20562	0.22735
2395.27705	0.22866
2393.34849	0.22989
2391.41992	0.23095
2389.49136	0.23191
2387.56279	0.23307
2385.63423	0.23444
2383.70566	0.23578
2381.77710	0.23683
2379.84854	0.23775
2377.91997	0.23894
2375.99141	0.24047
2374.06284	0.24207
2372.13428	0.24336
2370.20571	0.24419
2368.27715	0.24493
2366.34858	0.24576
2364.42002	0.24680
2362.49146	0.24821
2360.56289	0.24979
2358.63433	0.25168
2356.70576	0.25390
2354.77720	0.25563
2352.84863	0.25729
2350.92007	0.25948
2348.99150	0.26141
2347.06294	0.26285
2345.13437	0.26427
2343.20581	0.26576
2341.27725	0.26720
2339.34868	0.26832
2337.42012	0.26922
2335.49155	0.27076
2333.56299	0.27262
2331.63442	0.27440
2329.70586	0.27631
2327.77729	0.27807
2325.84873	0.27942
2323.92017	0.28090
2321.99160	0.28286
2320.06304	0.28492
2318.13447	0.28679
2316.20591	0.28852
2314.27734	0.29020
2312.34878	0.29190
2310.42021	0.29362
2308.49165	0.29536
2306.56309	0.29714
2304.63452	0.29886
2302.70596	0.30050
2300.77739	0.30232
2298.84883	0.30434
2296.92026	0.30638
2294.99170	0.30829
2293.06313	0.31014
2291.13457	0.31208
2289.20601	0.31402
2287.27744	0.31572
2285.34888	0.31731
2283.42031	0.31916
2281.49175	0.32119
2279.56318	0.32321
2277.63462	0.32519
2275.70605	0.32718
2273.77749	0.32922
2271.84893	0.33135
2269.92036	0.33348
2267.99180	0.33559
2266.06323	0.33764
2264.13467	0.33958
2262.20610	0.34154
2260.27754	0.34362
2258.34897	0.34574
2256.42041	0.34785
2254.49185	0.34993
2252.56328	0.35199
2250.63472	0.35407
2248.70615	0.35629
2246.77759	0.35863
2244.84902	0.36095
2242.92046	0.36316
2240.99189	0.36526
2239.06333	0.36739
2237.13477	0.36964
2235.20620	0.37180
2233.27764	0.37382
2231.34907	0.37599
2229.42051	0.37824
2227.49194	0.38046
2225.56338	0.38266
2223.63481	0.38489
2221.70625	0.38710
2219.77769	0.38922
2217.84912	0.39135
2215.92056	0.39344
2213.99199	0.39548
2212.06343	0.39765
2210.13486	0.39992
2208.20630	0.40217
2206.27773	0.40423
2204.34917	0.40611
2202.42061	0.40805
2200.49204	0.41015
2198.56348	0.41239
2196.63491	0.41456
2194.70635	0.41653
2192.77778	0.41838
2190.84922	0.42012
2188.92065	0.42173
2186.99209	0.42333
2185.06353	0.42509
2183.13496	0.42703
2181.20640	0.42897
2179.27783	0.43058
2177.34927	0.43200
2175.42070	0.43360
2173.49214	0.43523
2171.56357	0.43654
2169.63501	0.43782
2167.70645	0.43932
2165.77788	0.44078
2163.84932	0.44206
2161.92075	0.44325
2159.99219	0.44428
2158.06362	0.44521
2156.13506	0.44621
2154.20649	0.44719
2152.27793	0.44801
2150.34937	0.44873
2148.42080	0.44945
2146.49224	0.45012
2144.56367	0.45074
2142.63511	0.45130
2140.70654	0.45164
2138.77798	0.45187
2136.84941	0.45210
2134.92085	0.45224
2132.99229	0.45230
2131.06372	0.45231
2129.13516	0.45219
2127.20659	0.45195
2125.27803	0.45172
2123.34946	0.45145
2121.42090	0.45109
2119.49233	0.45064
2117.56377	0.45014
2115.63521	0.44950
2113.70664	0.44878
2111.77808	0.44807
2109.84951	0.44724
2107.92095	0.44623
2105.99238	0.44509
2104.06382	0.44391
2102.13525	0.44271
2100.20669	0.44146
2098.27812	0.44014
2096.34956	0.43875
2094.42100	0.43728
2092.49243	0.43575
2090.56387	0.43417
2088.63530	0.43255
2086.70674	0.43088
2084.77817	0.42916
2082.84961	0.42743
2080.92104	0.42568
2078.99248	0.42384
2077.06392	0.42193
2075.13535	0.41988
2073.20679	0.41761
2071.27822	0.41534
2069.34966	0.41329
2067.42109	0.41122
2065.49253	0.40896
2063.56396	0.40666
2061.63540	0.40442
2059.70684	0.40205
2057.77827	0.39960
2055.84971	0.39716
2053.92114	0.39463
2051.99258	0.39203
2050.06401	0.38945
2048.13545	0.38690
2046.20688	0.38435
2044.27832	0.38173
2042.34976	0.37907
2040.42119	0.37648
2038.49263	0.37395
2036.56406	0.37133
2034.63550	0.36856
2032.70693	0.36570
2030.77837	0.36291
2028.84980	0.36024
2026.92124	0.35760
2024.99268	0.35492
2023.06411	0.35216
2021.13555	0.34937
2019.20698	0.34662
2017.27842	0.34396
2015.34985	0.34125
2013.42129	0.33848
2011.49272	0.33575
2009.56416	0.33307
2007.63560	0.33045
2005.70703	0.32790
2003.77847	0.32533
2001.84990	0.32272
1999.92134	0.32015
1997.99277	0.31756
1996.06421	0.31501
1994.13564	0.31260
1992.20708	0.31017
1990.27852	0.30759
1988.34995	0.30500
1986.42139	0.30253
1984.49282	0.30019
1982.56426	0.29788
1980.63569	0.29552
1978.70713	0.29313
1976.77856	0.29081
1974.85000	0.28874
1972.92144	0.28679
1970.99287	0.28474
1969.06431	0.28260
1967.13574	0.28047
1965.20718	0.27832
1963.27861	0.27625
1961.35005	0.27433
1959.42148	0.27254
1957.49292	0.27083
1955.56436	0.26910
1953.63579	0.26737
1951.70723	0.26564
1949.77866	0.26394
1947.85010	0.26228
1945.92153	0.26071
1943.99297	0.25926
1942.06440	0.25781
1940.13584	0.25629
1938.20728	0.25480
1936.27871	0.25349
1934.35015	0.25229
1932.42158	0.25109
1930.49302	0.24985
1928.56445	0.24861
1926.63589	0.24738
1924.70732	0.24631
1922.77876	0.24537
1920.85020	0.24440
1918.92163	0.24344
1916.99307	0.24254
1915.06450	0.24170
1913.13594	0.24093
1911.20737	0.24022
1909.27881	0.23950
1907.35024	0.23882
1905.42168	0.23814
1903.49312	0.23745
1901.56455	0.23678
1899.63599	0.23620
1897.70742	0.23578
1895.77886	0.23540
1893.85029	0.23502
1891.92173	0.23469
1889.99316	0.23452
1888.06460	0.23435
1886.13604	0.23408
1884.20747	0.23381
1882.27891	0.23359
1880.35034	0.23344
1878.42178	0.23330
1876.49321	0.23321
1874.56465	0.23313
1872.63608	0.23313
1870.70752	0.23325
1868.77896	0.23366
1866.85039	0.23406
1864.92183	0.23414
1862.99326	0.23422
1861.06470	0.23446
1859.13613	0.23481
1857.20757	0.23509
1855.27900	0.23542
1853.35044	0.23578
1851.42187	0.23623
1849.49331	0.23681
1847.56475	0.23755
1845.63618	0.23838
1843.70762	0.23931
1841.77905	0.24011
1839.85049	0.24058
1837.92192	0.24124
1835.99336	0.24210
1834.06479	0.24303
1832.13623	0.24401
1830.20767	0.24533
1828.27910	0.24679
1826.35054	0.24794
1824.42197	0.24925
1822.49341	0.25052
1820.56484	0.25167
1818.63628	0.25291
1816.70771	0.25445
1814.77915	0.25605
1812.85059	0.25774
1810.92202	0.25968
1808.99346	0.26168
1807.06489	0.26359
1805.13633	0.26542
1803.20776	0.26756
1801.27920	0.27013
1799.35063	0.27303
1797.42207	0.27554
1795.49351	0.27783
1793.56494	0.28051
1791.63638	0.28410
1789.70781	0.28761
1787.77925	0.29024
1785.85068	0.29329
1783.92212	0.29690
1781.99355	0.30072
1780.06499	0.30484
1778.13643	0.30915
1776.20786	0.31303
1774.27930	0.31702
1772.35073	0.32261
1770.42217	0.32900
1768.49360	0.33450
1766.56504	0.33975
1764.63647	0.34509
1762.70791	0.35087
1760.77935	0.35819
1758.85078	0.36517
1756.92222	0.37228
1754.99365	0.38016
1753.06509	0.38722
1751.13652	0.39533
1749.20796	0.40571
1747.27939	0.41633
1745.35083	0.42560
1743.42227	0.43508
1741.49370	0.44547
1739.56514	0.45773
1737.63657	0.46992
1735.70801	0.48052
1733.77944	0.49654
1731.85088	0.51626
1729.92231	0.53216
1727.99375	0.54791
1726.06519	0.56463
1724.13662	0.58285
1722.20806	0.60251
1720.27949	0.62060
1718.35093	0.64151
1716.42236	0.67251
1714.49380	0.70259
1712.56523	0.72736
1710.63667	0.75145
1708.70811	0.77711
1706.77954	0.80589
1704.85098	0.84032
1702.92241	0.87123
1700.99385	0.90159
1699.06528	0.94625
1697.13672	0.98754
1695.20815	1.03073
1693.27959	1.07266
1691.35103	1.10603
1689.42246	1.14431
1687.49390	1.18453
1685.56533	1.22306
1683.63677	1.28263
1681.70820	1.34483
1679.77964	1.38462
1677.85107	1.42244
1675.92251	1.46649
1673.99395	1.52103
1672.06538	1.56908
1670.13682	1.61543
1668.20825	1.67475
1666.27969	1.72307
1664.35112	1.76418
1662.42256	1.81525
1660.49399	1.87216
1658.56543	1.91631
1656.63687	1.95162
1654.70830	1.98416
1652.77974	2.03871
1650.85117	2.09302
1648.92261	2.11407
1646.99404	2.14242
1645.06548	2.17625
1643.13691	2.19683
1641.20835	2.20701
1639.27979	2.21584
1637.35122	2.22224
1635.42266	2.22340
1633.49409	2.21843
1631.56553	2.20816
1629.63696	2.19394
1627.70840	2.16850
1625.77983	2.13841
1623.85127	2.10057
1621.92271	2.05232
1619.99414	2.00795
1618.06558	1.96479
1616.13701	1.90416
1614.20845	1.84250
1612.27988	1.79555
1610.35132	1.74662
1608.42275	1.69333
1606.49419	1.64067
1604.56562	1.59194
1602.63706	1.54425
1600.70850	1.49722
1598.77993	1.45390
1596.85137	1.41337
1594.92280	1.37426
1592.99424	1.33612
1591.06567	1.30070
1589.13711	1.26755
1587.20854	1.23655
1585.27998	1.20744
1583.35142	1.18002
1581.42285	1.15505
1579.49429	1.13365
1577.56572	1.11394
1575.63716	1.08941
1573.70859	1.06787
1571.78003	1.05374
1569.85146	1.03853
1567.92290	1.02146
1565.99434	1.00812
1564.06577	0.99675
1562.13721	0.98722
1560.20864	0.97990
1558.28008	0.96886
1556.35151	0.95848
1554.42295	0.95201
1552.49438	0.94559
1550.56582	0.93866
1548.63726	0.93095
1546.70869	0.92312
1544.78013	0.91438
1542.85156	0.90416
1540.92300	0.89110
1538.99443	0.87261
1537.06587	0.85944
1535.13730	0.85034
1533.20874	0.83835
1531.28018	0.82559
1529.35161	0.81626
1527.42305	0.80728
1525.49448	0.79781
1523.56592	0.78964
1521.63735	0.78167
1519.70879	0.77336
1517.78022	0.76641
1515.85166	0.75871
1513.92310	0.75055
1511.99453	0.74361
1510.06597	0.73760
1508.13740	0.73195
1506.20884	0.72319
1504.28027	0.71501
1502.35171	0.71013
1500.42314	0.70598
1498.49458	0.70167
1496.56602	0.69662
1494.63745	0.69168
1492.70889	0.68793
1490.78032	0.68459
1488.85176	0.68057
1486.92319	0.67668
1484.99463	0.67358
1483.06606	0.67103
1481.13750	0.66867
1479.20894	0.66641
1477.28037	0.66451
1475.35181	0.66308
1473.42324	0.66194
1471.49468	0.66025
1469.56611	0.65804
1467.63755	0.65594
1465.70898	0.65416
1463.78042	0.65257
1461.85186	0.65101
1459.92329	0.64970
1457.99473	0.64852
1456.06616	0.64693
1454.13760	0.64491
1452.20903	0.64281
1450.28047	0.64063
1448.35190	0.63857
1446.42334	0.63641
1444.49478	0.63419
1442.56621	0.63213
1440.63765	0.63014
1438.70908	0.62818
1436.78052	0.62591
1434.85195	0.62353
1432.92339	0.62173
1430.99482	0.62046
1429.06626	0.61936
1427.13770	0.61830
1425.20913	0.61746
1423.28057	0.61685
1421.35200	0.61622
1419.42344	0.61547
1417.49487	0.61453
1415.56631	0.61328
1413.63774	0.61203
1411.70918	0.61094
1409.78062	0.61004
1407.85205	0.60935
1405.92349	0.60897
1403.99492	0.60857
1402.06636	0.60778
1400.13779	0.60670
1398.20923	0.60528
1396.28066	0.60347
1394.35210	0.60131
1392.42354	0.59898
1390.49497	0.59668
1388.56641	0.59441
1386.63784	0.59210
1384.70928	0.58968
1382.78071	0.58729
1380.85215	0.58511
1378.92358	0.58328
1376.99502	0.58188
1375.06646	0.58091
1373.13789	0.58022
1371.20933	0.57954
1369.28076	0.57876
1367.35220	0.57784
1365.42363	0.57675
1363.49507	0.57559
1361.56650	0.57440
1359.63794	0.57314
1357.70937	0.57198
1355.78081	0.57093
1353.85225	0.56990
1351.92368	0.56897
1349.99512	0.56820
1348.06655	0.56745
1346.13799	0.56657
1344.20942	0.56561
1342.28086	0.56463
1340.35229	0.56368
1338.42373	0.56267
1336.49517	0.56159
1334.56660	0.56072
1332.63804	0.56020
1330.70947	0.55975
1328.78091	0.55930
1326.85234	0.55894
1324.92378	0.55868
1322.99521	0.55856
1321.06665	0.55856
1319.13809	0.55846
1317.20952	0.55810
1315.28096	0.55755
1313.35239	0.55683
1311.42383	0.55599
1309.49526	0.55514
1307.56670	0.55433
1305.63813	0.55354
1303.70957	0.55286
1301.78101	0.55224
1299.85244	0.55140
1297.92388	0.55031
1295.99531	0.54918
1294.06675	0.54822
1292.13818	0.54751
1290.20962	0.54694
1288.28105	0.54631
1286.35249	0.54559
1284.42393	0.54489
1282.49536	0.54418
1280.56680	0.54327
1278.63823	0.54225
1276.70967	0.54139
1274.78110	0.54073
1272.85254	0.54016
1270.92397	0.53962
1268.99541	0.53910
1267.06685	0.53856
1265.13828	0.53801
1263.20972	0.53755
1261.28115	0.53704
1259.35259	0.53646
1257.42402	0.53598
1255.49546	0.53569
1253.56689	0.53545
1251.63833	0.53519
1249.70977	0.53496
1247.78120	0.53467
1245.85264	0.53430
1243.92407	0.53392
1241.99551	0.53339
1240.06694	0.53258
1238.13838	0.53153
1236.20981	0.53040
1234.28125	0.52937
1232.35269	0.52837
1230.42412	0.52723
1228.49556	0.52599
1226.56699	0.52478
1224.63843	0.52365
1222.70986	0.52249
1220.78130	0.52127
1218.85273	0.52016
1216.92417	0.51932
1214.99561	0.51871
1213.06704	0.51806
1211.13848	0.51732
1209.20991	0.51659
1207.28135	0.51598
1205.35278	0.51554
1203.42422	0.51512
1201.49565	0.51452
1199.56709	0.51380
1197.63853	0.51308
1195.70996	0.51236
1193.78140	0.51171
1191.85283	0.51115
1189.92427	0.51068
1187.99570	0.51025
1186.06714	0.50988
1184.13857	0.50969
1182.21001	0.50983
1180.28145	0.51022
1178.35288	0.51091
1176.42432	0.51177
1174.49575	0.51249
1172.56719	0.51315
1170.63862	0.51396
1168.71006	0.51477
1166.78149	0.51546
1164.85293	0.51609
1162.92437	0.51672
1160.99580	0.51721
1159.06724	0.51742
1157.13867	0.51723
1155.21011	0.51657
1153.28154	0.51564
1151.35298	0.51435
1149.42441	0.51251
1147.49585	0.51027
1145.56729	0.50795
1143.63872	0.50560
1141.71016	0.50323
1139.78159	0.50110
1137.85303	0.49935
1135.92446	0.49798
1133.99590	0.49706
1132.06733	0.49639
1130.13877	0.49583
1128.21021	0.49540
1126.28164	0.49499
1124.35308	0.49459
1122.42451	0.49431
1120.49595	0.49403
1118.56738	0.49369
1116.63882	0.49358
1114.71025	0.49412
1112.78169	0.49513
1110.85312	0.49603
1108.92456	0.49665
1106.99600	0.49741
1105.06743	0.49861
1103.13887	0.49982
1101.21030	0.50081
1099.28174	0.50201
1097.35317	0.50382
1095.42461	0.50647
1093.49604	0.51009
1091.56748	0.51472
1089.63892	0.52078
1087.71035	0.52827
1085.78179	0.53647
1083.85322	0.54474
1081.92466	0.55237
1079.99609	0.55835
1078.06753	0.56172
1076.13896	0.56180
1074.21040	0.55883
1072.28184	0.55362
1070.35327	0.54706
1068.42471	0.53998
1066.49614	0.53307
1064.56758	0.52690
1062.63901	0.52146
1060.71045	0.51652
1058.78188	0.51228
1056.85332	0.50860
1054.92476	0.50526
1052.99619	0.50234
1051.06763	0.50009
1049.13906	0.49865
1047.21050	0.49802
1045.28193	0.49799
1043.35337	0.49831
1041.42480	0.49848
1039.49624	0.49828
1037.56768	0.49821
1035.63911	0.49839
1033.71055	0.49818
1031.78198	0.49736
1029.85342	0.49632
1027.92485	0.49512
1025.99629	0.49362
1024.06772	0.49224
1022.13916	0.49155
1020.21060	0.49152
1018.28203	0.49167
1016.35347	0.49165
1014.42490	0.49155
1012.49634	0.49149
1010.56777	0.49137
1008.63921	0.49136
1006.71064	0.49192
1004.78208	0.49323
1002.85352	0.49507
1000.92495	0.49734
998.99639	0.50024
997.06782	0.50397
995.13926	0.50822
993.21069	0.51234
991.28213	0.51558
989.35356	0.51754
987.42500	0.51840
985.49644	0.51843
983.56787	0.51823
981.63931	0.51853
979.71074	0.51949
977.78218	0.52085
975.85361	0.52271
973.92505	0.52520
971.99648	0.52811
970.06792	0.53126
968.13936	0.53484
966.21079	0.53894
964.28223	0.54326
962.35366	0.54756
960.42510	0.55212
958.49653	0.55729
956.56797	0.56292
954.63940	0.56885
952.71084	0.57506
950.78228	0.58130
948.85371	0.58739
946.92515	0.59356
944.99658	0.59987
943.06802	0.60607
941.13945	0.61185
939.21089	0.61713
937.28232	0.62245
935.35376	0.62814
933.42520	0.63392
931.49663	0.63954
929.56807	0.64493
927.63950	0.65066
925.71094	0.65731
923.78237	0.66431
921.85381	0.67122
919.92524	0.67809
917.99668	0.68444
916.06812	0.69059
914.13955	0.69750
912.21099	0.70525
910.28242	0.71364
908.35386	0.72219
906.42529	0.72990
904.49673	0.73726
902.56816	0.74579
900.63960	0.75585
898.71104	0.76620
896.78247	0.77564
894.85391	0.78453
892.92534	0.79392
890.99678	0.80399
889.06821	0.81423
887.13965	0.82454
885.21108	0.83559
883.28252	0.84754
881.35396	0.85965
879.42539	0.87207
877.49683	0.88410
875.56826	0.89451
873.63970	0.90425
871.71113	0.91399
869.78257	0.92407
867.85400	0.93613
865.92544	0.94924
863.99687	0.96097
862.06831	0.97135
860.13975	0.98116
858.21118	0.99212
856.28262	1.00514
854.35405	1.01750
852.42549	1.02720
850.49692	1.03681
848.56836	1.04873
846.63979	1.06226
844.71123	1.07584
842.78267	1.08757
840.85410	1.09891
838.92554	1.11211
836.99697	1.12471
835.06841	1.13453
833.13984	1.14208
831.21128	1.15101
829.28271	1.16664
827.35415	1.18560
825.42559	1.19892
823.49702	1.20766
821.56846	1.21914
819.63989	1.23563
817.71133	1.24956
815.78276	1.25729
813.85420	1.26764
811.92563	1.28619
809.99707	1.31174
808.06851	1.33137
806.13994	1.32714
804.21138	1.31632
802.28281	1.33470
800.35425	1.36666
798.42568	1.37642
796.49712	1.38277
794.56855	1.39049
792.63999	1.39437
790.71143	1.42084
788.78286	1.45851
786.85430	1.45352
784.92573	1.45187
782.99717	1.51109
781.06860	1.53824
779.14004	1.49729
777.21147	1.44215
775.28291	1.36594
773.35435	1.33325
771.42578	1.38113
769.49722	1.46398
767.56865	1.55421
765.64009	1.55711
763.71152	1.44952
761.78296	1.34489
759.85439	1.28002
757.92583	1.25334
755.99727	1.25665
754.06870	1.33605
752.14014	1.45198
750.21157	1.38191
748.28301	1.34975
746.35444	1.34584
744.42588	1.08292
742.49731	0.92333
740.56875	0.92543
738.64019	1.00303
736.71162	1.13530
734.78306	1.40603
732.85449	1.55718
730.92593	1.16721
728.99736	0.89289
727.06880	0.70982
725.14023	0.58198
723.21167	0.54559
721.28311	0.62502
719.35454	0.73495
717.42598	0.57683
715.49741	0.32025
713.56885	0.13861
711.64028	-0.09019
709.71172	-0.56210
707.78315	-0.53953
705.85459	-0.22625
703.92603	-0.01059
701.99746	0.18305
700.06890	0.32321
698.14033	0.26367
696.21177	0.21611
694.28320	0.17510
692.35464	0.09707
690.42607	0.16221
688.49751	0.59399
686.56895	4.11941
684.64038	4.10784
682.71182	0.55987
680.78325	0.41484
678.85469	0.24623
676.92612	-0.01261
674.99756	-0.07781
673.06899	0.08866
671.14043	0.16478
669.21187	0.10664
667.28330	0.16172
665.35474	0.26542
663.42617	0.25932
661.49761	0.23968
659.56904	0.31476
657.64048	0.43667
655.71191	0.41508
653.78335	0.30068
651.85479	0.24051
649.92622	0.25377
647.99766	0.20148
646.06909	0.08800
644.14053	0.07617
642.21196	0.09669
640.28340	0.07642
638.35483	0.08901
636.42627	0.13071
634.49771	0.13239
632.56914	0.11214
630.64058	0.23182
628.71201	0.67679
626.78345	3.76070
624.85488	0.43537
622.92632	0.21433
620.99775	0.13849
619.06919	0.08071
617.14062	0.07929
615.21206	0.18920
613.28350	0.30752
611.35493	0.25111
609.42637	0.21481
607.49780	0.20984
605.56924	0.19859
603.64067	0.20383
601.71211	0.25471
599.78354	0.29492
597.85498	0.33570
595.92642	0.37607
593.99785	0.32877
592.06929	0.39941
590.14072	0.63330
588.21216	0.59437
586.28359	0.37419
584.35503	0.30965
582.42646	0.31423
580.49790	0.28187
578.56934	0.21311
576.64077	0.16206
574.71221	0.16885
572.78364	0.21114
570.85508	0.16994
568.92651	0.06037
566.99795	0.04662
565.06938	0.08500
563.14082	0.12790
561.21226	0.19058
559.28369	0.25030
557.35513	0.21560
555.42656	0.12363
553.49800	0.10661
551.56943	0.16574
549.64087	0.22253
547.71230	0.19917
545.78374	0.16533
543.85518	0.19780
541.92661	0.25316
539.99805	0.25303
538.06948	0.22500
536.14092	0.20953
534.21235	0.18720
532.28379	0.15138
530.35522	0.16336
528.42666	0.26499
526.49810	0.37199
524.56953	0.34470
522.64097	0.25083
520.71240	0.19978
518.78384	0.19924
516.85527	0.20592
514.92671	0.16680
512.99814	0.09765
511.06958	0.08021
509.14102	0.12350
507.21245	0.17419
505.28389	0.23073
503.35532	0.29395
501.42676	0.30409
499.49819	0.24320
