3997.91411	0.06795
3995.98555	0.06821
3994.05698	0.06859
3992.12842	0.06892
3990.19985	0.06906
3988.27129	0.06918
3986.34272	0.06942
3984.41416	0.07000
3982.48560	0.07088
3980.55703	0.07170
3978.62847	0.07214
3976.69990	0.07210
3974.77134	0.07172
3972.84277	0.07138
3970.91421	0.07136
3968.98564	0.07151
3967.05708	0.07165
3965.12852	0.07185
3963.19995	0.07221
3961.27139	0.07250
3959.34282	0.07253
3957.41426	0.07252
3955.48569	0.07276
3953.55713	0.07309
3951.62856	0.07287
3949.70000	0.07210
3947.77144	0.07180
3945.84287	0.07222
3943.91431	0.07235
3941.98574	0.07228
3940.05718	0.07260
3938.12861	0.07299
3936.20005	0.07300
3934.27148	0.07248
3932.34292	0.07195
3930.41436	0.07209
3928.48579	0.07269
3926.55723	0.07285
3924.62866	0.07229
3922.70010	0.07173
3920.77153	0.07164
3918.84297	0.07165
3916.91440	0.07200
3914.98584	0.07282
3913.05728	0.07303
3911.12871	0.07250
3909.20015	0.07209
3907.27158	0.07179
3905.34302	0.07088
3903.41445	0.06982
3901.48589	0.06986
3899.55732	0.07076
3897.62876	0.07169
3895.70020	0.07213
3893.77163	0.07153
3891.84307	0.07047
3889.91450	0.07065
3887.98594	0.07152
3886.05737	0.07138
3884.12881	0.07084
3882.20024	0.07085
3880.27168	0.07138
3878.34312	0.07220
3876.41455	0.07220
3874.48599	0.07140
3872.55742	0.07093
3870.62886	0.07122
3868.70029	0.07220
3866.77173	0.07294
3864.84316	0.07259
3862.91460	0.07251
3860.98604	0.07359
3859.05747	0.07453
3857.12891	0.07441
3855.20034	0.07345
3853.27178	0.07288
3851.34321	0.07432
3849.41465	0.07595
3847.48608	0.07676
3845.55752	0.07709
3843.62896	0.07714
3841.70039	0.07701
3839.77183	0.07671
3837.84326	0.07706
3835.91470	0.07828
3833.98613	0.07945
3832.05757	0.08101
3830.12900	0.08315
3828.20044	0.08475
3826.27187	0.08559
3824.34331	0.08572
3822.41475	0.08496
3820.48618	0.08458
3818.55762	0.08565
3816.62905	0.08692
3814.70049	0.08878
3812.77192	0.09112
3810.84336	0.09254
3808.91479	0.09304
3806.98623	0.09346
3805.05767	0.09440
3803.12910	0.09495
3801.20054	0.09555
3799.27197	0.09727
3797.34341	0.09881
3795.41484	0.10037
3793.48628	0.10231
3791.55771	0.10393
3789.62915	0.10529
3787.70059	0.10662
3785.77202	0.10790
3783.84346	0.10913
3781.91489	0.11003
3779.98633	0.11084
3778.05776	0.11276
3776.12920	0.11535
3774.20063	0.11731
3772.27207	0.11848
3770.34351	0.11927
3768.41494	0.12099
3766.48638	0.12364
3764.55781	0.12613
3762.62925	0.12809
3760.70068	0.12940
3758.77212	0.13105
3756.84355	0.13353
3754.91499	0.13536
3752.98643	0.13608
3751.05786	0.13679
3749.12930	0.13978
3747.20073	0.14355
3745.27217	0.14599
3743.34360	0.15031
3741.41504	0.15595
3739.48647	0.15918
3737.55791	0.16122
3735.62935	0.16393
3733.70078	0.16869
3731.77222	0.17541
3729.84365	0.18208
3727.91509	0.18746
3725.98652	0.19259
3724.05796	0.19837
3722.12939	0.20498
3720.20083	0.21311
3718.27227	0.22214
3716.34370	0.23072
3714.41514	0.23799
3712.48657	0.24522
3710.55801	0.25660
3708.62944	0.27228
3706.70088	0.28606
3704.77231	0.29785
3702.84375	0.31099
3700.91519	0.32836
3698.98662	0.34798
3697.05806	0.36655
3695.12949	0.38542
3693.20093	0.40451
3691.27236	0.42410
3689.34380	0.45023
3687.41523	0.48644
3685.48667	0.52070
3683.55811	0.54958
3681.62954	0.57872
3679.70098	0.60983
3677.77241	0.64113
3675.84385	0.67773
3673.91528	0.73035
3671.98672	0.77609
3670.05815	0.81590
3668.12959	0.87052
3666.20103	0.92203
3664.27246	0.96492
3662.34390	1.00967
3660.41533	1.05708
3658.48677	1.10301
3656.55820	1.15125
3654.62964	1.20575
3652.70107	1.25195
3650.77251	1.29057
3648.84395	1.34304
3646.91538	1.41182
3644.98682	1.46617
3643.05825	1.50750
3641.12969	1.54776
3639.20112	1.59145
3637.27256	1.63571
3635.34399	1.67886
3633.41543	1.72163
3631.48687	1.76090
3629.55830	1.79958
3627.62974	1.85194
3625.70117	1.90403
3623.77261	1.93903
3621.84404	1.97065
3619.91548	2.00621
3617.98691	2.05015
3616.05835	2.09441
3614.12979	2.13242
3612.20122	2.17225
3610.27266	2.21173
3608.34409	2.25027
3606.41553	2.29122
3604.48696	2.33071
3602.55840	2.36663
3600.62983	2.40441
3598.70127	2.44556
3596.77271	2.48615
3594.84414	2.52610
3592.91558	2.56751
3590.98701	2.60651
3589.05845	2.64050
3587.12988	2.68238
3585.20132	2.73399
3583.27275	2.77778
3581.34419	2.81535
3579.41562	2.85549
3577.48706	2.89842
3575.55850	2.94111
3573.62993	2.98332
3571.70137	3.02349
3569.77280	3.06144
3567.84424	3.10036
3565.91567	3.15021
3563.98711	3.20401
3562.05854	3.24820
3560.12998	3.28987
3558.20142	3.33410
3556.27285	3.37848
3554.34429	3.41979
3552.41572	3.46281
3550.48716	3.51044
3548.55859	3.55710
3546.63003	3.60106
3544.70146	3.64776
3542.77290	3.69785
3540.84434	3.74725
3538.91577	3.79430
3536.98721	3.83878
3535.05864	3.88481
3533.13008	3.93270
3531.20151	3.98066
3529.27295	4.02875
3527.34438	4.07686
3525.41582	4.12299
3523.48726	4.16750
3521.55869	4.21526
3519.63013	4.26528
3517.70156	4.31421
3515.77300	4.36269
3513.84443	4.41091
3511.91587	4.45626
3509.98730	4.50373
3508.05874	4.55917
3506.13018	4.61244
3504.20161	4.65485
3502.27305	4.69337
3500.34448	4.73534
3498.41592	4.78162
3496.48735	4.83404
3494.55879	4.88908
3492.63022	4.93808
3490.70166	4.98238
3488.77310	5.03267
3486.84453	5.08917
3484.91597	5.13742
3482.98740	5.17537
3481.05884	5.22198
3479.13027	5.28145
3477.20171	5.33581
3475.27314	5.37999
3473.34458	5.42105
3471.41602	5.46236
3469.48745	5.50617
3467.55889	5.55412
3465.63032	5.60507
3463.70176	5.66452
3461.77319	5.72886
3459.84463	5.77945
3457.91606	5.81827
3455.98750	5.86065
3454.05894	5.90720
3452.13037	5.96242
3450.20181	6.02652
3448.27324	6.08021
3446.34468	6.12393
3444.41611	6.17450
3442.48755	6.23331
3440.55898	6.29127
3438.63042	6.34550
3436.70186	6.39637
3434.77329	6.44949
3432.84473	6.51098
3430.91616	6.57791
3428.98760	6.63280
3427.05903	6.65573
3425.13047	6.68590
3423.20190	6.75253
3421.27334	6.82278
3419.34478	6.85855
3417.41621	6.86001
3415.48765	6.87140
3413.55908	6.91198
3411.63052	6.96144
3409.70195	7.01293
3407.77339	7.06634
3405.84482	7.12938
3403.91626	7.22461
3401.98770	7.28749
3400.05913	7.30159
3398.13057	7.35362
3396.20200	7.41783
3394.27344	7.43379
3392.34487	7.41522
3390.41631	7.39857
3388.48774	7.42599
3386.55918	7.51007
3384.63062	7.56389
3382.70205	7.56882
3380.77349	7.60889
3378.84492	7.66960
3376.91636	7.71207
3374.98779	7.76168
3373.05923	7.79884
3371.13066	7.74971
3369.20210	7.68535
3367.27354	7.67886
3365.34497	7.71681
3363.41641	7.78951
3361.48784	7.86256
3359.55928	7.89895
3357.63071	7.92212
3355.70215	7.94564
3353.77358	7.93243
3351.84502	7.96687
3349.91646	8.06507
3347.98789	8.07594
3346.05933	7.97721
3344.13076	7.92133
3342.20220	7.96483
3340.27363	7.99234
3338.34507	7.95281
3336.41650	7.94315
3334.48794	8.03051
3332.55937	8.10426
3330.63081	8.11420
3328.70225	8.12201
3326.77368	8.09789
3324.84512	8.08569
3322.91655	8.14672
3320.98799	8.23601
3319.05942	8.26072
3317.13086	8.19376
3315.20229	8.12012
3313.27373	8.15278
3311.34517	8.23967
3309.41660	8.26972
3307.48804	8.26897
3305.55947	8.24781
3303.63091	8.19860
3301.70234	8.15118
3299.77378	8.13998
3297.84521	8.10831
3295.91665	8.08360
3293.98809	8.17280
3292.05952	8.31192
3290.13096	8.35212
3288.20239	8.29128
3286.27383	8.29193
3284.34526	8.36932
3282.41670	8.34802
3280.48813	8.24189
3278.55957	8.20352
3276.63101	8.18479
3274.70244	8.10247
3272.77388	8.06863
3270.84531	8.16184
3268.91675	8.25756
3266.98818	8.27421
3265.05962	8.32089
3263.13105	8.38723
3261.20249	8.35612
3259.27393	8.27742
3257.34536	8.24596
3255.41680	8.20216
3253.48823	8.13516
3251.55967	8.11080
3249.63110	8.10098
3247.70254	8.10534
3245.77397	8.16599
3243.84541	8.23423
3241.91685	8.21528
3239.98828	8.17110
3238.05972	8.18420
3236.13115	8.22846
3234.20259	8.25847
3232.27402	8.25531
3230.34546	8.25443
3228.41689	8.23862
3226.48833	8.18854
3224.55977	8.15473
3222.63120	8.14306
3220.70264	8.13619
3218.77407	8.11819
3216.84551	8.07378
3214.91694	8.02787
3212.98838	8.00151
3211.05981	7.98519
3209.13125	7.97409
3207.20269	7.97888
3205.27412	7.97162
3203.34556	7.90816
3201.41699	7.80056
3199.48843	7.69183
3197.55986	7.65755
3195.63130	7.67246
3193.70273	7.62633
3191.77417	7.57666
3189.84561	7.55985
3187.91704	7.49532
3185.98848	7.40771
3184.05991	7.33404
3182.13135	7.26009
3180.20278	7.20955
3178.27422	7.17865
3176.34565	7.14149
3174.41709	7.12081
3172.48853	7.11710
3170.55996	7.07261
3168.63140	6.98328
3166.70283	6.88567
3164.77427	6.79198
3162.84570	6.71338
3160.91714	6.63409
3158.98857	6.54868
3157.06001	6.48113
3155.13145	6.43324
3153.20288	6.38314
3151.27432	6.31316
3149.34575	6.24251
3147.41719	6.19403
3145.48862	6.14327
3143.56006	6.05797
3141.63149	5.95332
3139.70293	5.86623
3137.77437	5.80678
3135.84580	5.75125
3133.91724	5.68572
3131.98867	5.61851
3130.06011	5.54277
3128.13154	5.45433
3126.20298	5.37110
3124.27441	5.30186
3122.34585	5.24161
3120.41729	5.18358
3118.48872	5.11691
3116.56016	5.03997
3114.63159	4.95907
3112.70303	4.87881
3110.77446	4.80542
3108.84590	4.73655
3106.91733	4.66350
3104.98877	4.58690
3103.06021	4.51464
3101.13164	4.44865
3099.20308	4.38321
3097.27451	4.31473
3095.34595	4.24863
3093.41738	4.18883
3091.48882	4.12801
3089.56025	4.06125
3087.63169	3.99242
3085.70312	3.92688
3083.77456	3.86513
3081.84600	3.80276
3079.91743	3.73963
3077.98887	3.67907
3076.06030	3.62034
3074.13174	3.56152
3072.20317	3.50238
3070.27461	3.44363
3068.34604	3.38550
3066.41748	3.32665
3064.48892	3.26832
3062.56035	3.21225
3060.63179	3.15714
3058.70322	3.10311
3056.77466	3.05013
3054.84609	2.99734
3052.91753	2.94552
3050.98896	2.89426
3049.06040	2.84299
3047.13184	2.79272
3045.20327	2.74267
3043.27471	2.69181
3041.34614	2.64206
3039.41758	2.59509
3037.48901	2.55003
3035.56045	2.50527
3033.63188	2.46005
3031.70332	2.41461
3029.77476	2.37042
3027.84619	2.32845
3025.91763	2.28725
3023.98906	2.24600
3022.06050	2.20535
3020.13193	2.16495
3018.20337	2.12443
3016.27480	2.08477
3014.34624	2.04665
3012.41768	2.00926
3010.48911	1.97217
3008.56055	1.93618
3006.63198	1.90119
3004.70342	1.86618
3002.77485	1.83101
3000.84629	1.79633
2998.91772	1.76252
2996.98916	1.72950
2995.06060	1.69689
2993.13203	1.66463
2991.20347	1.63311
2989.27490	1.60256
2987.34634	1.57284
2985.41777	1.54363
2983.48921	1.51422
2981.56064	1.48442
2979.63208	1.45530
2977.70352	1.42755
2975.77495	1.40054
2973.84639	1.37371
2971.91782	1.34713
2969.98926	1.32087
2968.06069	1.29515
2966.13213	1.27018
2964.20356	1.24564
2962.27500	1.22150
2960.34644	1.19812
2958.41787	1.17548
2956.48931	1.15349
2954.56074	1.13159
2952.63218	1.10910
2950.70361	1.08659
2948.77505	1.06505
2946.84648	1.04470
2944.91792	1.02515
2942.98936	1.00590
2941.06079	0.98670
2939.13223	0.96722
2937.20366	0.94784
2935.27510	0.92944
2933.34653	0.91180
2931.41797	0.89443
2929.48940	0.87756
2927.56084	0.86122
2925.63228	0.84485
2923.70371	0.82864
2921.77515	0.81321
2919.84658	0.79821
2917.91802	0.78293
2915.98945	0.76743
2914.06089	0.75232
2912.13232	0.73794
2910.20376	0.72449
2908.27520	0.71146
2906.34663	0.69823
2904.41807	0.68509
2902.48950	0.67252
2900.56094	0.66046
2898.63237	0.64836
2896.70381	0.63611
2894.77524	0.62424
2892.84668	0.61283
2890.91812	0.60152
2888.98955	0.59045
2887.06099	0.57977
2885.13242	0.56946
2883.20386	0.55941
2881.27529	0.54915
2879.34673	0.53874
2877.41816	0.52877
2875.48960	0.51945
2873.56104	0.51029
2871.63247	0.50091
2869.70391	0.49163
2867.77534	0.48297
2865.84678	0.47466
2863.91821	0.46618
2861.98965	0.45761
2860.06108	0.44929
2858.13252	0.44143
2856.20396	0.43402
2854.27539	0.42681
2852.34683	0.41953
2850.41826	0.41218
2848.48970	0.40509
2846.56113	0.39828
2844.63257	0.39153
2842.70400	0.38505
2840.77544	0.37902
2838.84687	0.37336
2836.91831	0.36789
2834.98975	0.36236
2833.06118	0.35689
2831.13262	0.35157
2829.20405	0.34622
2827.27549	0.34081
2825.34692	0.33547
2823.41836	0.33022
2821.48979	0.32517
2819.56123	0.32032
2817.63267	0.31540
2815.70410	0.31036
2813.77554	0.30550
2811.84697	0.30089
2809.91841	0.29634
2807.98984	0.29188
2806.06128	0.28761
2804.13271	0.28340
2802.20415	0.27916
2800.27559	0.27488
2798.34702	0.27064
2796.41846	0.26662
2794.48989	0.26277
2792.56133	0.25895
2790.63276	0.25516
2788.70420	0.25146
2786.77563	0.24801
2784.84707	0.24472
2782.91851	0.24124
2780.98994	0.23774
2779.06138	0.23457
2777.13281	0.23151
2775.20425	0.22826
2773.27568	0.22511
2771.34712	0.22236
2769.41855	0.21971
2767.48999	0.21674
2765.56143	0.21365
2763.63286	0.21081
2761.70430	0.20825
2759.77573	0.20579
2757.84717	0.20331
2755.91860	0.20083
2753.99004	0.19843
2752.06147	0.19607
2750.13291	0.19363
2748.20435	0.19124
2746.27578	0.18905
2744.34722	0.18695
2742.41865	0.18493
2740.49009	0.18304
2738.56152	0.18115
2736.63296	0.17912
2734.70439	0.17711
2732.77583	0.17520
2730.84727	0.17336
2728.91870	0.17159
2726.99014	0.16988
2725.06157	0.16820
2723.13301	0.16658
2721.20444	0.16499
2719.27588	0.16344
2717.34731	0.16197
2715.41875	0.16050
2713.49019	0.15891
2711.56162	0.15728
2709.63306	0.15584
2707.70449	0.15460
2705.77593	0.15349
2703.84736	0.15241
2701.91880	0.15121
2699.99023	0.14998
2698.06167	0.14879
2696.13311	0.14764
2694.20454	0.14658
2692.27598	0.14563
2690.34741	0.14473
2688.41885	0.14380
2686.49028	0.14278
2684.56172	0.14182
2682.63315	0.14104
2680.70459	0.14036
2678.77603	0.13955
2676.84746	0.13860
2674.91890	0.13771
2672.99033	0.13689
2671.06177	0.13601
2669.13320	0.13519
2667.20464	0.13452
2665.27607	0.13395
2663.34751	0.13351
2661.41895	0.13314
2659.49038	0.13265
2657.56182	0.13208
2655.63325	0.13165
2653.70469	0.13124
2651.77612	0.13064
2649.84756	0.13009
2647.91899	0.12976
2645.99043	0.12947
2644.06187	0.12919
2642.13330	0.12890
2640.20474	0.12853
2638.27617	0.12817
2636.34761	0.12787
2634.41904	0.12759
2632.49048	0.12739
2630.56191	0.12731
2628.63335	0.12725
2626.70479	0.12705
2624.77622	0.12681
2622.84766	0.12676
2620.91909	0.12687
2618.99053	0.12692
2617.06196	0.12685
2615.13340	0.12681
2613.20483	0.12691
2611.27627	0.12697
2609.34771	0.12705
2607.41914	0.12726
2605.49058	0.12746
2603.56201	0.12762
2601.63345	0.12783
2599.70488	0.12797
2597.77632	0.12806
2595.84775	0.12824
2593.91919	0.12851
2591.99062	0.12870
2590.06206	0.12885
2588.13350	0.12910
2586.20493	0.12932
2584.27637	0.12950
2582.34780	0.12992
2580.41924	0.13059
2578.49067	0.13118
2576.56211	0.13155
2574.63354	0.13183
2572.70498	0.13218
2570.77642	0.13263
2568.84785	0.13306
2566.91929	0.13346
2564.99072	0.13394
2563.06216	0.13450
2561.13359	0.13506
2559.20503	0.13567
2557.27646	0.13631
2555.34790	0.13690
2553.41934	0.13740
2551.49077	0.13795
2549.56221	0.13856
2547.63364	0.13915
2545.70508	0.13981
2543.77651	0.14060
2541.84795	0.14132
2539.91938	0.14192
2537.99082	0.14255
2536.06226	0.14323
2534.13369	0.14391
2532.20513	0.14466
2530.27656	0.14552
2528.34800	0.14636
2526.41943	0.14712
2524.49087	0.14783
2522.56230	0.14862
2520.63374	0.14943
2518.70518	0.15014
2516.77661	0.15094
2514.84805	0.15181
2512.91948	0.15257
2510.99092	0.15340
2509.06235	0.15442
2507.13379	0.15549
2505.20522	0.15643
2503.27666	0.15706
2501.34810	0.15755
2499.41953	0.15835
2497.49097	0.15950
2495.56240	0.16069
2493.63384	0.16165
2491.70527	0.16244
2489.77671	0.16325
2487.84814	0.16412
2485.91958	0.16503
2483.99102	0.16598
2482.06245	0.16695
2480.13389	0.16793
2478.20532	0.16885
2476.27676	0.16974
2474.34819	0.17069
2472.41963	0.17169
2470.49106	0.17266
2468.56250	0.17360
2466.63394	0.17457
2464.70537	0.17563
2462.77681	0.17661
2460.84824	0.17751
2458.91968	0.17856
2456.99111	0.17967
2455.06255	0.18062
2453.13398	0.18146
2451.20542	0.18245
2449.27686	0.18361
2447.34829	0.18477
2445.41973	0.18589
2443.49116	0.18701
2441.56260	0.18803
2439.63403	0.18894
2437.70547	0.19000
2435.77690	0.19114
2433.84834	0.19229
2431.91978	0.19348
2429.99121	0.19465
2428.06265	0.19586
2426.13408	0.19719
2424.20552	0.19842
2422.27695	0.19955
2420.34839	0.20073
2418.41982	0.20187
2416.49126	0.20293
2414.56270	0.20407
2412.63413	0.20528
2410.70557	0.20642
2408.77700	0.20756
2406.84844	0.20873
2404.91987	0.20992
2402.99131	0.21115
2401.06274	0.21241
2399.13418	0.21369
2397.20562	0.21499
2395.27705	0.21626
2393.34849	0.21749
2391.41992	0.21877
2389.49136	0.22012
2387.56279	0.22140
2385.63423	0.22256
2383.70566	0.22374
2381.77710	0.22492
2379.84854	0.22582
2377.91997	0.22631
2375.99141	0.22672
2374.06284	0.22714
2372.13428	0.22699
2370.20571	0.22625
2368.27715	0.22584
2366.34858	0.22590
2364.42002	0.22641
2362.49146	0.22770
2360.56289	0.22934
2358.63433	0.23164
2356.70576	0.23461
2354.77720	0.23724
2352.84863	0.24027
2350.92007	0.24385
2348.99150	0.24652
2347.06294	0.24797
2345.13437	0.24868
2343.20581	0.24901
2341.27725	0.24942
2339.34868	0.25063
2337.42012	0.25249
2335.49155	0.25427
2333.56299	0.25593
2331.63442	0.25800
2329.70586	0.26058
2327.77729	0.26333
2325.84873	0.26600
2323.92017	0.26865
2321.99160	0.27112
2320.06304	0.27335
2318.13447	0.27530
2316.20591	0.27706
2314.27734	0.27922
2312.34878	0.28175
2310.42021	0.28393
2308.49165	0.28566
2306.56309	0.28746
2304.63452	0.28942
2302.70596	0.29136
2300.77739	0.29345
2298.84883	0.29573
2296.92026	0.29797
2294.99170	0.30005
2293.06313	0.30201
2291.13457	0.30394
2289.20601	0.30588
2287.27744	0.30785
2285.34888	0.30995
2283.42031	0.31207
2281.49175	0.31409
2279.56318	0.31620
2277.63462	0.31835
2275.70605	0.32035
2273.77749	0.32228
2271.84893	0.32430
2269.92036	0.32640
2267.99180	0.32853
2266.06323	0.33072
2264.13467	0.33301
2262.20610	0.33529
2260.27754	0.33749
2258.34897	0.33958
2256.42041	0.34162
2254.49185	0.34374
2252.56328	0.34589
2250.63472	0.34801
2248.70615	0.35016
2246.77759	0.35247
2244.84902	0.35492
2242.92046	0.35723
2240.99189	0.35940
2239.06333	0.36161
2237.13477	0.36384
2235.20620	0.36597
2233.27764	0.36812
2231.34907	0.37041
2229.42051	0.37276
2227.49194	0.37510
2225.56338	0.37737
2223.63481	0.37961
2221.70625	0.38183
2219.77769	0.38402
2217.84912	0.38620
2215.92056	0.38835
2213.99199	0.39049
2212.06343	0.39270
2210.13486	0.39494
2208.20630	0.39711
2206.27773	0.39918
2204.34917	0.40122
2202.42061	0.40335
2200.49204	0.40547
2198.56348	0.40755
2196.63491	0.40966
2194.70635	0.41176
2192.77778	0.41369
2190.84922	0.41553
2188.92065	0.41742
2186.99209	0.41931
2185.06353	0.42117
2183.13496	0.42297
2181.20640	0.42472
2179.27783	0.42651
2177.34927	0.42828
2175.42070	0.42988
2173.49214	0.43127
2171.56357	0.43263
2169.63501	0.43405
2167.70645	0.43538
2165.77788	0.43664
2163.84932	0.43798
2161.92075	0.43933
2159.99219	0.44057
2158.06362	0.44167
2156.13506	0.44261
2154.20649	0.44345
2152.27793	0.44431
2150.34937	0.44513
2148.42080	0.44585
2146.49224	0.44651
2144.56367	0.44712
2142.63511	0.44764
2140.70654	0.44805
2138.77798	0.44840
2136.84941	0.44867
2134.92085	0.44885
2132.99229	0.44902
2131.06372	0.44917
2129.13516	0.44917
2127.20659	0.44904
2125.27803	0.44884
2123.34946	0.44849
2121.42090	0.44801
2119.49233	0.44751
2117.56377	0.44705
2115.63521	0.44652
2113.70664	0.44581
2111.77808	0.44502
2109.84951	0.44418
2107.92095	0.44322
2105.99238	0.44219
2104.06382	0.44115
2102.13525	0.44002
2100.20669	0.43881
2098.27812	0.43752
2096.34956	0.43617
2094.42100	0.43481
2092.49243	0.43339
2090.56387	0.43190
2088.63530	0.43028
2086.70674	0.42858
2084.77817	0.42684
2082.84961	0.42502
2080.92104	0.42313
2078.99248	0.42122
2077.06392	0.41926
2075.13535	0.41718
2073.20679	0.41502
2071.27822	0.41288
2069.34966	0.41081
2067.42109	0.40877
2065.49253	0.40661
2063.56396	0.40424
2061.63540	0.40181
2059.70684	0.39937
2057.77827	0.39691
2055.84971	0.39444
2053.92114	0.39197
2051.99258	0.38956
2050.06401	0.38718
2048.13545	0.38473
2046.20688	0.38210
2044.27832	0.37945
2042.34976	0.37689
2040.42119	0.37435
2038.49263	0.37170
2036.56406	0.36894
2034.63550	0.36622
2032.70693	0.36356
2030.77837	0.36094
2028.84980	0.35825
2026.92124	0.35554
2024.99268	0.35289
2023.06411	0.35027
2021.13555	0.34759
2019.20698	0.34479
2017.27842	0.34197
2015.34985	0.33933
2013.42129	0.33676
2011.49272	0.33399
2009.56416	0.33110
2007.63560	0.32840
2005.70703	0.32594
2003.77847	0.32348
2001.84990	0.32085
1999.92134	0.31819
1997.99277	0.31562
1996.06421	0.31308
1994.13564	0.31052
1992.20708	0.30799
1990.27852	0.30557
1988.34995	0.30326
1986.42139	0.30096
1984.49282	0.29856
1982.56426	0.29605
1980.63569	0.29354
1978.70713	0.29121
1976.77856	0.28904
1974.85000	0.28686
1972.92144	0.28466
1970.99287	0.28255
1969.06431	0.28039
1967.13574	0.27825
1965.20718	0.27629
1963.27861	0.27439
1961.35005	0.27244
1959.42148	0.27054
1957.49292	0.26870
1955.56436	0.26689
1953.63579	0.26515
1951.70723	0.26341
1949.77866	0.26170
1947.85010	0.26004
1945.92153	0.25840
1943.99297	0.25679
1942.06440	0.25530
1940.13584	0.25398
1938.20728	0.25272
1936.27871	0.25144
1934.35015	0.25009
1932.42158	0.24875
1930.49302	0.24750
1928.56445	0.24638
1926.63589	0.24533
1924.70732	0.24420
1922.77876	0.24297
1920.85020	0.24186
1918.92163	0.24089
1916.99307	0.23998
1915.06450	0.23919
1913.13594	0.23839
1911.20737	0.23764
1909.27881	0.23701
1907.35024	0.23647
1905.42168	0.23580
1903.49312	0.23513
1901.56455	0.23461
1899.63599	0.23413
1897.70742	0.23360
1895.77886	0.23308
1893.85029	0.23267
1891.92173	0.23231
1889.99316	0.23199
1888.06460	0.23174
1886.13604	0.23149
1884.20747	0.23122
1882.27891	0.23102
1880.35034	0.23096
1878.42178	0.23100
1876.49321	0.23111
1874.56465	0.23115
1872.63608	0.23102
1870.70752	0.23061
1868.77896	0.23036
1866.85039	0.23076
1864.92183	0.23133
1862.99326	0.23171
1861.06470	0.23211
1859.13613	0.23259
1857.20757	0.23291
1855.27900	0.23325
1853.35044	0.23367
1851.42187	0.23415
1849.49331	0.23458
1847.56475	0.23491
1845.63618	0.23520
1843.70762	0.23585
1841.77905	0.23697
1839.85049	0.23785
1837.92192	0.23863
1835.99336	0.23956
1834.06479	0.24060
1832.13623	0.24138
1830.20767	0.24222
1828.27910	0.24354
1826.35054	0.24487
1824.42197	0.24635
1822.49341	0.24796
1820.56484	0.24945
1818.63628	0.25081
1816.70771	0.25231
1814.77915	0.25375
1812.85059	0.25517
1810.92202	0.25692
1808.99346	0.25904
1807.06489	0.26125
1805.13633	0.26328
1803.20776	0.26527
1801.27920	0.26731
1799.35063	0.26988
1797.42207	0.27254
1795.49351	0.27486
1793.56494	0.27719
1791.63638	0.28063
1789.70781	0.28475
1787.77925	0.28796
1785.85068	0.29107
1783.92212	0.29455
1781.99355	0.29836
1780.06499	0.30251
1778.13643	0.30690
1776.20786	0.31076
1774.27930	0.31436
1772.35073	0.31933
1770.42217	0.32575
1768.49360	0.33192
1766.56504	0.33777
1764.63647	0.34325
1762.70791	0.34878
1760.77935	0.35602
1758.85078	0.36312
1756.92222	0.37020
1754.99365	0.37805
1753.06509	0.38494
1751.13652	0.39248
1749.20796	0.40225
1747.27939	0.41279
1745.35083	0.42236
1743.42227	0.43227
1741.49370	0.44301
1739.56514	0.45552
1737.63657	0.46797
1735.70801	0.47844
1733.77944	0.49401
1731.85088	0.51394
1729.92231	0.53052
1727.99375	0.54702
1726.06519	0.56407
1724.13662	0.58215
1722.20806	0.60160
1720.27949	0.61920
1718.35093	0.63912
1716.42236	0.66972
1714.49380	0.70068
1712.56523	0.72612
1710.63667	0.75017
1708.70811	0.77527
1706.77954	0.80321
1704.85098	0.83679
1702.92241	0.86704
1700.99385	0.89630
1699.06528	0.93911
1697.13672	0.97849
1695.20815	1.02008
1693.27959	1.06126
1691.35103	1.09344
1689.42246	1.12881
1687.49390	1.16542
1685.56533	1.20039
1683.63677	1.25500
1681.70820	1.31325
1679.77964	1.35139
1677.85107	1.38718
1675.92251	1.42716
1673.99395	1.47554
1672.06538	1.51807
1670.13682	1.55976
1668.20825	1.61465
1666.27969	1.65904
1664.35112	1.69473
1662.42256	1.73711
1660.49399	1.78441
1658.56543	1.82246
1656.63687	1.85401
1654.70830	1.88334
1652.77974	1.93420
1650.85117	1.98708
1648.92261	2.00833
1646.99404	2.03679
1645.06548	2.07414
1643.13691	2.09948
1641.20835	2.11469
1639.27979	2.12776
1637.35122	2.13573
1635.42266	2.13776
1633.49409	2.13593
1631.56553	2.12912
1629.63696	2.11831
1627.70840	2.09629
1625.77983	2.06823
1623.85127	2.03318
1621.92271	1.99133
1619.99414	1.95348
1618.06558	1.91386
1616.13701	1.85541
1614.20845	1.79622
1612.27988	1.75184
1610.35132	1.70515
1608.42275	1.65309
1606.49419	1.60078
1604.56562	1.55224
1602.63706	1.50534
1600.70850	1.45970
1598.77993	1.41764
1596.85137	1.37751
1594.92280	1.33754
1592.99424	1.29835
1591.06567	1.26264
1589.13711	1.22937
1587.20854	1.19796
1585.27998	1.16810
1583.35142	1.13945
1581.42285	1.11285
1579.49429	1.08939
1577.56572	1.06706
1575.63716	1.03960
1573.70859	1.01631
1571.78003	1.00079
1569.85146	0.98274
1567.92290	0.96202
1565.99434	0.94561
1564.06577	0.93096
1562.13721	0.91815
1560.20864	0.90614
1558.28008	0.88515
1556.35151	0.86819
1554.42295	0.85884
1552.49438	0.84925
1550.56582	0.83916
1548.63726	0.82849
1546.70869	0.81906
1544.78013	0.81024
1542.85156	0.80086
1540.92300	0.79057
1538.99443	0.77932
1537.06587	0.77259
1535.13730	0.76763
1533.20874	0.76059
1531.28018	0.75305
1529.35161	0.74718
1527.42305	0.74099
1525.49448	0.73441
1523.56592	0.72848
1521.63735	0.72251
1519.70879	0.71671
1517.78022	0.71189
1515.85166	0.70704
1513.92310	0.70248
1511.99453	0.69827
1510.06597	0.69383
1508.13740	0.68905
1506.20884	0.68379
1504.28027	0.68076
1502.35171	0.67842
1500.42314	0.67529
1498.49458	0.67164
1496.56602	0.66827
1494.63745	0.66559
1492.70889	0.66294
1490.78032	0.65984
1488.85176	0.65661
1486.92319	0.65412
1484.99463	0.65169
1483.06606	0.64892
1481.13750	0.64597
1479.20894	0.64308
1477.28037	0.64025
1475.35181	0.63711
1473.42324	0.63387
1471.49468	0.63110
1469.56611	0.62910
1467.63755	0.62697
1465.70898	0.62437
1463.78042	0.62188
1461.85186	0.61987
1459.92329	0.61767
1457.99473	0.61473
1456.06616	0.61201
1454.13760	0.61066
1452.20903	0.60945
1450.28047	0.60783
1448.35190	0.60602
1446.42334	0.60443
1444.49478	0.60314
1442.56621	0.60178
1440.63765	0.60021
1438.70908	0.59856
1436.78052	0.59699
1434.85195	0.59577
1432.92339	0.59458
1430.99482	0.59330
1429.06626	0.59194
1427.13770	0.59049
1425.20913	0.58891
1423.28057	0.58734
1421.35200	0.58594
1419.42344	0.58445
1417.49487	0.58299
1415.56631	0.58176
1413.63774	0.58047
1411.70918	0.57897
1409.78062	0.57753
1407.85205	0.57621
1405.92349	0.57488
1403.99492	0.57359
1402.06636	0.57235
1400.13779	0.57098
1398.20923	0.56949
1396.28066	0.56808
1394.35210	0.56683
1392.42354	0.56579
1390.49497	0.56478
1388.56641	0.56366
1386.63784	0.56250
1384.70928	0.56140
1382.78071	0.56041
1380.85215	0.55951
1378.92358	0.55868
1376.99502	0.55778
1375.06646	0.55679
1373.13789	0.55576
1371.20933	0.55481
1369.28076	0.55395
1367.35220	0.55317
1365.42363	0.55221
1363.49507	0.55093
1361.56650	0.54981
1359.63794	0.54910
1357.70937	0.54844
1355.78081	0.54765
1353.85225	0.54687
1351.92368	0.54609
1349.99512	0.54523
1348.06655	0.54442
1346.13799	0.54375
1344.20942	0.54298
1342.28086	0.54190
1340.35229	0.54064
1338.42373	0.53952
1336.49517	0.53876
1334.56660	0.53820
1332.63804	0.53755
1330.70947	0.53675
1328.78091	0.53594
1326.85234	0.53514
1324.92378	0.53424
1322.99521	0.53325
1321.06665	0.53220
1319.13809	0.53126
1317.20952	0.53045
1315.28096	0.52973
1313.35239	0.52904
1311.42383	0.52834
1309.49526	0.52751
1307.56670	0.52649
1305.63813	0.52549
1303.70957	0.52469
1301.78101	0.52407
1299.85244	0.52333
1297.92388	0.52240
1295.99531	0.52145
1294.06675	0.52050
1292.13818	0.51961
1290.20962	0.51887
1288.28105	0.51826
1286.35249	0.51765
1284.42393	0.51702
1282.49536	0.51629
1280.56680	0.51551
1278.63823	0.51482
1276.70967	0.51423
1274.78110	0.51358
1272.85254	0.51270
1270.92397	0.51178
1268.99541	0.51099
1267.06685	0.51028
1265.13828	0.50956
1263.20972	0.50881
1261.28115	0.50806
1259.35259	0.50736
1257.42402	0.50666
1255.49546	0.50597
1253.56689	0.50535
1251.63833	0.50479
1249.70977	0.50429
1247.78120	0.50383
1245.85264	0.50332
1243.92407	0.50265
1241.99551	0.50187
1240.06694	0.50107
1238.13838	0.50028
1236.20981	0.49960
1234.28125	0.49898
1232.35269	0.49823
1230.42412	0.49735
1228.49556	0.49646
1226.56699	0.49567
1224.63843	0.49484
1222.70986	0.49389
1220.78130	0.49290
1218.85273	0.49191
1216.92417	0.49105
1214.99561	0.49033
1213.06704	0.48961
1211.13848	0.48882
1209.20991	0.48801
1207.28135	0.48721
1205.35278	0.48637
1203.42422	0.48544
1201.49565	0.48446
1199.56709	0.48347
1197.63853	0.48249
1195.70996	0.48159
1193.78140	0.48072
1191.85283	0.47981
1189.92427	0.47888
1187.99570	0.47804
1186.06714	0.47719
1184.13857	0.47627
1182.21001	0.47541
1180.28145	0.47459
1178.35288	0.47364
1176.42432	0.47267
1174.49575	0.47186
1172.56719	0.47113
1170.63862	0.47030
1168.71006	0.46933
1166.78149	0.46835
1164.85293	0.46749
1162.92437	0.46678
1160.99580	0.46611
1159.06724	0.46544
1157.13867	0.46468
1155.21011	0.46375
1153.28154	0.46276
1151.35298	0.46190
1149.42441	0.46114
1147.49585	0.46036
1145.56729	0.45953
1143.63872	0.45870
1141.71016	0.45789
1139.78159	0.45696
1137.85303	0.45592
1135.92446	0.45500
1133.99590	0.45423
1132.06733	0.45345
1130.13877	0.45260
1128.21021	0.45185
1126.28164	0.45123
1124.35308	0.45064
1122.42451	0.45024
1120.49595	0.44996
1118.56738	0.44931
1116.63882	0.44835
1114.71025	0.44761
1112.78169	0.44721
1110.85312	0.44699
1108.92456	0.44680
1106.99600	0.44645
1105.06743	0.44592
1103.13887	0.44532
1101.21030	0.44484
1099.28174	0.44444
1097.35317	0.44409
1095.42461	0.44380
1093.49604	0.44346
1091.56748	0.44310
1089.63892	0.44293
1087.71035	0.44280
1085.78179	0.44244
1083.85322	0.44190
1081.92466	0.44142
1079.99609	0.44119
1078.06753	0.44101
1076.13896	0.44078
1074.21040	0.44061
1072.28184	0.44059
1070.35327	0.44072
1068.42471	0.44095
1066.49614	0.44123
1064.56758	0.44142
1062.63901	0.44163
1060.71045	0.44206
1058.78188	0.44257
1056.85332	0.44306
1054.92476	0.44353
1052.99619	0.44394
1051.06763	0.44422
1049.13906	0.44438
1047.21050	0.44461
1045.28193	0.44508
1043.35337	0.44565
1041.42480	0.44629
1039.49624	0.44709
1037.56768	0.44789
1035.63911	0.44861
1033.71055	0.44940
1031.78198	0.45038
1029.85342	0.45138
1027.92485	0.45224
1025.99629	0.45316
1024.06772	0.45422
1022.13916	0.45525
1020.21060	0.45631
1018.28203	0.45760
1016.35347	0.45892
1014.42490	0.46022
1012.49634	0.46165
1010.56777	0.46311
1008.63921	0.46455
1006.71064	0.46609
1004.78208	0.46777
1002.85352	0.46955
1000.92495	0.47135
998.99639	0.47312
997.06782	0.47502
995.13926	0.47705
993.21069	0.47916
991.28213	0.48140
989.35356	0.48382
987.42500	0.48643
985.49644	0.48912
983.56787	0.49171
981.63931	0.49441
979.71074	0.49749
977.78218	0.50070
975.85361	0.50379
973.92505	0.50682
971.99648	0.50999
970.06792	0.51349
968.13936	0.51725
966.21079	0.52116
964.28223	0.52519
962.35366	0.52916
960.42510	0.53303
958.49653	0.53707
956.56797	0.54138
954.63940	0.54574
952.71084	0.55012
950.78228	0.55478
948.85371	0.55982
946.92515	0.56513
944.99658	0.57051
943.06802	0.57564
941.13945	0.58098
939.21089	0.58730
937.28232	0.59420
935.35376	0.60068
933.42520	0.60659
931.49663	0.61246
929.56807	0.61880
927.63950	0.62549
925.71094	0.63218
923.78237	0.63927
921.85381	0.64698
919.92524	0.65452
917.99668	0.66171
916.06812	0.66936
914.13955	0.67736
912.21099	0.68558
910.28242	0.69451
908.35386	0.70380
906.42529	0.71260
904.49673	0.72008
902.56816	0.72716
900.63960	0.73655
898.71104	0.74793
896.78247	0.75838
894.85391	0.76772
892.92534	0.77744
890.99678	0.78737
889.06821	0.79753
887.13965	0.80833
885.21108	0.81930
883.28252	0.83032
881.35396	0.84136
879.42539	0.85199
877.49683	0.86287
875.56826	0.87466
873.63970	0.88562
871.71113	0.89441
869.78257	0.90372
867.85400	0.91604
865.92544	0.92897
863.99687	0.94014
862.06831	0.95104
860.13975	0.96277
858.21118	0.97464
856.28262	0.98652
854.35405	0.99872
852.42549	1.01098
850.49692	1.02281
848.56836	1.03354
846.63979	1.04448
844.71123	1.05738
842.78267	1.06935
840.85410	1.07770
838.92554	1.08529
836.99697	1.09711
835.06841	1.11134
833.13984	1.12377
831.21128	1.13617
829.28271	1.14750
827.35415	1.15709
825.42559	1.16814
823.49702	1.18149
821.56846	1.19561
819.63989	1.20752
817.71133	1.21311
815.78276	1.21190
813.85420	1.21264
811.92563	1.22102
809.99707	1.23749
808.06851	1.26063
806.13994	1.27752
804.21138	1.27470
802.28281	1.26566
800.35425	1.27222
798.42568	1.27339
796.49712	1.25093
794.56855	1.25188
792.63999	1.27889
790.71143	1.27932
788.78286	1.27654
786.85430	1.31541
784.92573	1.37548
782.99717	1.39777
781.06860	1.36159
779.14004	1.28671
777.21147	1.22444
775.28291	1.21758
773.35435	1.25538
771.42578	1.30019
769.49722	1.30669
767.56865	1.28043
765.64009	1.27712
763.71152	1.31269
761.78296	1.34140
759.85439	1.35249
757.92583	1.37883
755.99727	1.43665
754.06870	1.66232
752.14014	2.11548
750.21157	1.50219
748.28301	1.24182
746.35444	1.24277
744.42588	1.25214
742.49731	1.13165
740.56875	1.05723
738.64019	1.02828
736.71162	0.94002
734.78306	0.85265
732.85449	0.85543
730.92593	0.86773
728.99736	0.78352
727.06880	0.70478
725.14023	0.64180
723.21167	0.50141
721.28311	0.41576
719.35454	0.47448
717.42598	0.52324
715.49741	0.52165
713.56885	0.39911
711.64028	0.22993
709.71172	0.10651
707.78315	0.05522
705.85459	0.15395
703.92603	0.56683
701.99746	0.64301
700.06890	0.25786
698.14033	0.18787
696.21177	0.19683
694.28320	0.21621
692.35464	0.25099
690.42607	0.38213
688.49751	0.56753
686.56895	0.55430
684.64038	0.54686
682.71182	0.67899
680.78325	0.52645
678.85469	0.29852
676.92612	0.26229
674.99756	0.30859
673.06899	0.32020
671.14043	0.44286
669.21187	4.01527
667.28330	4.00370
665.35474	0.42662
663.42617	0.23626
661.49761	0.34962
659.56904	0.65748
657.64048	0.89064
655.71191	0.66773
653.78335	0.44658
651.85479	0.34351
649.92622	0.36586
647.99766	0.43881
646.06909	0.47821
644.14053	0.40582
642.21196	0.32056
640.28340	0.26734
638.35483	0.23691
636.42627	0.24109
634.49771	0.24459
632.56914	0.24565
630.64058	0.34290
628.71201	0.44251
626.78345	0.39512
624.85488	0.42692
622.92632	0.61612
620.99775	0.55815
619.06919	0.36933
617.14062	0.34157
615.21206	0.51588
613.28350	0.97596
611.35493	0.77194
609.42637	0.57203
607.49780	0.54510
605.56924	0.53219
603.64067	0.42444
601.71211	0.25117
599.78354	0.17413
597.85498	0.15679
595.92642	0.15924
593.99785	0.20693
592.06929	0.24928
590.14072	0.22329
588.21216	0.21159
586.28359	0.25086
584.35503	0.25159
582.42646	0.25677
580.49790	0.43306
578.56934	0.77644
576.64077	0.48353
574.71221	0.29725
572.78364	0.24324
570.85508	0.23402
568.92651	0.18945
566.99795	0.13018
565.06938	0.14383
563.14082	0.18367
561.21226	0.18767
559.28369	0.20520
557.35513	0.26154
555.42656	0.37827
553.49800	0.58055
551.56943	0.48674
549.64087	0.34776
547.71230	0.33471
545.78374	0.33743
543.85518	0.33884
541.92661	0.34175
539.99805	0.25834
538.06948	0.20310
536.14092	0.23272
534.21235	0.27835
532.28379	0.28866
530.35522	0.27905
528.42666	0.28201
526.49810	0.34788
524.56953	0.42682
522.64097	0.40133
520.71240	0.33747
518.78384	0.31310
516.85527	0.30920
514.92671	0.29144
512.99814	0.30291
511.06958	0.33593
509.14102	0.36179
507.21245	0.37692
505.28389	0.30884
503.35532	0.19907
501.42676	0.15288
499.49819	0.20390
