3997.91411	0.06738
3995.98555	0.06762
3994.05698	0.06806
3992.12842	0.06842
3990.19985	0.06865
3988.27129	0.06905
3986.34272	0.06941
3984.41416	0.06979
3982.48560	0.07028
3980.55703	0.07048
3978.62847	0.07048
3976.69990	0.07069
3974.77134	0.07120
3972.84277	0.07171
3970.91421	0.07182
3968.98564	0.07172
3967.05708	0.07180
3965.12852	0.07205
3963.19995	0.07220
3961.27139	0.07217
3959.34282	0.07222
3957.41426	0.07234
3955.48569	0.07238
3953.55713	0.07243
3951.62856	0.07254
3949.70000	0.07272
3947.77144	0.07298
3945.84287	0.07307
3943.91431	0.07315
3941.98574	0.07345
3940.05718	0.07351
3938.12861	0.07312
3936.20005	0.07263
3934.27148	0.07271
3932.34292	0.07350
3930.41436	0.07394
3928.48579	0.07357
3926.55723	0.07351
3924.62866	0.07403
3922.70010	0.07387
3920.77153	0.07293
3918.84297	0.07244
3916.91440	0.07268
3914.98584	0.07286
3913.05728	0.07243
3911.12871	0.07191
3909.20015	0.07183
3907.27158	0.07230
3905.34302	0.07322
3903.41445	0.07414
3901.48589	0.07458
3899.55732	0.07473
3897.62876	0.07433
3895.70020	0.07323
3893.77163	0.07246
3891.84307	0.07268
3889.91450	0.07312
3887.98594	0.07311
3886.05737	0.07339
3884.12881	0.07364
3882.20024	0.07339
3880.27168	0.07383
3878.34312	0.07444
3876.41455	0.07425
3874.48599	0.07422
3872.55742	0.07452
3870.62886	0.07528
3868.70029	0.07654
3866.77173	0.07660
3864.84316	0.07606
3862.91460	0.07629
3860.98604	0.07650
3859.05747	0.07615
3857.12891	0.07591
3855.20034	0.07645
3853.27178	0.07830
3851.34321	0.08034
3849.41465	0.08001
3847.48608	0.07875
3845.55752	0.07832
3843.62896	0.07951
3841.70039	0.08151
3839.77183	0.08300
3837.84326	0.08396
3835.91470	0.08460
3833.98613	0.08470
3832.05757	0.08447
3830.12900	0.08435
3828.20044	0.08456
3826.27187	0.08517
3824.34331	0.08591
3822.41475	0.08698
3820.48618	0.08912
3818.55762	0.09048
3816.62905	0.09031
3814.70049	0.09069
3812.77192	0.09118
3810.84336	0.09119
3808.91479	0.09182
3806.98623	0.09378
3805.05767	0.09615
3803.12910	0.09760
3801.20054	0.09912
3799.27197	0.10078
3797.34341	0.10149
3795.41484	0.10179
3793.48628	0.10181
3791.55771	0.10210
3789.62915	0.10310
3787.70059	0.10455
3785.77202	0.10633
3783.84346	0.10808
3781.91489	0.10956
3779.98633	0.11146
3778.05776	0.11340
3776.12920	0.11413
3774.20063	0.11464
3772.27207	0.11610
3770.34351	0.11847
3768.41494	0.12097
3766.48638	0.12301
3764.55781	0.12509
3762.62925	0.12705
3760.70068	0.12902
3758.77212	0.13167
3756.84355	0.13431
3754.91499	0.13629
3752.98643	0.13877
3751.05786	0.14327
3749.12930	0.14857
3747.20073	0.15112
3745.27217	0.15312
3743.34360	0.15718
3741.41504	0.16063
3739.48647	0.16277
3737.55791	0.16632
3735.62935	0.17278
3733.70078	0.18010
3731.77222	0.18467
3729.84365	0.18804
3727.91509	0.19202
3725.98652	0.19766
3724.05796	0.20470
3722.12939	0.21132
3720.20083	0.21740
3718.27227	0.22378
3716.34370	0.23084
3714.41514	0.23846
3712.48657	0.24798
3710.55801	0.26142
3708.62944	0.27579
3706.70088	0.28731
3704.77231	0.29797
3702.84375	0.31069
3700.91519	0.32760
3698.98662	0.34602
3697.05806	0.36326
3695.12949	0.38170
3693.20093	0.40165
3691.27236	0.42354
3689.34380	0.45155
3687.41523	0.48539
3685.48667	0.51505
3683.55811	0.54080
3681.62954	0.56858
3679.70098	0.60000
3677.77241	0.63297
3675.84385	0.67147
3673.91528	0.72350
3671.98672	0.76732
3670.05815	0.80703
3668.12959	0.86098
3666.20103	0.90947
3664.27246	0.94960
3662.34390	0.99303
3660.41533	1.04019
3658.48677	1.08644
3656.55820	1.13538
3654.62964	1.19012
3652.70107	1.23670
3650.77251	1.27804
3648.84395	1.33533
3646.91538	1.40413
3644.98682	1.45355
3643.05825	1.49217
3641.12969	1.53284
3639.20112	1.57769
3637.27256	1.62249
3635.34399	1.66644
3633.41543	1.71078
3631.48687	1.75190
3629.55830	1.79250
3627.62974	1.84546
3625.70117	1.89654
3623.77261	1.93174
3621.84404	1.96443
3619.91548	2.00109
3617.98691	2.04595
3616.05835	2.08984
3614.12979	2.12659
3612.20122	2.16618
3610.27266	2.20707
3608.34409	2.24779
3606.41553	2.28991
3604.48696	2.32877
3602.55840	2.36482
3600.62983	2.40434
3598.70127	2.44540
3596.77271	2.48339
3594.84414	2.52249
3592.91558	2.56524
3590.98701	2.60591
3589.05845	2.64302
3587.12988	2.68680
3585.20132	2.73383
3583.27275	2.77328
3581.34419	2.81136
3579.41562	2.85258
3577.48706	2.89551
3575.55850	2.93912
3573.62993	2.98341
3571.70137	3.02453
3569.77280	3.06227
3567.84424	3.10356
3565.91567	3.15714
3563.98711	3.21024
3562.05854	3.25160
3560.12998	3.29103
3558.20142	3.33395
3556.27285	3.37872
3554.34429	3.42247
3552.41572	3.46876
3550.48716	3.51806
3548.55859	3.56456
3546.63003	3.60876
3544.70146	3.65682
3542.77290	3.70705
3540.84434	3.75386
3538.91577	3.79822
3536.98721	3.84354
3535.05864	3.89186
3533.13008	3.93822
3531.20151	3.98142
3529.27295	4.02671
3527.34438	4.07811
3525.41582	4.12970
3523.48726	4.17506
3521.55869	4.22191
3519.63013	4.27266
3517.70156	4.32156
3515.77300	4.36920
3513.84443	4.41843
3511.91587	4.46585
3509.98730	4.50956
3508.05874	4.55411
3506.13018	4.60262
3504.20161	4.65139
3502.27305	4.70045
3500.34448	4.75347
3498.41592	4.80233
3496.48735	4.84439
3494.55879	4.88808
3492.63022	4.93607
3490.70166	4.98896
3488.77310	5.04572
3486.84453	5.09829
3484.91597	5.14392
3482.98740	5.19040
3481.05884	5.23878
3479.13027	5.28160
3477.20171	5.32409
3475.27314	5.37284
3473.34458	5.42316
3471.41602	5.46874
3469.48745	5.50955
3467.55889	5.55163
3465.63032	5.59477
3463.70176	5.64098
3461.77319	5.69524
3459.84463	5.75413
3457.91606	5.81465
3455.98750	5.87456
3454.05894	5.92015
3452.13037	5.95666
3450.20181	6.00035
3448.27324	6.04127
3446.34468	6.08172
3444.41611	6.13179
3442.48755	6.19633
3440.55898	6.26616
3438.63042	6.31472
3436.70186	6.35204
3434.77329	6.39238
3432.84473	6.42246
3430.91616	6.46002
3428.98760	6.52875
3427.05903	6.60255
3425.13047	6.65517
3423.20190	6.69356
3421.27334	6.74690
3419.34478	6.80758
3417.41621	6.84746
3415.48765	6.88357
3413.55908	6.93296
3411.63052	6.99635
3409.70195	7.06176
3407.77339	7.11953
3405.84482	7.16231
3403.91626	7.20137
3401.98770	7.22393
3400.05913	7.20607
3398.13057	7.20273
3396.20200	7.25616
3394.27344	7.32399
3392.34487	7.35852
3390.41631	7.37790
3388.48774	7.39397
3386.55918	7.41595
3384.63062	7.45929
3382.70205	7.51284
3380.77349	7.57587
3378.84492	7.66820
3376.91636	7.73282
3374.98779	7.69898
3373.05923	7.67388
3371.13066	7.73192
3369.20210	7.77939
3367.27354	7.75972
3365.34497	7.78001
3363.41641	7.84123
3361.48784	7.85559
3359.55928	7.85833
3357.63071	7.87227
3355.70215	7.89421
3353.77358	7.91528
3351.84502	7.92988
3349.91646	7.94600
3347.98789	7.98536
3346.05933	8.02154
3344.13076	8.02049
3342.20220	8.01399
3340.27363	8.01295
3338.34507	8.03171
3336.41650	8.06014
3334.48794	8.08405
3332.55937	8.07054
3330.63081	8.04630
3328.70225	8.08532
3326.77368	8.14457
3324.84512	8.13893
3322.91655	8.10510
3320.98799	8.15259
3319.05942	8.24330
3317.13086	8.25575
3315.20229	8.16690
3313.27373	8.08915
3311.34517	8.11214
3309.41660	8.14027
3307.48804	8.05922
3305.55947	7.97951
3303.63091	8.02285
3301.70234	8.11872
3299.77378	8.15582
3297.84521	8.15906
3295.91665	8.21548
3293.98809	8.26392
3292.05952	8.20861
3290.13096	8.12470
3288.20239	8.11597
3286.27383	8.17025
3284.34526	8.20957
3282.41670	8.21927
3280.48813	8.20617
3278.55957	8.22167
3276.63101	8.25907
3274.70244	8.27405
3272.77388	8.30975
3270.84531	8.32701
3268.91675	8.26359
3266.98818	8.19416
3265.05962	8.19997
3263.13105	8.24069
3261.20249	8.28570
3259.27393	8.31333
3257.34536	8.24597
3255.41680	8.14151
3253.48823	8.13090
3251.55967	8.19469
3249.63110	8.24478
3247.70254	8.27883
3245.77397	8.28710
3243.84541	8.23199
3241.91685	8.12856
3239.98828	8.08286
3238.05972	8.10946
3236.13115	8.12016
3234.20259	8.14013
3232.27402	8.18232
3230.34546	8.18762
3228.41689	8.15271
3226.48833	8.13830
3224.55977	8.15731
3222.63120	8.10997
3220.70264	7.99916
3218.77407	7.93750
3216.84551	7.94773
3214.91694	7.98399
3212.98838	7.97736
3211.05981	7.90671
3209.13125	7.82982
3207.20269	7.79442
3205.27412	7.78517
3203.34556	7.72730
3201.41699	7.62870
3199.48843	7.56524
3197.55986	7.54470
3195.63130	7.56167
3193.70273	7.59175
3191.77417	7.56352
3189.84561	7.50360
3187.91704	7.46511
3185.98848	7.40310
3184.05991	7.31177
3182.13135	7.24886
3180.20278	7.22506
3178.27422	7.18736
3176.34565	7.11817
3174.41709	7.06136
3172.48853	7.01029
3170.55996	6.93682
3168.63140	6.86557
3166.70283	6.81320
3164.77427	6.76129
3162.84570	6.70964
3160.91714	6.66236
3158.98857	6.59090
3157.06001	6.49347
3155.13145	6.41309
3153.20288	6.35589
3151.27432	6.29883
3149.34575	6.24115
3147.41719	6.17511
3145.48862	6.09096
3143.56006	6.00758
3141.63149	5.93562
3139.70293	5.86822
3137.77437	5.80365
3135.84580	5.74171
3133.91724	5.67975
3131.98867	5.61138
3130.06011	5.53643
3128.13154	5.46173
3126.20298	5.39281
3124.27441	5.32700
3122.34585	5.25637
3120.41729	5.18694
3118.48872	5.12089
3116.56016	5.05126
3114.63159	4.97836
3112.70303	4.90428
3110.77446	4.83369
3108.84590	4.77073
3106.91733	4.71114
3104.98877	4.64815
3103.06021	4.58278
3101.13164	4.51915
3099.20308	4.45580
3097.27451	4.39002
3095.34595	4.32511
3093.41738	4.26389
3091.48882	4.20195
3089.56025	4.13704
3087.63169	4.07222
3085.70312	4.00914
3083.77456	3.94825
3081.84600	3.88973
3079.91743	3.83180
3077.98887	3.77372
3076.06030	3.71707
3074.13174	3.66144
3072.20317	3.60569
3070.27461	3.55107
3068.34604	3.49719
3066.41748	3.44247
3064.48892	3.38846
3062.56035	3.33531
3060.63179	3.28174
3058.70322	3.22853
3056.77466	3.17616
3054.84609	3.12467
3052.91753	3.07443
3050.98896	3.02481
3049.06040	2.97499
3047.13184	2.92610
3045.20327	2.87806
3043.27471	2.82971
3041.34614	2.78223
3039.41758	2.73596
3037.48901	2.68978
3035.56045	2.64349
3033.63188	2.59820
3031.70332	2.55484
3029.77476	2.51241
3027.84619	2.46978
3025.91763	2.42697
3023.98906	2.38417
3022.06050	2.34236
3020.13193	2.30273
3018.20337	2.26458
3016.27480	2.22588
3014.34624	2.18628
3012.41768	2.14735
3010.48911	2.10968
3008.56055	2.07280
3006.63198	2.03695
3004.70342	2.00234
3002.77485	1.96858
3000.84629	1.93543
2998.91772	1.90265
2996.98916	1.87047
2995.06060	1.83939
2993.13203	1.80923
2991.20347	1.77981
2989.27490	1.75104
2987.34634	1.72271
2985.41777	1.69475
2983.48921	1.66755
2981.56064	1.64166
2979.63208	1.61641
2977.70352	1.59104
2975.77495	1.56595
2973.84639	1.54160
2971.91782	1.51807
2969.98926	1.49518
2968.06069	1.47250
2966.13213	1.44996
2964.20356	1.42782
2962.27500	1.40565
2960.34644	1.38316
2958.41787	1.36059
2956.48931	1.33738
2954.56074	1.31361
2952.63218	1.29039
2950.70361	1.26768
2948.77505	1.24524
2946.84648	1.22353
2944.91792	1.20281
2942.98936	1.18312
2941.06079	1.16409
2939.13223	1.14519
2937.20366	1.12593
2935.27510	1.10627
2933.34653	1.08711
2931.41797	1.06859
2929.48940	1.05000
2927.56084	1.03107
2925.63228	1.01204
2923.70371	0.99346
2921.77515	0.97531
2919.84658	0.95747
2917.91802	0.93997
2915.98945	0.92298
2914.06089	0.90684
2912.13232	0.89117
2910.20376	0.87541
2908.27520	0.85962
2906.34663	0.84425
2904.41807	0.82942
2902.48950	0.81507
2900.56094	0.80127
2898.63237	0.78793
2896.70381	0.77466
2894.77524	0.76119
2892.84668	0.74799
2890.91812	0.73575
2888.98955	0.72448
2887.06099	0.71370
2885.13242	0.70345
2883.20386	0.69392
2881.27529	0.68440
2879.34673	0.67463
2877.41816	0.66502
2875.48960	0.65547
2873.56104	0.64562
2871.63247	0.63551
2869.70391	0.62492
2867.77534	0.61344
2865.84678	0.60138
2863.91821	0.58940
2861.98965	0.57785
2860.06108	0.56680
2858.13252	0.55638
2856.20396	0.54671
2854.27539	0.53754
2852.34683	0.52836
2850.41826	0.51905
2848.48970	0.50998
2846.56113	0.50145
2844.63257	0.49356
2842.70400	0.48615
2840.77544	0.47900
2838.84687	0.47224
2836.91831	0.46599
2834.98975	0.45989
2833.06118	0.45366
2831.13262	0.44746
2829.20405	0.44141
2827.27549	0.43547
2825.34692	0.42948
2823.41836	0.42351
2821.48979	0.41772
2819.56123	0.41176
2817.63267	0.40559
2815.70410	0.39967
2813.77554	0.39386
2811.84697	0.38808
2809.91841	0.38268
2807.98984	0.37741
2806.06128	0.37197
2804.13271	0.36672
2802.20415	0.36169
2800.27559	0.35668
2798.34702	0.35181
2796.41846	0.34719
2794.48989	0.34266
2792.56133	0.33798
2790.63276	0.33305
2788.70420	0.32824
2786.77563	0.32376
2784.84707	0.31947
2782.91851	0.31529
2780.98994	0.31108
2779.06138	0.30682
2777.13281	0.30277
2775.20425	0.29898
2773.27568	0.29540
2771.34712	0.29188
2769.41855	0.28816
2767.48999	0.28420
2765.56143	0.28026
2763.63286	0.27668
2761.70430	0.27340
2759.77573	0.27005
2757.84717	0.26671
2755.91860	0.26360
2753.99004	0.26061
2752.06147	0.25764
2750.13291	0.25464
2748.20435	0.25163
2746.27578	0.24870
2744.34722	0.24589
2742.41865	0.24308
2740.49009	0.24024
2738.56152	0.23755
2736.63296	0.23512
2734.70439	0.23275
2732.77583	0.23026
2730.84727	0.22766
2728.91870	0.22515
2726.99014	0.22290
2725.06157	0.22077
2723.13301	0.21845
2721.20444	0.21616
2719.27588	0.21416
2717.34731	0.21226
2715.41875	0.21031
2713.49019	0.20831
2711.56162	0.20629
2709.63306	0.20440
2707.70449	0.20275
2705.77593	0.20108
2703.84736	0.19915
2701.91880	0.19733
2699.99023	0.19583
2698.06167	0.19441
2696.13311	0.19299
2694.20454	0.19147
2692.27598	0.18999
2690.34741	0.18873
2688.41885	0.18751
2686.49028	0.18621
2684.56172	0.18489
2682.63315	0.18361
2680.70459	0.18244
2678.77603	0.18145
2676.84746	0.18043
2674.91890	0.17919
2672.99033	0.17790
2671.06177	0.17670
2669.13320	0.17555
2667.20464	0.17449
2665.27607	0.17348
2663.34751	0.17249
2661.41895	0.17157
2659.49038	0.17073
2657.56182	0.16979
2655.63325	0.16885
2653.70469	0.16820
2651.77612	0.16768
2649.84756	0.16688
2647.91899	0.16598
2645.99043	0.16521
2644.06187	0.16447
2642.13330	0.16378
2640.20474	0.16318
2638.27617	0.16257
2636.34761	0.16193
2634.41904	0.16135
2632.49048	0.16085
2630.56191	0.16045
2628.63335	0.16014
2626.70479	0.15987
2624.77622	0.15946
2622.84766	0.15885
2620.91909	0.15834
2618.99053	0.15812
2617.06196	0.15785
2615.13340	0.15750
2613.20483	0.15726
2611.27627	0.15703
2609.34771	0.15669
2607.41914	0.15641
2605.49058	0.15631
2603.56201	0.15633
2601.63345	0.15633
2599.70488	0.15630
2597.77632	0.15631
2595.84775	0.15624
2593.91919	0.15610
2591.99062	0.15604
2590.06206	0.15613
2588.13350	0.15628
2586.20493	0.15637
2584.27637	0.15647
2582.34780	0.15657
2580.41924	0.15664
2578.49067	0.15676
2576.56211	0.15687
2574.63354	0.15696
2572.70498	0.15725
2570.77642	0.15769
2568.84785	0.15805
2566.91929	0.15827
2564.99072	0.15853
2563.06216	0.15900
2561.13359	0.15960
2559.20503	0.16012
2557.27646	0.16037
2555.34790	0.16047
2553.41934	0.16077
2551.49077	0.16127
2549.56221	0.16171
2547.63364	0.16211
2545.70508	0.16262
2543.77651	0.16311
2541.84795	0.16349
2539.91938	0.16396
2537.99082	0.16466
2536.06226	0.16539
2534.13369	0.16611
2532.20513	0.16679
2530.27656	0.16738
2528.34800	0.16789
2526.41943	0.16842
2524.49087	0.16898
2522.56230	0.16962
2520.63374	0.17044
2518.70518	0.17130
2516.77661	0.17204
2514.84805	0.17269
2512.91948	0.17334
2510.99092	0.17401
2509.06235	0.17473
2507.13379	0.17548
2505.20522	0.17622
2503.27666	0.17697
2501.34810	0.17775
2499.41953	0.17855
2497.49097	0.17924
2495.56240	0.17982
2493.63384	0.18047
2491.70527	0.18124
2489.77671	0.18213
2487.84814	0.18306
2485.91958	0.18388
2483.99102	0.18461
2482.06245	0.18533
2480.13389	0.18606
2478.20532	0.18687
2476.27676	0.18776
2474.34819	0.18864
2472.41963	0.18939
2470.49106	0.19005
2468.56250	0.19079
2466.63394	0.19169
2464.70537	0.19265
2462.77681	0.19355
2460.84824	0.19439
2458.91968	0.19526
2456.99111	0.19613
2455.06255	0.19697
2453.13398	0.19780
2451.20542	0.19854
2449.27686	0.19930
2447.34829	0.20026
2445.41973	0.20127
2443.49116	0.20230
2441.56260	0.20341
2439.63403	0.20451
2437.70547	0.20547
2435.77690	0.20627
2433.84834	0.20709
2431.91978	0.20808
2429.99121	0.20920
2428.06265	0.21025
2426.13408	0.21121
2424.20552	0.21217
2422.27695	0.21313
2420.34839	0.21417
2418.41982	0.21526
2416.49126	0.21634
2414.56270	0.21750
2412.63413	0.21868
2410.70557	0.21976
2408.77700	0.22084
2406.84844	0.22191
2404.91987	0.22297
2402.99131	0.22408
2401.06274	0.22523
2399.13418	0.22632
2397.20562	0.22737
2395.27705	0.22854
2393.34849	0.22985
2391.41992	0.23112
2389.49136	0.23239
2387.56279	0.23393
2385.63423	0.23595
2383.70566	0.23861
2381.77710	0.24208
2379.84854	0.24629
2377.91997	0.25091
2375.99141	0.25592
2374.06284	0.26185
2372.13428	0.26882
2370.20571	0.27627
2368.27715	0.28370
2366.34858	0.29080
2364.42002	0.29732
2362.49146	0.30397
2360.56289	0.30896
2358.63433	0.30894
2356.70576	0.30579
2354.77720	0.30236
2352.84863	0.29799
2350.92007	0.29242
2348.99150	0.28873
2347.06294	0.28914
2345.13437	0.29408
2343.20581	0.30143
2341.27725	0.30647
2339.34868	0.30846
2337.42012	0.30944
2335.49155	0.30997
2333.56299	0.31009
2331.63442	0.31064
2329.70586	0.31148
2327.77729	0.31171
2325.84873	0.31109
2323.92017	0.31004
2321.99160	0.30900
2320.06304	0.30817
2318.13447	0.30730
2316.20591	0.30634
2314.27734	0.30598
2312.34878	0.30650
2310.42021	0.30717
2308.49165	0.30735
2306.56309	0.30726
2304.63452	0.30731
2302.70596	0.30784
2300.77739	0.30892
2298.84883	0.31022
2296.92026	0.31142
2294.99170	0.31238
2293.06313	0.31328
2291.13457	0.31438
2289.20601	0.31569
2287.27744	0.31709
2285.34888	0.31843
2283.42031	0.31968
2281.49175	0.32118
2279.56318	0.32319
2277.63462	0.32551
2275.70605	0.32786
2273.77749	0.33003
2271.84893	0.33195
2269.92036	0.33380
2267.99180	0.33573
2266.06323	0.33772
2264.13467	0.33969
2262.20610	0.34169
2260.27754	0.34375
2258.34897	0.34578
2256.42041	0.34767
2254.49185	0.34949
2252.56328	0.35141
2250.63472	0.35346
2248.70615	0.35557
2246.77759	0.35775
2244.84902	0.35996
2242.92046	0.36202
2240.99189	0.36400
2239.06333	0.36611
2237.13477	0.36835
2235.20620	0.37056
2233.27764	0.37271
2231.34907	0.37490
2229.42051	0.37707
2227.49194	0.37907
2225.56338	0.38102
2223.63481	0.38318
2221.70625	0.38546
2219.77769	0.38769
2217.84912	0.38986
2215.92056	0.39196
2213.99199	0.39401
2212.06343	0.39613
2210.13486	0.39833
2208.20630	0.40047
2206.27773	0.40247
2204.34917	0.40433
2202.42061	0.40628
2200.49204	0.40844
2198.56348	0.41060
2196.63491	0.41260
2194.70635	0.41452
2192.77778	0.41639
2190.84922	0.41814
2188.92065	0.41978
2186.99209	0.42156
2185.06353	0.42343
2183.13496	0.42519
2181.20640	0.42689
2179.27783	0.42861
2177.34927	0.43026
2175.42070	0.43185
2173.49214	0.43343
2171.56357	0.43482
2169.63501	0.43602
2167.70645	0.43724
2165.77788	0.43847
2163.84932	0.43958
2161.92075	0.44070
2159.99219	0.44188
2158.06362	0.44294
2156.13506	0.44386
2154.20649	0.44478
2152.27793	0.44570
2150.34937	0.44651
2148.42080	0.44720
2146.49224	0.44780
2144.56367	0.44842
2142.63511	0.44897
2140.70654	0.44931
2138.77798	0.44955
2136.84941	0.44976
2134.92085	0.44991
2132.99229	0.44992
2131.06372	0.44982
2129.13516	0.44969
2127.20659	0.44954
2125.27803	0.44933
2123.34946	0.44900
2121.42090	0.44863
2119.49233	0.44818
2117.56377	0.44763
2115.63521	0.44704
2113.70664	0.44630
2111.77808	0.44533
2109.84951	0.44429
2107.92095	0.44337
2105.99238	0.44239
2104.06382	0.44124
2102.13525	0.44005
2100.20669	0.43881
2098.27812	0.43755
2096.34956	0.43624
2094.42100	0.43474
2092.49243	0.43322
2090.56387	0.43178
2088.63530	0.43026
2086.70674	0.42854
2084.77817	0.42667
2082.84961	0.42480
2080.92104	0.42285
2078.99248	0.42078
2077.06392	0.41875
2075.13535	0.41672
2073.20679	0.41463
2071.27822	0.41254
2069.34966	0.41042
2067.42109	0.40816
2065.49253	0.40588
2063.56396	0.40365
2061.63540	0.40139
2059.70684	0.39906
2057.77827	0.39665
2055.84971	0.39422
2053.92114	0.39178
2051.99258	0.38930
2050.06401	0.38668
2048.13545	0.38393
2046.20688	0.38123
2044.27832	0.37882
2042.34976	0.37647
2040.42119	0.37385
2038.49263	0.37105
2036.56406	0.36834
2034.63550	0.36572
2032.70693	0.36306
2030.77837	0.36042
2028.84980	0.35777
2026.92124	0.35503
2024.99268	0.35222
2023.06411	0.34947
2021.13555	0.34682
2019.20698	0.34414
2017.27842	0.34139
2015.34985	0.33862
2013.42129	0.33588
2011.49272	0.33317
2009.56416	0.33056
2007.63560	0.32799
2005.70703	0.32540
2003.77847	0.32281
2001.84990	0.32021
1999.92134	0.31760
1997.99277	0.31499
1996.06421	0.31245
1994.13564	0.31005
1992.20708	0.30772
1990.27852	0.30525
1988.34995	0.30267
1986.42139	0.30010
1984.49282	0.29770
1982.56426	0.29545
1980.63569	0.29317
1978.70713	0.29075
1976.77856	0.28835
1974.85000	0.28611
1972.92144	0.28400
1970.99287	0.28205
1969.06431	0.28026
1967.13574	0.27840
1965.20718	0.27630
1963.27861	0.27416
1961.35005	0.27216
1959.42148	0.27030
1957.49292	0.26855
1955.56436	0.26682
1953.63579	0.26504
1951.70723	0.26328
1949.77866	0.26167
1947.85010	0.26022
1945.92153	0.25881
1943.99297	0.25740
1942.06440	0.25596
1940.13584	0.25437
1938.20728	0.25273
1936.27871	0.25125
1934.35015	0.24999
1932.42158	0.24880
1930.49302	0.24751
1928.56445	0.24630
1926.63589	0.24525
1924.70732	0.24431
1922.77876	0.24339
1920.85020	0.24241
1918.92163	0.24159
1916.99307	0.24090
1915.06450	0.24003
1913.13594	0.23911
1911.20737	0.23839
1909.27881	0.23768
1907.35024	0.23690
1905.42168	0.23611
1903.49312	0.23541
1901.56455	0.23478
1899.63599	0.23424
1897.70742	0.23385
1895.77886	0.23358
1893.85029	0.23336
1891.92173	0.23305
1889.99316	0.23281
1888.06460	0.23251
1886.13604	0.23211
1884.20747	0.23177
1882.27891	0.23149
1880.35034	0.23130
1878.42178	0.23121
1876.49321	0.23121
1874.56465	0.23123
1872.63608	0.23136
1870.70752	0.23176
1868.77896	0.23245
1866.85039	0.23271
1864.92183	0.23239
1862.99326	0.23221
1861.06470	0.23231
1859.13613	0.23257
1857.20757	0.23290
1855.27900	0.23335
1853.35044	0.23381
1851.42187	0.23434
1849.49331	0.23490
1847.56475	0.23560
1845.63618	0.23657
1843.70762	0.23770
1841.77905	0.23836
1839.85049	0.23857
1837.92192	0.23911
1835.99336	0.23992
1834.06479	0.24087
1832.13623	0.24199
1830.20767	0.24353
1828.27910	0.24509
1826.35054	0.24620
1824.42197	0.24740
1822.49341	0.24854
1820.56484	0.24960
1818.63628	0.25081
1816.70771	0.25240
1814.77915	0.25412
1812.85059	0.25591
1810.92202	0.25793
1808.99346	0.25995
1807.06489	0.26177
1805.13633	0.26355
1803.20776	0.26572
1801.27920	0.26833
1799.35063	0.27120
1797.42207	0.27369
1795.49351	0.27607
1793.56494	0.27891
1791.63638	0.28239
1789.70781	0.28542
1787.77925	0.28772
1785.85068	0.29074
1783.92212	0.29440
1781.99355	0.29831
1780.06499	0.30240
1778.13643	0.30658
1776.20786	0.31056
1774.27930	0.31497
1772.35073	0.32096
1770.42217	0.32720
1768.49360	0.33226
1766.56504	0.33716
1764.63647	0.34229
1762.70791	0.34794
1760.77935	0.35514
1758.85078	0.36210
1756.92222	0.36932
1754.99365	0.37710
1753.06509	0.38402
1751.13652	0.39221
1749.20796	0.40250
1747.27939	0.41256
1745.35083	0.42141
1743.42227	0.43084
1741.49370	0.44131
1739.56514	0.45369
1737.63657	0.46592
1735.70801	0.47647
1733.77944	0.49257
1731.85088	0.51205
1729.92231	0.52733
1727.99375	0.54264
1726.06519	0.55919
1724.13662	0.57737
1722.20806	0.59699
1720.27949	0.61501
1718.35093	0.63616
1716.42236	0.66771
1714.49380	0.69796
1712.56523	0.72248
1710.63667	0.74621
1708.70811	0.77179
1706.77954	0.80096
1704.85098	0.83586
1702.92241	0.86718
1700.99385	0.89855
1699.06528	0.94538
1697.13672	0.98874
1695.20815	1.03382
1693.27959	1.07815
1691.35103	1.11452
1689.42246	1.15694
1687.49390	1.20186
1685.56533	1.24499
1683.63677	1.31113
1681.70820	1.38029
1679.77964	1.42537
1677.85107	1.46847
1675.92251	1.51772
1673.99395	1.57855
1672.06538	1.63374
1670.13682	1.68906
1668.20825	1.76119
1666.27969	1.82052
1664.35112	1.87138
1662.42256	1.93604
1660.49399	2.00985
1658.56543	2.06866
1656.63687	2.11735
1654.70830	2.16211
1652.77974	2.22373
1650.85117	2.27557
1648.92261	2.29422
1646.99404	2.32048
1645.06548	2.34825
1643.13691	2.36397
1641.20835	2.36963
1639.27979	2.37406
1637.35122	2.37416
1635.42266	2.36612
1633.49409	2.35566
1631.56553	2.34251
1629.63696	2.32431
1627.70840	2.29197
1625.77983	2.25341
1623.85127	2.20682
1621.92271	2.15088
1619.99414	2.10138
1618.06558	2.05383
1616.13701	1.98675
1614.20845	1.91902
1612.27988	1.86733
1610.35132	1.81296
1608.42275	1.75404
1606.49419	1.69615
1604.56562	1.64281
1602.63706	1.59207
1600.70850	1.54376
1598.77993	1.49999
1596.85137	1.45897
1594.92280	1.41877
1592.99424	1.37983
1591.06567	1.34467
1589.13711	1.31260
1587.20854	1.28360
1585.27998	1.25736
1583.35142	1.23314
1581.42285	1.21149
1579.49429	1.19358
1577.56572	1.17805
1575.63716	1.15982
1573.70859	1.14409
1571.78003	1.13442
1569.85146	1.12595
1567.92290	1.11770
1565.99434	1.11222
1564.06577	1.10928
1562.13721	1.10809
1560.20864	1.11001
1558.28008	1.11908
1556.35151	1.12725
1554.42295	1.13138
1552.49438	1.13608
1550.56582	1.13912
1548.63726	1.13874
1546.70869	1.13465
1544.78013	1.12650
1542.85156	1.11410
1540.92300	1.09450
1538.99443	1.06271
1537.06587	1.03865
1535.13730	1.02198
1533.20874	0.99956
1531.28018	0.97528
1529.35161	0.95771
1527.42305	0.94126
1525.49448	0.92394
1523.56592	0.90934
1521.63735	0.89634
1519.70879	0.88354
1517.78022	0.87231
1515.85166	0.85894
1513.92310	0.84486
1511.99453	0.83256
1510.06597	0.82120
1508.13740	0.80980
1506.20884	0.79238
1504.28027	0.77730
1502.35171	0.76885
1500.42314	0.76158
1498.49458	0.75405
1496.56602	0.74543
1494.63745	0.73669
1492.70889	0.72978
1490.78032	0.72376
1488.85176	0.71692
1486.92319	0.71048
1484.99463	0.70547
1483.06606	0.70157
1481.13750	0.69852
1479.20894	0.69644
1477.28037	0.69552
1475.35181	0.69567
1473.42324	0.69670
1471.49468	0.69725
1469.56611	0.69617
1467.63755	0.69438
1465.70898	0.69286
1463.78042	0.69193
1461.85186	0.69165
1459.92329	0.69225
1457.99473	0.69389
1456.06616	0.69516
1454.13760	0.69364
1452.20903	0.69087
1450.28047	0.68798
1448.35190	0.68545
1446.42334	0.68296
1444.49478	0.68037
1442.56621	0.67776
1440.63765	0.67491
1438.70908	0.67199
1436.78052	0.66845
1434.85195	0.66411
1432.92339	0.66064
1430.99482	0.65854
1429.06626	0.65760
1427.13770	0.65756
1425.20913	0.65824
1423.28057	0.65946
1421.35200	0.66059
1419.42344	0.66154
1417.49487	0.66200
1415.56631	0.66133
1413.63774	0.66056
1411.70918	0.66074
1409.78062	0.66219
1407.85205	0.66425
1405.92349	0.66648
1403.99492	0.66851
1402.06636	0.66950
1400.13779	0.66928
1398.20923	0.66793
1396.28066	0.66544
1394.35210	0.66152
1392.42354	0.65659
1390.49497	0.65184
1388.56641	0.64710
1386.63784	0.64146
1384.70928	0.63546
1382.78071	0.63000
1380.85215	0.62490
1378.92358	0.62041
1376.99502	0.61711
1375.06646	0.61507
1373.13789	0.61377
1371.20933	0.61289
1369.28076	0.61219
1367.35220	0.61106
1365.42363	0.60942
1363.49507	0.60767
1361.56650	0.60587
1359.63794	0.60410
1357.70937	0.60257
1355.78081	0.60124
1353.85225	0.60013
1351.92368	0.59926
1349.99512	0.59845
1348.06655	0.59760
1346.13799	0.59666
1344.20942	0.59580
1342.28086	0.59513
1340.35229	0.59457
1338.42373	0.59396
1336.49517	0.59337
1334.56660	0.59294
1332.63804	0.59281
1330.70947	0.59311
1328.78091	0.59374
1326.85234	0.59461
1324.92378	0.59570
1322.99521	0.59694
1321.06665	0.59806
1319.13809	0.59903
1317.20952	0.59978
1315.28096	0.60011
1313.35239	0.59994
1311.42383	0.59923
1309.49526	0.59841
1307.56670	0.59797
1305.63813	0.59773
1303.70957	0.59721
1301.78101	0.59648
1299.85244	0.59568
1297.92388	0.59462
1295.99531	0.59331
1294.06675	0.59207
1292.13818	0.59090
1290.20962	0.58956
1288.28105	0.58804
1286.35249	0.58656
1284.42393	0.58529
1282.49536	0.58398
1280.56680	0.58242
1278.63823	0.58069
1276.70967	0.57904
1274.78110	0.57773
1272.85254	0.57699
1270.92397	0.57661
1268.99541	0.57593
1267.06685	0.57488
1265.13828	0.57384
1263.20972	0.57295
1261.28115	0.57204
1259.35259	0.57110
1257.42402	0.57029
1255.49546	0.56978
1253.56689	0.56951
1251.63833	0.56939
1249.70977	0.56945
1247.78120	0.56943
1245.85264	0.56919
1243.92407	0.56868
1241.99551	0.56763
1240.06694	0.56611
1238.13838	0.56434
1236.20981	0.56199
1234.28125	0.55915
1232.35269	0.55643
1230.42412	0.55392
1228.49556	0.55149
1226.56699	0.54916
1224.63843	0.54698
1222.70986	0.54501
1220.78130	0.54326
1218.85273	0.54175
1216.92417	0.54031
1214.99561	0.53883
1213.06704	0.53757
1211.13848	0.53684
1209.20991	0.53651
1207.28135	0.53599
1205.35278	0.53501
1203.42422	0.53384
1201.49565	0.53277
1199.56709	0.53182
1197.63853	0.53088
1195.70996	0.52998
1193.78140	0.52917
1191.85283	0.52852
1189.92427	0.52809
1187.99570	0.52780
1186.06714	0.52759
1184.13857	0.52759
1182.21001	0.52803
1180.28145	0.52907
1178.35288	0.53063
1176.42432	0.53236
1174.49575	0.53384
1172.56719	0.53475
1170.63862	0.53503
1168.71006	0.53500
1166.78149	0.53511
1164.85293	0.53539
1162.92437	0.53557
1160.99580	0.53557
1159.06724	0.53550
1157.13867	0.53523
1155.21011	0.53443
1153.28154	0.53306
1151.35298	0.53133
1149.42441	0.52919
1147.49585	0.52658
1145.56729	0.52382
1143.63872	0.52124
1141.71016	0.51901
1139.78159	0.51726
1137.85303	0.51621
1135.92446	0.51576
1133.99590	0.51570
1132.06733	0.51612
1130.13877	0.51665
1128.21021	0.51676
1126.28164	0.51654
1124.35308	0.51627
1122.42451	0.51607
1120.49595	0.51616
1118.56738	0.51669
1116.63882	0.51741
1114.71025	0.51797
1112.78169	0.51845
1110.85312	0.51925
1108.92456	0.52039
1106.99600	0.52154
1105.06743	0.52255
1103.13887	0.52353
1101.21030	0.52461
1099.28174	0.52586
1097.35317	0.52749
1095.42461	0.52971
1093.49604	0.53282
1091.56748	0.53732
1089.63892	0.54345
1087.71035	0.55103
1085.78179	0.55968
1083.85322	0.56855
1081.92466	0.57633
1079.99609	0.58170
1078.06753	0.58394
1076.13896	0.58325
1074.21040	0.57992
1072.28184	0.57438
1070.35327	0.56754
1068.42471	0.56030
1066.49614	0.55315
1064.56758	0.54644
1062.63901	0.54070
1060.71045	0.53619
1058.78188	0.53238
1056.85332	0.52877
1054.92476	0.52527
1052.99619	0.52211
1051.06763	0.51964
1049.13906	0.51784
1047.21050	0.51656
1045.28193	0.51584
1043.35337	0.51570
1041.42480	0.51583
1039.49624	0.51590
1037.56768	0.51593
1035.63911	0.51584
1033.71055	0.51519
1031.78198	0.51379
1029.85342	0.51197
1027.92485	0.51008
1025.99629	0.50819
1024.06772	0.50657
1022.13916	0.50546
1020.21060	0.50479
1018.28203	0.50433
1016.35347	0.50389
1014.42490	0.50336
1012.49634	0.50285
1010.56777	0.50250
1008.63921	0.50229
1006.71064	0.50222
1004.78208	0.50269
1002.85352	0.50413
1000.92495	0.50657
998.99639	0.50986
997.06782	0.51389
995.13926	0.51842
993.21069	0.52280
991.28213	0.52623
989.35356	0.52824
987.42500	0.52874
985.49644	0.52818
983.56787	0.52746
981.63931	0.52726
979.71074	0.52773
977.78218	0.52882
975.85361	0.53056
973.92505	0.53273
971.99648	0.53513
970.06792	0.53811
968.13936	0.54199
966.21079	0.54632
964.28223	0.55058
962.35366	0.55487
960.42510	0.55956
958.49653	0.56481
956.56797	0.57028
954.63940	0.57565
952.71084	0.58106
950.78228	0.58694
948.85371	0.59350
946.92515	0.60031
944.99658	0.60688
943.06802	0.61300
941.13945	0.61879
939.21089	0.62460
937.28232	0.63032
935.35376	0.63587
933.42520	0.64121
931.49663	0.64621
929.56807	0.65175
927.63950	0.65830
925.71094	0.66469
923.78237	0.67041
921.85381	0.67606
919.92524	0.68211
917.99668	0.68869
916.06812	0.69553
914.13955	0.70288
912.21099	0.71101
910.28242	0.71928
908.35386	0.72743
906.42529	0.73566
904.49673	0.74383
902.56816	0.75225
900.63960	0.76118
898.71104	0.77007
896.78247	0.77943
894.85391	0.79011
892.92534	0.80123
890.99678	0.81150
889.06821	0.82185
887.13965	0.83343
885.21108	0.84473
883.28252	0.85476
881.35396	0.86419
879.42539	0.87423
877.49683	0.88608
875.56826	0.89896
873.63970	0.91098
871.71113	0.92176
869.78257	0.93194
867.85400	0.94207
865.92544	0.95303
863.99687	0.96500
862.06831	0.97691
860.13975	0.98781
858.21118	0.99834
856.28262	1.00975
854.35405	1.02196
852.42549	1.03405
850.49692	1.04750
848.56836	1.06188
846.63979	1.07231
844.71123	1.07970
842.78267	1.08950
840.85410	1.10283
838.92554	1.11702
836.99697	1.12961
835.06841	1.13918
833.13984	1.14662
831.21128	1.15547
829.28271	1.16699
827.35415	1.18139
825.42559	1.19757
823.49702	1.21369
821.56846	1.23258
819.63989	1.25505
817.71133	1.27186
815.78276	1.27576
813.85420	1.27405
811.92563	1.27813
809.99707	1.29597
808.06851	1.32791
806.13994	1.35853
804.21138	1.36518
802.28281	1.35530
800.35425	1.35371
798.42568	1.35940
796.49712	1.36618
794.56855	1.38366
792.63999	1.39961
790.71143	1.39018
788.78286	1.38721
786.85430	1.41938
784.92573	1.48651
782.99717	1.58201
781.06860	1.63650
779.14004	1.62063
777.21147	1.60892
775.28291	1.54999
773.35435	1.45336
771.42578	1.45391
769.49722	1.53750
767.56865	1.46826
765.64009	1.32975
763.71152	1.32519
761.78296	1.41367
759.85439	1.43334
757.92583	1.40634
755.99727	1.38015
754.06870	1.35182
752.14014	1.32505
750.21157	1.26166
748.28301	1.21879
746.35444	1.25194
744.42588	1.29802
742.49731	1.34718
740.56875	1.39860
738.64019	1.28950
736.71162	1.22085
734.78306	1.24242
732.85449	0.96389
730.92593	0.65310
728.99736	0.51541
727.06880	0.45000
725.14023	0.37939
723.21167	0.41453
721.28311	0.49465
719.35454	0.35407
717.42598	0.13397
715.49741	0.08600
713.56885	0.23939
711.64028	0.30612
709.71172	0.19369
707.78315	0.17133
705.85459	0.27429
703.92603	0.46570
701.99746	0.81673
700.06890	0.82665
698.14033	0.55008
696.21177	0.53655
694.28320	0.55790
692.35464	0.59795
690.42607	0.78156
688.49751	0.77994
686.56895	0.57214
684.64038	0.55199
682.71182	0.55238
680.78325	0.44613
678.85469	0.32121
676.92612	0.27523
674.99756	0.36580
673.06899	0.73722
671.14043	4.02684
669.21187	0.92681
667.28330	0.48974
665.35474	0.45366
663.42617	0.59775
661.49761	0.60043
659.56904	0.40926
657.64048	0.30226
655.71191	0.27118
653.78335	0.34388
651.85479	0.47784
649.92622	0.50707
647.99766	0.49888
646.06909	0.52877
644.14053	0.57063
642.21196	0.63915
640.28340	0.56811
638.35483	0.41001
636.42627	0.33730
634.49771	0.28477
632.56914	0.23737
630.64058	0.28911
628.71201	0.45416
626.78345	0.49691
624.85488	0.39245
622.92632	0.34236
620.99775	0.34564
619.06919	0.37525
617.14062	0.38148
615.21206	0.34697
613.28350	0.33070
611.35493	0.37952
609.42637	0.47350
607.49780	0.55320
605.56924	0.50060
603.64067	0.39076
601.71211	0.36065
599.78354	0.52661
597.85498	3.58713
595.92642	3.57556
593.99785	0.48482
592.06929	0.27954
590.14072	0.26766
588.21216	0.34109
586.28359	0.46483
584.35503	0.59451
582.42646	0.69760
580.49790	0.65825
578.56934	0.61814
576.64077	0.65136
574.71221	0.59680
572.78364	0.50610
570.85508	0.41076
568.92651	0.31558
566.99795	0.30626
565.06938	0.32699
563.14082	0.31506
561.21226	0.33440
559.28369	0.41625
557.35513	0.54849
555.42656	0.61991
553.49800	0.50008
551.56943	0.37245
549.64087	0.29847
547.71230	0.25256
545.78374	0.26364
543.85518	0.36772
541.92661	0.51887
539.99805	0.58224
538.06948	0.49213
536.14092	0.35811
534.21235	0.24109
532.28379	0.18086
530.35522	0.21060
528.42666	0.31301
526.49810	0.41988
524.56953	0.50320
522.64097	0.48688
520.71240	0.37127
518.78384	0.29676
516.85527	0.27623
514.92671	0.32761
512.99814	0.48965
511.06958	0.81357
509.14102	1.00687
507.21245	0.70089
505.28389	0.47315
503.35532	0.37359
501.42676	0.42032
499.49819	0.49214
