3997.91411	0.07041
3995.98555	0.07099
3994.05698	0.07171
3992.12842	0.07209
3990.19985	0.07181
3988.27129	0.07162
3986.34272	0.07210
3984.41416	0.07255
3982.48560	0.07266
3980.55703	0.07301
3978.62847	0.07354
3976.69990	0.07377
3974.77134	0.07372
3972.84277	0.07371
3970.91421	0.07393
3968.98564	0.07403
3967.05708	0.07404
3965.12852	0.07432
3963.19995	0.07463
3961.27139	0.07465
3959.34282	0.07496
3957.41426	0.07572
3955.48569	0.07602
3953.55713	0.07537
3951.62856	0.07461
3949.70000	0.07454
3947.77144	0.07480
3945.84287	0.07477
3943.91431	0.07437
3941.98574	0.07405
3940.05718	0.07451
3938.12861	0.07524
3936.20005	0.07551
3934.27148	0.07543
3932.34292	0.07504
3930.41436	0.07441
3928.48579	0.07407
3926.55723	0.07430
3924.62866	0.07493
3922.70010	0.07524
3920.77153	0.07477
3918.84297	0.07449
3916.91440	0.07496
3914.98584	0.07516
3913.05728	0.07466
3911.12871	0.07435
3909.20015	0.07464
3907.27158	0.07510
3905.34302	0.07524
3903.41445	0.07505
3901.48589	0.07468
3899.55732	0.07427
3897.62876	0.07396
3895.70020	0.07366
3893.77163	0.07330
3891.84307	0.07323
3889.91450	0.07369
3887.98594	0.07406
3886.05737	0.07439
3884.12881	0.07508
3882.20024	0.07551
3880.27168	0.07532
3878.34312	0.07492
3876.41455	0.07477
3874.48599	0.07506
3872.55742	0.07526
3870.62886	0.07504
3868.70029	0.07531
3866.77173	0.07587
3864.84316	0.07600
3862.91460	0.07631
3860.98604	0.07712
3859.05747	0.07785
3857.12891	0.07842
3855.20034	0.07930
3853.27178	0.08040
3851.34321	0.08072
3849.41465	0.08037
3847.48608	0.08033
3845.55752	0.08080
3843.62896	0.08153
3841.70039	0.08214
3839.77183	0.08249
3837.84326	0.08291
3835.91470	0.08376
3833.98613	0.08464
3832.05757	0.08533
3830.12900	0.08597
3828.20044	0.08652
3826.27187	0.08704
3824.34331	0.08744
3822.41475	0.08788
3820.48618	0.08896
3818.55762	0.08983
3816.62905	0.09021
3814.70049	0.09143
3812.77192	0.09310
3810.84336	0.09410
3808.91479	0.09465
3806.98623	0.09546
3805.05767	0.09670
3803.12910	0.09763
3801.20054	0.09867
3799.27197	0.10007
3797.34341	0.10099
3795.41484	0.10222
3793.48628	0.10402
3791.55771	0.10567
3789.62915	0.10692
3787.70059	0.10787
3785.77202	0.10887
3783.84346	0.11011
3781.91489	0.11149
3779.98633	0.11320
3778.05776	0.11524
3776.12920	0.11678
3774.20063	0.11806
3772.27207	0.11970
3770.34351	0.12155
3768.41494	0.12359
3766.48638	0.12579
3764.55781	0.12802
3762.62925	0.12993
3760.70068	0.13158
3758.77212	0.13373
3756.84355	0.13645
3754.91499	0.13887
3752.98643	0.14107
3751.05786	0.14397
3749.12930	0.14748
3747.20073	0.14967
3745.27217	0.15151
3743.34360	0.15526
3741.41504	0.15896
3739.48647	0.16103
3737.55791	0.16334
3735.62935	0.16711
3733.70078	0.17214
3731.77222	0.17706
3729.84365	0.18127
3727.91509	0.18483
3725.98652	0.18898
3724.05796	0.19476
3722.12939	0.20197
3720.20083	0.21062
3718.27227	0.21992
3716.34370	0.22879
3714.41514	0.23687
3712.48657	0.24534
3710.55801	0.25669
3708.62944	0.27034
3706.70088	0.28297
3704.77231	0.29476
3702.84375	0.30776
3700.91519	0.32431
3698.98662	0.34272
3697.05806	0.36055
3695.12949	0.37949
3693.20093	0.39921
3691.27236	0.42025
3689.34380	0.44830
3687.41523	0.48411
3685.48667	0.51589
3683.55811	0.54291
3681.62954	0.57139
3679.70098	0.60314
3677.77241	0.63619
3675.84385	0.67539
3673.91528	0.72919
3671.98672	0.77365
3670.05815	0.81209
3668.12959	0.86488
3666.20103	0.91439
3664.27246	0.95577
3662.34390	0.99940
3660.41533	1.04634
3658.48677	1.09261
3656.55820	1.14200
3654.62964	1.19759
3652.70107	1.24476
3650.77251	1.28536
3648.84395	1.33978
3646.91538	1.40677
3644.98682	1.45765
3643.05825	1.49744
3641.12969	1.53834
3639.20112	1.58316
3637.27256	1.62755
3635.34399	1.67035
3633.41543	1.71271
3631.48687	1.75196
3629.55830	1.79187
3627.62974	1.84470
3625.70117	1.89523
3623.77261	1.93009
3621.84404	1.96304
3619.91548	2.00054
3617.98691	2.04609
3616.05835	2.09041
3614.12979	2.12785
3612.20122	2.16708
3610.27266	2.20629
3608.34409	2.24566
3606.41553	2.28797
3604.48696	2.32801
3602.55840	2.36441
3600.62983	2.40339
3598.70127	2.44461
3596.77271	2.48347
3594.84414	2.52233
3592.91558	2.56417
3590.98701	2.60529
3589.05845	2.64288
3587.12988	2.68572
3585.20132	2.73251
3583.27275	2.77321
3581.34419	2.81202
3579.41562	2.85281
3577.48706	2.89479
3575.55850	2.93748
3573.62993	2.98108
3571.70137	3.02237
3569.77280	3.06030
3567.84424	3.10054
3565.91567	3.15243
3563.98711	3.20501
3562.05854	3.24867
3560.12998	3.29204
3558.20142	3.33667
3556.27285	3.38092
3554.34429	3.42629
3552.41572	3.47390
3550.48716	3.51848
3548.55859	3.56043
3546.63003	3.60545
3544.70146	3.65383
3542.77290	3.70254
3540.84434	3.75095
3538.91577	3.79897
3536.98721	3.84446
3535.05864	3.88962
3533.13008	3.93615
3531.20151	3.98430
3529.27295	4.03473
3527.34438	4.08390
3525.41582	4.12660
3523.48726	4.16872
3521.55869	4.21741
3519.63013	4.27030
3517.70156	4.32381
3515.77300	4.37011
3513.84443	4.41090
3511.91587	4.45674
3509.98730	4.50797
3508.05874	4.55913
3506.13018	4.60706
3504.20161	4.65405
3502.27305	4.70219
3500.34448	4.74924
3498.41592	4.79815
3496.48735	4.85300
3494.55879	4.90749
3492.63022	4.95393
3490.70166	4.99413
3488.77310	5.03562
3486.84453	5.08097
3484.91597	5.12870
3482.98740	5.18430
3481.05884	5.24030
3479.13027	5.28336
3477.20171	5.32720
3475.27314	5.37398
3473.34458	5.41652
3471.41602	5.46145
3469.48745	5.51077
3467.55889	5.56941
3465.63032	5.63366
3463.70176	5.68701
3461.77319	5.72492
3459.84463	5.76310
3457.91606	5.80936
3455.98750	5.85864
3454.05894	5.91849
3452.13037	5.98401
3450.20181	6.03451
3448.27324	6.07308
3446.34468	6.11535
3444.41611	6.16386
3442.48755	6.21961
3440.55898	6.27085
3438.63042	6.30896
3436.70186	6.34848
3434.77329	6.39740
3432.84473	6.44613
3430.91616	6.48463
3428.98760	6.51330
3427.05903	6.54580
3425.13047	6.60583
3423.20190	6.69095
3421.27334	6.79137
3419.34478	6.87445
3417.41621	6.90531
3415.48765	6.92606
3413.55908	6.97914
3411.63052	7.04313
3409.70195	7.07379
3407.77339	7.08835
3405.84482	7.11562
3403.91626	7.15400
3401.98770	7.18264
3400.05913	7.20323
3398.13057	7.25642
3396.20200	7.33179
3394.27344	7.36483
3392.34487	7.34937
3390.41631	7.35616
3388.48774	7.40624
3386.55918	7.50287
3384.63062	7.63495
3382.70205	7.72561
3380.77349	7.71345
3378.84492	7.65972
3376.91636	7.66524
3374.98779	7.70476
3373.05923	7.73134
3371.13066	7.75364
3369.20210	7.76460
3367.27354	7.75829
3365.34497	7.78659
3363.41641	7.85208
3361.48784	7.90631
3359.55928	7.94732
3357.63071	7.94299
3355.70215	7.89620
3353.77358	7.90112
3351.84502	8.01171
3349.91646	8.10789
3347.98789	8.08774
3346.05933	8.02725
3344.13076	8.02468
3342.20220	8.08595
3340.27363	8.12848
3338.34507	8.11992
3336.41650	8.09952
3334.48794	8.16988
3332.55937	8.29514
3330.63081	8.33069
3328.70225	8.27926
3326.77368	8.22273
3324.84512	8.20505
3322.91655	8.18616
3320.98799	8.14918
3319.05942	8.11809
3317.13086	8.12939
3315.20229	8.18220
3313.27373	8.22668
3311.34517	8.22575
3309.41660	8.23429
3307.48804	8.27200
3305.55947	8.20692
3303.63091	8.07569
3301.70234	7.99120
3299.77378	7.97404
3297.84521	8.02531
3295.91665	8.10026
3293.98809	8.14598
3292.05952	8.16474
3290.13096	8.17833
3288.20239	8.21828
3286.27383	8.28629
3284.34526	8.30848
3282.41670	8.28133
3280.48813	8.27211
3278.55957	8.27907
3276.63101	8.26494
3274.70244	8.25225
3272.77388	8.22713
3270.84531	8.14354
3268.91675	8.08076
3266.98818	8.11264
3265.05962	8.20712
3263.13105	8.29619
3261.20249	8.32744
3259.27393	8.29789
3257.34536	8.29133
3255.41680	8.30928
3253.48823	8.29123
3251.55967	8.28591
3249.63110	8.31342
3247.70254	8.33932
3245.77397	8.31676
3243.84541	8.24180
3241.91685	8.21358
3239.98828	8.25594
3238.05972	8.28698
3236.13115	8.28451
3234.20259	8.26804
3232.27402	8.23003
3230.34546	8.18740
3228.41689	8.15575
3226.48833	8.08983
3224.55977	8.01656
3222.63120	8.03811
3220.70264	8.12574
3218.77407	8.17195
3216.84551	8.12430
3214.91694	8.02940
3212.98838	7.96753
3211.05981	7.92486
3209.13125	7.86837
3207.20269	7.83839
3205.27412	7.86031
3203.34556	7.88382
3201.41699	7.85523
3199.48843	7.77261
3197.55986	7.71238
3195.63130	7.71120
3193.70273	7.68391
3191.77417	7.61847
3189.84561	7.55664
3187.91704	7.46975
3185.98848	7.36279
3184.05991	7.27094
3182.13135	7.21190
3180.20278	7.18880
3178.27422	7.17011
3176.34565	7.13443
3174.41709	7.10234
3172.48853	7.07379
3170.55996	7.00669
3168.63140	6.92897
3166.70283	6.89935
3164.77427	6.86536
3162.84570	6.77858
3160.91714	6.68203
3158.98857	6.60376
3157.06001	6.53670
3155.13145	6.47847
3153.20288	6.43012
3151.27432	6.38068
3149.34575	6.31392
3147.41719	6.22756
3145.48862	6.13800
3143.56006	6.05900
3141.63149	5.99123
3139.70293	5.92991
3137.77437	5.86787
3135.84580	5.79709
3133.91724	5.71829
3131.98867	5.63647
3130.06011	5.55647
3128.13154	5.48584
3126.20298	5.42047
3124.27441	5.35527
3122.34585	5.29232
3120.41729	5.22286
3118.48872	5.14807
3116.56016	5.07969
3114.63159	5.01061
3112.70303	4.93793
3110.77446	4.87043
3108.84590	4.80526
3106.91733	4.73797
3104.98877	4.67119
3103.06021	4.60442
3101.13164	4.53385
3099.20308	4.46074
3097.27451	4.38908
3095.34595	4.32070
3093.41738	4.25636
3091.48882	4.19574
3089.56025	4.13503
3087.63169	4.07134
3085.70312	4.00719
3083.77456	3.94368
3081.84600	3.88001
3079.91743	3.81817
3077.98887	3.76076
3076.06030	3.70719
3074.13174	3.65432
3072.20317	3.59891
3070.27461	3.54047
3068.34604	3.48189
3066.41748	3.42494
3064.48892	3.36978
3062.56035	3.31567
3060.63179	3.26105
3058.70322	3.20650
3056.77466	3.15388
3054.84609	3.10308
3052.91753	3.05246
3050.98896	3.00138
3049.06040	2.95058
3047.13184	2.90089
3045.20327	2.85147
3043.27471	2.80180
3041.34614	2.75360
3039.41758	2.70762
3037.48901	2.66230
3035.56045	2.61666
3033.63188	2.57134
3031.70332	2.52675
3029.77476	2.48321
3027.84619	2.44060
3025.91763	2.39827
3023.98906	2.35629
3022.06050	2.31495
3020.13193	2.27492
3018.20337	2.23606
3016.27480	2.19707
3014.34624	2.15804
3012.41768	2.11960
3010.48911	2.08185
3008.56055	2.04541
3006.63198	2.01033
3004.70342	1.97527
3002.77485	1.93984
3000.84629	1.90558
2998.91772	1.87281
2996.98916	1.84057
2995.06060	1.80884
2993.13203	1.77791
2991.20347	1.74737
2989.27490	1.71696
2987.34634	1.68735
2985.41777	1.65872
2983.48921	1.63059
2981.56064	1.60294
2979.63208	1.57594
2977.70352	1.54958
2975.77495	1.52351
2973.84639	1.49784
2971.91782	1.47281
2969.98926	1.44811
2968.06069	1.42349
2966.13213	1.39916
2964.20356	1.37542
2962.27500	1.35221
2960.34644	1.32896
2958.41787	1.30548
2956.48931	1.28233
2954.56074	1.25980
2952.63218	1.23751
2950.70361	1.21520
2948.77505	1.19302
2946.84648	1.17146
2944.91792	1.15073
2942.98936	1.13066
2941.06079	1.11101
2939.13223	1.09152
2937.20366	1.07212
2935.27510	1.05280
2933.34653	1.03393
2931.41797	1.01574
2929.48940	0.99749
2927.56084	0.97891
2925.63228	0.96094
2923.70371	0.94377
2921.77515	0.92689
2919.84658	0.91042
2917.91802	0.89435
2915.98945	0.87830
2914.06089	0.86237
2912.13232	0.84712
2910.20376	0.83251
2908.27520	0.81774
2906.34663	0.80284
2904.41807	0.78853
2902.48950	0.77479
2900.56094	0.76125
2898.63237	0.74803
2896.70381	0.73504
2894.77524	0.72228
2892.84668	0.71027
2890.91812	0.69900
2888.98955	0.68794
2887.06099	0.67685
2885.13242	0.66599
2883.20386	0.65560
2881.27529	0.64550
2879.34673	0.63556
2877.41816	0.62597
2875.48960	0.61652
2873.56104	0.60688
2871.63247	0.59691
2869.70391	0.58635
2867.77534	0.57542
2865.84678	0.56461
2863.91821	0.55411
2861.98965	0.54401
2860.06108	0.53416
2858.13252	0.52454
2856.20396	0.51548
2854.27539	0.50685
2852.34683	0.49836
2850.41826	0.48997
2848.48970	0.48180
2846.56113	0.47395
2844.63257	0.46655
2842.70400	0.45971
2840.77544	0.45322
2838.84687	0.44684
2836.91831	0.44074
2834.98975	0.43485
2833.06118	0.42881
2831.13262	0.42266
2829.20405	0.41658
2827.27549	0.41054
2825.34692	0.40456
2823.41836	0.39883
2821.48979	0.39329
2819.56123	0.38759
2817.63267	0.38173
2815.70410	0.37611
2813.77554	0.37098
2811.84697	0.36608
2809.91841	0.36096
2807.98984	0.35560
2806.06128	0.35037
2804.13271	0.34542
2802.20415	0.34053
2800.27559	0.33562
2798.34702	0.33085
2796.41846	0.32625
2794.48989	0.32175
2792.56133	0.31744
2790.63276	0.31324
2788.70420	0.30908
2786.77563	0.30496
2784.84707	0.30079
2782.91851	0.29661
2780.98994	0.29258
2779.06138	0.28862
2777.13281	0.28473
2775.20425	0.28105
2773.27568	0.27749
2771.34712	0.27398
2769.41855	0.27054
2767.48999	0.26717
2765.56143	0.26379
2763.63286	0.26036
2761.70430	0.25704
2759.77573	0.25395
2757.84717	0.25104
2755.91860	0.24814
2753.99004	0.24518
2752.06147	0.24210
2750.13291	0.23911
2748.20435	0.23648
2746.27578	0.23405
2744.34722	0.23155
2742.41865	0.22888
2740.49009	0.22613
2738.56152	0.22353
2736.63296	0.22121
2734.70439	0.21900
2732.77583	0.21665
2730.84727	0.21417
2728.91870	0.21183
2726.99014	0.20973
2725.06157	0.20768
2723.13301	0.20568
2721.20444	0.20368
2719.27588	0.20165
2717.34731	0.19974
2715.41875	0.19802
2713.49019	0.19645
2711.56162	0.19492
2709.63306	0.19322
2707.70449	0.19135
2705.77593	0.18957
2703.84736	0.18795
2701.91880	0.18632
2699.99023	0.18475
2698.06167	0.18340
2696.13311	0.18223
2694.20454	0.18099
2692.27598	0.17960
2690.34741	0.17828
2688.41885	0.17707
2686.49028	0.17586
2684.56172	0.17471
2682.63315	0.17349
2680.70459	0.17214
2678.77603	0.17087
2676.84746	0.16984
2674.91890	0.16890
2672.99033	0.16792
2671.06177	0.16698
2669.13320	0.16609
2667.20464	0.16513
2665.27607	0.16420
2663.34751	0.16330
2661.41895	0.16238
2659.49038	0.16157
2657.56182	0.16081
2655.63325	0.15998
2653.70469	0.15918
2651.77612	0.15841
2649.84756	0.15760
2647.91899	0.15701
2645.99043	0.15676
2644.06187	0.15646
2642.13330	0.15581
2640.20474	0.15503
2638.27617	0.15448
2636.34761	0.15415
2634.41904	0.15371
2632.49048	0.15311
2630.56191	0.15257
2628.63335	0.15223
2626.70479	0.15204
2624.77622	0.15180
2622.84766	0.15145
2620.91909	0.15113
2618.99053	0.15092
2617.06196	0.15077
2615.13340	0.15059
2613.20483	0.15047
2611.27627	0.15046
2609.34771	0.15047
2607.41914	0.15035
2605.49058	0.15011
2603.56201	0.14987
2601.63345	0.14975
2599.70488	0.14974
2597.77632	0.14984
2595.84775	0.15004
2593.91919	0.15021
2591.99062	0.15027
2590.06206	0.15036
2588.13350	0.15053
2586.20493	0.15066
2584.27637	0.15082
2582.34780	0.15109
2580.41924	0.15130
2578.49067	0.15142
2576.56211	0.15157
2574.63354	0.15187
2572.70498	0.15226
2570.77642	0.15258
2568.84785	0.15290
2566.91929	0.15337
2564.99072	0.15388
2563.06216	0.15431
2561.13359	0.15475
2559.20503	0.15523
2557.27646	0.15570
2555.34790	0.15613
2553.41934	0.15659
2551.49077	0.15707
2549.56221	0.15750
2547.63364	0.15798
2545.70508	0.15863
2543.77651	0.15926
2541.84795	0.15980
2539.91938	0.16042
2537.99082	0.16110
2536.06226	0.16166
2534.13369	0.16208
2532.20513	0.16257
2530.27656	0.16327
2528.34800	0.16412
2526.41943	0.16491
2524.49087	0.16561
2522.56230	0.16632
2520.63374	0.16706
2518.70518	0.16778
2516.77661	0.16850
2514.84805	0.16932
2512.91948	0.17019
2510.99092	0.17097
2509.06235	0.17170
2507.13379	0.17249
2505.20522	0.17334
2503.27666	0.17421
2501.34810	0.17498
2499.41953	0.17570
2497.49097	0.17647
2495.56240	0.17724
2493.63384	0.17804
2491.70527	0.17899
2489.77671	0.18001
2487.84814	0.18093
2485.91958	0.18181
2483.99102	0.18268
2482.06245	0.18345
2480.13389	0.18411
2478.20532	0.18490
2476.27676	0.18588
2474.34819	0.18684
2472.41963	0.18780
2470.49106	0.18880
2468.56250	0.18962
2466.63394	0.19025
2464.70537	0.19101
2462.77681	0.19203
2460.84824	0.19309
2458.91968	0.19408
2456.99111	0.19507
2455.06255	0.19601
2453.13398	0.19695
2451.20542	0.19800
2449.27686	0.19904
2447.34829	0.19994
2445.41973	0.20074
2443.49116	0.20156
2441.56260	0.20241
2439.63403	0.20337
2437.70547	0.20448
2435.77690	0.20570
2433.84834	0.20686
2431.91978	0.20784
2429.99121	0.20875
2428.06265	0.20977
2426.13408	0.21082
2424.20552	0.21182
2422.27695	0.21294
2420.34839	0.21421
2418.41982	0.21537
2416.49126	0.21636
2414.56270	0.21736
2412.63413	0.21846
2410.70557	0.21959
2408.77700	0.22075
2406.84844	0.22191
2404.91987	0.22304
2402.99131	0.22420
2401.06274	0.22549
2399.13418	0.22682
2397.20562	0.22813
2395.27705	0.22940
2393.34849	0.23061
2391.41992	0.23168
2389.49136	0.23251
2387.56279	0.23321
2385.63423	0.23358
2383.70566	0.23305
2381.77710	0.23143
2379.84854	0.22909
2377.91997	0.22654
2375.99141	0.22374
2374.06284	0.22009
2372.13428	0.21514
2370.20571	0.20929
2368.27715	0.20320
2366.34858	0.19786
2364.42002	0.19423
2362.49146	0.19193
2360.56289	0.19098
2358.63433	0.19302
2356.70576	0.19839
2354.77720	0.20592
2352.84863	0.21491
2350.92007	0.22427
2348.99150	0.23077
2347.06294	0.23221
2345.13437	0.22884
2343.20581	0.22418
2341.27725	0.22314
2339.34868	0.22533
2337.42012	0.22792
2335.49155	0.23025
2333.56299	0.23274
2331.63442	0.23553
2329.70586	0.23872
2327.77729	0.24223
2325.84873	0.24587
2323.92017	0.24998
2321.99160	0.25485
2320.06304	0.26003
2318.13447	0.26488
2316.20591	0.26911
2314.27734	0.27270
2312.34878	0.27572
2310.42021	0.27860
2308.49165	0.28192
2306.56309	0.28577
2304.63452	0.28940
2302.70596	0.29234
2300.77739	0.29506
2298.84883	0.29790
2296.92026	0.30071
2294.99170	0.30335
2293.06313	0.30587
2291.13457	0.30847
2289.20601	0.31132
2287.27744	0.31412
2285.34888	0.31657
2283.42031	0.31883
2281.49175	0.32098
2279.56318	0.32289
2277.63462	0.32466
2275.70605	0.32649
2273.77749	0.32849
2271.84893	0.33060
2269.92036	0.33271
2267.99180	0.33477
2266.06323	0.33684
2264.13467	0.33892
2262.20610	0.34111
2260.27754	0.34340
2258.34897	0.34569
2256.42041	0.34794
2254.49185	0.35018
2252.56328	0.35234
2250.63472	0.35451
2248.70615	0.35684
2246.77759	0.35918
2244.84902	0.36144
2242.92046	0.36371
2240.99189	0.36593
2239.06333	0.36809
2237.13477	0.37031
2235.20620	0.37247
2233.27764	0.37454
2231.34907	0.37668
2229.42051	0.37892
2227.49194	0.38123
2225.56338	0.38356
2223.63481	0.38585
2221.70625	0.38806
2219.77769	0.39020
2217.84912	0.39232
2215.92056	0.39447
2213.99199	0.39666
2212.06343	0.39893
2210.13486	0.40117
2208.20630	0.40324
2206.27773	0.40516
2204.34917	0.40711
2202.42061	0.40909
2200.49204	0.41106
2198.56348	0.41304
2196.63491	0.41497
2194.70635	0.41682
2192.77778	0.41867
2190.84922	0.42055
2188.92065	0.42236
2186.99209	0.42406
2185.06353	0.42583
2183.13496	0.42770
2181.20640	0.42952
2179.27783	0.43109
2177.34927	0.43251
2175.42070	0.43399
2173.49214	0.43557
2171.56357	0.43708
2169.63501	0.43845
2167.70645	0.43980
2165.77788	0.44116
2163.84932	0.44254
2161.92075	0.44383
2159.99219	0.44488
2158.06362	0.44577
2156.13506	0.44666
2154.20649	0.44752
2152.27793	0.44834
2150.34937	0.44905
2148.42080	0.44971
2146.49224	0.45037
2144.56367	0.45097
2142.63511	0.45145
2140.70654	0.45184
2138.77798	0.45219
2136.84941	0.45247
2134.92085	0.45259
2132.99229	0.45257
2131.06372	0.45253
2129.13516	0.45243
2127.20659	0.45221
2125.27803	0.45192
2123.34946	0.45155
2121.42090	0.45117
2119.49233	0.45088
2117.56377	0.45046
2115.63521	0.44979
2113.70664	0.44906
2111.77808	0.44831
2109.84951	0.44745
2107.92095	0.44646
2105.99238	0.44529
2104.06382	0.44410
2102.13525	0.44286
2100.20669	0.44149
2098.27812	0.44014
2096.34956	0.43887
2094.42100	0.43746
2092.49243	0.43594
2090.56387	0.43445
2088.63530	0.43289
2086.70674	0.43110
2084.77817	0.42926
2082.84961	0.42758
2080.92104	0.42587
2078.99248	0.42397
2077.06392	0.42193
2075.13535	0.41976
2073.20679	0.41749
2071.27822	0.41532
2069.34966	0.41333
2067.42109	0.41118
2065.49253	0.40882
2063.56396	0.40646
2061.63540	0.40414
2059.70684	0.40176
2057.77827	0.39938
2055.84971	0.39706
2053.92114	0.39458
2051.99258	0.39196
2050.06401	0.38938
2048.13545	0.38680
2046.20688	0.38409
2044.27832	0.38141
2042.34976	0.37887
2040.42119	0.37640
2038.49263	0.37389
2036.56406	0.37124
2034.63550	0.36848
2032.70693	0.36569
2030.77837	0.36296
2028.84980	0.36025
2026.92124	0.35751
2024.99268	0.35479
2023.06411	0.35212
2021.13555	0.34937
2019.20698	0.34656
2017.27842	0.34376
2015.34985	0.34106
2013.42129	0.33846
2011.49272	0.33581
2009.56416	0.33315
2007.63560	0.33053
2005.70703	0.32794
2003.77847	0.32542
2001.84990	0.32285
1999.92134	0.32016
1997.99277	0.31747
1996.06421	0.31493
1994.13564	0.31250
1992.20708	0.30998
1990.27852	0.30732
1988.34995	0.30479
1986.42139	0.30236
1984.49282	0.29994
1982.56426	0.29770
1980.63569	0.29557
1978.70713	0.29329
1976.77856	0.29095
1974.85000	0.28875
1972.92144	0.28664
1970.99287	0.28450
1969.06431	0.28236
1967.13574	0.28027
1965.20718	0.27821
1963.27861	0.27621
1961.35005	0.27429
1959.42148	0.27241
1957.49292	0.27061
1955.56436	0.26891
1953.63579	0.26729
1951.70723	0.26569
1949.77866	0.26415
1947.85010	0.26256
1945.92153	0.26089
1943.99297	0.25926
1942.06440	0.25777
1940.13584	0.25630
1938.20728	0.25483
1936.27871	0.25347
1934.35015	0.25222
1932.42158	0.25102
1930.49302	0.24982
1928.56445	0.24865
1926.63589	0.24749
1924.70732	0.24644
1922.77876	0.24541
1920.85020	0.24444
1918.92163	0.24361
1916.99307	0.24277
1915.06450	0.24184
1913.13594	0.24089
1911.20737	0.24007
1909.27881	0.23940
1907.35024	0.23878
1905.42168	0.23813
1903.49312	0.23751
1901.56455	0.23696
1899.63599	0.23645
1897.70742	0.23597
1895.77886	0.23556
1893.85029	0.23527
1891.92173	0.23494
1889.99316	0.23457
1888.06460	0.23418
1886.13604	0.23384
1884.20747	0.23360
1882.27891	0.23352
1880.35034	0.23351
1878.42178	0.23341
1876.49321	0.23335
1874.56465	0.23327
1872.63608	0.23313
1870.70752	0.23314
1868.77896	0.23358
1866.85039	0.23407
1864.92183	0.23423
1862.99326	0.23435
1861.06470	0.23456
1859.13613	0.23484
1857.20757	0.23511
1855.27900	0.23548
1853.35044	0.23593
1851.42187	0.23645
1849.49331	0.23701
1847.56475	0.23762
1845.63618	0.23828
1843.70762	0.23907
1841.77905	0.23988
1839.85049	0.24047
1837.92192	0.24122
1835.99336	0.24213
1834.06479	0.24306
1832.13623	0.24394
1830.20767	0.24515
1828.27910	0.24669
1826.35054	0.24799
1824.42197	0.24933
1822.49341	0.25073
1820.56484	0.25204
1818.63628	0.25332
1816.70771	0.25482
1814.77915	0.25640
1812.85059	0.25807
1810.92202	0.25997
1808.99346	0.26199
1807.06489	0.26395
1805.13633	0.26582
1803.20776	0.26790
1801.27920	0.27025
1799.35063	0.27291
1797.42207	0.27544
1795.49351	0.27786
1793.56494	0.28054
1791.63638	0.28406
1789.70781	0.28767
1787.77925	0.29040
1785.85068	0.29344
1783.92212	0.29704
1781.99355	0.30092
1780.06499	0.30497
1778.13643	0.30916
1776.20786	0.31308
1774.27930	0.31720
1772.35073	0.32279
1770.42217	0.32902
1768.49360	0.33445
1766.56504	0.33977
1764.63647	0.34513
1762.70791	0.35078
1760.77935	0.35803
1758.85078	0.36511
1756.92222	0.37218
1754.99365	0.37988
1753.06509	0.38683
1751.13652	0.39481
1749.20796	0.40493
1747.27939	0.41540
1745.35083	0.42475
1743.42227	0.43438
1741.49370	0.44483
1739.56514	0.45722
1737.63657	0.46961
1735.70801	0.48015
1733.77944	0.49594
1731.85088	0.51560
1729.92231	0.53155
1727.99375	0.54743
1726.06519	0.56424
1724.13662	0.58249
1722.20806	0.60222
1720.27949	0.62020
1718.35093	0.64062
1716.42236	0.67128
1714.49380	0.70191
1712.56523	0.72726
1710.63667	0.75148
1708.70811	0.77714
1706.77954	0.80596
1704.85098	0.84037
1702.92241	0.87136
1700.99385	0.90208
1699.06528	0.94737
1697.13672	0.98951
1695.20815	1.03397
1693.27959	1.07737
1691.35103	1.11205
1689.42246	1.15169
1687.49390	1.19326
1685.56533	1.23319
1683.63677	1.29519
1681.70820	1.36056
1679.77964	1.40326
1677.85107	1.44366
1675.92251	1.48944
1673.99395	1.54567
1672.06538	1.59597
1670.13682	1.64575
1668.20825	1.71084
1666.27969	1.76444
1664.35112	1.80941
1662.42256	1.86456
1660.49399	1.92739
1658.56543	1.97746
1656.63687	2.01705
1654.70830	2.05278
1652.77974	2.11010
1650.85117	2.16548
1648.92261	2.18628
1646.99404	2.21254
1645.06548	2.24189
1643.13691	2.26069
1641.20835	2.27150
1639.27979	2.28125
1637.35122	2.28703
1635.42266	2.28657
1633.49409	2.27991
1631.56553	2.26743
1629.63696	2.25095
1627.70840	2.22311
1625.77983	2.19041
1623.85127	2.14899
1621.92271	2.09835
1619.99414	2.05445
1618.06558	2.01122
1616.13701	1.94724
1614.20845	1.88185
1612.27988	1.83271
1610.35132	1.78176
1608.42275	1.72660
1606.49419	1.67236
1604.56562	1.62256
1602.63706	1.57500
1600.70850	1.52893
1598.77993	1.48568
1596.85137	1.44378
1594.92280	1.40297
1592.99424	1.36397
1591.06567	1.32812
1589.13711	1.29414
1587.20854	1.26241
1585.27998	1.23314
1583.35142	1.20556
1581.42285	1.18017
1579.49429	1.15862
1577.56572	1.13930
1575.63716	1.11593
1573.70859	1.09568
1571.78003	1.08265
1569.85146	1.06915
1567.92290	1.05449
1565.99434	1.04350
1564.06577	1.03477
1562.13721	1.02800
1560.20864	1.02356
1558.28008	1.01845
1556.35151	1.01415
1554.42295	1.01175
1552.49438	1.00953
1550.56582	1.00611
1548.63726	1.00073
1546.70869	0.99406
1544.78013	0.98550
1542.85156	0.97424
1540.92300	0.95861
1538.99443	0.93590
1537.06587	0.91946
1535.13730	0.90802
1533.20874	0.89262
1531.28018	0.87598
1529.35161	0.86383
1527.42305	0.85240
1525.49448	0.84048
1523.56592	0.83015
1521.63735	0.82022
1519.70879	0.81027
1517.78022	0.80186
1515.85166	0.79225
1513.92310	0.78227
1511.99453	0.77365
1510.06597	0.76590
1508.13740	0.75825
1506.20884	0.74667
1504.28027	0.73698
1502.35171	0.73157
1500.42314	0.72672
1498.49458	0.72145
1496.56602	0.71526
1494.63745	0.70922
1492.70889	0.70460
1490.78032	0.70049
1488.85176	0.69582
1486.92319	0.69159
1484.99463	0.68834
1483.06606	0.68579
1481.13750	0.68370
1479.20894	0.68199
1477.28037	0.68073
1475.35181	0.67985
1473.42324	0.67926
1471.49468	0.67829
1469.56611	0.67673
1467.63755	0.67490
1465.70898	0.67288
1463.78042	0.67087
1461.85186	0.66945
1459.92329	0.66857
1457.99473	0.66774
1456.06616	0.66628
1454.13760	0.66393
1452.20903	0.66137
1450.28047	0.65886
1448.35190	0.65644
1446.42334	0.65386
1444.49478	0.65133
1442.56621	0.64897
1440.63765	0.64652
1438.70908	0.64389
1436.78052	0.64073
1434.85195	0.63742
1432.92339	0.63493
1430.99482	0.63307
1429.06626	0.63162
1427.13770	0.63059
1425.20913	0.62991
1423.28057	0.62956
1421.35200	0.62935
1419.42344	0.62904
1417.49487	0.62829
1415.56631	0.62708
1413.63774	0.62607
1411.70918	0.62550
1409.78062	0.62550
1407.85205	0.62593
1405.92349	0.62645
1403.99492	0.62682
1402.06636	0.62678
1400.13779	0.62607
1398.20923	0.62458
1396.28066	0.62252
1394.35210	0.61980
1392.42354	0.61675
1390.49497	0.61392
1388.56641	0.61099
1386.63784	0.60748
1384.70928	0.60377
1382.78071	0.60031
1380.85215	0.59704
1378.92358	0.59421
1376.99502	0.59205
1375.06646	0.59050
1373.13789	0.58937
1371.20933	0.58861
1369.28076	0.58791
1367.35220	0.58679
1365.42363	0.58528
1363.49507	0.58353
1361.56650	0.58182
1359.63794	0.58057
1357.70937	0.57968
1355.78081	0.57884
1353.85225	0.57793
1351.92368	0.57699
1349.99512	0.57617
1348.06655	0.57553
1346.13799	0.57483
1344.20942	0.57388
1342.28086	0.57287
1340.35229	0.57206
1338.42373	0.57137
1336.49517	0.57063
1334.56660	0.57003
1332.63804	0.56965
1330.70947	0.56943
1328.78091	0.56930
1326.85234	0.56926
1324.92378	0.56932
1322.99521	0.56951
1321.06665	0.56973
1319.13809	0.56983
1317.20952	0.56974
1315.28096	0.56952
1313.35239	0.56908
1311.42383	0.56845
1309.49526	0.56780
1307.56670	0.56724
1305.63813	0.56678
1303.70957	0.56628
1301.78101	0.56563
1299.85244	0.56479
1297.92388	0.56384
1295.99531	0.56304
1294.06675	0.56237
1292.13818	0.56148
1290.20962	0.56040
1288.28105	0.55939
1286.35249	0.55842
1284.42393	0.55741
1282.49536	0.55643
1280.56680	0.55553
1278.63823	0.55459
1276.70967	0.55352
1274.78110	0.55242
1272.85254	0.55154
1270.92397	0.55100
1268.99541	0.55054
1267.06685	0.54992
1265.13828	0.54926
1263.20972	0.54877
1261.28115	0.54827
1259.35259	0.54757
1257.42402	0.54690
1255.49546	0.54654
1253.56689	0.54636
1251.63833	0.54625
1249.70977	0.54623
1247.78120	0.54615
1245.85264	0.54580
1243.92407	0.54523
1241.99551	0.54451
1240.06694	0.54354
1238.13838	0.54221
1236.20981	0.54067
1234.28125	0.53910
1232.35269	0.53754
1230.42412	0.53598
1228.49556	0.53442
1226.56699	0.53294
1224.63843	0.53156
1222.70986	0.53026
1220.78130	0.52903
1218.85273	0.52789
1216.92417	0.52694
1214.99561	0.52606
1213.06704	0.52517
1211.13848	0.52440
1209.20991	0.52375
1207.28135	0.52321
1205.35278	0.52274
1203.42422	0.52209
1201.49565	0.52118
1199.56709	0.52032
1197.63853	0.51964
1195.70996	0.51899
1193.78140	0.51836
1191.85283	0.51779
1189.92427	0.51737
1187.99570	0.51721
1186.06714	0.51723
1184.13857	0.51730
1182.21001	0.51755
1180.28145	0.51819
1178.35288	0.51917
1176.42432	0.52030
1174.49575	0.52136
1172.56719	0.52216
1170.63862	0.52277
1168.71006	0.52328
1166.78149	0.52366
1164.85293	0.52405
1162.92437	0.52454
1160.99580	0.52488
1159.06724	0.52489
1157.13867	0.52453
1155.21011	0.52374
1153.28154	0.52252
1151.35298	0.52080
1149.42441	0.51858
1147.49585	0.51610
1145.56729	0.51350
1143.63872	0.51096
1141.71016	0.50874
1139.78159	0.50681
1137.85303	0.50503
1135.92446	0.50352
1133.99590	0.50235
1132.06733	0.50128
1130.13877	0.50025
1128.21021	0.49938
1126.28164	0.49850
1124.35308	0.49763
1122.42451	0.49728
1120.49595	0.49748
1118.56738	0.49766
1116.63882	0.49767
1114.71025	0.49788
1112.78169	0.49842
1110.85312	0.49917
1108.92456	0.50012
1106.99600	0.50126
1105.06743	0.50246
1103.13887	0.50369
1101.21030	0.50492
1099.28174	0.50629
1097.35317	0.50830
1095.42461	0.51119
1093.49604	0.51469
1091.56748	0.51898
1089.63892	0.52462
1087.71035	0.53157
1085.78179	0.53922
1083.85322	0.54675
1081.92466	0.55348
1079.99609	0.55897
1078.06753	0.56245
1076.13896	0.56285
1074.21040	0.56004
1072.28184	0.55500
1070.35327	0.54883
1068.42471	0.54220
1066.49614	0.53555
1064.56758	0.52928
1062.63901	0.52364
1060.71045	0.51879
1058.78188	0.51451
1056.85332	0.51050
1054.92476	0.50681
1052.99619	0.50362
1051.06763	0.50122
1049.13906	0.49959
1047.21050	0.49831
1045.28193	0.49730
1043.35337	0.49658
1041.42480	0.49607
1039.49624	0.49576
1037.56768	0.49555
1035.63911	0.49528
1033.71055	0.49490
1031.78198	0.49426
1029.85342	0.49340
1027.92485	0.49251
1025.99629	0.49178
1024.06772	0.49133
1022.13916	0.49121
1020.21060	0.49114
1018.28203	0.49103
1016.35347	0.49117
1014.42490	0.49152
1012.49634	0.49170
1010.56777	0.49187
1008.63921	0.49242
1006.71064	0.49324
1004.78208	0.49426
1002.85352	0.49581
1000.92495	0.49817
998.99639	0.50137
997.06782	0.50535
995.13926	0.50970
993.21069	0.51378
991.28213	0.51709
989.35356	0.51932
987.42500	0.52031
985.49644	0.52027
983.56787	0.52000
981.63931	0.52036
979.71074	0.52160
977.78218	0.52348
975.85361	0.52571
973.92505	0.52809
971.99648	0.53069
970.06792	0.53372
968.13936	0.53724
966.21079	0.54119
964.28223	0.54548
962.35366	0.54990
960.42510	0.55470
958.49653	0.56022
956.56797	0.56591
954.63940	0.57166
952.71084	0.57792
950.78228	0.58431
948.85371	0.59040
946.92515	0.59662
944.99658	0.60301
943.06802	0.60895
941.13945	0.61439
939.21089	0.62002
937.28232	0.62596
935.35376	0.63131
933.42520	0.63646
931.49663	0.64237
929.56807	0.64845
927.63950	0.65415
925.71094	0.65976
923.78237	0.66554
921.85381	0.67171
919.92524	0.67821
917.99668	0.68529
916.06812	0.69315
914.13955	0.70080
912.21099	0.70776
910.28242	0.71462
908.35386	0.72187
906.42529	0.73023
904.49673	0.73957
902.56816	0.74869
900.63960	0.75757
898.71104	0.76684
896.78247	0.77666
894.85391	0.78713
892.92534	0.79726
890.99678	0.80689
889.06821	0.81762
887.13965	0.82945
885.21108	0.84148
883.28252	0.85259
881.35396	0.86198
879.42539	0.87133
877.49683	0.88146
875.56826	0.89192
873.63970	0.90284
871.71113	0.91446
869.78257	0.92706
867.85400	0.93998
865.92544	0.95187
863.99687	0.96228
862.06831	0.97313
860.13975	0.98613
858.21118	0.99998
856.28262	1.01166
854.35405	1.02037
852.42549	1.02868
850.49692	1.03924
848.56836	1.05186
846.63979	1.06407
844.71123	1.07555
842.78267	1.08751
840.85410	1.09921
838.92554	1.11030
836.99697	1.12154
835.06841	1.13285
833.13984	1.14396
831.21128	1.15472
829.28271	1.16597
827.35415	1.17921
825.42559	1.19364
823.49702	1.20859
821.56846	1.22312
819.63989	1.23410
817.71133	1.24196
815.78276	1.25106
813.85420	1.26147
811.92563	1.27046
809.99707	1.28391
808.06851	1.30577
806.13994	1.31908
804.21138	1.31433
802.28281	1.32011
800.35425	1.35555
798.42568	1.39385
796.49712	1.39074
794.56855	1.35605
792.63999	1.32712
790.71143	1.31689
788.78286	1.33772
786.85430	1.37926
784.92573	1.39742
782.99717	1.38774
781.06860	1.37970
779.14004	1.36294
777.21147	1.35894
775.28291	1.41154
773.35435	1.48685
771.42578	1.48172
769.49722	1.39179
767.56865	1.32860
765.64009	1.28631
763.71152	1.21613
761.78296	1.13608
759.85439	1.11414
757.92583	1.15198
755.99727	1.16253
754.06870	1.11431
752.14014	1.06240
750.21157	1.04140
748.28301	1.06019
746.35444	1.13406
744.42588	1.20950
742.49731	1.08737
740.56875	0.89557
738.64019	0.77628
736.71162	0.70895
734.78306	0.64959
732.85449	0.60292
730.92593	0.54895
728.99736	0.42683
727.06880	0.29894
725.14023	0.22103
723.21167	0.17444
721.28311	0.15181
719.35454	0.16348
717.42598	0.18280
715.49741	0.14121
713.56885	-0.00471
711.64028	-0.27096
709.71172	-0.67167
707.78315	-0.53578
705.85459	-0.22748
703.92603	-0.14383
701.99746	-0.11594
700.06890	-0.07374
698.14033	-0.02069
696.21177	0.06263
694.28320	0.11104
692.35464	0.07679
690.42607	0.02282
688.49751	-0.01201
686.56895	-0.01134
684.64038	0.01728
682.71182	0.00484
680.78325	-0.06528
678.85469	-0.14842
676.92612	-0.20397
674.99756	-0.11677
673.06899	-0.00124
671.14043	-0.04439
669.21187	-0.09531
667.28330	-0.04840
665.35474	-0.00048
663.42617	-0.00002
661.49761	-0.00359
659.56904	-0.01803
657.64048	-0.03093
655.71191	0.01119
653.78335	0.05474
651.85479	0.07027
649.92622	0.05566
647.99766	0.00592
646.06909	-0.02793
644.14053	-0.00825
642.21196	-0.02693
640.28340	-0.09345
638.35483	-0.08508
636.42627	-0.04510
634.49771	-0.11111
632.56914	-0.23747
630.64058	-0.19399
628.71201	-0.06694
626.78345	-0.00474
624.85488	0.01257
622.92632	0.04718
620.99775	0.05789
619.06919	-0.00461
617.14062	-0.05969
615.21206	-0.07422
613.28350	-0.07262
611.35493	-0.00897
609.42637	0.06813
607.49780	0.07502
605.56924	0.04555
603.64067	0.02548
601.71211	0.00700
599.78354	-0.03012
597.85498	-0.03128
595.92642	0.06479
593.99785	0.13724
592.06929	0.08984
590.14072	0.07284
588.21216	0.12154
586.28359	0.15724
584.35503	0.12437
582.42646	0.08829
580.49790	0.08065
578.56934	0.08781
576.64077	0.08807
574.71221	0.08101
572.78364	0.05174
570.85508	-0.01586
568.92651	-0.06832
566.99795	-0.05449
565.06938	-0.03106
563.14082	-0.02017
561.21226	-0.00699
559.28369	-0.00838
557.35513	-0.05641
555.42656	-0.11911
553.49800	-0.13607
551.56943	-0.12373
549.64087	-0.08332
547.71230	-0.01292
545.78374	0.03485
543.85518	0.04231
541.92661	0.02045
539.99805	0.00244
538.06948	0.02944
536.14092	0.06110
534.21235	0.07097
532.28379	0.04893
530.35522	0.02064
528.42666	0.03780
526.49810	0.09527
524.56953	0.13564
522.64097	0.10357
520.71240	0.07852
518.78384	0.08260
516.85527	0.05351
514.92671	0.03923
512.99814	0.05632
511.06958	0.04885
509.14102	0.02502
507.21245	0.03078
505.28389	0.07426
503.35532	0.09023
501.42676	0.03113
499.49819	-0.01634
