3997.91411	0.06542
3995.98555	0.06644
3994.05698	0.06766
3992.12842	0.06794
3990.19985	0.06779
3988.27129	0.06808
3986.34272	0.06850
3984.41416	0.06864
3982.48560	0.06857
3980.55703	0.06862
3978.62847	0.06892
3976.69990	0.06924
3974.77134	0.06960
3972.84277	0.07006
3970.91421	0.07024
3968.98564	0.07017
3967.05708	0.07000
3965.12852	0.06956
3963.19995	0.06913
3961.27139	0.06924
3959.34282	0.06985
3957.41426	0.07051
3955.48569	0.07085
3953.55713	0.07073
3951.62856	0.07056
3949.70000	0.07084
3947.77144	0.07116
3945.84287	0.07088
3943.91431	0.07060
3941.98574	0.07083
3940.05718	0.07093
3938.12861	0.07063
3936.20005	0.07049
3934.27148	0.07080
3932.34292	0.07138
3930.41436	0.07177
3928.48579	0.07166
3926.55723	0.07134
3924.62866	0.07107
3922.70010	0.07069
3920.77153	0.07054
3918.84297	0.07080
3916.91440	0.07100
3914.98584	0.07058
3913.05728	0.06991
3911.12871	0.06964
3909.20015	0.06968
3907.27158	0.06978
3905.34302	0.07024
3903.41445	0.07086
3901.48589	0.07058
3899.55732	0.07005
3897.62876	0.07030
3895.70020	0.07059
3893.77163	0.07069
3891.84307	0.07093
3889.91450	0.07109
3887.98594	0.07090
3886.05737	0.07078
3884.12881	0.07062
3882.20024	0.07041
3880.27168	0.07075
3878.34312	0.07095
3876.41455	0.07046
3874.48599	0.07050
3872.55742	0.07145
3870.62886	0.07229
3868.70029	0.07270
3866.77173	0.07282
3864.84316	0.07292
3862.91460	0.07350
3860.98604	0.07415
3859.05747	0.07442
3857.12891	0.07455
3855.20034	0.07471
3853.27178	0.07516
3851.34321	0.07617
3849.41465	0.07655
3847.48608	0.07641
3845.55752	0.07652
3843.62896	0.07724
3841.70039	0.07832
3839.77183	0.07903
3837.84326	0.07919
3835.91470	0.07939
3833.98613	0.07990
3832.05757	0.08056
3830.12900	0.08149
3828.20044	0.08257
3826.27187	0.08376
3824.34331	0.08492
3822.41475	0.08599
3820.48618	0.08720
3818.55762	0.08757
3816.62905	0.08759
3814.70049	0.08848
3812.77192	0.08942
3810.84336	0.08998
3808.91479	0.09092
3806.98623	0.09265
3805.05767	0.09454
3803.12910	0.09587
3801.20054	0.09720
3799.27197	0.09833
3797.34341	0.09885
3795.41484	0.09956
3793.48628	0.10049
3791.55771	0.10137
3789.62915	0.10232
3787.70059	0.10354
3785.77202	0.10526
3783.84346	0.10727
3781.91489	0.10897
3779.98633	0.11041
3778.05776	0.11185
3776.12920	0.11310
3774.20063	0.11436
3772.27207	0.11593
3770.34351	0.11802
3768.41494	0.12055
3766.48638	0.12271
3764.55781	0.12433
3762.62925	0.12567
3760.70068	0.12723
3758.77212	0.12963
3756.84355	0.13219
3754.91499	0.13421
3752.98643	0.13648
3751.05786	0.13969
3749.12930	0.14401
3747.20073	0.14724
3745.27217	0.14896
3743.34360	0.15217
3741.41504	0.15641
3739.48647	0.15925
3737.55791	0.16199
3735.62935	0.16660
3733.70078	0.17355
3731.77222	0.17982
3729.84365	0.18411
3727.91509	0.18789
3725.98652	0.19302
3724.05796	0.19977
3722.12939	0.20681
3720.20083	0.21376
3718.27227	0.22090
3716.34370	0.22830
3714.41514	0.23566
3712.48657	0.24448
3710.55801	0.25749
3708.62944	0.27191
3706.70088	0.28390
3704.77231	0.29512
3702.84375	0.30783
3700.91519	0.32476
3698.98662	0.34411
3697.05806	0.36229
3695.12949	0.38090
3693.20093	0.40063
3691.27236	0.42208
3689.34380	0.44940
3687.41523	0.48362
3685.48667	0.51508
3683.55811	0.54238
3681.62954	0.57068
3679.70098	0.60203
3677.77241	0.63535
3675.84385	0.67472
3673.91528	0.72730
3671.98672	0.77053
3670.05815	0.80860
3668.12959	0.86174
3666.20103	0.91190
3664.27246	0.95382
3662.34390	0.99778
3660.41533	1.04488
3658.48677	1.09114
3656.55820	1.14015
3654.62964	1.19538
3652.70107	1.24209
3650.77251	1.28181
3648.84395	1.33646
3646.91538	1.40560
3644.98682	1.45774
3643.05825	1.49733
3641.12969	1.53716
3639.20112	1.58101
3637.27256	1.62535
3635.34399	1.66862
3633.41543	1.71153
3631.48687	1.75155
3629.55830	1.79251
3627.62974	1.84631
3625.70117	1.89677
3623.77261	1.93159
3621.84404	1.96559
3619.91548	2.00372
3617.98691	2.04842
3616.05835	2.09200
3614.12979	2.12913
3612.20122	2.16863
3610.27266	2.20924
3608.34409	2.24940
3606.41553	2.29037
3604.48696	2.32809
3602.55840	2.36223
3600.62983	2.39954
3598.70127	2.44059
3596.77271	2.48103
3594.84414	2.52282
3592.91558	2.56611
3590.98701	2.60566
3589.05845	2.64131
3587.12988	2.68360
3585.20132	2.73146
3583.27275	2.77261
3581.34419	2.80968
3579.41562	2.84897
3577.48706	2.89122
3575.55850	2.93311
3573.62993	2.97424
3571.70137	3.01546
3569.77280	3.05698
3567.84424	3.10027
3565.91567	3.15082
3563.98711	3.19954
3562.05854	3.24012
3560.12998	3.28264
3558.20142	3.32738
3556.27285	3.36997
3554.34429	3.41387
3552.41572	3.46343
3550.48716	3.51227
3548.55859	3.55671
3546.63003	3.60275
3544.70146	3.65161
3542.77290	3.69658
3540.84434	3.74041
3538.91577	3.78807
3536.98721	3.83623
3535.05864	3.88592
3533.13008	3.93566
3531.20151	3.98145
3529.27295	4.02528
3527.34438	4.07177
3525.41582	4.11874
3523.48726	4.16365
3521.55869	4.21251
3519.63013	4.26439
3517.70156	4.31411
3515.77300	4.36085
3513.84443	4.40547
3511.91587	4.45035
3509.98730	4.50095
3508.05874	4.55616
3506.13018	4.60523
3504.20161	4.64499
3502.27305	4.68470
3500.34448	4.72937
3498.41592	4.77247
3496.48735	4.81721
3494.55879	4.87220
3492.63022	4.93048
3490.70166	4.98056
3488.77310	5.02500
3486.84453	5.06919
3484.91597	5.11386
3482.98740	5.16252
3481.05884	5.21357
3479.13027	5.26202
3477.20171	5.31386
3475.27314	5.37118
3473.34458	5.42259
3471.41602	5.46323
3469.48745	5.50445
3467.55889	5.55074
3465.63032	5.59597
3463.70176	5.64434
3461.77319	5.69696
3459.84463	5.74711
3457.91606	5.79414
3455.98750	5.84222
3454.05894	5.89119
3452.13037	5.94390
3450.20181	6.00645
3448.27324	6.07251
3446.34468	6.13252
3444.41611	6.17880
3442.48755	6.21673
3440.55898	6.26181
3438.63042	6.31840
3436.70186	6.35661
3434.77329	6.37205
3432.84473	6.41749
3430.91616	6.49476
3428.98760	6.55271
3427.05903	6.57982
3425.13047	6.61310
3423.20190	6.67197
3421.27334	6.74422
3419.34478	6.80202
3417.41621	6.84688
3415.48765	6.91235
3413.55908	6.98513
3411.63052	7.03042
3409.70195	7.06240
3407.77339	7.10468
3405.84482	7.12479
3403.91626	7.12975
3401.98770	7.16228
3400.05913	7.21610
3398.13057	7.27501
3396.20200	7.34012
3394.27344	7.41220
3392.34487	7.47414
3390.41631	7.52303
3388.48774	7.56563
3386.55918	7.59999
3384.63062	7.61051
3382.70205	7.61901
3380.77349	7.64200
3378.84492	7.66648
3376.91636	7.69055
3374.98779	7.70953
3373.05923	7.74209
3371.13066	7.76830
3369.20210	7.79249
3367.27354	7.81218
3365.34497	7.80506
3363.41641	7.81609
3361.48784	7.85330
3359.55928	7.88788
3357.63071	7.90293
3355.70215	7.89400
3353.77358	7.87476
3351.84502	7.89367
3349.91646	7.93871
3347.98789	7.96250
3346.05933	7.96913
3344.13076	7.97873
3342.20220	8.02280
3340.27363	8.06503
3338.34507	8.02316
3336.41650	7.96129
3334.48794	7.99849
3332.55937	8.08118
3330.63081	8.10664
3328.70225	8.05162
3326.77368	7.96414
3324.84512	7.92478
3322.91655	7.96882
3320.98799	8.06480
3319.05942	8.10798
3317.13086	8.07840
3315.20229	8.04491
3313.27373	8.04893
3311.34517	8.07042
3309.41660	8.09361
3307.48804	8.14626
3305.55947	8.21812
3303.63091	8.25704
3301.70234	8.24071
3299.77378	8.22480
3297.84521	8.19681
3295.91665	8.16683
3293.98809	8.16729
3292.05952	8.14514
3290.13096	8.12646
3288.20239	8.16180
3286.27383	8.22029
3284.34526	8.23672
3282.41670	8.18935
3280.48813	8.15191
3278.55957	8.19610
3276.63101	8.26831
3274.70244	8.29164
3272.77388	8.29000
3270.84531	8.32935
3268.91675	8.39335
3266.98818	8.35634
3265.05962	8.22805
3263.13105	8.16659
3261.20249	8.22499
3259.27393	8.29913
3257.34536	8.27802
3255.41680	8.19924
3253.48823	8.18501
3251.55967	8.22775
3249.63110	8.22805
3247.70254	8.18855
3245.77397	8.16237
3243.84541	8.19861
3241.91685	8.24506
3239.98828	8.21205
3238.05972	8.13574
3236.13115	8.10775
3234.20259	8.18643
3232.27402	8.28135
3230.34546	8.26069
3228.41689	8.18717
3226.48833	8.12286
3224.55977	8.03020
3222.63120	7.95579
3220.70264	7.98424
3218.77407	8.05660
3216.84551	8.03475
3214.91694	7.94695
3212.98838	7.87582
3211.05981	7.83539
3209.13125	7.83710
3207.20269	7.85460
3205.27412	7.84298
3203.34556	7.82052
3201.41699	7.82057
3199.48843	7.79064
3197.55986	7.67283
3195.63130	7.54449
3193.70273	7.50158
3191.77417	7.49429
3189.84561	7.43553
3187.91704	7.36750
3185.98848	7.32622
3184.05991	7.28375
3182.13135	7.23813
3180.20278	7.18619
3178.27422	7.11471
3176.34565	7.04731
3174.41709	6.99307
3172.48853	6.93314
3170.55996	6.87148
3168.63140	6.83227
3166.70283	6.82713
3164.77427	6.82496
3162.84570	6.78545
3160.91714	6.71284
3158.98857	6.63613
3157.06001	6.55390
3155.13145	6.45570
3153.20288	6.36354
3151.27432	6.29461
3149.34575	6.23958
3147.41719	6.18558
3145.48862	6.12645
3143.56006	6.05552
3141.63149	5.98070
3139.70293	5.91677
3137.77437	5.85345
3135.84580	5.78045
3133.91724	5.70362
3131.98867	5.62230
3130.06011	5.54483
3128.13154	5.48532
3126.20298	5.43215
3124.27441	5.36707
3122.34585	5.29186
3120.41729	5.21465
3118.48872	5.13950
3116.56016	5.07046
3114.63159	5.00306
3112.70303	4.93059
3110.77446	4.85600
3108.84590	4.78401
3106.91733	4.71644
3104.98877	4.64858
3103.06021	4.57728
3101.13164	4.50843
3099.20308	4.44371
3097.27451	4.37975
3095.34595	4.31694
3093.41738	4.25631
3091.48882	4.19568
3089.56025	4.13072
3087.63169	4.06362
3085.70312	4.00087
3083.77456	3.94015
3081.84600	3.87799
3079.91743	3.81486
3077.98887	3.75150
3076.06030	3.69053
3074.13174	3.63198
3072.20317	3.57320
3070.27461	3.51339
3068.34604	3.45443
3066.41748	3.39915
3064.48892	3.34652
3062.56035	3.29274
3060.63179	3.23770
3058.70322	3.18293
3056.77466	3.12876
3054.84609	3.07603
3052.91753	3.02507
3050.98896	2.97562
3049.06040	2.92712
3047.13184	2.87817
3045.20327	2.82785
3043.27471	2.77776
3041.34614	2.73049
3039.41758	2.68546
3037.48901	2.63996
3035.56045	2.59398
3033.63188	2.54960
3031.70332	2.50597
3029.77476	2.46154
3027.84619	2.41762
3025.91763	2.37449
3023.98906	2.33180
3022.06050	2.29075
3020.13193	2.25105
3018.20337	2.21151
3016.27480	2.17283
3014.34624	2.13516
3012.41768	2.09749
3010.48911	2.06030
3008.56055	2.02405
3006.63198	1.98799
3004.70342	1.95242
3002.77485	1.91780
3000.84629	1.88352
2998.91772	1.84931
2996.98916	1.81560
2995.06060	1.78284
2993.13203	1.75147
2991.20347	1.72130
2989.27490	1.69131
2987.34634	1.66105
2985.41777	1.63111
2983.48921	1.60179
2981.56064	1.57304
2979.63208	1.54517
2977.70352	1.51805
2975.77495	1.49116
2973.84639	1.46411
2971.91782	1.43697
2969.98926	1.41057
2968.06069	1.38535
2966.13213	1.36073
2964.20356	1.33638
2962.27500	1.31259
2960.34644	1.28932
2958.41787	1.26608
2956.48931	1.24286
2954.56074	1.22012
2952.63218	1.19781
2950.70361	1.17585
2948.77505	1.15450
2946.84648	1.13373
2944.91792	1.11322
2942.98936	1.09289
2941.06079	1.07304
2939.13223	1.05373
2937.20366	1.03454
2935.27510	1.01526
2933.34653	0.99642
2931.41797	0.97851
2929.48940	0.96103
2927.56084	0.94356
2925.63228	0.92610
2923.70371	0.90852
2921.77515	0.89155
2919.84658	0.87594
2917.91802	0.86078
2915.98945	0.84509
2914.06089	0.82927
2912.13232	0.81419
2910.20376	0.79977
2908.27520	0.78547
2906.34663	0.77157
2904.41807	0.75839
2902.48950	0.74548
2900.56094	0.73258
2898.63237	0.71980
2896.70381	0.70721
2894.77524	0.69503
2892.84668	0.68352
2890.91812	0.67230
2888.98955	0.66116
2887.06099	0.65025
2885.13242	0.63939
2883.20386	0.62846
2881.27529	0.61761
2879.34673	0.60702
2877.41816	0.59693
2875.48960	0.58717
2873.56104	0.57754
2871.63247	0.56807
2869.70391	0.55827
2867.77534	0.54788
2865.84678	0.53745
2863.91821	0.52766
2861.98965	0.51870
2860.06108	0.51004
2858.13252	0.50111
2856.20396	0.49217
2854.27539	0.48354
2852.34683	0.47521
2850.41826	0.46732
2848.48970	0.45990
2846.56113	0.45283
2844.63257	0.44586
2842.70400	0.43896
2840.77544	0.43246
2838.84687	0.42654
2836.91831	0.42087
2834.98975	0.41511
2833.06118	0.40917
2831.13262	0.40317
2829.20405	0.39736
2827.27549	0.39152
2825.34692	0.38544
2823.41836	0.37951
2821.48979	0.37400
2819.56123	0.36870
2817.63267	0.36334
2815.70410	0.35799
2813.77554	0.35264
2811.84697	0.34722
2809.91841	0.34192
2807.98984	0.33688
2806.06128	0.33212
2804.13271	0.32758
2802.20415	0.32307
2800.27559	0.31839
2798.34702	0.31355
2796.41846	0.30888
2794.48989	0.30456
2792.56133	0.30042
2790.63276	0.29630
2788.70420	0.29223
2786.77563	0.28825
2784.84707	0.28428
2782.91851	0.28028
2780.98994	0.27634
2779.06138	0.27257
2777.13281	0.26892
2775.20425	0.26526
2773.27568	0.26182
2771.34712	0.25859
2769.41855	0.25519
2767.48999	0.25168
2765.56143	0.24836
2763.63286	0.24521
2761.70430	0.24213
2759.77573	0.23918
2757.84717	0.23645
2755.91860	0.23387
2753.99004	0.23123
2752.06147	0.22844
2750.13291	0.22565
2748.20435	0.22297
2746.27578	0.22039
2744.34722	0.21785
2742.41865	0.21531
2740.49009	0.21285
2738.56152	0.21057
2736.63296	0.20847
2734.70439	0.20635
2732.77583	0.20395
2730.84727	0.20155
2728.91870	0.19944
2726.99014	0.19737
2725.06157	0.19522
2723.13301	0.19318
2721.20444	0.19145
2719.27588	0.18994
2717.34731	0.18828
2715.41875	0.18642
2713.49019	0.18459
2711.56162	0.18294
2709.63306	0.18141
2707.70449	0.17980
2705.77593	0.17813
2703.84736	0.17661
2701.91880	0.17518
2699.99023	0.17379
2698.06167	0.17245
2696.13311	0.17112
2694.20454	0.16966
2692.27598	0.16810
2690.34741	0.16673
2688.41885	0.16567
2686.49028	0.16465
2684.56172	0.16354
2682.63315	0.16252
2680.70459	0.16155
2678.77603	0.16044
2676.84746	0.15931
2674.91890	0.15829
2672.99033	0.15726
2671.06177	0.15620
2669.13320	0.15515
2667.20464	0.15419
2665.27607	0.15349
2663.34751	0.15292
2661.41895	0.15229
2659.49038	0.15151
2657.56182	0.15059
2655.63325	0.14967
2653.70469	0.14889
2651.77612	0.14819
2649.84756	0.14760
2647.91899	0.14711
2645.99043	0.14667
2644.06187	0.14631
2642.13330	0.14595
2640.20474	0.14543
2638.27617	0.14488
2636.34761	0.14435
2634.41904	0.14380
2632.49048	0.14337
2630.56191	0.14308
2628.63335	0.14279
2626.70479	0.14245
2624.77622	0.14219
2622.84766	0.14205
2620.91909	0.14198
2618.99053	0.14191
2617.06196	0.14184
2615.13340	0.14160
2613.20483	0.14127
2611.27627	0.14125
2609.34771	0.14142
2607.41914	0.14143
2605.49058	0.14130
2603.56201	0.14117
2601.63345	0.14114
2599.70488	0.14121
2597.77632	0.14128
2595.84775	0.14129
2593.91919	0.14132
2591.99062	0.14141
2590.06206	0.14158
2588.13350	0.14185
2586.20493	0.14218
2584.27637	0.14254
2582.34780	0.14291
2580.41924	0.14331
2578.49067	0.14368
2576.56211	0.14391
2574.63354	0.14402
2572.70498	0.14420
2570.77642	0.14457
2568.84785	0.14508
2566.91929	0.14567
2564.99072	0.14620
2563.06216	0.14657
2561.13359	0.14696
2559.20503	0.14747
2557.27646	0.14799
2555.34790	0.14852
2553.41934	0.14903
2551.49077	0.14952
2549.56221	0.15005
2547.63364	0.15057
2545.70508	0.15109
2543.77651	0.15177
2541.84795	0.15254
2539.91938	0.15318
2537.99082	0.15375
2536.06226	0.15445
2534.13369	0.15522
2532.20513	0.15586
2530.27656	0.15643
2528.34800	0.15712
2526.41943	0.15783
2524.49087	0.15853
2522.56230	0.15935
2520.63374	0.16018
2518.70518	0.16094
2516.77661	0.16164
2514.84805	0.16238
2512.91948	0.16330
2510.99092	0.16428
2509.06235	0.16519
2507.13379	0.16606
2505.20522	0.16679
2503.27666	0.16739
2501.34810	0.16808
2499.41953	0.16906
2497.49097	0.17012
2495.56240	0.17093
2493.63384	0.17157
2491.70527	0.17230
2489.77671	0.17320
2487.84814	0.17420
2485.91958	0.17513
2483.99102	0.17595
2482.06245	0.17684
2480.13389	0.17784
2478.20532	0.17887
2476.27676	0.17991
2474.34819	0.18098
2472.41963	0.18199
2470.49106	0.18283
2468.56250	0.18354
2466.63394	0.18426
2464.70537	0.18510
2462.77681	0.18616
2460.84824	0.18732
2458.91968	0.18836
2456.99111	0.18932
2455.06255	0.19020
2453.13398	0.19084
2451.20542	0.19151
2449.27686	0.19258
2447.34829	0.19386
2445.41973	0.19501
2443.49116	0.19601
2441.56260	0.19695
2439.63403	0.19784
2437.70547	0.19877
2435.77690	0.19983
2433.84834	0.20100
2431.91978	0.20216
2429.99121	0.20317
2428.06265	0.20408
2426.13408	0.20515
2424.20552	0.20643
2422.27695	0.20760
2420.34839	0.20861
2418.41982	0.20971
2416.49126	0.21091
2414.56270	0.21211
2412.63413	0.21323
2410.70557	0.21426
2408.77700	0.21532
2406.84844	0.21654
2404.91987	0.21795
2402.99131	0.21930
2401.06274	0.22046
2399.13418	0.22158
2397.20562	0.22278
2395.27705	0.22398
2393.34849	0.22520
2391.41992	0.22648
2389.49136	0.22775
2387.56279	0.22896
2385.63423	0.23015
2383.70566	0.23155
2381.77710	0.23328
2379.84854	0.23513
2377.91997	0.23680
2375.99141	0.23835
2374.06284	0.24014
2372.13428	0.24225
2370.20571	0.24442
2368.27715	0.24658
2366.34858	0.24874
2364.42002	0.25018
2362.49146	0.25091
2360.56289	0.25185
2358.63433	0.25314
2356.70576	0.25519
2354.77720	0.25770
2352.84863	0.25939
2350.92007	0.26034
2348.99150	0.26119
2347.06294	0.26192
2345.13437	0.26278
2343.20581	0.26420
2341.27725	0.26572
2339.34868	0.26714
2337.42012	0.26932
2335.49155	0.27196
2333.56299	0.27391
2331.63442	0.27550
2329.70586	0.27742
2327.77729	0.27921
2325.84873	0.28054
2323.92017	0.28185
2321.99160	0.28316
2320.06304	0.28438
2318.13447	0.28588
2316.20591	0.28739
2314.27734	0.28865
2312.34878	0.29002
2310.42021	0.29165
2308.49165	0.29330
2306.56309	0.29492
2304.63452	0.29662
2302.70596	0.29830
2300.77739	0.29991
2298.84883	0.30160
2296.92026	0.30332
2294.99170	0.30505
2293.06313	0.30684
2291.13457	0.30873
2289.20601	0.31062
2287.27744	0.31247
2285.34888	0.31429
2283.42031	0.31614
2281.49175	0.31809
2279.56318	0.32013
2277.63462	0.32212
2275.70605	0.32414
2273.77749	0.32624
2271.84893	0.32834
2269.92036	0.33047
2267.99180	0.33264
2266.06323	0.33471
2264.13467	0.33665
2262.20610	0.33856
2260.27754	0.34061
2258.34897	0.34280
2256.42041	0.34497
2254.49185	0.34706
2252.56328	0.34909
2250.63472	0.35121
2248.70615	0.35343
2246.77759	0.35568
2244.84902	0.35786
2242.92046	0.35996
2240.99189	0.36217
2239.06333	0.36444
2237.13477	0.36655
2235.20620	0.36861
2233.27764	0.37085
2231.34907	0.37316
2229.42051	0.37540
2227.49194	0.37766
2225.56338	0.37987
2223.63481	0.38203
2221.70625	0.38426
2219.77769	0.38651
2217.84912	0.38869
2215.92056	0.39084
2213.99199	0.39290
2212.06343	0.39493
2210.13486	0.39704
2208.20630	0.39917
2206.27773	0.40131
2204.34917	0.40346
2202.42061	0.40546
2200.49204	0.40726
2198.56348	0.40908
2196.63491	0.41106
2194.70635	0.41316
2192.77778	0.41532
2190.84922	0.41739
2188.92065	0.41916
2186.99209	0.42075
2185.06353	0.42245
2183.13496	0.42422
2181.20640	0.42595
2179.27783	0.42769
2177.34927	0.42943
2175.42070	0.43094
2173.49214	0.43222
2171.56357	0.43359
2169.63501	0.43510
2167.70645	0.43657
2165.77788	0.43791
2163.84932	0.43913
2161.92075	0.44027
2159.99219	0.44139
2158.06362	0.44245
2156.13506	0.44341
2154.20649	0.44433
2152.27793	0.44525
2150.34937	0.44609
2148.42080	0.44676
2146.49224	0.44729
2144.56367	0.44783
2142.63511	0.44843
2140.70654	0.44898
2138.77798	0.44935
2136.84941	0.44952
2134.92085	0.44960
2132.99229	0.44963
2131.06372	0.44957
2129.13516	0.44943
2127.20659	0.44931
2125.27803	0.44916
2123.34946	0.44881
2121.42090	0.44834
2119.49233	0.44788
2117.56377	0.44739
2115.63521	0.44680
2113.70664	0.44608
2111.77808	0.44528
2109.84951	0.44434
2107.92095	0.44329
2105.99238	0.44230
2104.06382	0.44135
2102.13525	0.44025
2100.20669	0.43897
2098.27812	0.43761
2096.34956	0.43622
2094.42100	0.43476
2092.49243	0.43325
2090.56387	0.43159
2088.63530	0.42985
2086.70674	0.42832
2084.77817	0.42684
2082.84961	0.42512
2080.92104	0.42317
2078.99248	0.42120
2077.06392	0.41933
2075.13535	0.41738
2073.20679	0.41517
2071.27822	0.41286
2069.34966	0.41063
2067.42109	0.40849
2065.49253	0.40633
2063.56396	0.40407
2061.63540	0.40178
2059.70684	0.39948
2057.77827	0.39704
2055.84971	0.39446
2053.92114	0.39187
2051.99258	0.38938
2050.06401	0.38688
2048.13545	0.38432
2046.20688	0.38171
2044.27832	0.37903
2042.34976	0.37635
2040.42119	0.37380
2038.49263	0.37124
2036.56406	0.36858
2034.63550	0.36589
2032.70693	0.36315
2030.77837	0.36037
2028.84980	0.35759
2026.92124	0.35487
2024.99268	0.35229
2023.06411	0.34983
2021.13555	0.34733
2019.20698	0.34472
2017.27842	0.34200
2015.34985	0.33910
2013.42129	0.33620
2011.49272	0.33349
2009.56416	0.33095
2007.63560	0.32839
2005.70703	0.32573
2003.77847	0.32296
2001.84990	0.32023
1999.92134	0.31763
1997.99277	0.31506
1996.06421	0.31246
1994.13564	0.30987
1992.20708	0.30743
1990.27852	0.30511
1988.34995	0.30278
1986.42139	0.30029
1984.49282	0.29778
1982.56426	0.29543
1980.63569	0.29318
1978.70713	0.29102
1976.77856	0.28886
1974.85000	0.28650
1972.92144	0.28410
1970.99287	0.28197
1969.06431	0.28000
1967.13574	0.27794
1965.20718	0.27579
1963.27861	0.27380
1961.35005	0.27199
1959.42148	0.27016
1957.49292	0.26831
1955.56436	0.26646
1953.63579	0.26464
1951.70723	0.26301
1949.77866	0.26146
1947.85010	0.25979
1945.92153	0.25816
1943.99297	0.25672
1942.06440	0.25529
1940.13584	0.25377
1938.20728	0.25241
1936.27871	0.25118
1934.35015	0.24986
1932.42158	0.24854
1930.49302	0.24736
1928.56445	0.24631
1926.63589	0.24524
1924.70732	0.24413
1922.77876	0.24302
1920.85020	0.24195
1918.92163	0.24108
1916.99307	0.24024
1915.06450	0.23929
1913.13594	0.23838
1911.20737	0.23766
1909.27881	0.23703
1907.35024	0.23634
1905.42168	0.23561
1903.49312	0.23497
1901.56455	0.23442
1899.63599	0.23396
1897.70742	0.23361
1895.77886	0.23324
1893.85029	0.23282
1891.92173	0.23240
1889.99316	0.23214
1888.06460	0.23187
1886.13604	0.23156
1884.20747	0.23133
1882.27891	0.23118
1880.35034	0.23098
1878.42178	0.23080
1876.49321	0.23079
1874.56465	0.23084
1872.63608	0.23092
1870.70752	0.23104
1868.77896	0.23138
1866.85039	0.23168
1864.92183	0.23162
1862.99326	0.23158
1861.06470	0.23190
1859.13613	0.23243
1857.20757	0.23286
1855.27900	0.23323
1853.35044	0.23355
1851.42187	0.23398
1849.49331	0.23454
1847.56475	0.23516
1845.63618	0.23586
1843.70762	0.23675
1841.77905	0.23757
1839.85049	0.23810
1837.92192	0.23884
1835.99336	0.23973
1834.06479	0.24067
1832.13623	0.24168
1830.20767	0.24296
1828.27910	0.24427
1826.35054	0.24524
1824.42197	0.24641
1822.49341	0.24778
1820.56484	0.24921
1818.63628	0.25063
1816.70771	0.25212
1814.77915	0.25363
1812.85059	0.25530
1810.92202	0.25726
1808.99346	0.25928
1807.06489	0.26126
1805.13633	0.26322
1803.20776	0.26540
1801.27920	0.26783
1799.35063	0.27062
1797.42207	0.27315
1795.49351	0.27549
1793.56494	0.27817
1791.63638	0.28176
1789.70781	0.28536
1787.77925	0.28807
1785.85068	0.29114
1783.92212	0.29479
1781.99355	0.29871
1780.06499	0.30277
1778.13643	0.30696
1776.20786	0.31092
1774.27930	0.31519
1772.35073	0.32099
1770.42217	0.32723
1768.49360	0.33256
1766.56504	0.33777
1764.63647	0.34302
1762.70791	0.34867
1760.77935	0.35600
1758.85078	0.36306
1756.92222	0.37012
1754.99365	0.37785
1753.06509	0.38483
1751.13652	0.39294
1749.20796	0.40321
1747.27939	0.41358
1745.35083	0.42276
1743.42227	0.43239
1741.49370	0.44298
1739.56514	0.45539
1737.63657	0.46778
1735.70801	0.47849
1733.77944	0.49455
1731.85088	0.51425
1729.92231	0.52996
1727.99375	0.54570
1726.06519	0.56258
1724.13662	0.58086
1722.20806	0.60039
1720.27949	0.61826
1718.35093	0.63907
1716.42236	0.67019
1714.49380	0.70059
1712.56523	0.72558
1710.63667	0.74959
1708.70811	0.77504
1706.77954	0.80373
1704.85098	0.83803
1702.92241	0.86861
1700.99385	0.89856
1699.06528	0.94316
1697.13672	0.98432
1695.20815	1.02639
1693.27959	1.06749
1691.35103	1.10070
1689.42246	1.13862
1687.49390	1.17816
1685.56533	1.21583
1683.63677	1.27378
1681.70820	1.33487
1679.77964	1.37479
1677.85107	1.41263
1675.92251	1.45575
1673.99395	1.50831
1672.06538	1.55460
1670.13682	1.60007
1668.20825	1.65897
1666.27969	1.70591
1664.35112	1.74448
1662.42256	1.79251
1660.49399	1.84662
1658.56543	1.88922
1656.63687	1.92435
1654.70830	1.95795
1652.77974	2.01277
1650.85117	2.06390
1648.92261	2.08374
1646.99404	2.11263
1645.06548	2.14681
1643.13691	2.16876
1641.20835	2.18214
1639.27979	2.19453
1637.35122	2.20443
1635.42266	2.20841
1633.49409	2.20359
1631.56553	2.19256
1629.63696	2.17816
1627.70840	2.15363
1625.77983	2.12481
1623.85127	2.08795
1621.92271	2.04192
1619.99414	2.00099
1618.06558	1.96012
1616.13701	1.89942
1614.20845	1.83823
1612.27988	1.79322
1610.35132	1.74510
1608.42275	1.69131
1606.49419	1.63871
1604.56562	1.59078
1602.63706	1.54390
1600.70850	1.49754
1598.77993	1.45482
1596.85137	1.41435
1594.92280	1.37462
1592.99424	1.33607
1591.06567	1.30038
1589.13711	1.26645
1587.20854	1.23457
1585.27998	1.20472
1583.35142	1.17623
1581.42285	1.14987
1579.49429	1.12712
1577.56572	1.10598
1575.63716	1.07949
1573.70859	1.05611
1571.78003	1.04066
1569.85146	1.02399
1567.92290	1.00530
1565.99434	0.99054
1564.06577	0.97777
1562.13721	0.96686
1560.20864	0.95739
1558.28008	0.94184
1556.35151	0.92873
1554.42295	0.92106
1552.49438	0.91317
1550.56582	0.90487
1548.63726	0.89579
1546.70869	0.88702
1544.78013	0.87802
1542.85156	0.86798
1540.92300	0.85593
1538.99443	0.83973
1537.06587	0.82836
1535.13730	0.82078
1533.20874	0.81074
1531.28018	0.79949
1529.35161	0.79108
1527.42305	0.78337
1525.49448	0.77547
1523.56592	0.76839
1521.63735	0.76112
1519.70879	0.75341
1517.78022	0.74692
1515.85166	0.73993
1513.92310	0.73286
1511.99453	0.72693
1510.06597	0.72170
1508.13740	0.71671
1506.20884	0.70931
1504.28027	0.70272
1502.35171	0.69871
1500.42314	0.69514
1498.49458	0.69154
1496.56602	0.68761
1494.63745	0.68372
1492.70889	0.68057
1490.78032	0.67771
1488.85176	0.67437
1486.92319	0.67113
1484.99463	0.66842
1483.06606	0.66621
1481.13750	0.66426
1479.20894	0.66249
1477.28037	0.66110
1475.35181	0.65988
1473.42324	0.65842
1471.49468	0.65627
1469.56611	0.65396
1467.63755	0.65185
1465.70898	0.64973
1463.78042	0.64741
1461.85186	0.64535
1459.92329	0.64375
1457.99473	0.64203
1456.06616	0.63956
1454.13760	0.63705
1452.20903	0.63479
1450.28047	0.63240
1448.35190	0.63000
1446.42334	0.62755
1444.49478	0.62521
1442.56621	0.62319
1440.63765	0.62139
1438.70908	0.61964
1436.78052	0.61755
1434.85195	0.61533
1432.92339	0.61347
1430.99482	0.61188
1429.06626	0.61036
1427.13770	0.60891
1425.20913	0.60768
1423.28057	0.60666
1421.35200	0.60572
1419.42344	0.60460
1417.49487	0.60328
1415.56631	0.60198
1413.63774	0.60073
1411.70918	0.59946
1409.78062	0.59835
1407.85205	0.59738
1405.92349	0.59636
1403.99492	0.59531
1402.06636	0.59429
1400.13779	0.59321
1398.20923	0.59190
1396.28066	0.59029
1394.35210	0.58822
1392.42354	0.58600
1390.49497	0.58415
1388.56641	0.58247
1386.63784	0.58058
1384.70928	0.57867
1382.78071	0.57687
1380.85215	0.57507
1378.92358	0.57358
1376.99502	0.57253
1375.06646	0.57164
1373.13789	0.57067
1371.20933	0.56976
1369.28076	0.56895
1367.35220	0.56811
1365.42363	0.56723
1363.49507	0.56637
1361.56650	0.56552
1359.63794	0.56452
1357.70937	0.56334
1355.78081	0.56215
1353.85225	0.56116
1351.92368	0.56027
1349.99512	0.55936
1348.06655	0.55846
1346.13799	0.55752
1344.20942	0.55657
1342.28086	0.55563
1340.35229	0.55473
1338.42373	0.55386
1336.49517	0.55305
1334.56660	0.55227
1332.63804	0.55154
1330.70947	0.55090
1328.78091	0.55043
1326.85234	0.55013
1324.92378	0.54981
1322.99521	0.54942
1321.06665	0.54905
1319.13809	0.54861
1317.20952	0.54791
1315.28096	0.54715
1313.35239	0.54652
1311.42383	0.54592
1309.49526	0.54514
1307.56670	0.54431
1305.63813	0.54357
1303.70957	0.54277
1301.78101	0.54180
1299.85244	0.54082
1297.92388	0.53999
1295.99531	0.53924
1294.06675	0.53847
1292.13818	0.53769
1290.20962	0.53697
1288.28105	0.53637
1286.35249	0.53582
1284.42393	0.53521
1282.49536	0.53451
1280.56680	0.53385
1278.63823	0.53315
1276.70967	0.53240
1274.78110	0.53174
1272.85254	0.53114
1270.92397	0.53057
1268.99541	0.53000
1267.06685	0.52948
1265.13828	0.52904
1263.20972	0.52858
1261.28115	0.52804
1259.35259	0.52755
1257.42402	0.52721
1255.49546	0.52707
1253.56689	0.52692
1251.63833	0.52657
1249.70977	0.52620
1247.78120	0.52601
1245.85264	0.52580
1243.92407	0.52533
1241.99551	0.52470
1240.06694	0.52405
1238.13838	0.52330
1236.20981	0.52241
1234.28125	0.52144
1232.35269	0.52044
1230.42412	0.51953
1228.49556	0.51868
1226.56699	0.51779
1224.63843	0.51691
1222.70986	0.51604
1220.78130	0.51508
1218.85273	0.51411
1216.92417	0.51339
1214.99561	0.51289
1213.06704	0.51233
1211.13848	0.51175
1209.20991	0.51128
1207.28135	0.51083
1205.35278	0.51032
1203.42422	0.50977
1201.49565	0.50912
1199.56709	0.50841
1197.63853	0.50781
1195.70996	0.50725
1193.78140	0.50669
1191.85283	0.50619
1189.92427	0.50574
1187.99570	0.50524
1186.06714	0.50491
1184.13857	0.50493
1182.21001	0.50518
1180.28145	0.50562
1178.35288	0.50621
1176.42432	0.50679
1174.49575	0.50746
1172.56719	0.50826
1170.63862	0.50892
1168.71006	0.50941
1166.78149	0.51000
1164.85293	0.51072
1162.92437	0.51129
1160.99580	0.51162
1159.06724	0.51173
1157.13867	0.51151
1155.21011	0.51090
1153.28154	0.50984
1151.35298	0.50823
1149.42441	0.50615
1147.49585	0.50390
1145.56729	0.50156
1143.63872	0.49899
1141.71016	0.49648
1139.78159	0.49433
1137.85303	0.49245
1135.92446	0.49083
1133.99590	0.48948
1132.06733	0.48828
1130.13877	0.48730
1128.21021	0.48649
1126.28164	0.48573
1124.35308	0.48500
1122.42451	0.48438
1120.49595	0.48392
1118.56738	0.48380
1116.63882	0.48397
1114.71025	0.48417
1112.78169	0.48443
1110.85312	0.48506
1108.92456	0.48592
1106.99600	0.48674
1105.06743	0.48760
1103.13887	0.48863
1101.21030	0.48988
1099.28174	0.49143
1097.35317	0.49345
1095.42461	0.49610
1093.49604	0.49952
1091.56748	0.50387
1089.63892	0.50949
1087.71035	0.51649
1085.78179	0.52436
1083.85322	0.53233
1081.92466	0.53966
1079.99609	0.54521
1078.06753	0.54792
1076.13896	0.54764
1074.21040	0.54497
1072.28184	0.54048
1070.35327	0.53439
1068.42471	0.52741
1066.49614	0.52056
1064.56758	0.51455
1062.63901	0.50955
1060.71045	0.50510
1058.78188	0.50094
1056.85332	0.49712
1054.92476	0.49371
1052.99619	0.49086
1051.06763	0.48866
1049.13906	0.48720
1047.21050	0.48637
1045.28193	0.48594
1043.35337	0.48581
1041.42480	0.48592
1039.49624	0.48615
1037.56768	0.48638
1035.63911	0.48635
1033.71055	0.48583
1031.78198	0.48501
1029.85342	0.48406
1027.92485	0.48306
1025.99629	0.48230
1024.06772	0.48187
1022.13916	0.48169
1020.21060	0.48173
1018.28203	0.48207
1016.35347	0.48256
1014.42490	0.48283
1012.49634	0.48288
1010.56777	0.48304
1008.63921	0.48366
1006.71064	0.48487
1004.78208	0.48651
1002.85352	0.48834
1000.92495	0.49058
998.99639	0.49369
997.06782	0.49753
995.13926	0.50151
993.21069	0.50524
991.28213	0.50840
989.35356	0.51065
987.42500	0.51186
985.49644	0.51242
983.56787	0.51276
981.63931	0.51313
979.71074	0.51387
977.78218	0.51525
975.85361	0.51731
973.92505	0.51989
971.99648	0.52289
970.06792	0.52631
968.13936	0.53006
966.21079	0.53404
964.28223	0.53833
962.35366	0.54298
960.42510	0.54793
958.49653	0.55321
956.56797	0.55882
954.63940	0.56467
952.71084	0.57076
950.78228	0.57703
948.85371	0.58335
946.92515	0.58971
944.99658	0.59604
943.06802	0.60207
941.13945	0.60786
939.21089	0.61356
937.28232	0.61899
935.35376	0.62439
933.42520	0.63015
931.49663	0.63597
929.56807	0.64152
927.63950	0.64701
925.71094	0.65249
923.78237	0.65812
921.85381	0.66474
919.92524	0.67174
917.99668	0.67794
916.06812	0.68434
914.13955	0.69211
912.21099	0.70046
910.28242	0.70844
908.35386	0.71619
906.42529	0.72412
904.49673	0.73238
902.56816	0.74118
900.63960	0.75036
898.71104	0.75954
896.78247	0.76872
894.85391	0.77791
892.92534	0.78757
890.99678	0.79782
889.06821	0.80796
887.13965	0.81860
885.21108	0.83022
883.28252	0.84151
881.35396	0.85192
879.42539	0.86268
877.49683	0.87449
875.56826	0.88696
873.63970	0.89886
871.71113	0.90944
869.78257	0.92011
867.85400	0.93228
865.92544	0.94446
863.99687	0.95484
862.06831	0.96531
860.13975	0.97765
858.21118	0.99033
856.28262	1.00169
854.35405	1.01159
852.42549	1.02091
850.49692	1.03184
848.56836	1.04497
846.63979	1.05706
844.71123	1.06691
842.78267	1.07659
840.85410	1.08744
838.92554	1.09965
836.99697	1.11238
835.06841	1.12580
833.13984	1.13946
831.21128	1.15079
829.28271	1.15933
827.35415	1.16504
825.42559	1.17190
823.49702	1.18339
821.56846	1.19260
819.63989	1.20000
817.71133	1.20933
815.78276	1.21753
813.85420	1.22451
811.92563	1.22686
809.99707	1.23090
808.06851	1.25016
806.13994	1.27435
804.21138	1.28556
802.28281	1.29083
800.35425	1.30111
798.42568	1.31104
796.49712	1.31765
794.56855	1.33774
792.63999	1.37753
790.71143	1.41181
788.78286	1.42713
786.85430	1.42215
784.92573	1.41705
782.99717	1.43361
781.06860	1.41802
779.14004	1.36184
777.21147	1.29497
775.28291	1.24488
773.35435	1.22659
771.42578	1.21274
769.49722	1.20016
767.56865	1.19788
765.64009	1.19494
763.71152	1.22562
761.78296	1.29711
759.85439	1.27346
757.92583	1.12800
755.99727	1.03288
754.06870	1.03399
752.14014	1.06650
750.21157	1.04179
748.28301	0.98936
746.35444	0.96629
744.42588	0.95017
742.49731	0.89484
740.56875	0.82648
738.64019	0.78257
736.71162	0.73339
734.78306	0.65858
732.85449	0.58863
730.92593	0.54527
728.99736	0.50205
727.06880	0.38194
725.14023	0.17687
723.21167	0.05769
721.28311	0.09714
719.35454	0.17131
717.42598	0.11311
715.49741	-0.08496
713.56885	-0.13472
711.64028	-0.01979
709.71172	0.09374
707.78315	0.13240
705.85459	0.05291
703.92603	-0.04922
701.99746	-0.09604
700.06890	-0.02045
698.14033	0.07472
696.21177	0.10044
694.28320	0.08336
692.35464	0.07231
690.42607	0.15074
688.49751	0.26367
686.56895	0.28525
684.64038	0.19350
682.71182	0.11331
680.78325	0.09624
678.85469	0.09461
676.92612	0.06838
674.99756	0.03686
673.06899	0.01349
671.14043	-0.01424
669.21187	0.00775
667.28330	0.07646
665.35474	0.13323
663.42617	0.17699
661.49761	0.18164
659.56904	0.13655
657.64048	0.10155
655.71191	0.10230
653.78335	0.10717
651.85479	0.07594
649.92622	0.05664
647.99766	0.05684
646.06909	0.04699
644.14053	0.01821
642.21196	0.00078
640.28340	0.00591
638.35483	0.01989
636.42627	0.03111
634.49771	0.03531
632.56914	0.05415
630.64058	0.08895
628.71201	0.08858
626.78345	0.05239
624.85488	0.05075
622.92632	0.09737
620.99775	0.11794
619.06919	0.10838
617.14062	0.14128
615.21206	0.23621
613.28350	0.36790
611.35493	0.39357
609.42637	0.25761
607.49780	0.15113
605.56924	0.13053
603.64067	0.15608
601.71211	0.16281
599.78354	0.14022
597.85498	0.14047
595.92642	0.15190
593.99785	0.13550
592.06929	0.11955
590.14072	0.11390
588.21216	0.10653
586.28359	0.10092
584.35503	0.10163
582.42646	0.10551
580.49790	0.11986
578.56934	0.11652
576.64077	0.07799
574.71221	0.06397
572.78364	0.08936
570.85508	0.12431
568.92651	0.12675
566.99795	0.08620
565.06938	0.05263
563.14082	0.01896
561.21226	-0.01086
559.28369	0.02643
557.35513	0.11882
555.42656	0.14381
553.49800	0.11659
551.56943	0.13782
549.64087	0.16397
547.71230	0.13108
545.78374	0.10778
543.85518	0.14221
541.92661	0.19659
539.99805	0.19959
538.06948	0.16680
536.14092	0.15956
534.21235	0.16890
532.28379	0.15767
530.35522	0.13996
528.42666	0.14801
526.49810	0.16986
524.56953	0.16577
522.64097	0.15201
520.71240	0.18523
518.78384	0.25391
516.85527	0.26563
514.92671	0.21956
512.99814	0.20531
511.06958	0.20815
509.14102	0.15123
507.21245	0.06571
505.28389	0.02150
503.35532	0.04704
501.42676	0.10465
499.49819	0.12565
