3997.91411	0.06919
3995.98555	0.06926
3994.05698	0.06940
3992.12842	0.06964
3990.19985	0.07010
3988.27129	0.07055
3986.34272	0.07063
3984.41416	0.07061
3982.48560	0.07067
3980.55703	0.07098
3978.62847	0.07161
3976.69990	0.07209
3974.77134	0.07236
3972.84277	0.07278
3970.91421	0.07332
3968.98564	0.07378
3967.05708	0.07384
3965.12852	0.07366
3963.19995	0.07402
3961.27139	0.07477
3959.34282	0.07489
3957.41426	0.07408
3955.48569	0.07333
3953.55713	0.07355
3951.62856	0.07458
3949.70000	0.07576
3947.77144	0.07664
3945.84287	0.07685
3943.91431	0.07666
3941.98574	0.07637
3940.05718	0.07536
3938.12861	0.07414
3936.20005	0.07375
3934.27148	0.07441
3932.34292	0.07588
3930.41436	0.07690
3928.48579	0.07657
3926.55723	0.07620
3924.62866	0.07660
3922.70010	0.07645
3920.77153	0.07575
3918.84297	0.07604
3916.91440	0.07668
3914.98584	0.07601
3913.05728	0.07455
3911.12871	0.07375
3909.20015	0.07396
3907.27158	0.07550
3905.34302	0.07876
3903.41445	0.08239
3901.48589	0.08352
3899.55732	0.08158
3897.62876	0.07838
3895.70020	0.07614
3893.77163	0.07624
3891.84307	0.07797
3889.91450	0.07818
3887.98594	0.07690
3886.05737	0.07782
3884.12881	0.08025
3882.20024	0.08129
3880.27168	0.08093
3878.34312	0.07900
3876.41455	0.07740
3874.48599	0.07854
3872.55742	0.08126
3870.62886	0.08369
3868.70029	0.08478
3866.77173	0.08412
3864.84316	0.08454
3862.91460	0.08558
3860.98604	0.08386
3859.05747	0.08185
3857.12891	0.08266
3855.20034	0.08600
3853.27178	0.09075
3851.34321	0.09185
3849.41465	0.08732
3847.48608	0.08349
3845.55752	0.08296
3843.62896	0.08549
3841.70039	0.08940
3839.77183	0.09323
3837.84326	0.09563
3835.91470	0.09455
3833.98613	0.09189
3832.05757	0.09032
3830.12900	0.08950
3828.20044	0.08934
3826.27187	0.09052
3824.34331	0.09248
3822.41475	0.09514
3820.48618	0.09913
3818.55762	0.10122
3816.62905	0.10085
3814.70049	0.09937
3812.77192	0.09663
3810.84336	0.09495
3808.91479	0.09569
3806.98623	0.09891
3805.05767	0.10251
3803.12910	0.10510
3801.20054	0.10801
3799.27197	0.10937
3797.34341	0.10883
3795.41484	0.10795
3793.48628	0.10623
3791.55771	0.10496
3789.62915	0.10513
3787.70059	0.10650
3785.77202	0.10895
3783.84346	0.11154
3781.91489	0.11347
3779.98633	0.11581
3778.05776	0.11786
3776.12920	0.11779
3774.20063	0.11777
3772.27207	0.11994
3770.34351	0.12400
3768.41494	0.12791
3766.48638	0.13008
3764.55781	0.13140
3762.62925	0.13260
3760.70068	0.13496
3758.77212	0.13909
3756.84355	0.14286
3754.91499	0.14563
3752.98643	0.15003
3751.05786	0.15737
3749.12930	0.16349
3747.20073	0.16512
3745.27217	0.16720
3743.34360	0.17163
3741.41504	0.17595
3739.48647	0.18083
3737.55791	0.18875
3735.62935	0.20010
3733.70078	0.21003
3731.77222	0.21392
3729.84365	0.21677
3727.91509	0.22177
3725.98652	0.22863
3724.05796	0.23506
3722.12939	0.23904
3720.20083	0.24129
3718.27227	0.24263
3716.34370	0.24426
3714.41514	0.24876
3712.48657	0.26031
3710.55801	0.28026
3708.62944	0.29819
3706.70088	0.30869
3704.77231	0.31850
3702.84375	0.33126
3700.91519	0.34739
3698.98662	0.36418
3697.05806	0.38041
3695.12949	0.39831
3693.20093	0.41809
3691.27236	0.44066
3689.34380	0.46891
3687.41523	0.49965
3685.48667	0.52482
3683.55811	0.54764
3681.62954	0.57419
3679.70098	0.60610
3677.77241	0.64130
3675.84385	0.68319
3673.91528	0.73591
3671.98672	0.77682
3670.05815	0.81430
3668.12959	0.86541
3666.20103	0.91044
3664.27246	0.94881
3662.34390	0.99154
3660.41533	1.03804
3658.48677	1.08433
3656.55820	1.13449
3654.62964	1.19036
3652.70107	1.23793
3650.77251	1.28166
3648.84395	1.34188
3646.91538	1.40984
3644.98682	1.45540
3643.05825	1.49124
3641.12969	1.53090
3639.20112	1.57625
3637.27256	1.62275
3635.34399	1.66875
3633.41543	1.71525
3631.48687	1.75941
3629.55830	1.80493
3627.62974	1.86208
3625.70117	1.91138
3623.77261	1.94317
3621.84404	1.97371
3619.91548	2.00918
3617.98691	2.05271
3616.05835	2.09461
3614.12979	2.12987
3612.20122	2.16737
3610.27266	2.20587
3608.34409	2.24667
3606.41553	2.29110
3604.48696	2.33180
3602.55840	2.36792
3600.62983	2.40641
3598.70127	2.44743
3596.77271	2.48744
3594.84414	2.52810
3592.91558	2.56917
3590.98701	2.60687
3589.05845	2.64278
3587.12988	2.68755
3585.20132	2.73596
3583.27275	2.77391
3581.34419	2.80799
3579.41562	2.84655
3577.48706	2.88960
3575.55850	2.93237
3573.62993	2.97395
3571.70137	3.01480
3569.77280	3.05599
3567.84424	3.10034
3565.91567	3.15220
3563.98711	3.20112
3562.05854	3.24099
3560.12998	3.28118
3558.20142	3.32479
3556.27285	3.37065
3554.34429	3.41671
3552.41572	3.46299
3550.48716	3.50846
3548.55859	3.55180
3546.63003	3.59555
3544.70146	3.64306
3542.77290	3.69096
3540.84434	3.73768
3538.91577	3.78546
3536.98721	3.83189
3535.05864	3.87934
3533.13008	3.92926
3531.20151	3.97811
3529.27295	4.02551
3527.34438	4.07339
3525.41582	4.12013
3523.48726	4.16764
3521.55869	4.21809
3519.63013	4.26599
3517.70156	4.31397
3515.77300	4.36288
3513.84443	4.40452
3511.91587	4.44465
3509.98730	4.49664
3508.05874	4.55159
3506.13018	4.59582
3504.20161	4.63919
3502.27305	4.69369
3500.34448	4.75052
3498.41592	4.79453
3496.48735	4.83214
3494.55879	4.87611
3492.63022	4.92567
3490.70166	4.97449
3488.77310	5.02129
3486.84453	5.06877
3484.91597	5.11832
3482.98740	5.16873
3481.05884	5.21974
3479.13027	5.26884
3477.20171	5.31249
3475.27314	5.35600
3473.34458	5.40418
3471.41602	5.45366
3469.48745	5.50313
3467.55889	5.55171
3465.63032	5.60442
3463.70176	5.66447
3461.77319	5.71487
3459.84463	5.75475
3457.91606	5.79787
3455.98750	5.84136
3454.05894	5.88185
3452.13037	5.92802
3450.20181	5.98504
3448.27324	6.04767
3446.34468	6.11027
3444.41611	6.16777
3442.48755	6.21406
3440.55898	6.23715
3438.63042	6.25974
3436.70186	6.30653
3434.77329	6.36345
3432.84473	6.41989
3430.91616	6.46807
3428.98760	6.51485
3427.05903	6.57164
3425.13047	6.62927
3423.20190	6.68624
3421.27334	6.74482
3419.34478	6.78193
3417.41621	6.80472
3415.48765	6.83843
3413.55908	6.89482
3411.63052	6.97432
3409.70195	7.04024
3407.77339	7.09258
3405.84482	7.13446
3403.91626	7.16832
3401.98770	7.21509
3400.05913	7.26119
3398.13057	7.28854
3396.20200	7.29795
3394.27344	7.29033
3392.34487	7.26705
3390.41631	7.29518
3388.48774	7.39975
3386.55918	7.49436
3384.63062	7.52783
3382.70205	7.56971
3380.77349	7.63760
3378.84492	7.66163
3376.91636	7.66057
3374.98779	7.69227
3373.05923	7.74463
3371.13066	7.75288
3369.20210	7.73642
3367.27354	7.72969
3365.34497	7.73592
3363.41641	7.78203
3361.48784	7.85653
3359.55928	7.91947
3357.63071	7.93703
3355.70215	7.91293
3353.77358	7.88279
3351.84502	7.88629
3349.91646	7.89384
3347.98789	7.88586
3346.05933	7.86259
3344.13076	7.83856
3342.20220	7.87805
3340.27363	7.94981
3338.34507	7.97023
3336.41650	7.95546
3334.48794	8.01797
3332.55937	8.13707
3330.63081	8.18427
3328.70225	8.15114
3326.77368	8.10106
3324.84512	8.08844
3322.91655	8.12248
3320.98799	8.17255
3319.05942	8.17506
3317.13086	8.14795
3315.20229	8.13461
3313.27373	8.14114
3311.34517	8.16292
3309.41660	8.13544
3307.48804	8.08114
3305.55947	8.09057
3303.63091	8.12308
3301.70234	8.15396
3299.77378	8.24594
3297.84521	8.27074
3295.91665	8.17321
3293.98809	8.11034
3292.05952	8.10261
3290.13096	8.13260
3288.20239	8.19727
3286.27383	8.22185
3284.34526	8.19555
3282.41670	8.15804
3280.48813	8.11790
3278.55957	8.17065
3276.63101	8.26551
3274.70244	8.23584
3272.77388	8.16500
3270.84531	8.15299
3268.91675	8.20673
3266.98818	8.23260
3265.05962	8.15190
3263.13105	8.11698
3261.20249	8.22532
3259.27393	8.32136
3257.34536	8.22146
3255.41680	8.04256
3253.48823	7.96369
3251.55967	7.98246
3249.63110	8.05014
3247.70254	8.14300
3245.77397	8.19462
3243.84541	8.19699
3241.91685	8.18316
3239.98828	8.14465
3238.05972	8.11390
3236.13115	8.08568
3234.20259	8.04182
3232.27402	8.04617
3230.34546	8.06621
3228.41689	8.00034
3226.48833	7.88110
3224.55977	7.82373
3222.63120	7.87929
3220.70264	7.95160
3218.77407	7.94610
3216.84551	7.91427
3214.91694	7.89545
3212.98838	7.87035
3211.05981	7.85849
3209.13125	7.90593
3207.20269	7.97089
3205.27412	7.93593
3203.34556	7.83966
3201.41699	7.78010
3199.48843	7.71679
3197.55986	7.61892
3195.63130	7.52416
3193.70273	7.47502
3191.77417	7.46664
3189.84561	7.45658
3187.91704	7.42990
3185.98848	7.37594
3184.05991	7.30575
3182.13135	7.26921
3180.20278	7.26987
3178.27422	7.25288
3176.34565	7.19568
3174.41709	7.11795
3172.48853	7.04986
3170.55996	6.97809
3168.63140	6.88859
3166.70283	6.82740
3164.77427	6.78178
3162.84570	6.71428
3160.91714	6.65179
3158.98857	6.60599
3157.06001	6.54620
3155.13145	6.46310
3153.20288	6.37728
3151.27432	6.30524
3149.34575	6.25187
3147.41719	6.19866
3145.48862	6.12772
3143.56006	6.05333
3141.63149	5.99171
3139.70293	5.92894
3137.77437	5.85580
3135.84580	5.78642
3133.91724	5.72053
3131.98867	5.64677
3130.06011	5.56698
3128.13154	5.49121
3126.20298	5.42543
3124.27441	5.36351
3122.34585	5.29553
3120.41729	5.22399
3118.48872	5.15374
3116.56016	5.08403
3114.63159	5.01584
3112.70303	4.94988
3110.77446	4.88340
3108.84590	4.81629
3106.91733	4.75225
3104.98877	4.68701
3103.06021	4.61498
3101.13164	4.54473
3099.20308	4.48473
3097.27451	4.42597
3095.34595	4.35947
3093.41738	4.29043
3091.48882	4.22445
3089.56025	4.16187
3087.63169	4.10017
3085.70312	4.03790
3083.77456	3.97786
3081.84600	3.91871
3079.91743	3.85536
3077.98887	3.79076
3076.06030	3.73209
3074.13174	3.67860
3072.20317	3.62401
3070.27461	3.56733
3068.34604	3.51145
3066.41748	3.45650
3064.48892	3.40181
3062.56035	3.34716
3060.63179	3.29397
3058.70322	3.24306
3056.77466	3.19159
3054.84609	3.13849
3052.91753	3.08614
3050.98896	3.03559
3049.06040	2.98523
3047.13184	2.93458
3045.20327	2.88557
3043.27471	2.83837
3041.34614	2.79148
3039.41758	2.74486
3037.48901	2.69888
3035.56045	2.65384
3033.63188	2.60992
3031.70332	2.56588
3029.77476	2.52115
3027.84619	2.47683
3025.91763	2.43364
3023.98906	2.39181
3022.06050	2.35099
3020.13193	2.31081
3018.20337	2.27165
3016.27480	2.23302
3014.34624	2.19401
3012.41768	2.15518
3010.48911	2.11718
3008.56055	2.08000
3006.63198	2.04384
3004.70342	2.00872
3002.77485	1.97383
3000.84629	1.93903
2998.91772	1.90525
2996.98916	1.87319
2995.06060	1.84250
2993.13203	1.81225
2991.20347	1.78213
2989.27490	1.75244
2987.34634	1.72359
2985.41777	1.69542
2983.48921	1.66717
2981.56064	1.63938
2979.63208	1.61291
2977.70352	1.58738
2975.77495	1.56233
2973.84639	1.53746
2971.91782	1.51272
2969.98926	1.48855
2968.06069	1.46505
2966.13213	1.44189
2964.20356	1.41880
2962.27500	1.39561
2960.34644	1.37247
2958.41787	1.34955
2956.48931	1.32663
2954.56074	1.30386
2952.63218	1.28132
2950.70361	1.25854
2948.77505	1.23593
2946.84648	1.21424
2944.91792	1.19339
2942.98936	1.17320
2941.06079	1.15352
2939.13223	1.13384
2937.20366	1.11407
2935.27510	1.09467
2933.34653	1.07565
2931.41797	1.05686
2929.48940	1.03843
2927.56084	1.02012
2925.63228	1.00141
2923.70371	0.98272
2921.77515	0.96471
2919.84658	0.94732
2917.91802	0.93042
2915.98945	0.91392
2914.06089	0.89773
2912.13232	0.88215
2910.20376	0.86720
2908.27520	0.85255
2906.34663	0.83809
2904.41807	0.82383
2902.48950	0.80993
2900.56094	0.79653
2898.63237	0.78343
2896.70381	0.77029
2894.77524	0.75736
2892.84668	0.74484
2890.91812	0.73272
2888.98955	0.72116
2887.06099	0.71020
2885.13242	0.69985
2883.20386	0.69002
2881.27529	0.68042
2879.34673	0.67091
2877.41816	0.66133
2875.48960	0.65158
2873.56104	0.64156
2871.63247	0.63098
2869.70391	0.62004
2867.77534	0.60910
2865.84678	0.59795
2863.91821	0.58645
2861.98965	0.57516
2860.06108	0.56450
2858.13252	0.55427
2856.20396	0.54428
2854.27539	0.53461
2852.34683	0.52540
2850.41826	0.51675
2848.48970	0.50852
2846.56113	0.50049
2844.63257	0.49276
2842.70400	0.48550
2840.77544	0.47873
2838.84687	0.47243
2836.91831	0.46642
2834.98975	0.46039
2833.06118	0.45421
2831.13262	0.44792
2829.20405	0.44160
2827.27549	0.43541
2825.34692	0.42950
2823.41836	0.42368
2821.48979	0.41774
2819.56123	0.41175
2817.63267	0.40584
2815.70410	0.40002
2813.77554	0.39421
2811.84697	0.38854
2809.91841	0.38326
2807.98984	0.37813
2806.06128	0.37293
2804.13271	0.36779
2802.20415	0.36262
2800.27559	0.35738
2798.34702	0.35234
2796.41846	0.34750
2794.48989	0.34281
2792.56133	0.33828
2790.63276	0.33375
2788.70420	0.32917
2786.77563	0.32473
2784.84707	0.32046
2782.91851	0.31623
2780.98994	0.31207
2779.06138	0.30814
2777.13281	0.30435
2775.20425	0.30044
2773.27568	0.29641
2771.34712	0.29250
2769.41855	0.28877
2767.48999	0.28513
2765.56143	0.28152
2763.63286	0.27793
2761.70430	0.27449
2759.77573	0.27129
2757.84717	0.26814
2755.91860	0.26491
2753.99004	0.26168
2752.06147	0.25846
2750.13291	0.25542
2748.20435	0.25273
2746.27578	0.25013
2744.34722	0.24730
2742.41865	0.24441
2740.49009	0.24178
2738.56152	0.23927
2736.63296	0.23670
2734.70439	0.23425
2732.77583	0.23195
2730.84727	0.22962
2728.91870	0.22720
2726.99014	0.22479
2725.06157	0.22261
2723.13301	0.22062
2721.20444	0.21847
2719.27588	0.21612
2717.34731	0.21391
2715.41875	0.21195
2713.49019	0.21015
2711.56162	0.20833
2709.63306	0.20647
2707.70449	0.20464
2705.77593	0.20296
2703.84736	0.20126
2701.91880	0.19945
2699.99023	0.19776
2698.06167	0.19630
2696.13311	0.19497
2694.20454	0.19366
2692.27598	0.19234
2690.34741	0.19105
2688.41885	0.18972
2686.49028	0.18827
2684.56172	0.18684
2682.63315	0.18556
2680.70459	0.18433
2678.77603	0.18300
2676.84746	0.18160
2674.91890	0.18037
2672.99033	0.17935
2671.06177	0.17829
2669.13320	0.17710
2667.20464	0.17602
2665.27607	0.17510
2663.34751	0.17415
2661.41895	0.17315
2659.49038	0.17219
2657.56182	0.17130
2655.63325	0.17049
2653.70469	0.16978
2651.77612	0.16904
2649.84756	0.16827
2647.91899	0.16757
2645.99043	0.16683
2644.06187	0.16606
2642.13330	0.16538
2640.20474	0.16484
2638.27617	0.16442
2636.34761	0.16395
2634.41904	0.16340
2632.49048	0.16287
2630.56191	0.16237
2628.63335	0.16193
2626.70479	0.16155
2624.77622	0.16117
2622.84766	0.16074
2620.91909	0.16027
2618.99053	0.15982
2617.06196	0.15954
2615.13340	0.15945
2613.20483	0.15938
2611.27627	0.15921
2609.34771	0.15903
2607.41914	0.15887
2605.49058	0.15867
2603.56201	0.15843
2601.63345	0.15823
2599.70488	0.15816
2597.77632	0.15818
2595.84775	0.15824
2593.91919	0.15835
2591.99062	0.15843
2590.06206	0.15844
2588.13350	0.15846
2586.20493	0.15865
2584.27637	0.15894
2582.34780	0.15902
2580.41924	0.15902
2578.49067	0.15926
2576.56211	0.15958
2574.63354	0.15984
2572.70498	0.16010
2570.77642	0.16030
2568.84785	0.16048
2566.91929	0.16076
2564.99072	0.16106
2563.06216	0.16137
2561.13359	0.16174
2559.20503	0.16222
2557.27646	0.16275
2555.34790	0.16323
2553.41934	0.16371
2551.49077	0.16425
2549.56221	0.16486
2547.63364	0.16542
2545.70508	0.16583
2543.77651	0.16619
2541.84795	0.16663
2539.91938	0.16719
2537.99082	0.16782
2536.06226	0.16835
2534.13369	0.16885
2532.20513	0.16946
2530.27656	0.17009
2528.34800	0.17065
2526.41943	0.17123
2524.49087	0.17193
2522.56230	0.17274
2520.63374	0.17354
2518.70518	0.17434
2516.77661	0.17513
2514.84805	0.17573
2512.91948	0.17623
2510.99092	0.17691
2509.06235	0.17764
2507.13379	0.17832
2505.20522	0.17913
2503.27666	0.18005
2501.34810	0.18081
2499.41953	0.18150
2497.49097	0.18230
2495.56240	0.18309
2493.63384	0.18377
2491.70527	0.18450
2489.77671	0.18532
2487.84814	0.18612
2485.91958	0.18691
2483.99102	0.18772
2482.06245	0.18843
2480.13389	0.18914
2478.20532	0.19007
2476.27676	0.19103
2474.34819	0.19190
2472.41963	0.19276
2470.49106	0.19356
2468.56250	0.19437
2466.63394	0.19528
2464.70537	0.19621
2462.77681	0.19710
2460.84824	0.19810
2458.91968	0.19914
2456.99111	0.20003
2455.06255	0.20079
2453.13398	0.20156
2451.20542	0.20240
2449.27686	0.20331
2447.34829	0.20428
2445.41973	0.20523
2443.49116	0.20610
2441.56260	0.20695
2439.63403	0.20784
2437.70547	0.20879
2435.77690	0.20978
2433.84834	0.21081
2431.91978	0.21195
2429.99121	0.21312
2428.06265	0.21416
2426.13408	0.21514
2424.20552	0.21623
2422.27695	0.21725
2420.34839	0.21808
2418.41982	0.21908
2416.49126	0.22040
2414.56270	0.22158
2412.63413	0.22250
2410.70557	0.22344
2408.77700	0.22453
2406.84844	0.22574
2404.91987	0.22694
2402.99131	0.22801
2401.06274	0.22911
2399.13418	0.23037
2397.20562	0.23159
2395.27705	0.23269
2393.34849	0.23387
2391.41992	0.23535
2389.49136	0.23733
2387.56279	0.24057
2385.63423	0.24628
2383.70566	0.25552
2381.77710	0.26858
2379.84854	0.28485
2377.91997	0.30385
2375.99141	0.32636
2374.06284	0.35321
2372.13428	0.38390
2370.20571	0.41747
2368.27715	0.45254
2366.34858	0.48656
2364.42002	0.51594
2362.49146	0.53717
2360.56289	0.54897
2358.63433	0.54927
2356.70576	0.53384
2354.77720	0.50473
2352.84863	0.46822
2350.92007	0.43163
2348.99150	0.40987
2347.06294	0.41042
2345.13437	0.43284
2343.20581	0.46471
2341.27725	0.48297
2339.34868	0.48448
2337.42012	0.47984
2335.49155	0.47541
2333.56299	0.47101
2331.63442	0.46623
2329.70586	0.46172
2327.77729	0.45616
2325.84873	0.44702
2323.92017	0.43502
2321.99160	0.42242
2320.06304	0.41000
2318.13447	0.39807
2316.20591	0.38772
2314.27734	0.37993
2312.34878	0.37456
2310.42021	0.36999
2308.49165	0.36408
2306.56309	0.35668
2304.63452	0.34975
2302.70596	0.34534
2300.77739	0.34314
2298.84883	0.34138
2296.92026	0.33951
2294.99170	0.33762
2293.06313	0.33552
2291.13457	0.33339
2289.20601	0.33161
2287.27744	0.33010
2285.34888	0.32883
2283.42031	0.32847
2281.49175	0.32971
2279.56318	0.33226
2277.63462	0.33512
2275.70605	0.33785
2273.77749	0.34046
2271.84893	0.34277
2269.92036	0.34467
2267.99180	0.34643
2266.06323	0.34826
2264.13467	0.34995
2262.20610	0.35143
2260.27754	0.35282
2258.34897	0.35412
2256.42041	0.35538
2254.49185	0.35693
2252.56328	0.35865
2250.63472	0.36020
2248.70615	0.36160
2246.77759	0.36323
2244.84902	0.36517
2242.92046	0.36713
2240.99189	0.36897
2239.06333	0.37079
2237.13477	0.37270
2235.20620	0.37473
2233.27764	0.37678
2231.34907	0.37881
2229.42051	0.38087
2227.49194	0.38299
2225.56338	0.38513
2223.63481	0.38726
2221.70625	0.38939
2219.77769	0.39159
2217.84912	0.39382
2215.92056	0.39599
2213.99199	0.39809
2212.06343	0.40024
2210.13486	0.40249
2208.20630	0.40467
2206.27773	0.40660
2204.34917	0.40839
2202.42061	0.41023
2200.49204	0.41220
2198.56348	0.41434
2196.63491	0.41643
2194.70635	0.41831
2192.77778	0.42016
2190.84922	0.42212
2188.92065	0.42407
2186.99209	0.42591
2185.06353	0.42759
2183.13496	0.42910
2181.20640	0.43063
2179.27783	0.43227
2177.34927	0.43391
2175.42070	0.43538
2173.49214	0.43675
2171.56357	0.43819
2169.63501	0.43967
2167.70645	0.44105
2165.77788	0.44225
2163.84932	0.44343
2161.92075	0.44469
2159.99219	0.44595
2158.06362	0.44699
2156.13506	0.44780
2154.20649	0.44858
2152.27793	0.44939
2150.34937	0.45011
2148.42080	0.45075
2146.49224	0.45142
2144.56367	0.45210
2142.63511	0.45268
2140.70654	0.45303
2138.77798	0.45319
2136.84941	0.45331
2134.92085	0.45339
2132.99229	0.45342
2131.06372	0.45337
2129.13516	0.45319
2127.20659	0.45301
2125.27803	0.45283
2123.34946	0.45247
2121.42090	0.45196
2119.49233	0.45141
2117.56377	0.45083
2115.63521	0.45017
2113.70664	0.44943
2111.77808	0.44872
2109.84951	0.44797
2107.92095	0.44699
2105.99238	0.44581
2104.06382	0.44463
2102.13525	0.44350
2100.20669	0.44236
2098.27812	0.44102
2096.34956	0.43941
2094.42100	0.43780
2092.49243	0.43630
2090.56387	0.43482
2088.63530	0.43320
2086.70674	0.43144
2084.77817	0.42958
2082.84961	0.42763
2080.92104	0.42570
2078.99248	0.42394
2077.06392	0.42207
2075.13535	0.41988
2073.20679	0.41759
2071.27822	0.41537
2069.34966	0.41321
2067.42109	0.41110
2065.49253	0.40897
2063.56396	0.40673
2061.63540	0.40437
2059.70684	0.40188
2057.77827	0.39928
2055.84971	0.39669
2053.92114	0.39418
2051.99258	0.39175
2050.06401	0.38927
2048.13545	0.38670
2046.20688	0.38409
2044.27832	0.38156
2042.34976	0.37907
2040.42119	0.37648
2038.49263	0.37376
2036.56406	0.37099
2034.63550	0.36823
2032.70693	0.36549
2030.77837	0.36275
2028.84980	0.36002
2026.92124	0.35731
2024.99268	0.35457
2023.06411	0.35180
2021.13555	0.34914
2019.20698	0.34669
2017.27842	0.34426
2015.34985	0.34152
2013.42129	0.33865
2011.49272	0.33589
2009.56416	0.33319
2007.63560	0.33044
2005.70703	0.32766
2003.77847	0.32489
2001.84990	0.32219
1999.92134	0.31968
1997.99277	0.31728
1996.06421	0.31490
1994.13564	0.31268
1992.20708	0.31053
1990.27852	0.30802
1988.34995	0.30527
1986.42139	0.30262
1984.49282	0.30018
1982.56426	0.29788
1980.63569	0.29558
1978.70713	0.29331
1976.77856	0.29110
1974.85000	0.28887
1972.92144	0.28670
1970.99287	0.28471
1969.06431	0.28295
1967.13574	0.28122
1965.20718	0.27908
1963.27861	0.27681
1961.35005	0.27481
1959.42148	0.27297
1957.49292	0.27119
1955.56436	0.26940
1953.63579	0.26754
1951.70723	0.26569
1949.77866	0.26408
1947.85010	0.26268
1945.92153	0.26148
1943.99297	0.26049
1942.06440	0.25928
1940.13584	0.25743
1938.20728	0.25555
1936.27871	0.25409
1934.35015	0.25279
1932.42158	0.25147
1930.49302	0.25020
1928.56445	0.24903
1926.63589	0.24800
1924.70732	0.24738
1922.77876	0.24687
1920.85020	0.24593
1918.92163	0.24500
1916.99307	0.24411
1915.06450	0.24279
1913.13594	0.24156
1911.20737	0.24095
1909.27881	0.24061
1907.35024	0.23994
1905.42168	0.23902
1903.49312	0.23824
1901.56455	0.23760
1899.63599	0.23702
1897.70742	0.23665
1895.77886	0.23649
1893.85029	0.23622
1891.92173	0.23592
1889.99316	0.23599
1888.06460	0.23583
1886.13604	0.23526
1884.20747	0.23483
1882.27891	0.23451
1880.35034	0.23424
1878.42178	0.23407
1876.49321	0.23398
1874.56465	0.23390
1872.63608	0.23415
1870.70752	0.23521
1868.77896	0.23676
1866.85039	0.23695
1864.92183	0.23585
1862.99326	0.23518
1861.06470	0.23520
1859.13613	0.23556
1857.20757	0.23590
1855.27900	0.23625
1853.35044	0.23666
1851.42187	0.23724
1849.49331	0.23809
1847.56475	0.23933
1845.63618	0.24094
1843.70762	0.24222
1841.77905	0.24224
1839.85049	0.24192
1837.92192	0.24244
1835.99336	0.24335
1834.06479	0.24433
1832.13623	0.24582
1830.20767	0.24807
1828.27910	0.24972
1826.35054	0.25035
1824.42197	0.25117
1822.49341	0.25182
1820.56484	0.25251
1818.63628	0.25376
1816.70771	0.25542
1814.77915	0.25702
1812.85059	0.25893
1810.92202	0.26135
1808.99346	0.26351
1807.06489	0.26514
1805.13633	0.26685
1803.20776	0.26936
1801.27920	0.27244
1799.35063	0.27532
1797.42207	0.27754
1795.49351	0.28005
1793.56494	0.28358
1791.63638	0.28757
1789.70781	0.29007
1787.77925	0.29161
1785.85068	0.29438
1783.92212	0.29814
1781.99355	0.30230
1780.06499	0.30662
1778.13643	0.31073
1776.20786	0.31477
1774.27930	0.31990
1772.35073	0.32686
1770.42217	0.33299
1768.49360	0.33699
1766.56504	0.34095
1764.63647	0.34572
1762.70791	0.35176
1760.77935	0.35939
1758.85078	0.36627
1756.92222	0.37320
1754.99365	0.38062
1753.06509	0.38762
1751.13652	0.39682
1749.20796	0.40836
1747.27939	0.41865
1745.35083	0.42703
1743.42227	0.43614
1741.49370	0.44656
1739.56514	0.45889
1737.63657	0.47115
1735.70801	0.48232
1733.77944	0.49939
1731.85088	0.51862
1729.92231	0.53280
1727.99375	0.54707
1726.06519	0.56295
1724.13662	0.58100
1722.20806	0.60084
1720.27949	0.61966
1718.35093	0.64248
1716.42236	0.67512
1714.49380	0.70418
1712.56523	0.72708
1710.63667	0.74990
1708.70811	0.77532
1706.77954	0.80484
1704.85098	0.84013
1702.92241	0.87162
1700.99385	0.90347
1699.06528	0.95085
1697.13672	0.99354
1695.20815	1.03618
1693.27959	1.07742
1691.35103	1.11169
1689.42246	1.15218
1687.49390	1.19528
1685.56533	1.23809
1683.63677	1.30395
1681.70820	1.36960
1679.77964	1.41070
1677.85107	1.45078
1675.92251	1.49794
1673.99395	1.55661
1672.06538	1.60893
1670.13682	1.66125
1668.20825	1.72949
1666.27969	1.78414
1664.35112	1.83032
1662.42256	1.89002
1660.49399	1.95825
1658.56543	2.01186
1656.63687	2.05561
1654.70830	2.09547
1652.77974	2.15632
1650.85117	2.21378
1648.92261	2.23404
1646.99404	2.25804
1645.06548	2.28423
1643.13691	2.30179
1641.20835	2.31060
1639.27979	2.31791
1637.35122	2.32414
1635.42266	2.32616
1633.49409	2.31746
1631.56553	2.30125
1629.63696	2.28241
1627.70840	2.25271
1625.77983	2.21797
1623.85127	2.17490
1621.92271	2.12305
1619.99414	2.07733
1618.06558	2.03302
1616.13701	1.96861
1614.20845	1.90106
1612.27988	1.84932
1610.35132	1.79645
1608.42275	1.73938
1606.49419	1.68248
1604.56562	1.62976
1602.63706	1.57944
1600.70850	1.53116
1598.77993	1.48739
1596.85137	1.44668
1594.92280	1.40720
1592.99424	1.36881
1591.06567	1.33352
1589.13711	1.30066
1587.20854	1.27031
1585.27998	1.24269
1583.35142	1.21730
1581.42285	1.19457
1579.49429	1.17601
1577.56572	1.16045
1575.63716	1.14111
1573.70859	1.12266
1571.78003	1.11106
1569.85146	1.10050
1567.92290	1.08873
1565.99434	1.07995
1564.06577	1.07408
1562.13721	1.07043
1560.20864	1.07076
1558.28008	1.07542
1556.35151	1.07617
1554.42295	1.07453
1552.49438	1.07364
1550.56582	1.07228
1548.63726	1.06920
1546.70869	1.06445
1544.78013	1.05813
1542.85156	1.04988
1540.92300	1.03549
1538.99443	1.00707
1537.06587	0.98421
1535.13730	0.96999
1533.20874	0.95234
1531.28018	0.93274
1529.35161	0.91851
1527.42305	0.90599
1525.49448	0.89324
1523.56592	0.88230
1521.63735	0.87173
1519.70879	0.86025
1517.78022	0.85023
1515.85166	0.83828
1513.92310	0.82524
1511.99453	0.81453
1510.06597	0.80612
1508.13740	0.79885
1506.20884	0.78474
1504.28027	0.76930
1502.35171	0.76051
1500.42314	0.75412
1498.49458	0.74810
1496.56602	0.74026
1494.63745	0.73134
1492.70889	0.72492
1490.78032	0.72064
1488.85176	0.71545
1486.92319	0.70879
1484.99463	0.70299
1483.06606	0.69889
1481.13750	0.69604
1479.20894	0.69413
1477.28037	0.69362
1475.35181	0.69473
1473.42324	0.69656
1471.49468	0.69603
1469.56611	0.69287
1467.63755	0.69012
1465.70898	0.68857
1463.78042	0.68751
1461.85186	0.68683
1459.92329	0.68759
1457.99473	0.69006
1456.06616	0.69059
1454.13760	0.68702
1452.20903	0.68351
1450.28047	0.68086
1448.35190	0.67860
1446.42334	0.67576
1444.49478	0.67275
1442.56621	0.67029
1440.63765	0.66809
1438.70908	0.66609
1436.78052	0.66360
1434.85195	0.65988
1432.92339	0.65653
1430.99482	0.65448
1429.06626	0.65326
1427.13770	0.65255
1425.20913	0.65267
1423.28057	0.65346
1421.35200	0.65430
1419.42344	0.65534
1417.49487	0.65538
1415.56631	0.65360
1413.63774	0.65205
1411.70918	0.65169
1409.78062	0.65226
1407.85205	0.65334
1405.92349	0.65496
1403.99492	0.65640
1402.06636	0.65673
1400.13779	0.65647
1398.20923	0.65579
1396.28066	0.65400
1394.35210	0.65044
1392.42354	0.64568
1390.49497	0.64148
1388.56641	0.63783
1386.63784	0.63343
1384.70928	0.62827
1382.78071	0.62346
1380.85215	0.61932
1378.92358	0.61589
1376.99502	0.61335
1375.06646	0.61181
1373.13789	0.61066
1371.20933	0.60956
1369.28076	0.60868
1367.35220	0.60761
1365.42363	0.60629
1363.49507	0.60513
1361.56650	0.60366
1359.63794	0.60161
1357.70937	0.59977
1355.78081	0.59836
1353.85225	0.59724
1351.92368	0.59633
1349.99512	0.59549
1348.06655	0.59448
1346.13799	0.59331
1344.20942	0.59232
1342.28086	0.59183
1340.35229	0.59169
1338.42373	0.59116
1336.49517	0.59013
1334.56660	0.58919
1332.63804	0.58864
1330.70947	0.58860
1328.78091	0.58895
1326.85234	0.58949
1324.92378	0.59013
1322.99521	0.59088
1321.06665	0.59176
1319.13809	0.59264
1317.20952	0.59311
1315.28096	0.59312
1313.35239	0.59280
1311.42383	0.59213
1309.49526	0.59136
1307.56670	0.59071
1305.63813	0.59017
1303.70957	0.58960
1301.78101	0.58887
1299.85244	0.58803
1297.92388	0.58712
1295.99531	0.58611
1294.06675	0.58496
1292.13818	0.58362
1290.20962	0.58227
1288.28105	0.58115
1286.35249	0.58012
1284.42393	0.57886
1282.49536	0.57740
1280.56680	0.57606
1278.63823	0.57487
1276.70967	0.57373
1274.78110	0.57263
1272.85254	0.57166
1270.92397	0.57087
1268.99541	0.57020
1267.06685	0.56956
1265.13828	0.56891
1263.20972	0.56830
1261.28115	0.56766
1259.35259	0.56690
1257.42402	0.56606
1255.49546	0.56549
1253.56689	0.56542
1251.63833	0.56559
1249.70977	0.56572
1247.78120	0.56569
1245.85264	0.56546
1243.92407	0.56492
1241.99551	0.56396
1240.06694	0.56260
1238.13838	0.56095
1236.20981	0.55901
1234.28125	0.55687
1232.35269	0.55476
1230.42412	0.55284
1228.49556	0.55096
1226.56699	0.54890
1224.63843	0.54674
1222.70986	0.54479
1220.78130	0.54319
1218.85273	0.54183
1216.92417	0.54050
1214.99561	0.53930
1213.06704	0.53845
1211.13848	0.53778
1209.20991	0.53699
1207.28135	0.53610
1205.35278	0.53521
1203.42422	0.53435
1201.49565	0.53347
1199.56709	0.53257
1197.63853	0.53174
1195.70996	0.53101
1193.78140	0.53035
1191.85283	0.52973
1189.92427	0.52921
1187.99570	0.52893
1186.06714	0.52893
1184.13857	0.52910
1182.21001	0.52940
1180.28145	0.52995
1178.35288	0.53110
1176.42432	0.53276
1174.49575	0.53435
1172.56719	0.53553
1170.63862	0.53641
1168.71006	0.53708
1166.78149	0.53764
1164.85293	0.53819
1162.92437	0.53855
1160.99580	0.53878
1159.06724	0.53901
1157.13867	0.53896
1155.21011	0.53839
1153.28154	0.53739
1151.35298	0.53591
1149.42441	0.53376
1147.49585	0.53119
1145.56729	0.52846
1143.63872	0.52560
1141.71016	0.52284
1139.78159	0.52062
1137.85303	0.51915
1135.92446	0.51839
1133.99590	0.51814
1132.06733	0.51799
1130.13877	0.51792
1128.21021	0.51793
1126.28164	0.51773
1124.35308	0.51743
1122.42451	0.51725
1120.49595	0.51713
1118.56738	0.51733
1116.63882	0.51819
1114.71025	0.51942
1112.78169	0.52059
1110.85312	0.52185
1108.92456	0.52328
1106.99600	0.52455
1105.06743	0.52552
1103.13887	0.52638
1101.21030	0.52733
1099.28174	0.52852
1097.35317	0.53018
1095.42461	0.53269
1093.49604	0.53649
1091.56748	0.54198
1089.63892	0.54946
1087.71035	0.55867
1085.78179	0.56869
1083.85322	0.57853
1081.92466	0.58725
1079.99609	0.59377
1078.06753	0.59712
1076.13896	0.59683
1074.21040	0.59294
1072.28184	0.58638
1070.35327	0.57859
1068.42471	0.57055
1066.49614	0.56273
1064.56758	0.55551
1062.63901	0.54921
1060.71045	0.54406
1058.78188	0.53981
1056.85332	0.53593
1054.92476	0.53223
1052.99619	0.52893
1051.06763	0.52630
1049.13906	0.52450
1047.21050	0.52355
1045.28193	0.52323
1043.35337	0.52325
1041.42480	0.52354
1039.49624	0.52395
1037.56768	0.52429
1035.63911	0.52436
1033.71055	0.52393
1031.78198	0.52281
1029.85342	0.52093
1027.92485	0.51851
1025.99629	0.51600
1024.06772	0.51385
1022.13916	0.51220
1020.21060	0.51111
1018.28203	0.51046
1016.35347	0.50993
1014.42490	0.50923
1012.49634	0.50833
1010.56777	0.50739
1008.63921	0.50672
1006.71064	0.50650
1004.78208	0.50681
1002.85352	0.50803
1000.92495	0.51055
998.99639	0.51424
997.06782	0.51855
995.13926	0.52315
993.21069	0.52778
991.28213	0.53164
989.35356	0.53377
987.42500	0.53403
985.49644	0.53321
983.56787	0.53231
981.63931	0.53183
979.71074	0.53187
977.78218	0.53247
975.85361	0.53370
973.92505	0.53566
971.99648	0.53827
970.06792	0.54129
968.13936	0.54478
966.21079	0.54891
964.28223	0.55344
962.35366	0.55818
960.42510	0.56317
958.49653	0.56847
956.56797	0.57400
954.63940	0.57968
952.71084	0.58555
950.78228	0.59172
948.85371	0.59829
946.92515	0.60516
944.99658	0.61192
943.06802	0.61829
941.13945	0.62431
939.21089	0.63009
937.28232	0.63551
935.35376	0.64059
933.42520	0.64564
931.49663	0.65082
929.56807	0.65627
927.63950	0.66201
925.71094	0.66803
923.78237	0.67441
921.85381	0.68092
919.92524	0.68759
917.99668	0.69442
916.06812	0.70092
914.13955	0.70733
912.21099	0.71428
910.28242	0.72157
908.35386	0.72903
906.42529	0.73729
904.49673	0.74650
902.56816	0.75611
900.63960	0.76552
898.71104	0.77445
896.78247	0.78376
894.85391	0.79373
892.92534	0.80350
890.99678	0.81283
889.06821	0.82210
887.13965	0.83239
885.21108	0.84398
883.28252	0.85602
881.35396	0.86816
879.42539	0.88003
877.49683	0.89088
875.56826	0.90124
873.63970	0.91190
871.71113	0.92249
869.78257	0.93343
867.85400	0.94535
865.92544	0.95704
863.99687	0.96795
862.06831	0.97973
860.13975	0.99284
858.21118	1.00569
856.28262	1.01674
854.35405	1.02600
852.42549	1.03546
850.49692	1.04710
848.56836	1.06015
846.63979	1.07226
844.71123	1.08238
842.78267	1.09085
840.85410	1.10031
838.92554	1.11352
836.99697	1.12761
835.06841	1.13730
833.13984	1.14356
831.21128	1.15284
829.28271	1.16731
827.35415	1.18302
825.42559	1.19650
823.49702	1.20801
821.56846	1.21857
819.63989	1.22684
817.71133	1.23434
815.78276	1.24640
813.85420	1.26296
811.92563	1.27655
809.99707	1.28301
808.06851	1.29229
806.13994	1.30706
804.21138	1.31742
802.28281	1.33483
800.35425	1.36045
798.42568	1.36697
796.49712	1.35384
794.56855	1.34894
792.63999	1.35959
790.71143	1.36212
788.78286	1.35527
786.85430	1.38363
784.92573	1.47078
782.99717	1.52198
781.06860	1.43938
779.14004	1.36888
777.21147	1.39603
775.28291	1.45530
773.35435	1.44087
771.42578	1.38693
769.49722	1.36274
767.56865	1.41053
765.64009	1.49190
763.71152	1.49018
761.78296	1.45467
759.85439	1.48212
757.92583	1.46075
755.99727	1.32437
754.06870	1.32658
752.14014	1.73351
750.21157	4.50127
748.28301	4.48970
746.35444	1.65792
744.42588	1.35844
742.49731	1.26685
740.56875	1.19738
738.64019	1.15601
736.71162	1.09420
734.78306	1.00409
732.85449	0.88721
730.92593	0.78093
728.99736	0.81951
727.06880	0.95984
725.14023	1.02975
723.21167	4.33927
721.28311	4.32770
719.35454	4.31613
717.42598	0.77297
715.49741	0.38425
713.56885	0.01741
711.64028	-0.52772
709.71172	-0.52629
707.78315	0.08916
705.85459	0.43739
703.92603	0.27725
701.99746	0.23379
700.06890	0.26008
698.14033	0.23535
696.21177	0.27708
694.28320	0.41026
692.35464	0.47492
690.42607	0.52074
688.49751	0.74484
686.56895	2.15050
684.64038	4.10784
682.71182	0.76401
680.78325	0.63881
678.85469	0.77500
676.92612	0.69350
674.99756	0.44434
673.06899	0.34015
671.14043	0.44272
669.21187	0.69614
667.28330	0.73241
665.35474	0.45925
663.42617	0.31641
661.49761	0.26291
659.56904	0.27135
657.64048	0.37677
655.71191	0.39735
653.78335	0.25558
651.85479	0.20898
649.92622	0.29036
647.99766	0.39719
646.06909	0.30345
644.14053	0.21906
642.21196	0.28684
640.28340	0.63451
638.35483	3.83013
636.42627	3.81856
634.49771	0.92138
632.56914	0.52284
630.64058	0.38852
628.71201	0.44243
626.78345	0.54045
624.85488	0.47780
622.92632	0.41417
620.99775	0.42363
619.06919	0.35380
617.14062	0.26058
615.21206	0.21917
613.28350	0.18178
611.35493	0.16621
609.42637	0.24489
607.49780	0.36151
605.56924	0.38358
603.64067	0.32737
601.71211	0.27577
599.78354	0.27051
597.85498	0.33250
595.92642	0.37585
593.99785	0.29642
592.06929	0.30273
590.14072	0.40274
588.21216	0.41340
586.28359	0.32891
584.35503	0.26087
582.42646	0.25298
580.49790	0.37099
578.56934	0.66456
576.64077	0.60027
574.71221	0.49523
572.78364	0.45066
570.85508	0.41595
568.92651	0.48211
566.99795	0.61302
565.06938	0.49249
563.14082	0.33524
561.21226	0.30839
559.28369	0.31393
557.35513	0.26840
555.42656	0.20042
553.49800	0.17898
551.56943	0.17685
549.64087	0.15972
547.71230	0.18955
545.78374	0.27587
543.85518	0.33162
541.92661	0.32063
539.99805	0.29967
538.06948	0.25594
536.14092	0.19867
534.21235	0.18907
532.28379	0.20053
530.35522	0.17919
528.42666	0.16073
526.49810	0.17345
524.56953	0.19288
522.64097	0.22431
520.71240	0.25420
518.78384	0.25725
516.85527	0.24566
514.92671	0.19363
512.99814	0.15452
511.06958	0.19251
509.14102	0.26287
507.21245	0.29797
505.28389	0.29546
503.35532	0.37096
501.42676	0.56231
499.49819	0.69765
