3997.91411	0.07095
3995.98555	0.07153
3994.05698	0.07221
3992.12842	0.07246
3990.19985	0.07214
3988.27129	0.07186
3986.34272	0.07196
3984.41416	0.07217
3982.48560	0.07245
3980.55703	0.07305
3978.62847	0.07365
3976.69990	0.07389
3974.77134	0.07400
3972.84277	0.07420
3970.91421	0.07433
3968.98564	0.07441
3967.05708	0.07472
3965.12852	0.07516
3963.19995	0.07548
3961.27139	0.07545
3959.34282	0.07532
3957.41426	0.07557
3955.48569	0.07588
3953.55713	0.07557
3951.62856	0.07487
3949.70000	0.07456
3947.77144	0.07503
3945.84287	0.07565
3943.91431	0.07552
3941.98574	0.07506
3940.05718	0.07514
3938.12861	0.07548
3936.20005	0.07562
3934.27148	0.07547
3932.34292	0.07516
3930.41436	0.07506
3928.48579	0.07529
3926.55723	0.07550
3924.62866	0.07565
3922.70010	0.07583
3920.77153	0.07580
3918.84297	0.07552
3916.91440	0.07556
3914.98584	0.07566
3913.05728	0.07504
3911.12871	0.07430
3909.20015	0.07418
3907.27158	0.07432
3905.34302	0.07436
3903.41445	0.07411
3901.48589	0.07340
3899.55732	0.07314
3897.62876	0.07351
3895.70020	0.07362
3893.77163	0.07356
3891.84307	0.07389
3889.91450	0.07458
3887.98594	0.07480
3886.05737	0.07490
3884.12881	0.07570
3882.20024	0.07643
3880.27168	0.07640
3878.34312	0.07598
3876.41455	0.07558
3874.48599	0.07542
3872.55742	0.07558
3870.62886	0.07595
3868.70029	0.07656
3866.77173	0.07687
3864.84316	0.07693
3862.91460	0.07743
3860.98604	0.07825
3859.05747	0.07861
3857.12891	0.07860
3855.20034	0.07912
3853.27178	0.08074
3851.34321	0.08160
3849.41465	0.08055
3847.48608	0.08008
3845.55752	0.08083
3843.62896	0.08171
3841.70039	0.08180
3839.77183	0.08196
3837.84326	0.08332
3835.91470	0.08481
3833.98613	0.08506
3832.05757	0.08503
3830.12900	0.08565
3828.20044	0.08655
3826.27187	0.08741
3824.34331	0.08812
3822.41475	0.08882
3820.48618	0.09006
3818.55762	0.09073
3816.62905	0.09056
3814.70049	0.09143
3812.77192	0.09301
3810.84336	0.09397
3808.91479	0.09461
3806.98623	0.09552
3805.05767	0.09662
3803.12910	0.09751
3801.20054	0.09899
3799.27197	0.10089
3797.34341	0.10192
3795.41484	0.10315
3793.48628	0.10458
3791.55771	0.10554
3789.62915	0.10661
3787.70059	0.10798
3785.77202	0.10941
3783.84346	0.11095
3781.91489	0.11244
3779.98633	0.11393
3778.05776	0.11563
3776.12920	0.11728
3774.20063	0.11883
3772.27207	0.12014
3770.34351	0.12141
3768.41494	0.12352
3766.48638	0.12586
3764.55781	0.12766
3762.62925	0.12913
3760.70068	0.13073
3758.77212	0.13306
3756.84355	0.13602
3754.91499	0.13861
3752.98643	0.14079
3751.05786	0.14376
3749.12930	0.14785
3747.20073	0.15078
3745.27217	0.15291
3743.34360	0.15592
3741.41504	0.15904
3739.48647	0.16163
3737.55791	0.16452
3735.62935	0.16840
3733.70078	0.17313
3731.77222	0.17759
3729.84365	0.18164
3727.91509	0.18533
3725.98652	0.18996
3724.05796	0.19669
3722.12939	0.20440
3720.20083	0.21252
3718.27227	0.22101
3716.34370	0.22941
3714.41514	0.23740
3712.48657	0.24593
3710.55801	0.25751
3708.62944	0.27137
3706.70088	0.28390
3704.77231	0.29570
3702.84375	0.30899
3700.91519	0.32584
3698.98662	0.34440
3697.05806	0.36216
3695.12949	0.38089
3693.20093	0.40052
3691.27236	0.42142
3689.34380	0.44908
3687.41523	0.48465
3685.48667	0.51652
3683.55811	0.54357
3681.62954	0.57183
3679.70098	0.60341
3677.77241	0.63669
3675.84385	0.67574
3673.91528	0.72845
3671.98672	0.77238
3670.05815	0.81095
3668.12959	0.86412
3666.20103	0.91413
3664.27246	0.95563
3662.34390	0.99892
3660.41533	1.04545
3658.48677	1.09165
3656.55820	1.14092
3654.62964	1.19607
3652.70107	1.24290
3650.77251	1.28318
3648.84395	1.33758
3646.91538	1.40533
3644.98682	1.45703
3643.05825	1.49736
3641.12969	1.53837
3639.20112	1.58265
3637.27256	1.62613
3635.34399	1.66830
3633.41543	1.71085
3631.48687	1.75056
3629.55830	1.79019
3627.62974	1.84274
3625.70117	1.89375
3623.77261	1.92913
3621.84404	1.96270
3619.91548	2.00034
3617.98691	2.04507
3616.05835	2.08869
3614.12979	2.12622
3612.20122	2.16619
3610.27266	2.20593
3608.34409	2.24520
3606.41553	2.28722
3604.48696	2.32603
3602.55840	2.36099
3600.62983	2.40061
3598.70127	2.44444
3596.77271	2.48565
3594.84414	2.52498
3592.91558	2.56487
3590.98701	2.60339
3589.05845	2.63974
3587.12988	2.68286
3585.20132	2.73213
3583.27275	2.77547
3581.34419	2.81378
3579.41562	2.85325
3577.48706	2.89506
3575.55850	2.93698
3573.62993	2.97982
3571.70137	3.02244
3569.77280	3.06382
3567.84424	3.10675
3565.91567	3.15826
3563.98711	3.20884
3562.05854	3.24914
3560.12998	3.28824
3558.20142	3.33034
3556.27285	3.37336
3554.34429	3.41662
3552.41572	3.46477
3550.48716	3.51499
3548.55859	3.56101
3546.63003	3.60456
3544.70146	3.65069
3542.77290	3.70100
3540.84434	3.75072
3538.91577	3.79630
3536.98721	3.83921
3535.05864	3.88463
3533.13008	3.93374
3531.20151	3.98496
3529.27295	4.03460
3527.34438	4.08189
3525.41582	4.12966
3523.48726	4.17725
3521.55869	4.22448
3519.63013	4.27175
3517.70156	4.32014
3515.77300	4.36985
3513.84443	4.41931
3511.91587	4.46656
3509.98730	4.51350
3508.05874	4.56105
3506.13018	4.60459
3504.20161	4.64602
3502.27305	4.69368
3500.34448	4.74623
3498.41592	4.79499
3496.48735	4.84274
3494.55879	4.89537
3492.63022	4.94731
3490.70166	4.99145
3488.77310	5.03247
3486.84453	5.07938
3484.91597	5.13419
3482.98740	5.19064
3481.05884	5.24486
3479.13027	5.29916
3477.20171	5.34987
3475.27314	5.38809
3473.34458	5.41903
3471.41602	5.45710
3469.48745	5.50641
3467.55889	5.56390
3465.63032	5.62192
3463.70176	5.67501
3461.77319	5.72156
3459.84463	5.76220
3457.91606	5.80813
3455.98750	5.86800
3454.05894	5.92663
3452.13037	5.96938
3450.20181	6.00848
3448.27324	6.05817
3446.34468	6.11323
3444.41611	6.16531
3442.48755	6.22157
3440.55898	6.27427
3438.63042	6.30436
3436.70186	6.31926
3434.77329	6.36048
3432.84473	6.43411
3430.91616	6.49650
3428.98760	6.55228
3427.05903	6.61816
3425.13047	6.67920
3423.20190	6.72753
3421.27334	6.76688
3419.34478	6.81036
3417.41621	6.87765
3415.48765	6.94894
3413.55908	6.99384
3411.63052	7.03038
3409.70195	7.07162
3407.77339	7.11931
3405.84482	7.15834
3403.91626	7.17989
3401.98770	7.20248
3400.05913	7.24619
3398.13057	7.28970
3396.20200	7.30503
3394.27344	7.32162
3392.34487	7.36921
3390.41631	7.45634
3388.48774	7.52714
3386.55918	7.54766
3384.63062	7.53794
3382.70205	7.54515
3380.77349	7.63548
3378.84492	7.73929
3376.91636	7.73959
3374.98779	7.70540
3373.05923	7.73796
3371.13066	7.78709
3369.20210	7.81955
3367.27354	7.86787
3365.34497	7.94298
3363.41641	7.99481
3361.48784	7.94819
3359.55928	7.86612
3357.63071	7.86237
3355.70215	7.95420
3353.77358	8.05874
3351.84502	8.11556
3349.91646	8.11954
3347.98789	8.12713
3346.05933	8.15729
3344.13076	8.15125
3342.20220	8.10628
3340.27363	8.05678
3338.34507	8.04923
3336.41650	8.06836
3334.48794	8.09258
3332.55937	8.12644
3330.63081	8.16701
3328.70225	8.18250
3326.77368	8.13806
3324.84512	8.08841
3322.91655	8.12633
3320.98799	8.26844
3319.05942	8.34813
3317.13086	8.27023
3315.20229	8.18793
3313.27373	8.19046
3311.34517	8.22375
3309.41660	8.27018
3307.48804	8.34863
3305.55947	8.39540
3303.63091	8.38620
3301.70234	8.35129
3299.77378	8.29582
3297.84521	8.22566
3295.91665	8.17503
3293.98809	8.12526
3292.05952	8.08836
3290.13096	8.12212
3288.20239	8.21569
3286.27383	8.32294
3284.34526	8.37513
3282.41670	8.39233
3280.48813	8.43426
3278.55957	8.46899
3276.63101	8.42273
3274.70244	8.28387
3272.77388	8.16487
3270.84531	8.15064
3268.91675	8.19911
3266.98818	8.26580
3265.05962	8.32223
3263.13105	8.30151
3261.20249	8.25180
3259.27393	8.21186
3257.34536	8.18541
3255.41680	8.20437
3253.48823	8.23432
3251.55967	8.23423
3249.63110	8.21063
3247.70254	8.16657
3245.77397	8.12238
3243.84541	8.16259
3241.91685	8.24859
3239.98828	8.24288
3238.05972	8.15739
3236.13115	8.08826
3234.20259	8.09178
3232.27402	8.11577
3230.34546	8.11788
3228.41689	8.13692
3226.48833	8.15138
3224.55977	8.12553
3222.63120	8.06603
3220.70264	8.00020
3218.77407	8.02673
3216.84551	8.15564
3214.91694	8.21313
3212.98838	8.14414
3211.05981	8.04627
3209.13125	7.96667
3207.20269	7.93135
3205.27412	7.90764
3203.34556	7.84445
3201.41699	7.77080
3199.48843	7.72869
3197.55986	7.72628
3195.63130	7.70032
3193.70273	7.58676
3191.77417	7.46993
3189.84561	7.42036
3187.91704	7.39559
3185.98848	7.37409
3184.05991	7.37345
3182.13135	7.35871
3180.20278	7.30142
3178.27422	7.24370
3176.34565	7.19415
3174.41709	7.11319
3172.48853	7.02628
3170.55996	6.98626
3168.63140	6.97437
3166.70283	6.92506
3164.77427	6.83070
3162.84570	6.74578
3160.91714	6.68517
3158.98857	6.62613
3157.06001	6.57090
3155.13145	6.52762
3153.20288	6.47334
3151.27432	6.39309
3149.34575	6.31350
3147.41719	6.24816
3145.48862	6.17610
3143.56006	6.09536
3141.63149	6.01697
3139.70293	5.94049
3137.77437	5.87313
3135.84580	5.81152
3133.91724	5.74474
3131.98867	5.68089
3130.06011	5.61703
3128.13154	5.53617
3126.20298	5.44695
3124.27441	5.36197
3122.34585	5.27846
3120.41729	5.20281
3118.48872	5.13772
3116.56016	5.07511
3114.63159	5.01285
3112.70303	4.94879
3110.77446	4.87833
3108.84590	4.80504
3106.91733	4.73558
3104.98877	4.66842
3103.06021	4.59890
3101.13164	4.52970
3099.20308	4.46561
3097.27451	4.40250
3095.34595	4.33845
3093.41738	4.27655
3091.48882	4.21186
3089.56025	4.14169
3087.63169	4.07355
3085.70312	4.01158
3083.77456	3.95273
3081.84600	3.89348
3079.91743	3.83228
3077.98887	3.77138
3076.06030	3.71163
3074.13174	3.65241
3072.20317	3.59533
3070.27461	3.53814
3068.34604	3.47859
3066.41748	3.42003
3064.48892	3.36396
3062.56035	3.30825
3060.63179	3.25406
3058.70322	3.20252
3056.77466	3.15151
3054.84609	3.09982
3052.91753	3.04759
3050.98896	2.99594
3049.06040	2.94603
3047.13184	2.89710
3045.20327	2.84740
3043.27471	2.79789
3041.34614	2.75040
3039.41758	2.70363
3037.48901	2.65688
3035.56045	2.61153
3033.63188	2.56742
3031.70332	2.52327
3029.77476	2.47940
3027.84619	2.43701
3025.91763	2.39536
3023.98906	2.35358
3022.06050	2.31249
3020.13193	2.27211
3018.20337	2.23181
3016.27480	2.19188
3014.34624	2.15276
3012.41768	2.11475
3010.48911	2.07772
3008.56055	2.04105
3006.63198	2.00470
3004.70342	1.96936
3002.77485	1.93485
3000.84629	1.90052
2998.91772	1.86683
2996.98916	1.83404
2995.06060	1.80162
2993.13203	1.76975
2991.20347	1.73914
2989.27490	1.70953
2987.34634	1.68049
2985.41777	1.65175
2983.48921	1.62250
2981.56064	1.59321
2979.63208	1.56521
2977.70352	1.53846
2975.77495	1.51215
2973.84639	1.48598
2971.91782	1.46002
2969.98926	1.43445
2968.06069	1.40950
2966.13213	1.38539
2964.20356	1.36190
2962.27500	1.33846
2960.34644	1.31481
2958.41787	1.29111
2956.48931	1.26792
2954.56074	1.24557
2952.63218	1.22364
2950.70361	1.20170
2948.77505	1.18003
2946.84648	1.15907
2944.91792	1.13880
2942.98936	1.11911
2941.06079	1.09953
2939.13223	1.07945
2937.20366	1.05958
2935.27510	1.04097
2933.34653	1.02340
2931.41797	1.00574
2929.48940	0.98723
2927.56084	0.96853
2925.63228	0.95090
2923.70371	0.93423
2921.77515	0.91763
2919.84658	0.90115
2917.91802	0.88484
2915.98945	0.86850
2914.06089	0.85265
2912.13232	0.83759
2910.20376	0.82318
2908.27520	0.80889
2906.34663	0.79442
2904.41807	0.78057
2902.48950	0.76757
2900.56094	0.75457
2898.63237	0.74141
2896.70381	0.72835
2894.77524	0.71596
2892.84668	0.70441
2890.91812	0.69296
2888.98955	0.68155
2887.06099	0.67055
2885.13242	0.65986
2883.20386	0.64944
2881.27529	0.63939
2879.34673	0.62954
2877.41816	0.61962
2875.48960	0.60956
2873.56104	0.59953
2871.63247	0.58947
2869.70391	0.57905
2867.77534	0.56842
2865.84678	0.55802
2863.91821	0.54802
2861.98965	0.53850
2860.06108	0.52923
2858.13252	0.51988
2856.20396	0.51082
2854.27539	0.50251
2852.34683	0.49439
2850.41826	0.48602
2848.48970	0.47786
2846.56113	0.47020
2844.63257	0.46283
2842.70400	0.45576
2840.77544	0.44916
2838.84687	0.44296
2836.91831	0.43687
2834.98975	0.43070
2833.06118	0.42452
2831.13262	0.41856
2829.20405	0.41273
2827.27549	0.40679
2825.34692	0.40073
2823.41836	0.39469
2821.48979	0.38893
2819.56123	0.38341
2817.63267	0.37779
2815.70410	0.37216
2813.77554	0.36679
2811.84697	0.36160
2809.91841	0.35633
2807.98984	0.35099
2806.06128	0.34593
2804.13271	0.34127
2802.20415	0.33667
2800.27559	0.33192
2798.34702	0.32720
2796.41846	0.32260
2794.48989	0.31809
2792.56133	0.31377
2790.63276	0.30955
2788.70420	0.30522
2786.77563	0.30096
2784.84707	0.29695
2782.91851	0.29305
2780.98994	0.28920
2779.06138	0.28539
2777.13281	0.28158
2775.20425	0.27782
2773.27568	0.27419
2771.34712	0.27071
2769.41855	0.26734
2767.48999	0.26403
2765.56143	0.26064
2763.63286	0.25719
2761.70430	0.25404
2759.77573	0.25123
2757.84717	0.24852
2755.91860	0.24577
2753.99004	0.24276
2752.06147	0.23960
2750.13291	0.23667
2748.20435	0.23401
2746.27578	0.23134
2744.34722	0.22865
2742.41865	0.22611
2740.49009	0.22375
2738.56152	0.22134
2736.63296	0.21888
2734.70439	0.21658
2732.77583	0.21431
2730.84727	0.21191
2728.91870	0.20964
2726.99014	0.20761
2725.06157	0.20562
2723.13301	0.20367
2721.20444	0.20179
2719.27588	0.19995
2717.34731	0.19806
2715.41875	0.19610
2713.49019	0.19430
2711.56162	0.19270
2709.63306	0.19110
2707.70449	0.18942
2705.77593	0.18771
2703.84736	0.18604
2701.91880	0.18445
2699.99023	0.18293
2698.06167	0.18159
2696.13311	0.18042
2694.20454	0.17919
2692.27598	0.17788
2690.34741	0.17661
2688.41885	0.17531
2686.49028	0.17390
2684.56172	0.17252
2682.63315	0.17136
2680.70459	0.17029
2678.77603	0.16917
2676.84746	0.16806
2674.91890	0.16699
2672.99033	0.16594
2671.06177	0.16491
2669.13320	0.16386
2667.20464	0.16292
2665.27607	0.16213
2663.34751	0.16136
2661.41895	0.16062
2659.49038	0.15981
2657.56182	0.15883
2655.63325	0.15780
2653.70469	0.15703
2651.77612	0.15653
2649.84756	0.15595
2647.91899	0.15522
2645.99043	0.15467
2644.06187	0.15429
2642.13330	0.15375
2640.20474	0.15308
2638.27617	0.15248
2636.34761	0.15205
2634.41904	0.15170
2632.49048	0.15126
2630.56191	0.15072
2628.63335	0.15029
2626.70479	0.15007
2624.77622	0.14982
2622.84766	0.14951
2620.91909	0.14925
2618.99053	0.14898
2617.06196	0.14870
2615.13340	0.14852
2613.20483	0.14848
2611.27627	0.14852
2609.34771	0.14854
2607.41914	0.14843
2605.49058	0.14829
2603.56201	0.14818
2601.63345	0.14804
2599.70488	0.14802
2597.77632	0.14823
2595.84775	0.14842
2593.91919	0.14847
2591.99062	0.14849
2590.06206	0.14855
2588.13350	0.14866
2586.20493	0.14878
2584.27637	0.14899
2582.34780	0.14932
2580.41924	0.14963
2578.49067	0.14986
2576.56211	0.15012
2574.63354	0.15043
2572.70498	0.15078
2570.77642	0.15111
2568.84785	0.15147
2566.91929	0.15199
2564.99072	0.15249
2563.06216	0.15287
2561.13359	0.15330
2559.20503	0.15387
2557.27646	0.15444
2555.34790	0.15486
2553.41934	0.15527
2551.49077	0.15585
2549.56221	0.15646
2547.63364	0.15700
2545.70508	0.15762
2543.77651	0.15820
2541.84795	0.15864
2539.91938	0.15921
2537.99082	0.15993
2536.06226	0.16058
2534.13369	0.16113
2532.20513	0.16171
2530.27656	0.16242
2528.34800	0.16324
2526.41943	0.16401
2524.49087	0.16465
2522.56230	0.16528
2520.63374	0.16605
2518.70518	0.16691
2516.77661	0.16769
2514.84805	0.16844
2512.91948	0.16923
2510.99092	0.16998
2509.06235	0.17065
2507.13379	0.17131
2505.20522	0.17211
2503.27666	0.17307
2501.34810	0.17404
2499.41953	0.17503
2497.49097	0.17601
2495.56240	0.17681
2493.63384	0.17738
2491.70527	0.17798
2489.77671	0.17876
2487.84814	0.17971
2485.91958	0.18070
2483.99102	0.18163
2482.06245	0.18251
2480.13389	0.18331
2478.20532	0.18413
2476.27676	0.18511
2474.34819	0.18608
2472.41963	0.18696
2470.49106	0.18786
2468.56250	0.18877
2466.63394	0.18967
2464.70537	0.19059
2462.77681	0.19159
2460.84824	0.19260
2458.91968	0.19350
2456.99111	0.19435
2455.06255	0.19526
2453.13398	0.19626
2451.20542	0.19725
2449.27686	0.19812
2447.34829	0.19900
2445.41973	0.19997
2443.49116	0.20094
2441.56260	0.20194
2439.63403	0.20307
2437.70547	0.20420
2435.77690	0.20525
2433.84834	0.20622
2431.91978	0.20717
2429.99121	0.20824
2428.06265	0.20936
2426.13408	0.21044
2424.20552	0.21149
2422.27695	0.21256
2420.34839	0.21367
2418.41982	0.21484
2416.49126	0.21598
2414.56270	0.21703
2412.63413	0.21807
2410.70557	0.21918
2408.77700	0.22039
2406.84844	0.22154
2404.91987	0.22266
2402.99131	0.22378
2401.06274	0.22491
2399.13418	0.22610
2397.20562	0.22739
2395.27705	0.22868
2393.34849	0.22991
2391.41992	0.23101
2389.49136	0.23196
2387.56279	0.23276
2385.63423	0.23332
2383.70566	0.23336
2381.77710	0.23266
2379.84854	0.23153
2377.91997	0.23030
2375.99141	0.22873
2374.06284	0.22664
2372.13428	0.22413
2370.20571	0.22098
2368.27715	0.21709
2366.34858	0.21365
2364.42002	0.21162
2362.49146	0.21070
2360.56289	0.21062
2358.63433	0.21202
2356.70576	0.21646
2354.77720	0.22305
2352.84863	0.22967
2350.92007	0.23612
2348.99150	0.24073
2347.06294	0.24189
2345.13437	0.23977
2343.20581	0.23672
2341.27725	0.23635
2339.34868	0.23868
2337.42012	0.24110
2335.49155	0.24300
2333.56299	0.24532
2331.63442	0.24804
2329.70586	0.25066
2327.77729	0.25337
2325.84873	0.25632
2323.92017	0.25953
2321.99160	0.26319
2320.06304	0.26733
2318.13447	0.27158
2316.20591	0.27525
2314.27734	0.27805
2312.34878	0.28037
2310.42021	0.28275
2308.49165	0.28552
2306.56309	0.28876
2304.63452	0.29196
2302.70596	0.29460
2300.77739	0.29699
2298.84883	0.29958
2296.92026	0.30221
2294.99170	0.30464
2293.06313	0.30700
2291.13457	0.30945
2289.20601	0.31193
2287.27744	0.31433
2285.34888	0.31665
2283.42031	0.31886
2281.49175	0.32091
2279.56318	0.32289
2277.63462	0.32486
2275.70605	0.32681
2273.77749	0.32876
2271.84893	0.33078
2269.92036	0.33289
2267.99180	0.33499
2266.06323	0.33697
2264.13467	0.33900
2262.20610	0.34129
2260.27754	0.34368
2258.34897	0.34592
2256.42041	0.34799
2254.49185	0.35005
2252.56328	0.35217
2250.63472	0.35436
2248.70615	0.35656
2246.77759	0.35877
2244.84902	0.36098
2242.92046	0.36326
2240.99189	0.36560
2239.06333	0.36791
2237.13477	0.37018
2235.20620	0.37235
2233.27764	0.37446
2231.34907	0.37669
2229.42051	0.37893
2227.49194	0.38106
2225.56338	0.38317
2223.63481	0.38536
2221.70625	0.38767
2219.77769	0.38995
2217.84912	0.39210
2215.92056	0.39420
2213.99199	0.39637
2212.06343	0.39855
2210.13486	0.40065
2208.20630	0.40272
2206.27773	0.40477
2204.34917	0.40680
2202.42061	0.40877
2200.49204	0.41068
2198.56348	0.41271
2196.63491	0.41482
2194.70635	0.41683
2192.77778	0.41870
2190.84922	0.42048
2188.92065	0.42217
2186.99209	0.42382
2185.06353	0.42555
2183.13496	0.42745
2181.20640	0.42935
2179.27783	0.43105
2177.34927	0.43250
2175.42070	0.43385
2173.49214	0.43530
2171.56357	0.43688
2169.63501	0.43846
2167.70645	0.43995
2165.77788	0.44126
2163.84932	0.44245
2161.92075	0.44359
2159.99219	0.44462
2158.06362	0.44554
2156.13506	0.44653
2154.20649	0.44761
2152.27793	0.44858
2150.34937	0.44937
2148.42080	0.44999
2146.49224	0.45054
2144.56367	0.45106
2142.63511	0.45143
2140.70654	0.45166
2138.77798	0.45198
2136.84941	0.45229
2134.92085	0.45247
2132.99229	0.45249
2131.06372	0.45241
2129.13516	0.45228
2127.20659	0.45218
2125.27803	0.45204
2123.34946	0.45173
2121.42090	0.45130
2119.49233	0.45085
2117.56377	0.45035
2115.63521	0.44968
2113.70664	0.44893
2111.77808	0.44817
2109.84951	0.44731
2107.92095	0.44637
2105.99238	0.44538
2104.06382	0.44427
2102.13525	0.44305
2100.20669	0.44177
2098.27812	0.44038
2096.34956	0.43896
2094.42100	0.43757
2092.49243	0.43614
2090.56387	0.43462
2088.63530	0.43296
2086.70674	0.43117
2084.77817	0.42937
2082.84961	0.42766
2080.92104	0.42586
2078.99248	0.42387
2077.06392	0.42173
2075.13535	0.41964
2073.20679	0.41761
2071.27822	0.41551
2069.34966	0.41335
2067.42109	0.41112
2065.49253	0.40884
2063.56396	0.40661
2061.63540	0.40435
2059.70684	0.40199
2057.77827	0.39957
2055.84971	0.39717
2053.92114	0.39474
2051.99258	0.39213
2050.06401	0.38942
2048.13545	0.38679
2046.20688	0.38423
2044.27832	0.38168
2042.34976	0.37910
2040.42119	0.37649
2038.49263	0.37389
2036.56406	0.37123
2034.63550	0.36846
2032.70693	0.36565
2030.77837	0.36290
2028.84980	0.36018
2026.92124	0.35747
2024.99268	0.35480
2023.06411	0.35215
2021.13555	0.34942
2019.20698	0.34660
2017.27842	0.34379
2015.34985	0.34104
2013.42129	0.33839
2011.49272	0.33571
2009.56416	0.33302
2007.63560	0.33041
2005.70703	0.32789
2003.77847	0.32533
2001.84990	0.32265
1999.92134	0.31995
1997.99277	0.31735
1996.06421	0.31483
1994.13564	0.31229
1992.20708	0.30976
1990.27852	0.30731
1988.34995	0.30496
1986.42139	0.30260
1984.49282	0.30019
1982.56426	0.29779
1980.63569	0.29546
1978.70713	0.29318
1976.77856	0.29094
1974.85000	0.28877
1972.92144	0.28665
1970.99287	0.28450
1969.06431	0.28232
1967.13574	0.28023
1965.20718	0.27825
1963.27861	0.27631
1961.35005	0.27436
1959.42148	0.27245
1957.49292	0.27064
1955.56436	0.26884
1953.63579	0.26712
1951.70723	0.26549
1949.77866	0.26391
1947.85010	0.26231
1945.92153	0.26066
1943.99297	0.25901
1942.06440	0.25754
1940.13584	0.25618
1938.20728	0.25470
1936.27871	0.25328
1934.35015	0.25208
1932.42158	0.25101
1930.49302	0.24988
1928.56445	0.24870
1926.63589	0.24749
1924.70732	0.24639
1922.77876	0.24533
1920.85020	0.24429
1918.92163	0.24337
1916.99307	0.24254
1915.06450	0.24164
1913.13594	0.24066
1911.20737	0.23983
1909.27881	0.23919
1907.35024	0.23869
1905.42168	0.23816
1903.49312	0.23758
1901.56455	0.23694
1899.63599	0.23638
1897.70742	0.23597
1895.77886	0.23556
1893.85029	0.23510
1891.92173	0.23459
1889.99316	0.23422
1888.06460	0.23404
1886.13604	0.23387
1884.20747	0.23370
1882.27891	0.23358
1880.35034	0.23345
1878.42178	0.23332
1876.49321	0.23328
1874.56465	0.23322
1872.63608	0.23311
1870.70752	0.23309
1868.77896	0.23348
1866.85039	0.23399
1864.92183	0.23416
1862.99326	0.23426
1861.06470	0.23448
1859.13613	0.23482
1857.20757	0.23512
1855.27900	0.23549
1853.35044	0.23591
1851.42187	0.23637
1849.49331	0.23683
1847.56475	0.23733
1845.63618	0.23788
1843.70762	0.23862
1841.77905	0.23957
1839.85049	0.24033
1837.92192	0.24119
1835.99336	0.24216
1834.06479	0.24312
1832.13623	0.24395
1830.20767	0.24505
1828.27910	0.24647
1826.35054	0.24767
1824.42197	0.24894
1822.49341	0.25031
1820.56484	0.25167
1818.63628	0.25300
1816.70771	0.25457
1814.77915	0.25622
1812.85059	0.25788
1810.92202	0.25971
1808.99346	0.26170
1807.06489	0.26366
1805.13633	0.26551
1803.20776	0.26760
1801.27920	0.27008
1799.35063	0.27296
1797.42207	0.27553
1795.49351	0.27779
1793.56494	0.28035
1791.63638	0.28388
1789.70781	0.28752
1787.77925	0.29026
1785.85068	0.29325
1783.92212	0.29675
1781.99355	0.30057
1780.06499	0.30468
1778.13643	0.30898
1776.20786	0.31289
1774.27930	0.31680
1772.35073	0.32214
1770.42217	0.32853
1768.49360	0.33435
1766.56504	0.33988
1764.63647	0.34528
1762.70791	0.35096
1760.77935	0.35819
1758.85078	0.36515
1756.92222	0.37217
1754.99365	0.37995
1753.06509	0.38696
1751.13652	0.39491
1749.20796	0.40496
1747.27939	0.41546
1745.35083	0.42493
1743.42227	0.43459
1741.49370	0.44505
1739.56514	0.45744
1737.63657	0.46988
1735.70801	0.48056
1733.77944	0.49642
1731.85088	0.51605
1729.92231	0.53209
1727.99375	0.54804
1726.06519	0.56485
1724.13662	0.58307
1722.20806	0.60277
1720.27949	0.62085
1718.35093	0.64152
1716.42236	0.67209
1714.49380	0.70236
1712.56523	0.72757
1710.63667	0.75165
1708.70811	0.77708
1706.77954	0.80572
1704.85098	0.84005
1702.92241	0.87089
1700.99385	0.90117
1699.06528	0.94603
1697.13672	0.98760
1695.20815	1.03077
1693.27959	1.07310
1691.35103	1.10708
1689.42246	1.14577
1687.49390	1.18624
1685.56533	1.22485
1683.63677	1.28465
1681.70820	1.34786
1679.77964	1.38894
1677.85107	1.42791
1675.92251	1.47261
1673.99395	1.52709
1672.06538	1.57472
1670.13682	1.62104
1668.20825	1.68189
1666.27969	1.73223
1664.35112	1.77420
1662.42256	1.82518
1660.49399	1.88205
1658.56543	1.92659
1656.63687	1.96264
1654.70830	1.99572
1652.77974	2.04944
1650.85117	2.10354
1648.92261	2.12585
1646.99404	2.15407
1645.06548	2.18597
1643.13691	2.20677
1641.20835	2.21907
1639.27979	2.22920
1637.35122	2.23516
1635.42266	2.23716
1633.49409	2.23336
1631.56553	2.22203
1629.63696	2.20694
1627.70840	2.18057
1625.77983	2.14824
1623.85127	2.10855
1621.92271	2.06151
1619.99414	2.01915
1618.06558	1.97584
1616.13701	1.91378
1614.20845	1.85183
1612.27988	1.80510
1610.35132	1.75614
1608.42275	1.70263
1606.49419	1.64923
1604.56562	1.59956
1602.63706	1.55175
1600.70850	1.50542
1598.77993	1.46270
1596.85137	1.42192
1594.92280	1.38173
1592.99424	1.34267
1591.06567	1.30682
1589.13711	1.27332
1587.20854	1.24177
1585.27998	1.21180
1583.35142	1.18346
1581.42285	1.15757
1579.49429	1.13520
1577.56572	1.11489
1575.63716	1.09030
1573.70859	1.06866
1571.78003	1.05441
1569.85146	1.03907
1567.92290	1.02172
1565.99434	1.00845
1564.06577	0.99774
1562.13721	0.98888
1560.20864	0.98161
1558.28008	0.97108
1556.35151	0.96245
1554.42295	0.95715
1552.49438	0.95173
1550.56582	0.94561
1548.63726	0.93820
1546.70869	0.93023
1544.78013	0.92124
1542.85156	0.91069
1540.92300	0.89727
1538.99443	0.87881
1537.06587	0.86562
1535.13730	0.85636
1533.20874	0.84421
1531.28018	0.83124
1529.35161	0.82162
1527.42305	0.81240
1525.49448	0.80274
1523.56592	0.79409
1521.63735	0.78544
1519.70879	0.77680
1517.78022	0.76961
1515.85166	0.76178
1513.92310	0.75397
1511.99453	0.74720
1510.06597	0.74086
1508.13740	0.73462
1506.20884	0.72568
1504.28027	0.71801
1502.35171	0.71343
1500.42314	0.70934
1498.49458	0.70496
1496.56602	0.69975
1494.63745	0.69473
1492.70889	0.69082
1490.78032	0.68726
1488.85176	0.68344
1486.92319	0.68019
1484.99463	0.67753
1483.06606	0.67512
1481.13750	0.67282
1479.20894	0.67082
1477.28037	0.66940
1475.35181	0.66831
1473.42324	0.66718
1471.49468	0.66559
1469.56611	0.66376
1467.63755	0.66187
1465.70898	0.65998
1463.78042	0.65826
1461.85186	0.65686
1459.92329	0.65562
1457.99473	0.65417
1456.06616	0.65209
1454.13760	0.64963
1452.20903	0.64742
1450.28047	0.64540
1448.35190	0.64331
1446.42334	0.64093
1444.49478	0.63860
1442.56621	0.63649
1440.63765	0.63446
1438.70908	0.63240
1436.78052	0.62982
1434.85195	0.62700
1432.92339	0.62483
1430.99482	0.62322
1429.06626	0.62180
1427.13770	0.62046
1425.20913	0.61935
1423.28057	0.61861
1421.35200	0.61795
1419.42344	0.61705
1417.49487	0.61594
1415.56631	0.61473
1413.63774	0.61353
1411.70918	0.61248
1409.78062	0.61174
1407.85205	0.61127
1405.92349	0.61089
1403.99492	0.61048
1402.06636	0.60985
1400.13779	0.60888
1398.20923	0.60742
1396.28066	0.60554
1394.35210	0.60340
1392.42354	0.60125
1390.49497	0.59923
1388.56641	0.59710
1386.63784	0.59464
1384.70928	0.59207
1382.78071	0.58967
1380.85215	0.58750
1378.92358	0.58567
1376.99502	0.58414
1375.06646	0.58288
1373.13789	0.58192
1371.20933	0.58110
1369.28076	0.58026
1367.35220	0.57934
1365.42363	0.57826
1363.49507	0.57701
1361.56650	0.57581
1359.63794	0.57475
1357.70937	0.57367
1355.78081	0.57256
1353.85225	0.57153
1351.92368	0.57057
1349.99512	0.56962
1348.06655	0.56865
1346.13799	0.56763
1344.20942	0.56668
1342.28086	0.56583
1340.35229	0.56498
1338.42373	0.56400
1336.49517	0.56309
1334.56660	0.56246
1332.63804	0.56195
1330.70947	0.56141
1328.78091	0.56090
1326.85234	0.56059
1324.92378	0.56045
1322.99521	0.56032
1321.06665	0.56011
1319.13809	0.55986
1317.20952	0.55948
1315.28096	0.55894
1313.35239	0.55825
1311.42383	0.55741
1309.49526	0.55653
1307.56670	0.55590
1305.63813	0.55546
1303.70957	0.55488
1301.78101	0.55416
1299.85244	0.55332
1297.92388	0.55243
1295.99531	0.55155
1294.06675	0.55070
1292.13818	0.54979
1290.20962	0.54888
1288.28105	0.54815
1286.35249	0.54748
1284.42393	0.54672
1282.49536	0.54595
1280.56680	0.54511
1278.63823	0.54412
1276.70967	0.54323
1274.78110	0.54271
1272.85254	0.54233
1270.92397	0.54184
1268.99541	0.54130
1267.06685	0.54073
1265.13828	0.54012
1263.20972	0.53961
1261.28115	0.53913
1259.35259	0.53858
1257.42402	0.53811
1255.49546	0.53780
1253.56689	0.53757
1251.63833	0.53744
1249.70977	0.53735
1247.78120	0.53708
1245.85264	0.53656
1243.92407	0.53586
1241.99551	0.53511
1240.06694	0.53443
1238.13838	0.53371
1236.20981	0.53273
1234.28125	0.53152
1232.35269	0.53028
1230.42412	0.52900
1228.49556	0.52764
1226.56699	0.52636
1224.63843	0.52526
1222.70986	0.52414
1220.78130	0.52294
1218.85273	0.52191
1216.92417	0.52113
1214.99561	0.52038
1213.06704	0.51962
1211.13848	0.51900
1209.20991	0.51844
1207.28135	0.51779
1205.35278	0.51702
1203.42422	0.51631
1201.49565	0.51581
1199.56709	0.51539
1197.63853	0.51479
1195.70996	0.51411
1193.78140	0.51355
1191.85283	0.51295
1189.92427	0.51228
1187.99570	0.51184
1186.06714	0.51169
1184.13857	0.51163
1182.21001	0.51160
1180.28145	0.51187
1178.35288	0.51254
1176.42432	0.51348
1174.49575	0.51461
1172.56719	0.51583
1170.63862	0.51692
1168.71006	0.51775
1166.78149	0.51847
1164.85293	0.51928
1162.92437	0.52005
1160.99580	0.52046
1159.06724	0.52063
1157.13867	0.52067
1155.21011	0.52033
1153.28154	0.51941
1151.35298	0.51789
1149.42441	0.51582
1147.49585	0.51334
1145.56729	0.51073
1143.63872	0.50817
1141.71016	0.50572
1139.78159	0.50356
1137.85303	0.50172
1135.92446	0.50003
1133.99590	0.49877
1132.06733	0.49805
1130.13877	0.49738
1128.21021	0.49662
1126.28164	0.49596
1124.35308	0.49548
1122.42451	0.49524
1120.49595	0.49526
1118.56738	0.49544
1116.63882	0.49566
1114.71025	0.49618
1112.78169	0.49718
1110.85312	0.49835
1108.92456	0.49963
1106.99600	0.50084
1105.06743	0.50179
1103.13887	0.50269
1101.21030	0.50373
1099.28174	0.50487
1097.35317	0.50646
1095.42461	0.50913
1093.49604	0.51293
1091.56748	0.51781
1089.63892	0.52402
1087.71035	0.53158
1085.78179	0.54006
1083.85322	0.54873
1081.92466	0.55653
1079.99609	0.56251
1078.06753	0.56574
1076.13896	0.56560
1074.21040	0.56244
1072.28184	0.55712
1070.35327	0.55039
1068.42471	0.54321
1066.49614	0.53638
1064.56758	0.53005
1062.63901	0.52450
1060.71045	0.51996
1058.78188	0.51606
1056.85332	0.51228
1054.92476	0.50870
1052.99619	0.50584
1051.06763	0.50376
1049.13906	0.50223
1047.21050	0.50137
1045.28193	0.50112
1043.35337	0.50102
1041.42480	0.50093
1039.49624	0.50107
1037.56768	0.50149
1035.63911	0.50194
1033.71055	0.50189
1031.78198	0.50110
1029.85342	0.49983
1027.92485	0.49842
1025.99629	0.49695
1024.06772	0.49558
1022.13916	0.49468
1020.21060	0.49441
1018.28203	0.49437
1016.35347	0.49429
1014.42490	0.49415
1012.49634	0.49379
1010.56777	0.49344
1008.63921	0.49353
1006.71064	0.49404
1004.78208	0.49490
1002.85352	0.49621
1000.92495	0.49835
998.99639	0.50153
997.06782	0.50544
995.13926	0.50974
993.21069	0.51395
991.28213	0.51730
989.35356	0.51941
987.42500	0.52026
985.49644	0.52016
983.56787	0.51976
981.63931	0.51963
979.71074	0.52013
977.78218	0.52143
975.85361	0.52337
973.92505	0.52578
971.99648	0.52845
970.06792	0.53131
968.13936	0.53468
966.21079	0.53884
964.28223	0.54357
962.35366	0.54837
960.42510	0.55333
958.49653	0.55880
956.56797	0.56462
954.63940	0.57051
952.71084	0.57634
950.78228	0.58199
948.85371	0.58773
946.92515	0.59379
944.99658	0.60009
943.06802	0.60660
941.13945	0.61303
939.21089	0.61883
937.28232	0.62394
935.35376	0.62923
933.42520	0.63504
931.49663	0.64044
929.56807	0.64533
927.63950	0.65063
925.71094	0.65669
923.78237	0.66323
921.85381	0.66973
919.92524	0.67617
917.99668	0.68300
916.06812	0.69028
914.13955	0.69794
912.21099	0.70580
910.28242	0.71360
908.35386	0.72163
906.42529	0.73008
904.49673	0.73899
902.56816	0.74831
900.63960	0.75765
898.71104	0.76696
896.78247	0.77652
894.85391	0.78677
892.92534	0.79747
890.99678	0.80774
889.06821	0.81751
887.13965	0.82748
885.21108	0.83838
883.28252	0.85002
881.35396	0.86054
879.42539	0.87016
877.49683	0.88140
875.56826	0.89348
873.63970	0.90457
871.71113	0.91558
869.78257	0.92719
867.85400	0.93901
865.92544	0.95077
863.99687	0.96185
862.06831	0.97274
860.13975	0.98411
858.21118	0.99442
856.28262	1.00443
854.35405	1.01723
852.42549	1.03038
850.49692	1.04013
848.56836	1.04913
846.63979	1.06062
844.71123	1.07394
842.78267	1.08740
840.85410	1.09989
838.92554	1.11103
836.99697	1.12192
835.06841	1.13337
833.13984	1.14535
831.21128	1.15674
829.28271	1.16676
827.35415	1.17731
825.42559	1.18772
823.49702	1.19648
821.56846	1.20839
819.63989	1.22719
817.71133	1.24318
815.78276	1.25068
813.85420	1.25778
811.92563	1.26687
809.99707	1.28151
808.06851	1.29941
806.13994	1.30407
804.21138	1.29986
802.28281	1.30623
800.35425	1.32302
798.42568	1.34370
796.49712	1.36422
794.56855	1.37280
792.63999	1.37876
790.71143	1.39662
788.78286	1.40094
786.85430	1.40609
784.92573	1.45210
782.99717	1.45861
781.06860	1.41014
779.14004	1.41396
777.21147	1.46510
775.28291	1.50218
773.35435	1.52611
771.42578	1.55453
769.49722	1.61217
767.56865	1.60725
765.64009	1.46774
763.71152	1.40518
761.78296	1.46900
759.85439	1.47632
757.92583	1.35105
755.99727	1.23067
754.06870	1.16085
752.14014	1.18092
750.21157	1.24479
748.28301	1.18546
746.35444	1.06706
744.42588	1.02890
742.49731	1.03916
740.56875	1.02743
738.64019	1.01334
736.71162	1.01675
734.78306	0.90734
732.85449	0.76234
730.92593	0.72259
728.99736	0.73409
727.06880	0.65671
725.14023	0.52181
723.21167	0.44807
721.28311	0.41068
719.35454	0.31351
717.42598	0.19849
715.49741	0.14043
713.56885	0.11875
711.64028	0.01482
709.71172	-0.37538
707.78315	-0.40474
705.85459	-0.19250
703.92603	-0.01941
701.99746	0.16708
700.06890	0.22276
698.14033	0.17870
696.21177	0.16092
694.28320	0.10972
692.35464	0.06219
690.42607	0.09248
688.49751	0.16782
686.56895	0.25555
684.64038	0.40248
682.71182	0.61353
680.78325	0.73974
678.85469	0.69021
676.92612	0.41978
674.99756	0.19446
673.06899	0.24203
671.14043	0.27653
669.21187	0.23079
667.28330	0.29516
665.35474	0.46640
663.42617	0.66998
661.49761	0.57764
659.56904	0.28290
657.64048	0.24717
655.71191	0.41989
653.78335	0.35480
651.85479	0.21712
649.92622	0.20038
647.99766	0.21109
646.06909	0.20542
644.14053	0.23110
642.21196	0.20948
640.28340	0.10722
638.35483	0.06426
636.42627	0.08812
634.49771	0.02324
632.56914	-0.13557
630.64058	-0.11778
628.71201	0.01114
626.78345	0.07202
624.85488	0.10735
622.92632	0.17408
620.99775	0.17358
619.06919	0.12779
617.14062	0.11324
615.21206	0.08440
613.28350	0.04225
611.35493	0.11602
609.42637	0.25768
607.49780	0.29454
605.56924	0.23517
603.64067	0.19483
601.71211	0.18749
599.78354	0.14169
597.85498	0.08470
595.92642	0.08482
593.99785	0.09112
592.06929	0.11262
590.14072	0.14957
588.21216	0.13916
586.28359	0.09914
584.35503	0.12629
582.42646	0.26941
580.49790	0.38909
578.56934	0.29438
576.64077	0.25856
574.71221	0.25240
572.78364	0.15435
570.85508	0.05987
568.92651	0.04284
566.99795	0.07804
565.06938	0.10233
563.14082	0.12099
561.21226	0.14798
559.28369	0.16742
557.35513	0.15475
555.42656	0.09968
553.49800	0.02161
551.56943	-0.00974
549.64087	0.04924
547.71230	0.13331
545.78374	0.16267
543.85518	0.10889
541.92661	0.03861
539.99805	0.02225
538.06948	0.06603
536.14092	0.09609
534.21235	0.09065
532.28379	0.08694
530.35522	0.11646
528.42666	0.18478
526.49810	0.27959
524.56953	0.37339
522.64097	0.33045
520.71240	0.21318
518.78384	0.23423
516.85527	0.36748
514.92671	0.34886
512.99814	0.21580
511.06958	0.18504
509.14102	0.18779
507.21245	0.13244
505.28389	0.07895
503.35532	0.06197
501.42676	0.05121
499.49819	0.04908
