3997.91411	0.06641
3995.98555	0.06704
3994.05698	0.06786
3992.12842	0.06826
3990.19985	0.06837
3988.27129	0.06857
3986.34272	0.06901
3984.41416	0.06959
3982.48560	0.06986
3980.55703	0.06965
3978.62847	0.06964
3976.69990	0.07021
3974.77134	0.07097
3972.84277	0.07138
3970.91421	0.07136
3968.98564	0.07136
3967.05708	0.07124
3965.12852	0.07068
3963.19995	0.07045
3961.27139	0.07097
3959.34282	0.07147
3957.41426	0.07154
3955.48569	0.07143
3953.55713	0.07138
3951.62856	0.07159
3949.70000	0.07211
3947.77144	0.07255
3945.84287	0.07255
3943.91431	0.07246
3941.98574	0.07242
3940.05718	0.07220
3938.12861	0.07206
3936.20005	0.07213
3934.27148	0.07248
3932.34292	0.07312
3930.41436	0.07357
3928.48579	0.07323
3926.55723	0.07267
3924.62866	0.07253
3922.70010	0.07235
3920.77153	0.07208
3918.84297	0.07231
3916.91440	0.07261
3914.98584	0.07203
3913.05728	0.07107
3911.12871	0.07063
3909.20015	0.07053
3907.27158	0.07085
3905.34302	0.07215
3903.41445	0.07361
3901.48589	0.07369
3899.55732	0.07312
3897.62876	0.07252
3895.70020	0.07193
3893.77163	0.07205
3891.84307	0.07264
3889.91450	0.07270
3887.98594	0.07254
3886.05737	0.07299
3884.12881	0.07323
3882.20024	0.07354
3880.27168	0.07465
3878.34312	0.07457
3876.41455	0.07345
3874.48599	0.07358
3872.55742	0.07497
3870.62886	0.07631
3868.70029	0.07665
3866.77173	0.07602
3864.84316	0.07591
3862.91460	0.07643
3860.98604	0.07641
3859.05747	0.07624
3857.12891	0.07690
3855.20034	0.07844
3853.27178	0.08018
3851.34321	0.08032
3849.41465	0.07907
3847.48608	0.07847
3845.55752	0.07898
3843.62896	0.08024
3841.70039	0.08175
3839.77183	0.08313
3837.84326	0.08359
3835.91470	0.08309
3833.98613	0.08291
3832.05757	0.08329
3830.12900	0.08396
3828.20044	0.08481
3826.27187	0.08589
3824.34331	0.08696
3822.41475	0.08833
3820.48618	0.09041
3818.55762	0.09169
3816.62905	0.09195
3814.70049	0.09182
3812.77192	0.09142
3810.84336	0.09156
3808.91479	0.09249
3806.98623	0.09408
3805.05767	0.09587
3803.12910	0.09794
3801.20054	0.10065
3799.27197	0.10236
3797.34341	0.10231
3795.41484	0.10194
3793.48628	0.10196
3791.55771	0.10263
3789.62915	0.10371
3787.70059	0.10508
3785.77202	0.10682
3783.84346	0.10864
3781.91489	0.11035
3779.98633	0.11224
3778.05776	0.11395
3776.12920	0.11473
3774.20063	0.11560
3772.27207	0.11754
3770.34351	0.12037
3768.41494	0.12322
3766.48638	0.12511
3764.55781	0.12641
3762.62925	0.12783
3760.70068	0.13002
3758.77212	0.13306
3756.84355	0.13577
3754.91499	0.13786
3752.98643	0.14067
3751.05786	0.14493
3749.12930	0.14939
3747.20073	0.15217
3745.27217	0.15476
3743.34360	0.15882
3741.41504	0.16271
3739.48647	0.16608
3737.55791	0.17099
3735.62935	0.17844
3733.70078	0.18637
3731.77222	0.19125
3729.84365	0.19485
3727.91509	0.19941
3725.98652	0.20536
3724.05796	0.21184
3722.12939	0.21784
3720.20083	0.22354
3718.27227	0.22907
3716.34370	0.23463
3714.41514	0.24088
3712.48657	0.25025
3710.55801	0.26552
3708.62944	0.28185
3706.70088	0.29371
3704.77231	0.30429
3702.84375	0.31696
3700.91519	0.33358
3698.98662	0.35212
3697.05806	0.36985
3695.12949	0.38835
3693.20093	0.40809
3691.27236	0.42957
3689.34380	0.45648
3687.41523	0.48951
3685.48667	0.51986
3683.55811	0.54670
3681.62954	0.57520
3679.70098	0.60736
3677.77241	0.64145
3675.84385	0.68032
3673.91528	0.73049
3671.98672	0.77241
3670.05815	0.81121
3668.12959	0.86515
3666.20103	0.91515
3664.27246	0.95662
3662.34390	1.00031
3660.41533	1.04726
3658.48677	1.09357
3656.55820	1.14306
3654.62964	1.19848
3652.70107	1.24534
3650.77251	1.28659
3648.84395	1.34319
3646.91538	1.41138
3644.98682	1.46103
3643.05825	1.49991
3641.12969	1.54091
3639.20112	1.58587
3637.27256	1.63003
3635.34399	1.67330
3633.41543	1.71820
3631.48687	1.76135
3629.55830	1.80405
3627.62974	1.85721
3625.70117	1.90677
3623.77261	1.94064
3621.84404	1.97250
3619.91548	2.00889
3617.98691	2.05289
3616.05835	2.09498
3614.12979	2.13026
3612.20122	2.16845
3610.27266	2.20840
3608.34409	2.24846
3606.41553	2.29027
3604.48696	2.33047
3602.55840	2.36796
3600.62983	2.40723
3598.70127	2.44714
3596.77271	2.48536
3594.84414	2.52590
3592.91558	2.56819
3590.98701	2.60711
3589.05845	2.64383
3587.12988	2.68769
3585.20132	2.73508
3583.27275	2.77446
3581.34419	2.80994
3579.41562	2.84905
3577.48706	2.89256
3575.55850	2.93602
3573.62993	2.97865
3571.70137	3.01976
3569.77280	3.06016
3567.84424	3.10419
3565.91567	3.15661
3563.98711	3.20514
3562.05854	3.24393
3560.12998	3.28415
3558.20142	3.32849
3556.27285	3.37402
3554.34429	3.41913
3552.41572	3.46578
3550.48716	3.51236
3548.55859	3.55553
3546.63003	3.59813
3544.70146	3.64574
3542.77290	3.69527
3540.84434	3.73972
3538.91577	3.78178
3536.98721	3.82801
3535.05864	3.88043
3533.13008	3.93299
3531.20151	3.98285
3529.27295	4.03179
3527.34438	4.08119
3525.41582	4.12770
3523.48726	4.17003
3521.55869	4.21491
3519.63013	4.26330
3517.70156	4.31103
3515.77300	4.35488
3513.84443	4.39660
3511.91587	4.44227
3509.98730	4.49405
3508.05874	4.54539
3506.13018	4.59222
3504.20161	4.63831
3502.27305	4.68608
3500.34448	4.73632
3498.41592	4.78680
3496.48735	4.83517
3494.55879	4.88322
3492.63022	4.93273
3490.70166	4.97976
3488.77310	5.02071
3486.84453	5.06137
3484.91597	5.11199
3482.98740	5.17088
3481.05884	5.22549
3479.13027	5.27295
3477.20171	5.31907
3475.27314	5.36590
3473.34458	5.41848
3471.41602	5.47478
3469.48745	5.52681
3467.55889	5.57541
3465.63032	5.61479
3463.70176	5.64733
3461.77319	5.68901
3459.84463	5.74289
3457.91606	5.80340
3455.98750	5.86320
3454.05894	5.91357
3452.13037	5.95897
3450.20181	6.00430
3448.27324	6.04822
3446.34468	6.09547
3444.41611	6.13964
3442.48755	6.18396
3440.55898	6.24072
3438.63042	6.29816
3436.70186	6.34298
3434.77329	6.39487
3432.84473	6.46174
3430.91616	6.51827
3428.98760	6.56225
3427.05903	6.59420
3425.13047	6.61681
3423.20190	6.65979
3421.27334	6.73049
3419.34478	6.78522
3417.41621	6.82335
3415.48765	6.87873
3413.55908	6.93010
3411.63052	6.96762
3409.70195	7.01109
3407.77339	7.07315
3405.84482	7.12473
3403.91626	7.14871
3401.98770	7.16753
3400.05913	7.17465
3398.13057	7.17981
3396.20200	7.22415
3394.27344	7.29980
3392.34487	7.37479
3390.41631	7.45752
3388.48774	7.51941
3386.55918	7.53438
3384.63062	7.53343
3382.70205	7.54885
3380.77349	7.55538
3378.84492	7.53548
3376.91636	7.57265
3374.98779	7.68659
3373.05923	7.78145
3371.13066	7.82830
3369.20210	7.87867
3367.27354	7.89844
3365.34497	7.87089
3363.41641	7.82785
3361.48784	7.79134
3359.55928	7.81561
3357.63071	7.88420
3355.70215	7.93079
3353.77358	7.95213
3351.84502	7.97776
3349.91646	7.99435
3347.98789	8.01587
3346.05933	8.05869
3344.13076	8.08759
3342.20220	8.05592
3340.27363	7.98181
3338.34507	7.94234
3336.41650	7.94766
3334.48794	7.99791
3332.55937	8.06384
3330.63081	8.10480
3328.70225	8.14472
3326.77368	8.17374
3324.84512	8.14346
3322.91655	8.13896
3320.98799	8.21739
3319.05942	8.23391
3317.13086	8.17813
3315.20229	8.14630
3313.27373	8.15026
3311.34517	8.12191
3309.41660	8.03385
3307.48804	7.97215
3305.55947	7.97168
3303.63091	8.03046
3301.70234	8.11042
3299.77378	8.18106
3297.84521	8.22900
3295.91665	8.22118
3293.98809	8.15313
3292.05952	8.05337
3290.13096	7.99618
3288.20239	8.01503
3286.27383	8.05334
3284.34526	8.07889
3282.41670	8.08030
3280.48813	8.04703
3278.55957	8.07393
3276.63101	8.16769
3274.70244	8.20790
3272.77388	8.18156
3270.84531	8.19656
3268.91675	8.30563
3266.98818	8.38324
3265.05962	8.29683
3263.13105	8.11851
3261.20249	7.99440
3259.27393	7.97266
3257.34536	8.04364
3255.41680	8.16057
3253.48823	8.22818
3251.55967	8.22128
3249.63110	8.20871
3247.70254	8.25683
3245.77397	8.30353
3243.84541	8.25844
3241.91685	8.18348
3239.98828	8.13561
3238.05972	8.11357
3236.13115	8.12118
3234.20259	8.12577
3232.27402	8.08854
3230.34546	8.02947
3228.41689	8.01367
3226.48833	8.05719
3224.55977	8.10571
3222.63120	8.16471
3220.70264	8.23909
3218.77407	8.27242
3216.84551	8.25096
3214.91694	8.17925
3212.98838	8.07279
3211.05981	7.97603
3209.13125	7.89123
3207.20269	7.79704
3205.27412	7.71903
3203.34556	7.67773
3201.41699	7.66668
3199.48843	7.67586
3197.55986	7.69202
3195.63130	7.68726
3193.70273	7.62114
3191.77417	7.51724
3189.84561	7.44081
3187.91704	7.41093
3185.98848	7.41571
3184.05991	7.40088
3182.13135	7.31423
3180.20278	7.23555
3178.27422	7.22201
3176.34565	7.18256
3174.41709	7.07673
3172.48853	6.99541
3170.55996	6.96552
3168.63140	6.92827
3166.70283	6.87055
3164.77427	6.81667
3162.84570	6.75499
3160.91714	6.67209
3158.98857	6.59548
3157.06001	6.54521
3155.13145	6.48925
3153.20288	6.40355
3151.27432	6.31878
3149.34575	6.25459
3147.41719	6.18990
3145.48862	6.11643
3143.56006	6.05192
3141.63149	5.99055
3139.70293	5.91544
3137.77437	5.83817
3135.84580	5.76690
3133.91724	5.69975
3131.98867	5.63838
3130.06011	5.57524
3128.13154	5.49919
3126.20298	5.41616
3124.27441	5.34123
3122.34585	5.26808
3120.41729	5.18874
3118.48872	5.11525
3116.56016	5.05275
3114.63159	4.99301
3112.70303	4.92795
3110.77446	4.85502
3108.84590	4.78117
3106.91733	4.71230
3104.98877	4.64547
3103.06021	4.57994
3101.13164	4.51636
3099.20308	4.45174
3097.27451	4.38623
3095.34595	4.32010
3093.41738	4.25021
3091.48882	4.18259
3089.56025	4.12125
3087.63169	4.05611
3085.70312	3.98810
3083.77456	3.92694
3081.84600	3.86836
3079.91743	3.80637
3077.98887	3.74469
3076.06030	3.68520
3074.13174	3.62591
3072.20317	3.56718
3070.27461	3.51078
3068.34604	3.45628
3066.41748	3.40059
3064.48892	3.34372
3062.56035	3.28856
3060.63179	3.23514
3058.70322	3.18132
3056.77466	3.12712
3054.84609	3.07479
3052.91753	3.02418
3050.98896	2.97327
3049.06040	2.92232
3047.13184	2.87245
3045.20327	2.82310
3043.27471	2.77447
3041.34614	2.72758
3039.41758	2.68166
3037.48901	2.63553
3035.56045	2.58990
3033.63188	2.54561
3031.70332	2.50122
3029.77476	2.45625
3027.84619	2.41283
3025.91763	2.37084
3023.98906	2.32870
3022.06050	2.28742
3020.13193	2.24774
3018.20337	2.20847
3016.27480	2.16933
3014.34624	2.13108
3012.41768	2.09369
3010.48911	2.05690
3008.56055	2.02056
3006.63198	1.98423
3004.70342	1.94817
3002.77485	1.91295
3000.84629	1.87828
2998.91772	1.84414
2996.98916	1.81103
2995.06060	1.77885
2993.13203	1.74714
2991.20347	1.71600
2989.27490	1.68557
2987.34634	1.65511
2985.41777	1.62447
2983.48921	1.59481
2981.56064	1.56670
2979.63208	1.53942
2977.70352	1.51216
2975.77495	1.48476
2973.84639	1.45776
2971.91782	1.43150
2969.98926	1.40597
2968.06069	1.38121
2966.13213	1.35665
2964.20356	1.33138
2962.27500	1.30618
2960.34644	1.28229
2958.41787	1.25913
2956.48931	1.23586
2954.56074	1.21298
2952.63218	1.19059
2950.70361	1.16827
2948.77505	1.14652
2946.84648	1.12560
2944.91792	1.10485
2942.98936	1.08410
2941.06079	1.06394
2939.13223	1.04453
2937.20366	1.02570
2935.27510	1.00723
2933.34653	0.98856
2931.41797	0.97005
2929.48940	0.95199
2927.56084	0.93391
2925.63228	0.91652
2923.70371	0.90010
2921.77515	0.88373
2919.84658	0.86745
2917.91802	0.85162
2915.98945	0.83582
2914.06089	0.82005
2912.13232	0.80498
2910.20376	0.79048
2908.27520	0.77620
2906.34663	0.76260
2904.41807	0.74941
2902.48950	0.73575
2900.56094	0.72224
2898.63237	0.70969
2896.70381	0.69759
2894.77524	0.68548
2892.84668	0.67349
2890.91812	0.66172
2888.98955	0.65053
2887.06099	0.63999
2885.13242	0.62953
2883.20386	0.61883
2881.27529	0.60807
2879.34673	0.59752
2877.41816	0.58736
2875.48960	0.57762
2873.56104	0.56817
2871.63247	0.55865
2869.70391	0.54892
2867.77534	0.53913
2865.84678	0.52913
2863.91821	0.51923
2861.98965	0.51013
2860.06108	0.50170
2858.13252	0.49339
2856.20396	0.48488
2854.27539	0.47625
2852.34683	0.46800
2850.41826	0.46023
2848.48970	0.45246
2846.56113	0.44481
2844.63257	0.43788
2842.70400	0.43165
2840.77544	0.42572
2838.84687	0.41993
2836.91831	0.41412
2834.98975	0.40834
2833.06118	0.40277
2831.13262	0.39715
2829.20405	0.39119
2827.27549	0.38518
2825.34692	0.37939
2823.41836	0.37378
2821.48979	0.36839
2819.56123	0.36319
2817.63267	0.35784
2815.70410	0.35232
2813.77554	0.34697
2811.84697	0.34198
2809.91841	0.33719
2807.98984	0.33235
2806.06128	0.32738
2804.13271	0.32251
2802.20415	0.31787
2800.27559	0.31337
2798.34702	0.30883
2796.41846	0.30429
2794.48989	0.29980
2792.56133	0.29541
2790.63276	0.29136
2788.70420	0.28761
2786.77563	0.28387
2784.84707	0.27983
2782.91851	0.27562
2780.98994	0.27175
2779.06138	0.26828
2777.13281	0.26488
2775.20425	0.26125
2773.27568	0.25767
2771.34712	0.25447
2769.41855	0.25141
2767.48999	0.24817
2765.56143	0.24483
2763.63286	0.24158
2761.70430	0.23857
2759.77573	0.23579
2757.84717	0.23310
2755.91860	0.23037
2753.99004	0.22754
2752.06147	0.22471
2750.13291	0.22193
2748.20435	0.21917
2746.27578	0.21656
2744.34722	0.21411
2742.41865	0.21176
2740.49009	0.20955
2738.56152	0.20729
2736.63296	0.20499
2734.70439	0.20281
2732.77583	0.20056
2730.84727	0.19825
2728.91870	0.19619
2726.99014	0.19424
2725.06157	0.19222
2723.13301	0.19025
2721.20444	0.18842
2719.27588	0.18666
2717.34731	0.18486
2715.41875	0.18301
2713.49019	0.18125
2711.56162	0.17962
2709.63306	0.17802
2707.70449	0.17639
2705.77593	0.17492
2703.84736	0.17366
2701.91880	0.17227
2699.99023	0.17075
2698.06167	0.16939
2696.13311	0.16810
2694.20454	0.16672
2692.27598	0.16534
2690.34741	0.16414
2688.41885	0.16306
2686.49028	0.16205
2684.56172	0.16105
2682.63315	0.15997
2680.70459	0.15897
2678.77603	0.15809
2676.84746	0.15717
2674.91890	0.15613
2672.99033	0.15503
2671.06177	0.15399
2669.13320	0.15310
2667.20464	0.15241
2665.27607	0.15181
2663.34751	0.15110
2661.41895	0.15034
2659.49038	0.14972
2657.56182	0.14903
2655.63325	0.14822
2653.70469	0.14748
2651.77612	0.14686
2649.84756	0.14632
2647.91899	0.14578
2645.99043	0.14521
2644.06187	0.14477
2642.13330	0.14441
2640.20474	0.14397
2638.27617	0.14351
2636.34761	0.14307
2634.41904	0.14259
2632.49048	0.14217
2630.56191	0.14191
2628.63335	0.14170
2626.70479	0.14149
2624.77622	0.14141
2622.84766	0.14131
2620.91909	0.14106
2618.99053	0.14088
2617.06196	0.14087
2615.13340	0.14080
2613.20483	0.14055
2611.27627	0.14037
2609.34771	0.14031
2607.41914	0.14019
2605.49058	0.14006
2603.56201	0.14011
2601.63345	0.14024
2599.70488	0.14035
2597.77632	0.14048
2595.84775	0.14064
2593.91919	0.14072
2591.99062	0.14074
2590.06206	0.14087
2588.13350	0.14113
2586.20493	0.14139
2584.27637	0.14172
2582.34780	0.14211
2580.41924	0.14250
2578.49067	0.14290
2576.56211	0.14323
2574.63354	0.14347
2572.70498	0.14377
2570.77642	0.14415
2568.84785	0.14464
2566.91929	0.14528
2564.99072	0.14584
2563.06216	0.14617
2561.13359	0.14657
2559.20503	0.14723
2557.27646	0.14787
2555.34790	0.14828
2553.41934	0.14868
2551.49077	0.14919
2549.56221	0.14972
2547.63364	0.15030
2545.70508	0.15090
2543.77651	0.15156
2541.84795	0.15238
2539.91938	0.15311
2537.99082	0.15364
2536.06226	0.15426
2534.13369	0.15496
2532.20513	0.15560
2530.27656	0.15628
2528.34800	0.15706
2526.41943	0.15789
2524.49087	0.15872
2522.56230	0.15948
2520.63374	0.16017
2518.70518	0.16087
2516.77661	0.16154
2514.84805	0.16224
2512.91948	0.16313
2510.99092	0.16409
2509.06235	0.16493
2507.13379	0.16568
2505.20522	0.16643
2503.27666	0.16726
2501.34810	0.16812
2499.41953	0.16908
2497.49097	0.17008
2495.56240	0.17093
2493.63384	0.17162
2491.70527	0.17231
2489.77671	0.17318
2487.84814	0.17423
2485.91958	0.17524
2483.99102	0.17609
2482.06245	0.17691
2480.13389	0.17786
2478.20532	0.17892
2476.27676	0.17995
2474.34819	0.18093
2472.41963	0.18189
2470.49106	0.18281
2468.56250	0.18379
2466.63394	0.18480
2464.70537	0.18579
2462.77681	0.18677
2460.84824	0.18767
2458.91968	0.18852
2456.99111	0.18947
2455.06255	0.19051
2453.13398	0.19146
2451.20542	0.19242
2449.27686	0.19352
2447.34829	0.19459
2445.41973	0.19557
2443.49116	0.19657
2441.56260	0.19761
2439.63403	0.19864
2437.70547	0.19962
2435.77690	0.20066
2433.84834	0.20181
2431.91978	0.20291
2429.99121	0.20391
2428.06265	0.20494
2426.13408	0.20608
2424.20552	0.20725
2422.27695	0.20835
2420.34839	0.20948
2418.41982	0.21064
2416.49126	0.21170
2414.56270	0.21280
2412.63413	0.21403
2410.70557	0.21524
2408.77700	0.21640
2406.84844	0.21757
2404.91987	0.21876
2402.99131	0.21994
2401.06274	0.22110
2399.13418	0.22236
2397.20562	0.22375
2395.27705	0.22507
2393.34849	0.22627
2391.41992	0.22755
2389.49136	0.22908
2387.56279	0.23104
2385.63423	0.23385
2383.70566	0.23808
2381.77710	0.24397
2379.84854	0.25121
2377.91997	0.25912
2375.99141	0.26747
2374.06284	0.27702
2372.13428	0.28824
2370.20571	0.30056
2368.27715	0.31317
2366.34858	0.32525
2364.42002	0.33562
2362.49146	0.34327
2360.56289	0.34728
2358.63433	0.34760
2356.70576	0.34462
2354.77720	0.33737
2352.84863	0.32656
2350.92007	0.31577
2348.99150	0.30999
2347.06294	0.31144
2345.13437	0.31998
2343.20581	0.33113
2341.27725	0.33748
2339.34868	0.33851
2337.42012	0.33808
2335.49155	0.33852
2333.56299	0.33908
2331.63442	0.33916
2329.70586	0.33862
2327.77729	0.33731
2325.84873	0.33510
2323.92017	0.33227
2321.99160	0.32938
2320.06304	0.32635
2318.13447	0.32311
2316.20591	0.32020
2314.27734	0.31829
2312.34878	0.31760
2310.42021	0.31744
2308.49165	0.31670
2306.56309	0.31517
2304.63452	0.31387
2302.70596	0.31362
2300.77739	0.31397
2298.84883	0.31422
2296.92026	0.31454
2294.99170	0.31510
2293.06313	0.31561
2291.13457	0.31605
2289.20601	0.31663
2287.27744	0.31736
2285.34888	0.31820
2283.42031	0.31928
2281.49175	0.32098
2279.56318	0.32334
2277.63462	0.32591
2275.70605	0.32827
2273.77749	0.33033
2271.84893	0.33228
2269.92036	0.33426
2267.99180	0.33627
2266.06323	0.33832
2264.13467	0.34031
2262.20610	0.34212
2260.27754	0.34391
2258.34897	0.34579
2256.42041	0.34769
2254.49185	0.34953
2252.56328	0.35142
2250.63472	0.35343
2248.70615	0.35551
2246.77759	0.35755
2244.84902	0.35955
2242.92046	0.36155
2240.99189	0.36364
2239.06333	0.36585
2237.13477	0.36807
2235.20620	0.37023
2233.27764	0.37239
2231.34907	0.37452
2229.42051	0.37668
2227.49194	0.37892
2225.56338	0.38113
2223.63481	0.38330
2221.70625	0.38548
2219.77769	0.38759
2217.84912	0.38962
2215.92056	0.39174
2213.99199	0.39393
2212.06343	0.39610
2210.13486	0.39827
2208.20630	0.40040
2206.27773	0.40253
2204.34917	0.40467
2202.42061	0.40675
2200.49204	0.40883
2198.56348	0.41090
2196.63491	0.41277
2194.70635	0.41456
2192.77778	0.41654
2190.84922	0.41858
2188.92065	0.42049
2186.99209	0.42223
2185.06353	0.42381
2183.13496	0.42539
2181.20640	0.42703
2179.27783	0.42871
2177.34927	0.43045
2175.42070	0.43209
2173.49214	0.43362
2171.56357	0.43510
2169.63501	0.43649
2167.70645	0.43784
2165.77788	0.43916
2163.84932	0.44040
2161.92075	0.44161
2159.99219	0.44276
2158.06362	0.44380
2156.13506	0.44477
2154.20649	0.44559
2152.27793	0.44628
2150.34937	0.44696
2148.42080	0.44767
2146.49224	0.44829
2144.56367	0.44883
2142.63511	0.44937
2140.70654	0.44985
2138.77798	0.45028
2136.84941	0.45061
2134.92085	0.45079
2132.99229	0.45084
2131.06372	0.45070
2129.13516	0.45044
2127.20659	0.45032
2125.27803	0.45028
2123.34946	0.45003
2121.42090	0.44957
2119.49233	0.44901
2117.56377	0.44842
2115.63521	0.44785
2113.70664	0.44722
2111.77808	0.44641
2109.84951	0.44544
2107.92095	0.44443
2105.99238	0.44346
2104.06382	0.44245
2102.13525	0.44124
2100.20669	0.43996
2098.27812	0.43868
2096.34956	0.43740
2094.42100	0.43602
2092.49243	0.43442
2090.56387	0.43268
2088.63530	0.43094
2086.70674	0.42933
2084.77817	0.42780
2082.84961	0.42613
2080.92104	0.42422
2078.99248	0.42228
2077.06392	0.42035
2075.13535	0.41829
2073.20679	0.41606
2071.27822	0.41378
2069.34966	0.41159
2067.42109	0.40950
2065.49253	0.40739
2063.56396	0.40513
2061.63540	0.40273
2059.70684	0.40027
2057.77827	0.39778
2055.84971	0.39537
2053.92114	0.39298
2051.99258	0.39051
2050.06401	0.38797
2048.13545	0.38540
2046.20688	0.38273
2044.27832	0.38003
2042.34976	0.37739
2040.42119	0.37477
2038.49263	0.37218
2036.56406	0.36971
2034.63550	0.36724
2032.70693	0.36453
2030.77837	0.36164
2028.84980	0.35877
2026.92124	0.35605
2024.99268	0.35338
2023.06411	0.35064
2021.13555	0.34787
2019.20698	0.34529
2017.27842	0.34275
2015.34985	0.33991
2013.42129	0.33700
2011.49272	0.33426
2009.56416	0.33168
2007.63560	0.32915
2005.70703	0.32659
2003.77847	0.32391
2001.84990	0.32117
1999.92134	0.31845
1997.99277	0.31574
1996.06421	0.31318
1994.13564	0.31090
1992.20708	0.30874
1990.27852	0.30638
1988.34995	0.30383
1986.42139	0.30125
1984.49282	0.29871
1982.56426	0.29629
1980.63569	0.29398
1978.70713	0.29181
1976.77856	0.28963
1974.85000	0.28733
1972.92144	0.28501
1970.99287	0.28289
1969.06431	0.28100
1967.13574	0.27910
1965.20718	0.27699
1963.27861	0.27487
1961.35005	0.27291
1959.42148	0.27105
1957.49292	0.26924
1955.56436	0.26746
1953.63579	0.26574
1951.70723	0.26403
1949.77866	0.26228
1947.85010	0.26052
1945.92153	0.25904
1943.99297	0.25786
1942.06440	0.25650
1940.13584	0.25480
1938.20728	0.25320
1936.27871	0.25187
1934.35015	0.25060
1932.42158	0.24936
1930.49302	0.24818
1928.56445	0.24705
1926.63589	0.24597
1924.70732	0.24507
1922.77876	0.24421
1920.85020	0.24326
1918.92163	0.24243
1916.99307	0.24153
1915.06450	0.24043
1913.13594	0.23943
1911.20737	0.23869
1909.27881	0.23810
1907.35024	0.23739
1905.42168	0.23653
1903.49312	0.23579
1901.56455	0.23523
1899.63599	0.23476
1897.70742	0.23437
1895.77886	0.23401
1893.85029	0.23370
1891.92173	0.23343
1889.99316	0.23325
1888.06460	0.23295
1886.13604	0.23262
1884.20747	0.23242
1882.27891	0.23218
1880.35034	0.23194
1878.42178	0.23183
1876.49321	0.23182
1874.56465	0.23176
1872.63608	0.23185
1870.70752	0.23231
1868.77896	0.23302
1866.85039	0.23320
1864.92183	0.23281
1862.99326	0.23263
1861.06470	0.23283
1859.13613	0.23318
1857.20757	0.23352
1855.27900	0.23399
1853.35044	0.23448
1851.42187	0.23499
1849.49331	0.23561
1847.56475	0.23637
1845.63618	0.23728
1843.70762	0.23827
1841.77905	0.23887
1839.85049	0.23914
1837.92192	0.23980
1835.99336	0.24072
1834.06479	0.24174
1832.13623	0.24292
1830.20767	0.24446
1828.27910	0.24586
1826.35054	0.24674
1824.42197	0.24783
1822.49341	0.24906
1820.56484	0.25036
1818.63628	0.25172
1816.70771	0.25324
1814.77915	0.25480
1812.85059	0.25660
1810.92202	0.25870
1808.99346	0.26066
1807.06489	0.26241
1805.13633	0.26421
1803.20776	0.26645
1801.27920	0.26908
1799.35063	0.27188
1797.42207	0.27427
1795.49351	0.27668
1793.56494	0.27972
1791.63638	0.28354
1789.70781	0.28688
1787.77925	0.28927
1785.85068	0.29217
1783.92212	0.29570
1781.99355	0.29966
1780.06499	0.30399
1778.13643	0.30836
1776.20786	0.31241
1774.27930	0.31680
1772.35073	0.32270
1770.42217	0.32890
1768.49360	0.33398
1766.56504	0.33887
1764.63647	0.34408
1762.70791	0.34999
1760.77935	0.35753
1758.85078	0.36463
1756.92222	0.37163
1754.99365	0.37922
1753.06509	0.38626
1751.13652	0.39487
1749.20796	0.40574
1747.27939	0.41625
1745.35083	0.42529
1743.42227	0.43487
1741.49370	0.44551
1739.56514	0.45783
1737.63657	0.46994
1735.70801	0.48057
1733.77944	0.49686
1731.85088	0.51657
1729.92231	0.53210
1727.99375	0.54768
1726.06519	0.56445
1724.13662	0.58272
1722.20806	0.60238
1720.27949	0.62052
1718.35093	0.64178
1716.42236	0.67336
1714.49380	0.70360
1712.56523	0.72803
1710.63667	0.75168
1708.70811	0.77715
1706.77954	0.80604
1704.85098	0.84047
1702.92241	0.87107
1700.99385	0.90118
1699.06528	0.94632
1697.13672	0.98800
1695.20815	1.03001
1693.27959	1.07058
1691.35103	1.10341
1689.42246	1.14119
1687.49390	1.18086
1685.56533	1.21916
1683.63677	1.27788
1681.70820	1.33870
1679.77964	1.37803
1677.85107	1.41544
1675.92251	1.45815
1673.99395	1.51100
1672.06538	1.55875
1670.13682	1.60523
1668.20825	1.66334
1666.27969	1.70989
1664.35112	1.74948
1662.42256	1.79838
1660.49399	1.85222
1658.56543	1.89361
1656.63687	1.92689
1654.70830	1.95783
1652.77974	2.01067
1650.85117	2.06573
1648.92261	2.08811
1646.99404	2.11456
1645.06548	2.14615
1643.13691	2.16885
1641.20835	2.18314
1639.27979	2.19610
1637.35122	2.20578
1635.42266	2.20939
1633.49409	2.20550
1631.56553	2.19518
1629.63696	2.18019
1627.70840	2.15436
1625.77983	2.12552
1623.85127	2.08959
1621.92271	2.04359
1619.99414	2.00201
1618.06558	1.96146
1616.13701	1.90265
1614.20845	1.84227
1612.27988	1.79628
1610.35132	1.74751
1608.42275	1.69443
1606.49419	1.64270
1604.56562	1.59449
1602.63706	1.54666
1600.70850	1.49994
1598.77993	1.45762
1596.85137	1.41763
1594.92280	1.37829
1592.99424	1.34009
1591.06567	1.30457
1589.13711	1.27049
1587.20854	1.23819
1585.27998	1.20797
1583.35142	1.17934
1581.42285	1.15293
1579.49429	1.13030
1577.56572	1.10980
1575.63716	1.08433
1573.70859	1.06104
1571.78003	1.04527
1569.85146	1.02859
1567.92290	1.00995
1565.99434	0.99525
1564.06577	0.98273
1562.13721	0.97243
1560.20864	0.96413
1558.28008	0.94973
1556.35151	0.93632
1554.42295	0.92804
1552.49438	0.91952
1550.56582	0.91075
1548.63726	0.90151
1546.70869	0.89288
1544.78013	0.88447
1542.85156	0.87545
1540.92300	0.86423
1538.99443	0.84701
1537.06587	0.83412
1535.13730	0.82606
1533.20874	0.81603
1531.28018	0.80461
1529.35161	0.79600
1527.42305	0.78821
1525.49448	0.78013
1523.56592	0.77298
1521.63735	0.76567
1519.70879	0.75739
1517.78022	0.75021
1515.85166	0.74290
1513.92310	0.73589
1511.99453	0.73012
1510.06597	0.72513
1508.13740	0.72057
1506.20884	0.71308
1504.28027	0.70584
1502.35171	0.70165
1500.42314	0.69813
1498.49458	0.69459
1496.56602	0.69039
1494.63745	0.68576
1492.70889	0.68210
1490.78032	0.67917
1488.85176	0.67583
1486.92319	0.67236
1484.99463	0.66941
1483.06606	0.66709
1481.13750	0.66513
1479.20894	0.66318
1477.28037	0.66137
1475.35181	0.65989
1473.42324	0.65861
1471.49468	0.65645
1469.56611	0.65354
1467.63755	0.65102
1465.70898	0.64894
1463.78042	0.64681
1461.85186	0.64475
1459.92329	0.64327
1457.99473	0.64183
1456.06616	0.63913
1454.13760	0.63590
1452.20903	0.63310
1450.28047	0.63054
1448.35190	0.62815
1446.42334	0.62556
1444.49478	0.62298
1442.56621	0.62074
1440.63765	0.61885
1438.70908	0.61732
1436.78052	0.61542
1434.85195	0.61285
1432.92339	0.61072
1430.99482	0.60920
1429.06626	0.60775
1427.13770	0.60633
1425.20913	0.60530
1423.28057	0.60456
1421.35200	0.60376
1419.42344	0.60287
1417.49487	0.60172
1415.56631	0.60020
1413.63774	0.59882
1411.70918	0.59775
1409.78062	0.59686
1407.85205	0.59604
1405.92349	0.59527
1403.99492	0.59429
1402.06636	0.59312
1400.13779	0.59209
1398.20923	0.59104
1396.28066	0.58963
1394.35210	0.58754
1392.42354	0.58515
1390.49497	0.58308
1388.56641	0.58127
1386.63784	0.57928
1384.70928	0.57697
1382.78071	0.57470
1380.85215	0.57272
1378.92358	0.57113
1376.99502	0.56992
1375.06646	0.56888
1373.13789	0.56769
1371.20933	0.56647
1369.28076	0.56547
1367.35220	0.56449
1365.42363	0.56350
1363.49507	0.56267
1361.56650	0.56183
1359.63794	0.56073
1357.70937	0.55968
1355.78081	0.55885
1353.85225	0.55807
1351.92368	0.55715
1349.99512	0.55628
1348.06655	0.55558
1346.13799	0.55484
1344.20942	0.55399
1342.28086	0.55318
1340.35229	0.55248
1338.42373	0.55171
1336.49517	0.55080
1334.56660	0.54992
1332.63804	0.54922
1330.70947	0.54871
1328.78091	0.54832
1326.85234	0.54795
1324.92378	0.54751
1322.99521	0.54710
1321.06665	0.54683
1319.13809	0.54657
1317.20952	0.54605
1315.28096	0.54538
1313.35239	0.54476
1311.42383	0.54407
1309.49526	0.54325
1307.56670	0.54248
1305.63813	0.54180
1303.70957	0.54110
1301.78101	0.54035
1299.85244	0.53957
1297.92388	0.53874
1295.99531	0.53791
1294.06675	0.53717
1292.13818	0.53649
1290.20962	0.53585
1288.28105	0.53523
1286.35249	0.53451
1284.42393	0.53366
1282.49536	0.53289
1280.56680	0.53228
1278.63823	0.53165
1276.70967	0.53096
1274.78110	0.53033
1272.85254	0.52982
1270.92397	0.52933
1268.99541	0.52877
1267.06685	0.52830
1265.13828	0.52784
1263.20972	0.52718
1261.28115	0.52642
1259.35259	0.52591
1257.42402	0.52564
1255.49546	0.52537
1253.56689	0.52508
1251.63833	0.52480
1249.70977	0.52453
1247.78120	0.52439
1245.85264	0.52432
1243.92407	0.52409
1241.99551	0.52363
1240.06694	0.52292
1238.13838	0.52202
1236.20981	0.52119
1234.28125	0.52042
1232.35269	0.51957
1230.42412	0.51864
1228.49556	0.51778
1226.56699	0.51701
1224.63843	0.51625
1222.70986	0.51535
1220.78130	0.51440
1218.85273	0.51352
1216.92417	0.51272
1214.99561	0.51208
1213.06704	0.51160
1211.13848	0.51114
1209.20991	0.51060
1207.28135	0.50995
1205.35278	0.50921
1203.42422	0.50858
1201.49565	0.50809
1199.56709	0.50761
1197.63853	0.50721
1195.70996	0.50682
1193.78140	0.50636
1191.85283	0.50588
1189.92427	0.50549
1187.99570	0.50528
1186.06714	0.50514
1184.13857	0.50504
1182.21001	0.50513
1180.28145	0.50558
1178.35288	0.50631
1176.42432	0.50709
1174.49575	0.50766
1172.56719	0.50804
1170.63862	0.50834
1168.71006	0.50865
1166.78149	0.50898
1164.85293	0.50920
1162.92437	0.50913
1160.99580	0.50894
1159.06724	0.50872
1157.13867	0.50821
1155.21011	0.50719
1153.28154	0.50581
1151.35298	0.50430
1149.42441	0.50262
1147.49585	0.50051
1145.56729	0.49805
1143.63872	0.49557
1141.71016	0.49327
1139.78159	0.49115
1137.85303	0.48915
1135.92446	0.48726
1133.99590	0.48561
1132.06733	0.48415
1130.13877	0.48275
1128.21021	0.48144
1126.28164	0.48031
1124.35308	0.47935
1122.42451	0.47843
1120.49595	0.47749
1118.56738	0.47667
1116.63882	0.47608
1114.71025	0.47565
1112.78169	0.47548
1110.85312	0.47573
1108.92456	0.47619
1106.99600	0.47674
1105.06743	0.47765
1103.13887	0.47914
1101.21030	0.48102
1099.28174	0.48316
1097.35317	0.48563
1095.42461	0.48854
1093.49604	0.49184
1091.56748	0.49562
1089.63892	0.50027
1087.71035	0.50571
1085.78179	0.51146
1083.85322	0.51740
1081.92466	0.52334
1079.99609	0.52863
1078.06753	0.53239
1076.13896	0.53380
1074.21040	0.53247
1072.28184	0.52873
1070.35327	0.52304
1068.42471	0.51624
1066.49614	0.50943
1064.56758	0.50319
1062.63901	0.49762
1060.71045	0.49257
1058.78188	0.48805
1056.85332	0.48425
1054.92476	0.48095
1052.99619	0.47799
1051.06763	0.47561
1049.13906	0.47381
1047.21050	0.47228
1045.28193	0.47075
1043.35337	0.46928
1041.42480	0.46814
1039.49624	0.46742
1037.56768	0.46703
1035.63911	0.46673
1033.71055	0.46650
1031.78198	0.46648
1029.85342	0.46656
1027.92485	0.46680
1025.99629	0.46737
1024.06772	0.46792
1022.13916	0.46816
1020.21060	0.46861
1018.28203	0.46963
1016.35347	0.47086
1014.42490	0.47213
1012.49634	0.47354
1010.56777	0.47497
1008.63921	0.47641
1006.71064	0.47808
1004.78208	0.48004
1002.85352	0.48228
1000.92495	0.48497
998.99639	0.48813
997.06782	0.49157
995.13926	0.49532
993.21069	0.49921
991.28213	0.50261
989.35356	0.50518
987.42500	0.50697
985.49644	0.50815
983.56787	0.50907
981.63931	0.51012
979.71074	0.51162
977.78218	0.51370
975.85361	0.51614
973.92505	0.51876
971.99648	0.52176
970.06792	0.52532
968.13936	0.52939
966.21079	0.53353
964.28223	0.53763
962.35366	0.54212
960.42510	0.54710
958.49653	0.55257
956.56797	0.55853
954.63940	0.56459
952.71084	0.57048
950.78228	0.57643
948.85371	0.58258
946.92515	0.58886
944.99658	0.59521
943.06802	0.60132
941.13945	0.60696
939.21089	0.61262
937.28232	0.61855
935.35376	0.62429
933.42520	0.62970
931.49663	0.63510
929.56807	0.64079
927.63950	0.64683
925.71094	0.65277
923.78237	0.65845
921.85381	0.66436
919.92524	0.67067
917.99668	0.67734
916.06812	0.68459
914.13955	0.69240
912.21099	0.69993
910.28242	0.70680
908.35386	0.71396
906.42529	0.72186
904.49673	0.73027
902.56816	0.73949
900.63960	0.74932
898.71104	0.75869
896.78247	0.76753
894.85391	0.77645
892.92534	0.78624
890.99678	0.79725
889.06821	0.80827
887.13965	0.81853
885.21108	0.82904
883.28252	0.84075
881.35396	0.85252
879.42539	0.86296
877.49683	0.87303
875.56826	0.88375
873.63970	0.89540
871.71113	0.90797
869.78257	0.92006
867.85400	0.93080
865.92544	0.94122
863.99687	0.95258
862.06831	0.96464
860.13975	0.97679
858.21118	0.98923
856.28262	1.00104
854.35405	1.01134
852.42549	1.02112
850.49692	1.03124
848.56836	1.04205
846.63979	1.05446
844.71123	1.06746
842.78267	1.07879
840.85410	1.08905
838.92554	1.09839
836.99697	1.10667
835.06841	1.11739
833.13984	1.13199
831.21128	1.14693
829.28271	1.16089
827.35415	1.17595
825.42559	1.19172
823.49702	1.20177
821.56846	1.20190
819.63989	1.20265
817.71133	1.21103
815.78276	1.22514
813.85420	1.24031
811.92563	1.24677
809.99707	1.25169
808.06851	1.26773
806.13994	1.29107
804.21138	1.31757
802.28281	1.34082
800.35425	1.35468
798.42568	1.36548
796.49712	1.36616
794.56855	1.37260
792.63999	1.39626
790.71143	1.39230
788.78286	1.39109
786.85430	1.42505
784.92573	1.44090
782.99717	1.42981
781.06860	1.40155
779.14004	1.38197
777.21147	1.40742
775.28291	1.40476
773.35435	1.31221
771.42578	1.21221
769.49722	1.17937
767.56865	1.24451
765.64009	1.33820
763.71152	1.35987
761.78296	1.30718
759.85439	1.26936
757.92583	1.33931
755.99727	1.62672
754.06870	4.52441
752.14014	1.72184
750.21157	1.23675
748.28301	1.07256
746.35444	1.04899
744.42588	0.99381
742.49731	0.89104
740.56875	0.85961
738.64019	0.82166
736.71162	0.74315
734.78306	0.68138
732.85449	0.60697
730.92593	0.54454
728.99736	0.54461
727.06880	0.44980
725.14023	0.21847
723.21167	0.10859
721.28311	0.22511
719.35454	0.59425
717.42598	0.66185
715.49741	0.14172
713.56885	0.02367
711.64028	0.12205
709.71172	0.14611
707.78315	0.05411
705.85459	-0.00568
703.92603	0.04752
701.99746	0.13459
700.06890	0.20060
698.14033	0.27010
696.21177	0.31548
694.28320	0.30414
692.35464	0.28549
690.42607	0.34031
688.49751	0.32007
686.56895	0.22148
684.64038	0.18996
682.71182	0.24064
680.78325	0.35227
678.85469	0.45632
676.92612	0.39909
674.99756	0.24783
673.06899	0.18110
671.14043	0.21817
669.21187	0.27174
667.28330	0.24750
665.35474	0.15803
663.42617	0.07534
661.49761	0.07650
659.56904	0.15586
657.64048	0.22265
655.71191	0.24336
653.78335	0.28193
651.85479	0.38040
649.92622	0.47627
647.99766	0.47336
646.06909	0.31491
644.14053	0.20514
642.21196	0.21832
640.28340	0.26564
638.35483	0.26187
636.42627	0.24534
634.49771	0.21016
632.56914	0.17774
630.64058	0.19314
628.71201	0.20941
626.78345	0.18639
624.85488	0.19614
622.92632	0.22136
620.99775	0.20765
619.06919	0.20636
617.14062	0.21631
615.21206	0.21880
613.28350	0.26917
611.35493	0.33766
609.42637	0.29870
607.49780	0.25658
605.56924	0.25516
603.64067	0.23131
601.71211	0.22938
599.78354	0.26451
597.85498	0.26080
595.92642	0.22598
593.99785	0.21353
592.06929	0.26568
590.14072	0.32387
588.21216	0.27352
586.28359	0.21389
584.35503	0.19809
582.42646	0.19168
580.49790	0.18513
578.56934	0.19668
576.64077	0.20807
574.71221	0.20058
572.78364	0.18630
570.85508	0.17177
568.92651	0.19243
566.99795	0.30579
565.06938	0.36559
563.14082	0.23708
561.21226	0.13831
559.28369	0.14462
557.35513	0.21780
555.42656	0.24617
553.49800	0.20291
551.56943	0.18553
549.64087	0.20906
547.71230	0.24023
545.78374	0.25913
543.85518	0.28317
541.92661	0.34445
539.99805	0.39177
538.06948	0.34018
536.14092	0.26667
534.21235	0.22209
532.28379	0.19316
530.35522	0.20269
528.42666	0.25399
526.49810	0.25851
524.56953	0.21326
522.64097	0.20928
520.71240	0.25488
518.78384	0.31505
516.85527	0.33015
514.92671	0.25800
512.99814	0.19169
511.06958	0.16343
509.14102	0.15589
507.21245	0.17007
505.28389	0.21551
503.35532	0.29183
501.42676	0.41008
499.49819	0.56862
