3997.91411	0.07027
3995.98555	0.07112
3994.05698	0.07215
3992.12842	0.07281
3990.19985	0.07317
3988.27129	0.07348
3986.34272	0.07363
3984.41416	0.07364
3982.48560	0.07359
3980.55703	0.07348
3978.62847	0.07349
3976.69990	0.07367
3974.77134	0.07379
3972.84277	0.07411
3970.91421	0.07482
3968.98564	0.07539
3967.05708	0.07551
3965.12852	0.07540
3963.19995	0.07539
3961.27139	0.07551
3959.34282	0.07562
3957.41426	0.07576
3955.48569	0.07580
3953.55713	0.07545
3951.62856	0.07497
3949.70000	0.07497
3947.77144	0.07552
3945.84287	0.07599
3943.91431	0.07610
3941.98574	0.07621
3940.05718	0.07645
3938.12861	0.07651
3936.20005	0.07631
3934.27148	0.07611
3932.34292	0.07606
3930.41436	0.07607
3928.48579	0.07590
3926.55723	0.07579
3924.62866	0.07621
3922.70010	0.07661
3920.77153	0.07627
3918.84297	0.07569
3916.91440	0.07540
3914.98584	0.07520
3913.05728	0.07483
3911.12871	0.07465
3909.20015	0.07487
3907.27158	0.07506
3905.34302	0.07540
3903.41445	0.07624
3901.48589	0.07656
3899.55732	0.07616
3897.62876	0.07574
3895.70020	0.07523
3893.77163	0.07500
3891.84307	0.07550
3889.91450	0.07622
3887.98594	0.07619
3886.05737	0.07607
3884.12881	0.07668
3882.20024	0.07740
3880.27168	0.07759
3878.34312	0.07719
3876.41455	0.07658
3874.48599	0.07640
3872.55742	0.07666
3870.62886	0.07732
3868.70029	0.07835
3866.77173	0.07851
3864.84316	0.07805
3862.91460	0.07842
3860.98604	0.07948
3859.05747	0.08018
3857.12891	0.08038
3855.20034	0.08078
3853.27178	0.08236
3851.34321	0.08348
3849.41465	0.08212
3847.48608	0.08114
3845.55752	0.08145
3843.62896	0.08231
3841.70039	0.08322
3839.77183	0.08430
3837.84326	0.08566
3835.91470	0.08647
3833.98613	0.08630
3832.05757	0.08617
3830.12900	0.08659
3828.20044	0.08721
3826.27187	0.08807
3824.34331	0.08914
3822.41475	0.09022
3820.48618	0.09201
3818.55762	0.09336
3816.62905	0.09332
3814.70049	0.09359
3812.77192	0.09440
3810.84336	0.09490
3808.91479	0.09527
3806.98623	0.09642
3805.05767	0.09817
3803.12910	0.09932
3801.20054	0.10084
3799.27197	0.10254
3797.34341	0.10314
3795.41484	0.10387
3793.48628	0.10465
3791.55771	0.10533
3789.62915	0.10665
3787.70059	0.10834
3785.77202	0.11001
3783.84346	0.11167
3781.91489	0.11293
3779.98633	0.11405
3778.05776	0.11575
3776.12920	0.11741
3774.20063	0.11867
3772.27207	0.12003
3770.34351	0.12202
3768.41494	0.12459
3766.48638	0.12664
3764.55781	0.12854
3762.62925	0.13050
3760.70068	0.13221
3758.77212	0.13452
3756.84355	0.13762
3754.91499	0.14021
3752.98643	0.14245
3751.05786	0.14613
3749.12930	0.15105
3747.20073	0.15360
3745.27217	0.15519
3743.34360	0.15858
3741.41504	0.16189
3739.48647	0.16425
3737.55791	0.16767
3735.62935	0.17325
3733.70078	0.17984
3731.77222	0.18466
3729.84365	0.18828
3727.91509	0.19190
3725.98652	0.19662
3724.05796	0.20276
3722.12939	0.20953
3720.20083	0.21682
3718.27227	0.22429
3716.34370	0.23175
3714.41514	0.23941
3712.48657	0.24870
3710.55801	0.26173
3708.62944	0.27605
3706.70088	0.28816
3704.77231	0.29956
3702.84375	0.31267
3700.91519	0.32943
3698.98662	0.34766
3697.05806	0.36503
3695.12949	0.38350
3693.20093	0.40313
3691.27236	0.42456
3689.34380	0.45241
3687.41523	0.48707
3685.48667	0.51804
3683.55811	0.54451
3681.62954	0.57246
3679.70098	0.60402
3677.77241	0.63725
3675.84385	0.67643
3673.91528	0.72971
3671.98672	0.77380
3670.05815	0.81227
3668.12959	0.86482
3666.20103	0.91336
3664.27246	0.95400
3662.34390	0.99741
3660.41533	1.04417
3658.48677	1.09048
3656.55820	1.14035
3654.62964	1.19601
3652.70107	1.24246
3650.77251	1.28279
3648.84395	1.33843
3646.91538	1.40675
3644.98682	1.45715
3643.05825	1.49605
3641.12969	1.53642
3639.20112	1.58113
3637.27256	1.62576
3635.34399	1.66865
3633.41543	1.71143
3631.48687	1.75175
3629.55830	1.79206
3627.62974	1.84507
3625.70117	1.89679
3623.77261	1.93247
3621.84404	1.96557
3619.91548	2.00300
3617.98691	2.04865
3616.05835	2.09274
3614.12979	2.12925
3612.20122	2.16772
3610.27266	2.20656
3608.34409	2.24579
3606.41553	2.28862
3604.48696	2.32868
3602.55840	2.36320
3600.62983	2.39973
3598.70127	2.44049
3596.77271	2.48071
3594.84414	2.52178
3592.91558	2.56546
3590.98701	2.60600
3589.05845	2.64210
3587.12988	2.68451
3585.20132	2.73196
3583.27275	2.77273
3581.34419	2.81071
3579.41562	2.85284
3577.48706	2.89810
3575.55850	2.94155
3573.62993	2.98324
3571.70137	3.02278
3569.77280	3.05994
3567.84424	3.10047
3565.91567	3.15434
3563.98711	3.20949
3562.05854	3.25285
3560.12998	3.29330
3558.20142	3.33648
3556.27285	3.38074
3554.34429	3.42220
3552.41572	3.46389
3550.48716	3.50870
3548.55859	3.55355
3546.63003	3.59825
3544.70146	3.64770
3542.77290	3.69988
3540.84434	3.74925
3538.91577	3.79494
3536.98721	3.83895
3535.05864	3.88748
3533.13008	3.93851
3531.20151	3.98612
3529.27295	4.03187
3527.34438	4.07968
3525.41582	4.12684
3523.48726	4.17257
3521.55869	4.22082
3519.63013	4.26860
3517.70156	4.31551
3515.77300	4.36279
3513.84443	4.41056
3511.91587	4.45963
3509.98730	4.50705
3508.05874	4.55289
3506.13018	4.60144
3504.20161	4.65239
3502.27305	4.70498
3500.34448	4.75438
3498.41592	4.79927
3496.48735	4.84807
3494.55879	4.89681
3492.63022	4.93879
3490.70166	4.98030
3488.77310	5.02668
3486.84453	5.07552
3484.91597	5.12410
3482.98740	5.17601
3481.05884	5.23092
3479.13027	5.27809
3477.20171	5.31812
3475.27314	5.35931
3473.34458	5.40588
3471.41602	5.46309
3469.48745	5.52431
3467.55889	5.57918
3465.63032	5.62698
3463.70176	5.66810
3461.77319	5.71000
3459.84463	5.76750
3457.91606	5.82749
3455.98750	5.87070
3454.05894	5.91133
3452.13037	5.96443
3450.20181	6.02350
3448.27324	6.06998
3446.34468	6.10286
3444.41611	6.14788
3442.48755	6.22095
3440.55898	6.28995
3438.63042	6.32212
3436.70186	6.34666
3434.77329	6.39530
3432.84473	6.45267
3430.91616	6.50141
3428.98760	6.54312
3427.05903	6.57530
3425.13047	6.63132
3423.20190	6.72654
3421.27334	6.80183
3419.34478	6.82967
3417.41621	6.85599
3415.48765	6.90250
3413.55908	6.96145
3411.63052	7.02966
3409.70195	7.07346
3407.77339	7.08722
3405.84482	7.11886
3403.91626	7.19007
3401.98770	7.26474
3400.05913	7.30920
3398.13057	7.33689
3396.20200	7.37771
3394.27344	7.41937
3392.34487	7.43981
3390.41631	7.49370
3388.48774	7.58115
3386.55918	7.63493
3384.63062	7.63125
3382.70205	7.62769
3380.77349	7.68212
3378.84492	7.76042
3376.91636	7.81277
3374.98779	7.81315
3373.05923	7.80058
3371.13066	7.81720
3369.20210	7.83540
3367.27354	7.82673
3365.34497	7.81962
3363.41641	7.83227
3361.48784	7.87165
3359.55928	7.94548
3357.63071	7.99664
3355.70215	7.99873
3353.77358	8.00001
3351.84502	8.03252
3349.91646	8.04084
3347.98789	8.01783
3346.05933	8.01147
3344.13076	8.02297
3342.20220	8.04957
3340.27363	8.03667
3338.34507	7.99755
3336.41650	7.99660
3334.48794	8.00262
3332.55937	7.98532
3330.63081	7.98157
3328.70225	8.01144
3326.77368	8.05178
3324.84512	8.04786
3322.91655	8.00427
3320.98799	8.01202
3319.05942	8.10158
3317.13086	8.18404
3315.20229	8.15696
3313.27373	8.11401
3311.34517	8.12771
3309.41660	8.13401
3307.48804	8.13077
3305.55947	8.12875
3303.63091	8.09119
3301.70234	8.05583
3299.77378	8.11167
3297.84521	8.19885
3295.91665	8.21196
3293.98809	8.16539
3292.05952	8.09438
3290.13096	8.05442
3288.20239	8.08639
3286.27383	8.14639
3284.34526	8.20253
3282.41670	8.26161
3280.48813	8.30552
3278.55957	8.33021
3276.63101	8.29211
3274.70244	8.21892
3272.77388	8.18647
3270.84531	8.19617
3268.91675	8.21164
3266.98818	8.16833
3265.05962	8.09342
3263.13105	8.08566
3261.20249	8.17053
3259.27393	8.22856
3257.34536	8.24914
3255.41680	8.33712
3253.48823	8.37118
3251.55967	8.32491
3249.63110	8.36933
3247.70254	8.44364
3245.77397	8.40394
3243.84541	8.32708
3241.91685	8.28707
3239.98828	8.26320
3238.05972	8.21506
3236.13115	8.13414
3234.20259	8.11254
3232.27402	8.15677
3230.34546	8.15870
3228.41689	8.14149
3226.48833	8.15337
3224.55977	8.15759
3222.63120	8.15141
3220.70264	8.10799
3218.77407	8.01249
3216.84551	7.94427
3214.91694	7.94357
3212.98838	7.95198
3211.05981	7.98233
3209.13125	8.07791
3207.20269	8.08890
3205.27412	7.94379
3203.34556	7.81031
3201.41699	7.76426
3199.48843	7.76603
3197.55986	7.78158
3195.63130	7.76915
3193.70273	7.68281
3191.77417	7.55373
3189.84561	7.47713
3187.91704	7.48831
3185.98848	7.48259
3184.05991	7.39533
3182.13135	7.30742
3180.20278	7.24906
3178.27422	7.19223
3176.34565	7.13598
3174.41709	7.08170
3172.48853	7.02346
3170.55996	6.96116
3168.63140	6.90219
3166.70283	6.84378
3164.77427	6.77496
3162.84570	6.71076
3160.91714	6.66216
3158.98857	6.61180
3157.06001	6.54756
3155.13145	6.47348
3153.20288	6.39602
3151.27432	6.31596
3149.34575	6.23968
3147.41719	6.18333
3145.48862	6.13940
3143.56006	6.08032
3141.63149	6.00149
3139.70293	5.92168
3137.77437	5.85261
3135.84580	5.78688
3133.91724	5.72134
3131.98867	5.65832
3130.06011	5.58752
3128.13154	5.50450
3126.20298	5.42383
3124.27441	5.35352
3122.34585	5.28586
3120.41729	5.21713
3118.48872	5.14922
3116.56016	5.08229
3114.63159	5.01466
3112.70303	4.94929
3110.77446	4.88529
3108.84590	4.81435
3106.91733	4.73832
3104.98877	4.66398
3103.06021	4.59427
3101.13164	4.53081
3099.20308	4.47167
3097.27451	4.41144
3095.34595	4.34921
3093.41738	4.28591
3091.48882	4.21817
3089.56025	4.14823
3087.63169	4.08118
3085.70312	4.01733
3083.77456	3.95638
3081.84600	3.89616
3079.91743	3.83540
3077.98887	3.77562
3076.06030	3.71548
3074.13174	3.65607
3072.20317	3.59965
3070.27461	3.54342
3068.34604	3.48686
3066.41748	3.43133
3064.48892	3.37611
3062.56035	3.32130
3060.63179	3.26777
3058.70322	3.21538
3056.77466	3.16369
3054.84609	3.11228
3052.91753	3.06106
3050.98896	3.01047
3049.06040	2.95974
3047.13184	2.90931
3045.20327	2.86037
3043.27471	2.81179
3041.34614	2.76347
3039.41758	2.71656
3037.48901	2.67059
3035.56045	2.62501
3033.63188	2.58000
3031.70332	2.53538
3029.77476	2.49133
3027.84619	2.44846
3025.91763	2.40647
3023.98906	2.36479
3022.06050	2.32366
3020.13193	2.28324
3018.20337	2.24334
3016.27480	2.20369
3014.34624	2.16436
3012.41768	2.12582
3010.48911	2.08803
3008.56055	2.05142
3006.63198	2.01652
3004.70342	1.98212
3002.77485	1.94739
3000.84629	1.91336
2998.91772	1.88029
2996.98916	1.84763
2995.06060	1.81539
2993.13203	1.78387
2991.20347	1.75370
2989.27490	1.72442
2987.34634	1.69488
2985.41777	1.66534
2983.48921	1.63648
2981.56064	1.60840
2979.63208	1.58127
2977.70352	1.55506
2975.77495	1.52905
2973.84639	1.50314
2971.91782	1.47800
2969.98926	1.45346
2968.06069	1.42916
2966.13213	1.40498
2964.20356	1.38101
2962.27500	1.35741
2960.34644	1.33364
2958.41787	1.30988
2956.48931	1.28687
2954.56074	1.26423
2952.63218	1.24171
2950.70361	1.21935
2948.77505	1.19706
2946.84648	1.17549
2944.91792	1.15478
2942.98936	1.13438
2941.06079	1.11424
2939.13223	1.09446
2937.20366	1.07495
2935.27510	1.05569
2933.34653	1.03660
2931.41797	1.01762
2929.48940	0.99912
2927.56084	0.98122
2925.63228	0.96341
2923.70371	0.94560
2921.77515	0.92831
2919.84658	0.91188
2917.91802	0.89587
2915.98945	0.87956
2914.06089	0.86337
2912.13232	0.84806
2910.20376	0.83351
2908.27520	0.81905
2906.34663	0.80442
2904.41807	0.79012
2902.48950	0.77640
2900.56094	0.76295
2898.63237	0.74986
2896.70381	0.73715
2894.77524	0.72465
2892.84668	0.71254
2890.91812	0.70082
2888.98955	0.68927
2887.06099	0.67798
2885.13242	0.66738
2883.20386	0.65747
2881.27529	0.64764
2879.34673	0.63765
2877.41816	0.62793
2875.48960	0.61856
2873.56104	0.60875
2871.63247	0.59816
2869.70391	0.58732
2867.77534	0.57665
2865.84678	0.56610
2863.91821	0.55564
2861.98965	0.54537
2860.06108	0.53513
2858.13252	0.52494
2856.20396	0.51543
2854.27539	0.50705
2852.34683	0.49927
2850.41826	0.49133
2848.48970	0.48317
2846.56113	0.47529
2844.63257	0.46790
2842.70400	0.46093
2840.77544	0.45434
2838.84687	0.44808
2836.91831	0.44198
2834.98975	0.43610
2833.06118	0.43034
2831.13262	0.42442
2829.20405	0.41843
2827.27549	0.41242
2825.34692	0.40635
2823.41836	0.40041
2821.48979	0.39465
2819.56123	0.38904
2817.63267	0.38349
2815.70410	0.37795
2813.77554	0.37249
2811.84697	0.36713
2809.91841	0.36179
2807.98984	0.35663
2806.06128	0.35179
2804.13271	0.34697
2802.20415	0.34198
2800.27559	0.33704
2798.34702	0.33232
2796.41846	0.32767
2794.48989	0.32319
2792.56133	0.31893
2790.63276	0.31463
2788.70420	0.31015
2786.77563	0.30584
2784.84707	0.30175
2782.91851	0.29775
2780.98994	0.29394
2779.06138	0.29022
2777.13281	0.28635
2775.20425	0.28239
2773.27568	0.27853
2771.34712	0.27495
2769.41855	0.27161
2767.48999	0.26830
2765.56143	0.26499
2763.63286	0.26162
2761.70430	0.25832
2759.77573	0.25519
2757.84717	0.25217
2755.91860	0.24922
2753.99004	0.24623
2752.06147	0.24322
2750.13291	0.24031
2748.20435	0.23760
2746.27578	0.23504
2744.34722	0.23244
2742.41865	0.22978
2740.49009	0.22714
2738.56152	0.22460
2736.63296	0.22220
2734.70439	0.21987
2732.77583	0.21744
2730.84727	0.21487
2728.91870	0.21250
2726.99014	0.21050
2725.06157	0.20861
2723.13301	0.20670
2721.20444	0.20469
2719.27588	0.20253
2717.34731	0.20054
2715.41875	0.19885
2713.49019	0.19728
2711.56162	0.19560
2709.63306	0.19371
2707.70449	0.19172
2705.77593	0.18988
2703.84736	0.18830
2701.91880	0.18690
2699.99023	0.18549
2698.06167	0.18409
2696.13311	0.18287
2694.20454	0.18168
2692.27598	0.18035
2690.34741	0.17902
2688.41885	0.17774
2686.49028	0.17649
2684.56172	0.17524
2682.63315	0.17401
2680.70459	0.17280
2678.77603	0.17161
2676.84746	0.17045
2674.91890	0.16945
2672.99033	0.16862
2671.06177	0.16775
2669.13320	0.16665
2667.20464	0.16548
2665.27607	0.16454
2663.34751	0.16384
2661.41895	0.16311
2659.49038	0.16225
2657.56182	0.16130
2655.63325	0.16038
2653.70469	0.15971
2651.77612	0.15925
2649.84756	0.15867
2647.91899	0.15788
2645.99043	0.15720
2644.06187	0.15675
2642.13330	0.15632
2640.20474	0.15579
2638.27617	0.15523
2636.34761	0.15472
2634.41904	0.15417
2632.49048	0.15359
2630.56191	0.15314
2628.63335	0.15288
2626.70479	0.15267
2624.77622	0.15239
2622.84766	0.15216
2620.91909	0.15200
2618.99053	0.15179
2617.06196	0.15147
2615.13340	0.15114
2613.20483	0.15094
2611.27627	0.15087
2609.34771	0.15091
2607.41914	0.15097
2605.49058	0.15090
2603.56201	0.15073
2601.63345	0.15062
2599.70488	0.15060
2597.77632	0.15071
2595.84775	0.15088
2593.91919	0.15103
2591.99062	0.15106
2590.06206	0.15097
2588.13350	0.15099
2586.20493	0.15121
2584.27637	0.15150
2582.34780	0.15175
2580.41924	0.15198
2578.49067	0.15223
2576.56211	0.15250
2574.63354	0.15274
2572.70498	0.15292
2570.77642	0.15310
2568.84785	0.15343
2566.91929	0.15394
2564.99072	0.15440
2563.06216	0.15474
2561.13359	0.15516
2559.20503	0.15568
2557.27646	0.15621
2555.34790	0.15667
2553.41934	0.15709
2551.49077	0.15761
2549.56221	0.15819
2547.63364	0.15878
2545.70508	0.15940
2543.77651	0.16000
2541.84795	0.16048
2539.91938	0.16095
2537.99082	0.16153
2536.06226	0.16213
2534.13369	0.16262
2532.20513	0.16319
2530.27656	0.16395
2528.34800	0.16484
2526.41943	0.16565
2524.49087	0.16625
2522.56230	0.16685
2520.63374	0.16759
2518.70518	0.16841
2516.77661	0.16928
2514.84805	0.17016
2512.91948	0.17100
2510.99092	0.17175
2509.06235	0.17236
2507.13379	0.17306
2505.20522	0.17395
2503.27666	0.17479
2501.34810	0.17548
2499.41953	0.17620
2497.49097	0.17701
2495.56240	0.17784
2493.63384	0.17860
2491.70527	0.17934
2489.77671	0.18018
2487.84814	0.18120
2485.91958	0.18224
2483.99102	0.18313
2482.06245	0.18395
2480.13389	0.18480
2478.20532	0.18567
2476.27676	0.18653
2474.34819	0.18738
2472.41963	0.18832
2470.49106	0.18929
2468.56250	0.19005
2466.63394	0.19069
2464.70537	0.19153
2462.77681	0.19265
2460.84824	0.19376
2458.91968	0.19461
2456.99111	0.19537
2455.06255	0.19624
2453.13398	0.19727
2451.20542	0.19843
2449.27686	0.19945
2447.34829	0.20024
2445.41973	0.20102
2443.49116	0.20198
2441.56260	0.20305
2439.63403	0.20412
2437.70547	0.20519
2435.77690	0.20627
2433.84834	0.20731
2431.91978	0.20829
2429.99121	0.20928
2428.06265	0.21030
2426.13408	0.21136
2424.20552	0.21244
2422.27695	0.21350
2420.34839	0.21462
2418.41982	0.21578
2416.49126	0.21680
2414.56270	0.21770
2412.63413	0.21875
2410.70557	0.21999
2408.77700	0.22127
2406.84844	0.22242
2404.91987	0.22347
2402.99131	0.22452
2401.06274	0.22566
2399.13418	0.22697
2397.20562	0.22832
2395.27705	0.22960
2393.34849	0.23080
2391.41992	0.23185
2389.49136	0.23299
2387.56279	0.23441
2385.63423	0.23595
2383.70566	0.23751
2381.77710	0.23910
2379.84854	0.24074
2377.91997	0.24250
2375.99141	0.24443
2374.06284	0.24673
2372.13428	0.24941
2370.20571	0.25199
2368.27715	0.25413
2366.34858	0.25624
2364.42002	0.25880
2362.49146	0.26124
2360.56289	0.26282
2358.63433	0.26404
2356.70576	0.26537
2354.77720	0.26622
2352.84863	0.26678
2350.92007	0.26738
2348.99150	0.26785
2347.06294	0.26845
2345.13437	0.26994
2343.20581	0.27219
2341.27725	0.27388
2339.34868	0.27530
2337.42012	0.27698
2335.49155	0.27872
2333.56299	0.28006
2331.63442	0.28127
2329.70586	0.28315
2327.77729	0.28528
2325.84873	0.28664
2323.92017	0.28768
2321.99160	0.28913
2320.06304	0.29072
2318.13447	0.29199
2316.20591	0.29300
2314.27734	0.29429
2312.34878	0.29605
2310.42021	0.29782
2308.49165	0.29922
2306.56309	0.30051
2304.63452	0.30187
2302.70596	0.30327
2300.77739	0.30487
2298.84883	0.30669
2296.92026	0.30861
2294.99170	0.31047
2293.06313	0.31215
2291.13457	0.31382
2289.20601	0.31561
2287.27744	0.31743
2285.34888	0.31906
2283.42031	0.32060
2281.49175	0.32242
2279.56318	0.32457
2277.63462	0.32670
2275.70605	0.32869
2273.77749	0.33068
2271.84893	0.33270
2269.92036	0.33479
2267.99180	0.33689
2266.06323	0.33891
2264.13467	0.34091
2262.20610	0.34299
2260.27754	0.34513
2258.34897	0.34722
2256.42041	0.34929
2254.49185	0.35140
2252.56328	0.35350
2250.63472	0.35556
2248.70615	0.35763
2246.77759	0.35975
2244.84902	0.36185
2242.92046	0.36401
2240.99189	0.36629
2239.06333	0.36859
2237.13477	0.37079
2235.20620	0.37289
2233.27764	0.37505
2231.34907	0.37734
2229.42051	0.37957
2227.49194	0.38160
2225.56338	0.38366
2223.63481	0.38591
2221.70625	0.38811
2219.77769	0.39023
2217.84912	0.39241
2215.92056	0.39460
2213.99199	0.39679
2212.06343	0.39905
2210.13486	0.40133
2208.20630	0.40352
2206.27773	0.40555
2204.34917	0.40747
2202.42061	0.40942
2200.49204	0.41136
2198.56348	0.41329
2196.63491	0.41523
2194.70635	0.41726
2192.77778	0.41925
2190.84922	0.42100
2188.92065	0.42261
2186.99209	0.42434
2185.06353	0.42623
2183.13496	0.42816
2181.20640	0.42996
2179.27783	0.43155
2177.34927	0.43305
2175.42070	0.43455
2173.49214	0.43597
2171.56357	0.43725
2169.63501	0.43857
2167.70645	0.44008
2165.77788	0.44154
2163.84932	0.44278
2161.92075	0.44393
2159.99219	0.44495
2158.06362	0.44593
2156.13506	0.44708
2154.20649	0.44818
2152.27793	0.44895
2150.34937	0.44960
2148.42080	0.45036
2146.49224	0.45102
2144.56367	0.45146
2142.63511	0.45183
2140.70654	0.45222
2138.77798	0.45258
2136.84941	0.45284
2134.92085	0.45295
2132.99229	0.45291
2131.06372	0.45281
2129.13516	0.45269
2127.20659	0.45252
2125.27803	0.45229
2123.34946	0.45195
2121.42090	0.45157
2119.49233	0.45116
2117.56377	0.45060
2115.63521	0.44998
2113.70664	0.44937
2111.77808	0.44850
2109.84951	0.44736
2107.92095	0.44623
2105.99238	0.44519
2104.06382	0.44424
2102.13525	0.44324
2100.20669	0.44204
2098.27812	0.44068
2096.34956	0.43925
2094.42100	0.43775
2092.49243	0.43618
2090.56387	0.43460
2088.63530	0.43302
2086.70674	0.43133
2084.77817	0.42950
2082.84961	0.42768
2080.92104	0.42583
2078.99248	0.42382
2077.06392	0.42178
2075.13535	0.41984
2073.20679	0.41783
2071.27822	0.41556
2069.34966	0.41329
2067.42109	0.41112
2065.49253	0.40889
2063.56396	0.40658
2061.63540	0.40423
2059.70684	0.40183
2057.77827	0.39941
2055.84971	0.39701
2053.92114	0.39450
2051.99258	0.39189
2050.06401	0.38933
2048.13545	0.38681
2046.20688	0.38427
2044.27832	0.38165
2042.34976	0.37896
2040.42119	0.37629
2038.49263	0.37364
2036.56406	0.37097
2034.63550	0.36828
2032.70693	0.36554
2030.77837	0.36281
2028.84980	0.36004
2026.92124	0.35728
2024.99268	0.35461
2023.06411	0.35197
2021.13555	0.34927
2019.20698	0.34657
2017.27842	0.34389
2015.34985	0.34119
2013.42129	0.33844
2011.49272	0.33563
2009.56416	0.33288
2007.63560	0.33024
2005.70703	0.32765
2003.77847	0.32504
2001.84990	0.32241
1999.92134	0.31981
1997.99277	0.31726
1996.06421	0.31471
1994.13564	0.31217
1992.20708	0.30967
1990.27852	0.30721
1988.34995	0.30486
1986.42139	0.30246
1984.49282	0.29999
1982.56426	0.29762
1980.63569	0.29534
1978.70713	0.29303
1976.77856	0.29077
1974.85000	0.28858
1972.92144	0.28642
1970.99287	0.28433
1969.06431	0.28226
1967.13574	0.28019
1965.20718	0.27811
1963.27861	0.27610
1961.35005	0.27419
1959.42148	0.27236
1957.49292	0.27056
1955.56436	0.26877
1953.63579	0.26707
1951.70723	0.26541
1949.77866	0.26378
1947.85010	0.26216
1945.92153	0.26060
1943.99297	0.25922
1942.06440	0.25785
1940.13584	0.25628
1938.20728	0.25468
1936.27871	0.25328
1934.35015	0.25200
1932.42158	0.25075
1930.49302	0.24954
1928.56445	0.24841
1926.63589	0.24730
1924.70732	0.24626
1922.77876	0.24532
1920.85020	0.24442
1918.92163	0.24356
1916.99307	0.24263
1915.06450	0.24157
1913.13594	0.24061
1911.20737	0.23988
1909.27881	0.23928
1907.35024	0.23871
1905.42168	0.23802
1903.49312	0.23727
1901.56455	0.23657
1899.63599	0.23598
1897.70742	0.23556
1895.77886	0.23523
1893.85029	0.23492
1891.92173	0.23459
1889.99316	0.23439
1888.06460	0.23423
1886.13604	0.23397
1884.20747	0.23371
1882.27891	0.23355
1880.35034	0.23344
1878.42178	0.23328
1876.49321	0.23316
1874.56465	0.23305
1872.63608	0.23301
1870.70752	0.23319
1868.77896	0.23379
1866.85039	0.23426
1864.92183	0.23426
1862.99326	0.23424
1861.06470	0.23440
1859.13613	0.23469
1857.20757	0.23501
1855.27900	0.23548
1853.35044	0.23593
1851.42187	0.23634
1849.49331	0.23684
1847.56475	0.23757
1845.63618	0.23843
1843.70762	0.23931
1841.77905	0.24001
1839.85049	0.24047
1837.92192	0.24118
1835.99336	0.24205
1834.06479	0.24297
1832.13623	0.24395
1830.20767	0.24536
1828.27910	0.24690
1826.35054	0.24801
1824.42197	0.24926
1822.49341	0.25053
1820.56484	0.25173
1818.63628	0.25309
1816.70771	0.25475
1814.77915	0.25642
1812.85059	0.25814
1810.92202	0.26009
1808.99346	0.26205
1807.06489	0.26386
1805.13633	0.26562
1803.20776	0.26779
1801.27920	0.27039
1799.35063	0.27326
1797.42207	0.27573
1795.49351	0.27795
1793.56494	0.28061
1791.63638	0.28433
1789.70781	0.28791
1787.77925	0.29040
1785.85068	0.29331
1783.92212	0.29690
1781.99355	0.30080
1780.06499	0.30488
1778.13643	0.30904
1776.20786	0.31293
1774.27930	0.31711
1772.35073	0.32290
1770.42217	0.32934
1768.49360	0.33477
1766.56504	0.33988
1764.63647	0.34509
1762.70791	0.35080
1760.77935	0.35814
1758.85078	0.36518
1756.92222	0.37234
1754.99365	0.38012
1753.06509	0.38703
1751.13652	0.39511
1749.20796	0.40552
1747.27939	0.41602
1745.35083	0.42518
1743.42227	0.43467
1741.49370	0.44507
1739.56514	0.45739
1737.63657	0.46975
1735.70801	0.48036
1733.77944	0.49634
1731.85088	0.51610
1729.92231	0.53187
1727.99375	0.54744
1726.06519	0.56413
1724.13662	0.58251
1722.20806	0.60235
1720.27949	0.62037
1718.35093	0.64127
1716.42236	0.67269
1714.49380	0.70308
1712.56523	0.72764
1710.63667	0.75145
1708.70811	0.77712
1706.77954	0.80610
1704.85098	0.84083
1702.92241	0.87211
1700.99385	0.90269
1699.06528	0.94794
1697.13672	0.99043
1695.20815	1.03494
1693.27959	1.07820
1691.35103	1.11262
1689.42246	1.15210
1687.49390	1.19410
1685.56533	1.23519
1683.63677	1.29905
1681.70820	1.36485
1679.77964	1.40635
1677.85107	1.44559
1675.92251	1.49074
1673.99395	1.54701
1672.06538	1.59788
1670.13682	1.64843
1668.20825	1.71398
1666.27969	1.76710
1664.35112	1.81162
1662.42256	1.86750
1660.49399	1.93075
1658.56543	1.97961
1656.63687	2.01850
1654.70830	2.05464
1652.77974	2.11244
1650.85117	2.16929
1648.92261	2.19181
1646.99404	2.21728
1645.06548	2.24291
1643.13691	2.26039
1641.20835	2.27234
1639.27979	2.28372
1637.35122	2.29036
1635.42266	2.28986
1633.49409	2.28372
1631.56553	2.27191
1629.63696	2.25582
1627.70840	2.22813
1625.77983	2.19481
1623.85127	2.15263
1621.92271	2.10160
1619.99414	2.05649
1618.06558	2.01229
1616.13701	1.94981
1614.20845	1.88619
1612.27988	1.83663
1610.35132	1.78426
1608.42275	1.72816
1606.49419	1.67422
1604.56562	1.62520
1602.63706	1.57750
1600.70850	1.53034
1598.77993	1.48677
1596.85137	1.44569
1594.92280	1.40564
1592.99424	1.36676
1591.06567	1.33078
1589.13711	1.29696
1587.20854	1.26555
1585.27998	1.23650
1583.35142	1.20931
1581.42285	1.18441
1579.49429	1.16318
1577.56572	1.14413
1575.63716	1.12123
1573.70859	1.10130
1571.78003	1.08817
1569.85146	1.07436
1567.92290	1.05947
1565.99434	1.04847
1564.06577	1.03982
1562.13721	1.03302
1560.20864	1.02868
1558.28008	1.02438
1556.35151	1.02027
1554.42295	1.01720
1552.49438	1.01438
1550.56582	1.01066
1548.63726	1.00522
1546.70869	0.99867
1544.78013	0.99032
1542.85156	0.97944
1540.92300	0.96421
1538.99443	0.94086
1537.06587	0.92352
1535.13730	0.91174
1533.20874	0.89629
1531.28018	0.87956
1529.35161	0.86718
1527.42305	0.85542
1525.49448	0.84318
1523.56592	0.83292
1521.63735	0.82349
1519.70879	0.81378
1517.78022	0.80513
1515.85166	0.79528
1513.92310	0.78517
1511.99453	0.77641
1510.06597	0.76861
1508.13740	0.76114
1506.20884	0.74941
1504.28027	0.73895
1502.35171	0.73313
1500.42314	0.72827
1498.49458	0.72321
1496.56602	0.71709
1494.63745	0.71069
1492.70889	0.70572
1490.78032	0.70175
1488.85176	0.69753
1486.92319	0.69322
1484.99463	0.68957
1483.06606	0.68675
1481.13750	0.68449
1479.20894	0.68269
1477.28037	0.68159
1475.35181	0.68108
1473.42324	0.68087
1471.49468	0.68005
1469.56611	0.67816
1467.63755	0.67596
1465.70898	0.67384
1463.78042	0.67198
1461.85186	0.67065
1459.92329	0.66975
1457.99473	0.66889
1456.06616	0.66737
1454.13760	0.66493
1452.20903	0.66240
1450.28047	0.65988
1448.35190	0.65726
1446.42334	0.65444
1444.49478	0.65190
1442.56621	0.64958
1440.63765	0.64713
1438.70908	0.64456
1436.78052	0.64148
1434.85195	0.63823
1432.92339	0.63576
1430.99482	0.63385
1429.06626	0.63231
1427.13770	0.63133
1425.20913	0.63096
1423.28057	0.63101
1421.35200	0.63095
1419.42344	0.63068
1417.49487	0.63009
1415.56631	0.62889
1413.63774	0.62760
1411.70918	0.62667
1409.78062	0.62640
1407.85205	0.62683
1405.92349	0.62773
1403.99492	0.62838
1402.06636	0.62813
1400.13779	0.62721
1398.20923	0.62566
1396.28066	0.62346
1394.35210	0.62066
1392.42354	0.61757
1390.49497	0.61451
1388.56641	0.61135
1386.63784	0.60795
1384.70928	0.60442
1382.78071	0.60092
1380.85215	0.59764
1378.92358	0.59483
1376.99502	0.59266
1375.06646	0.59113
1373.13789	0.58995
1371.20933	0.58901
1369.28076	0.58825
1367.35220	0.58719
1365.42363	0.58568
1363.49507	0.58403
1361.56650	0.58261
1359.63794	0.58147
1357.70937	0.58041
1355.78081	0.57937
1353.85225	0.57834
1351.92368	0.57746
1349.99512	0.57679
1348.06655	0.57605
1346.13799	0.57507
1344.20942	0.57412
1342.28086	0.57333
1340.35229	0.57268
1338.42373	0.57203
1336.49517	0.57130
1334.56660	0.57067
1332.63804	0.57019
1330.70947	0.56975
1328.78091	0.56949
1326.85234	0.56962
1324.92378	0.56997
1322.99521	0.57030
1321.06665	0.57053
1319.13809	0.57066
1317.20952	0.57069
1315.28096	0.57054
1313.35239	0.57014
1311.42383	0.56951
1309.49526	0.56876
1307.56670	0.56801
1305.63813	0.56732
1303.70957	0.56669
1301.78101	0.56603
1299.85244	0.56526
1297.92388	0.56443
1295.99531	0.56365
1294.06675	0.56285
1292.13818	0.56189
1290.20962	0.56083
1288.28105	0.55979
1286.35249	0.55881
1284.42393	0.55785
1282.49536	0.55686
1280.56680	0.55578
1278.63823	0.55467
1276.70967	0.55369
1274.78110	0.55287
1272.85254	0.55214
1270.92397	0.55138
1268.99541	0.55061
1267.06685	0.54998
1265.13828	0.54944
1263.20972	0.54881
1261.28115	0.54807
1259.35259	0.54744
1257.42402	0.54693
1255.49546	0.54642
1253.56689	0.54606
1251.63833	0.54596
1249.70977	0.54599
1247.78120	0.54601
1245.85264	0.54593
1243.92407	0.54560
1241.99551	0.54495
1240.06694	0.54389
1238.13838	0.54248
1236.20981	0.54092
1234.28125	0.53931
1232.35269	0.53768
1230.42412	0.53610
1228.49556	0.53460
1226.56699	0.53314
1224.63843	0.53171
1222.70986	0.53037
1220.78130	0.52916
1218.85273	0.52797
1216.92417	0.52689
1214.99561	0.52601
1213.06704	0.52525
1211.13848	0.52463
1209.20991	0.52400
1207.28135	0.52331
1205.35278	0.52262
1203.42422	0.52182
1201.49565	0.52104
1199.56709	0.52046
1197.63853	0.51984
1195.70996	0.51907
1193.78140	0.51850
1191.85283	0.51815
1189.92427	0.51772
1187.99570	0.51736
1186.06714	0.51729
1184.13857	0.51740
1182.21001	0.51767
1180.28145	0.51823
1178.35288	0.51915
1176.42432	0.52039
1174.49575	0.52160
1172.56719	0.52250
1170.63862	0.52318
1168.71006	0.52363
1166.78149	0.52382
1164.85293	0.52408
1162.92437	0.52453
1160.99580	0.52472
1159.06724	0.52459
1157.13867	0.52431
1155.21011	0.52368
1153.28154	0.52249
1151.35298	0.52080
1149.42441	0.51870
1147.49585	0.51630
1145.56729	0.51372
1143.63872	0.51112
1141.71016	0.50866
1139.78159	0.50644
1137.85303	0.50458
1135.92446	0.50306
1133.99590	0.50186
1132.06733	0.50104
1130.13877	0.50043
1128.21021	0.49963
1126.28164	0.49862
1124.35308	0.49777
1122.42451	0.49729
1120.49595	0.49717
1118.56738	0.49732
1116.63882	0.49748
1114.71025	0.49762
1112.78169	0.49796
1110.85312	0.49865
1108.92456	0.49964
1106.99600	0.50077
1105.06743	0.50186
1103.13887	0.50290
1101.21030	0.50409
1099.28174	0.50576
1097.35317	0.50796
1095.42461	0.51070
1093.49604	0.51421
1091.56748	0.51859
1089.63892	0.52397
1087.71035	0.53059
1085.78179	0.53798
1083.85322	0.54541
1081.92466	0.55243
1079.99609	0.55839
1078.06753	0.56200
1076.13896	0.56233
1074.21040	0.55971
1072.28184	0.55473
1070.35327	0.54823
1068.42471	0.54147
1066.49614	0.53497
1064.56758	0.52873
1062.63901	0.52289
1060.71045	0.51770
1058.78188	0.51334
1056.85332	0.50958
1054.92476	0.50615
1052.99619	0.50305
1051.06763	0.50039
1049.13906	0.49836
1047.21050	0.49692
1045.28193	0.49571
1043.35337	0.49489
1041.42480	0.49452
1039.49624	0.49407
1037.56768	0.49367
1035.63911	0.49353
1033.71055	0.49320
1031.78198	0.49253
1029.85342	0.49175
1027.92485	0.49083
1025.99629	0.48992
1024.06772	0.48935
1022.13916	0.48911
1020.21060	0.48914
1018.28203	0.48944
1016.35347	0.48982
1014.42490	0.49019
1012.49634	0.49053
1010.56777	0.49089
1008.63921	0.49139
1006.71064	0.49214
1004.78208	0.49323
1002.85352	0.49495
1000.92495	0.49749
998.99639	0.50079
997.06782	0.50486
995.13926	0.50939
993.21069	0.51354
991.28213	0.51658
989.35356	0.51856
987.42500	0.51970
985.49644	0.52000
983.56787	0.51994
981.63931	0.52028
979.71074	0.52124
977.78218	0.52275
975.85361	0.52489
973.92505	0.52743
971.99648	0.53017
970.06792	0.53337
968.13936	0.53714
966.21079	0.54113
964.28223	0.54517
962.35366	0.54952
960.42510	0.55442
958.49653	0.55986
956.56797	0.56554
954.63940	0.57120
952.71084	0.57699
950.78228	0.58326
948.85371	0.58996
946.92515	0.59647
944.99658	0.60251
943.06802	0.60850
941.13945	0.61457
939.21089	0.62057
937.28232	0.62664
935.35376	0.63228
933.42520	0.63702
931.49663	0.64175
929.56807	0.64716
927.63950	0.65307
925.71094	0.65907
923.78237	0.66480
921.85381	0.67080
919.92524	0.67753
917.99668	0.68446
916.06812	0.69122
914.13955	0.69816
912.21099	0.70543
910.28242	0.71279
908.35386	0.72072
906.42529	0.73000
904.49673	0.74002
902.56816	0.74969
900.63960	0.75891
898.71104	0.76821
896.78247	0.77741
894.85391	0.78647
892.92534	0.79629
890.99678	0.80683
889.06821	0.81783
887.13965	0.82918
885.21108	0.84021
883.28252	0.85078
881.35396	0.86111
879.42539	0.87165
877.49683	0.88269
875.56826	0.89428
873.63970	0.90634
871.71113	0.91852
869.78257	0.93066
867.85400	0.94209
865.92544	0.95163
863.99687	0.96055
862.06831	0.97194
860.13975	0.98593
858.21118	0.99920
856.28262	1.00930
854.35405	1.01920
852.42549	1.03184
850.49692	1.04505
848.56836	1.05621
846.63979	1.06606
844.71123	1.07593
842.78267	1.08516
840.85410	1.09547
838.92554	1.10833
836.99697	1.12144
835.06841	1.13297
833.13984	1.14241
831.21128	1.15046
829.28271	1.16036
827.35415	1.17602
825.42559	1.19112
823.49702	1.19888
821.56846	1.20677
819.63989	1.21774
817.71133	1.22924
815.78276	1.24687
813.85420	1.26546
811.92563	1.27271
809.99707	1.27579
808.06851	1.28041
806.13994	1.28498
804.21138	1.29093
802.28281	1.30842
800.35425	1.35025
798.42568	1.39969
796.49712	1.41610
794.56855	1.40734
792.63999	1.42935
790.71143	1.46411
788.78286	1.45671
786.85430	1.46877
784.92573	1.54683
782.99717	1.60762
781.06860	1.55522
779.14004	1.44996
777.21147	1.38792
775.28291	1.40921
773.35435	1.52849
771.42578	1.72752
769.49722	1.77280
767.56865	1.72170
765.64009	1.69239
763.71152	1.55631
761.78296	1.46748
759.85439	1.54804
757.92583	1.78385
755.99727	1.81305
754.06870	1.49193
752.14014	1.27759
750.21157	1.21555
748.28301	1.27859
746.35444	1.51052
744.42588	1.64903
742.49731	1.39461
740.56875	1.36062
738.64019	1.62128
736.71162	1.75775
734.78306	4.40870
732.85449	4.39713
730.92593	4.38556
728.99736	1.19934
727.06880	0.77738
725.14023	0.67203
723.21167	0.53471
721.28311	0.42990
719.35454	0.43386
717.42598	0.43804
715.49741	0.39403
713.56885	0.43116
711.64028	0.41433
709.71172	-0.06160
707.78315	-0.10151
705.85459	0.10967
703.92603	0.26677
701.99746	0.50322
700.06890	0.55977
698.14033	0.45145
696.21177	0.28171
694.28320	0.12645
692.35464	0.10209
690.42607	0.27777
688.49751	0.51071
686.56895	0.49048
684.64038	0.56054
682.71182	0.68085
680.78325	0.58654
678.85469	0.41665
676.92612	0.21794
674.99756	0.19274
673.06899	0.32318
671.14043	0.28488
669.21187	0.20418
667.28330	0.29198
665.35474	0.55505
663.42617	0.92212
661.49761	0.58525
659.56904	0.17502
657.64048	-0.00031
655.71191	0.03303
653.78335	0.14890
651.85479	0.29131
649.92622	0.36627
647.99766	0.36521
646.06909	0.30951
644.14053	0.19054
642.21196	0.09026
640.28340	0.06564
638.35483	0.17409
636.42627	0.24120
634.49771	0.17875
632.56914	0.11764
630.64058	0.22188
628.71201	0.33092
626.78345	0.44600
624.85488	0.78291
622.92632	3.73756
620.99775	1.10626
619.06919	0.53398
617.14062	0.31809
615.21206	0.16047
613.28350	0.05558
611.35493	0.09146
609.42637	0.21090
607.49780	0.29308
605.56924	0.31642
603.64067	0.30789
601.71211	0.26813
599.78354	0.22268
597.85498	0.21842
595.92642	0.25568
593.99785	0.30692
592.06929	0.25738
590.14072	0.18315
588.21216	0.18711
586.28359	0.20323
584.35503	0.20521
582.42646	0.24491
580.49790	0.24183
578.56934	0.19280
576.64077	0.17380
574.71221	0.17257
572.78364	0.18030
570.85508	0.23094
568.92651	0.32688
566.99795	0.41375
565.06938	0.79805
563.14082	3.37884
561.21226	0.80873
559.28369	0.48605
557.35513	0.46681
555.42656	0.53849
553.49800	0.35283
551.56943	0.14701
549.64087	0.15416
547.71230	0.47482
545.78374	3.27470
543.85518	3.26313
541.92661	0.37137
539.99805	0.19597
538.06948	0.20095
536.14092	0.25690
534.21235	0.30308
532.28379	0.36913
530.35522	0.47821
528.42666	0.48822
526.49810	0.36650
524.56953	0.30175
522.64097	0.30004
520.71240	0.25464
518.78384	0.20106
516.85527	0.24868
514.92671	0.38788
512.99814	0.43732
511.06958	0.45911
509.14102	0.48159
507.21245	0.36324
505.28389	0.26584
503.35532	0.16544
501.42676	0.07359
499.49819	0.06616
