3997.91411	0.06640
3995.98555	0.06691
3994.05698	0.06754
3992.12842	0.06788
3990.19985	0.06786
3988.27129	0.06761
3986.34272	0.06752
3984.41416	0.06773
3982.48560	0.06801
3980.55703	0.06820
3978.62847	0.06850
3976.69990	0.06919
3974.77134	0.06995
3972.84277	0.07031
3970.91421	0.07047
3968.98564	0.07049
3967.05708	0.07015
3965.12852	0.06993
3963.19995	0.07030
3961.27139	0.07067
3959.34282	0.07074
3957.41426	0.07088
3955.48569	0.07104
3953.55713	0.07095
3951.62856	0.07122
3949.70000	0.07210
3947.77144	0.07248
3945.84287	0.07179
3943.91431	0.07140
3941.98574	0.07171
3940.05718	0.07166
3938.12861	0.07137
3936.20005	0.07120
3934.27148	0.07133
3932.34292	0.07221
3930.41436	0.07319
3928.48579	0.07290
3926.55723	0.07181
3924.62866	0.07131
3922.70010	0.07140
3920.77153	0.07154
3918.84297	0.07184
3916.91440	0.07199
3914.98584	0.07137
3913.05728	0.07041
3911.12871	0.06987
3909.20015	0.06982
3907.27158	0.07041
3905.34302	0.07200
3903.41445	0.07405
3901.48589	0.07483
3899.55732	0.07443
3897.62876	0.07369
3895.70020	0.07248
3893.77163	0.07164
3891.84307	0.07197
3889.91450	0.07274
3887.98594	0.07284
3886.05737	0.07297
3884.12881	0.07329
3882.20024	0.07346
3880.27168	0.07381
3878.34312	0.07334
3876.41455	0.07231
3874.48599	0.07255
3872.55742	0.07392
3870.62886	0.07549
3868.70029	0.07687
3866.77173	0.07696
3864.84316	0.07659
3862.91460	0.07658
3860.98604	0.07617
3859.05747	0.07577
3857.12891	0.07623
3855.20034	0.07777
3853.27178	0.08012
3851.34321	0.08112
3849.41465	0.07996
3847.48608	0.07886
3845.55752	0.07863
3843.62896	0.07950
3841.70039	0.08117
3839.77183	0.08277
3837.84326	0.08372
3835.91470	0.08394
3833.98613	0.08359
3832.05757	0.08345
3830.12900	0.08419
3828.20044	0.08526
3826.27187	0.08606
3824.34331	0.08688
3822.41475	0.08880
3820.48618	0.09188
3818.55762	0.09293
3816.62905	0.09220
3814.70049	0.09176
3812.77192	0.09143
3810.84336	0.09154
3808.91479	0.09264
3806.98623	0.09478
3805.05767	0.09670
3803.12910	0.09799
3801.20054	0.09996
3799.27197	0.10120
3797.34341	0.10098
3795.41484	0.10138
3793.48628	0.10224
3791.55771	0.10284
3789.62915	0.10353
3787.70059	0.10471
3785.77202	0.10663
3783.84346	0.10895
3781.91489	0.11107
3779.98633	0.11302
3778.05776	0.11448
3776.12920	0.11500
3774.20063	0.11574
3772.27207	0.11760
3770.34351	0.12034
3768.41494	0.12314
3766.48638	0.12515
3764.55781	0.12662
3762.62925	0.12798
3760.70068	0.13003
3758.77212	0.13326
3756.84355	0.13635
3754.91499	0.13858
3752.98643	0.14145
3751.05786	0.14619
3749.12930	0.15169
3747.20073	0.15450
3745.27217	0.15581
3743.34360	0.15911
3741.41504	0.16364
3739.48647	0.16720
3737.55791	0.17136
3735.62935	0.17779
3733.70078	0.18549
3731.77222	0.19129
3729.84365	0.19540
3727.91509	0.19944
3725.98652	0.20471
3724.05796	0.21093
3722.12939	0.21683
3720.20083	0.22239
3718.27227	0.22788
3716.34370	0.23374
3714.41514	0.24045
3712.48657	0.25027
3710.55801	0.26572
3708.62944	0.28167
3706.70088	0.29354
3704.77231	0.30468
3702.84375	0.31782
3700.91519	0.33444
3698.98662	0.35247
3697.05806	0.36968
3695.12949	0.38795
3693.20093	0.40778
3691.27236	0.42979
3689.34380	0.45761
3687.41523	0.49104
3685.48667	0.52101
3683.55811	0.54739
3681.62954	0.57550
3679.70098	0.60736
3677.77241	0.64164
3675.84385	0.68203
3673.91528	0.73476
3671.98672	0.77756
3670.05815	0.81587
3668.12959	0.86837
3666.20103	0.91649
3664.27246	0.95709
3662.34390	1.00086
3660.41533	1.04825
3658.48677	1.09513
3656.55820	1.14497
3654.62964	1.20035
3652.70107	1.24723
3650.77251	1.28849
3648.84395	1.34523
3646.91538	1.41425
3644.98682	1.46478
3643.05825	1.50383
3641.12969	1.54391
3639.20112	1.58806
3637.27256	1.63266
3635.34399	1.67663
3633.41543	1.72158
3631.48687	1.76365
3629.55830	1.80525
3627.62974	1.85890
3625.70117	1.90879
3623.77261	1.94302
3621.84404	1.97615
3619.91548	2.01365
3617.98691	2.05876
3616.05835	2.10217
3614.12979	2.13760
3612.20122	2.17463
3610.27266	2.21402
3608.34409	2.25586
3606.41553	2.29961
3604.48696	2.33929
3602.55840	2.37521
3600.62983	2.41374
3598.70127	2.45470
3596.77271	2.49418
3594.84414	2.53393
3592.91558	2.57489
3590.98701	2.61317
3589.05845	2.64830
3587.12988	2.68995
3585.20132	2.73676
3583.27275	2.77798
3581.34419	2.81649
3579.41562	2.85702
3577.48706	2.89920
3575.55850	2.94043
3573.62993	2.98161
3571.70137	3.02329
3569.77280	3.06614
3567.84424	3.11327
3565.91567	3.16736
3563.98711	3.21571
3562.05854	3.25494
3560.12998	3.29504
3558.20142	3.33802
3556.27285	3.38254
3554.34429	3.42567
3552.41572	3.46967
3550.48716	3.51773
3548.55859	3.56484
3546.63003	3.60751
3544.70146	3.65208
3542.77290	3.70211
3540.84434	3.75322
3538.91577	3.80154
3536.98721	3.84612
3535.05864	3.88990
3533.13008	3.93290
3531.20151	3.97703
3529.27295	4.02546
3527.34438	4.07681
3525.41582	4.12422
3523.48726	4.16667
3521.55869	4.21398
3519.63013	4.26829
3517.70156	4.32274
3515.77300	4.37366
3513.84443	4.42171
3511.91587	4.46668
3509.98730	4.51373
3508.05874	4.56536
3506.13018	4.61326
3504.20161	4.65617
3502.27305	4.70362
3500.34448	4.75943
3498.41592	4.81036
3496.48735	4.85207
3494.55879	4.89459
3492.63022	4.93947
3490.70166	4.98793
3488.77310	5.04366
3486.84453	5.10056
3484.91597	5.15336
3482.98740	5.20129
3481.05884	5.24262
3479.13027	5.28184
3477.20171	5.32922
3475.27314	5.38462
3473.34458	5.43576
3471.41602	5.47586
3469.48745	5.51567
3467.55889	5.56413
3465.63032	5.61643
3463.70176	5.67255
3461.77319	5.73219
3459.84463	5.79107
3457.91606	5.84413
3455.98750	5.89072
3454.05894	5.93824
3452.13037	5.99022
3450.20181	6.04277
3448.27324	6.08826
3446.34468	6.12580
3444.41611	6.16210
3442.48755	6.21475
3440.55898	6.27983
3438.63042	6.32989
3436.70186	6.36410
3434.77329	6.39530
3432.84473	6.43113
3430.91616	6.48319
3428.98760	6.55000
3427.05903	6.61573
3425.13047	6.67763
3423.20190	6.73584
3421.27334	6.78988
3419.34478	6.82849
3417.41621	6.85942
3415.48765	6.91102
3413.55908	6.97075
3411.63052	7.00411
3409.70195	7.01842
3407.77339	7.06213
3405.84482	7.12851
3403.91626	7.18920
3401.98770	7.23215
3400.05913	7.25872
3398.13057	7.30505
3396.20200	7.37246
3394.27344	7.43468
3392.34487	7.48808
3390.41631	7.50799
3388.48774	7.48656
3386.55918	7.51072
3384.63062	7.58097
3382.70205	7.63527
3380.77349	7.68438
3378.84492	7.71687
3376.91636	7.72955
3374.98779	7.75046
3373.05923	7.76272
3371.13066	7.76521
3369.20210	7.81177
3367.27354	7.83174
3365.34497	7.82598
3363.41641	7.90659
3361.48784	7.99821
3359.55928	8.01485
3357.63071	7.99693
3355.70215	8.00837
3353.77358	8.04837
3351.84502	8.08123
3349.91646	8.12362
3347.98789	8.22155
3346.05933	8.34721
3344.13076	8.38868
3342.20220	8.32190
3340.27363	8.22126
3338.34507	8.12899
3336.41650	8.06057
3334.48794	8.04174
3332.55937	8.05434
3330.63081	8.10091
3328.70225	8.14299
3326.77368	8.14039
3324.84512	8.17374
3322.91655	8.23411
3320.98799	8.23906
3319.05942	8.19729
3317.13086	8.15654
3315.20229	8.11742
3313.27373	8.08203
3311.34517	8.04868
3309.41660	8.04710
3307.48804	8.09629
3305.55947	8.14702
3303.63091	8.20760
3301.70234	8.27921
3299.77378	8.28812
3297.84521	8.21710
3295.91665	8.20625
3293.98809	8.31121
3292.05952	8.41391
3290.13096	8.44421
3288.20239	8.41458
3286.27383	8.33848
3284.34526	8.27514
3282.41670	8.32398
3280.48813	8.42393
3278.55957	8.37736
3276.63101	8.22532
3274.70244	8.18448
3272.77388	8.27786
3270.84531	8.37282
3268.91675	8.38062
3266.98818	8.30382
3265.05962	8.25556
3263.13105	8.27489
3261.20249	8.29656
3259.27393	8.28596
3257.34536	8.25189
3255.41680	8.20682
3253.48823	8.16943
3251.55967	8.15413
3249.63110	8.15428
3247.70254	8.19911
3245.77397	8.25733
3243.84541	8.28927
3241.91685	8.31987
3239.98828	8.32005
3238.05972	8.32601
3236.13115	8.38090
3234.20259	8.41024
3232.27402	8.38208
3230.34546	8.32229
3228.41689	8.26288
3226.48833	8.21825
3224.55977	8.14921
3222.63120	8.08962
3220.70264	8.07679
3218.77407	8.06591
3216.84551	8.08579
3214.91694	8.14543
3212.98838	8.11917
3211.05981	8.01645
3209.13125	7.96075
3207.20269	7.94912
3205.27412	7.91340
3203.34556	7.83160
3201.41699	7.76218
3199.48843	7.77212
3197.55986	7.81541
3195.63130	7.77447
3193.70273	7.66444
3191.77417	7.58730
3189.84561	7.55349
3187.91704	7.52424
3185.98848	7.49666
3184.05991	7.46904
3182.13135	7.42498
3180.20278	7.37071
3178.27422	7.31571
3176.34565	7.24750
3174.41709	7.15453
3172.48853	7.06611
3170.55996	7.01905
3168.63140	6.99064
3166.70283	6.92658
3164.77427	6.83720
3162.84570	6.75886
3160.91714	6.68023
3158.98857	6.60421
3157.06001	6.54464
3155.13145	6.48865
3153.20288	6.43692
3151.27432	6.38517
3149.34575	6.31098
3147.41719	6.22596
3145.48862	6.15095
3143.56006	6.07962
3141.63149	6.00625
3139.70293	5.94089
3137.77437	5.88653
3135.84580	5.82387
3133.91724	5.74596
3131.98867	5.66846
3130.06011	5.59964
3128.13154	5.52946
3126.20298	5.45272
3124.27441	5.37587
3122.34585	5.29640
3120.41729	5.21886
3118.48872	5.14915
3116.56016	5.08214
3114.63159	5.01570
3112.70303	4.94466
3110.77446	4.86909
3108.84590	4.79965
3106.91733	4.73676
3104.98877	4.67378
3103.06021	4.60924
3101.13164	4.53852
3099.20308	4.46289
3097.27451	4.39203
3095.34595	4.32492
3093.41738	4.25718
3091.48882	4.19162
3089.56025	4.12901
3087.63169	4.06735
3085.70312	4.00658
3083.77456	3.94497
3081.84600	3.88026
3079.91743	3.81468
3077.98887	3.75265
3076.06030	3.69334
3074.13174	3.63358
3072.20317	3.57513
3070.27461	3.51941
3068.34604	3.46323
3066.41748	3.40485
3064.48892	3.34720
3062.56035	3.29141
3060.63179	3.23647
3058.70322	3.18271
3056.77466	3.12944
3054.84609	3.07588
3052.91753	3.02289
3050.98896	2.97164
3049.06040	2.92213
3047.13184	2.87297
3045.20327	2.82307
3043.27471	2.77333
3041.34614	2.72521
3039.41758	2.67901
3037.48901	2.63438
3035.56045	2.58997
3033.63188	2.54466
3031.70332	2.49903
3029.77476	2.45404
3027.84619	2.41053
3025.91763	2.36850
3023.98906	2.32679
3022.06050	2.28537
3020.13193	2.24523
3018.20337	2.20648
3016.27480	2.16819
3014.34624	2.12941
3012.41768	2.09063
3010.48911	2.05303
3008.56055	2.01624
3006.63198	1.97980
3004.70342	1.94418
3002.77485	1.90906
3000.84629	1.87417
2998.91772	1.83993
2996.98916	1.80666
2995.06060	1.77438
2993.13203	1.74238
2991.20347	1.71039
2989.27490	1.67933
2987.34634	1.64930
2985.41777	1.61924
2983.48921	1.58910
2981.56064	1.55961
2979.63208	1.53108
2977.70352	1.50333
2975.77495	1.47593
2973.84639	1.44850
2971.91782	1.42113
2969.98926	1.39437
2968.06069	1.36869
2966.13213	1.34399
2964.20356	1.31980
2962.27500	1.29583
2960.34644	1.27188
2958.41787	1.24843
2956.48931	1.22598
2954.56074	1.20377
2952.63218	1.18125
2950.70361	1.15928
2948.77505	1.13830
2946.84648	1.11771
2944.91792	1.09724
2942.98936	1.07692
2941.06079	1.05697
2939.13223	1.03779
2937.20366	1.01894
2935.27510	0.99991
2933.34653	0.98164
2931.41797	0.96441
2929.48940	0.94667
2927.56084	0.92818
2925.63228	0.91020
2923.70371	0.89351
2921.77515	0.87791
2919.84658	0.86265
2917.91802	0.84718
2915.98945	0.83155
2914.06089	0.81610
2912.13232	0.80132
2910.20376	0.78753
2908.27520	0.77403
2906.34663	0.76028
2904.41807	0.74678
2902.48950	0.73367
2900.56094	0.72093
2898.63237	0.70871
2896.70381	0.69671
2894.77524	0.68488
2892.84668	0.67316
2890.91812	0.66136
2888.98955	0.65002
2887.06099	0.63946
2885.13242	0.62912
2883.20386	0.61847
2881.27529	0.60748
2879.34673	0.59653
2877.41816	0.58607
2875.48960	0.57622
2873.56104	0.56683
2871.63247	0.55746
2869.70391	0.54768
2867.77534	0.53765
2865.84678	0.52789
2863.91821	0.51884
2861.98965	0.51032
2860.06108	0.50184
2858.13252	0.49318
2856.20396	0.48446
2854.27539	0.47605
2852.34683	0.46818
2850.41826	0.46066
2848.48970	0.45322
2846.56113	0.44579
2844.63257	0.43863
2842.70400	0.43206
2840.77544	0.42590
2838.84687	0.41991
2836.91831	0.41413
2834.98975	0.40847
2833.06118	0.40271
2831.13262	0.39683
2829.20405	0.39111
2827.27549	0.38554
2825.34692	0.37978
2823.41836	0.37386
2821.48979	0.36819
2819.56123	0.36281
2817.63267	0.35739
2815.70410	0.35182
2813.77554	0.34632
2811.84697	0.34115
2809.91841	0.33637
2807.98984	0.33159
2806.06128	0.32654
2804.13271	0.32160
2802.20415	0.31710
2800.27559	0.31287
2798.34702	0.30846
2796.41846	0.30380
2794.48989	0.29924
2792.56133	0.29513
2790.63276	0.29127
2788.70420	0.28734
2786.77563	0.28337
2784.84707	0.27945
2782.91851	0.27551
2780.98994	0.27165
2779.06138	0.26800
2777.13281	0.26456
2775.20425	0.26107
2773.27568	0.25745
2771.34712	0.25400
2769.41855	0.25079
2767.48999	0.24768
2765.56143	0.24459
2763.63286	0.24144
2761.70430	0.23826
2759.77573	0.23517
2757.84717	0.23226
2755.91860	0.22943
2753.99004	0.22660
2752.06147	0.22391
2750.13291	0.22146
2748.20435	0.21907
2746.27578	0.21665
2744.34722	0.21420
2742.41865	0.21179
2740.49009	0.20949
2738.56152	0.20721
2736.63296	0.20494
2734.70439	0.20274
2732.77583	0.20044
2730.84727	0.19820
2728.91870	0.19628
2726.99014	0.19438
2725.06157	0.19227
2723.13301	0.19019
2721.20444	0.18834
2719.27588	0.18668
2717.34731	0.18509
2715.41875	0.18349
2713.49019	0.18179
2711.56162	0.18006
2709.63306	0.17841
2707.70449	0.17696
2705.77593	0.17564
2703.84736	0.17423
2701.91880	0.17273
2699.99023	0.17122
2698.06167	0.16974
2696.13311	0.16831
2694.20454	0.16683
2692.27598	0.16538
2690.34741	0.16423
2688.41885	0.16329
2686.49028	0.16225
2684.56172	0.16108
2682.63315	0.15991
2680.70459	0.15879
2678.77603	0.15767
2676.84746	0.15658
2674.91890	0.15561
2672.99033	0.15470
2671.06177	0.15377
2669.13320	0.15286
2667.20464	0.15204
2665.27607	0.15123
2663.34751	0.15048
2661.41895	0.14982
2659.49038	0.14911
2657.56182	0.14830
2655.63325	0.14756
2653.70469	0.14686
2651.77612	0.14613
2649.84756	0.14551
2647.91899	0.14501
2645.99043	0.14446
2644.06187	0.14393
2642.13330	0.14356
2640.20474	0.14324
2638.27617	0.14284
2636.34761	0.14235
2634.41904	0.14189
2632.49048	0.14163
2630.56191	0.14135
2628.63335	0.14091
2626.70479	0.14054
2624.77622	0.14038
2622.84766	0.14029
2620.91909	0.14006
2618.99053	0.13978
2617.06196	0.13970
2615.13340	0.13972
2613.20483	0.13955
2611.27627	0.13934
2609.34771	0.13938
2607.41914	0.13953
2605.49058	0.13955
2603.56201	0.13946
2601.63345	0.13945
2599.70488	0.13956
2597.77632	0.13967
2595.84775	0.13972
2593.91919	0.13975
2591.99062	0.13992
2590.06206	0.14025
2588.13350	0.14051
2586.20493	0.14070
2584.27637	0.14106
2582.34780	0.14149
2580.41924	0.14187
2578.49067	0.14218
2576.56211	0.14240
2574.63354	0.14263
2572.70498	0.14297
2570.77642	0.14345
2568.84785	0.14403
2566.91929	0.14463
2564.99072	0.14515
2563.06216	0.14555
2561.13359	0.14598
2559.20503	0.14652
2557.27646	0.14699
2555.34790	0.14740
2553.41934	0.14791
2551.49077	0.14850
2549.56221	0.14911
2547.63364	0.14968
2545.70508	0.15017
2543.77651	0.15068
2541.84795	0.15140
2539.91938	0.15222
2537.99082	0.15295
2536.06226	0.15366
2534.13369	0.15439
2532.20513	0.15507
2530.27656	0.15576
2528.34800	0.15650
2526.41943	0.15726
2524.49087	0.15801
2522.56230	0.15885
2520.63374	0.15973
2518.70518	0.16054
2516.77661	0.16123
2514.84805	0.16185
2512.91948	0.16261
2510.99092	0.16352
2509.06235	0.16440
2507.13379	0.16522
2505.20522	0.16601
2503.27666	0.16673
2501.34810	0.16745
2499.41953	0.16838
2497.49097	0.16946
2495.56240	0.17043
2493.63384	0.17133
2491.70527	0.17217
2489.77671	0.17298
2487.84814	0.17391
2485.91958	0.17483
2483.99102	0.17572
2482.06245	0.17667
2480.13389	0.17760
2478.20532	0.17848
2476.27676	0.17942
2474.34819	0.18047
2472.41963	0.18148
2470.49106	0.18237
2468.56250	0.18330
2466.63394	0.18427
2464.70537	0.18528
2462.77681	0.18641
2460.84824	0.18753
2458.91968	0.18848
2456.99111	0.18936
2455.06255	0.19024
2453.13398	0.19104
2451.20542	0.19188
2449.27686	0.19290
2447.34829	0.19403
2445.41973	0.19512
2443.49116	0.19608
2441.56260	0.19699
2439.63403	0.19803
2437.70547	0.19923
2435.77690	0.20048
2433.84834	0.20164
2431.91978	0.20264
2429.99121	0.20353
2428.06265	0.20440
2426.13408	0.20540
2424.20552	0.20663
2422.27695	0.20790
2420.34839	0.20906
2418.41982	0.21015
2416.49126	0.21127
2414.56270	0.21238
2412.63413	0.21348
2410.70557	0.21467
2408.77700	0.21600
2406.84844	0.21734
2404.91987	0.21865
2402.99131	0.21981
2401.06274	0.22084
2399.13418	0.22202
2397.20562	0.22339
2395.27705	0.22466
2393.34849	0.22584
2391.41992	0.22719
2389.49136	0.22872
2387.56279	0.23065
2385.63423	0.23340
2383.70566	0.23735
2381.77710	0.24266
2379.84854	0.24919
2377.91997	0.25662
2375.99141	0.26499
2374.06284	0.27464
2372.13428	0.28575
2370.20571	0.29782
2368.27715	0.31020
2366.34858	0.32269
2364.42002	0.33423
2362.49146	0.34308
2360.56289	0.34836
2358.63433	0.34949
2356.70576	0.34581
2354.77720	0.33725
2352.84863	0.32588
2350.92007	0.31490
2348.99150	0.30866
2347.06294	0.30962
2345.13437	0.31784
2343.20581	0.32890
2341.27725	0.33556
2339.34868	0.33726
2337.42012	0.33705
2335.49155	0.33678
2333.56299	0.33662
2331.63442	0.33661
2329.70586	0.33638
2327.77729	0.33539
2325.84873	0.33329
2323.92017	0.33050
2321.99160	0.32750
2320.06304	0.32431
2318.13447	0.32105
2316.20591	0.31808
2314.27734	0.31622
2312.34878	0.31579
2310.42021	0.31588
2308.49165	0.31532
2306.56309	0.31394
2304.63452	0.31265
2302.70596	0.31238
2300.77739	0.31286
2298.84883	0.31335
2296.92026	0.31369
2294.99170	0.31412
2293.06313	0.31467
2291.13457	0.31520
2289.20601	0.31574
2287.27744	0.31642
2285.34888	0.31739
2283.42031	0.31876
2281.49175	0.32061
2279.56318	0.32293
2277.63462	0.32538
2275.70605	0.32770
2273.77749	0.32984
2271.84893	0.33187
2269.92036	0.33394
2267.99180	0.33614
2266.06323	0.33831
2264.13467	0.34022
2262.20610	0.34196
2260.27754	0.34372
2258.34897	0.34556
2256.42041	0.34748
2254.49185	0.34950
2252.56328	0.35144
2250.63472	0.35337
2248.70615	0.35547
2246.77759	0.35758
2244.84902	0.35967
2242.92046	0.36190
2240.99189	0.36402
2239.06333	0.36587
2237.13477	0.36773
2235.20620	0.36988
2233.27764	0.37222
2231.34907	0.37450
2229.42051	0.37674
2227.49194	0.37895
2225.56338	0.38104
2223.63481	0.38317
2221.70625	0.38546
2219.77769	0.38783
2217.84912	0.39013
2215.92056	0.39230
2213.99199	0.39442
2212.06343	0.39657
2210.13486	0.39869
2208.20630	0.40068
2206.27773	0.40269
2204.34917	0.40479
2202.42061	0.40683
2200.49204	0.40882
2198.56348	0.41082
2196.63491	0.41274
2194.70635	0.41461
2192.77778	0.41663
2190.84922	0.41870
2188.92065	0.42056
2186.99209	0.42227
2185.06353	0.42399
2183.13496	0.42568
2181.20640	0.42739
2179.27783	0.42917
2177.34927	0.43086
2175.42070	0.43240
2173.49214	0.43398
2171.56357	0.43559
2169.63501	0.43701
2167.70645	0.43827
2165.77788	0.43953
2163.84932	0.44074
2161.92075	0.44179
2159.99219	0.44276
2158.06362	0.44376
2156.13506	0.44477
2154.20649	0.44569
2152.27793	0.44655
2150.34937	0.44736
2148.42080	0.44809
2146.49224	0.44869
2144.56367	0.44917
2142.63511	0.44968
2140.70654	0.45020
2138.77798	0.45066
2136.84941	0.45101
2134.92085	0.45121
2132.99229	0.45128
2131.06372	0.45122
2129.13516	0.45096
2127.20659	0.45064
2125.27803	0.45043
2123.34946	0.45025
2121.42090	0.44995
2119.49233	0.44945
2117.56377	0.44881
2115.63521	0.44822
2113.70664	0.44760
2111.77808	0.44675
2109.84951	0.44576
2107.92095	0.44481
2105.99238	0.44385
2104.06382	0.44278
2102.13525	0.44163
2100.20669	0.44048
2098.27812	0.43922
2096.34956	0.43782
2094.42100	0.43637
2092.49243	0.43484
2090.56387	0.43310
2088.63530	0.43132
2086.70674	0.42980
2084.77817	0.42833
2082.84961	0.42659
2080.92104	0.42461
2078.99248	0.42263
2077.06392	0.42067
2075.13535	0.41858
2073.20679	0.41633
2071.27822	0.41406
2069.34966	0.41195
2067.42109	0.40992
2065.49253	0.40779
2063.56396	0.40550
2061.63540	0.40315
2059.70684	0.40083
2057.77827	0.39844
2055.84971	0.39598
2053.92114	0.39347
2051.99258	0.39095
2050.06401	0.38844
2048.13545	0.38594
2046.20688	0.38342
2044.27832	0.38086
2042.34976	0.37826
2040.42119	0.37563
2038.49263	0.37292
2036.56406	0.37014
2034.63550	0.36739
2032.70693	0.36470
2030.77837	0.36201
2028.84980	0.35930
2026.92124	0.35662
2024.99268	0.35396
2023.06411	0.35129
2021.13555	0.34859
2019.20698	0.34597
2017.27842	0.34329
2015.34985	0.34044
2013.42129	0.33764
2011.49272	0.33495
2009.56416	0.33227
2007.63560	0.32959
2005.70703	0.32690
2003.77847	0.32425
2001.84990	0.32172
1999.92134	0.31923
1997.99277	0.31667
1996.06421	0.31407
1994.13564	0.31157
1992.20708	0.30915
1990.27852	0.30674
1988.34995	0.30431
1986.42139	0.30181
1984.49282	0.29933
1982.56426	0.29688
1980.63569	0.29448
1978.70713	0.29227
1976.77856	0.29013
1974.85000	0.28791
1972.92144	0.28565
1970.99287	0.28353
1969.06431	0.28156
1967.13574	0.27957
1965.20718	0.27745
1963.27861	0.27539
1961.35005	0.27349
1959.42148	0.27161
1957.49292	0.26975
1955.56436	0.26789
1953.63579	0.26607
1951.70723	0.26442
1949.77866	0.26293
1947.85010	0.26144
1945.92153	0.26001
1943.99297	0.25872
1942.06440	0.25730
1940.13584	0.25557
1938.20728	0.25394
1936.27871	0.25261
1934.35015	0.25134
1932.42158	0.25008
1930.49302	0.24883
1928.56445	0.24758
1926.63589	0.24638
1924.70732	0.24546
1922.77876	0.24471
1920.85020	0.24378
1918.92163	0.24283
1916.99307	0.24189
1915.06450	0.24078
1913.13594	0.23981
1911.20737	0.23923
1909.27881	0.23874
1907.35024	0.23808
1905.42168	0.23727
1903.49312	0.23648
1901.56455	0.23580
1899.63599	0.23522
1897.70742	0.23483
1895.77886	0.23462
1893.85029	0.23440
1891.92173	0.23402
1889.99316	0.23373
1888.06460	0.23347
1886.13604	0.23316
1884.20747	0.23292
1882.27891	0.23272
1880.35034	0.23251
1878.42178	0.23231
1876.49321	0.23224
1874.56465	0.23218
1872.63608	0.23226
1870.70752	0.23274
1868.77896	0.23356
1866.85039	0.23386
1864.92183	0.23350
1862.99326	0.23333
1861.06470	0.23357
1859.13613	0.23398
1857.20757	0.23433
1855.27900	0.23474
1853.35044	0.23516
1851.42187	0.23564
1849.49331	0.23624
1847.56475	0.23703
1845.63618	0.23804
1843.70762	0.23903
1841.77905	0.23951
1839.85049	0.23967
1837.92192	0.24032
1835.99336	0.24128
1834.06479	0.24230
1832.13623	0.24346
1830.20767	0.24504
1828.27910	0.24653
1826.35054	0.24752
1824.42197	0.24868
1822.49341	0.24982
1820.56484	0.25091
1818.63628	0.25221
1816.70771	0.25383
1814.77915	0.25551
1812.85059	0.25735
1810.92202	0.25942
1808.99346	0.26134
1807.06489	0.26313
1805.13633	0.26500
1803.20776	0.26728
1801.27920	0.27000
1799.35063	0.27293
1797.42207	0.27534
1795.49351	0.27767
1793.56494	0.28063
1791.63638	0.28436
1789.70781	0.28763
1787.77925	0.29001
1785.85068	0.29299
1783.92212	0.29658
1781.99355	0.30047
1780.06499	0.30465
1778.13643	0.30892
1776.20786	0.31298
1774.27930	0.31760
1772.35073	0.32383
1770.42217	0.33011
1768.49360	0.33519
1766.56504	0.34018
1764.63647	0.34535
1762.70791	0.35116
1760.77935	0.35859
1758.85078	0.36552
1756.92222	0.37251
1754.99365	0.38024
1753.06509	0.38737
1751.13652	0.39593
1749.20796	0.40668
1747.27939	0.41707
1745.35083	0.42602
1743.42227	0.43547
1741.49370	0.44599
1739.56514	0.45844
1737.63657	0.47097
1735.70801	0.48207
1733.77944	0.49859
1731.85088	0.51805
1729.92231	0.53331
1727.99375	0.54869
1726.06519	0.56537
1724.13662	0.58381
1722.20806	0.60376
1720.27949	0.62218
1718.35093	0.64375
1716.42236	0.67532
1714.49380	0.70523
1712.56523	0.72940
1710.63667	0.75271
1708.70811	0.77796
1706.77954	0.80706
1704.85098	0.84178
1702.92241	0.87246
1700.99385	0.90249
1699.06528	0.94687
1697.13672	0.98752
1695.20815	1.02888
1693.27959	1.06859
1691.35103	1.10035
1689.42246	1.13712
1687.49390	1.17585
1685.56533	1.21304
1683.63677	1.26972
1681.70820	1.32806
1679.77964	1.36596
1677.85107	1.40234
1675.92251	1.44367
1673.99395	1.49377
1672.06538	1.53809
1670.13682	1.58222
1668.20825	1.63911
1666.27969	1.68352
1664.35112	1.71913
1662.42256	1.76297
1660.49399	1.81275
1658.56543	1.85262
1656.63687	1.88601
1654.70830	1.91765
1652.77974	1.96847
1650.85117	2.01866
1648.92261	2.04073
1646.99404	2.07173
1645.06548	2.10812
1643.13691	2.13096
1641.20835	2.14509
1639.27979	2.15813
1637.35122	2.16778
1635.42266	2.17144
1633.49409	2.16877
1631.56553	2.16139
1629.63696	2.14969
1627.70840	2.12629
1625.77983	2.09820
1623.85127	2.06302
1621.92271	2.01908
1619.99414	1.97889
1618.06558	1.93850
1616.13701	1.88029
1614.20845	1.82036
1612.27988	1.77452
1610.35132	1.72716
1608.42275	1.67581
1606.49419	1.62431
1604.56562	1.57613
1602.63706	1.52973
1600.70850	1.48456
1598.77993	1.44243
1596.85137	1.40204
1594.92280	1.36249
1592.99424	1.32387
1591.06567	1.28788
1589.13711	1.25379
1587.20854	1.22162
1585.27998	1.19123
1583.35142	1.16200
1581.42285	1.13486
1579.49429	1.11160
1577.56572	1.09013
1575.63716	1.06270
1573.70859	1.03785
1571.78003	1.02138
1569.85146	1.00347
1567.92290	0.98267
1565.99434	0.96585
1564.06577	0.95139
1562.13721	0.93952
1560.20864	0.92982
1558.28008	0.91147
1556.35151	0.89297
1554.42295	0.88162
1552.49438	0.87075
1550.56582	0.86022
1548.63726	0.84973
1546.70869	0.84063
1544.78013	0.83257
1542.85156	0.82440
1540.92300	0.81475
1538.99443	0.80109
1537.06587	0.79112
1535.13730	0.78504
1533.20874	0.77761
1531.28018	0.76879
1529.35161	0.76199
1527.42305	0.75610
1525.49448	0.75006
1523.56592	0.74442
1521.63735	0.73830
1519.70879	0.73122
1517.78022	0.72536
1515.85166	0.71975
1513.92310	0.71421
1511.99453	0.70960
1510.06597	0.70579
1508.13740	0.70277
1506.20884	0.69780
1504.28027	0.69197
1502.35171	0.68807
1500.42314	0.68490
1498.49458	0.68208
1496.56602	0.67905
1494.63745	0.67562
1492.70889	0.67287
1490.78032	0.67104
1488.85176	0.66891
1486.92319	0.66591
1484.99463	0.66289
1483.06606	0.66039
1481.13750	0.65828
1479.20894	0.65634
1477.28037	0.65464
1475.35181	0.65313
1473.42324	0.65167
1471.49468	0.64928
1469.56611	0.64629
1467.63755	0.64385
1465.70898	0.64188
1463.78042	0.63979
1461.85186	0.63783
1459.92329	0.63655
1457.99473	0.63528
1456.06616	0.63232
1454.13760	0.62877
1452.20903	0.62600
1450.28047	0.62356
1448.35190	0.62134
1446.42334	0.61909
1444.49478	0.61685
1442.56621	0.61491
1440.63765	0.61328
1438.70908	0.61196
1436.78052	0.61058
1434.85195	0.60891
1432.92339	0.60729
1430.99482	0.60577
1429.06626	0.60407
1427.13770	0.60237
1425.20913	0.60092
1423.28057	0.59951
1421.35200	0.59818
1419.42344	0.59706
1417.49487	0.59560
1415.56631	0.59349
1413.63774	0.59151
1411.70918	0.58991
1409.78062	0.58842
1407.85205	0.58694
1405.92349	0.58560
1403.99492	0.58421
1402.06636	0.58277
1400.13779	0.58160
1398.20923	0.58049
1396.28066	0.57908
1394.35210	0.57733
1392.42354	0.57561
1390.49497	0.57428
1388.56641	0.57318
1386.63784	0.57193
1384.70928	0.57060
1382.78071	0.56946
1380.85215	0.56848
1378.92358	0.56773
1376.99502	0.56724
1375.06646	0.56685
1373.13789	0.56612
1371.20933	0.56515
1369.28076	0.56437
1367.35220	0.56370
1365.42363	0.56299
1363.49507	0.56231
1361.56650	0.56140
1359.63794	0.56022
1357.70937	0.55921
1355.78081	0.55835
1353.85225	0.55733
1351.92368	0.55617
1349.99512	0.55516
1348.06655	0.55421
1346.13799	0.55313
1344.20942	0.55209
1342.28086	0.55116
1340.35229	0.55034
1338.42373	0.54949
1336.49517	0.54844
1334.56660	0.54738
1332.63804	0.54646
1330.70947	0.54560
1328.78091	0.54476
1326.85234	0.54404
1324.92378	0.54348
1322.99521	0.54301
1321.06665	0.54251
1319.13809	0.54181
1317.20952	0.54087
1315.28096	0.53992
1313.35239	0.53900
1311.42383	0.53809
1309.49526	0.53720
1307.56670	0.53637
1305.63813	0.53556
1303.70957	0.53465
1301.78101	0.53373
1299.85244	0.53291
1297.92388	0.53215
1295.99531	0.53145
1294.06675	0.53085
1292.13818	0.53035
1290.20962	0.52985
1288.28105	0.52922
1286.35249	0.52847
1284.42393	0.52782
1282.49536	0.52734
1280.56680	0.52695
1278.63823	0.52649
1276.70967	0.52595
1274.78110	0.52541
1272.85254	0.52491
1270.92397	0.52439
1268.99541	0.52380
1267.06685	0.52330
1265.13828	0.52293
1263.20972	0.52256
1261.28115	0.52224
1259.35259	0.52201
1257.42402	0.52164
1255.49546	0.52108
1253.56689	0.52049
1251.63833	0.52003
1249.70977	0.51984
1247.78120	0.51980
1245.85264	0.51961
1243.92407	0.51917
1241.99551	0.51865
1240.06694	0.51805
1238.13838	0.51724
1236.20981	0.51644
1234.28125	0.51587
1232.35269	0.51541
1230.42412	0.51488
1228.49556	0.51433
1226.56699	0.51375
1224.63843	0.51307
1222.70986	0.51223
1220.78130	0.51129
1218.85273	0.51049
1216.92417	0.50991
1214.99561	0.50948
1213.06704	0.50911
1211.13848	0.50868
1209.20991	0.50815
1207.28135	0.50767
1205.35278	0.50722
1203.42422	0.50673
1201.49565	0.50615
1199.56709	0.50553
1197.63853	0.50496
1195.70996	0.50432
1193.78140	0.50362
1191.85283	0.50313
1189.92427	0.50276
1187.99570	0.50236
1186.06714	0.50202
1184.13857	0.50183
1182.21001	0.50187
1180.28145	0.50218
1178.35288	0.50255
1176.42432	0.50309
1174.49575	0.50389
1172.56719	0.50472
1170.63862	0.50552
1168.71006	0.50636
1166.78149	0.50716
1164.85293	0.50803
1162.92437	0.50891
1160.99580	0.50951
1159.06724	0.50976
1157.13867	0.50971
1155.21011	0.50925
1153.28154	0.50821
1151.35298	0.50668
1149.42441	0.50490
1147.49585	0.50289
1145.56729	0.50051
1143.63872	0.49787
1141.71016	0.49535
1139.78159	0.49306
1137.85303	0.49098
1135.92446	0.48933
1133.99590	0.48799
1132.06733	0.48657
1130.13877	0.48516
1128.21021	0.48413
1126.28164	0.48347
1124.35308	0.48297
1122.42451	0.48260
1120.49595	0.48239
1118.56738	0.48225
1116.63882	0.48219
1114.71025	0.48238
1112.78169	0.48295
1110.85312	0.48368
1108.92456	0.48437
1106.99600	0.48527
1105.06743	0.48638
1103.13887	0.48748
1101.21030	0.48864
1099.28174	0.49001
1097.35317	0.49172
1095.42461	0.49404
1093.49604	0.49724
1091.56748	0.50169
1089.63892	0.50769
1087.71035	0.51503
1085.78179	0.52311
1083.85322	0.53142
1081.92466	0.53905
1079.99609	0.54483
1078.06753	0.54794
1076.13896	0.54806
1074.21040	0.54538
1072.28184	0.54038
1070.35327	0.53392
1068.42471	0.52704
1066.49614	0.52025
1064.56758	0.51393
1062.63901	0.50857
1060.71045	0.50411
1058.78188	0.50021
1056.85332	0.49675
1054.92476	0.49354
1052.99619	0.49060
1051.06763	0.48862
1049.13906	0.48759
1047.21050	0.48692
1045.28193	0.48669
1043.35337	0.48705
1041.42480	0.48777
1039.49624	0.48832
1037.56768	0.48852
1035.63911	0.48869
1033.71055	0.48867
1031.78198	0.48807
1029.85342	0.48700
1027.92485	0.48583
1025.99629	0.48480
1024.06772	0.48400
1022.13916	0.48351
1020.21060	0.48333
1018.28203	0.48339
1016.35347	0.48358
1014.42490	0.48374
1012.49634	0.48393
1010.56777	0.48442
1008.63921	0.48515
1006.71064	0.48592
1004.78208	0.48691
1002.85352	0.48855
1000.92495	0.49101
998.99639	0.49417
997.06782	0.49778
995.13926	0.50176
993.21069	0.50578
991.28213	0.50911
989.35356	0.51117
987.42500	0.51217
985.49644	0.51271
983.56787	0.51311
981.63931	0.51356
979.71074	0.51431
977.78218	0.51568
975.85361	0.51782
973.92505	0.52042
971.99648	0.52324
970.06792	0.52632
968.13936	0.52989
966.21079	0.53413
964.28223	0.53878
962.35366	0.54344
960.42510	0.54815
958.49653	0.55324
956.56797	0.55889
954.63940	0.56504
952.71084	0.57142
950.78228	0.57791
948.85371	0.58449
946.92515	0.59065
944.99658	0.59628
943.06802	0.60195
941.13945	0.60781
939.21089	0.61344
937.28232	0.61872
935.35376	0.62425
933.42520	0.63028
931.49663	0.63638
929.56807	0.64217
927.63950	0.64769
925.71094	0.65339
923.78237	0.65919
921.85381	0.66495
919.92524	0.67100
917.99668	0.67762
916.06812	0.68494
914.13955	0.69279
912.21099	0.70073
910.28242	0.70899
908.35386	0.71787
906.42529	0.72697
904.49673	0.73518
902.56816	0.74176
900.63960	0.74867
898.71104	0.75829
896.78247	0.76950
894.85391	0.78011
892.92534	0.79021
890.99678	0.79969
889.06821	0.80879
887.13965	0.81934
885.21108	0.83091
883.28252	0.84226
881.35396	0.85315
879.42539	0.86389
877.49683	0.87573
875.56826	0.88813
873.63970	0.89928
871.71113	0.90909
869.78257	0.91877
867.85400	0.93018
865.92544	0.94354
863.99687	0.95638
862.06831	0.96736
860.13975	0.97763
858.21118	0.98808
856.28262	0.99817
854.35405	1.00886
852.42549	1.02138
850.49692	1.03405
848.56836	1.04479
846.63979	1.05476
844.71123	1.06724
842.78267	1.08155
840.85410	1.09424
838.92554	1.10471
836.99697	1.11505
835.06841	1.12630
833.13984	1.13688
831.21128	1.14683
829.28271	1.15912
827.35415	1.17352
825.42559	1.18752
823.49702	1.20296
821.56846	1.21642
819.63989	1.22021
817.71133	1.21957
815.78276	1.22519
813.85420	1.23799
811.92563	1.25111
809.99707	1.26178
808.06851	1.27003
806.13994	1.27883
804.21138	1.29581
802.28281	1.32330
800.35425	1.35070
798.42568	1.36364
796.49712	1.37348
794.56855	1.39434
792.63999	1.41635
790.71143	1.43138
788.78286	1.44544
786.85430	1.45396
784.92573	1.43816
782.99717	1.40387
781.06860	1.36883
779.14004	1.36189
777.21147	1.43806
775.28291	1.51164
773.35435	1.46608
771.42578	1.44963
769.49722	1.42050
767.56865	1.35507
765.64009	1.37802
763.71152	1.42080
761.78296	1.33742
759.85439	1.23772
757.92583	1.15801
755.99727	1.11994
754.06870	1.15875
752.14014	1.21625
750.21157	1.20163
748.28301	1.14661
746.35444	1.04293
744.42588	0.94444
742.49731	0.86299
740.56875	0.74831
738.64019	0.65805
736.71162	0.63392
734.78306	0.63971
732.85449	0.65194
730.92593	0.63191
728.99736	0.46728
727.06880	0.23259
725.14023	0.03021
723.21167	-0.05660
721.28311	-0.00911
719.35454	0.04003
717.42598	-0.01621
715.49741	-0.09513
713.56885	0.07238
711.64028	0.33625
709.71172	0.33945
707.78315	0.28353
705.85459	0.22202
703.92603	0.06772
701.99746	-0.05604
700.06890	-0.00923
698.14033	0.13516
696.21177	0.22278
694.28320	0.20239
692.35464	0.12748
690.42607	0.11700
688.49751	0.12653
686.56895	0.11441
684.64038	0.13369
682.71182	0.19133
680.78325	0.28279
678.85469	0.32245
676.92612	0.21634
674.99756	0.08078
673.06899	-0.00262
671.14043	-0.00840
669.21187	0.08090
667.28330	0.15602
665.35474	0.10325
663.42617	0.03647
661.49761	0.05875
659.56904	0.16896
657.64048	0.28358
655.71191	0.24631
653.78335	0.13405
651.85479	0.15516
649.92622	0.22230
647.99766	0.13727
646.06909	0.05785
644.14053	0.05590
642.21196	0.05567
640.28340	0.04248
638.35483	0.07381
636.42627	0.13124
634.49771	0.13342
632.56914	0.10380
630.64058	0.11219
628.71201	0.14862
626.78345	0.14643
624.85488	0.11735
622.92632	0.11206
620.99775	0.10261
619.06919	0.09492
617.14062	0.11603
615.21206	0.15162
613.28350	0.17267
611.35493	0.16461
609.42637	0.14189
607.49780	0.13320
605.56924	0.16173
603.64067	0.18243
601.71211	0.16202
599.78354	0.16754
597.85498	0.18105
595.92642	0.18366
593.99785	0.22827
592.06929	0.30676
590.14072	0.36125
588.21216	0.33027
586.28359	0.23985
584.35503	0.16758
582.42646	0.14242
580.49790	0.14782
578.56934	0.14846
576.64077	0.13493
574.71221	0.13575
572.78364	0.14389
570.85508	0.13070
568.92651	0.11294
566.99795	0.13238
565.06938	0.20037
563.14082	0.25040
561.21226	0.19708
559.28369	0.10758
557.35513	0.06200
555.42656	0.06652
553.49800	0.12348
551.56943	0.20219
549.64087	0.19395
547.71230	0.13387
545.78374	0.12985
543.85518	0.15758
541.92661	0.18294
539.99805	0.21682
538.06948	0.20694
536.14092	0.14561
534.21235	0.13155
532.28379	0.19611
530.35522	0.27750
528.42666	0.27899
526.49810	0.23636
524.56953	0.21025
522.64097	0.23271
520.71240	0.27616
518.78384	0.24272
516.85527	0.16891
514.92671	0.11207
512.99814	0.09195
511.06958	0.10132
509.14102	0.09329
507.21245	0.07977
505.28389	0.14061
503.35532	0.26886
501.42676	0.31914
499.49819	0.27735
