3997.91411	0.06921
3995.98555	0.06957
3994.05698	0.07018
3992.12842	0.07054
3990.19985	0.07090
3988.27129	0.07149
3986.34272	0.07202
3984.41416	0.07247
3982.48560	0.07275
3980.55703	0.07283
3978.62847	0.07300
3976.69990	0.07330
3974.77134	0.07337
3972.84277	0.07321
3970.91421	0.07330
3968.98564	0.07376
3967.05708	0.07417
3965.12852	0.07438
3963.19995	0.07456
3961.27139	0.07455
3959.34282	0.07439
3957.41426	0.07448
3955.48569	0.07493
3953.55713	0.07531
3951.62856	0.07538
3949.70000	0.07535
3947.77144	0.07536
3945.84287	0.07546
3943.91431	0.07556
3941.98574	0.07564
3940.05718	0.07557
3938.12861	0.07523
3936.20005	0.07498
3934.27148	0.07510
3932.34292	0.07519
3930.41436	0.07503
3928.48579	0.07485
3926.55723	0.07489
3924.62866	0.07524
3922.70010	0.07539
3920.77153	0.07530
3918.84297	0.07559
3916.91440	0.07587
3914.98584	0.07545
3913.05728	0.07455
3911.12871	0.07398
3909.20015	0.07396
3907.27158	0.07401
3905.34302	0.07421
3903.41445	0.07486
3901.48589	0.07529
3899.55732	0.07511
3897.62876	0.07482
3895.70020	0.07478
3893.77163	0.07520
3891.84307	0.07573
3889.91450	0.07549
3887.98594	0.07489
3886.05737	0.07507
3884.12881	0.07576
3882.20024	0.07638
3880.27168	0.07698
3878.34312	0.07691
3876.41455	0.07620
3874.48599	0.07600
3872.55742	0.07658
3870.62886	0.07738
3868.70029	0.07774
3866.77173	0.07772
3864.84316	0.07833
3862.91460	0.07925
3860.98604	0.07930
3859.05747	0.07919
3857.12891	0.07970
3855.20034	0.08053
3853.27178	0.08177
3851.34321	0.08242
3849.41465	0.08127
3847.48608	0.08034
3845.55752	0.08047
3843.62896	0.08155
3841.70039	0.08315
3839.77183	0.08469
3837.84326	0.08582
3835.91470	0.08602
3833.98613	0.08559
3832.05757	0.08530
3830.12900	0.08549
3828.20044	0.08613
3826.27187	0.08736
3824.34331	0.08893
3822.41475	0.09046
3820.48618	0.09222
3818.55762	0.09312
3816.62905	0.09322
3814.70049	0.09357
3812.77192	0.09358
3810.84336	0.09364
3808.91479	0.09472
3806.98623	0.09675
3805.05767	0.09848
3803.12910	0.09972
3801.20054	0.10137
3799.27197	0.10261
3797.34341	0.10313
3795.41484	0.10408
3793.48628	0.10506
3791.55771	0.10573
3789.62915	0.10662
3787.70059	0.10778
3785.77202	0.10905
3783.84346	0.11039
3781.91489	0.11188
3779.98633	0.11373
3778.05776	0.11566
3776.12920	0.11694
3774.20063	0.11799
3772.27207	0.11946
3770.34351	0.12161
3768.41494	0.12438
3766.48638	0.12690
3764.55781	0.12886
3762.62925	0.13033
3760.70068	0.13180
3758.77212	0.13408
3756.84355	0.13684
3754.91499	0.13908
3752.98643	0.14143
3751.05786	0.14546
3749.12930	0.15069
3747.20073	0.15351
3745.27217	0.15523
3743.34360	0.15869
3741.41504	0.16242
3739.48647	0.16519
3737.55791	0.16857
3735.62935	0.17342
3733.70078	0.17866
3731.77222	0.18329
3729.84365	0.18811
3727.91509	0.19294
3725.98652	0.19829
3724.05796	0.20439
3722.12939	0.21088
3720.20083	0.21778
3718.27227	0.22481
3716.34370	0.23236
3714.41514	0.24058
3712.48657	0.25032
3710.55801	0.26347
3708.62944	0.27738
3706.70088	0.28883
3704.77231	0.29995
3702.84375	0.31321
3700.91519	0.33039
3698.98662	0.34911
3697.05806	0.36678
3695.12949	0.38529
3693.20093	0.40488
3691.27236	0.42636
3689.34380	0.45436
3687.41523	0.48879
3685.48667	0.51925
3683.55811	0.54583
3681.62954	0.57441
3679.70098	0.60628
3677.77241	0.63956
3675.84385	0.67889
3673.91528	0.73171
3671.98672	0.77552
3670.05815	0.81453
3668.12959	0.86718
3666.20103	0.91571
3664.27246	0.95681
3662.34390	1.00074
3660.41533	1.04806
3658.48677	1.09453
3656.55820	1.14344
3654.62964	1.19798
3652.70107	1.24470
3650.77251	1.28570
3648.84395	1.34103
3646.91538	1.40890
3644.98682	1.46030
3643.05825	1.50007
3641.12969	1.53996
3639.20112	1.58386
3637.27256	1.62891
3635.34399	1.67310
3633.41543	1.71621
3631.48687	1.75539
3629.55830	1.79516
3627.62974	1.84815
3625.70117	1.89818
3623.77261	1.93251
3621.84404	1.96550
3619.91548	2.00271
3617.98691	2.04766
3616.05835	2.09225
3614.12979	2.12998
3612.20122	2.16919
3610.27266	2.20822
3608.34409	2.24673
3606.41553	2.28837
3604.48696	2.32809
3602.55840	2.36287
3600.62983	2.39900
3598.70127	2.43886
3596.77271	2.47982
3594.84414	2.52176
3592.91558	2.56325
3590.98701	2.60058
3589.05845	2.63563
3587.12988	2.67887
3585.20132	2.72591
3583.27275	2.76460
3581.34419	2.80100
3579.41562	2.84185
3577.48706	2.88563
3575.55850	2.92761
3573.62993	2.96880
3571.70137	3.01008
3569.77280	3.05035
3567.84424	3.09279
3565.91567	3.14535
3563.98711	3.19704
3562.05854	3.23864
3560.12998	3.27987
3558.20142	3.32350
3556.27285	3.36677
3554.34429	3.40955
3552.41572	3.45521
3550.48716	3.50046
3548.55859	3.54181
3546.63003	3.58439
3544.70146	3.63372
3542.77290	3.68586
3540.84434	3.73469
3538.91577	3.77984
3536.98721	3.82312
3535.05864	3.86918
3533.13008	3.91698
3531.20151	3.96558
3529.27295	4.01560
3527.34438	4.06475
3525.41582	4.11151
3523.48726	4.15587
3521.55869	4.19966
3519.63013	4.24475
3517.70156	4.29226
3515.77300	4.33967
3513.84443	4.38488
3511.91587	4.43193
3509.98730	4.48555
3508.05874	4.53858
3506.13018	4.58237
3504.20161	4.62511
3502.27305	4.67674
3500.34448	4.73310
3498.41592	4.78367
3496.48735	4.82650
3494.55879	4.86835
3492.63022	4.91665
3490.70166	4.97064
3488.77310	5.02484
3486.84453	5.07069
3484.91597	5.10759
3482.98740	5.14890
3481.05884	5.19892
3479.13027	5.25110
3477.20171	5.30181
3475.27314	5.34887
3473.34458	5.39533
3471.41602	5.44726
3469.48745	5.49840
3467.55889	5.54276
3465.63032	5.58863
3463.70176	5.63789
3461.77319	5.68563
3459.84463	5.74176
3457.91606	5.80952
3455.98750	5.87398
3454.05894	5.92195
3452.13037	5.95917
3450.20181	6.00425
3448.27324	6.05435
3446.34468	6.09499
3444.41611	6.13799
3442.48755	6.19428
3440.55898	6.24813
3438.63042	6.30680
3436.70186	6.37151
3434.77329	6.41874
3432.84473	6.46738
3430.91616	6.54067
3428.98760	6.60779
3427.05903	6.64406
3425.13047	6.68146
3423.20190	6.72559
3421.27334	6.75648
3419.34478	6.78794
3417.41621	6.83560
3415.48765	6.89493
3413.55908	6.95843
3411.63052	7.00891
3409.70195	7.04700
3407.77339	7.10307
3405.84482	7.15664
3403.91626	7.19300
3401.98770	7.22798
3400.05913	7.26179
3398.13057	7.29969
3396.20200	7.34930
3394.27344	7.39407
3392.34487	7.42338
3390.41631	7.47495
3388.48774	7.52183
3386.55918	7.54357
3384.63062	7.58454
3382.70205	7.63836
3380.77349	7.67334
3378.84492	7.69729
3376.91636	7.72073
3374.98779	7.74570
3373.05923	7.80983
3371.13066	7.88278
3369.20210	7.91000
3367.27354	7.93348
3365.34497	7.99623
3363.41641	8.03348
3361.48784	7.99053
3359.55928	7.93430
3357.63071	7.93264
3355.70215	7.97668
3353.77358	7.98969
3351.84502	7.97025
3349.91646	7.97580
3347.98789	8.01684
3346.05933	8.04743
3344.13076	8.07671
3342.20220	8.14326
3340.27363	8.16689
3338.34507	8.11283
3336.41650	8.07079
3334.48794	8.12303
3332.55937	8.23162
3330.63081	8.30679
3328.70225	8.31362
3326.77368	8.26223
3324.84512	8.17722
3322.91655	8.10711
3320.98799	8.09898
3319.05942	8.11291
3317.13086	8.09700
3315.20229	8.07253
3313.27373	8.12848
3311.34517	8.20197
3309.41660	8.15121
3307.48804	8.08389
3305.55947	8.10099
3303.63091	8.12564
3301.70234	8.10777
3299.77378	8.11492
3297.84521	8.14924
3295.91665	8.19181
3293.98809	8.24805
3292.05952	8.28266
3290.13096	8.26416
3288.20239	8.25562
3286.27383	8.32255
3284.34526	8.34992
3282.41670	8.28763
3280.48813	8.24005
3278.55957	8.25869
3276.63101	8.32316
3274.70244	8.37881
3272.77388	8.38004
3270.84531	8.32528
3268.91675	8.27551
3266.98818	8.27262
3265.05962	8.29337
3263.13105	8.29874
3261.20249	8.29429
3259.27393	8.28773
3257.34536	8.27059
3255.41680	8.21774
3253.48823	8.18697
3251.55967	8.28119
3249.63110	8.41001
3247.70254	8.41238
3245.77397	8.35967
3243.84541	8.38958
3241.91685	8.44738
3239.98828	8.41347
3238.05972	8.34638
3236.13115	8.30771
3234.20259	8.20807
3232.27402	8.03788
3230.34546	7.94377
3228.41689	7.99692
3226.48833	8.13285
3224.55977	8.23697
3222.63120	8.26179
3220.70264	8.19246
3218.77407	8.06453
3216.84551	8.00123
3214.91694	8.04967
3212.98838	8.15378
3211.05981	8.19153
3209.13125	8.11568
3207.20269	8.05451
3205.27412	8.02393
3203.34556	7.91877
3201.41699	7.78799
3199.48843	7.73605
3197.55986	7.73934
3195.63130	7.71347
3193.70273	7.64297
3191.77417	7.55630
3189.84561	7.48665
3187.91704	7.45544
3185.98848	7.45759
3184.05991	7.46480
3182.13135	7.42489
3180.20278	7.35098
3178.27422	7.28394
3176.34565	7.20391
3174.41709	7.09708
3172.48853	7.00472
3170.55996	6.96151
3168.63140	6.93613
3166.70283	6.89369
3164.77427	6.83699
3162.84570	6.76689
3160.91714	6.70654
3158.98857	6.66679
3157.06001	6.61076
3155.13145	6.53504
3153.20288	6.46166
3151.27432	6.38398
3149.34575	6.29633
3147.41719	6.20657
3145.48862	6.12485
3143.56006	6.06328
3141.63149	6.01982
3139.70293	5.96922
3137.77437	5.89682
3135.84580	5.81364
3133.91724	5.72824
3131.98867	5.64175
3130.06011	5.56746
3128.13154	5.50703
3126.20298	5.43675
3124.27441	5.35476
3122.34585	5.28066
3120.41729	5.21514
3118.48872	5.14601
3116.56016	5.07139
3114.63159	4.99917
3112.70303	4.93251
3110.77446	4.86421
3108.84590	4.79164
3106.91733	4.72076
3104.98877	4.65373
3103.06021	4.58969
3101.13164	4.52631
3099.20308	4.46008
3097.27451	4.39028
3095.34595	4.32159
3093.41738	4.25570
3091.48882	4.18807
3089.56025	4.12071
3087.63169	4.05727
3085.70312	3.99411
3083.77456	3.92992
3081.84600	3.86833
3079.91743	3.80890
3077.98887	3.74835
3076.06030	3.68613
3074.13174	3.62409
3072.20317	3.56478
3070.27461	3.50856
3068.34604	3.45258
3066.41748	3.39502
3064.48892	3.33784
3062.56035	3.28333
3060.63179	3.23074
3058.70322	3.17637
3056.77466	3.11983
3054.84609	3.06564
3052.91753	3.01522
3050.98896	2.96551
3049.06040	2.91444
3047.13184	2.86358
3045.20327	2.81490
3043.27471	2.76773
3041.34614	2.72082
3039.41758	2.67371
3037.48901	2.62635
3035.56045	2.57936
3033.63188	2.53419
3031.70332	2.49077
3029.77476	2.44729
3027.84619	2.40427
3025.91763	2.36295
3023.98906	2.32225
3022.06050	2.28107
3020.13193	2.23932
3018.20337	2.19789
3016.27480	2.15830
3014.34624	2.12039
3012.41768	2.08274
3010.48911	2.04511
3008.56055	2.00812
3006.63198	1.97148
3004.70342	1.93530
3002.77485	1.90039
3000.84629	1.86626
2998.91772	1.83207
2996.98916	1.79841
2995.06060	1.76571
2993.13203	1.73315
2991.20347	1.70059
2989.27490	1.66886
2987.34634	1.63821
2985.41777	1.60814
2983.48921	1.57869
2981.56064	1.55012
2979.63208	1.52201
2977.70352	1.49411
2975.77495	1.46650
2973.84639	1.43896
2971.91782	1.41195
2969.98926	1.38592
2968.06069	1.36047
2966.13213	1.33561
2964.20356	1.31125
2962.27500	1.28694
2960.34644	1.26297
2958.41787	1.23987
2956.48931	1.21761
2954.56074	1.19585
2952.63218	1.17409
2950.70361	1.15222
2948.77505	1.13084
2946.84648	1.10995
2944.91792	1.08911
2942.98936	1.06863
2941.06079	1.04893
2939.13223	1.02941
2937.20366	1.00988
2935.27510	0.99137
2933.34653	0.97393
2931.41797	0.95669
2929.48940	0.93963
2927.56084	0.92289
2925.63228	0.90631
2923.70371	0.88971
2921.77515	0.87316
2919.84658	0.85719
2917.91802	0.84185
2915.98945	0.82666
2914.06089	0.81107
2912.13232	0.79480
2910.20376	0.77883
2908.27520	0.76432
2906.34663	0.75080
2904.41807	0.73720
2902.48950	0.72369
2900.56094	0.71082
2898.63237	0.69856
2896.70381	0.68677
2894.77524	0.67505
2892.84668	0.66311
2890.91812	0.65117
2888.98955	0.63966
2887.06099	0.62853
2885.13242	0.61747
2883.20386	0.60657
2881.27529	0.59606
2879.34673	0.58588
2877.41816	0.57609
2875.48960	0.56681
2873.56104	0.55768
2871.63247	0.54825
2869.70391	0.53860
2867.77534	0.52901
2865.84678	0.51948
2863.91821	0.51025
2861.98965	0.50194
2860.06108	0.49430
2858.13252	0.48657
2856.20396	0.47861
2854.27539	0.47071
2852.34683	0.46290
2850.41826	0.45495
2848.48970	0.44698
2846.56113	0.43952
2844.63257	0.43272
2842.70400	0.42627
2840.77544	0.41993
2838.84687	0.41375
2836.91831	0.40772
2834.98975	0.40168
2833.06118	0.39576
2831.13262	0.39009
2829.20405	0.38458
2827.27549	0.37894
2825.34692	0.37315
2823.41836	0.36745
2821.48979	0.36191
2819.56123	0.35650
2817.63267	0.35120
2815.70410	0.34591
2813.77554	0.34069
2811.84697	0.33583
2809.91841	0.33113
2807.98984	0.32622
2806.06128	0.32133
2804.13271	0.31664
2802.20415	0.31210
2800.27559	0.30777
2798.34702	0.30351
2796.41846	0.29916
2794.48989	0.29490
2792.56133	0.29082
2790.63276	0.28688
2788.70420	0.28300
2786.77563	0.27908
2784.84707	0.27513
2782.91851	0.27124
2780.98994	0.26760
2779.06138	0.26406
2777.13281	0.26038
2775.20425	0.25679
2773.27568	0.25343
2771.34712	0.25016
2769.41855	0.24704
2767.48999	0.24408
2765.56143	0.24110
2763.63286	0.23809
2761.70430	0.23521
2759.77573	0.23240
2757.84717	0.22959
2755.91860	0.22689
2753.99004	0.22430
2752.06147	0.22156
2750.13291	0.21880
2748.20435	0.21638
2746.27578	0.21404
2744.34722	0.21150
2742.41865	0.20898
2740.49009	0.20663
2738.56152	0.20433
2736.63296	0.20207
2734.70439	0.19990
2732.77583	0.19770
2730.84727	0.19550
2728.91870	0.19345
2726.99014	0.19158
2725.06157	0.18979
2723.13301	0.18802
2721.20444	0.18618
2719.27588	0.18426
2717.34731	0.18249
2715.41875	0.18094
2713.49019	0.17949
2711.56162	0.17796
2709.63306	0.17636
2707.70449	0.17476
2705.77593	0.17321
2703.84736	0.17167
2701.91880	0.17010
2699.99023	0.16851
2698.06167	0.16715
2696.13311	0.16608
2694.20454	0.16500
2692.27598	0.16387
2690.34741	0.16271
2688.41885	0.16153
2686.49028	0.16035
2684.56172	0.15915
2682.63315	0.15799
2680.70459	0.15697
2678.77603	0.15608
2676.84746	0.15523
2674.91890	0.15430
2672.99033	0.15328
2671.06177	0.15234
2669.13320	0.15159
2667.20464	0.15092
2665.27607	0.15023
2663.34751	0.14943
2661.41895	0.14850
2659.49038	0.14761
2657.56182	0.14700
2655.63325	0.14654
2653.70469	0.14593
2651.77612	0.14529
2649.84756	0.14487
2647.91899	0.14446
2645.99043	0.14394
2644.06187	0.14346
2642.13330	0.14303
2640.20474	0.14261
2638.27617	0.14229
2636.34761	0.14199
2634.41904	0.14162
2632.49048	0.14131
2630.56191	0.14107
2628.63335	0.14089
2626.70479	0.14080
2624.77622	0.14063
2622.84766	0.14039
2620.91909	0.14023
2618.99053	0.14002
2617.06196	0.13970
2615.13340	0.13958
2613.20483	0.13964
2611.27627	0.13966
2609.34771	0.13970
2607.41914	0.13968
2605.49058	0.13952
2603.56201	0.13950
2601.63345	0.13970
2599.70488	0.13988
2597.77632	0.13996
2595.84775	0.14005
2593.91919	0.14025
2591.99062	0.14046
2590.06206	0.14065
2588.13350	0.14096
2586.20493	0.14138
2584.27637	0.14181
2582.34780	0.14207
2580.41924	0.14225
2578.49067	0.14250
2576.56211	0.14298
2574.63354	0.14362
2572.70498	0.14409
2570.77642	0.14435
2568.84785	0.14466
2566.91929	0.14501
2564.99072	0.14529
2563.06216	0.14571
2561.13359	0.14641
2559.20503	0.14719
2557.27646	0.14788
2555.34790	0.14840
2553.41934	0.14884
2551.49077	0.14934
2549.56221	0.14997
2547.63364	0.15054
2545.70508	0.15096
2543.77651	0.15149
2541.84795	0.15220
2539.91938	0.15301
2537.99082	0.15387
2536.06226	0.15464
2534.13369	0.15527
2532.20513	0.15584
2530.27656	0.15656
2528.34800	0.15752
2526.41943	0.15849
2524.49087	0.15926
2522.56230	0.15992
2520.63374	0.16069
2518.70518	0.16161
2516.77661	0.16254
2514.84805	0.16339
2512.91948	0.16414
2510.99092	0.16486
2509.06235	0.16565
2507.13379	0.16659
2505.20522	0.16749
2503.27666	0.16827
2501.34810	0.16910
2499.41953	0.17003
2497.49097	0.17092
2495.56240	0.17175
2493.63384	0.17259
2491.70527	0.17345
2489.77671	0.17433
2487.84814	0.17520
2485.91958	0.17604
2483.99102	0.17693
2482.06245	0.17794
2480.13389	0.17900
2478.20532	0.17990
2476.27676	0.18066
2474.34819	0.18153
2472.41963	0.18260
2470.49106	0.18374
2468.56250	0.18477
2466.63394	0.18563
2464.70537	0.18655
2462.77681	0.18767
2460.84824	0.18880
2458.91968	0.18978
2456.99111	0.19070
2455.06255	0.19168
2453.13398	0.19274
2451.20542	0.19390
2449.27686	0.19505
2447.34829	0.19599
2445.41973	0.19679
2443.49116	0.19770
2441.56260	0.19872
2439.63403	0.19980
2437.70547	0.20094
2435.77690	0.20206
2433.84834	0.20312
2431.91978	0.20420
2429.99121	0.20525
2428.06265	0.20628
2426.13408	0.20739
2424.20552	0.20857
2422.27695	0.20968
2420.34839	0.21065
2418.41982	0.21169
2416.49126	0.21298
2414.56270	0.21422
2412.63413	0.21531
2410.70557	0.21637
2408.77700	0.21747
2406.84844	0.21871
2404.91987	0.22005
2402.99131	0.22129
2401.06274	0.22252
2399.13418	0.22375
2397.20562	0.22496
2395.27705	0.22613
2393.34849	0.22731
2391.41992	0.22861
2389.49136	0.23002
2387.56279	0.23152
2385.63423	0.23307
2383.70566	0.23475
2381.77710	0.23669
2379.84854	0.23886
2377.91997	0.24129
2375.99141	0.24413
2374.06284	0.24728
2372.13428	0.25068
2370.20571	0.25445
2368.27715	0.25796
2366.34858	0.26073
2364.42002	0.26304
2362.49146	0.26520
2360.56289	0.26793
2358.63433	0.27073
2356.70576	0.27215
2354.77720	0.27221
2352.84863	0.27150
2350.92007	0.27042
2348.99150	0.26978
2347.06294	0.27041
2345.13437	0.27279
2343.20581	0.27623
2341.27725	0.27930
2339.34868	0.28150
2337.42012	0.28248
2335.49155	0.28304
2333.56299	0.28425
2331.63442	0.28603
2329.70586	0.28751
2327.77729	0.28841
2325.84873	0.28903
2323.92017	0.28965
2321.99160	0.29047
2320.06304	0.29166
2318.13447	0.29300
2316.20591	0.29408
2314.27734	0.29505
2312.34878	0.29636
2310.42021	0.29794
2308.49165	0.29929
2306.56309	0.30029
2304.63452	0.30125
2302.70596	0.30240
2300.77739	0.30386
2298.84883	0.30543
2296.92026	0.30691
2294.99170	0.30847
2293.06313	0.31033
2291.13457	0.31225
2289.20601	0.31393
2287.27744	0.31544
2285.34888	0.31696
2283.42031	0.31870
2281.49175	0.32069
2279.56318	0.32277
2277.63462	0.32490
2275.70605	0.32706
2273.77749	0.32922
2271.84893	0.33137
2269.92036	0.33347
2267.99180	0.33548
2266.06323	0.33741
2264.13467	0.33936
2262.20610	0.34141
2260.27754	0.34348
2258.34897	0.34555
2256.42041	0.34763
2254.49185	0.34973
2252.56328	0.35186
2250.63472	0.35401
2248.70615	0.35619
2246.77759	0.35832
2244.84902	0.36043
2242.92046	0.36258
2240.99189	0.36472
2239.06333	0.36686
2237.13477	0.36917
2235.20620	0.37148
2233.27764	0.37363
2231.34907	0.37577
2229.42051	0.37801
2227.49194	0.38018
2225.56338	0.38222
2223.63481	0.38433
2221.70625	0.38656
2219.77769	0.38881
2217.84912	0.39103
2215.92056	0.39314
2213.99199	0.39512
2212.06343	0.39727
2210.13486	0.39965
2208.20630	0.40195
2206.27773	0.40405
2204.34917	0.40607
2202.42061	0.40806
2200.49204	0.41007
2198.56348	0.41212
2196.63491	0.41409
2194.70635	0.41587
2192.77778	0.41751
2190.84922	0.41926
2188.92065	0.42120
2186.99209	0.42321
2185.06353	0.42516
2183.13496	0.42695
2181.20640	0.42862
2179.27783	0.43022
2177.34927	0.43162
2175.42070	0.43300
2173.49214	0.43461
2171.56357	0.43635
2169.63501	0.43802
2167.70645	0.43954
2165.77788	0.44084
2163.84932	0.44193
2161.92075	0.44302
2159.99219	0.44424
2158.06362	0.44535
2156.13506	0.44615
2154.20649	0.44679
2152.27793	0.44760
2150.34937	0.44858
2148.42080	0.44938
2146.49224	0.44990
2144.56367	0.45033
2142.63511	0.45083
2140.70654	0.45136
2138.77798	0.45175
2136.84941	0.45197
2134.92085	0.45212
2132.99229	0.45219
2131.06372	0.45211
2129.13516	0.45190
2127.20659	0.45166
2125.27803	0.45142
2123.34946	0.45104
2121.42090	0.45050
2119.49233	0.44996
2117.56377	0.44957
2115.63521	0.44913
2113.70664	0.44849
2111.77808	0.44770
2109.84951	0.44676
2107.92095	0.44569
2105.99238	0.44460
2104.06382	0.44361
2102.13525	0.44257
2100.20669	0.44141
2098.27812	0.44011
2096.34956	0.43863
2094.42100	0.43705
2092.49243	0.43547
2090.56387	0.43400
2088.63530	0.43256
2086.70674	0.43096
2084.77817	0.42908
2082.84961	0.42711
2080.92104	0.42522
2078.99248	0.42332
2077.06392	0.42133
2075.13535	0.41927
2073.20679	0.41712
2071.27822	0.41499
2069.34966	0.41296
2067.42109	0.41084
2065.49253	0.40856
2063.56396	0.40626
2061.63540	0.40402
2059.70684	0.40169
2057.77827	0.39919
2055.84971	0.39662
2053.92114	0.39402
2051.99258	0.39145
2050.06401	0.38895
2048.13545	0.38649
2046.20688	0.38399
2044.27832	0.38143
2042.34976	0.37887
2040.42119	0.37624
2038.49263	0.37352
2036.56406	0.37070
2034.63550	0.36786
2032.70693	0.36510
2030.77837	0.36255
2028.84980	0.36001
2026.92124	0.35727
2024.99268	0.35439
2023.06411	0.35164
2021.13555	0.34904
2019.20698	0.34640
2017.27842	0.34362
2015.34985	0.34076
2013.42129	0.33801
2011.49272	0.33539
2009.56416	0.33278
2007.63560	0.33011
2005.70703	0.32743
2003.77847	0.32472
2001.84990	0.32210
1999.92134	0.31966
1997.99277	0.31721
1996.06421	0.31465
1994.13564	0.31213
1992.20708	0.30968
1990.27852	0.30712
1988.34995	0.30460
1986.42139	0.30220
1984.49282	0.29977
1982.56426	0.29729
1980.63569	0.29478
1978.70713	0.29236
1976.77856	0.29016
1974.85000	0.28802
1972.92144	0.28583
1970.99287	0.28371
1969.06431	0.28177
1967.13574	0.27985
1965.20718	0.27779
1963.27861	0.27576
1961.35005	0.27387
1959.42148	0.27202
1957.49292	0.27017
1955.56436	0.26830
1953.63579	0.26646
1951.70723	0.26471
1949.77866	0.26302
1947.85010	0.26137
1945.92153	0.25986
1943.99297	0.25852
1942.06440	0.25719
1940.13584	0.25572
1938.20728	0.25423
1936.27871	0.25282
1934.35015	0.25151
1932.42158	0.25028
1930.49302	0.24902
1928.56445	0.24778
1926.63589	0.24668
1924.70732	0.24585
1922.77876	0.24508
1920.85020	0.24412
1918.92163	0.24317
1916.99307	0.24229
1915.06450	0.24131
1913.13594	0.24034
1911.20737	0.23954
1909.27881	0.23886
1907.35024	0.23822
1905.42168	0.23753
1903.49312	0.23686
1901.56455	0.23632
1899.63599	0.23579
1897.70742	0.23523
1895.77886	0.23478
1893.85029	0.23446
1891.92173	0.23410
1889.99316	0.23384
1888.06460	0.23360
1886.13604	0.23330
1884.20747	0.23302
1882.27891	0.23277
1880.35034	0.23253
1878.42178	0.23234
1876.49321	0.23235
1874.56465	0.23245
1872.63608	0.23261
1870.70752	0.23294
1868.77896	0.23353
1866.85039	0.23383
1864.92183	0.23368
1862.99326	0.23363
1861.06470	0.23382
1859.13613	0.23410
1857.20757	0.23437
1855.27900	0.23476
1853.35044	0.23519
1851.42187	0.23571
1849.49331	0.23632
1847.56475	0.23711
1845.63618	0.23810
1843.70762	0.23914
1841.77905	0.23980
1839.85049	0.24012
1837.92192	0.24073
1835.99336	0.24157
1834.06479	0.24251
1832.13623	0.24357
1830.20767	0.24502
1828.27910	0.24648
1826.35054	0.24758
1824.42197	0.24888
1822.49341	0.25014
1820.56484	0.25130
1818.63628	0.25260
1816.70771	0.25414
1814.77915	0.25566
1812.85059	0.25733
1810.92202	0.25932
1808.99346	0.26136
1807.06489	0.26328
1805.13633	0.26513
1803.20776	0.26725
1801.27920	0.26979
1799.35063	0.27276
1797.42207	0.27543
1795.49351	0.27787
1793.56494	0.28062
1791.63638	0.28416
1789.70781	0.28765
1787.77925	0.29030
1785.85068	0.29335
1783.92212	0.29695
1781.99355	0.30077
1780.06499	0.30483
1778.13643	0.30915
1776.20786	0.31329
1774.27930	0.31769
1772.35073	0.32347
1770.42217	0.32963
1768.49360	0.33488
1766.56504	0.34003
1764.63647	0.34541
1762.70791	0.35133
1760.77935	0.35868
1758.85078	0.36559
1756.92222	0.37263
1754.99365	0.38039
1753.06509	0.38745
1751.13652	0.39579
1749.20796	0.40626
1747.27939	0.41664
1745.35083	0.42571
1743.42227	0.43526
1741.49370	0.44587
1739.56514	0.45844
1737.63657	0.47110
1735.70801	0.48222
1733.77944	0.49884
1731.85088	0.51873
1729.92231	0.53421
1727.99375	0.54958
1726.06519	0.56617
1724.13662	0.58457
1722.20806	0.60460
1720.27949	0.62304
1718.35093	0.64439
1716.42236	0.67581
1714.49380	0.70582
1712.56523	0.73021
1710.63667	0.75382
1708.70811	0.77922
1706.77954	0.80794
1704.85098	0.84185
1702.92241	0.87198
1700.99385	0.90181
1699.06528	0.94592
1697.13672	0.98627
1695.20815	1.02739
1693.27959	1.06705
1691.35103	1.09870
1689.42246	1.13475
1687.49390	1.17237
1685.56533	1.20859
1683.63677	1.26389
1681.70820	1.32068
1679.77964	1.35752
1677.85107	1.39308
1675.92251	1.43372
1673.99395	1.48273
1672.06538	1.52575
1670.13682	1.56810
1668.20825	1.62216
1666.27969	1.66516
1664.35112	1.70116
1662.42256	1.74538
1660.49399	1.79392
1658.56543	1.83182
1656.63687	1.86388
1654.70830	1.89605
1652.77974	1.94928
1650.85117	1.99971
1648.92261	2.02101
1646.99404	2.05024
1645.06548	2.08362
1643.13691	2.10574
1641.20835	2.12020
1639.27979	2.13286
1637.35122	2.14316
1635.42266	2.14893
1633.49409	2.14426
1631.56553	2.13295
1629.63696	2.11980
1627.70840	2.09789
1625.77983	2.07161
1623.85127	2.03664
1621.92271	1.99231
1619.99414	1.95320
1618.06558	1.91449
1616.13701	1.85694
1614.20845	1.79687
1612.27988	1.75135
1610.35132	1.70453
1608.42275	1.65297
1606.49419	1.60080
1604.56562	1.55238
1602.63706	1.50598
1600.70850	1.46046
1598.77993	1.41799
1596.85137	1.37768
1594.92280	1.33841
1592.99424	1.30018
1591.06567	1.26450
1589.13711	1.23067
1587.20854	1.19874
1585.27998	1.16868
1583.35142	1.14029
1581.42285	1.11420
1579.49429	1.09145
1577.56572	1.07027
1575.63716	1.04398
1573.70859	1.02054
1571.78003	1.00475
1569.85146	0.98701
1567.92290	0.96628
1565.99434	0.94979
1564.06577	0.93561
1562.13721	0.92351
1560.20864	0.91278
1558.28008	0.89344
1556.35151	0.87603
1554.42295	0.86585
1552.49438	0.85550
1550.56582	0.84496
1548.63726	0.83433
1546.70869	0.82531
1544.78013	0.81736
1542.85156	0.80934
1540.92300	0.80079
1538.99443	0.78921
1537.06587	0.77997
1535.13730	0.77373
1533.20874	0.76649
1531.28018	0.75861
1529.35161	0.75259
1527.42305	0.74714
1525.49448	0.74153
1523.56592	0.73625
1521.63735	0.73058
1519.70879	0.72429
1517.78022	0.71886
1515.85166	0.71341
1513.92310	0.70825
1511.99453	0.70400
1510.06597	0.70037
1508.13740	0.69732
1506.20884	0.69211
1504.28027	0.68635
1502.35171	0.68274
1500.42314	0.67973
1498.49458	0.67671
1496.56602	0.67317
1494.63745	0.66936
1492.70889	0.66623
1490.78032	0.66364
1488.85176	0.66076
1486.92319	0.65750
1484.99463	0.65434
1483.06606	0.65157
1481.13750	0.64891
1479.20894	0.64616
1477.28037	0.64354
1475.35181	0.64110
1473.42324	0.63859
1471.49468	0.63526
1469.56611	0.63200
1467.63755	0.62944
1465.70898	0.62717
1463.78042	0.62480
1461.85186	0.62254
1459.92329	0.62089
1457.99473	0.61946
1456.06616	0.61681
1454.13760	0.61383
1452.20903	0.61178
1450.28047	0.61015
1448.35190	0.60868
1446.42334	0.60709
1444.49478	0.60534
1442.56621	0.60357
1440.63765	0.60186
1438.70908	0.60049
1436.78052	0.59935
1434.85195	0.59788
1432.92339	0.59618
1430.99482	0.59468
1429.06626	0.59315
1427.13770	0.59156
1425.20913	0.59018
1423.28057	0.58885
1421.35200	0.58757
1419.42344	0.58647
1417.49487	0.58491
1415.56631	0.58281
1413.63774	0.58097
1411.70918	0.57942
1409.78062	0.57800
1407.85205	0.57677
1405.92349	0.57561
1403.99492	0.57430
1402.06636	0.57304
1400.13779	0.57201
1398.20923	0.57100
1396.28066	0.56976
1394.35210	0.56819
1392.42354	0.56669
1390.49497	0.56556
1388.56641	0.56451
1386.63784	0.56332
1384.70928	0.56212
1382.78071	0.56095
1380.85215	0.55970
1378.92358	0.55861
1376.99502	0.55783
1375.06646	0.55717
1373.13789	0.55639
1371.20933	0.55538
1369.28076	0.55430
1367.35220	0.55329
1365.42363	0.55238
1363.49507	0.55161
1361.56650	0.55087
1359.63794	0.55003
1357.70937	0.54927
1355.78081	0.54854
1353.85225	0.54777
1351.92368	0.54699
1349.99512	0.54628
1348.06655	0.54550
1346.13799	0.54455
1344.20942	0.54366
1342.28086	0.54296
1340.35229	0.54224
1338.42373	0.54133
1336.49517	0.54030
1334.56660	0.53929
1332.63804	0.53836
1330.70947	0.53756
1328.78091	0.53686
1326.85234	0.53618
1324.92378	0.53545
1322.99521	0.53473
1321.06665	0.53404
1319.13809	0.53330
1317.20952	0.53252
1315.28096	0.53176
1313.35239	0.53094
1311.42383	0.53010
1309.49526	0.52936
1307.56670	0.52878
1305.63813	0.52825
1303.70957	0.52760
1301.78101	0.52687
1299.85244	0.52617
1297.92388	0.52554
1295.99531	0.52494
1294.06675	0.52428
1292.13818	0.52365
1290.20962	0.52313
1288.28105	0.52269
1286.35249	0.52223
1284.42393	0.52178
1282.49536	0.52138
1280.56680	0.52097
1278.63823	0.52042
1276.70967	0.51982
1274.78110	0.51933
1272.85254	0.51893
1270.92397	0.51851
1268.99541	0.51801
1267.06685	0.51750
1265.13828	0.51701
1263.20972	0.51658
1261.28115	0.51628
1259.35259	0.51597
1257.42402	0.51556
1255.49546	0.51505
1253.56689	0.51463
1251.63833	0.51453
1249.70977	0.51452
1247.78120	0.51431
1245.85264	0.51402
1243.92407	0.51378
1241.99551	0.51343
1240.06694	0.51285
1238.13838	0.51216
1236.20981	0.51160
1234.28125	0.51126
1232.35269	0.51089
1230.42412	0.51032
1228.49556	0.50972
1226.56699	0.50922
1224.63843	0.50877
1222.70986	0.50826
1220.78130	0.50768
1218.85273	0.50711
1216.92417	0.50656
1214.99561	0.50597
1213.06704	0.50539
1211.13848	0.50495
1209.20991	0.50448
1207.28135	0.50383
1205.35278	0.50324
1203.42422	0.50293
1201.49565	0.50260
1199.56709	0.50216
1197.63853	0.50171
1195.70996	0.50121
1193.78140	0.50070
1191.85283	0.50027
1189.92427	0.49998
1187.99570	0.49970
1186.06714	0.49928
1184.13857	0.49902
1182.21001	0.49914
1180.28145	0.49933
1178.35288	0.49948
1176.42432	0.49981
1174.49575	0.50022
1172.56719	0.50048
1170.63862	0.50068
1168.71006	0.50105
1166.78149	0.50141
1164.85293	0.50152
1162.92437	0.50146
1160.99580	0.50139
1159.06724	0.50116
1157.13867	0.50061
1155.21011	0.49976
1153.28154	0.49868
1151.35298	0.49739
1149.42441	0.49593
1147.49585	0.49429
1145.56729	0.49238
1143.63872	0.49002
1141.71016	0.48746
1139.78159	0.48519
1137.85303	0.48319
1135.92446	0.48122
1133.99590	0.47937
1132.06733	0.47755
1130.13877	0.47572
1128.21021	0.47407
1126.28164	0.47272
1124.35308	0.47159
1122.42451	0.47062
1120.49595	0.46990
1118.56738	0.46955
1116.63882	0.46935
1114.71025	0.46930
1112.78169	0.46941
1110.85312	0.46944
1108.92456	0.46961
1106.99600	0.47047
1105.06743	0.47194
1103.13887	0.47353
1101.21030	0.47505
1099.28174	0.47687
1097.35317	0.47943
1095.42461	0.48262
1093.49604	0.48608
1091.56748	0.48978
1089.63892	0.49408
1087.71035	0.49929
1085.78179	0.50531
1083.85322	0.51182
1081.92466	0.51814
1079.99609	0.52332
1078.06753	0.52674
1076.13896	0.52807
1074.21040	0.52700
1072.28184	0.52340
1070.35327	0.51765
1068.42471	0.51084
1066.49614	0.50420
1064.56758	0.49820
1062.63901	0.49281
1060.71045	0.48795
1058.78188	0.48365
1056.85332	0.47994
1054.92476	0.47671
1052.99619	0.47378
1051.06763	0.47120
1049.13906	0.46914
1047.21050	0.46748
1045.28193	0.46587
1043.35337	0.46438
1041.42480	0.46348
1039.49624	0.46316
1037.56768	0.46301
1035.63911	0.46290
1033.71055	0.46303
1031.78198	0.46335
1029.85342	0.46360
1027.92485	0.46395
1025.99629	0.46450
1024.06772	0.46490
1022.13916	0.46536
1020.21060	0.46630
1018.28203	0.46737
1016.35347	0.46836
1014.42490	0.46954
1012.49634	0.47095
1010.56777	0.47243
1008.63921	0.47392
1006.71064	0.47556
1004.78208	0.47746
1002.85352	0.47978
1000.92495	0.48273
998.99639	0.48621
997.06782	0.48982
995.13926	0.49342
993.21069	0.49706
991.28213	0.50056
989.35356	0.50330
987.42500	0.50491
985.49644	0.50579
983.56787	0.50668
981.63931	0.50789
979.71074	0.50946
977.78218	0.51142
975.85361	0.51378
973.92505	0.51658
971.99648	0.51978
970.06792	0.52319
968.13936	0.52694
966.21079	0.53121
964.28223	0.53570
962.35366	0.54050
960.42510	0.54593
958.49653	0.55146
956.56797	0.55673
954.63940	0.56237
952.71084	0.56852
950.78228	0.57461
948.85371	0.58057
946.92515	0.58674
944.99658	0.59303
943.06802	0.59934
941.13945	0.60573
939.21089	0.61182
937.28232	0.61737
935.35376	0.62281
933.42520	0.62818
931.49663	0.63325
929.56807	0.63831
927.63950	0.64390
925.71094	0.64999
923.78237	0.65623
921.85381	0.66291
919.92524	0.67002
917.99668	0.67678
916.06812	0.68340
914.13955	0.69101
912.21099	0.69940
910.28242	0.70736
908.35386	0.71514
906.42529	0.72386
904.49673	0.73305
902.56816	0.74158
900.63960	0.74987
898.71104	0.75875
896.78247	0.76774
894.85391	0.77714
892.92534	0.78797
890.99678	0.79920
889.06821	0.81011
887.13965	0.82112
885.21108	0.83120
883.28252	0.84012
881.35396	0.85021
879.42539	0.86300
877.49683	0.87650
875.56826	0.88814
873.63970	0.89772
871.71113	0.90720
869.78257	0.91873
867.85400	0.93141
865.92544	0.94294
863.99687	0.95365
862.06831	0.96528
860.13975	0.97746
858.21118	0.98844
856.28262	0.99843
854.35405	1.00925
852.42549	1.02095
850.49692	1.03190
848.56836	1.04144
846.63979	1.05052
844.71123	1.06184
842.78267	1.07693
840.85410	1.09283
838.92554	1.10615
836.99697	1.11830
835.06841	1.13138
833.13984	1.14429
831.21128	1.15590
829.28271	1.16493
827.35415	1.16964
825.42559	1.17462
823.49702	1.18436
821.56846	1.19519
819.63989	1.20902
817.71133	1.22917
815.78276	1.25122
813.85420	1.27404
811.92563	1.29629
809.99707	1.30739
808.06851	1.31127
806.13994	1.32319
804.21138	1.33570
802.28281	1.35211
800.35425	1.38787
798.42568	1.42022
796.49712	1.41768
794.56855	1.40454
792.63999	1.41238
790.71143	1.42023
788.78286	1.40473
786.85430	1.38584
784.92573	1.39264
782.99717	1.41381
781.06860	1.43007
779.14004	1.46696
777.21147	1.49978
775.28291	1.51911
773.35435	1.53812
771.42578	1.51947
769.49722	1.46150
767.56865	1.38470
765.64009	1.30409
763.71152	1.27059
761.78296	1.28028
759.85439	1.34102
757.92583	1.46980
755.99727	1.51979
754.06870	1.43699
752.14014	1.35236
750.21157	1.34348
748.28301	1.32595
746.35444	1.30251
744.42588	1.35257
742.49731	1.30753
740.56875	1.09445
738.64019	0.94773
736.71162	0.88623
734.78306	0.85571
732.85449	0.85264
730.92593	0.81281
728.99736	0.74872
727.06880	0.86100
725.14023	0.98875
723.21167	0.77370
721.28311	0.79283
719.35454	0.84008
717.42598	0.34699
715.49741	0.08328
713.56885	0.00450
711.64028	0.01874
709.71172	0.00843
707.78315	-0.00933
705.85459	-0.01651
703.92603	0.01238
701.99746	0.09226
700.06890	0.16545
698.14033	0.18149
696.21177	0.21934
694.28320	0.40347
692.35464	0.61303
690.42607	0.40082
688.49751	0.28485
686.56895	0.27325
684.64038	0.24378
682.71182	0.18383
680.78325	0.18328
678.85469	0.22529
676.92612	0.20644
674.99756	0.14065
673.06899	0.07473
671.14043	0.01566
669.21187	0.01555
667.28330	0.06484
665.35474	0.10080
663.42617	0.09900
661.49761	0.04554
659.56904	0.05229
657.64048	0.14316
655.71191	0.18995
653.78335	0.17118
651.85479	0.15368
649.92622	0.17676
647.99766	0.19532
646.06909	0.14226
644.14053	0.11957
642.21196	0.15458
640.28340	0.15830
638.35483	0.14964
636.42627	0.15512
634.49771	0.11653
632.56914	0.08567
630.64058	0.13755
628.71201	0.19593
626.78345	0.21266
624.85488	0.20614
622.92632	0.13562
620.99775	0.07702
619.06919	0.09585
617.14062	0.13177
615.21206	0.17822
613.28350	0.21382
611.35493	0.24307
609.42637	0.29831
607.49780	0.35920
605.56924	0.41694
603.64067	0.30956
601.71211	0.09271
599.78354	-0.02405
597.85498	-0.03403
595.92642	-0.01311
593.99785	-0.02677
592.06929	0.00827
590.14072	0.08817
588.21216	0.13684
586.28359	0.18144
584.35503	0.27127
582.42646	0.37860
580.49790	0.29791
578.56934	0.18927
576.64077	0.16673
574.71221	0.18946
572.78364	0.25808
570.85508	0.35818
568.92651	0.36085
566.99795	0.26223
565.06938	0.19638
563.14082	0.26724
561.21226	0.35060
559.28369	0.29649
557.35513	0.21736
555.42656	0.19270
553.49800	0.19050
551.56943	0.17917
549.64087	0.19022
547.71230	0.20046
545.78374	0.19161
543.85518	0.22275
541.92661	0.28732
539.99805	0.29392
538.06948	0.26599
536.14092	0.20197
534.21235	0.14211
532.28379	0.14701
530.35522	0.18549
528.42666	0.22414
526.49810	0.22910
524.56953	0.20900
522.64097	0.17402
520.71240	0.12582
518.78384	0.11933
516.85527	0.17178
514.92671	0.21645
512.99814	0.25527
511.06958	0.32814
509.14102	0.33617
507.21245	0.21368
505.28389	0.11692
503.35532	0.08077
501.42676	0.09130
499.49819	0.16996
