3997.91411	0.06812
3995.98555	0.06820
3994.05698	0.06851
3992.12842	0.06903
3990.19985	0.06973
3988.27129	0.07017
3986.34272	0.06995
3984.41416	0.06961
3982.48560	0.06968
3980.55703	0.07022
3978.62847	0.07108
3976.69990	0.07187
3974.77134	0.07231
3972.84277	0.07275
3970.91421	0.07343
3968.98564	0.07379
3967.05708	0.07327
3965.12852	0.07257
3963.19995	0.07297
3961.27139	0.07403
3959.34282	0.07429
3957.41426	0.07367
3955.48569	0.07323
3953.55713	0.07352
3951.62856	0.07430
3949.70000	0.07499
3947.77144	0.07525
3945.84287	0.07524
3943.91431	0.07545
3941.98574	0.07550
3940.05718	0.07453
3938.12861	0.07360
3936.20005	0.07362
3934.27148	0.07433
3932.34292	0.07583
3930.41436	0.07703
3928.48579	0.07648
3926.55723	0.07553
3924.62866	0.07549
3922.70010	0.07532
3920.77153	0.07493
3918.84297	0.07584
3916.91440	0.07710
3914.98584	0.07645
3913.05728	0.07456
3911.12871	0.07331
3909.20015	0.07322
3907.27158	0.07459
3905.34302	0.07767
3903.41445	0.08120
3901.48589	0.08268
3899.55732	0.08141
3897.62876	0.07872
3895.70020	0.07655
3893.77163	0.07637
3891.84307	0.07784
3889.91450	0.07804
3887.98594	0.07667
3886.05737	0.07735
3884.12881	0.07954
3882.20024	0.08024
3880.27168	0.08005
3878.34312	0.07880
3876.41455	0.07733
3874.48599	0.07827
3872.55742	0.08088
3870.62886	0.08302
3868.70029	0.08399
3866.77173	0.08348
3864.84316	0.08367
3862.91460	0.08443
3860.98604	0.08314
3859.05747	0.08153
3857.12891	0.08215
3855.20034	0.08518
3853.27178	0.08999
3851.34321	0.09132
3849.41465	0.08699
3847.48608	0.08334
3845.55752	0.08265
3843.62896	0.08482
3841.70039	0.08832
3839.77183	0.09184
3837.84326	0.09458
3835.91470	0.09421
3833.98613	0.09192
3832.05757	0.09070
3830.12900	0.09021
3828.20044	0.08984
3826.27187	0.09047
3824.34331	0.09215
3822.41475	0.09500
3820.48618	0.09934
3818.55762	0.10126
3816.62905	0.10027
3814.70049	0.09869
3812.77192	0.09633
3810.84336	0.09482
3808.91479	0.09582
3806.98623	0.09955
3805.05767	0.10341
3803.12910	0.10592
3801.20054	0.10914
3799.27197	0.11055
3797.34341	0.10889
3795.41484	0.10709
3793.48628	0.10554
3791.55771	0.10490
3789.62915	0.10564
3787.70059	0.10725
3785.77202	0.10953
3783.84346	0.11179
3781.91489	0.11338
3779.98633	0.11539
3778.05776	0.11755
3776.12920	0.11801
3774.20063	0.11825
3772.27207	0.12007
3770.34351	0.12356
3768.41494	0.12739
3766.48638	0.12983
3764.55781	0.13130
3762.62925	0.13231
3760.70068	0.13437
3758.77212	0.13854
3756.84355	0.14248
3754.91499	0.14498
3752.98643	0.14870
3751.05786	0.15535
3749.12930	0.16134
3747.20073	0.16259
3745.27217	0.16344
3743.34360	0.16664
3741.41504	0.16972
3739.48647	0.17231
3737.55791	0.17724
3735.62935	0.18594
3733.70078	0.19455
3731.77222	0.19727
3729.84365	0.19755
3727.91509	0.19994
3725.98652	0.20571
3724.05796	0.21305
3722.12939	0.21944
3720.20083	0.22507
3718.27227	0.23046
3716.34370	0.23597
3714.41514	0.24284
3712.48657	0.25417
3710.55801	0.27104
3708.62944	0.28569
3706.70088	0.29471
3704.77231	0.30376
3702.84375	0.31642
3700.91519	0.33346
3698.98662	0.35146
3697.05806	0.36863
3695.12949	0.38723
3693.20093	0.40747
3691.27236	0.43075
3689.34380	0.46078
3687.41523	0.49424
3685.48667	0.52139
3683.55811	0.54525
3681.62954	0.57247
3679.70098	0.60502
3677.77241	0.64111
3675.84385	0.68415
3673.91528	0.73784
3671.98672	0.77903
3670.05815	0.81672
3668.12959	0.86891
3666.20103	0.91510
3664.27246	0.95365
3662.34390	0.99604
3660.41533	1.04266
3658.48677	1.08956
3656.55820	1.14048
3654.62964	1.19713
3652.70107	1.24462
3650.77251	1.28764
3648.84395	1.34765
3646.91538	1.41633
3644.98682	1.46257
3643.05825	1.49834
3641.12969	1.53741
3639.20112	1.58184
3637.27256	1.62656
3635.34399	1.67001
3633.41543	1.71422
3631.48687	1.75673
3629.55830	1.80051
3627.62974	1.85651
3625.70117	1.90617
3623.77261	1.93835
3621.84404	1.97040
3619.91548	2.00984
3617.98691	2.05807
3616.05835	2.10238
3614.12979	2.13857
3612.20122	2.17725
3610.27266	2.21644
3608.34409	2.25584
3606.41553	2.29798
3604.48696	2.33723
3602.55840	2.37193
3600.62983	2.40912
3598.70127	2.44982
3596.77271	2.49018
3594.84414	2.53180
3592.91558	2.57474
3590.98701	2.61358
3589.05845	2.64788
3587.12988	2.68921
3585.20132	2.73771
3583.27275	2.77999
3581.34419	2.81805
3579.41562	2.85804
3577.48706	2.90048
3575.55850	2.94313
3573.62993	2.98547
3571.70137	3.02691
3569.77280	3.06789
3567.84424	3.11189
3565.91567	3.16505
3563.98711	3.21501
3562.05854	3.25501
3560.12998	3.29571
3558.20142	3.33853
3556.27285	3.38183
3554.34429	3.42636
3552.41572	3.47389
3550.48716	3.52185
3548.55859	3.56794
3546.63003	3.61462
3544.70146	3.66375
3542.77290	3.71144
3540.84434	3.75524
3538.91577	3.79800
3536.98721	3.84374
3535.05864	3.89531
3533.13008	3.94629
3531.20151	3.99306
3529.27295	4.03948
3527.34438	4.08843
3525.41582	4.13826
3523.48726	4.18816
3521.55869	4.23791
3519.63013	4.28347
3517.70156	4.32707
3515.77300	4.37227
3513.84443	4.41888
3511.91587	4.46475
3509.98730	4.51041
3508.05874	4.55905
3506.13018	4.60790
3504.20161	4.65423
3502.27305	4.70293
3500.34448	4.75390
3498.41592	4.80065
3496.48735	4.84478
3494.55879	4.89399
3492.63022	4.94965
3490.70166	5.00213
3488.77310	5.04957
3486.84453	5.09595
3484.91597	5.13934
3482.98740	5.18213
3481.05884	5.22703
3479.13027	5.27472
3477.20171	5.32839
3475.27314	5.38059
3473.34458	5.42263
3471.41602	5.46542
3469.48745	5.51544
3467.55889	5.56134
3465.63032	5.60925
3463.70176	5.67128
3461.77319	5.72745
3459.84463	5.76633
3457.91606	5.80238
3455.98750	5.84591
3454.05894	5.89877
3452.13037	5.95935
3450.20181	6.02310
3448.27324	6.07813
3446.34468	6.12009
3444.41611	6.16070
3442.48755	6.20887
3440.55898	6.25003
3438.63042	6.28459
3436.70186	6.32206
3434.77329	6.35871
3432.84473	6.41208
3430.91616	6.49248
3428.98760	6.56511
3427.05903	6.60017
3425.13047	6.64015
3423.20190	6.71586
3421.27334	6.79713
3419.34478	6.84357
3417.41621	6.85948
3415.48765	6.88312
3413.55908	6.91428
3411.63052	6.94732
3409.70195	7.00971
3407.77339	7.11119
3405.84482	7.18657
3403.91626	7.21903
3401.98770	7.26514
3400.05913	7.31388
3398.13057	7.31801
3396.20200	7.30972
3394.27344	7.33947
3392.34487	7.35905
3390.41631	7.35024
3388.48774	7.36168
3386.55918	7.44073
3384.63062	7.55064
3382.70205	7.58982
3380.77349	7.58894
3378.84492	7.62016
3376.91636	7.68050
3374.98779	7.75326
3373.05923	7.83011
3371.13066	7.85977
3369.20210	7.84256
3367.27354	7.82508
3365.34497	7.79977
3363.41641	7.75647
3361.48784	7.72478
3359.55928	7.73679
3357.63071	7.79033
3355.70215	7.87351
3353.77358	7.95478
3351.84502	8.02944
3349.91646	8.05003
3347.98789	7.97662
3346.05933	7.91204
3344.13076	7.92482
3342.20220	7.99323
3340.27363	8.05294
3338.34507	8.05176
3336.41650	8.01333
3334.48794	7.99052
3332.55937	8.00638
3330.63081	8.07419
3328.70225	8.11527
3326.77368	8.06610
3324.84512	8.00514
3322.91655	7.99651
3320.98799	8.04971
3319.05942	8.13080
3317.13086	8.19818
3315.20229	8.18061
3313.27373	8.08800
3311.34517	8.03714
3309.41660	8.07498
3307.48804	8.09934
3305.55947	8.02817
3303.63091	7.96687
3301.70234	7.96750
3299.77378	8.00135
3297.84521	8.04332
3295.91665	8.11403
3293.98809	8.21530
3292.05952	8.22349
3290.13096	8.12119
3288.20239	8.07541
3286.27383	8.15922
3284.34526	8.26910
3282.41670	8.28211
3280.48813	8.20946
3278.55957	8.14969
3276.63101	8.13869
3274.70244	8.15148
3272.77388	8.20105
3270.84531	8.28615
3268.91675	8.30158
3266.98818	8.24098
3265.05962	8.19829
3263.13105	8.13459
3261.20249	8.08255
3259.27393	8.11094
3257.34536	8.12990
3255.41680	8.10034
3253.48823	8.12747
3251.55967	8.16959
3249.63110	8.12192
3247.70254	8.07275
3245.77397	8.06567
3243.84541	8.06958
3241.91685	8.10489
3239.98828	8.16828
3238.05972	8.18853
3236.13115	8.14347
3234.20259	8.09136
3232.27402	8.05147
3230.34546	8.04437
3228.41689	8.08179
3226.48833	8.08596
3224.55977	8.03764
3222.63120	8.02974
3220.70264	8.05302
3218.77407	8.03191
3216.84551	7.98614
3214.91694	7.98307
3212.98838	8.00873
3211.05981	7.96015
3209.13125	7.82975
3207.20269	7.74187
3205.27412	7.74575
3203.34556	7.78123
3201.41699	7.80220
3199.48843	7.78865
3197.55986	7.73269
3195.63130	7.66690
3193.70273	7.62238
3191.77417	7.58663
3189.84561	7.52952
3187.91704	7.43978
3185.98848	7.33608
3184.05991	7.26257
3182.13135	7.22227
3180.20278	7.18183
3178.27422	7.13153
3176.34565	7.08285
3174.41709	7.04392
3172.48853	6.99831
3170.55996	6.93164
3168.63140	6.86425
3166.70283	6.81822
3164.77427	6.78549
3162.84570	6.74254
3160.91714	6.67511
3158.98857	6.59852
3157.06001	6.53280
3155.13145	6.46606
3153.20288	6.37964
3151.27432	6.28526
3149.34575	6.21056
3147.41719	6.15871
3145.48862	6.10654
3143.56006	6.03901
3141.63149	5.96656
3139.70293	5.90097
3137.77437	5.83310
3135.84580	5.75780
3133.91724	5.68489
3131.98867	5.61128
3130.06011	5.53098
3128.13154	5.45659
3126.20298	5.40007
3124.27441	5.34702
3122.34585	5.27661
3120.41729	5.19665
3118.48872	5.12355
3116.56016	5.06093
3114.63159	4.99909
3112.70303	4.92756
3110.77446	4.85449
3108.84590	4.78752
3106.91733	4.71833
3104.98877	4.64565
3103.06021	4.58022
3101.13164	4.52058
3099.20308	4.45746
3097.27451	4.39256
3095.34595	4.32983
3093.41738	4.26461
3091.48882	4.19527
3089.56025	4.13023
3087.63169	4.07191
3085.70312	4.01436
3083.77456	3.95564
3081.84600	3.89622
3079.91743	3.83471
3077.98887	3.77256
3076.06030	3.71427
3074.13174	3.66060
3072.20317	3.60759
3070.27461	3.55195
3068.34604	3.49393
3066.41748	3.43615
3064.48892	3.38033
3062.56035	3.32621
3060.63179	3.27383
3058.70322	3.22225
3056.77466	3.17036
3054.84609	3.11927
3052.91753	3.06921
3050.98896	3.01914
3049.06040	2.96924
3047.13184	2.91998
3045.20327	2.87071
3043.27471	2.82233
3041.34614	2.77616
3039.41758	2.73015
3037.48901	2.68351
3035.56045	2.63827
3033.63188	2.59426
3031.70332	2.55022
3029.77476	2.50650
3027.84619	2.46399
3025.91763	2.42286
3023.98906	2.38192
3022.06050	2.34032
3020.13193	2.29913
3018.20337	2.25893
3016.27480	2.21933
3014.34624	2.18128
3012.41768	2.14469
3010.48911	2.10758
3008.56055	2.07033
3006.63198	2.03429
3004.70342	1.99901
3002.77485	1.96442
3000.84629	1.93096
2998.91772	1.89817
2996.98916	1.86594
2995.06060	1.83477
2993.13203	1.80462
2991.20347	1.77523
2989.27490	1.74651
2987.34634	1.71850
2985.41777	1.69102
2983.48921	1.66367
2981.56064	1.63653
2979.63208	1.61005
2977.70352	1.58459
2975.77495	1.56033
2973.84639	1.53681
2971.91782	1.51351
2969.98926	1.49050
2968.06069	1.46789
2966.13213	1.44535
2964.20356	1.42240
2962.27500	1.39929
2960.34644	1.37641
2958.41787	1.35335
2956.48931	1.33039
2954.56074	1.30783
2952.63218	1.28505
2950.70361	1.26242
2948.77505	1.24046
2946.84648	1.21842
2944.91792	1.19678
2942.98936	1.17666
2941.06079	1.15779
2939.13223	1.13928
2937.20366	1.12051
2935.27510	1.10126
2933.34653	1.08195
2931.41797	1.06272
2929.48940	1.04349
2927.56084	1.02480
2925.63228	1.00685
2923.70371	0.98917
2921.77515	0.97138
2919.84658	0.95338
2917.91802	0.93579
2915.98945	0.91902
2914.06089	0.90235
2912.13232	0.88573
2910.20376	0.87001
2908.27520	0.85506
2906.34663	0.84013
2904.41807	0.82516
2902.48950	0.81056
2900.56094	0.79657
2898.63237	0.78305
2896.70381	0.76986
2894.77524	0.75704
2892.84668	0.74449
2890.91812	0.73221
2888.98955	0.72056
2887.06099	0.70974
2885.13242	0.69951
2883.20386	0.68960
2881.27529	0.67996
2879.34673	0.67066
2877.41816	0.66152
2875.48960	0.65203
2873.56104	0.64214
2871.63247	0.63184
2869.70391	0.62086
2867.77534	0.60936
2865.84678	0.59763
2863.91821	0.58570
2861.98965	0.57404
2860.06108	0.56330
2858.13252	0.55321
2856.20396	0.54334
2854.27539	0.53374
2852.34683	0.52450
2850.41826	0.51560
2848.48970	0.50685
2846.56113	0.49851
2844.63257	0.49100
2842.70400	0.48395
2840.77544	0.47692
2838.84687	0.47005
2836.91831	0.46346
2834.98975	0.45708
2833.06118	0.45093
2831.13262	0.44489
2829.20405	0.43880
2827.27549	0.43267
2825.34692	0.42660
2823.41836	0.42055
2821.48979	0.41453
2819.56123	0.40872
2817.63267	0.40302
2815.70410	0.39731
2813.77554	0.39173
2811.84697	0.38631
2809.91841	0.38086
2807.98984	0.37541
2806.06128	0.37013
2804.13271	0.36497
2802.20415	0.35982
2800.27559	0.35474
2798.34702	0.34979
2796.41846	0.34489
2794.48989	0.34008
2792.56133	0.33535
2790.63276	0.33064
2788.70420	0.32612
2786.77563	0.32186
2784.84707	0.31760
2782.91851	0.31333
2780.98994	0.30921
2779.06138	0.30523
2777.13281	0.30123
2775.20425	0.29717
2773.27568	0.29325
2771.34712	0.28958
2769.41855	0.28606
2767.48999	0.28247
2765.56143	0.27881
2763.63286	0.27518
2761.70430	0.27167
2759.77573	0.26841
2757.84717	0.26530
2755.91860	0.26214
2753.99004	0.25898
2752.06147	0.25583
2750.13291	0.25268
2748.20435	0.24969
2746.27578	0.24695
2744.34722	0.24433
2742.41865	0.24162
2740.49009	0.23891
2738.56152	0.23630
2736.63296	0.23378
2734.70439	0.23137
2732.77583	0.22899
2730.84727	0.22656
2728.91870	0.22412
2726.99014	0.22173
2725.06157	0.21941
2723.13301	0.21719
2721.20444	0.21503
2719.27588	0.21299
2717.34731	0.21110
2715.41875	0.20926
2713.49019	0.20748
2711.56162	0.20567
2709.63306	0.20365
2707.70449	0.20163
2705.77593	0.19993
2703.84736	0.19833
2701.91880	0.19667
2699.99023	0.19510
2698.06167	0.19374
2696.13311	0.19250
2694.20454	0.19113
2692.27598	0.18959
2690.34741	0.18815
2688.41885	0.18687
2686.49028	0.18551
2684.56172	0.18413
2682.63315	0.18294
2680.70459	0.18171
2678.77603	0.18039
2676.84746	0.17925
2674.91890	0.17836
2672.99033	0.17742
2671.06177	0.17629
2669.13320	0.17509
2667.20464	0.17402
2665.27607	0.17300
2663.34751	0.17194
2661.41895	0.17099
2659.49038	0.17022
2657.56182	0.16940
2655.63325	0.16845
2653.70469	0.16764
2651.77612	0.16700
2649.84756	0.16632
2647.91899	0.16546
2645.99043	0.16466
2644.06187	0.16409
2642.13330	0.16359
2640.20474	0.16309
2638.27617	0.16255
2636.34761	0.16199
2634.41904	0.16151
2632.49048	0.16096
2630.56191	0.16029
2628.63335	0.15970
2626.70479	0.15929
2624.77622	0.15896
2622.84766	0.15866
2620.91909	0.15840
2618.99053	0.15818
2617.06196	0.15791
2615.13340	0.15760
2613.20483	0.15730
2611.27627	0.15706
2609.34771	0.15697
2607.41914	0.15701
2605.49058	0.15697
2603.56201	0.15676
2601.63345	0.15658
2599.70488	0.15648
2597.77632	0.15641
2595.84775	0.15637
2593.91919	0.15634
2591.99062	0.15637
2590.06206	0.15638
2588.13350	0.15635
2586.20493	0.15640
2584.27637	0.15655
2582.34780	0.15675
2580.41924	0.15700
2578.49067	0.15721
2576.56211	0.15738
2574.63354	0.15761
2572.70498	0.15790
2570.77642	0.15820
2568.84785	0.15853
2566.91929	0.15879
2564.99072	0.15892
2563.06216	0.15910
2561.13359	0.15960
2559.20503	0.16034
2557.27646	0.16095
2555.34790	0.16134
2553.41934	0.16168
2551.49077	0.16214
2549.56221	0.16267
2547.63364	0.16314
2545.70508	0.16362
2543.77651	0.16416
2541.84795	0.16467
2539.91938	0.16509
2537.99082	0.16555
2536.06226	0.16604
2534.13369	0.16657
2532.20513	0.16718
2530.27656	0.16781
2528.34800	0.16847
2526.41943	0.16923
2524.49087	0.17003
2522.56230	0.17074
2520.63374	0.17138
2518.70518	0.17204
2516.77661	0.17278
2514.84805	0.17350
2512.91948	0.17412
2510.99092	0.17468
2509.06235	0.17526
2507.13379	0.17592
2505.20522	0.17674
2503.27666	0.17759
2501.34810	0.17832
2499.41953	0.17902
2497.49097	0.17976
2495.56240	0.18050
2493.63384	0.18120
2491.70527	0.18194
2489.77671	0.18275
2487.84814	0.18368
2485.91958	0.18466
2483.99102	0.18548
2482.06245	0.18611
2480.13389	0.18678
2478.20532	0.18770
2476.27676	0.18874
2474.34819	0.18958
2472.41963	0.19023
2470.49106	0.19092
2468.56250	0.19173
2466.63394	0.19270
2464.70537	0.19365
2462.77681	0.19448
2460.84824	0.19538
2458.91968	0.19635
2456.99111	0.19722
2455.06255	0.19807
2453.13398	0.19893
2451.20542	0.19982
2449.27686	0.20077
2447.34829	0.20169
2445.41973	0.20256
2443.49116	0.20342
2441.56260	0.20431
2439.63403	0.20536
2437.70547	0.20644
2435.77690	0.20733
2433.84834	0.20815
2431.91978	0.20911
2429.99121	0.21014
2428.06265	0.21115
2426.13408	0.21224
2424.20552	0.21339
2422.27695	0.21443
2420.34839	0.21536
2418.41982	0.21638
2416.49126	0.21761
2414.56270	0.21887
2412.63413	0.21995
2410.70557	0.22088
2408.77700	0.22185
2406.84844	0.22293
2404.91987	0.22406
2402.99131	0.22518
2401.06274	0.22637
2399.13418	0.22763
2397.20562	0.22889
2395.27705	0.23015
2393.34849	0.23140
2391.41992	0.23265
2389.49136	0.23396
2387.56279	0.23563
2385.63423	0.23802
2383.70566	0.24130
2381.77710	0.24551
2379.84854	0.25049
2377.91997	0.25595
2375.99141	0.26216
2374.06284	0.26966
2372.13428	0.27827
2370.20571	0.28712
2368.27715	0.29512
2366.34858	0.30259
2364.42002	0.31046
2362.49146	0.31786
2360.56289	0.32324
2358.63433	0.32519
2356.70576	0.32256
2354.77720	0.31648
2352.84863	0.30930
2350.92007	0.30226
2348.99150	0.29819
2347.06294	0.29928
2345.13437	0.30611
2343.20581	0.31540
2341.27725	0.32066
2339.34868	0.32156
2337.42012	0.32149
2335.49155	0.32173
2333.56299	0.32129
2331.63442	0.32104
2329.70586	0.32198
2327.77729	0.32243
2325.84873	0.32142
2323.92017	0.31980
2321.99160	0.31776
2320.06304	0.31562
2318.13447	0.31401
2316.20591	0.31297
2314.27734	0.31261
2312.34878	0.31292
2310.42021	0.31326
2308.49165	0.31312
2306.56309	0.31259
2304.63452	0.31216
2302.70596	0.31235
2300.77739	0.31312
2298.84883	0.31389
2296.92026	0.31458
2294.99170	0.31544
2293.06313	0.31635
2291.13457	0.31730
2289.20601	0.31852
2287.27744	0.31981
2285.34888	0.32096
2283.42031	0.32218
2281.49175	0.32383
2279.56318	0.32592
2277.63462	0.32804
2275.70605	0.33013
2273.77749	0.33230
2271.84893	0.33435
2269.92036	0.33622
2267.99180	0.33820
2266.06323	0.34030
2264.13467	0.34221
2262.20610	0.34403
2260.27754	0.34601
2258.34897	0.34803
2256.42041	0.34994
2254.49185	0.35186
2252.56328	0.35382
2250.63472	0.35582
2248.70615	0.35785
2246.77759	0.35991
2244.84902	0.36208
2242.92046	0.36435
2240.99189	0.36650
2239.06333	0.36845
2237.13477	0.37045
2235.20620	0.37261
2233.27764	0.37485
2231.34907	0.37706
2229.42051	0.37924
2227.49194	0.38142
2225.56338	0.38363
2223.63481	0.38584
2221.70625	0.38794
2219.77769	0.38990
2217.84912	0.39186
2215.92056	0.39395
2213.99199	0.39610
2212.06343	0.39825
2210.13486	0.40045
2208.20630	0.40264
2206.27773	0.40471
2204.34917	0.40668
2202.42061	0.40866
2200.49204	0.41071
2198.56348	0.41278
2196.63491	0.41473
2194.70635	0.41657
2192.77778	0.41840
2190.84922	0.42029
2188.92065	0.42214
2186.99209	0.42389
2185.06353	0.42562
2183.13496	0.42735
2181.20640	0.42908
2179.27783	0.43066
2177.34927	0.43207
2175.42070	0.43347
2173.49214	0.43492
2171.56357	0.43636
2169.63501	0.43773
2167.70645	0.43904
2165.77788	0.44037
2163.84932	0.44176
2161.92075	0.44307
2159.99219	0.44423
2158.06362	0.44528
2156.13506	0.44621
2154.20649	0.44705
2152.27793	0.44788
2150.34937	0.44868
2148.42080	0.44941
2146.49224	0.44998
2144.56367	0.45043
2142.63511	0.45087
2140.70654	0.45124
2138.77798	0.45152
2136.84941	0.45172
2134.92085	0.45184
2132.99229	0.45189
2131.06372	0.45189
2129.13516	0.45183
2127.20659	0.45173
2125.27803	0.45153
2123.34946	0.45115
2121.42090	0.45069
2119.49233	0.45019
2117.56377	0.44954
2115.63521	0.44880
2113.70664	0.44810
2111.77808	0.44745
2109.84951	0.44674
2107.92095	0.44585
2105.99238	0.44479
2104.06382	0.44370
2102.13525	0.44249
2100.20669	0.44120
2098.27812	0.43983
2096.34956	0.43841
2094.42100	0.43703
2092.49243	0.43557
2090.56387	0.43390
2088.63530	0.43217
2086.70674	0.43042
2084.77817	0.42865
2082.84961	0.42687
2080.92104	0.42505
2078.99248	0.42318
2077.06392	0.42115
2075.13535	0.41893
2073.20679	0.41682
2071.27822	0.41481
2069.34966	0.41264
2067.42109	0.41033
2065.49253	0.40814
2063.56396	0.40604
2061.63540	0.40376
2059.70684	0.40120
2057.77827	0.39853
2055.84971	0.39597
2053.92114	0.39344
2051.99258	0.39093
2050.06401	0.38846
2048.13545	0.38600
2046.20688	0.38347
2044.27832	0.38096
2042.34976	0.37856
2040.42119	0.37611
2038.49263	0.37336
2036.56406	0.37044
2034.63550	0.36764
2032.70693	0.36494
2030.77837	0.36230
2028.84980	0.35965
2026.92124	0.35699
2024.99268	0.35434
2023.06411	0.35160
2021.13555	0.34883
2019.20698	0.34632
2017.27842	0.34396
2015.34985	0.34125
2013.42129	0.33827
2011.49272	0.33535
2009.56416	0.33260
2007.63560	0.33000
2005.70703	0.32738
2003.77847	0.32469
2001.84990	0.32206
1999.92134	0.31956
1997.99277	0.31706
1996.06421	0.31459
1994.13564	0.31236
1992.20708	0.31030
1990.27852	0.30785
1988.34995	0.30499
1986.42139	0.30231
1984.49282	0.29994
1982.56426	0.29766
1980.63569	0.29538
1978.70713	0.29315
1976.77856	0.29096
1974.85000	0.28879
1972.92144	0.28661
1970.99287	0.28455
1969.06431	0.28280
1967.13574	0.28111
1965.20718	0.27895
1963.27861	0.27661
1961.35005	0.27459
1959.42148	0.27274
1957.49292	0.27090
1955.56436	0.26907
1953.63579	0.26724
1951.70723	0.26546
1949.77866	0.26386
1947.85010	0.26244
1945.92153	0.26120
1943.99297	0.26012
1942.06440	0.25889
1940.13584	0.25715
1938.20728	0.25531
1936.27871	0.25380
1934.35015	0.25249
1932.42158	0.25123
1930.49302	0.24998
1928.56445	0.24871
1926.63589	0.24760
1924.70732	0.24702
1922.77876	0.24663
1920.85020	0.24581
1918.92163	0.24485
1916.99307	0.24385
1915.06450	0.24254
1913.13594	0.24135
1911.20737	0.24073
1909.27881	0.24032
1907.35024	0.23956
1905.42168	0.23860
1903.49312	0.23787
1901.56455	0.23731
1899.63599	0.23673
1897.70742	0.23634
1895.77886	0.23619
1893.85029	0.23592
1891.92173	0.23558
1889.99316	0.23560
1888.06460	0.23536
1886.13604	0.23472
1884.20747	0.23429
1882.27891	0.23406
1880.35034	0.23391
1878.42178	0.23383
1876.49321	0.23381
1874.56465	0.23376
1872.63608	0.23396
1870.70752	0.23486
1868.77896	0.23634
1866.85039	0.23663
1864.92183	0.23559
1862.99326	0.23490
1861.06470	0.23491
1859.13613	0.23520
1857.20757	0.23544
1855.27900	0.23574
1853.35044	0.23614
1851.42187	0.23674
1849.49331	0.23767
1847.56475	0.23895
1845.63618	0.24051
1843.70762	0.24186
1841.77905	0.24206
1839.85049	0.24176
1837.92192	0.24217
1835.99336	0.24299
1834.06479	0.24393
1832.13623	0.24535
1830.20767	0.24754
1828.27910	0.24922
1826.35054	0.24992
1824.42197	0.25084
1822.49341	0.25158
1820.56484	0.25222
1818.63628	0.25328
1816.70771	0.25486
1814.77915	0.25661
1812.85059	0.25869
1810.92202	0.26113
1808.99346	0.26320
1807.06489	0.26476
1805.13633	0.26643
1803.20776	0.26884
1801.27920	0.27185
1799.35063	0.27486
1797.42207	0.27721
1795.49351	0.27959
1793.56494	0.28294
1791.63638	0.28701
1789.70781	0.28967
1787.77925	0.29124
1785.85068	0.29402
1783.92212	0.29777
1781.99355	0.30184
1780.06499	0.30611
1778.13643	0.31033
1776.20786	0.31448
1774.27930	0.31953
1772.35073	0.32627
1770.42217	0.33234
1768.49360	0.33645
1766.56504	0.34056
1764.63647	0.34540
1762.70791	0.35144
1760.77935	0.35914
1758.85078	0.36603
1756.92222	0.37279
1754.99365	0.38007
1753.06509	0.38704
1751.13652	0.39618
1749.20796	0.40759
1747.27939	0.41779
1745.35083	0.42615
1743.42227	0.43529
1741.49370	0.44581
1739.56514	0.45825
1737.63657	0.47039
1735.70801	0.48122
1733.77944	0.49813
1731.85088	0.51754
1729.92231	0.53185
1727.99375	0.54614
1726.06519	0.56197
1724.13662	0.57998
1722.20806	0.59986
1720.27949	0.61870
1718.35093	0.64147
1716.42236	0.67409
1714.49380	0.70302
1712.56523	0.72583
1710.63667	0.74882
1708.70811	0.77454
1706.77954	0.80426
1704.85098	0.83956
1702.92241	0.87096
1700.99385	0.90274
1699.06528	0.95021
1697.13672	0.99342
1695.20815	1.03716
1693.27959	1.07948
1691.35103	1.11483
1689.42246	1.15724
1687.49390	1.20259
1685.56533	1.24697
1683.63677	1.31449
1681.70820	1.38215
1679.77964	1.42488
1677.85107	1.46655
1675.92251	1.51584
1673.99395	1.57771
1672.06538	1.63270
1670.13682	1.68671
1668.20825	1.75743
1666.27969	1.81585
1664.35112	1.86700
1662.42256	1.93291
1660.49399	2.00736
1658.56543	2.06565
1656.63687	2.11354
1654.70830	2.15782
1652.77974	2.22208
1650.85117	2.27899
1648.92261	2.29912
1646.99404	2.32314
1645.06548	2.34465
1643.13691	2.35791
1641.20835	2.36603
1639.27979	2.37386
1637.35122	2.37816
1635.42266	2.37510
1633.49409	2.36309
1631.56553	2.34738
1629.63696	2.32994
1627.70840	2.29933
1625.77983	2.26223
1623.85127	2.21681
1621.92271	2.16054
1619.99414	2.11010
1618.06558	2.06213
1616.13701	1.99356
1614.20845	1.92368
1612.27988	1.87130
1610.35132	1.81762
1608.42275	1.76032
1606.49419	1.70427
1604.56562	1.65236
1602.63706	1.60243
1600.70850	1.55394
1598.77993	1.50917
1596.85137	1.46744
1594.92280	1.42726
1592.99424	1.38850
1591.06567	1.35307
1589.13711	1.32039
1587.20854	1.29078
1585.27998	1.26407
1583.35142	1.23955
1581.42285	1.21764
1579.49429	1.19969
1577.56572	1.18470
1575.63716	1.16676
1573.70859	1.15033
1571.78003	1.14034
1569.85146	1.13196
1567.92290	1.12288
1565.99434	1.11597
1564.06577	1.11210
1562.13721	1.11090
1560.20864	1.11397
1558.28008	1.12472
1556.35151	1.13246
1554.42295	1.13520
1552.49438	1.13820
1550.56582	1.13982
1548.63726	1.13883
1546.70869	1.13511
1544.78013	1.12808
1542.85156	1.11707
1540.92300	1.09862
1538.99443	1.06604
1537.06587	1.04021
1535.13730	1.02297
1533.20874	1.00058
1531.28018	0.97585
1529.35161	0.95791
1527.42305	0.94204
1525.49448	0.92597
1523.56592	0.91234
1521.63735	0.89957
1519.70879	0.88623
1517.78022	0.87454
1515.85166	0.86050
1513.92310	0.84534
1511.99453	0.83270
1510.06597	0.82248
1508.13740	0.81370
1506.20884	0.79742
1504.28027	0.78010
1502.35171	0.77056
1500.42314	0.76357
1498.49458	0.75671
1496.56602	0.74812
1494.63745	0.73889
1492.70889	0.73217
1490.78032	0.72739
1488.85176	0.72186
1486.92319	0.71520
1484.99463	0.70938
1483.06606	0.70526
1481.13750	0.70250
1479.20894	0.70082
1477.28037	0.70059
1475.35181	0.70185
1473.42324	0.70393
1471.49468	0.70424
1469.56611	0.70185
1467.63755	0.69944
1465.70898	0.69826
1463.78042	0.69771
1461.85186	0.69742
1459.92329	0.69853
1457.99473	0.70131
1456.06616	0.70186
1454.13760	0.69813
1452.20903	0.69449
1450.28047	0.69168
1448.35190	0.68927
1446.42334	0.68643
1444.49478	0.68328
1442.56621	0.68032
1440.63765	0.67742
1438.70908	0.67470
1436.78052	0.67152
1434.85195	0.66729
1432.92339	0.66373
1430.99482	0.66165
1429.06626	0.66065
1427.13770	0.66043
1425.20913	0.66120
1423.28057	0.66270
1421.35200	0.66413
1419.42344	0.66552
1417.49487	0.66577
1415.56631	0.66419
1413.63774	0.66296
1411.70918	0.66299
1409.78062	0.66410
1407.85205	0.66609
1405.92349	0.66871
1403.99492	0.67086
1402.06636	0.67159
1400.13779	0.67142
1398.20923	0.67049
1396.28066	0.66821
1394.35210	0.66402
1392.42354	0.65854
1390.49497	0.65359
1388.56641	0.64913
1386.63784	0.64366
1384.70928	0.63721
1382.78071	0.63116
1380.85215	0.62596
1378.92358	0.62190
1376.99502	0.61911
1375.06646	0.61743
1373.13789	0.61606
1371.20933	0.61469
1369.28076	0.61374
1367.35220	0.61281
1365.42363	0.61157
1363.49507	0.61038
1361.56650	0.60879
1359.63794	0.60663
1357.70937	0.60476
1355.78081	0.60338
1353.85225	0.60223
1351.92368	0.60120
1349.99512	0.60033
1348.06655	0.59953
1346.13799	0.59859
1344.20942	0.59766
1342.28086	0.59715
1340.35229	0.59711
1338.42373	0.59680
1336.49517	0.59586
1334.56660	0.59501
1332.63804	0.59474
1330.70947	0.59498
1328.78091	0.59552
1326.85234	0.59639
1324.92378	0.59758
1322.99521	0.59888
1321.06665	0.60012
1319.13809	0.60129
1317.20952	0.60206
1315.28096	0.60227
1313.35239	0.60207
1311.42383	0.60148
1309.49526	0.60076
1307.56670	0.60026
1305.63813	0.59984
1303.70957	0.59917
1301.78101	0.59834
1299.85244	0.59741
1297.92388	0.59630
1295.99531	0.59516
1294.06675	0.59406
1292.13818	0.59281
1290.20962	0.59128
1288.28105	0.58969
1286.35249	0.58821
1284.42393	0.58679
1282.49536	0.58530
1280.56680	0.58380
1278.63823	0.58224
1276.70967	0.58064
1274.78110	0.57933
1272.85254	0.57849
1270.92397	0.57780
1268.99541	0.57691
1267.06685	0.57578
1265.13828	0.57462
1263.20972	0.57360
1261.28115	0.57269
1259.35259	0.57188
1257.42402	0.57117
1255.49546	0.57078
1253.56689	0.57084
1251.63833	0.57096
1249.70977	0.57082
1247.78120	0.57065
1245.85264	0.57047
1243.92407	0.56984
1241.99551	0.56864
1240.06694	0.56697
1238.13838	0.56492
1236.20981	0.56259
1234.28125	0.55999
1232.35269	0.55730
1230.42412	0.55481
1228.49556	0.55259
1226.56699	0.55037
1224.63843	0.54810
1222.70986	0.54599
1220.78130	0.54415
1218.85273	0.54254
1216.92417	0.54113
1214.99561	0.53991
1213.06704	0.53886
1211.13848	0.53809
1209.20991	0.53747
1207.28135	0.53670
1205.35278	0.53578
1203.42422	0.53491
1201.49565	0.53403
1199.56709	0.53298
1197.63853	0.53188
1195.70996	0.53091
1193.78140	0.53014
1191.85283	0.52954
1189.92427	0.52908
1187.99570	0.52885
1186.06714	0.52888
1184.13857	0.52902
1182.21001	0.52923
1180.28145	0.52988
1178.35288	0.53123
1176.42432	0.53303
1174.49575	0.53473
1172.56719	0.53589
1170.63862	0.53644
1168.71006	0.53665
1166.78149	0.53671
1164.85293	0.53669
1162.92437	0.53670
1160.99580	0.53681
1159.06724	0.53687
1157.13867	0.53654
1155.21011	0.53573
1153.28154	0.53451
1151.35298	0.53274
1149.42441	0.53040
1147.49585	0.52777
1145.56729	0.52504
1143.63872	0.52240
1141.71016	0.52012
1139.78159	0.51833
1137.85303	0.51692
1135.92446	0.51609
1133.99590	0.51605
1132.06733	0.51647
1130.13877	0.51680
1128.21021	0.51693
1126.28164	0.51693
1124.35308	0.51678
1122.42451	0.51668
1120.49595	0.51683
1118.56738	0.51713
1116.63882	0.51764
1114.71025	0.51833
1112.78169	0.51904
1110.85312	0.51984
1108.92456	0.52073
1106.99600	0.52147
1105.06743	0.52228
1103.13887	0.52335
1101.21030	0.52448
1099.28174	0.52562
1097.35317	0.52703
1095.42461	0.52927
1093.49604	0.53270
1091.56748	0.53750
1089.63892	0.54383
1087.71035	0.55143
1085.78179	0.55984
1083.85322	0.56853
1081.92466	0.57641
1079.99609	0.58190
1078.06753	0.58419
1076.13896	0.58341
1074.21040	0.57986
1072.28184	0.57411
1070.35327	0.56712
1068.42471	0.55972
1066.49614	0.55240
1064.56758	0.54576
1062.63901	0.54024
1060.71045	0.53563
1058.78188	0.53167
1056.85332	0.52824
1054.92476	0.52501
1052.99619	0.52186
1051.06763	0.51922
1049.13906	0.51750
1047.21050	0.51656
1045.28193	0.51619
1043.35337	0.51633
1041.42480	0.51662
1039.49624	0.51674
1037.56768	0.51677
1035.63911	0.51675
1033.71055	0.51642
1031.78198	0.51533
1029.85342	0.51338
1027.92485	0.51107
1025.99629	0.50900
1024.06772	0.50739
1022.13916	0.50627
1020.21060	0.50559
1018.28203	0.50512
1016.35347	0.50468
1014.42490	0.50425
1012.49634	0.50379
1010.56777	0.50341
1008.63921	0.50322
1006.71064	0.50329
1004.78208	0.50389
1002.85352	0.50533
1000.92495	0.50770
998.99639	0.51098
997.06782	0.51508
995.13926	0.51973
993.21069	0.52436
991.28213	0.52788
989.35356	0.52951
987.42500	0.52981
985.49644	0.52972
983.56787	0.52956
981.63931	0.52946
979.71074	0.52986
977.78218	0.53096
975.85361	0.53257
973.92505	0.53473
971.99648	0.53745
970.06792	0.54055
968.13936	0.54390
966.21079	0.54751
964.28223	0.55161
962.35366	0.55641
960.42510	0.56178
958.49653	0.56714
956.56797	0.57220
954.63940	0.57729
952.71084	0.58294
950.78228	0.58924
948.85371	0.59563
946.92515	0.60177
944.99658	0.60808
943.06802	0.61455
941.13945	0.62069
939.21089	0.62653
937.28232	0.63229
935.35376	0.63811
933.42520	0.64387
931.49663	0.64918
929.56807	0.65413
927.63950	0.65927
925.71094	0.66498
923.78237	0.67136
921.85381	0.67838
919.92524	0.68570
917.99668	0.69274
916.06812	0.69965
914.13955	0.70706
912.21099	0.71450
910.28242	0.72151
908.35386	0.72912
906.42529	0.73767
904.49673	0.74640
902.56816	0.75501
900.63960	0.76392
898.71104	0.77408
896.78247	0.78451
894.85391	0.79330
892.92534	0.80183
890.99678	0.81193
889.06821	0.82332
887.13965	0.83490
885.21108	0.84552
883.28252	0.85588
881.35396	0.86746
879.42539	0.87961
877.49683	0.89135
875.56826	0.90328
873.63970	0.91449
871.71113	0.92414
869.78257	0.93432
867.85400	0.94535
865.92544	0.95597
863.99687	0.96670
862.06831	0.97881
860.13975	0.99211
858.21118	1.00460
856.28262	1.01585
854.35405	1.02746
852.42549	1.04021
850.49692	1.05312
848.56836	1.06488
846.63979	1.07610
844.71123	1.08708
842.78267	1.09643
840.85410	1.10545
838.92554	1.11736
836.99697	1.13225
835.06841	1.14617
833.13984	1.15571
831.21128	1.16321
829.28271	1.17519
827.35415	1.19082
825.42559	1.20108
823.49702	1.20701
821.56846	1.21454
819.63989	1.22407
817.71133	1.23681
815.78276	1.24961
813.85420	1.25436
811.92563	1.25667
809.99707	1.27233
808.06851	1.29865
806.13994	1.31669
804.21138	1.32284
802.28281	1.33384
800.35425	1.35398
798.42568	1.37116
796.49712	1.37775
794.56855	1.36801
792.63999	1.36173
790.71143	1.38671
788.78286	1.42371
786.85430	1.45197
784.92573	1.48421
782.99717	1.53782
781.06860	1.64183
779.14004	1.69577
777.21147	1.67489
775.28291	1.70612
773.35435	1.60571
771.42578	1.45038
769.49722	1.43649
767.56865	1.59466
765.64009	1.86517
763.71152	2.16413
761.78296	2.01428
759.85439	1.59991
757.92583	1.42355
755.99727	1.43130
754.06870	1.53907
752.14014	1.47527
750.21157	1.22303
748.28301	1.04542
746.35444	0.96914
744.42588	0.97350
742.49731	1.00824
740.56875	0.97327
738.64019	0.88362
736.71162	0.83633
734.78306	0.89715
732.85449	1.05359
730.92593	1.03403
728.99736	0.80346
727.06880	0.67144
725.14023	0.68030
723.21167	0.70743
721.28311	0.52087
719.35454	0.33537
717.42598	0.21037
715.49741	0.08449
713.56885	-0.08437
711.64028	-0.53919
709.71172	-0.53773
707.78315	-0.07867
705.85459	0.10836
703.92603	0.08205
701.99746	0.12676
700.06890	0.16097
698.14033	0.20694
696.21177	0.41386
694.28320	0.52964
692.35464	0.29119
690.42607	0.27822
688.49751	1.33451
686.56895	4.11941
684.64038	4.10784
682.71182	0.42600
680.78325	0.28510
678.85469	0.26377
676.92612	0.21343
674.99756	0.13404
673.06899	0.14457
671.14043	0.30180
669.21187	0.41451
667.28330	0.41019
665.35474	0.34338
663.42617	0.26269
661.49761	0.25330
659.56904	0.33631
657.64048	0.43846
655.71191	0.45180
653.78335	0.42026
651.85479	0.41752
649.92622	0.35957
647.99766	0.23468
646.06909	0.24617
644.14053	0.43080
642.21196	0.45297
640.28340	0.29669
638.35483	0.22123
636.42627	0.18655
634.49771	0.17688
632.56914	0.25820
630.64058	0.49751
628.71201	0.72678
626.78345	0.61461
624.85488	0.45239
622.92632	0.28364
620.99775	0.18629
619.06919	0.22035
617.14062	0.32868
615.21206	0.37680
613.28350	0.37840
611.35493	0.36569
609.42637	0.34702
607.49780	0.34326
605.56924	0.30372
603.64067	0.26100
601.71211	0.27437
599.78354	0.35423
597.85498	0.52578
595.92642	0.55494
593.99785	0.34517
592.06929	0.27770
590.14072	0.30048
588.21216	0.34189
586.28359	0.37821
584.35503	0.42123
582.42646	0.46680
580.49790	0.46670
578.56934	0.55115
576.64077	0.61396
574.71221	0.36564
572.78364	0.22741
570.85508	0.19232
568.92651	0.23007
566.99795	0.27441
565.06938	0.25433
563.14082	0.24466
561.21226	0.28130
559.28369	0.28325
557.35513	0.26538
555.42656	0.24946
553.49800	0.25708
551.56943	0.30200
549.64087	0.31804
547.71230	0.28566
545.78374	0.20224
543.85518	0.17653
541.92661	0.25471
539.99805	0.34326
538.06948	0.31373
536.14092	0.24866
534.21235	0.23416
532.28379	0.24276
530.35522	0.20238
528.42666	0.14448
526.49810	0.17232
524.56953	0.29210
522.64097	0.41838
520.71240	0.42332
518.78384	0.34254
516.85527	0.28211
514.92671	0.27468
512.99814	0.33452
511.06958	0.36967
509.14102	0.26877
507.21245	0.15355
505.28389	0.11003
503.35532	0.13539
501.42676	0.20087
499.49819	0.26058
