3997.91411	0.06262
3995.98555	0.06370
3994.05698	0.06466
3992.12842	0.06489
3990.19985	0.06469
3988.27129	0.06464
3986.34272	0.06489
3984.41416	0.06554
3982.48560	0.06612
3980.55703	0.06605
3978.62847	0.06585
3976.69990	0.06625
3974.77134	0.06714
3972.84277	0.06790
3970.91421	0.06814
3968.98564	0.06804
3967.05708	0.06764
3965.12852	0.06717
3963.19995	0.06752
3961.27139	0.06851
3959.34282	0.06916
3957.41426	0.06932
3955.48569	0.06921
3953.55713	0.06899
3951.62856	0.06945
3949.70000	0.07082
3947.77144	0.07157
3945.84287	0.07106
3943.91431	0.07112
3941.98574	0.07152
3940.05718	0.07032
3938.12861	0.06869
3936.20005	0.06836
3934.27148	0.06950
3932.34292	0.07169
3930.41436	0.07302
3928.48579	0.07203
3926.55723	0.07081
3924.62866	0.07111
3922.70010	0.07164
3920.77153	0.07162
3918.84297	0.07231
3916.91440	0.07315
3914.98584	0.07204
3913.05728	0.06982
3911.12871	0.06837
3909.20015	0.06796
3907.27158	0.06896
3905.34302	0.07188
3903.41445	0.07569
3901.48589	0.07769
3899.55732	0.07715
3897.62876	0.07498
3895.70020	0.07244
3893.77163	0.07155
3891.84307	0.07280
3889.91450	0.07370
3887.98594	0.07308
3886.05737	0.07354
3884.12881	0.07503
3882.20024	0.07598
3880.27168	0.07664
3878.34312	0.07512
3876.41455	0.07271
3874.48599	0.07351
3872.55742	0.07694
3870.62886	0.08016
3868.70029	0.08159
3866.77173	0.08047
3864.84316	0.07961
3862.91460	0.07983
3860.98604	0.07876
3859.05747	0.07725
3857.12891	0.07767
3855.20034	0.08071
3853.27178	0.08592
3851.34321	0.08765
3849.41465	0.08329
3847.48608	0.07952
3845.55752	0.07894
3843.62896	0.08116
3841.70039	0.08471
3839.77183	0.08850
3837.84326	0.09093
3835.91470	0.09009
3833.98613	0.08812
3832.05757	0.08703
3830.12900	0.08652
3828.20044	0.08650
3826.27187	0.08728
3824.34331	0.08852
3822.41475	0.09114
3820.48618	0.09577
3818.55762	0.09773
3816.62905	0.09660
3814.70049	0.09497
3812.77192	0.09262
3810.84336	0.09128
3808.91479	0.09227
3806.98623	0.09547
3805.05767	0.09877
3803.12910	0.10144
3801.20054	0.10476
3799.27197	0.10605
3797.34341	0.10504
3795.41484	0.10412
3793.48628	0.10276
3791.55771	0.10174
3789.62915	0.10209
3787.70059	0.10387
3785.77202	0.10686
3783.84346	0.10967
3781.91489	0.11145
3779.98633	0.11347
3778.05776	0.11550
3776.12920	0.11579
3774.20063	0.11570
3772.27207	0.11751
3770.34351	0.12155
3768.41494	0.12553
3766.48638	0.12742
3764.55781	0.12834
3762.62925	0.12924
3760.70068	0.13160
3758.77212	0.13588
3756.84355	0.13931
3754.91499	0.14134
3752.98643	0.14556
3751.05786	0.15394
3749.12930	0.16159
3747.20073	0.16351
3745.27217	0.16527
3743.34360	0.16924
3741.41504	0.17229
3739.48647	0.17556
3737.55791	0.18229
3735.62935	0.19324
3733.70078	0.20388
3731.77222	0.20806
3729.84365	0.20952
3727.91509	0.21307
3725.98652	0.21971
3724.05796	0.22688
3722.12939	0.23169
3720.20083	0.23467
3718.27227	0.23702
3716.34370	0.23989
3714.41514	0.24530
3712.48657	0.25675
3710.55801	0.27560
3708.62944	0.29257
3706.70088	0.30289
3704.77231	0.31296
3702.84375	0.32631
3700.91519	0.34319
3698.98662	0.36039
3697.05806	0.37661
3695.12949	0.39439
3693.20093	0.41427
3691.27236	0.43724
3689.34380	0.46624
3687.41523	0.49882
3685.48667	0.52600
3683.55811	0.54965
3681.62954	0.57642
3679.70098	0.60882
3677.77241	0.64473
3675.84385	0.68688
3673.91528	0.73976
3671.98672	0.78100
3670.05815	0.81879
3668.12959	0.87106
3666.20103	0.91748
3664.27246	0.95617
3662.34390	0.99861
3660.41533	1.04562
3658.48677	1.09337
3656.55820	1.14496
3654.62964	1.20165
3652.70107	1.24891
3650.77251	1.29194
3648.84395	1.35251
3646.91538	1.42200
3644.98682	1.46844
3643.05825	1.50428
3641.12969	1.54361
3639.20112	1.58827
3637.27256	1.63342
3635.34399	1.67841
3633.41543	1.72494
3631.48687	1.76884
3629.55830	1.81306
3627.62974	1.86836
3625.70117	1.91630
3623.77261	1.94831
3621.84404	1.98082
3619.91548	2.01912
3617.98691	2.06521
3616.05835	2.10847
3614.12979	2.14311
3612.20122	2.18006
3610.27266	2.22016
3608.34409	2.26194
3606.41553	2.30459
3604.48696	2.34275
3602.55840	2.37789
3600.62983	2.41782
3598.70127	2.46067
3596.77271	2.50016
3594.84414	2.54022
3592.91558	2.58175
3590.98701	2.61842
3589.05845	2.65254
3587.12988	2.69585
3585.20132	2.74382
3583.27275	2.78342
3581.34419	2.81903
3579.41562	2.85755
3577.48706	2.90032
3575.55850	2.94372
3573.62993	2.98617
3571.70137	3.02700
3569.77280	3.06700
3567.84424	3.11098
3565.91567	3.16522
3563.98711	3.21649
3562.05854	3.25634
3560.12998	3.29573
3558.20142	3.33837
3556.27285	3.38167
3554.34429	3.42530
3552.41572	3.47221
3550.48716	3.52006
3548.55859	3.56667
3546.63003	3.61256
3544.70146	3.65800
3542.77290	3.70428
3540.84434	3.75142
3538.91577	3.79839
3536.98721	3.84419
3535.05864	3.88955
3533.13008	3.93552
3531.20151	3.98468
3529.27295	4.03525
3527.34438	4.08558
3525.41582	4.13702
3523.48726	4.18641
3521.55869	4.23004
3519.63013	4.27096
3517.70156	4.31724
3515.77300	4.36636
3513.84443	4.41320
3511.91587	4.46156
3509.98730	4.51188
3508.05874	4.55968
3506.13018	4.60370
3504.20161	4.64838
3502.27305	4.70023
3500.34448	4.75444
3498.41592	4.80232
3496.48735	4.84872
3494.55879	4.89676
3492.63022	4.94353
3490.70166	4.99116
3488.77310	5.04063
3486.84453	5.09073
3484.91597	5.14176
3482.98740	5.18931
3481.05884	5.23241
3479.13027	5.27651
3477.20171	5.32151
3475.27314	5.36480
3473.34458	5.41447
3471.41602	5.47261
3469.48745	5.52490
3467.55889	5.56684
3465.63032	5.60744
3463.70176	5.65600
3461.77319	5.70998
3459.84463	5.76593
3457.91606	5.82180
3455.98750	5.86940
3454.05894	5.91250
3452.13037	5.96259
3450.20181	6.01436
3448.27324	6.05845
3446.34468	6.10412
3444.41611	6.15713
3442.48755	6.21616
3440.55898	6.27416
3438.63042	6.32607
3436.70186	6.37688
3434.77329	6.42610
3432.84473	6.46782
3430.91616	6.50622
3428.98760	6.54932
3427.05903	6.59752
3425.13047	6.67082
3423.20190	6.75481
3421.27334	6.80807
3419.34478	6.83666
3417.41621	6.87469
3415.48765	6.93415
3413.55908	6.99202
3411.63052	7.02428
3409.70195	7.02645
3407.77339	7.05703
3405.84482	7.14398
3403.91626	7.21605
3401.98770	7.24275
3400.05913	7.29237
3398.13057	7.37106
3396.20200	7.40118
3394.27344	7.39674
3392.34487	7.40530
3390.41631	7.41827
3388.48774	7.44469
3386.55918	7.51311
3384.63062	7.57870
3382.70205	7.59640
3380.77349	7.60733
3378.84492	7.64331
3376.91636	7.67970
3374.98779	7.68685
3373.05923	7.69864
3371.13066	7.71879
3369.20210	7.72091
3367.27354	7.72203
3365.34497	7.76158
3363.41641	7.81036
3361.48784	7.81773
3359.55928	7.85218
3357.63071	7.95742
3355.70215	8.02712
3353.77358	7.96801
3351.84502	7.87757
3349.91646	7.86502
3347.98789	7.93954
3346.05933	7.99088
3344.13076	7.99996
3342.20220	8.05392
3340.27363	8.07975
3338.34507	8.07004
3336.41650	8.08780
3334.48794	8.11809
3332.55937	8.12341
3330.63081	8.09643
3328.70225	8.06788
3326.77368	8.06051
3324.84512	8.09135
3322.91655	8.14250
3320.98799	8.18063
3319.05942	8.19978
3317.13086	8.21512
3315.20229	8.21059
3313.27373	8.18992
3311.34517	8.16873
3309.41660	8.14520
3307.48804	8.15735
3305.55947	8.22139
3303.63091	8.24882
3301.70234	8.21930
3299.77378	8.26200
3297.84521	8.34487
3295.91665	8.33158
3293.98809	8.25097
3292.05952	8.24497
3290.13096	8.33324
3288.20239	8.38278
3286.27383	8.36413
3284.34526	8.33974
3282.41670	8.34885
3280.48813	8.35002
3278.55957	8.27931
3276.63101	8.18073
3274.70244	8.13450
3272.77388	8.18239
3270.84531	8.25386
3268.91675	8.18978
3266.98818	8.07351
3265.05962	8.08146
3263.13105	8.12889
3261.20249	8.12809
3259.27393	8.15151
3257.34536	8.21990
3255.41680	8.23110
3253.48823	8.16305
3251.55967	8.17382
3249.63110	8.23116
3247.70254	8.19481
3245.77397	8.15813
3243.84541	8.19662
3241.91685	8.24452
3239.98828	8.25548
3238.05972	8.20718
3236.13115	8.11369
3234.20259	8.05561
3232.27402	8.06697
3230.34546	8.06005
3228.41689	7.99629
3226.48833	7.97761
3224.55977	8.01792
3222.63120	8.02741
3220.70264	7.99062
3218.77407	7.97511
3216.84551	7.98734
3214.91694	7.97061
3212.98838	7.91836
3211.05981	7.84722
3209.13125	7.77953
3207.20269	7.76731
3205.27412	7.79800
3203.34556	7.76833
3201.41699	7.67446
3199.48843	7.62978
3197.55986	7.64682
3195.63130	7.63183
3193.70273	7.58207
3191.77417	7.56088
3189.84561	7.53882
3187.91704	7.47852
3185.98848	7.42798
3184.05991	7.40676
3182.13135	7.37410
3180.20278	7.31826
3178.27422	7.23778
3176.34565	7.12680
3174.41709	7.02994
3172.48853	6.98445
3170.55996	6.95133
3168.63140	6.90168
3166.70283	6.85451
3164.77427	6.79840
3162.84570	6.73117
3160.91714	6.67194
3158.98857	6.60530
3157.06001	6.52562
3155.13145	6.45046
3153.20288	6.38051
3151.27432	6.32124
3149.34575	6.26819
3147.41719	6.20318
3145.48862	6.12808
3143.56006	6.04429
3141.63149	5.96351
3139.70293	5.89929
3137.77437	5.83608
3135.84580	5.76294
3133.91724	5.69123
3131.98867	5.62177
3130.06011	5.54373
3128.13154	5.46350
3126.20298	5.39363
3124.27441	5.33219
3122.34585	5.26619
3120.41729	5.19179
3118.48872	5.11914
3116.56016	5.04717
3114.63159	4.97183
3112.70303	4.90306
3110.77446	4.84216
3108.84590	4.78044
3106.91733	4.71288
3104.98877	4.64053
3103.06021	4.57271
3101.13164	4.51066
3099.20308	4.44506
3097.27451	4.37493
3095.34595	4.30743
3093.41738	4.24469
3091.48882	4.18396
3089.56025	4.12359
3087.63169	4.06117
3085.70312	3.99548
3083.77456	3.92979
3081.84600	3.86810
3079.91743	3.81024
3077.98887	3.75378
3076.06030	3.69655
3074.13174	3.63713
3072.20317	3.57828
3070.27461	3.52217
3068.34604	3.46500
3066.41748	3.40574
3064.48892	3.34942
3062.56035	3.29655
3060.63179	3.24352
3058.70322	3.19070
3056.77466	3.13964
3054.84609	3.08933
3052.91753	3.03882
3050.98896	2.98738
3049.06040	2.93520
3047.13184	2.88514
3045.20327	2.83802
3043.27471	2.79163
3041.34614	2.74436
3039.41758	2.69714
3037.48901	2.65140
3035.56045	2.60667
3033.63188	2.56261
3031.70332	2.51819
3029.77476	2.47305
3027.84619	2.42900
3025.91763	2.38592
3023.98906	2.34376
3022.06050	2.30355
3020.13193	2.26425
3018.20337	2.22482
3016.27480	2.18538
3014.34624	2.14633
3012.41768	2.10810
3010.48911	2.07015
3008.56055	2.03242
3006.63198	1.99604
3004.70342	1.96126
3002.77485	1.92724
3000.84629	1.89340
2998.91772	1.86001
2996.98916	1.82788
2995.06060	1.79678
2993.13203	1.76558
2991.20347	1.73445
2989.27490	1.70437
2987.34634	1.67571
2985.41777	1.64786
2983.48921	1.62003
2981.56064	1.59252
2979.63208	1.56542
2977.70352	1.53845
2975.77495	1.51231
2973.84639	1.48727
2971.91782	1.46259
2969.98926	1.43828
2968.06069	1.41443
2966.13213	1.39035
2964.20356	1.36649
2962.27500	1.34364
2960.34644	1.32087
2958.41787	1.29747
2956.48931	1.27437
2954.56074	1.25167
2952.63218	1.22883
2950.70361	1.20642
2948.77505	1.18481
2946.84648	1.16352
2944.91792	1.14254
2942.98936	1.12211
2941.06079	1.10222
2939.13223	1.08260
2937.20366	1.06324
2935.27510	1.04421
2933.34653	1.02533
2931.41797	1.00673
2929.48940	0.98857
2927.56084	0.97082
2925.63228	0.95292
2923.70371	0.93458
2921.77515	0.91661
2919.84658	0.89966
2917.91802	0.88339
2915.98945	0.86674
2914.06089	0.84943
2912.13232	0.83279
2910.20376	0.81780
2908.27520	0.80379
2906.34663	0.78986
2904.41807	0.77577
2902.48950	0.76143
2900.56094	0.74723
2898.63237	0.73399
2896.70381	0.72156
2894.77524	0.70927
2892.84668	0.69700
2890.91812	0.68494
2888.98955	0.67355
2887.06099	0.66305
2885.13242	0.65283
2883.20386	0.64241
2881.27529	0.63211
2879.34673	0.62240
2877.41816	0.61299
2875.48960	0.60359
2873.56104	0.59447
2871.63247	0.58510
2869.70391	0.57466
2867.77534	0.56350
2865.84678	0.55246
2863.91821	0.54194
2861.98965	0.53195
2860.06108	0.52234
2858.13252	0.51301
2856.20396	0.50397
2854.27539	0.49512
2852.34683	0.48645
2850.41826	0.47827
2848.48970	0.47046
2846.56113	0.46284
2844.63257	0.45551
2842.70400	0.44856
2840.77544	0.44215
2838.84687	0.43626
2836.91831	0.43033
2834.98975	0.42425
2833.06118	0.41841
2831.13262	0.41281
2829.20405	0.40710
2827.27549	0.40125
2825.34692	0.39542
2823.41836	0.38972
2821.48979	0.38423
2819.56123	0.37878
2817.63267	0.37312
2815.70410	0.36738
2813.77554	0.36183
2811.84697	0.35661
2809.91841	0.35164
2807.98984	0.34662
2806.06128	0.34157
2804.13271	0.33667
2802.20415	0.33186
2800.27559	0.32716
2798.34702	0.32254
2796.41846	0.31791
2794.48989	0.31337
2792.56133	0.30905
2790.63276	0.30493
2788.70420	0.30086
2786.77563	0.29669
2784.84707	0.29240
2782.91851	0.28816
2780.98994	0.28423
2779.06138	0.28054
2777.13281	0.27685
2775.20425	0.27308
2773.27568	0.26933
2771.34712	0.26577
2769.41855	0.26236
2767.48999	0.25905
2765.56143	0.25583
2763.63286	0.25262
2761.70430	0.24941
2759.77573	0.24624
2757.84717	0.24328
2755.91860	0.24047
2753.99004	0.23746
2752.06147	0.23432
2750.13291	0.23146
2748.20435	0.22880
2746.27578	0.22613
2744.34722	0.22358
2742.41865	0.22112
2740.49009	0.21864
2738.56152	0.21612
2736.63296	0.21366
2734.70439	0.21130
2732.77583	0.20900
2730.84727	0.20685
2728.91870	0.20481
2726.99014	0.20262
2725.06157	0.20032
2723.13301	0.19816
2721.20444	0.19619
2719.27588	0.19436
2717.34731	0.19254
2715.41875	0.19068
2713.49019	0.18889
2711.56162	0.18726
2709.63306	0.18567
2707.70449	0.18407
2705.77593	0.18254
2703.84736	0.18113
2701.91880	0.17970
2699.99023	0.17816
2698.06167	0.17658
2696.13311	0.17518
2694.20454	0.17394
2692.27598	0.17255
2690.34741	0.17117
2688.41885	0.17004
2686.49028	0.16898
2684.56172	0.16791
2682.63315	0.16692
2680.70459	0.16612
2678.77603	0.16529
2676.84746	0.16425
2674.91890	0.16318
2672.99033	0.16212
2671.06177	0.16098
2669.13320	0.15984
2667.20464	0.15892
2665.27607	0.15823
2663.34751	0.15751
2661.41895	0.15673
2659.49038	0.15603
2657.56182	0.15528
2655.63325	0.15448
2653.70469	0.15384
2651.77612	0.15320
2649.84756	0.15249
2647.91899	0.15196
2645.99043	0.15156
2644.06187	0.15115
2642.13330	0.15069
2640.20474	0.15017
2638.27617	0.14961
2636.34761	0.14903
2634.41904	0.14857
2632.49048	0.14834
2630.56191	0.14808
2628.63335	0.14766
2626.70479	0.14735
2624.77622	0.14715
2622.84766	0.14687
2620.91909	0.14652
2618.99053	0.14626
2617.06196	0.14621
2615.13340	0.14622
2613.20483	0.14604
2611.27627	0.14590
2609.34771	0.14596
2607.41914	0.14595
2605.49058	0.14574
2603.56201	0.14553
2601.63345	0.14553
2599.70488	0.14569
2597.77632	0.14579
2595.84775	0.14575
2593.91919	0.14570
2591.99062	0.14573
2590.06206	0.14589
2588.13350	0.14609
2586.20493	0.14634
2584.27637	0.14673
2582.34780	0.14704
2580.41924	0.14717
2578.49067	0.14732
2576.56211	0.14760
2574.63354	0.14795
2572.70498	0.14833
2570.77642	0.14874
2568.84785	0.14916
2566.91929	0.14961
2564.99072	0.14999
2563.06216	0.15028
2561.13359	0.15071
2559.20503	0.15125
2557.27646	0.15162
2555.34790	0.15200
2553.41934	0.15261
2551.49077	0.15327
2549.56221	0.15383
2547.63364	0.15429
2545.70508	0.15462
2543.77651	0.15505
2541.84795	0.15577
2539.91938	0.15658
2537.99082	0.15731
2536.06226	0.15801
2534.13369	0.15867
2532.20513	0.15934
2530.27656	0.16007
2528.34800	0.16075
2526.41943	0.16130
2524.49087	0.16193
2522.56230	0.16280
2520.63374	0.16367
2518.70518	0.16434
2516.77661	0.16505
2514.84805	0.16594
2512.91948	0.16679
2510.99092	0.16747
2509.06235	0.16816
2507.13379	0.16894
2505.20522	0.16971
2503.27666	0.17043
2501.34810	0.17116
2499.41953	0.17208
2497.49097	0.17315
2495.56240	0.17401
2493.63384	0.17462
2491.70527	0.17526
2489.77671	0.17614
2487.84814	0.17716
2485.91958	0.17805
2483.99102	0.17879
2482.06245	0.17955
2480.13389	0.18043
2478.20532	0.18145
2476.27676	0.18253
2474.34819	0.18352
2472.41963	0.18441
2470.49106	0.18531
2468.56250	0.18619
2466.63394	0.18707
2464.70537	0.18799
2462.77681	0.18892
2460.84824	0.18980
2458.91968	0.19070
2456.99111	0.19175
2455.06255	0.19283
2453.13398	0.19373
2451.20542	0.19455
2449.27686	0.19547
2447.34829	0.19651
2445.41973	0.19758
2443.49116	0.19861
2441.56260	0.19955
2439.63403	0.20049
2437.70547	0.20144
2435.77690	0.20242
2433.84834	0.20349
2431.91978	0.20456
2429.99121	0.20559
2428.06265	0.20666
2426.13408	0.20778
2424.20552	0.20893
2422.27695	0.21009
2420.34839	0.21120
2418.41982	0.21223
2416.49126	0.21324
2414.56270	0.21439
2412.63413	0.21569
2410.70557	0.21693
2408.77700	0.21805
2406.84844	0.21918
2404.91987	0.22044
2402.99131	0.22173
2401.06274	0.22293
2399.13418	0.22411
2397.20562	0.22534
2395.27705	0.22666
2393.34849	0.22798
2391.41992	0.22937
2389.49136	0.23118
2387.56279	0.23401
2385.63423	0.23877
2383.70566	0.24637
2381.77710	0.25707
2379.84854	0.27020
2377.91997	0.28526
2375.99141	0.30262
2374.06284	0.32285
2372.13428	0.34579
2370.20571	0.37079
2368.27715	0.39686
2366.34858	0.42239
2364.42002	0.44485
2362.49146	0.46117
2360.56289	0.46981
2358.63433	0.47045
2356.70576	0.46102
2354.77720	0.44093
2352.84863	0.41439
2350.92007	0.38793
2348.99150	0.37199
2347.06294	0.37245
2345.13437	0.38964
2343.20581	0.41356
2341.27725	0.42624
2339.34868	0.42653
2337.42012	0.42317
2335.49155	0.42017
2333.56299	0.41729
2331.63442	0.41480
2329.70586	0.41213
2327.77729	0.40798
2325.84873	0.40201
2323.92017	0.39492
2321.99160	0.38725
2320.06304	0.37874
2318.13447	0.36956
2316.20591	0.36123
2314.27734	0.35551
2312.34878	0.35240
2310.42021	0.34976
2308.49165	0.34564
2306.56309	0.34023
2304.63452	0.33532
2302.70596	0.33234
2300.77739	0.33080
2298.84883	0.32957
2296.92026	0.32834
2294.99170	0.32720
2293.06313	0.32603
2291.13457	0.32486
2289.20601	0.32391
2287.27744	0.32324
2285.34888	0.32275
2283.42031	0.32287
2281.49175	0.32426
2279.56318	0.32683
2277.63462	0.32976
2275.70605	0.33238
2273.77749	0.33449
2271.84893	0.33643
2269.92036	0.33850
2267.99180	0.34058
2266.06323	0.34249
2264.13467	0.34423
2262.20610	0.34583
2260.27754	0.34743
2258.34897	0.34911
2256.42041	0.35084
2254.49185	0.35255
2252.56328	0.35417
2250.63472	0.35579
2248.70615	0.35760
2246.77759	0.35947
2244.84902	0.36135
2242.92046	0.36332
2240.99189	0.36529
2239.06333	0.36714
2237.13477	0.36901
2235.20620	0.37109
2233.27764	0.37340
2231.34907	0.37585
2229.42051	0.37826
2227.49194	0.38049
2225.56338	0.38251
2223.63481	0.38447
2221.70625	0.38653
2219.77769	0.38865
2217.84912	0.39075
2215.92056	0.39288
2213.99199	0.39507
2212.06343	0.39727
2210.13486	0.39937
2208.20630	0.40135
2206.27773	0.40339
2204.34917	0.40555
2202.42061	0.40767
2200.49204	0.40964
2198.56348	0.41145
2196.63491	0.41309
2194.70635	0.41481
2192.77778	0.41687
2190.84922	0.41913
2188.92065	0.42119
2186.99209	0.42291
2185.06353	0.42443
2183.13496	0.42605
2181.20640	0.42788
2179.27783	0.42971
2177.34927	0.43134
2175.42070	0.43276
2173.49214	0.43421
2171.56357	0.43574
2169.63501	0.43719
2167.70645	0.43852
2165.77788	0.43976
2163.84932	0.44094
2161.92075	0.44207
2159.99219	0.44309
2158.06362	0.44400
2156.13506	0.44492
2154.20649	0.44582
2152.27793	0.44659
2150.34937	0.44731
2148.42080	0.44811
2146.49224	0.44885
2144.56367	0.44940
2142.63511	0.44982
2140.70654	0.45025
2138.77798	0.45072
2136.84941	0.45103
2134.92085	0.45107
2132.99229	0.45106
2131.06372	0.45102
2129.13516	0.45084
2127.20659	0.45056
2125.27803	0.45032
2123.34946	0.45009
2121.42090	0.44977
2119.49233	0.44932
2117.56377	0.44880
2115.63521	0.44818
2113.70664	0.44744
2111.77808	0.44656
2109.84951	0.44557
2107.92095	0.44455
2105.99238	0.44350
2104.06382	0.44240
2102.13525	0.44125
2100.20669	0.44006
2098.27812	0.43876
2096.34956	0.43735
2094.42100	0.43593
2092.49243	0.43451
2090.56387	0.43292
2088.63530	0.43115
2086.70674	0.42952
2084.77817	0.42792
2082.84961	0.42607
2080.92104	0.42403
2078.99248	0.42209
2077.06392	0.42023
2075.13535	0.41831
2073.20679	0.41619
2071.27822	0.41392
2069.34966	0.41170
2067.42109	0.40961
2065.49253	0.40748
2063.56396	0.40510
2061.63540	0.40268
2059.70684	0.40036
2057.77827	0.39795
2055.84971	0.39544
2053.92114	0.39295
2051.99258	0.39044
2050.06401	0.38783
2048.13545	0.38525
2046.20688	0.38275
2044.27832	0.38021
2042.34976	0.37757
2040.42119	0.37491
2038.49263	0.37228
2036.56406	0.36965
2034.63550	0.36697
2032.70693	0.36424
2030.77837	0.36148
2028.84980	0.35877
2026.92124	0.35614
2024.99268	0.35349
2023.06411	0.35077
2021.13555	0.34804
2019.20698	0.34551
2017.27842	0.34309
2015.34985	0.34038
2013.42129	0.33747
2011.49272	0.33468
2009.56416	0.33200
2007.63560	0.32932
2005.70703	0.32660
2003.77847	0.32383
2001.84990	0.32115
1999.92134	0.31851
1997.99277	0.31589
1996.06421	0.31348
1994.13564	0.31140
1992.20708	0.30937
1990.27852	0.30694
1988.34995	0.30425
1986.42139	0.30161
1984.49282	0.29908
1982.56426	0.29662
1980.63569	0.29421
1978.70713	0.29195
1976.77856	0.28982
1974.85000	0.28766
1972.92144	0.28543
1970.99287	0.28332
1969.06431	0.28154
1967.13574	0.27987
1965.20718	0.27774
1963.27861	0.27541
1961.35005	0.27339
1959.42148	0.27157
1957.49292	0.26982
1955.56436	0.26806
1953.63579	0.26623
1951.70723	0.26446
1949.77866	0.26289
1947.85010	0.26147
1945.92153	0.26019
1943.99297	0.25915
1942.06440	0.25795
1940.13584	0.25607
1938.20728	0.25410
1936.27871	0.25255
1934.35015	0.25123
1932.42158	0.25001
1930.49302	0.24882
1928.56445	0.24764
1926.63589	0.24661
1924.70732	0.24602
1922.77876	0.24560
1920.85020	0.24470
1918.92163	0.24372
1916.99307	0.24267
1915.06450	0.24125
1913.13594	0.24012
1911.20737	0.23973
1909.27881	0.23948
1907.35024	0.23873
1905.42168	0.23772
1903.49312	0.23694
1901.56455	0.23631
1899.63599	0.23572
1897.70742	0.23541
1895.77886	0.23535
1893.85029	0.23513
1891.92173	0.23484
1889.99316	0.23492
1888.06460	0.23471
1886.13604	0.23398
1884.20747	0.23338
1882.27891	0.23299
1880.35034	0.23270
1878.42178	0.23258
1876.49321	0.23258
1874.56465	0.23255
1872.63608	0.23287
1870.70752	0.23407
1868.77896	0.23579
1866.85039	0.23610
1864.92183	0.23490
1862.99326	0.23405
1861.06470	0.23399
1859.13613	0.23432
1857.20757	0.23461
1855.27900	0.23494
1853.35044	0.23538
1851.42187	0.23602
1849.49331	0.23695
1847.56475	0.23824
1845.63618	0.23982
1843.70762	0.24109
1841.77905	0.24105
1839.85049	0.24068
1837.92192	0.24131
1835.99336	0.24234
1834.06479	0.24328
1832.13623	0.24467
1830.20767	0.24688
1828.27910	0.24852
1826.35054	0.24912
1824.42197	0.25004
1822.49341	0.25091
1820.56484	0.25169
1818.63628	0.25286
1816.70771	0.25442
1814.77915	0.25610
1812.85059	0.25823
1810.92202	0.26070
1808.99346	0.26267
1807.06489	0.26419
1805.13633	0.26581
1803.20776	0.26823
1801.27920	0.27142
1799.35063	0.27453
1797.42207	0.27679
1795.49351	0.27920
1793.56494	0.28263
1791.63638	0.28666
1789.70781	0.28926
1787.77925	0.29077
1785.85068	0.29350
1783.92212	0.29731
1781.99355	0.30156
1780.06499	0.30595
1778.13643	0.31010
1776.20786	0.31418
1774.27930	0.31934
1772.35073	0.32635
1770.42217	0.33263
1768.49360	0.33682
1766.56504	0.34089
1764.63647	0.34570
1762.70791	0.35183
1760.77935	0.35965
1758.85078	0.36654
1756.92222	0.37336
1754.99365	0.38084
1753.06509	0.38799
1751.13652	0.39735
1749.20796	0.40908
1747.27939	0.41953
1745.35083	0.42796
1743.42227	0.43702
1741.49370	0.44739
1739.56514	0.45965
1737.63657	0.47174
1735.70801	0.48289
1733.77944	0.50031
1731.85088	0.51980
1729.92231	0.53397
1727.99375	0.54826
1726.06519	0.56428
1724.13662	0.58246
1722.20806	0.60234
1720.27949	0.62122
1718.35093	0.64429
1716.42236	0.67728
1714.49380	0.70643
1712.56523	0.72932
1710.63667	0.75224
1708.70811	0.77782
1706.77954	0.80758
1704.85098	0.84304
1702.92241	0.87431
1700.99385	0.90554
1699.06528	0.95243
1697.13672	0.99529
1695.20815	1.03823
1693.27959	1.07934
1691.35103	1.11313
1689.42246	1.15338
1687.49390	1.19658
1685.56533	1.23901
1683.63677	1.30367
1681.70820	1.36877
1679.77964	1.41016
1677.85107	1.45026
1675.92251	1.49682
1673.99395	1.55487
1672.06538	1.60705
1670.13682	1.65810
1668.20825	1.72314
1666.27969	1.77589
1664.35112	1.82222
1662.42256	1.88226
1660.49399	1.94881
1658.56543	1.99916
1656.63687	2.04029
1654.70830	2.07884
1652.77974	2.13663
1650.85117	2.19114
1648.92261	2.21451
1646.99404	2.24490
1645.06548	2.27307
1643.13691	2.28670
1641.20835	2.29351
1639.27979	2.30221
1637.35122	2.30964
1635.42266	2.30891
1633.49409	2.29940
1631.56553	2.28655
1629.63696	2.27021
1627.70840	2.24116
1625.77983	2.20721
1623.85127	2.16542
1621.92271	2.11350
1619.99414	2.06727
1618.06558	2.02328
1616.13701	1.95943
1614.20845	1.89273
1612.27988	1.84240
1610.35132	1.79084
1608.42275	1.73489
1606.49419	1.67994
1604.56562	1.62982
1602.63706	1.58140
1600.70850	1.53366
1598.77993	1.48972
1596.85137	1.44886
1594.92280	1.40947
1592.99424	1.37129
1591.06567	1.33599
1589.13711	1.30268
1587.20854	1.27179
1585.27998	1.24370
1583.35142	1.21787
1581.42285	1.19434
1579.49429	1.17448
1577.56572	1.15745
1575.63716	1.13658
1573.70859	1.11712
1571.78003	1.10480
1569.85146	1.09335
1567.92290	1.08051
1565.99434	1.07056
1564.06577	1.06340
1562.13721	1.05857
1560.20864	1.05736
1558.28008	1.05802
1556.35151	1.05556
1554.42295	1.05299
1552.49438	1.05150
1550.56582	1.04918
1548.63726	1.04467
1546.70869	1.03872
1544.78013	1.03118
1542.85156	1.02124
1540.92300	1.00635
1538.99443	0.97994
1537.06587	0.95807
1535.13730	0.94379
1533.20874	0.92627
1531.28018	0.90690
1529.35161	0.89281
1527.42305	0.88046
1525.49448	0.86785
1523.56592	0.85731
1521.63735	0.84764
1519.70879	0.83655
1517.78022	0.82612
1515.85166	0.81434
1513.92310	0.80230
1511.99453	0.79259
1510.06597	0.78502
1508.13740	0.77881
1506.20884	0.76617
1504.28027	0.75156
1502.35171	0.74325
1500.42314	0.73744
1498.49458	0.73225
1496.56602	0.72570
1494.63745	0.71801
1492.70889	0.71232
1490.78032	0.70872
1488.85176	0.70461
1486.92319	0.69885
1484.99463	0.69339
1483.06606	0.68953
1481.13750	0.68686
1479.20894	0.68484
1477.28037	0.68404
1475.35181	0.68479
1473.42324	0.68593
1471.49468	0.68440
1469.56611	0.68064
1467.63755	0.67774
1465.70898	0.67606
1463.78042	0.67448
1461.85186	0.67309
1459.92329	0.67324
1457.99473	0.67481
1456.06616	0.67410
1454.13760	0.67002
1452.20903	0.66634
1450.28047	0.66341
1448.35190	0.66090
1446.42334	0.65796
1444.49478	0.65463
1442.56621	0.65172
1440.63765	0.64933
1438.70908	0.64740
1436.78052	0.64506
1434.85195	0.64151
1432.92339	0.63831
1430.99482	0.63639
1429.06626	0.63526
1427.13770	0.63449
1425.20913	0.63444
1423.28057	0.63503
1421.35200	0.63584
1419.42344	0.63696
1417.49487	0.63687
1415.56631	0.63473
1413.63774	0.63290
1411.70918	0.63235
1409.78062	0.63269
1407.85205	0.63339
1405.92349	0.63446
1403.99492	0.63546
1402.06636	0.63582
1400.13779	0.63574
1398.20923	0.63500
1396.28066	0.63304
1394.35210	0.62946
1392.42354	0.62497
1390.49497	0.62105
1388.56641	0.61757
1386.63784	0.61337
1384.70928	0.60846
1382.78071	0.60391
1380.85215	0.59988
1378.92358	0.59641
1376.99502	0.59391
1375.06646	0.59248
1373.13789	0.59122
1371.20933	0.58985
1369.28076	0.58896
1367.35220	0.58807
1365.42363	0.58694
1363.49507	0.58598
1361.56650	0.58474
1359.63794	0.58289
1357.70937	0.58123
1355.78081	0.58003
1353.85225	0.57904
1351.92368	0.57816
1349.99512	0.57756
1348.06655	0.57704
1346.13799	0.57628
1344.20942	0.57557
1342.28086	0.57530
1340.35229	0.57539
1338.42373	0.57498
1336.49517	0.57383
1334.56660	0.57281
1332.63804	0.57242
1330.70947	0.57244
1328.78091	0.57264
1326.85234	0.57306
1324.92378	0.57362
1322.99521	0.57424
1321.06665	0.57487
1319.13809	0.57538
1317.20952	0.57557
1315.28096	0.57550
1313.35239	0.57516
1311.42383	0.57452
1309.49526	0.57384
1307.56670	0.57326
1305.63813	0.57267
1303.70957	0.57207
1301.78101	0.57140
1299.85244	0.57055
1297.92388	0.56957
1295.99531	0.56854
1294.06675	0.56742
1292.13818	0.56628
1290.20962	0.56525
1288.28105	0.56426
1286.35249	0.56320
1284.42393	0.56212
1282.49536	0.56103
1280.56680	0.55983
1278.63823	0.55846
1276.70967	0.55711
1274.78110	0.55603
1272.85254	0.55531
1270.92397	0.55469
1268.99541	0.55383
1267.06685	0.55284
1265.13828	0.55197
1263.20972	0.55122
1261.28115	0.55037
1259.35259	0.54951
1257.42402	0.54892
1255.49546	0.54863
1253.56689	0.54848
1251.63833	0.54838
1249.70977	0.54834
1247.78120	0.54840
1245.85264	0.54839
1243.92407	0.54794
1241.99551	0.54701
1240.06694	0.54588
1238.13838	0.54460
1236.20981	0.54305
1234.28125	0.54118
1232.35269	0.53912
1230.42412	0.53724
1228.49556	0.53570
1226.56699	0.53426
1224.63843	0.53275
1222.70986	0.53128
1220.78130	0.52996
1218.85273	0.52877
1216.92417	0.52770
1214.99561	0.52679
1213.06704	0.52607
1211.13848	0.52550
1209.20991	0.52487
1207.28135	0.52412
1205.35278	0.52328
1203.42422	0.52232
1201.49565	0.52138
1199.56709	0.52068
1197.63853	0.52010
1195.70996	0.51949
1193.78140	0.51907
1191.85283	0.51882
1189.92427	0.51855
1187.99570	0.51832
1186.06714	0.51822
1184.13857	0.51827
1182.21001	0.51852
1180.28145	0.51906
1178.35288	0.51999
1176.42432	0.52118
1174.49575	0.52228
1172.56719	0.52305
1170.63862	0.52325
1168.71006	0.52297
1166.78149	0.52274
1164.85293	0.52263
1162.92437	0.52235
1160.99580	0.52187
1159.06724	0.52124
1157.13867	0.52033
1155.21011	0.51908
1153.28154	0.51751
1151.35298	0.51567
1149.42441	0.51359
1147.49585	0.51133
1145.56729	0.50904
1143.63872	0.50678
1141.71016	0.50458
1139.78159	0.50254
1137.85303	0.50077
1135.92446	0.49936
1133.99590	0.49835
1132.06733	0.49757
1130.13877	0.49685
1128.21021	0.49614
1126.28164	0.49532
1124.35308	0.49432
1122.42451	0.49333
1120.49595	0.49253
1118.56738	0.49206
1116.63882	0.49174
1114.71025	0.49132
1112.78169	0.49096
1110.85312	0.49084
1108.92456	0.49109
1106.99600	0.49180
1105.06743	0.49285
1103.13887	0.49412
1101.21030	0.49581
1099.28174	0.49796
1097.35317	0.50043
1095.42461	0.50346
1093.49604	0.50704
1091.56748	0.51087
1089.63892	0.51506
1087.71035	0.51985
1085.78179	0.52536
1083.85322	0.53145
1081.92466	0.53749
1079.99609	0.54252
1078.06753	0.54576
1076.13896	0.54674
1074.21040	0.54504
1072.28184	0.54076
1070.35327	0.53475
1068.42471	0.52802
1066.49614	0.52132
1064.56758	0.51495
1062.63901	0.50912
1060.71045	0.50404
1058.78188	0.49969
1056.85332	0.49586
1054.92476	0.49229
1052.99619	0.48909
1051.06763	0.48654
1049.13906	0.48446
1047.21050	0.48247
1045.28193	0.48048
1043.35337	0.47882
1041.42480	0.47788
1039.49624	0.47723
1037.56768	0.47632
1035.63911	0.47553
1033.71055	0.47512
1031.78198	0.47488
1029.85342	0.47478
1027.92485	0.47486
1025.99629	0.47515
1024.06772	0.47558
1022.13916	0.47611
1020.21060	0.47675
1018.28203	0.47758
1016.35347	0.47861
1014.42490	0.47968
1012.49634	0.48071
1010.56777	0.48198
1008.63921	0.48357
1006.71064	0.48529
1004.78208	0.48724
1002.85352	0.48956
1000.92495	0.49228
998.99639	0.49545
997.06782	0.49898
995.13926	0.50277
993.21069	0.50671
991.28213	0.51030
989.35356	0.51304
987.42500	0.51490
985.49644	0.51607
983.56787	0.51701
981.63931	0.51808
979.71074	0.51933
977.78218	0.52082
975.85361	0.52281
973.92505	0.52546
971.99648	0.52873
970.06792	0.53237
968.13936	0.53628
966.21079	0.54032
964.28223	0.54435
962.35366	0.54871
960.42510	0.55361
958.49653	0.55892
956.56797	0.56455
954.63940	0.57042
952.71084	0.57658
950.78228	0.58307
948.85371	0.58965
946.92515	0.59603
944.99658	0.60233
943.06802	0.60883
941.13945	0.61509
939.21089	0.62076
937.28232	0.62644
935.35376	0.63253
933.42520	0.63861
931.49663	0.64402
929.56807	0.64868
927.63950	0.65372
925.71094	0.65971
923.78237	0.66584
921.85381	0.67175
919.92524	0.67768
917.99668	0.68410
916.06812	0.69120
914.13955	0.69831
912.21099	0.70542
910.28242	0.71333
908.35386	0.72172
906.42529	0.73038
904.49673	0.74020
902.56816	0.75019
900.63960	0.75887
898.71104	0.76726
896.78247	0.77623
894.85391	0.78573
892.92534	0.79599
890.99678	0.80662
889.06821	0.81703
887.13965	0.82753
885.21108	0.83851
883.28252	0.84997
881.35396	0.86175
879.42539	0.87330
877.49683	0.88413
875.56826	0.89488
873.63970	0.90646
871.71113	0.91840
869.78257	0.92965
867.85400	0.94057
865.92544	0.95178
863.99687	0.96324
862.06831	0.97449
860.13975	0.98490
858.21118	0.99569
856.28262	1.00821
854.35405	1.02074
852.42549	1.03090
850.49692	1.04036
848.56836	1.05216
846.63979	1.06504
844.71123	1.07790
842.78267	1.09154
840.85410	1.10237
838.92554	1.10878
836.99697	1.11709
835.06841	1.13132
833.13984	1.14844
831.21128	1.16045
829.28271	1.16470
827.35415	1.16973
825.42559	1.17800
823.49702	1.18499
821.56846	1.19231
819.63989	1.20460
817.71133	1.22198
815.78276	1.24154
813.85420	1.25953
811.92563	1.27194
809.99707	1.27939
808.06851	1.28330
806.13994	1.29109
804.21138	1.31909
802.28281	1.35485
800.35425	1.36934
798.42568	1.38662
796.49712	1.40772
794.56855	1.39068
792.63999	1.35914
790.71143	1.35555
788.78286	1.38421
786.85430	1.39008
784.92573	1.34243
782.99717	1.30721
781.06860	1.33973
779.14004	1.41729
777.21147	1.44480
775.28291	1.42605
773.35435	1.40521
771.42578	1.39974
769.49722	1.43368
767.56865	1.41821
765.64009	1.31271
763.71152	1.24659
761.78296	1.32078
759.85439	1.51842
757.92583	1.47397
755.99727	1.31263
754.06870	1.30768
752.14014	1.36226
750.21157	1.33113
748.28301	1.23317
746.35444	1.12266
744.42588	1.08013
742.49731	1.18029
740.56875	1.35838
738.64019	1.25255
736.71162	1.01288
734.78306	0.86858
732.85449	0.81477
730.92593	0.95539
728.99736	4.37398
727.06880	0.95355
725.14023	0.40592
723.21167	0.20904
721.28311	0.14340
719.35454	0.16365
717.42598	0.20086
715.49741	0.13937
713.56885	0.11959
711.64028	0.18758
709.71172	0.26072
707.78315	0.31369
705.85459	0.22023
703.92603	0.07019
701.99746	0.01876
700.06890	0.18882
698.14033	0.46062
696.21177	0.51327
694.28320	0.48580
692.35464	0.55119
690.42607	0.59240
688.49751	0.45127
686.56895	0.33567
684.64038	0.29880
682.71182	0.31231
680.78325	0.32373
678.85469	0.29863
676.92612	0.26449
674.99756	0.25641
673.06899	0.34276
671.14043	0.44602
669.21187	0.35459
667.28330	0.34050
665.35474	0.38371
663.42617	0.38997
661.49761	0.42807
659.56904	0.45319
657.64048	0.38099
655.71191	0.25588
653.78335	0.19422
651.85479	0.27772
649.92622	0.36636
647.99766	0.29390
646.06909	0.23404
644.14053	0.32600
642.21196	0.89192
640.28340	3.84170
638.35483	3.83013
636.42627	0.74392
634.49771	0.48376
632.56914	0.42881
630.64058	0.43986
628.71201	0.42914
626.78345	0.33086
624.85488	0.27943
622.92632	0.30874
620.99775	0.30232
619.06919	0.29983
617.14062	0.36356
615.21206	0.42858
613.28350	0.41805
611.35493	0.35478
609.42637	0.27357
607.49780	0.22083
605.56924	0.23566
603.64067	0.23078
601.71211	0.17311
599.78354	0.17731
597.85498	0.24516
595.92642	0.31405
593.99785	0.31686
592.06929	0.28108
590.14072	0.31446
588.21216	0.41422
586.28359	0.45611
584.35503	0.41985
582.42646	0.37958
580.49790	0.34438
578.56934	0.36844
576.64077	0.44579
574.71221	0.47550
572.78364	0.40210
570.85508	0.30311
568.92651	0.25632
566.99795	0.30673
565.06938	0.46439
563.14082	0.80976
561.21226	3.36727
559.28369	0.80922
557.35513	0.38348
555.42656	0.26975
553.49800	0.22210
551.56943	0.17456
549.64087	0.13117
547.71230	0.14837
545.78374	0.25475
543.85518	0.34197
541.92661	0.33855
539.99805	0.30860
538.06948	0.24733
536.14092	0.21174
534.21235	0.28154
532.28379	0.42240
530.35522	0.41386
528.42666	0.34899
526.49810	0.31653
524.56953	0.26700
522.64097	0.26425
520.71240	0.32625
518.78384	0.31941
516.85527	0.27588
514.92671	0.28474
512.99814	0.24398
511.06958	0.17000
509.14102	0.16859
507.21245	0.21331
505.28389	0.26221
503.35532	0.34162
501.42676	0.39560
499.49819	0.33108
