3997.91411	0.06810
3995.98555	0.06915
3994.05698	0.07029
3992.12842	0.07063
3990.19985	0.07020
3988.27129	0.06989
3986.34272	0.07015
3984.41416	0.07063
3982.48560	0.07094
3980.55703	0.07109
3978.62847	0.07128
3976.69990	0.07165
3974.77134	0.07223
3972.84277	0.07282
3970.91421	0.07312
3968.98564	0.07300
3967.05708	0.07232
3965.12852	0.07157
3963.19995	0.07170
3961.27139	0.07255
3959.34282	0.07311
3957.41426	0.07317
3955.48569	0.07307
3953.55713	0.07295
3951.62856	0.07321
3949.70000	0.07399
3947.77144	0.07459
3945.84287	0.07448
3943.91431	0.07430
3941.98574	0.07451
3940.05718	0.07445
3938.12861	0.07404
3936.20005	0.07372
3934.27148	0.07383
3932.34292	0.07489
3930.41436	0.07605
3928.48579	0.07559
3926.55723	0.07445
3924.62866	0.07419
3922.70010	0.07441
3920.77153	0.07455
3918.84297	0.07501
3916.91440	0.07544
3914.98584	0.07479
3913.05728	0.07333
3911.12871	0.07214
3909.20015	0.07185
3907.27158	0.07259
3905.34302	0.07435
3903.41445	0.07644
3901.48589	0.07733
3899.55732	0.07707
3897.62876	0.07611
3895.70020	0.07473
3893.77163	0.07435
3891.84307	0.07559
3889.91450	0.07657
3887.98594	0.07595
3886.05737	0.07553
3884.12881	0.07588
3882.20024	0.07641
3880.27168	0.07736
3878.34312	0.07730
3876.41455	0.07595
3874.48599	0.07581
3872.55742	0.07740
3870.62886	0.07927
3868.70029	0.08032
3866.77173	0.07993
3864.84316	0.07985
3862.91460	0.08056
3860.98604	0.08004
3859.05747	0.07882
3857.12891	0.07881
3855.20034	0.08055
3853.27178	0.08397
3851.34321	0.08600
3849.41465	0.08405
3847.48608	0.08191
3845.55752	0.08161
3843.62896	0.08304
3841.70039	0.08513
3839.77183	0.08698
3837.84326	0.08809
3835.91470	0.08798
3833.98613	0.08739
3832.05757	0.08748
3830.12900	0.08806
3828.20044	0.08870
3826.27187	0.08971
3824.34331	0.09086
3822.41475	0.09240
3820.48618	0.09489
3818.55762	0.09582
3816.62905	0.09529
3814.70049	0.09535
3812.77192	0.09517
3810.84336	0.09483
3808.91479	0.09563
3806.98623	0.09814
3805.05767	0.10079
3803.12910	0.10232
3801.20054	0.10424
3799.27197	0.10572
3797.34341	0.10566
3795.41484	0.10573
3793.48628	0.10575
3791.55771	0.10552
3789.62915	0.10602
3787.70059	0.10757
3785.77202	0.10992
3783.84346	0.11251
3781.91489	0.11448
3779.98633	0.11616
3778.05776	0.11783
3776.12920	0.11863
3774.20063	0.11929
3772.27207	0.12100
3770.34351	0.12403
3768.41494	0.12715
3766.48638	0.12876
3764.55781	0.12984
3762.62925	0.13117
3760.70068	0.13317
3758.77212	0.13651
3756.84355	0.13984
3754.91499	0.14199
3752.98643	0.14488
3751.05786	0.15014
3749.12930	0.15544
3747.20073	0.15751
3745.27217	0.15934
3743.34360	0.16334
3741.41504	0.16676
3739.48647	0.16890
3737.55791	0.17251
3735.62935	0.17934
3733.70078	0.18750
3731.77222	0.19217
3729.84365	0.19456
3727.91509	0.19792
3725.98652	0.20356
3724.05796	0.21056
3722.12939	0.21715
3720.20083	0.22300
3718.27227	0.22872
3716.34370	0.23519
3714.41514	0.24225
3712.48657	0.25171
3710.55801	0.26689
3708.62944	0.28295
3706.70088	0.29417
3704.77231	0.30434
3702.84375	0.31736
3700.91519	0.33459
3698.98662	0.35289
3697.05806	0.37016
3695.12949	0.38863
3693.20093	0.40820
3691.27236	0.42969
3689.34380	0.45794
3687.41523	0.49242
3685.48667	0.52262
3683.55811	0.54893
3681.62954	0.57706
3679.70098	0.60894
3677.77241	0.64343
3675.84385	0.68440
3673.91528	0.73773
3671.98672	0.78040
3670.05815	0.81871
3668.12959	0.87205
3666.20103	0.92061
3664.27246	0.96089
3662.34390	1.00429
3660.41533	1.05162
3658.48677	1.09847
3656.55820	1.14820
3654.62964	1.20394
3652.70107	1.25120
3650.77251	1.29281
3648.84395	1.35090
3646.91538	1.42043
3644.98682	1.46934
3643.05825	1.50700
3641.12969	1.54670
3639.20112	1.59098
3637.27256	1.63579
3635.34399	1.67972
3633.41543	1.72359
3631.48687	1.76419
3629.55830	1.80520
3627.62974	1.85929
3625.70117	1.90959
3623.77261	1.94330
3621.84404	1.97586
3619.91548	2.01377
3617.98691	2.05975
3616.05835	2.10348
3614.12979	2.13960
3612.20122	2.17842
3610.27266	2.21889
3608.34409	2.25968
3606.41553	2.30210
3604.48696	2.34152
3602.55840	2.37712
3600.62983	2.41478
3598.70127	2.45482
3596.77271	2.49442
3594.84414	2.53549
3592.91558	2.57714
3590.98701	2.61496
3589.05845	2.65059
3587.12988	2.69416
3585.20132	2.74132
3583.27275	2.77973
3581.34419	2.81548
3579.41562	2.85566
3577.48706	2.89905
3575.55850	2.94258
3573.62993	2.98697
3571.70137	3.02931
3569.77280	3.06857
3567.84424	3.11036
3565.91567	3.16187
3563.98711	3.21380
3562.05854	3.25663
3560.12998	3.29587
3558.20142	3.33731
3556.27285	3.38253
3554.34429	3.42808
3552.41572	3.47431
3550.48716	3.52114
3548.55859	3.56729
3546.63003	3.61214
3544.70146	3.65601
3542.77290	3.70104
3540.84434	3.74911
3538.91577	3.79868
3536.98721	3.84653
3535.05864	3.89374
3533.13008	3.94031
3531.20151	3.98712
3529.27295	4.03430
3527.34438	4.08012
3525.41582	4.12496
3523.48726	4.17364
3521.55869	4.22853
3519.63013	4.28142
3517.70156	4.32982
3515.77300	4.37643
3513.84443	4.42053
3511.91587	4.46471
3509.98730	4.51472
3508.05874	4.56787
3506.13018	4.61739
3504.20161	4.66439
3502.27305	4.71278
3500.34448	4.76162
3498.41592	4.80666
3496.48735	4.85036
3494.55879	4.89790
3492.63022	4.95168
3490.70166	5.00836
3488.77310	5.05742
3486.84453	5.09927
3484.91597	5.14544
3482.98740	5.19585
3481.05884	5.24763
3479.13027	5.29850
3477.20171	5.34297
3475.27314	5.38740
3473.34458	5.43998
3471.41602	5.49088
3469.48745	5.53230
3467.55889	5.57141
3465.63032	5.61222
3463.70176	5.66223
3461.77319	5.72698
3459.84463	5.79499
3457.91606	5.85122
3455.98750	5.89638
3454.05894	5.93443
3452.13037	5.97501
3450.20181	6.03462
3448.27324	6.10084
3446.34468	6.15800
3444.41611	6.20392
3442.48755	6.24212
3440.55898	6.28607
3438.63042	6.33537
3436.70186	6.38659
3434.77329	6.44560
3432.84473	6.49996
3430.91616	6.54436
3428.98760	6.59389
3427.05903	6.64025
3425.13047	6.67798
3423.20190	6.72378
3421.27334	6.79191
3419.34478	6.86154
3417.41621	6.91160
3415.48765	6.96129
3413.55908	7.03018
3411.63052	7.10412
3409.70195	7.14822
3407.77339	7.17442
3405.84482	7.18617
3403.91626	7.20052
3401.98770	7.26618
3400.05913	7.35702
3398.13057	7.41918
3396.20200	7.46538
3394.27344	7.50068
3392.34487	7.49447
3390.41631	7.49015
3388.48774	7.51975
3386.55918	7.55913
3384.63062	7.61265
3382.70205	7.69815
3380.77349	7.76877
3378.84492	7.79998
3376.91636	7.84061
3374.98779	7.87686
3373.05923	7.91427
3371.13066	7.97270
3369.20210	7.98140
3367.27354	7.90396
3365.34497	7.84513
3363.41641	7.86060
3361.48784	7.90117
3359.55928	7.91318
3357.63071	7.90683
3355.70215	7.96236
3353.77358	8.06320
3351.84502	8.13104
3349.91646	8.13971
3347.98789	8.09806
3346.05933	8.02900
3344.13076	7.98994
3342.20220	8.01487
3340.27363	8.04492
3338.34507	8.02213
3336.41650	7.98026
3334.48794	8.03789
3332.55937	8.18605
3330.63081	8.26894
3328.70225	8.24330
3326.77368	8.20373
3324.84512	8.20668
3322.91655	8.26007
3320.98799	8.33962
3319.05942	8.38667
3317.13086	8.38754
3315.20229	8.32200
3313.27373	8.26359
3311.34517	8.25553
3309.41660	8.24155
3307.48804	8.25423
3305.55947	8.31668
3303.63091	8.37853
3301.70234	8.37606
3299.77378	8.32989
3297.84521	8.29893
3295.91665	8.26634
3293.98809	8.22237
3292.05952	8.26357
3290.13096	8.34812
3288.20239	8.29739
3286.27383	8.22420
3284.34526	8.28315
3282.41670	8.35851
3280.48813	8.30901
3278.55957	8.27763
3276.63101	8.38039
3274.70244	8.51414
3272.77388	8.55532
3270.84531	8.50265
3268.91675	8.42967
3266.98818	8.42606
3265.05962	8.49020
3263.13105	8.48937
3261.20249	8.42586
3259.27393	8.41327
3257.34536	8.46977
3255.41680	8.52047
3253.48823	8.52786
3251.55967	8.53395
3249.63110	8.53269
3247.70254	8.51856
3245.77397	8.45982
3243.84541	8.32839
3241.91685	8.25832
3239.98828	8.33752
3238.05972	8.42478
3236.13115	8.41271
3234.20259	8.36566
3232.27402	8.33415
3230.34546	8.30906
3228.41689	8.22765
3226.48833	8.12716
3224.55977	8.09567
3222.63120	8.13315
3220.70264	8.15753
3218.77407	8.10928
3216.84551	8.04192
3214.91694	8.02108
3212.98838	8.02307
3211.05981	7.99853
3209.13125	7.97650
3207.20269	7.95790
3205.27412	7.91195
3203.34556	7.85362
3201.41699	7.81907
3199.48843	7.84330
3197.55986	7.85475
3195.63130	7.79394
3193.70273	7.74160
3191.77417	7.69205
3189.84561	7.61041
3187.91704	7.55210
3185.98848	7.52141
3184.05991	7.48619
3182.13135	7.45609
3180.20278	7.41420
3178.27422	7.32721
3176.34565	7.23521
3174.41709	7.17150
3172.48853	7.09848
3170.55996	7.00853
3168.63140	6.95027
3166.70283	6.91711
3164.77427	6.85628
3162.84570	6.77802
3160.91714	6.71265
3158.98857	6.64679
3157.06001	6.56486
3155.13145	6.48229
3153.20288	6.41396
3151.27432	6.34988
3149.34575	6.27920
3147.41719	6.21367
3145.48862	6.16109
3143.56006	6.10582
3141.63149	6.04112
3139.70293	5.96808
3137.77437	5.88467
3135.84580	5.79671
3133.91724	5.71384
3131.98867	5.64373
3130.06011	5.58513
3128.13154	5.52237
3126.20298	5.44728
3124.27441	5.37274
3122.34585	5.30629
3120.41729	5.23991
3118.48872	5.16453
3116.56016	5.08636
3114.63159	5.01384
3112.70303	4.94242
3110.77446	4.87272
3108.84590	4.80667
3106.91733	4.73524
3104.98877	4.65629
3103.06021	4.58282
3101.13164	4.51888
3099.20308	4.45543
3097.27451	4.39073
3095.34595	4.32670
3093.41738	4.25971
3091.48882	4.18903
3089.56025	4.12343
3087.63169	4.06728
3085.70312	4.01123
3083.77456	3.94859
3081.84600	3.88338
3079.91743	3.81906
3077.98887	3.75585
3076.06030	3.69445
3074.13174	3.63470
3072.20317	3.57608
3070.27461	3.51879
3068.34604	3.46237
3066.41748	3.40635
3064.48892	3.35082
3062.56035	3.29526
3060.63179	3.24030
3058.70322	3.18687
3056.77466	3.13326
3054.84609	3.07872
3052.91753	3.02611
3050.98896	2.97642
3049.06040	2.92736
3047.13184	2.87787
3045.20327	2.82832
3043.27471	2.77876
3041.34614	2.72973
3039.41758	2.68226
3037.48901	2.63616
3035.56045	2.59029
3033.63188	2.54505
3031.70332	2.50104
3029.77476	2.45781
3027.84619	2.41551
3025.91763	2.37356
3023.98906	2.33136
3022.06050	2.28995
3020.13193	2.24982
3018.20337	2.21039
3016.27480	2.17128
3014.34624	2.13241
3012.41768	2.09381
3010.48911	2.05598
3008.56055	2.01973
3006.63198	1.98417
3004.70342	1.94813
3002.77485	1.91260
3000.84629	1.87866
2998.91772	1.84582
2996.98916	1.81313
2995.06060	1.78005
2993.13203	1.74719
2991.20347	1.71529
2989.27490	1.68409
2987.34634	1.65373
2985.41777	1.62468
2983.48921	1.59631
2981.56064	1.56768
2979.63208	1.53909
2977.70352	1.51121
2975.77495	1.48389
2973.84639	1.45706
2971.91782	1.43101
2969.98926	1.40536
2968.06069	1.37959
2966.13213	1.35399
2964.20356	1.32910
2962.27500	1.30521
2960.34644	1.28179
2958.41787	1.25827
2956.48931	1.23556
2954.56074	1.21411
2952.63218	1.19239
2950.70361	1.16997
2948.77505	1.14814
2946.84648	1.12726
2944.91792	1.10688
2942.98936	1.08672
2941.06079	1.06689
2939.13223	1.04764
2937.20366	1.02868
2935.27510	1.00972
2933.34653	0.99093
2931.41797	0.97254
2929.48940	0.95440
2927.56084	0.93638
2925.63228	0.91880
2923.70371	0.90170
2921.77515	0.88494
2919.84658	0.86872
2917.91802	0.85280
2915.98945	0.83674
2914.06089	0.82137
2912.13232	0.80748
2910.20376	0.79390
2908.27520	0.77985
2906.34663	0.76600
2904.41807	0.75239
2902.48950	0.73880
2900.56094	0.72572
2898.63237	0.71324
2896.70381	0.70118
2894.77524	0.68956
2892.84668	0.67800
2890.91812	0.66615
2888.98955	0.65449
2887.06099	0.64353
2885.13242	0.63285
2883.20386	0.62183
2881.27529	0.61107
2879.34673	0.60120
2877.41816	0.59156
2875.48960	0.58164
2873.56104	0.57173
2871.63247	0.56216
2869.70391	0.55262
2867.77534	0.54272
2865.84678	0.53271
2863.91821	0.52310
2861.98965	0.51407
2860.06108	0.50520
2858.13252	0.49623
2856.20396	0.48741
2854.27539	0.47902
2852.34683	0.47120
2850.41826	0.46380
2848.48970	0.45651
2846.56113	0.44922
2844.63257	0.44208
2842.70400	0.43542
2840.77544	0.42920
2838.84687	0.42319
2836.91831	0.41733
2834.98975	0.41156
2833.06118	0.40581
2831.13262	0.40008
2829.20405	0.39446
2827.27549	0.38888
2825.34692	0.38320
2823.41836	0.37744
2821.48979	0.37172
2819.56123	0.36617
2817.63267	0.36073
2815.70410	0.35529
2813.77554	0.34987
2811.84697	0.34462
2809.91841	0.33974
2807.98984	0.33498
2806.06128	0.33006
2804.13271	0.32526
2802.20415	0.32074
2800.27559	0.31630
2798.34702	0.31173
2796.41846	0.30713
2794.48989	0.30267
2792.56133	0.29830
2790.63276	0.29417
2788.70420	0.29033
2786.77563	0.28658
2784.84707	0.28277
2782.91851	0.27883
2780.98994	0.27487
2779.06138	0.27110
2777.13281	0.26757
2775.20425	0.26421
2773.27568	0.26094
2771.34712	0.25764
2769.41855	0.25420
2767.48999	0.25074
2765.56143	0.24750
2763.63286	0.24450
2761.70430	0.24158
2759.77573	0.23863
2757.84717	0.23580
2755.91860	0.23299
2753.99004	0.23003
2752.06147	0.22721
2750.13291	0.22466
2748.20435	0.22207
2746.27578	0.21937
2744.34722	0.21675
2742.41865	0.21424
2740.49009	0.21191
2738.56152	0.20975
2736.63296	0.20764
2734.70439	0.20545
2732.77583	0.20306
2730.84727	0.20065
2728.91870	0.19852
2726.99014	0.19671
2725.06157	0.19493
2723.13301	0.19295
2721.20444	0.19090
2719.27588	0.18906
2717.34731	0.18735
2715.41875	0.18555
2713.49019	0.18376
2711.56162	0.18217
2709.63306	0.18070
2707.70449	0.17914
2705.77593	0.17765
2703.84736	0.17638
2701.91880	0.17502
2699.99023	0.17346
2698.06167	0.17196
2696.13311	0.17053
2694.20454	0.16908
2692.27598	0.16772
2690.34741	0.16662
2688.41885	0.16563
2686.49028	0.16456
2684.56172	0.16339
2682.63315	0.16215
2680.70459	0.16108
2678.77603	0.16028
2676.84746	0.15948
2674.91890	0.15858
2672.99033	0.15752
2671.06177	0.15635
2669.13320	0.15529
2667.20464	0.15445
2665.27607	0.15372
2663.34751	0.15301
2661.41895	0.15232
2659.49038	0.15160
2657.56182	0.15077
2655.63325	0.14991
2653.70469	0.14918
2651.77612	0.14853
2649.84756	0.14790
2647.91899	0.14738
2645.99043	0.14692
2644.06187	0.14652
2642.13330	0.14621
2640.20474	0.14589
2638.27617	0.14560
2636.34761	0.14529
2634.41904	0.14489
2632.49048	0.14449
2630.56191	0.14413
2628.63335	0.14374
2626.70479	0.14331
2624.77622	0.14295
2622.84766	0.14276
2620.91909	0.14259
2618.99053	0.14244
2617.06196	0.14241
2615.13340	0.14242
2613.20483	0.14230
2611.27627	0.14214
2609.34771	0.14212
2607.41914	0.14223
2605.49058	0.14228
2603.56201	0.14224
2601.63345	0.14224
2599.70488	0.14235
2597.77632	0.14249
2595.84775	0.14258
2593.91919	0.14269
2591.99062	0.14281
2590.06206	0.14294
2588.13350	0.14306
2586.20493	0.14324
2584.27637	0.14359
2582.34780	0.14402
2580.41924	0.14440
2578.49067	0.14474
2576.56211	0.14503
2574.63354	0.14532
2572.70498	0.14565
2570.77642	0.14606
2568.84785	0.14665
2566.91929	0.14732
2564.99072	0.14784
2563.06216	0.14816
2561.13359	0.14851
2559.20503	0.14900
2557.27646	0.14945
2555.34790	0.14991
2553.41934	0.15050
2551.49077	0.15114
2549.56221	0.15170
2547.63364	0.15223
2545.70508	0.15278
2543.77651	0.15349
2541.84795	0.15432
2539.91938	0.15498
2537.99082	0.15550
2536.06226	0.15615
2534.13369	0.15688
2532.20513	0.15759
2530.27656	0.15832
2528.34800	0.15905
2526.41943	0.15974
2524.49087	0.16042
2522.56230	0.16114
2520.63374	0.16194
2518.70518	0.16281
2516.77661	0.16367
2514.84805	0.16444
2512.91948	0.16520
2510.99092	0.16607
2509.06235	0.16699
2507.13379	0.16779
2505.20522	0.16845
2503.27666	0.16921
2501.34810	0.17009
2499.41953	0.17099
2497.49097	0.17199
2495.56240	0.17293
2493.63384	0.17369
2491.70527	0.17441
2489.77671	0.17528
2487.84814	0.17631
2485.91958	0.17723
2483.99102	0.17798
2482.06245	0.17884
2480.13389	0.17989
2478.20532	0.18094
2476.27676	0.18192
2474.34819	0.18285
2472.41963	0.18376
2470.49106	0.18470
2468.56250	0.18561
2466.63394	0.18645
2464.70537	0.18737
2462.77681	0.18843
2460.84824	0.18947
2458.91968	0.19045
2456.99111	0.19147
2455.06255	0.19248
2453.13398	0.19331
2451.20542	0.19411
2449.27686	0.19513
2447.34829	0.19628
2445.41973	0.19741
2443.49116	0.19842
2441.56260	0.19932
2439.63403	0.20038
2437.70547	0.20159
2435.77690	0.20268
2433.84834	0.20364
2431.91978	0.20460
2429.99121	0.20564
2428.06265	0.20673
2426.13408	0.20793
2424.20552	0.20913
2422.27695	0.21014
2420.34839	0.21109
2418.41982	0.21217
2416.49126	0.21330
2414.56270	0.21442
2412.63413	0.21563
2410.70557	0.21690
2408.77700	0.21816
2406.84844	0.21942
2404.91987	0.22065
2402.99131	0.22184
2401.06274	0.22303
2399.13418	0.22429
2397.20562	0.22550
2395.27705	0.22668
2393.34849	0.22796
2391.41992	0.22933
2389.49136	0.23071
2387.56279	0.23235
2385.63423	0.23435
2383.70566	0.23681
2381.77710	0.23996
2379.84854	0.24383
2377.91997	0.24818
2375.99141	0.25283
2374.06284	0.25803
2372.13428	0.26399
2370.20571	0.27018
2368.27715	0.27642
2366.34858	0.28291
2364.42002	0.28925
2362.49146	0.29511
2360.56289	0.29942
2358.63433	0.30093
2356.70576	0.29989
2354.77720	0.29666
2352.84863	0.29184
2350.92007	0.28698
2348.99150	0.28438
2347.06294	0.28518
2345.13437	0.28958
2343.20581	0.29544
2341.27725	0.29881
2339.34868	0.29991
2337.42012	0.30089
2335.49155	0.30197
2333.56299	0.30285
2331.63442	0.30445
2329.70586	0.30653
2327.77729	0.30749
2325.84873	0.30708
2323.92017	0.30616
2321.99160	0.30534
2320.06304	0.30480
2318.13447	0.30430
2316.20591	0.30378
2314.27734	0.30377
2312.34878	0.30458
2310.42021	0.30562
2308.49165	0.30612
2306.56309	0.30632
2304.63452	0.30690
2302.70596	0.30789
2300.77739	0.30892
2298.84883	0.30980
2296.92026	0.31074
2294.99170	0.31191
2293.06313	0.31317
2291.13457	0.31442
2289.20601	0.31574
2287.27744	0.31713
2285.34888	0.31853
2283.42031	0.32015
2281.49175	0.32212
2279.56318	0.32421
2277.63462	0.32627
2275.70605	0.32838
2273.77749	0.33050
2271.84893	0.33260
2269.92036	0.33468
2267.99180	0.33670
2266.06323	0.33866
2264.13467	0.34069
2262.20610	0.34284
2260.27754	0.34499
2258.34897	0.34700
2256.42041	0.34891
2254.49185	0.35084
2252.56328	0.35282
2250.63472	0.35485
2248.70615	0.35696
2246.77759	0.35909
2244.84902	0.36118
2242.92046	0.36334
2240.99189	0.36553
2239.06333	0.36759
2237.13477	0.36969
2235.20620	0.37197
2233.27764	0.37429
2231.34907	0.37656
2229.42051	0.37886
2227.49194	0.38118
2225.56338	0.38336
2223.63481	0.38545
2221.70625	0.38754
2219.77769	0.38960
2217.84912	0.39165
2215.92056	0.39376
2213.99199	0.39591
2212.06343	0.39806
2210.13486	0.40016
2208.20630	0.40221
2206.27773	0.40435
2204.34917	0.40655
2202.42061	0.40868
2200.49204	0.41075
2198.56348	0.41273
2196.63491	0.41454
2194.70635	0.41639
2192.77778	0.41846
2190.84922	0.42052
2188.92065	0.42230
2186.99209	0.42393
2185.06353	0.42561
2183.13496	0.42736
2181.20640	0.42915
2179.27783	0.43093
2177.34927	0.43259
2175.42070	0.43412
2173.49214	0.43567
2171.56357	0.43721
2169.63501	0.43866
2167.70645	0.43998
2165.77788	0.44116
2163.84932	0.44224
2161.92075	0.44326
2159.99219	0.44432
2158.06362	0.44543
2156.13506	0.44652
2154.20649	0.44754
2152.27793	0.44841
2150.34937	0.44908
2148.42080	0.44970
2146.49224	0.45038
2144.56367	0.45101
2142.63511	0.45156
2140.70654	0.45200
2138.77798	0.45234
2136.84941	0.45261
2134.92085	0.45282
2132.99229	0.45290
2131.06372	0.45285
2129.13516	0.45276
2127.20659	0.45260
2125.27803	0.45234
2123.34946	0.45195
2121.42090	0.45145
2119.49233	0.45087
2117.56377	0.45027
2115.63521	0.44963
2113.70664	0.44889
2111.77808	0.44805
2109.84951	0.44722
2107.92095	0.44647
2105.99238	0.44562
2104.06382	0.44451
2102.13525	0.44325
2100.20669	0.44198
2098.27812	0.44065
2096.34956	0.43927
2094.42100	0.43784
2092.49243	0.43630
2090.56387	0.43465
2088.63530	0.43294
2086.70674	0.43135
2084.77817	0.42978
2082.84961	0.42797
2080.92104	0.42599
2078.99248	0.42407
2077.06392	0.42222
2075.13535	0.42023
2073.20679	0.41809
2071.27822	0.41590
2069.34966	0.41367
2067.42109	0.41142
2065.49253	0.40923
2063.56396	0.40703
2061.63540	0.40479
2059.70684	0.40247
2057.77827	0.39992
2055.84971	0.39727
2053.92114	0.39472
2051.99258	0.39230
2050.06401	0.38987
2048.13545	0.38739
2046.20688	0.38486
2044.27832	0.38227
2042.34976	0.37968
2040.42119	0.37701
2038.49263	0.37422
2036.56406	0.37146
2034.63550	0.36881
2032.70693	0.36612
2030.77837	0.36340
2028.84980	0.36069
2026.92124	0.35804
2024.99268	0.35541
2023.06411	0.35275
2021.13555	0.35009
2019.20698	0.34748
2017.27842	0.34476
2015.34985	0.34181
2013.42129	0.33897
2011.49272	0.33641
2009.56416	0.33386
2007.63560	0.33119
2005.70703	0.32849
2003.77847	0.32578
2001.84990	0.32310
1999.92134	0.32045
1997.99277	0.31779
1996.06421	0.31526
1994.13564	0.31303
1992.20708	0.31090
1990.27852	0.30846
1988.34995	0.30580
1986.42139	0.30312
1984.49282	0.30058
1982.56426	0.29825
1980.63569	0.29597
1978.70713	0.29380
1976.77856	0.29169
1974.85000	0.28947
1972.92144	0.28714
1970.99287	0.28496
1969.06431	0.28299
1967.13574	0.28096
1965.20718	0.27874
1963.27861	0.27664
1961.35005	0.27476
1959.42148	0.27292
1957.49292	0.27111
1955.56436	0.26933
1953.63579	0.26752
1951.70723	0.26579
1949.77866	0.26421
1947.85010	0.26270
1945.92153	0.26133
1943.99297	0.26017
1942.06440	0.25883
1940.13584	0.25701
1938.20728	0.25521
1936.27871	0.25383
1934.35015	0.25257
1932.42158	0.25130
1930.49302	0.25015
1928.56445	0.24906
1926.63589	0.24796
1924.70732	0.24709
1922.77876	0.24644
1920.85020	0.24557
1918.92163	0.24461
1916.99307	0.24362
1915.06450	0.24245
1913.13594	0.24137
1911.20737	0.24065
1909.27881	0.24008
1907.35024	0.23937
1905.42168	0.23858
1903.49312	0.23794
1901.56455	0.23738
1899.63599	0.23682
1897.70742	0.23647
1895.77886	0.23634
1893.85029	0.23613
1891.92173	0.23576
1889.99316	0.23553
1888.06460	0.23522
1886.13604	0.23474
1884.20747	0.23440
1882.27891	0.23414
1880.35034	0.23391
1878.42178	0.23378
1876.49321	0.23374
1874.56465	0.23365
1872.63608	0.23373
1870.70752	0.23429
1868.77896	0.23523
1866.85039	0.23555
1864.92183	0.23511
1862.99326	0.23488
1861.06470	0.23509
1859.13613	0.23547
1857.20757	0.23574
1855.27900	0.23606
1853.35044	0.23646
1851.42187	0.23699
1849.49331	0.23771
1847.56475	0.23860
1845.63618	0.23964
1843.70762	0.24070
1841.77905	0.24118
1839.85049	0.24132
1837.92192	0.24198
1835.99336	0.24293
1834.06479	0.24391
1832.13623	0.24511
1830.20767	0.24682
1828.27910	0.24836
1826.35054	0.24927
1824.42197	0.25037
1822.49341	0.25144
1820.56484	0.25245
1818.63628	0.25371
1816.70771	0.25531
1814.77915	0.25699
1812.85059	0.25893
1810.92202	0.26112
1808.99346	0.26305
1807.06489	0.26474
1805.13633	0.26649
1803.20776	0.26869
1801.27920	0.27138
1799.35063	0.27433
1797.42207	0.27679
1795.49351	0.27918
1793.56494	0.28220
1791.63638	0.28600
1789.70781	0.28929
1787.77925	0.29154
1785.85068	0.29442
1783.92212	0.29814
1781.99355	0.30227
1780.06499	0.30652
1778.13643	0.31066
1776.20786	0.31457
1774.27930	0.31917
1772.35073	0.32557
1770.42217	0.33189
1768.49360	0.33665
1766.56504	0.34135
1764.63647	0.34651
1762.70791	0.35247
1760.77935	0.36002
1758.85078	0.36694
1756.92222	0.37388
1754.99365	0.38157
1753.06509	0.38863
1751.13652	0.39722
1749.20796	0.40818
1747.27939	0.41878
1745.35083	0.42784
1743.42227	0.43730
1741.49370	0.44767
1739.56514	0.45995
1737.63657	0.47235
1735.70801	0.48338
1733.77944	0.50010
1731.85088	0.51983
1729.92231	0.53503
1727.99375	0.55026
1726.06519	0.56675
1724.13662	0.58498
1722.20806	0.60478
1720.27949	0.62324
1718.35093	0.64529
1716.42236	0.67747
1714.49380	0.70705
1712.56523	0.73063
1710.63667	0.75383
1708.70811	0.77925
1706.77954	0.80846
1704.85098	0.84319
1702.92241	0.87386
1700.99385	0.90401
1699.06528	0.94863
1697.13672	0.98939
1695.20815	1.03106
1693.27959	1.07133
1691.35103	1.10379
1689.42246	1.14153
1687.49390	1.18132
1685.56533	1.21947
1683.63677	1.27757
1681.70820	1.33724
1679.77964	1.37564
1677.85107	1.41239
1675.92251	1.45457
1673.99395	1.50670
1672.06538	1.55331
1670.13682	1.59871
1668.20825	1.65636
1666.27969	1.70273
1664.35112	1.74171
1662.42256	1.78985
1660.49399	1.84339
1658.56543	1.88539
1656.63687	1.92042
1654.70830	1.95512
1652.77974	2.01330
1650.85117	2.06619
1648.92261	2.08445
1646.99404	2.11014
1645.06548	2.14173
1643.13691	2.16332
1641.20835	2.17672
1639.27979	2.18869
1637.35122	2.19840
1635.42266	2.20333
1633.49409	2.19742
1631.56553	2.18440
1629.63696	2.17052
1627.70840	2.14843
1625.77983	2.12063
1623.85127	2.08277
1621.92271	2.03545
1619.99414	1.99339
1618.06558	1.95211
1616.13701	1.89244
1614.20845	1.83064
1612.27988	1.78366
1610.35132	1.73569
1608.42275	1.68390
1606.49419	1.63168
1604.56562	1.58219
1602.63706	1.53450
1600.70850	1.48849
1598.77993	1.44560
1596.85137	1.40454
1594.92280	1.36471
1592.99424	1.32635
1591.06567	1.29111
1589.13711	1.25797
1587.20854	1.22669
1585.27998	1.19728
1583.35142	1.16945
1581.42285	1.14376
1579.49429	1.12173
1577.56572	1.10204
1575.63716	1.07737
1573.70859	1.05419
1571.78003	1.03849
1569.85146	1.02215
1567.92290	1.00351
1565.99434	0.98858
1564.06577	0.97618
1562.13721	0.96605
1560.20864	0.95814
1558.28008	0.94498
1556.35151	0.93142
1554.42295	0.92244
1552.49438	0.91377
1550.56582	0.90501
1548.63726	0.89581
1546.70869	0.88750
1544.78013	0.87966
1542.85156	0.87093
1540.92300	0.85977
1538.99443	0.84313
1537.06587	0.83054
1535.13730	0.82258
1533.20874	0.81262
1531.28018	0.80117
1529.35161	0.79261
1527.42305	0.78515
1525.49448	0.77762
1523.56592	0.77083
1521.63735	0.76377
1519.70879	0.75589
1517.78022	0.74913
1515.85166	0.74197
1513.92310	0.73467
1511.99453	0.72879
1510.06597	0.72408
1508.13740	0.71999
1506.20884	0.71275
1504.28027	0.70497
1502.35171	0.70036
1500.42314	0.69677
1498.49458	0.69321
1496.56602	0.68895
1494.63745	0.68434
1492.70889	0.68075
1490.78032	0.67810
1488.85176	0.67511
1486.92319	0.67143
1484.99463	0.66795
1483.06606	0.66509
1481.13750	0.66256
1479.20894	0.66013
1477.28037	0.65814
1475.35181	0.65679
1473.42324	0.65576
1471.49468	0.65343
1469.56611	0.64995
1467.63755	0.64706
1465.70898	0.64503
1463.78042	0.64331
1461.85186	0.64175
1459.92329	0.64090
1457.99473	0.64042
1456.06616	0.63832
1454.13760	0.63476
1452.20903	0.63174
1450.28047	0.62941
1448.35190	0.62768
1446.42334	0.62583
1444.49478	0.62361
1442.56621	0.62150
1440.63765	0.61977
1438.70908	0.61845
1436.78052	0.61701
1434.85195	0.61490
1432.92339	0.61278
1430.99482	0.61113
1429.06626	0.60963
1427.13770	0.60823
1425.20913	0.60729
1423.28057	0.60661
1421.35200	0.60588
1419.42344	0.60522
1417.49487	0.60410
1415.56631	0.60223
1413.63774	0.60049
1411.70918	0.59916
1409.78062	0.59802
1407.85205	0.59704
1405.92349	0.59639
1403.99492	0.59570
1402.06636	0.59462
1400.13779	0.59361
1398.20923	0.59265
1396.28066	0.59130
1394.35210	0.58935
1392.42354	0.58695
1390.49497	0.58475
1388.56641	0.58291
1386.63784	0.58086
1384.70928	0.57845
1382.78071	0.57631
1380.85215	0.57466
1378.92358	0.57349
1376.99502	0.57270
1375.06646	0.57193
1373.13789	0.57079
1371.20933	0.56954
1369.28076	0.56861
1367.35220	0.56784
1365.42363	0.56714
1363.49507	0.56665
1361.56650	0.56591
1359.63794	0.56458
1357.70937	0.56318
1355.78081	0.56205
1353.85225	0.56106
1351.92368	0.56005
1349.99512	0.55915
1348.06655	0.55836
1346.13799	0.55754
1344.20942	0.55671
1342.28086	0.55603
1340.35229	0.55549
1338.42373	0.55479
1336.49517	0.55379
1334.56660	0.55276
1332.63804	0.55193
1330.70947	0.55131
1328.78091	0.55078
1326.85234	0.55022
1324.92378	0.54971
1322.99521	0.54934
1321.06665	0.54911
1319.13809	0.54884
1317.20952	0.54832
1315.28096	0.54757
1313.35239	0.54676
1311.42383	0.54599
1309.49526	0.54528
1307.56670	0.54458
1305.63813	0.54383
1303.70957	0.54296
1301.78101	0.54207
1299.85244	0.54124
1297.92388	0.54043
1295.99531	0.53969
1294.06675	0.53901
1292.13818	0.53829
1290.20962	0.53754
1288.28105	0.53681
1286.35249	0.53615
1284.42393	0.53556
1282.49536	0.53496
1280.56680	0.53436
1278.63823	0.53372
1276.70967	0.53303
1274.78110	0.53235
1272.85254	0.53175
1270.92397	0.53121
1268.99541	0.53063
1267.06685	0.53006
1265.13828	0.52963
1263.20972	0.52917
1261.28115	0.52849
1259.35259	0.52788
1257.42402	0.52757
1255.49546	0.52734
1253.56689	0.52706
1251.63833	0.52670
1249.70977	0.52636
1247.78120	0.52609
1245.85264	0.52583
1243.92407	0.52540
1241.99551	0.52478
1240.06694	0.52413
1238.13838	0.52345
1236.20981	0.52265
1234.28125	0.52176
1232.35269	0.52086
1230.42412	0.52003
1228.49556	0.51919
1226.56699	0.51818
1224.63843	0.51711
1222.70986	0.51622
1220.78130	0.51545
1218.85273	0.51462
1216.92417	0.51382
1214.99561	0.51318
1213.06704	0.51260
1211.13848	0.51206
1209.20991	0.51156
1207.28135	0.51105
1205.35278	0.51059
1203.42422	0.51017
1201.49565	0.50959
1199.56709	0.50888
1197.63853	0.50816
1195.70996	0.50746
1193.78140	0.50696
1191.85283	0.50662
1189.92427	0.50623
1187.99570	0.50573
1186.06714	0.50519
1184.13857	0.50489
1182.21001	0.50506
1180.28145	0.50558
1178.35288	0.50615
1176.42432	0.50670
1174.49575	0.50730
1172.56719	0.50788
1170.63862	0.50836
1168.71006	0.50886
1166.78149	0.50942
1164.85293	0.50982
1162.92437	0.50998
1160.99580	0.51007
1159.06724	0.51003
1157.13867	0.50970
1155.21011	0.50902
1153.28154	0.50788
1151.35298	0.50633
1149.42441	0.50462
1147.49585	0.50278
1145.56729	0.50052
1143.63872	0.49789
1141.71016	0.49543
1139.78159	0.49335
1137.85303	0.49146
1135.92446	0.48975
1133.99590	0.48826
1132.06733	0.48690
1130.13877	0.48575
1128.21021	0.48472
1126.28164	0.48366
1124.35308	0.48285
1122.42451	0.48234
1120.49595	0.48199
1118.56738	0.48186
1116.63882	0.48168
1114.71025	0.48140
1112.78169	0.48157
1110.85312	0.48220
1108.92456	0.48300
1106.99600	0.48388
1105.06743	0.48478
1103.13887	0.48574
1101.21030	0.48698
1099.28174	0.48879
1097.35317	0.49126
1095.42461	0.49429
1093.49604	0.49782
1091.56748	0.50185
1089.63892	0.50680
1087.71035	0.51292
1085.78179	0.51992
1083.85322	0.52729
1081.92466	0.53415
1079.99609	0.53942
1078.06753	0.54249
1076.13896	0.54304
1074.21040	0.54096
1072.28184	0.53662
1070.35327	0.53055
1068.42471	0.52356
1066.49614	0.51666
1064.56758	0.51048
1062.63901	0.50515
1060.71045	0.50057
1058.78188	0.49657
1056.85332	0.49297
1054.92476	0.48962
1052.99619	0.48674
1051.06763	0.48465
1049.13906	0.48310
1047.21050	0.48177
1045.28193	0.48069
1043.35337	0.48004
1041.42480	0.47990
1039.49624	0.48012
1037.56768	0.48027
1035.63911	0.48016
1033.71055	0.47987
1031.78198	0.47928
1029.85342	0.47855
1027.92485	0.47795
1025.99629	0.47761
1024.06772	0.47768
1022.13916	0.47795
1020.21060	0.47822
1018.28203	0.47866
1016.35347	0.47921
1014.42490	0.47984
1012.49634	0.48065
1010.56777	0.48158
1008.63921	0.48263
1006.71064	0.48398
1004.78208	0.48568
1002.85352	0.48764
1000.92495	0.49002
998.99639	0.49301
997.06782	0.49654
995.13926	0.50036
993.21069	0.50426
991.28213	0.50778
989.35356	0.51034
987.42500	0.51172
985.49644	0.51238
983.56787	0.51292
981.63931	0.51359
979.71074	0.51479
977.78218	0.51666
975.85361	0.51883
973.92505	0.52121
971.99648	0.52418
970.06792	0.52771
968.13936	0.53149
966.21079	0.53552
964.28223	0.53991
962.35366	0.54464
960.42510	0.54967
958.49653	0.55495
956.56797	0.56035
954.63940	0.56584
952.71084	0.57175
950.78228	0.57823
948.85371	0.58487
946.92515	0.59139
944.99658	0.59774
943.06802	0.60383
941.13945	0.60973
939.21089	0.61537
937.28232	0.62077
935.35376	0.62641
933.42520	0.63239
931.49663	0.63841
929.56807	0.64405
927.63950	0.64928
925.71094	0.65485
923.78237	0.66112
921.85381	0.66751
919.92524	0.67377
917.99668	0.68059
916.06812	0.68806
914.13955	0.69562
912.21099	0.70327
910.28242	0.71118
908.35386	0.71928
906.42529	0.72743
904.49673	0.73573
902.56816	0.74440
900.63960	0.75319
898.71104	0.76202
896.78247	0.77129
894.85391	0.78118
892.92534	0.79172
890.99678	0.80231
889.06821	0.81271
887.13965	0.82360
885.21108	0.83453
883.28252	0.84526
881.35396	0.85705
879.42539	0.86990
877.49683	0.88213
875.56826	0.89286
873.63970	0.90305
871.71113	0.91405
869.78257	0.92526
867.85400	0.93504
865.92544	0.94380
863.99687	0.95393
862.06831	0.96655
860.13975	0.98019
858.21118	0.99353
856.28262	1.00498
854.35405	1.01422
852.42549	1.02475
850.49692	1.03720
848.56836	1.04941
846.63979	1.06143
844.71123	1.07327
842.78267	1.08485
840.85410	1.09724
838.92554	1.10919
836.99697	1.11874
835.06841	1.12792
833.13984	1.14070
831.21128	1.15795
829.28271	1.17565
827.35415	1.18835
825.42559	1.19380
823.49702	1.19836
821.56846	1.21261
819.63989	1.23617
817.71133	1.25545
815.78276	1.26305
813.85420	1.26806
811.92563	1.27856
809.99707	1.29284
808.06851	1.30764
806.13994	1.32048
804.21138	1.33029
802.28281	1.33708
800.35425	1.34238
798.42568	1.36372
796.49712	1.41553
794.56855	1.47820
792.63999	1.49790
790.71143	1.47145
788.78286	1.48669
786.85430	1.54426
784.92573	1.50906
782.99717	1.41031
781.06860	1.37954
779.14004	1.46128
777.21147	1.59441
775.28291	1.58527
773.35435	1.50836
771.42578	1.50882
769.49722	1.54127
767.56865	1.50127
765.64009	1.40779
763.71152	1.36594
761.78296	1.33928
759.85439	1.32220
757.92583	1.35398
755.99727	1.37103
754.06870	1.32346
752.14014	1.23531
750.21157	1.19773
748.28301	1.24745
746.35444	1.29724
744.42588	1.17992
742.49731	1.04353
740.56875	0.93922
738.64019	0.83996
736.71162	0.77539
734.78306	0.75155
732.85449	0.78385
730.92593	0.86733
728.99736	0.79062
727.06880	0.45015
725.14023	0.20514
723.21167	0.20801
721.28311	0.43529
719.35454	0.48738
717.42598	0.23109
715.49741	-0.03229
713.56885	-0.05924
711.64028	0.10229
709.71172	0.21711
707.78315	0.12411
705.85459	-0.03087
703.92603	-0.08821
701.99746	-0.07625
700.06890	0.01889
698.14033	0.15024
696.21177	0.21469
694.28320	0.19892
692.35464	0.17228
690.42607	0.20082
688.49751	0.20125
686.56895	0.17778
684.64038	0.25054
682.71182	0.43448
680.78325	0.51242
678.85469	0.39637
676.92612	0.32537
674.99756	0.25869
673.06899	0.11561
671.14043	0.04264
669.21187	0.11398
667.28330	0.22645
665.35474	0.27559
663.42617	0.31914
661.49761	0.33478
659.56904	0.25986
657.64048	0.17828
655.71191	0.12858
653.78335	0.12917
651.85479	0.17899
649.92622	0.22391
647.99766	0.22918
646.06909	0.20569
644.14053	0.18438
642.21196	0.19222
640.28340	0.23036
638.35483	0.29292
636.42627	0.35694
634.49771	0.31911
632.56914	0.25401
630.64058	0.27029
628.71201	0.26884
626.78345	0.18749
624.85488	0.14788
622.92632	0.16907
620.99775	0.22656
619.06919	0.32665
617.14062	0.36277
615.21206	0.28274
613.28350	0.24035
611.35493	0.27194
609.42637	0.28878
607.49780	0.23608
605.56924	0.19359
603.64067	0.21157
601.71211	0.27147
599.78354	0.30657
597.85498	0.28549
595.92642	0.25946
593.99785	0.25900
592.06929	0.26948
590.14072	0.26639
588.21216	0.24816
586.28359	0.23159
584.35503	0.22166
582.42646	0.21616
580.49790	0.22782
578.56934	0.27360
576.64077	0.30926
574.71221	0.26849
572.78364	0.18537
570.85508	0.11389
568.92651	0.08446
566.99795	0.09223
565.06938	0.12538
563.14082	0.17313
561.21226	0.19906
559.28369	0.14287
557.35513	0.09285
555.42656	0.13360
553.49800	0.23600
551.56943	0.26479
549.64087	0.23013
547.71230	0.18696
545.78374	0.14684
543.85518	0.15714
541.92661	0.23773
539.99805	0.34407
538.06948	0.35691
536.14092	0.34221
534.21235	0.36854
532.28379	0.36724
530.35522	0.33112
528.42666	0.25296
526.49810	0.17980
524.56953	0.15606
522.64097	0.19293
520.71240	0.29195
518.78384	0.34697
516.85527	0.26600
514.92671	0.19350
512.99814	0.18080
511.06958	0.16901
509.14102	0.13132
507.21245	0.08807
505.28389	0.07291
503.35532	0.13380
501.42676	0.22119
499.49819	0.24930
