3997.91411	0.07104
3995.98555	0.07146
3994.05698	0.07203
3992.12842	0.07242
3990.19985	0.07273
3988.27129	0.07309
3986.34272	0.07328
3984.41416	0.07325
3982.48560	0.07322
3980.55703	0.07343
3978.62847	0.07392
3976.69990	0.07441
3974.77134	0.07469
3972.84277	0.07484
3970.91421	0.07496
3968.98564	0.07486
3967.05708	0.07465
3965.12852	0.07486
3963.19995	0.07529
3961.27139	0.07535
3959.34282	0.07529
3957.41426	0.07563
3955.48569	0.07616
3953.55713	0.07639
3951.62856	0.07636
3949.70000	0.07647
3947.77144	0.07671
3945.84287	0.07675
3943.91431	0.07658
3941.98574	0.07634
3940.05718	0.07631
3938.12861	0.07652
3936.20005	0.07662
3934.27148	0.07659
3932.34292	0.07640
3930.41436	0.07611
3928.48579	0.07594
3926.55723	0.07602
3924.62866	0.07643
3922.70010	0.07645
3920.77153	0.07595
3918.84297	0.07601
3916.91440	0.07644
3914.98584	0.07629
3913.05728	0.07561
3911.12871	0.07500
3909.20015	0.07482
3907.27158	0.07528
3905.34302	0.07640
3903.41445	0.07767
3901.48589	0.07830
3899.55732	0.07789
3897.62876	0.07657
3895.70020	0.07553
3893.77163	0.07552
3891.84307	0.07621
3889.91450	0.07685
3887.98594	0.07710
3886.05737	0.07742
3884.12881	0.07762
3882.20024	0.07735
3880.27168	0.07731
3878.34312	0.07734
3876.41455	0.07712
3874.48599	0.07712
3872.55742	0.07740
3870.62886	0.07804
3868.70029	0.07889
3866.77173	0.07913
3864.84316	0.07925
3862.91460	0.07969
3860.98604	0.07968
3859.05747	0.07949
3857.12891	0.08007
3855.20034	0.08172
3853.27178	0.08375
3851.34321	0.08392
3849.41465	0.08249
3847.48608	0.08191
3845.55752	0.08245
3843.62896	0.08352
3841.70039	0.08481
3839.77183	0.08647
3837.84326	0.08777
3835.91470	0.08752
3833.98613	0.08666
3832.05757	0.08651
3830.12900	0.08720
3828.20044	0.08833
3826.27187	0.08953
3824.34331	0.09036
3822.41475	0.09140
3820.48618	0.09344
3818.55762	0.09434
3816.62905	0.09403
3814.70049	0.09450
3812.77192	0.09516
3810.84336	0.09581
3808.91479	0.09706
3806.98623	0.09895
3805.05767	0.10036
3803.12910	0.10108
3801.20054	0.10265
3799.27197	0.10407
3797.34341	0.10437
3795.41484	0.10512
3793.48628	0.10602
3791.55771	0.10671
3789.62915	0.10776
3787.70059	0.10907
3785.77202	0.11038
3783.84346	0.11171
3781.91489	0.11319
3779.98633	0.11508
3778.05776	0.11697
3776.12920	0.11817
3774.20063	0.11930
3772.27207	0.12097
3770.34351	0.12334
3768.41494	0.12594
3766.48638	0.12799
3764.55781	0.12995
3762.62925	0.13197
3760.70068	0.13398
3758.77212	0.13631
3756.84355	0.13867
3754.91499	0.14078
3752.98643	0.14355
3751.05786	0.14812
3749.12930	0.15336
3747.20073	0.15611
3745.27217	0.15777
3743.34360	0.16057
3741.41504	0.16360
3739.48647	0.16629
3737.55791	0.16996
3735.62935	0.17541
3733.70078	0.18163
3731.77222	0.18669
3729.84365	0.19073
3727.91509	0.19456
3725.98652	0.19950
3724.05796	0.20564
3722.12939	0.21191
3720.20083	0.21858
3718.27227	0.22585
3716.34370	0.23342
3714.41514	0.24137
3712.48657	0.25108
3710.55801	0.26429
3708.62944	0.27840
3706.70088	0.29029
3704.77231	0.30150
3702.84375	0.31432
3700.91519	0.33110
3698.98662	0.35000
3697.05806	0.36795
3695.12949	0.38639
3693.20093	0.40588
3691.27236	0.42767
3689.34380	0.45616
3687.41523	0.49046
3685.48667	0.52062
3683.55811	0.54709
3681.62954	0.57530
3679.70098	0.60704
3677.77241	0.64065
3675.84385	0.67986
3673.91528	0.73221
3671.98672	0.77603
3670.05815	0.81533
3668.12959	0.86886
3666.20103	0.91784
3664.27246	0.95838
3662.34390	1.00175
3660.41533	1.04902
3658.48677	1.09557
3656.55820	1.14468
3654.62964	1.19979
3652.70107	1.24720
3650.77251	1.28894
3648.84395	1.34460
3646.91538	1.41170
3644.98682	1.46215
3643.05825	1.50147
3641.12969	1.54183
3639.20112	1.58652
3637.27256	1.63156
3635.34399	1.67531
3633.41543	1.71890
3631.48687	1.75982
3629.55830	1.80087
3627.62974	1.85320
3625.70117	1.90304
3623.77261	1.93814
3621.84404	1.97127
3619.91548	2.00836
3617.98691	2.05291
3616.05835	2.09663
3614.12979	2.13446
3612.20122	2.17407
3610.27266	2.21325
3608.34409	2.25308
3606.41553	2.29612
3604.48696	2.33578
3602.55840	2.37044
3600.62983	2.40708
3598.70127	2.44659
3596.77271	2.48649
3594.84414	2.52903
3592.91558	2.57281
3590.98701	2.61297
3589.05845	2.65034
3587.12988	2.69414
3585.20132	2.74082
3583.27275	2.77911
3581.34419	2.81428
3579.41562	2.85367
3577.48706	2.89778
3575.55850	2.94262
3573.62993	2.98671
3571.70137	3.02911
3569.77280	3.06909
3567.84424	3.10881
3565.91567	3.15692
3563.98711	3.20865
3562.05854	3.25377
3560.12998	3.29567
3558.20142	3.33742
3556.27285	3.38100
3554.34429	3.42527
3552.41572	3.47036
3550.48716	3.51548
3548.55859	3.55988
3546.63003	3.60620
3544.70146	3.65662
3542.77290	3.70652
3540.84434	3.75195
3538.91577	3.79697
3536.98721	3.84358
3535.05864	3.89243
3533.13008	3.94204
3531.20151	3.99089
3529.27295	4.04018
3527.34438	4.08796
3525.41582	4.12894
3523.48726	4.17001
3521.55869	4.22183
3519.63013	4.27617
3517.70156	4.32414
3515.77300	4.36965
3513.84443	4.41697
3511.91587	4.46477
3509.98730	4.51168
3508.05874	4.55978
3506.13018	4.61074
3504.20161	4.66240
3502.27305	4.71473
3500.34448	4.76715
3498.41592	4.81311
3496.48735	4.85295
3494.55879	4.89560
3492.63022	4.94592
3490.70166	4.99894
3488.77310	5.05047
3486.84453	5.09947
3484.91597	5.14210
3482.98740	5.18507
3481.05884	5.23837
3479.13027	5.28996
3477.20171	5.33185
3475.27314	5.37506
3473.34458	5.42424
3471.41602	5.47577
3469.48745	5.52604
3467.55889	5.57166
3465.63032	5.61457
3463.70176	5.66266
3461.77319	5.71502
3459.84463	5.77303
3457.91606	5.83035
3455.98750	5.87617
3454.05894	5.92232
3452.13037	5.97440
3450.20181	6.02140
3448.27324	6.05834
3446.34468	6.09660
3444.41611	6.14583
3442.48755	6.20736
3440.55898	6.27348
3438.63042	6.33107
3436.70186	6.37339
3434.77329	6.40494
3432.84473	6.44840
3430.91616	6.51252
3428.98760	6.57826
3427.05903	6.62640
3425.13047	6.66496
3423.20190	6.71864
3421.27334	6.79440
3419.34478	6.85902
3417.41621	6.89665
3415.48765	6.93654
3413.55908	6.98619
3411.63052	7.03426
3409.70195	7.07576
3407.77339	7.10633
3405.84482	7.12449
3403.91626	7.16442
3401.98770	7.22929
3400.05913	7.28019
3398.13057	7.31589
3396.20200	7.35702
3394.27344	7.38931
3392.34487	7.39813
3390.41631	7.44316
3388.48774	7.53413
3386.55918	7.59824
3384.63062	7.59514
3382.70205	7.57389
3380.77349	7.58522
3378.84492	7.60758
3376.91636	7.61226
3374.98779	7.62877
3373.05923	7.69606
3371.13066	7.75083
3369.20210	7.79308
3367.27354	7.90102
3365.34497	8.01244
3363.41641	7.99827
3361.48784	7.88984
3359.55928	7.80703
3357.63071	7.79956
3355.70215	7.84617
3353.77358	7.86849
3351.84502	7.84800
3349.91646	7.84212
3347.98789	7.90006
3346.05933	7.98584
3344.13076	8.04210
3342.20220	8.05704
3340.27363	8.02766
3338.34507	8.01727
3336.41650	8.00846
3334.48794	7.96043
3332.55937	7.96058
3330.63081	8.06544
3328.70225	8.17589
3326.77368	8.18933
3324.84512	8.14310
3322.91655	8.10406
3320.98799	8.12018
3319.05942	8.18293
3317.13086	8.25152
3315.20229	8.28966
3313.27373	8.29197
3311.34517	8.26891
3309.41660	8.28603
3307.48804	8.33834
3305.55947	8.32856
3303.63091	8.31716
3301.70234	8.32233
3299.77378	8.29906
3297.84521	8.28613
3295.91665	8.29315
3293.98809	8.28297
3292.05952	8.26320
3290.13096	8.27679
3288.20239	8.33479
3286.27383	8.38743
3284.34526	8.36900
3282.41670	8.27678
3280.48813	8.16465
3278.55957	8.12154
3276.63101	8.15361
3274.70244	8.21622
3272.77388	8.27433
3270.84531	8.32612
3268.91675	8.37691
3266.98818	8.33608
3265.05962	8.26720
3263.13105	8.32049
3261.20249	8.43877
3259.27393	8.45016
3257.34536	8.34039
3255.41680	8.25359
3253.48823	8.29262
3251.55967	8.36439
3249.63110	8.35154
3247.70254	8.37375
3245.77397	8.42187
3243.84541	8.32597
3241.91685	8.15290
3239.98828	8.06504
3238.05972	8.09450
3236.13115	8.16645
3234.20259	8.17238
3232.27402	8.11014
3230.34546	8.06624
3228.41689	8.02323
3226.48833	7.92144
3224.55977	7.82733
3222.63120	7.86078
3220.70264	8.00285
3218.77407	8.06271
3216.84551	8.01803
3214.91694	8.01879
3212.98838	8.01862
3211.05981	7.96533
3209.13125	7.94040
3207.20269	7.90220
3205.27412	7.80062
3203.34556	7.76342
3201.41699	7.83408
3199.48843	7.85614
3197.55986	7.76412
3195.63130	7.67003
3193.70273	7.63448
3191.77417	7.59652
3189.84561	7.49174
3187.91704	7.38897
3185.98848	7.36618
3184.05991	7.37339
3182.13135	7.32238
3180.20278	7.25810
3178.27422	7.22972
3176.34565	7.18788
3174.41709	7.11821
3172.48853	7.04973
3170.55996	6.98191
3168.63140	6.91023
3166.70283	6.86406
3164.77427	6.83921
3162.84570	6.78456
3160.91714	6.70398
3158.98857	6.63158
3157.06001	6.56792
3155.13145	6.49439
3153.20288	6.40371
3151.27432	6.32106
3149.34575	6.25974
3147.41719	6.19804
3145.48862	6.12427
3143.56006	6.05432
3141.63149	5.99250
3139.70293	5.91729
3137.77437	5.83220
3135.84580	5.75768
3133.91724	5.69044
3131.98867	5.62604
3130.06011	5.56586
3128.13154	5.50315
3126.20298	5.43412
3124.27441	5.36415
3122.34585	5.29299
3120.41729	5.21468
3118.48872	5.13424
3116.56016	5.05887
3114.63159	4.98724
3112.70303	4.91803
3110.77446	4.84989
3108.84590	4.78367
3106.91733	4.72197
3104.98877	4.66025
3103.06021	4.59283
3101.13164	4.52306
3099.20308	4.45568
3097.27451	4.38803
3095.34595	4.32006
3093.41738	4.25509
3091.48882	4.19137
3089.56025	4.12654
3087.63169	4.06291
3085.70312	4.00279
3083.77456	3.94371
3081.84600	3.88435
3079.91743	3.82519
3077.98887	3.76587
3076.06030	3.70690
3074.13174	3.64931
3072.20317	3.59432
3070.27461	3.54043
3068.34604	3.48507
3066.41748	3.42882
3064.48892	3.37396
3062.56035	3.32090
3060.63179	3.26687
3058.70322	3.21103
3056.77466	3.15648
3054.84609	3.10406
3052.91753	3.05224
3050.98896	3.00124
3049.06040	2.95199
3047.13184	2.90346
3045.20327	2.85415
3043.27471	2.80523
3041.34614	2.75738
3039.41758	2.71020
3037.48901	2.66493
3035.56045	2.62116
3033.63188	2.57673
3031.70332	2.53159
3029.77476	2.48731
3027.84619	2.44476
3025.91763	2.40302
3023.98906	2.36109
3022.06050	2.31974
3020.13193	2.27957
3018.20337	2.23991
3016.27480	2.20032
3014.34624	2.16115
3012.41768	2.12297
3010.48911	2.08609
3008.56055	2.05007
3006.63198	2.01412
3004.70342	1.97863
3002.77485	1.94412
3000.84629	1.91053
2998.91772	1.87790
2996.98916	1.84570
2995.06060	1.81357
2993.13203	1.78221
2991.20347	1.75182
2989.27490	1.72189
2987.34634	1.69272
2985.41777	1.66432
2983.48921	1.63602
2981.56064	1.60799
2979.63208	1.58111
2977.70352	1.55550
2975.77495	1.53054
2973.84639	1.50542
2971.91782	1.48008
2969.98926	1.45522
2968.06069	1.43122
2966.13213	1.40779
2964.20356	1.38405
2962.27500	1.36015
2960.34644	1.33705
2958.41787	1.31405
2956.48931	1.29026
2954.56074	1.26633
2952.63218	1.24317
2950.70361	1.22073
2948.77505	1.19874
2946.84648	1.17730
2944.91792	1.15628
2942.98936	1.13570
2941.06079	1.11580
2939.13223	1.09630
2937.20366	1.07688
2935.27510	1.05757
2933.34653	1.03842
2931.41797	1.01945
2929.48940	1.00038
2927.56084	0.98101
2925.63228	0.96209
2923.70371	0.94452
2921.77515	0.92784
2919.84658	0.91130
2917.91802	0.89493
2915.98945	0.87850
2914.06089	0.86208
2912.13232	0.84677
2910.20376	0.83255
2908.27520	0.81809
2906.34663	0.80315
2904.41807	0.78856
2902.48950	0.77465
2900.56094	0.76131
2898.63237	0.74836
2896.70381	0.73543
2894.77524	0.72254
2892.84668	0.71008
2890.91812	0.69803
2888.98955	0.68639
2887.06099	0.67550
2885.13242	0.66528
2883.20386	0.65536
2881.27529	0.64549
2879.34673	0.63580
2877.41816	0.62648
2875.48960	0.61722
2873.56104	0.60765
2871.63247	0.59746
2869.70391	0.58640
2867.77534	0.57490
2865.84678	0.56366
2863.91821	0.55295
2861.98965	0.54274
2860.06108	0.53278
2858.13252	0.52302
2856.20396	0.51373
2854.27539	0.50498
2852.34683	0.49668
2850.41826	0.48853
2848.48970	0.48031
2846.56113	0.47240
2844.63257	0.46511
2842.70400	0.45827
2840.77544	0.45175
2838.84687	0.44561
2836.91831	0.43978
2834.98975	0.43400
2833.06118	0.42813
2831.13262	0.42224
2829.20405	0.41641
2827.27549	0.41053
2825.34692	0.40455
2823.41836	0.39867
2821.48979	0.39307
2819.56123	0.38757
2817.63267	0.38187
2815.70410	0.37615
2813.77554	0.37082
2811.84697	0.36582
2809.91841	0.36071
2807.98984	0.35547
2806.06128	0.35037
2804.13271	0.34544
2802.20415	0.34057
2800.27559	0.33564
2798.34702	0.33073
2796.41846	0.32602
2794.48989	0.32159
2792.56133	0.31740
2790.63276	0.31325
2788.70420	0.30899
2786.77563	0.30483
2784.84707	0.30078
2782.91851	0.29669
2780.98994	0.29273
2779.06138	0.28895
2777.13281	0.28515
2775.20425	0.28135
2773.27568	0.27768
2771.34712	0.27408
2769.41855	0.27053
2767.48999	0.26706
2765.56143	0.26366
2763.63286	0.26026
2761.70430	0.25703
2759.77573	0.25411
2757.84717	0.25131
2755.91860	0.24851
2753.99004	0.24555
2752.06147	0.24230
2750.13291	0.23918
2748.20435	0.23648
2746.27578	0.23394
2744.34722	0.23132
2742.41865	0.22861
2740.49009	0.22591
2738.56152	0.22330
2736.63296	0.22089
2734.70439	0.21872
2732.77583	0.21653
2730.84727	0.21404
2728.91870	0.21147
2726.99014	0.20914
2725.06157	0.20706
2723.13301	0.20522
2721.20444	0.20341
2719.27588	0.20146
2717.34731	0.19959
2715.41875	0.19786
2713.49019	0.19614
2711.56162	0.19439
2709.63306	0.19251
2707.70449	0.19057
2705.77593	0.18882
2703.84736	0.18721
2701.91880	0.18565
2699.99023	0.18422
2698.06167	0.18293
2696.13311	0.18170
2694.20454	0.18046
2692.27598	0.17924
2690.34741	0.17804
2688.41885	0.17684
2686.49028	0.17573
2684.56172	0.17466
2682.63315	0.17349
2680.70459	0.17218
2678.77603	0.17086
2676.84746	0.16966
2674.91890	0.16863
2672.99033	0.16774
2671.06177	0.16686
2669.13320	0.16590
2667.20464	0.16491
2665.27607	0.16403
2663.34751	0.16328
2661.41895	0.16260
2659.49038	0.16183
2657.56182	0.16088
2655.63325	0.15995
2653.70469	0.15934
2651.77612	0.15893
2649.84756	0.15837
2647.91899	0.15775
2645.99043	0.15724
2644.06187	0.15676
2642.13330	0.15614
2640.20474	0.15546
2638.27617	0.15498
2636.34761	0.15463
2634.41904	0.15411
2632.49048	0.15353
2630.56191	0.15305
2628.63335	0.15273
2626.70479	0.15261
2624.77622	0.15245
2622.84766	0.15213
2620.91909	0.15176
2618.99053	0.15142
2617.06196	0.15117
2615.13340	0.15100
2613.20483	0.15083
2611.27627	0.15079
2609.34771	0.15082
2607.41914	0.15077
2605.49058	0.15070
2603.56201	0.15061
2601.63345	0.15048
2599.70488	0.15049
2597.77632	0.15069
2595.84775	0.15087
2593.91919	0.15096
2591.99062	0.15102
2590.06206	0.15105
2588.13350	0.15111
2586.20493	0.15124
2584.27637	0.15147
2582.34780	0.15175
2580.41924	0.15195
2578.49067	0.15209
2576.56211	0.15225
2574.63354	0.15251
2572.70498	0.15281
2570.77642	0.15307
2568.84785	0.15336
2566.91929	0.15375
2564.99072	0.15414
2563.06216	0.15462
2561.13359	0.15524
2559.20503	0.15578
2557.27646	0.15614
2555.34790	0.15649
2553.41934	0.15698
2551.49077	0.15754
2549.56221	0.15802
2547.63364	0.15851
2545.70508	0.15914
2543.77651	0.15970
2541.84795	0.16020
2539.91938	0.16081
2537.99082	0.16151
2536.06226	0.16216
2534.13369	0.16273
2532.20513	0.16332
2530.27656	0.16400
2528.34800	0.16476
2526.41943	0.16546
2524.49087	0.16608
2522.56230	0.16674
2520.63374	0.16742
2518.70518	0.16816
2516.77661	0.16901
2514.84805	0.16983
2512.91948	0.17055
2510.99092	0.17129
2509.06235	0.17202
2507.13379	0.17273
2505.20522	0.17352
2503.27666	0.17440
2501.34810	0.17533
2499.41953	0.17632
2497.49097	0.17723
2495.56240	0.17792
2493.63384	0.17854
2491.70527	0.17935
2489.77671	0.18032
2487.84814	0.18128
2485.91958	0.18216
2483.99102	0.18295
2482.06245	0.18377
2480.13389	0.18465
2478.20532	0.18553
2476.27676	0.18645
2474.34819	0.18741
2472.41963	0.18838
2470.49106	0.18932
2468.56250	0.19017
2466.63394	0.19091
2464.70537	0.19174
2462.77681	0.19272
2460.84824	0.19366
2458.91968	0.19452
2456.99111	0.19541
2455.06255	0.19631
2453.13398	0.19725
2451.20542	0.19829
2449.27686	0.19928
2447.34829	0.20019
2445.41973	0.20108
2443.49116	0.20200
2441.56260	0.20302
2439.63403	0.20416
2437.70547	0.20532
2435.77690	0.20644
2433.84834	0.20748
2431.91978	0.20838
2429.99121	0.20929
2428.06265	0.21036
2426.13408	0.21149
2424.20552	0.21254
2422.27695	0.21359
2420.34839	0.21481
2418.41982	0.21607
2416.49126	0.21707
2414.56270	0.21793
2412.63413	0.21896
2410.70557	0.22014
2408.77700	0.22132
2406.84844	0.22250
2404.91987	0.22367
2402.99131	0.22480
2401.06274	0.22599
2399.13418	0.22731
2397.20562	0.22866
2395.27705	0.22990
2393.34849	0.23103
2391.41992	0.23215
2389.49136	0.23337
2387.56279	0.23487
2385.63423	0.23658
2383.70566	0.23826
2381.77710	0.23981
2379.84854	0.24153
2377.91997	0.24365
2375.99141	0.24611
2374.06284	0.24885
2372.13428	0.25171
2370.20571	0.25458
2368.27715	0.25757
2366.34858	0.26120
2364.42002	0.26532
2362.49146	0.26818
2360.56289	0.26923
2358.63433	0.27024
2356.70576	0.27158
2354.77720	0.27202
2352.84863	0.27153
2350.92007	0.27089
2348.99150	0.27085
2347.06294	0.27185
2345.13437	0.27421
2343.20581	0.27719
2341.27725	0.27925
2339.34868	0.28068
2337.42012	0.28215
2335.49155	0.28348
2333.56299	0.28442
2331.63442	0.28546
2329.70586	0.28688
2327.77729	0.28842
2325.84873	0.28973
2323.92017	0.29092
2321.99160	0.29228
2320.06304	0.29347
2318.13447	0.29430
2316.20591	0.29498
2314.27734	0.29586
2312.34878	0.29726
2310.42021	0.29892
2308.49165	0.30023
2306.56309	0.30146
2304.63452	0.30288
2302.70596	0.30436
2300.77739	0.30605
2298.84883	0.30789
2296.92026	0.30963
2294.99170	0.31119
2293.06313	0.31264
2291.13457	0.31425
2289.20601	0.31610
2287.27744	0.31784
2285.34888	0.31937
2283.42031	0.32101
2281.49175	0.32300
2279.56318	0.32522
2277.63462	0.32742
2275.70605	0.32949
2273.77749	0.33146
2271.84893	0.33334
2269.92036	0.33523
2267.99180	0.33724
2266.06323	0.33931
2264.13467	0.34148
2262.20610	0.34375
2260.27754	0.34585
2258.34897	0.34780
2256.42041	0.34979
2254.49185	0.35189
2252.56328	0.35393
2250.63472	0.35589
2248.70615	0.35798
2246.77759	0.36023
2244.84902	0.36243
2242.92046	0.36456
2240.99189	0.36680
2239.06333	0.36909
2237.13477	0.37128
2235.20620	0.37335
2233.27764	0.37545
2231.34907	0.37763
2229.42051	0.37982
2227.49194	0.38198
2225.56338	0.38413
2223.63481	0.38628
2221.70625	0.38848
2219.77769	0.39071
2217.84912	0.39285
2215.92056	0.39490
2213.99199	0.39699
2212.06343	0.39919
2210.13486	0.40135
2208.20630	0.40349
2206.27773	0.40557
2204.34917	0.40754
2202.42061	0.40955
2200.49204	0.41164
2198.56348	0.41367
2196.63491	0.41561
2194.70635	0.41747
2192.77778	0.41932
2190.84922	0.42113
2188.92065	0.42290
2186.99209	0.42469
2185.06353	0.42655
2183.13496	0.42837
2181.20640	0.43010
2179.27783	0.43173
2177.34927	0.43325
2175.42070	0.43475
2173.49214	0.43622
2171.56357	0.43760
2169.63501	0.43903
2167.70645	0.44050
2165.77788	0.44181
2163.84932	0.44299
2161.92075	0.44412
2159.99219	0.44516
2158.06362	0.44612
2156.13506	0.44706
2154.20649	0.44803
2152.27793	0.44889
2150.34937	0.44959
2148.42080	0.45024
2146.49224	0.45092
2144.56367	0.45158
2142.63511	0.45208
2140.70654	0.45240
2138.77798	0.45268
2136.84941	0.45295
2134.92085	0.45304
2132.99229	0.45293
2131.06372	0.45277
2129.13516	0.45261
2127.20659	0.45246
2125.27803	0.45234
2123.34946	0.45212
2121.42090	0.45173
2119.49233	0.45127
2117.56377	0.45064
2115.63521	0.44981
2113.70664	0.44909
2111.77808	0.44848
2109.84951	0.44768
2107.92095	0.44670
2105.99238	0.44563
2104.06382	0.44444
2102.13525	0.44323
2100.20669	0.44204
2098.27812	0.44071
2096.34956	0.43924
2094.42100	0.43779
2092.49243	0.43639
2090.56387	0.43494
2088.63530	0.43327
2086.70674	0.43137
2084.77817	0.42950
2082.84961	0.42776
2080.92104	0.42599
2078.99248	0.42407
2077.06392	0.42198
2075.13535	0.41986
2073.20679	0.41776
2071.27822	0.41558
2069.34966	0.41336
2067.42109	0.41116
2065.49253	0.40898
2063.56396	0.40680
2061.63540	0.40458
2059.70684	0.40217
2057.77827	0.39967
2055.84971	0.39723
2053.92114	0.39475
2051.99258	0.39220
2050.06401	0.38959
2048.13545	0.38694
2046.20688	0.38431
2044.27832	0.38175
2042.34976	0.37918
2040.42119	0.37665
2038.49263	0.37410
2036.56406	0.37135
2034.63550	0.36851
2032.70693	0.36572
2030.77837	0.36297
2028.84980	0.36025
2026.92124	0.35757
2024.99268	0.35493
2023.06411	0.35226
2021.13555	0.34951
2019.20698	0.34676
2017.27842	0.34404
2015.34985	0.34137
2013.42129	0.33871
2011.49272	0.33594
2009.56416	0.33320
2007.63560	0.33061
2005.70703	0.32802
2003.77847	0.32539
2001.84990	0.32275
1999.92134	0.32010
1997.99277	0.31750
1996.06421	0.31504
1994.13564	0.31276
1992.20708	0.31043
1990.27852	0.30784
1988.34995	0.30520
1986.42139	0.30268
1984.49282	0.30027
1982.56426	0.29799
1980.63569	0.29573
1978.70713	0.29335
1976.77856	0.29097
1974.85000	0.28878
1972.92144	0.28675
1970.99287	0.28473
1969.06431	0.28266
1967.13574	0.28057
1965.20718	0.27847
1963.27861	0.27645
1961.35005	0.27456
1959.42148	0.27278
1957.49292	0.27104
1955.56436	0.26924
1953.63579	0.26747
1951.70723	0.26574
1949.77866	0.26411
1947.85010	0.26258
1945.92153	0.26104
1943.99297	0.25959
1942.06440	0.25821
1940.13584	0.25668
1938.20728	0.25511
1936.27871	0.25372
1934.35015	0.25246
1932.42158	0.25123
1930.49302	0.24998
1928.56445	0.24880
1926.63589	0.24770
1924.70732	0.24671
1922.77876	0.24577
1920.85020	0.24482
1918.92163	0.24392
1916.99307	0.24301
1915.06450	0.24207
1913.13594	0.24123
1911.20737	0.24053
1909.27881	0.23983
1907.35024	0.23909
1905.42168	0.23837
1903.49312	0.23774
1901.56455	0.23710
1899.63599	0.23650
1897.70742	0.23614
1895.77886	0.23590
1893.85029	0.23557
1891.92173	0.23521
1889.99316	0.23505
1888.06460	0.23482
1886.13604	0.23439
1884.20747	0.23404
1882.27891	0.23385
1880.35034	0.23368
1878.42178	0.23350
1876.49321	0.23345
1874.56465	0.23346
1872.63608	0.23353
1870.70752	0.23383
1868.77896	0.23446
1866.85039	0.23484
1864.92183	0.23478
1862.99326	0.23473
1861.06470	0.23484
1859.13613	0.23509
1857.20757	0.23534
1855.27900	0.23574
1853.35044	0.23624
1851.42187	0.23674
1849.49331	0.23728
1847.56475	0.23803
1845.63618	0.23896
1843.70762	0.23986
1841.77905	0.24040
1839.85049	0.24075
1837.92192	0.24153
1835.99336	0.24252
1834.06479	0.24347
1832.13623	0.24449
1830.20767	0.24599
1828.27910	0.24749
1826.35054	0.24851
1824.42197	0.24972
1822.49341	0.25097
1820.56484	0.25215
1818.63628	0.25348
1816.70771	0.25513
1814.77915	0.25681
1812.85059	0.25858
1810.92202	0.26058
1808.99346	0.26251
1807.06489	0.26426
1805.13633	0.26599
1803.20776	0.26816
1801.27920	0.27072
1799.35063	0.27350
1797.42207	0.27601
1795.49351	0.27843
1793.56494	0.28126
1791.63638	0.28494
1789.70781	0.28832
1787.77925	0.29070
1785.85068	0.29359
1783.92212	0.29717
1781.99355	0.30113
1780.06499	0.30538
1778.13643	0.30966
1776.20786	0.31358
1774.27930	0.31785
1772.35073	0.32370
1770.42217	0.32991
1768.49360	0.33507
1766.56504	0.34015
1764.63647	0.34551
1762.70791	0.35134
1760.77935	0.35857
1758.85078	0.36544
1756.92222	0.37256
1754.99365	0.38040
1753.06509	0.38749
1751.13652	0.39577
1749.20796	0.40605
1747.27939	0.41631
1745.35083	0.42548
1743.42227	0.43501
1741.49370	0.44532
1739.56514	0.45752
1737.63657	0.46993
1735.70801	0.48090
1733.77944	0.49718
1731.85088	0.51673
1729.92231	0.53226
1727.99375	0.54777
1726.06519	0.56446
1724.13662	0.58272
1722.20806	0.60233
1720.27949	0.62030
1718.35093	0.64126
1716.42236	0.67250
1714.49380	0.70275
1712.56523	0.72760
1710.63667	0.75163
1708.70811	0.77708
1706.77954	0.80576
1704.85098	0.84047
1702.92241	0.87212
1700.99385	0.90370
1699.06528	0.95016
1697.13672	0.99272
1695.20815	1.03656
1693.27959	1.07942
1691.35103	1.11417
1689.42246	1.15447
1687.49390	1.19732
1685.56533	1.23929
1683.63677	1.30417
1681.70820	1.37062
1679.77964	1.41296
1677.85107	1.45356
1675.92251	1.50021
1673.99395	1.55745
1672.06538	1.60856
1670.13682	1.65952
1668.20825	1.72602
1666.27969	1.78037
1664.35112	1.82630
1662.42256	1.88375
1660.49399	1.94938
1658.56543	2.00213
1656.63687	2.04529
1654.70830	2.08415
1652.77974	2.14297
1650.85117	2.19820
1648.92261	2.21749
1646.99404	2.24060
1645.06548	2.26603
1643.13691	2.28367
1641.20835	2.29463
1639.27979	2.30438
1637.35122	2.31000
1635.42266	2.30894
1633.49409	2.30134
1631.56553	2.28905
1629.63696	2.27296
1627.70840	2.24471
1625.77983	2.21133
1623.85127	2.16884
1621.92271	2.11545
1619.99414	2.06805
1618.06558	2.02324
1616.13701	1.96003
1614.20845	1.89443
1612.27988	1.84334
1610.35132	1.79066
1608.42275	1.73498
1606.49419	1.68102
1604.56562	1.63150
1602.63706	1.58360
1600.70850	1.53649
1598.77993	1.49248
1596.85137	1.45087
1594.92280	1.41078
1592.99424	1.37234
1591.06567	1.33732
1589.13711	1.30461
1587.20854	1.27410
1585.27998	1.24622
1583.35142	1.22054
1581.42285	1.19702
1579.49429	1.17684
1577.56572	1.15911
1575.63716	1.13794
1573.70859	1.11886
1571.78003	1.10636
1569.85146	1.09411
1567.92290	1.08086
1565.99434	1.07084
1564.06577	1.06339
1562.13721	1.05802
1560.20864	1.05546
1558.28008	1.05430
1556.35151	1.05262
1554.42295	1.05139
1552.49438	1.05057
1550.56582	1.04844
1548.63726	1.04404
1546.70869	1.03783
1544.78013	1.02935
1542.85156	1.01818
1540.92300	1.00182
1538.99443	0.97538
1537.06587	0.95544
1535.13730	0.94218
1533.20874	0.92505
1531.28018	0.90660
1529.35161	0.89286
1527.42305	0.87963
1525.49448	0.86593
1523.56592	0.85454
1521.63735	0.84401
1519.70879	0.83326
1517.78022	0.82394
1515.85166	0.81327
1513.92310	0.80198
1511.99453	0.79207
1510.06597	0.78321
1508.13740	0.77469
1506.20884	0.76158
1504.28027	0.75006
1502.35171	0.74362
1500.42314	0.73810
1498.49458	0.73218
1496.56602	0.72507
1494.63745	0.71793
1492.70889	0.71247
1490.78032	0.70779
1488.85176	0.70260
1486.92319	0.69764
1484.99463	0.69344
1483.06606	0.69013
1481.13750	0.68766
1479.20894	0.68585
1477.28037	0.68469
1475.35181	0.68405
1473.42324	0.68375
1471.49468	0.68273
1469.56611	0.68067
1467.63755	0.67846
1465.70898	0.67641
1463.78042	0.67456
1461.85186	0.67345
1459.92329	0.67329
1457.99473	0.67347
1456.06616	0.67241
1454.13760	0.66976
1452.20903	0.66695
1450.28047	0.66416
1448.35190	0.66146
1446.42334	0.65860
1444.49478	0.65587
1442.56621	0.65337
1440.63765	0.65070
1438.70908	0.64785
1436.78052	0.64460
1434.85195	0.64116
1432.92339	0.63841
1430.99482	0.63654
1429.06626	0.63542
1427.13770	0.63491
1425.20913	0.63498
1423.28057	0.63553
1421.35200	0.63608
1419.42344	0.63640
1417.49487	0.63607
1415.56631	0.63504
1413.63774	0.63426
1411.70918	0.63408
1409.78062	0.63447
1407.85205	0.63514
1405.92349	0.63604
1403.99492	0.63695
1402.06636	0.63718
1400.13779	0.63666
1398.20923	0.63535
1396.28066	0.63314
1394.35210	0.62984
1392.42354	0.62587
1390.49497	0.62216
1388.56641	0.61854
1386.63784	0.61437
1384.70928	0.60985
1382.78071	0.60563
1380.85215	0.60177
1378.92358	0.59838
1376.99502	0.59566
1375.06646	0.59365
1373.13789	0.59209
1371.20933	0.59094
1369.28076	0.59008
1367.35220	0.58907
1365.42363	0.58772
1363.49507	0.58623
1361.56650	0.58475
1359.63794	0.58334
1357.70937	0.58220
1355.78081	0.58126
1353.85225	0.58045
1351.92368	0.57973
1349.99512	0.57906
1348.06655	0.57840
1346.13799	0.57763
1344.20942	0.57683
1342.28086	0.57618
1340.35229	0.57567
1338.42373	0.57506
1336.49517	0.57429
1334.56660	0.57371
1332.63804	0.57354
1330.70947	0.57358
1328.78091	0.57371
1326.85234	0.57405
1324.92378	0.57457
1322.99521	0.57516
1321.06665	0.57572
1319.13809	0.57607
1317.20952	0.57620
1315.28096	0.57630
1313.35239	0.57614
1311.42383	0.57552
1309.49526	0.57486
1307.56670	0.57440
1305.63813	0.57397
1303.70957	0.57341
1301.78101	0.57270
1299.85244	0.57182
1297.92388	0.57079
1295.99531	0.56974
1294.06675	0.56870
1292.13818	0.56755
1290.20962	0.56638
1288.28105	0.56535
1286.35249	0.56432
1284.42393	0.56317
1282.49536	0.56199
1280.56680	0.56083
1278.63823	0.55965
1276.70967	0.55851
1274.78110	0.55752
1272.85254	0.55675
1270.92397	0.55609
1268.99541	0.55531
1267.06685	0.55438
1265.13828	0.55342
1263.20972	0.55258
1261.28115	0.55195
1259.35259	0.55146
1257.42402	0.55097
1255.49546	0.55055
1253.56689	0.55031
1251.63833	0.55019
1249.70977	0.55019
1247.78120	0.55018
1245.85264	0.54995
1243.92407	0.54959
1241.99551	0.54902
1240.06694	0.54797
1238.13838	0.54642
1236.20981	0.54463
1234.28125	0.54281
1232.35269	0.54109
1230.42412	0.53935
1228.49556	0.53751
1226.56699	0.53581
1224.63843	0.53429
1222.70986	0.53285
1220.78130	0.53162
1218.85273	0.53056
1216.92417	0.52956
1214.99561	0.52865
1213.06704	0.52767
1211.13848	0.52671
1209.20991	0.52598
1207.28135	0.52532
1205.35278	0.52460
1203.42422	0.52385
1201.49565	0.52303
1199.56709	0.52219
1197.63853	0.52143
1195.70996	0.52086
1193.78140	0.52042
1191.85283	0.52001
1189.92427	0.51973
1187.99570	0.51965
1186.06714	0.51969
1184.13857	0.51977
1182.21001	0.52007
1180.28145	0.52076
1178.35288	0.52178
1176.42432	0.52286
1174.49575	0.52380
1172.56719	0.52448
1170.63862	0.52479
1168.71006	0.52478
1166.78149	0.52449
1164.85293	0.52407
1162.92437	0.52374
1160.99580	0.52320
1159.06724	0.52235
1157.13867	0.52146
1155.21011	0.52053
1153.28154	0.51939
1151.35298	0.51795
1149.42441	0.51613
1147.49585	0.51404
1145.56729	0.51178
1143.63872	0.50941
1141.71016	0.50710
1139.78159	0.50518
1137.85303	0.50369
1135.92446	0.50250
1133.99590	0.50163
1132.06733	0.50097
1130.13877	0.50031
1128.21021	0.49945
1126.28164	0.49831
1124.35308	0.49711
1122.42451	0.49604
1120.49595	0.49534
1118.56738	0.49513
1116.63882	0.49498
1114.71025	0.49466
1112.78169	0.49450
1110.85312	0.49462
1108.92456	0.49502
1106.99600	0.49578
1105.06743	0.49692
1103.13887	0.49834
1101.21030	0.49997
1099.28174	0.50198
1097.35317	0.50456
1095.42461	0.50767
1093.49604	0.51116
1091.56748	0.51521
1089.63892	0.52001
1087.71035	0.52554
1085.78179	0.53156
1083.85322	0.53775
1081.92466	0.54365
1079.99609	0.54860
1078.06753	0.55198
1076.13896	0.55287
1074.21040	0.55064
1072.28184	0.54596
1070.35327	0.54007
1068.42471	0.53386
1066.49614	0.52740
1064.56758	0.52078
1062.63901	0.51480
1060.71045	0.50992
1058.78188	0.50563
1056.85332	0.50158
1054.92476	0.49796
1052.99619	0.49493
1051.06763	0.49243
1049.13906	0.49029
1047.21050	0.48834
1045.28193	0.48652
1043.35337	0.48482
1041.42480	0.48326
1039.49624	0.48199
1037.56768	0.48101
1035.63911	0.48027
1033.71055	0.47986
1031.78198	0.47959
1029.85342	0.47935
1027.92485	0.47934
1025.99629	0.47934
1024.06772	0.47929
1022.13916	0.47960
1020.21060	0.48029
1018.28203	0.48091
1016.35347	0.48148
1014.42490	0.48239
1012.49634	0.48362
1010.56777	0.48489
1008.63921	0.48608
1006.71064	0.48745
1004.78208	0.48937
1002.85352	0.49178
1000.92495	0.49449
998.99639	0.49760
997.06782	0.50118
995.13926	0.50505
993.21069	0.50903
991.28213	0.51266
989.35356	0.51536
987.42500	0.51699
985.49644	0.51789
983.56787	0.51857
981.63931	0.51938
979.71074	0.52057
977.78218	0.52234
975.85361	0.52459
973.92505	0.52710
971.99648	0.52986
970.06792	0.53314
968.13936	0.53691
966.21079	0.54082
964.28223	0.54490
962.35366	0.54940
960.42510	0.55437
958.49653	0.55975
956.56797	0.56549
954.63940	0.57140
952.71084	0.57728
950.78228	0.58333
948.85371	0.58976
946.92515	0.59613
944.99658	0.60216
943.06802	0.60817
941.13945	0.61428
939.21089	0.62010
937.28232	0.62602
935.35376	0.63234
933.42520	0.63817
931.49663	0.64331
929.56807	0.64849
927.63950	0.65395
925.71094	0.65972
923.78237	0.66586
921.85381	0.67223
919.92524	0.67896
917.99668	0.68599
916.06812	0.69274
914.13955	0.69946
912.21099	0.70690
910.28242	0.71503
908.35386	0.72355
906.42529	0.73221
904.49673	0.74086
902.56816	0.74955
900.63960	0.75841
898.71104	0.76777
896.78247	0.77792
894.85391	0.78813
892.92534	0.79792
890.99678	0.80790
889.06821	0.81829
887.13965	0.82839
885.21108	0.83829
883.28252	0.85003
881.35396	0.86399
879.42539	0.87744
877.49683	0.88839
875.56826	0.89776
873.63970	0.90708
871.71113	0.91677
869.78257	0.92763
867.85400	0.93960
865.92544	0.95133
863.99687	0.96238
862.06831	0.97313
860.13975	0.98426
858.21118	0.99681
856.28262	1.01049
854.35405	1.02342
852.42549	1.03470
850.49692	1.04463
848.56836	1.05417
846.63979	1.06405
844.71123	1.07434
842.78267	1.08476
840.85410	1.09548
838.92554	1.10860
836.99697	1.12530
835.06841	1.14340
833.13984	1.15974
831.21128	1.17070
829.28271	1.17616
827.35415	1.18356
825.42559	1.19781
823.49702	1.21494
821.56846	1.22791
819.63989	1.23286
817.71133	1.23543
815.78276	1.24583
813.85420	1.26112
811.92563	1.27474
809.99707	1.28848
808.06851	1.30377
806.13994	1.32366
804.21138	1.34262
802.28281	1.36118
800.35425	1.38341
798.42568	1.39314
796.49712	1.38974
794.56855	1.39159
792.63999	1.42032
790.71143	1.47203
788.78286	1.52105
786.85430	1.57101
784.92573	1.58699
782.99717	1.56263
781.06860	1.55189
779.14004	1.52009
777.21147	1.50219
775.28291	1.56050
773.35435	1.67604
771.42578	1.93100
769.49722	2.29337
767.56865	1.75956
765.64009	1.44597
763.71152	1.38394
761.78296	1.40142
759.85439	1.33763
757.92583	1.30252
755.99727	1.33901
754.06870	1.38135
752.14014	1.36872
750.21157	1.37947
748.28301	1.45178
746.35444	1.32283
744.42588	1.13367
742.49731	1.09764
740.56875	1.28161
738.64019	1.87027
736.71162	1.35651
734.78306	0.98470
732.85449	0.95186
730.92593	1.51364
728.99736	4.37398
727.06880	1.04165
725.14023	0.59867
723.21167	0.47237
721.28311	0.45139
719.35454	0.38874
717.42598	0.29495
715.49741	0.22872
713.56885	0.14018
711.64028	-0.06121
709.71172	-0.41054
707.78315	-0.28392
705.85459	-0.04913
703.92603	0.09529
701.99746	0.37854
700.06890	1.10514
698.14033	0.65911
696.21177	0.31248
694.28320	0.31505
692.35464	0.55469
690.42607	0.70725
688.49751	0.53377
686.56895	0.44152
684.64038	0.32509
682.71182	0.20920
680.78325	0.11436
678.85469	0.02808
676.92612	-0.05670
674.99756	-0.01829
673.06899	0.15094
671.14043	0.24645
669.21187	0.30314
667.28330	0.47355
665.35474	0.55044
663.42617	0.32087
661.49761	0.14928
659.56904	0.11172
657.64048	0.12240
655.71191	0.13317
653.78335	0.15510
651.85479	0.21765
649.92622	0.41465
647.99766	1.08036
646.06909	0.71507
644.14053	0.37524
642.21196	0.23513
640.28340	0.08229
638.35483	0.01539
636.42627	0.01026
634.49771	-0.06273
632.56914	-0.14661
630.64058	-0.04577
628.71201	0.04699
626.78345	0.06836
624.85488	0.10769
622.92632	0.14651
620.99775	0.14137
619.06919	0.13185
617.14062	0.11935
615.21206	0.07422
613.28350	0.07117
611.35493	0.17277
609.42637	0.21625
607.49780	0.18720
605.56924	0.19109
603.64067	0.22922
601.71211	0.19115
599.78354	0.08797
597.85498	0.05713
595.92642	0.14100
593.99785	0.25224
592.06929	0.31338
590.14072	0.22064
588.21216	0.06897
586.28359	0.00358
584.35503	0.03192
582.42646	0.10546
580.49790	0.15358
578.56934	0.16108
576.64077	0.19633
574.71221	0.29056
572.78364	0.37669
570.85508	0.29785
568.92651	0.13718
566.99795	0.09988
565.06938	0.13561
563.14082	0.17728
561.21226	0.22659
559.28369	0.23363
557.35513	0.18163
555.42656	0.13085
553.49800	0.06964
551.56943	0.00110
549.64087	0.03052
547.71230	0.11119
545.78374	0.14264
543.85518	0.16899
541.92661	0.19525
539.99805	0.27739
538.06948	0.57007
536.14092	0.64448
534.21235	0.34038
532.28379	0.19495
530.35522	0.14255
528.42666	0.17343
526.49810	0.22123
524.56953	0.20742
522.64097	0.20911
520.71240	0.28963
518.78384	0.33427
516.85527	0.30085
514.92671	0.27345
512.99814	0.23985
511.06958	0.18056
509.14102	0.17046
507.21245	0.24295
505.28389	0.32012
503.35532	0.25387
501.42676	0.18929
499.49819	0.21682
