3997.91411	0.06793
3995.98555	0.06769
3994.05698	0.06754
3992.12842	0.06800
3990.19985	0.06876
3988.27129	0.06942
3986.34272	0.06976
3984.41416	0.06982
3982.48560	0.06983
3980.55703	0.06986
3978.62847	0.06999
3976.69990	0.07033
3974.77134	0.07062
3972.84277	0.07084
3970.91421	0.07115
3968.98564	0.07139
3967.05708	0.07140
3965.12852	0.07144
3963.19995	0.07165
3961.27139	0.07189
3959.34282	0.07213
3957.41426	0.07217
3955.48569	0.07212
3953.55713	0.07235
3951.62856	0.07250
3949.70000	0.07216
3947.77144	0.07200
3945.84287	0.07245
3943.91431	0.07294
3941.98574	0.07299
3940.05718	0.07254
3938.12861	0.07222
3936.20005	0.07228
3934.27148	0.07235
3932.34292	0.07227
3930.41436	0.07223
3928.48579	0.07231
3926.55723	0.07227
3924.62866	0.07218
3922.70010	0.07211
3920.77153	0.07215
3918.84297	0.07255
3916.91440	0.07317
3914.98584	0.07330
3913.05728	0.07269
3911.12871	0.07223
3909.20015	0.07255
3907.27158	0.07322
3905.34302	0.07374
3903.41445	0.07423
3901.48589	0.07434
3899.55732	0.07378
3897.62876	0.07308
3895.70020	0.07248
3893.77163	0.07232
3891.84307	0.07308
3889.91450	0.07367
3887.98594	0.07315
3886.05737	0.07292
3884.12881	0.07329
3882.20024	0.07354
3880.27168	0.07372
3878.34312	0.07346
3876.41455	0.07309
3874.48599	0.07354
3872.55742	0.07441
3870.62886	0.07485
3868.70029	0.07523
3866.77173	0.07554
3864.84316	0.07575
3862.91460	0.07602
3860.98604	0.07591
3859.05747	0.07580
3857.12891	0.07633
3855.20034	0.07762
3853.27178	0.07945
3851.34321	0.08046
3849.41465	0.07978
3847.48608	0.07895
3845.55752	0.07887
3843.62896	0.07988
3841.70039	0.08146
3839.77183	0.08260
3837.84326	0.08312
3835.91470	0.08328
3833.98613	0.08358
3832.05757	0.08406
3830.12900	0.08429
3828.20044	0.08433
3826.27187	0.08486
3824.34331	0.08589
3822.41475	0.08677
3820.48618	0.08769
3818.55762	0.08886
3816.62905	0.09013
3814.70049	0.09119
3812.77192	0.09134
3810.84336	0.09130
3808.91479	0.09197
3806.98623	0.09378
3805.05767	0.09606
3803.12910	0.09769
3801.20054	0.09955
3799.27197	0.10122
3797.34341	0.10171
3795.41484	0.10193
3793.48628	0.10204
3791.55771	0.10245
3789.62915	0.10345
3787.70059	0.10471
3785.77202	0.10621
3783.84346	0.10795
3781.91489	0.10961
3779.98633	0.11130
3778.05776	0.11321
3776.12920	0.11477
3774.20063	0.11599
3772.27207	0.11732
3770.34351	0.11895
3768.41494	0.12091
3766.48638	0.12321
3764.55781	0.12577
3762.62925	0.12773
3760.70068	0.12944
3758.77212	0.13219
3756.84355	0.13534
3754.91499	0.13769
3752.98643	0.13984
3751.05786	0.14272
3749.12930	0.14630
3747.20073	0.14896
3745.27217	0.15123
3743.34360	0.15500
3741.41504	0.15895
3739.48647	0.16202
3737.55791	0.16569
3735.62935	0.17068
3733.70078	0.17615
3731.77222	0.18077
3729.84365	0.18491
3727.91509	0.18894
3725.98652	0.19392
3724.05796	0.20056
3722.12939	0.20777
3720.20083	0.21477
3718.27227	0.22162
3716.34370	0.22857
3714.41514	0.23572
3712.48657	0.24491
3710.55801	0.25851
3708.62944	0.27324
3706.70088	0.28520
3704.77231	0.29633
3702.84375	0.30915
3700.91519	0.32562
3698.98662	0.34392
3697.05806	0.36187
3695.12949	0.38085
3693.20093	0.40055
3691.27236	0.42211
3689.34380	0.45038
3687.41523	0.48427
3685.48667	0.51375
3683.55811	0.53996
3681.62954	0.56841
3679.70098	0.60005
3677.77241	0.63340
3675.84385	0.67374
3673.91528	0.72749
3671.98672	0.77017
3670.05815	0.80748
3668.12959	0.85987
3666.20103	0.90904
3664.27246	0.95043
3662.34390	0.99428
3660.41533	1.04133
3658.48677	1.08763
3656.55820	1.13658
3654.62964	1.19131
3652.70107	1.23787
3650.77251	1.27840
3648.84395	1.33366
3646.91538	1.40163
3644.98682	1.45243
3643.05825	1.49211
3641.12969	1.53266
3639.20112	1.57675
3637.27256	1.62092
3635.34399	1.66376
3633.41543	1.70639
3631.48687	1.74671
3629.55830	1.78762
3627.62974	1.84109
3625.70117	1.89261
3623.77261	1.92809
3621.84404	1.96092
3619.91548	1.99773
3617.98691	2.04259
3616.05835	2.08695
3614.12979	2.12505
3612.20122	2.16485
3610.27266	2.20402
3608.34409	2.24329
3606.41553	2.28534
3604.48696	2.32418
3602.55840	2.35880
3600.62983	2.39650
3598.70127	2.43793
3596.77271	2.47808
3594.84414	2.51867
3592.91558	2.56160
3590.98701	2.60146
3589.05845	2.63655
3587.12988	2.67813
3585.20132	2.72685
3583.27275	2.77002
3581.34419	2.80847
3579.41562	2.84798
3577.48706	2.88938
3575.55850	2.93102
3573.62993	2.97374
3571.70137	3.01535
3569.77280	3.05493
3567.84424	3.09693
3565.91567	3.14887
3563.98711	3.20070
3562.05854	3.24240
3560.12998	3.28296
3558.20142	3.32665
3556.27285	3.37070
3554.34429	3.41429
3552.41572	3.46149
3550.48716	3.51028
3548.55859	3.55692
3546.63003	3.60180
3544.70146	3.64750
3542.77290	3.69567
3540.84434	3.74434
3538.91577	3.79198
3536.98721	3.83793
3535.05864	3.88536
3533.13008	3.93423
3531.20151	3.98109
3529.27295	4.02813
3527.34438	4.07934
3525.41582	4.12904
3523.48726	4.17521
3521.55869	4.22440
3519.63013	4.27284
3517.70156	4.31672
3515.77300	4.36068
3513.84443	4.40877
3511.91587	4.45923
3509.98730	4.50936
3508.05874	4.55632
3506.13018	4.59944
3504.20161	4.64248
3502.27305	4.68867
3500.34448	4.73872
3498.41592	4.78994
3496.48735	4.83787
3494.55879	4.88078
3492.63022	4.92554
3490.70166	4.97598
3488.77310	5.02887
3486.84453	5.08207
3484.91597	5.13478
3482.98740	5.18765
3481.05884	5.23775
3479.13027	5.27986
3477.20171	5.31746
3475.27314	5.35576
3473.34458	5.39716
3471.41602	5.44422
3469.48745	5.49389
3467.55889	5.54507
3465.63032	5.59737
3463.70176	5.64461
3461.77319	5.69023
3459.84463	5.74547
3457.91606	5.80918
3455.98750	5.86687
3454.05894	5.90474
3452.13037	5.93917
3450.20181	5.99651
3448.27324	6.06842
3446.34468	6.13116
3444.41611	6.17821
3442.48755	6.21802
3440.55898	6.25407
3438.63042	6.29960
3436.70186	6.35232
3434.77329	6.39475
3432.84473	6.43153
3430.91616	6.47701
3428.98760	6.53577
3427.05903	6.58970
3425.13047	6.63451
3423.20190	6.68000
3421.27334	6.73629
3419.34478	6.80206
3417.41621	6.86693
3415.48765	6.91839
3413.55908	6.95065
3411.63052	6.99164
3409.70195	7.04106
3407.77339	7.07687
3405.84482	7.09562
3403.91626	7.12659
3401.98770	7.18339
3400.05913	7.24749
3398.13057	7.31178
3396.20200	7.35106
3394.27344	7.35392
3392.34487	7.36691
3390.41631	7.41784
3388.48774	7.44653
3386.55918	7.44318
3384.63062	7.44894
3382.70205	7.46874
3380.77349	7.51070
3378.84492	7.58248
3376.91636	7.67875
3374.98779	7.76707
3373.05923	7.82446
3371.13066	7.82779
3369.20210	7.77616
3367.27354	7.71369
3365.34497	7.69998
3363.41641	7.75807
3361.48784	7.84623
3359.55928	7.88579
3357.63071	7.88826
3355.70215	7.93404
3353.77358	7.96068
3351.84502	7.94513
3349.91646	7.96906
3347.98789	8.04145
3346.05933	8.08184
3344.13076	8.04883
3342.20220	7.99200
3340.27363	7.95509
3338.34507	7.99042
3336.41650	8.08070
3334.48794	8.16524
3332.55937	8.19530
3330.63081	8.18472
3328.70225	8.16452
3326.77368	8.10740
3324.84512	8.06349
3322.91655	8.12256
3320.98799	8.26073
3319.05942	8.34330
3317.13086	8.31840
3315.20229	8.23408
3313.27373	8.17110
3311.34517	8.14273
3309.41660	8.10986
3307.48804	8.07211
3305.55947	8.02127
3303.63091	8.01983
3301.70234	8.14726
3299.77378	8.33697
3297.84521	8.42311
3295.91665	8.38503
3293.98809	8.30247
3292.05952	8.25851
3290.13096	8.24634
3288.20239	8.20450
3286.27383	8.19858
3284.34526	8.24356
3282.41670	8.26352
3280.48813	8.22624
3278.55957	8.16784
3276.63101	8.13983
3274.70244	8.16969
3272.77388	8.21954
3270.84531	8.27915
3268.91675	8.34097
3266.98818	8.29646
3265.05962	8.21760
3263.13105	8.21467
3261.20249	8.23499
3259.27393	8.21863
3257.34536	8.19007
3255.41680	8.18018
3253.48823	8.19683
3251.55967	8.26299
3249.63110	8.34184
3247.70254	8.36477
3245.77397	8.31560
3243.84541	8.23880
3241.91685	8.16249
3239.98828	8.08835
3238.05972	8.05910
3236.13115	8.09222
3234.20259	8.11459
3232.27402	8.09489
3230.34546	8.10994
3228.41689	8.15806
3226.48833	8.15288
3224.55977	8.11752
3222.63120	8.12590
3220.70264	8.10123
3218.77407	8.00848
3216.84551	7.97192
3214.91694	8.02168
3212.98838	8.09810
3211.05981	8.12623
3209.13125	8.05622
3207.20269	7.90547
3205.27412	7.75974
3203.34556	7.71877
3201.41699	7.75206
3199.48843	7.74483
3197.55986	7.66587
3195.63130	7.59060
3193.70273	7.57544
3191.77417	7.54586
3189.84561	7.46023
3187.91704	7.39737
3185.98848	7.37420
3184.05991	7.34754
3182.13135	7.31020
3180.20278	7.26869
3178.27422	7.20136
3176.34565	7.11741
3174.41709	7.07092
3172.48853	7.04609
3170.55996	6.97008
3168.63140	6.87009
3166.70283	6.81210
3164.77427	6.76808
3162.84570	6.69111
3160.91714	6.61429
3158.98857	6.58133
3157.06001	6.55136
3155.13145	6.47733
3153.20288	6.39670
3151.27432	6.33309
3149.34575	6.25623
3147.41719	6.17990
3145.48862	6.12389
3143.56006	6.05529
3141.63149	5.97217
3139.70293	5.90144
3137.77437	5.84506
3135.84580	5.78666
3133.91724	5.71714
3131.98867	5.64558
3130.06011	5.57859
3128.13154	5.50971
3126.20298	5.43254
3124.27441	5.35276
3122.34585	5.27625
3120.41729	5.20373
3118.48872	5.13383
3116.56016	5.06338
3114.63159	4.99329
3112.70303	4.92688
3110.77446	4.86287
3108.84590	4.79709
3106.91733	4.72909
3104.98877	4.65941
3103.06021	4.59136
3101.13164	4.52854
3099.20308	4.46709
3097.27451	4.40273
3095.34595	4.33592
3093.41738	4.26893
3091.48882	4.20494
3089.56025	4.14402
3087.63169	4.08141
3085.70312	4.01761
3083.77456	3.95786
3081.84600	3.90065
3079.91743	3.84079
3077.98887	3.77845
3076.06030	3.71857
3074.13174	3.66284
3072.20317	3.60750
3070.27461	3.55076
3068.34604	3.49391
3066.41748	3.43666
3064.48892	3.38047
3062.56035	3.32800
3060.63179	3.27603
3058.70322	3.22126
3056.77466	3.16693
3054.84609	3.11590
3052.91753	3.06678
3050.98896	3.01748
3049.06040	2.96755
3047.13184	2.91769
3045.20327	2.86842
3043.27471	2.82010
3041.34614	2.77214
3039.41758	2.72476
3037.48901	2.67902
3035.56045	2.63351
3033.63188	2.58764
3031.70332	2.54298
3029.77476	2.49980
3027.84619	2.45762
3025.91763	2.41602
3023.98906	2.37474
3022.06050	2.33414
3020.13193	2.29396
3018.20337	2.25347
3016.27480	2.21323
3014.34624	2.17424
3012.41768	2.13624
3010.48911	2.09888
3008.56055	2.06207
3006.63198	2.02549
3004.70342	1.98981
3002.77485	1.95563
3000.84629	1.92234
2998.91772	1.88940
2996.98916	1.85705
2995.06060	1.82570
2993.13203	1.79497
2991.20347	1.76436
2989.27490	1.73434
2987.34634	1.70562
2985.41777	1.67770
2983.48921	1.64969
2981.56064	1.62201
2979.63208	1.59570
2977.70352	1.57029
2975.77495	1.54487
2973.84639	1.51967
2971.91782	1.49524
2969.98926	1.47148
2968.06069	1.44811
2966.13213	1.42497
2964.20356	1.40196
2962.27500	1.37904
2960.34644	1.35586
2958.41787	1.33217
2956.48931	1.30825
2954.56074	1.28479
2952.63218	1.26223
2950.70361	1.24001
2948.77505	1.21760
2946.84648	1.19544
2944.91792	1.17422
2942.98936	1.15392
2941.06079	1.13415
2939.13223	1.11484
2937.20366	1.09549
2935.27510	1.07561
2933.34653	1.05577
2931.41797	1.03657
2929.48940	1.01783
2927.56084	0.99940
2925.63228	0.98137
2923.70371	0.96367
2921.77515	0.94600
2919.84658	0.92822
2917.91802	0.91093
2915.98945	0.89450
2914.06089	0.87845
2912.13232	0.86283
2910.20376	0.84771
2908.27520	0.83270
2906.34663	0.81806
2904.41807	0.80380
2902.48950	0.78959
2900.56094	0.77588
2898.63237	0.76255
2896.70381	0.74921
2894.77524	0.73631
2892.84668	0.72401
2890.91812	0.71209
2888.98955	0.70064
2887.06099	0.68972
2885.13242	0.67933
2883.20386	0.66940
2881.27529	0.65965
2879.34673	0.65002
2877.41816	0.64049
2875.48960	0.63080
2873.56104	0.62081
2871.63247	0.61050
2869.70391	0.59984
2867.77534	0.58865
2865.84678	0.57701
2863.91821	0.56563
2861.98965	0.55485
2860.06108	0.54456
2858.13252	0.53460
2856.20396	0.52485
2854.27539	0.51550
2852.34683	0.50674
2850.41826	0.49836
2848.48970	0.49018
2846.56113	0.48239
2844.63257	0.47512
2842.70400	0.46812
2840.77544	0.46131
2838.84687	0.45507
2836.91831	0.44923
2834.98975	0.44334
2833.06118	0.43725
2831.13262	0.43096
2829.20405	0.42468
2827.27549	0.41873
2825.34692	0.41318
2823.41836	0.40753
2821.48979	0.40150
2819.56123	0.39546
2817.63267	0.38970
2815.70410	0.38423
2813.77554	0.37885
2811.84697	0.37342
2809.91841	0.36809
2807.98984	0.36281
2806.06128	0.35748
2804.13271	0.35227
2802.20415	0.34731
2800.27559	0.34260
2798.34702	0.33799
2796.41846	0.33330
2794.48989	0.32853
2792.56133	0.32389
2790.63276	0.31949
2788.70420	0.31526
2786.77563	0.31102
2784.84707	0.30667
2782.91851	0.30232
2780.98994	0.29818
2779.06138	0.29433
2777.13281	0.29071
2775.20425	0.28707
2773.27568	0.28322
2771.34712	0.27936
2769.41855	0.27576
2767.48999	0.27225
2765.56143	0.26870
2763.63286	0.26523
2761.70430	0.26196
2759.77573	0.25883
2757.84717	0.25573
2755.91860	0.25272
2753.99004	0.24981
2752.06147	0.24691
2750.13291	0.24396
2748.20435	0.24107
2746.27578	0.23839
2744.34722	0.23582
2742.41865	0.23313
2740.49009	0.23032
2738.56152	0.22755
2736.63296	0.22498
2734.70439	0.22265
2732.77583	0.22042
2730.84727	0.21817
2728.91870	0.21584
2726.99014	0.21350
2725.06157	0.21131
2723.13301	0.20929
2721.20444	0.20724
2719.27588	0.20510
2717.34731	0.20307
2715.41875	0.20125
2713.49019	0.19950
2711.56162	0.19766
2709.63306	0.19573
2707.70449	0.19386
2705.77593	0.19225
2703.84736	0.19076
2701.91880	0.18918
2699.99023	0.18765
2698.06167	0.18627
2696.13311	0.18496
2694.20454	0.18362
2692.27598	0.18222
2690.34741	0.18091
2688.41885	0.17962
2686.49028	0.17818
2684.56172	0.17682
2682.63315	0.17578
2680.70459	0.17482
2678.77603	0.17370
2676.84746	0.17247
2674.91890	0.17134
2672.99033	0.17034
2671.06177	0.16935
2669.13320	0.16836
2667.20464	0.16737
2665.27607	0.16639
2663.34751	0.16546
2661.41895	0.16465
2659.49038	0.16386
2657.56182	0.16301
2655.63325	0.16219
2653.70469	0.16149
2651.77612	0.16085
2649.84756	0.16018
2647.91899	0.15949
2645.99043	0.15878
2644.06187	0.15810
2642.13330	0.15749
2640.20474	0.15706
2638.27617	0.15677
2636.34761	0.15635
2634.41904	0.15572
2632.49048	0.15507
2630.56191	0.15449
2628.63335	0.15408
2626.70479	0.15383
2624.77622	0.15361
2622.84766	0.15342
2620.91909	0.15329
2618.99053	0.15308
2617.06196	0.15273
2615.13340	0.15238
2613.20483	0.15210
2611.27627	0.15189
2609.34771	0.15183
2607.41914	0.15187
2605.49058	0.15185
2603.56201	0.15173
2601.63345	0.15168
2599.70488	0.15172
2597.77632	0.15177
2595.84775	0.15183
2593.91919	0.15184
2591.99062	0.15174
2590.06206	0.15164
2588.13350	0.15166
2586.20493	0.15181
2584.27637	0.15212
2582.34780	0.15244
2580.41924	0.15274
2578.49067	0.15305
2576.56211	0.15330
2574.63354	0.15348
2572.70498	0.15365
2570.77642	0.15382
2568.84785	0.15405
2566.91929	0.15440
2564.99072	0.15484
2563.06216	0.15523
2561.13359	0.15563
2559.20503	0.15611
2557.27646	0.15662
2555.34790	0.15707
2553.41934	0.15745
2551.49077	0.15794
2549.56221	0.15860
2547.63364	0.15921
2545.70508	0.15971
2543.77651	0.16021
2541.84795	0.16075
2539.91938	0.16131
2537.99082	0.16193
2536.06226	0.16249
2534.13369	0.16296
2532.20513	0.16350
2530.27656	0.16428
2528.34800	0.16516
2526.41943	0.16587
2524.49087	0.16650
2522.56230	0.16719
2520.63374	0.16790
2518.70518	0.16859
2516.77661	0.16933
2514.84805	0.17005
2512.91948	0.17075
2510.99092	0.17150
2509.06235	0.17220
2507.13379	0.17284
2505.20522	0.17355
2503.27666	0.17434
2501.34810	0.17523
2499.41953	0.17626
2497.49097	0.17726
2495.56240	0.17803
2493.63384	0.17855
2491.70527	0.17903
2489.77671	0.17976
2487.84814	0.18069
2485.91958	0.18158
2483.99102	0.18242
2482.06245	0.18320
2480.13389	0.18393
2478.20532	0.18473
2476.27676	0.18567
2474.34819	0.18665
2472.41963	0.18765
2470.49106	0.18865
2468.56250	0.18960
2466.63394	0.19044
2464.70537	0.19118
2462.77681	0.19198
2460.84824	0.19297
2458.91968	0.19397
2456.99111	0.19485
2455.06255	0.19573
2453.13398	0.19661
2451.20542	0.19750
2449.27686	0.19848
2447.34829	0.19949
2445.41973	0.20046
2443.49116	0.20139
2441.56260	0.20234
2439.63403	0.20337
2437.70547	0.20442
2435.77690	0.20542
2433.84834	0.20640
2431.91978	0.20747
2429.99121	0.20857
2428.06265	0.20952
2426.13408	0.21045
2424.20552	0.21146
2422.27695	0.21252
2420.34839	0.21361
2418.41982	0.21468
2416.49126	0.21578
2414.56270	0.21695
2412.63413	0.21809
2410.70557	0.21916
2408.77700	0.22023
2406.84844	0.22140
2404.91987	0.22267
2402.99131	0.22385
2401.06274	0.22482
2399.13418	0.22582
2397.20562	0.22698
2395.27705	0.22817
2393.34849	0.22936
2391.41992	0.23060
2389.49136	0.23181
2387.56279	0.23308
2385.63423	0.23449
2383.70566	0.23594
2381.77710	0.23749
2379.84854	0.23923
2377.91997	0.24096
2375.99141	0.24283
2374.06284	0.24521
2372.13428	0.24761
2370.20571	0.24944
2368.27715	0.25089
2366.34858	0.25207
2364.42002	0.25322
2362.49146	0.25544
2360.56289	0.25818
2358.63433	0.25970
2356.70576	0.26071
2354.77720	0.26246
2352.84863	0.26412
2350.92007	0.26476
2348.99150	0.26528
2347.06294	0.26653
2345.13437	0.26859
2343.20581	0.27092
2341.27725	0.27314
2339.34868	0.27530
2337.42012	0.27697
2335.49155	0.27807
2333.56299	0.27889
2331.63442	0.27983
2329.70586	0.28117
2327.77729	0.28305
2325.84873	0.28519
2323.92017	0.28689
2321.99160	0.28774
2320.06304	0.28824
2318.13447	0.28924
2316.20591	0.29085
2314.27734	0.29258
2312.34878	0.29418
2310.42021	0.29584
2308.49165	0.29750
2306.56309	0.29896
2304.63452	0.30032
2302.70596	0.30176
2300.77739	0.30335
2298.84883	0.30500
2296.92026	0.30664
2294.99170	0.30839
2293.06313	0.31027
2291.13457	0.31222
2289.20601	0.31421
2287.27744	0.31607
2285.34888	0.31780
2283.42031	0.31962
2281.49175	0.32156
2279.56318	0.32357
2277.63462	0.32560
2275.70605	0.32766
2273.77749	0.32977
2271.84893	0.33178
2269.92036	0.33364
2267.99180	0.33562
2266.06323	0.33783
2264.13467	0.34001
2262.20610	0.34197
2260.27754	0.34383
2258.34897	0.34579
2256.42041	0.34786
2254.49185	0.35007
2252.56328	0.35236
2250.63472	0.35462
2248.70615	0.35672
2246.77759	0.35879
2244.84902	0.36107
2242.92046	0.36338
2240.99189	0.36547
2239.06333	0.36747
2237.13477	0.36965
2235.20620	0.37199
2233.27764	0.37433
2231.34907	0.37655
2229.42051	0.37868
2227.49194	0.38080
2225.56338	0.38293
2223.63481	0.38510
2221.70625	0.38728
2219.77769	0.38937
2217.84912	0.39141
2215.92056	0.39350
2213.99199	0.39558
2212.06343	0.39768
2210.13486	0.39989
2208.20630	0.40209
2206.27773	0.40419
2204.34917	0.40625
2202.42061	0.40837
2200.49204	0.41053
2198.56348	0.41255
2196.63491	0.41440
2194.70635	0.41621
2192.77778	0.41800
2190.84922	0.41982
2188.92065	0.42174
2186.99209	0.42366
2185.06353	0.42546
2183.13496	0.42711
2181.20640	0.42865
2179.27783	0.43018
2177.34927	0.43178
2175.42070	0.43339
2173.49214	0.43486
2171.56357	0.43618
2169.63501	0.43745
2167.70645	0.43874
2165.77788	0.44004
2163.84932	0.44131
2161.92075	0.44258
2159.99219	0.44383
2158.06362	0.44498
2156.13506	0.44598
2154.20649	0.44687
2152.27793	0.44760
2150.34937	0.44818
2148.42080	0.44880
2146.49224	0.44952
2144.56367	0.45016
2142.63511	0.45063
2140.70654	0.45099
2138.77798	0.45127
2136.84941	0.45147
2134.92085	0.45160
2132.99229	0.45162
2131.06372	0.45155
2129.13516	0.45144
2127.20659	0.45131
2125.27803	0.45115
2123.34946	0.45083
2121.42090	0.45035
2119.49233	0.44980
2117.56377	0.44918
2115.63521	0.44849
2113.70664	0.44781
2111.77808	0.44716
2109.84951	0.44639
2107.92095	0.44537
2105.99238	0.44416
2104.06382	0.44293
2102.13525	0.44173
2100.20669	0.44053
2098.27812	0.43929
2096.34956	0.43794
2094.42100	0.43645
2092.49243	0.43484
2090.56387	0.43316
2088.63530	0.43149
2086.70674	0.42990
2084.77817	0.42826
2082.84961	0.42651
2080.92104	0.42467
2078.99248	0.42277
2077.06392	0.42077
2075.13535	0.41864
2073.20679	0.41648
2071.27822	0.41430
2069.34966	0.41208
2067.42109	0.40982
2065.49253	0.40753
2063.56396	0.40526
2061.63540	0.40301
2059.70684	0.40055
2057.77827	0.39786
2055.84971	0.39526
2053.92114	0.39283
2051.99258	0.39040
2050.06401	0.38782
2048.13545	0.38520
2046.20688	0.38268
2044.27832	0.38023
2042.34976	0.37776
2040.42119	0.37521
2038.49263	0.37251
2036.56406	0.36970
2034.63550	0.36697
2032.70693	0.36435
2030.77837	0.36175
2028.84980	0.35907
2026.92124	0.35633
2024.99268	0.35356
2023.06411	0.35075
2021.13555	0.34800
2019.20698	0.34537
2017.27842	0.34275
2015.34985	0.34003
2013.42129	0.33728
2011.49272	0.33456
2009.56416	0.33188
2007.63560	0.32921
2005.70703	0.32651
2003.77847	0.32375
2001.84990	0.32108
1999.92134	0.31856
1997.99277	0.31608
1996.06421	0.31359
1994.13564	0.31112
1992.20708	0.30872
1990.27852	0.30626
1988.34995	0.30373
1986.42139	0.30119
1984.49282	0.29878
1982.56426	0.29650
1980.63569	0.29425
1978.70713	0.29204
1976.77856	0.28982
1974.85000	0.28760
1972.92144	0.28547
1970.99287	0.28344
1969.06431	0.28149
1967.13574	0.27951
1965.20718	0.27747
1963.27861	0.27550
1961.35005	0.27360
1959.42148	0.27170
1957.49292	0.26985
1955.56436	0.26802
1953.63579	0.26623
1951.70723	0.26451
1949.77866	0.26288
1947.85010	0.26133
1945.92153	0.25985
1943.99297	0.25842
1942.06440	0.25699
1940.13584	0.25552
1938.20728	0.25408
1936.27871	0.25271
1934.35015	0.25133
1932.42158	0.24996
1930.49302	0.24872
1928.56445	0.24768
1926.63589	0.24668
1924.70732	0.24565
1922.77876	0.24460
1920.85020	0.24358
1918.92163	0.24273
1916.99307	0.24196
1915.06450	0.24105
1913.13594	0.24007
1911.20737	0.23923
1909.27881	0.23851
1907.35024	0.23785
1905.42168	0.23724
1903.49312	0.23672
1901.56455	0.23622
1899.63599	0.23569
1897.70742	0.23523
1895.77886	0.23485
1893.85029	0.23444
1891.92173	0.23407
1889.99316	0.23391
1888.06460	0.23366
1886.13604	0.23327
1884.20747	0.23297
1882.27891	0.23278
1880.35034	0.23268
1878.42178	0.23260
1876.49321	0.23259
1874.56465	0.23254
1872.63608	0.23250
1870.70752	0.23274
1868.77896	0.23338
1866.85039	0.23373
1864.92183	0.23356
1862.99326	0.23344
1861.06470	0.23356
1859.13613	0.23390
1857.20757	0.23430
1855.27900	0.23476
1853.35044	0.23519
1851.42187	0.23562
1849.49331	0.23617
1847.56475	0.23697
1845.63618	0.23798
1843.70762	0.23898
1841.77905	0.23958
1839.85049	0.23990
1837.92192	0.24058
1835.99336	0.24151
1834.06479	0.24249
1832.13623	0.24347
1830.20767	0.24480
1828.27910	0.24620
1826.35054	0.24729
1824.42197	0.24853
1822.49341	0.24966
1820.56484	0.25080
1818.63628	0.25218
1816.70771	0.25384
1814.77915	0.25553
1812.85059	0.25730
1810.92202	0.25932
1808.99346	0.26134
1807.06489	0.26317
1805.13633	0.26495
1803.20776	0.26703
1801.27920	0.26944
1799.35063	0.27225
1797.42207	0.27487
1795.49351	0.27732
1793.56494	0.28013
1791.63638	0.28370
1789.70781	0.28699
1787.77925	0.28942
1785.85068	0.29240
1783.92212	0.29601
1781.99355	0.29990
1780.06499	0.30405
1778.13643	0.30835
1776.20786	0.31232
1774.27930	0.31651
1772.35073	0.32221
1770.42217	0.32847
1768.49360	0.33374
1766.56504	0.33873
1764.63647	0.34388
1762.70791	0.34962
1760.77935	0.35696
1758.85078	0.36390
1756.92222	0.37082
1754.99365	0.37846
1753.06509	0.38542
1751.13652	0.39363
1749.20796	0.40399
1747.27939	0.41417
1745.35083	0.42302
1743.42227	0.43241
1741.49370	0.44286
1739.56514	0.45529
1737.63657	0.46781
1735.70801	0.47869
1733.77944	0.49492
1731.85088	0.51448
1729.92231	0.52987
1727.99375	0.54520
1726.06519	0.56166
1724.13662	0.57969
1722.20806	0.59927
1720.27949	0.61754
1718.35093	0.63896
1716.42236	0.67040
1714.49380	0.70033
1712.56523	0.72473
1710.63667	0.74842
1708.70811	0.77383
1706.77954	0.80254
1704.85098	0.83699
1702.92241	0.86807
1700.99385	0.89894
1699.06528	0.94481
1697.13672	0.98747
1695.20815	1.03184
1693.27959	1.07505
1691.35103	1.10990
1689.42246	1.15030
1687.49390	1.19331
1685.56533	1.23495
1683.63677	1.29922
1681.70820	1.36634
1679.77964	1.40932
1677.85107	1.44992
1675.92251	1.49669
1673.99395	1.55501
1672.06538	1.60742
1670.13682	1.65926
1668.20825	1.72764
1666.27969	1.78490
1664.35112	1.83391
1662.42256	1.89441
1660.49399	1.96271
1658.56543	2.01758
1656.63687	2.06180
1654.70830	2.10057
1652.77974	2.16084
1650.85117	2.21886
1648.92261	2.23954
1646.99404	2.26540
1645.06548	2.29186
1643.13691	2.30698
1641.20835	2.31538
1639.27979	2.32382
1637.35122	2.32907
1635.42266	2.32756
1633.49409	2.31758
1631.56553	2.30177
1629.63696	2.28252
1627.70840	2.25237
1625.77983	2.21802
1623.85127	2.17457
1621.92271	2.12097
1619.99414	2.07333
1618.06558	2.02683
1616.13701	1.96101
1614.20845	1.89487
1612.27988	1.84497
1610.35132	1.79239
1608.42275	1.73428
1606.49419	1.67724
1604.56562	1.62581
1602.63706	1.57678
1600.70850	1.52898
1598.77993	1.48478
1596.85137	1.44311
1594.92280	1.40283
1592.99424	1.36401
1591.06567	1.32863
1589.13711	1.29615
1587.20854	1.26638
1585.27998	1.23907
1583.35142	1.21394
1581.42285	1.19151
1579.49429	1.17261
1577.56572	1.15591
1575.63716	1.13611
1573.70859	1.11884
1571.78003	1.10797
1569.85146	1.09765
1567.92290	1.08696
1565.99434	1.07950
1564.06577	1.07447
1562.13721	1.07112
1560.20864	1.07045
1558.28008	1.07380
1556.35151	1.07713
1554.42295	1.07876
1552.49438	1.08062
1550.56582	1.08101
1548.63726	1.07871
1546.70869	1.07358
1544.78013	1.06512
1542.85156	1.05326
1540.92300	1.03521
1538.99443	1.00638
1537.06587	0.98501
1535.13730	0.97018
1533.20874	0.95058
1531.28018	0.92978
1529.35161	0.91466
1527.42305	0.90051
1525.49448	0.88585
1523.56592	0.87316
1521.63735	0.86106
1519.70879	0.84916
1517.78022	0.83892
1515.85166	0.82669
1513.92310	0.81404
1511.99453	0.80331
1510.06597	0.79380
1508.13740	0.78462
1506.20884	0.77008
1504.28027	0.75738
1502.35171	0.75045
1500.42314	0.74438
1498.49458	0.73769
1496.56602	0.72979
1494.63745	0.72205
1492.70889	0.71615
1490.78032	0.71092
1488.85176	0.70480
1486.92319	0.69906
1484.99463	0.69463
1483.06606	0.69115
1481.13750	0.68830
1479.20894	0.68617
1477.28037	0.68503
1475.35181	0.68467
1473.42324	0.68464
1471.49468	0.68397
1469.56611	0.68236
1467.63755	0.68031
1465.70898	0.67842
1463.78042	0.67718
1461.85186	0.67670
1459.92329	0.67694
1457.99473	0.67785
1456.06616	0.67770
1454.13760	0.67542
1452.20903	0.67295
1450.28047	0.67058
1448.35190	0.66823
1446.42334	0.66574
1444.49478	0.66329
1442.56621	0.66095
1440.63765	0.65846
1438.70908	0.65591
1436.78052	0.65281
1434.85195	0.64904
1432.92339	0.64586
1430.99482	0.64382
1429.06626	0.64289
1427.13770	0.64275
1425.20913	0.64311
1423.28057	0.64382
1421.35200	0.64446
1419.42344	0.64489
1417.49487	0.64471
1415.56631	0.64364
1413.63774	0.64288
1411.70918	0.64308
1409.78062	0.64399
1407.85205	0.64519
1405.92349	0.64676
1403.99492	0.64840
1402.06636	0.64907
1400.13779	0.64856
1398.20923	0.64715
1396.28066	0.64482
1394.35210	0.64122
1392.42354	0.63687
1390.49497	0.63282
1388.56641	0.62887
1386.63784	0.62420
1384.70928	0.61906
1382.78071	0.61425
1380.85215	0.60989
1378.92358	0.60618
1376.99502	0.60330
1375.06646	0.60128
1373.13789	0.59980
1371.20933	0.59878
1369.28076	0.59807
1367.35220	0.59704
1365.42363	0.59557
1363.49507	0.59410
1361.56650	0.59264
1359.63794	0.59105
1357.70937	0.58962
1355.78081	0.58849
1353.85225	0.58752
1351.92368	0.58664
1349.99512	0.58596
1348.06655	0.58528
1346.13799	0.58448
1344.20942	0.58369
1342.28086	0.58302
1340.35229	0.58249
1338.42373	0.58195
1336.49517	0.58139
1334.56660	0.58090
1332.63804	0.58060
1330.70947	0.58068
1328.78091	0.58110
1326.85234	0.58169
1324.92378	0.58245
1322.99521	0.58331
1321.06665	0.58400
1319.13809	0.58444
1317.20952	0.58470
1315.28096	0.58473
1313.35239	0.58447
1311.42383	0.58411
1309.49526	0.58373
1307.56670	0.58321
1305.63813	0.58258
1303.70957	0.58204
1301.78101	0.58156
1299.85244	0.58082
1297.92388	0.57980
1295.99531	0.57872
1294.06675	0.57766
1292.13818	0.57654
1290.20962	0.57529
1288.28105	0.57408
1286.35249	0.57296
1284.42393	0.57174
1282.49536	0.57042
1280.56680	0.56912
1278.63823	0.56778
1276.70967	0.56646
1274.78110	0.56531
1272.85254	0.56441
1270.92397	0.56369
1268.99541	0.56296
1267.06685	0.56215
1265.13828	0.56133
1263.20972	0.56044
1261.28115	0.55944
1259.35259	0.55853
1257.42402	0.55789
1255.49546	0.55765
1253.56689	0.55768
1251.63833	0.55772
1249.70977	0.55769
1247.78120	0.55756
1245.85264	0.55723
1243.92407	0.55662
1241.99551	0.55573
1240.06694	0.55448
1238.13838	0.55281
1236.20981	0.55086
1234.28125	0.54879
1232.35269	0.54670
1230.42412	0.54460
1228.49556	0.54257
1226.56699	0.54064
1224.63843	0.53877
1222.70986	0.53705
1220.78130	0.53556
1218.85273	0.53419
1216.92417	0.53280
1214.99561	0.53152
1213.06704	0.53053
1211.13848	0.52982
1209.20991	0.52922
1207.28135	0.52864
1205.35278	0.52794
1203.42422	0.52697
1201.49565	0.52594
1199.56709	0.52511
1197.63853	0.52434
1195.70996	0.52361
1193.78140	0.52307
1191.85283	0.52253
1189.92427	0.52195
1187.99570	0.52163
1186.06714	0.52155
1184.13857	0.52157
1182.21001	0.52190
1180.28145	0.52268
1178.35288	0.52382
1176.42432	0.52520
1174.49575	0.52638
1172.56719	0.52712
1170.63862	0.52741
1168.71006	0.52741
1166.78149	0.52734
1164.85293	0.52723
1162.92437	0.52701
1160.99580	0.52667
1159.06724	0.52625
1157.13867	0.52567
1155.21011	0.52477
1153.28154	0.52337
1151.35298	0.52156
1149.42441	0.51952
1147.49585	0.51728
1145.56729	0.51486
1143.63872	0.51243
1141.71016	0.51030
1139.78159	0.50852
1137.85303	0.50699
1135.92446	0.50585
1133.99590	0.50522
1132.06733	0.50484
1130.13877	0.50447
1128.21021	0.50402
1126.28164	0.50340
1124.35308	0.50269
1122.42451	0.50202
1120.49595	0.50154
1118.56738	0.50142
1116.63882	0.50164
1114.71025	0.50201
1112.78169	0.50249
1110.85312	0.50314
1108.92456	0.50404
1106.99600	0.50506
1105.06743	0.50614
1103.13887	0.50733
1101.21030	0.50859
1099.28174	0.51006
1097.35317	0.51216
1095.42461	0.51482
1093.49604	0.51784
1091.56748	0.52195
1089.63892	0.52764
1087.71035	0.53440
1085.78179	0.54168
1083.85322	0.54916
1081.92466	0.55620
1079.99609	0.56162
1078.06753	0.56448
1076.13896	0.56452
1074.21040	0.56161
1072.28184	0.55628
1070.35327	0.54985
1068.42471	0.54315
1066.49614	0.53646
1064.56758	0.53010
1062.63901	0.52436
1060.71045	0.51945
1058.78188	0.51530
1056.85332	0.51157
1054.92476	0.50804
1052.99619	0.50477
1051.06763	0.50193
1049.13906	0.49963
1047.21050	0.49806
1045.28193	0.49714
1043.35337	0.49645
1041.42480	0.49579
1039.49624	0.49540
1037.56768	0.49523
1035.63911	0.49487
1033.71055	0.49430
1031.78198	0.49379
1029.85342	0.49318
1027.92485	0.49216
1025.99629	0.49099
1024.06772	0.49025
1022.13916	0.49010
1020.21060	0.49016
1018.28203	0.49023
1016.35347	0.49055
1014.42490	0.49099
1012.49634	0.49107
1010.56777	0.49097
1008.63921	0.49138
1006.71064	0.49248
1004.78208	0.49390
1002.85352	0.49569
1000.92495	0.49833
998.99639	0.50179
997.06782	0.50570
995.13926	0.50996
993.21069	0.51429
991.28213	0.51795
989.35356	0.52031
987.42500	0.52143
985.49644	0.52184
983.56787	0.52205
981.63931	0.52244
979.71074	0.52326
977.78218	0.52460
975.85361	0.52646
973.92505	0.52892
971.99648	0.53196
970.06792	0.53523
968.13936	0.53867
966.21079	0.54253
964.28223	0.54700
962.35366	0.55188
960.42510	0.55680
958.49653	0.56173
956.56797	0.56705
954.63940	0.57289
952.71084	0.57893
950.78228	0.58525
948.85371	0.59203
946.92515	0.59877
944.99658	0.60504
943.06802	0.61105
941.13945	0.61690
939.21089	0.62260
937.28232	0.62854
935.35376	0.63469
933.42520	0.64044
931.49663	0.64591
929.56807	0.65149
927.63950	0.65696
925.71094	0.66221
923.78237	0.66784
921.85381	0.67440
919.92524	0.68155
917.99668	0.68876
916.06812	0.69597
914.13955	0.70293
912.21099	0.70969
910.28242	0.71675
908.35386	0.72452
906.42529	0.73314
904.49673	0.74237
902.56816	0.75180
900.63960	0.76078
898.71104	0.76968
896.78247	0.77912
894.85391	0.78896
892.92534	0.79951
890.99678	0.81049
889.06821	0.82157
887.13965	0.83269
885.21108	0.84250
883.28252	0.85118
881.35396	0.86134
879.42539	0.87402
877.49683	0.88745
875.56826	0.89961
873.63970	0.91011
871.71113	0.91991
869.78257	0.93021
867.85400	0.94164
865.92544	0.95390
863.99687	0.96543
862.06831	0.97568
860.13975	0.98685
858.21118	0.99990
856.28262	1.01236
854.35405	1.02427
852.42549	1.03671
850.49692	1.04847
848.56836	1.06051
846.63979	1.07312
844.71123	1.08434
842.78267	1.09514
840.85410	1.10728
838.92554	1.11964
836.99697	1.13055
835.06841	1.13949
833.13984	1.14921
831.21128	1.16320
829.28271	1.17854
827.35415	1.19038
825.42559	1.19872
823.49702	1.20570
821.56846	1.21225
819.63989	1.21952
817.71133	1.23133
815.78276	1.25083
813.85420	1.27429
811.92563	1.29506
809.99707	1.31063
808.06851	1.32090
806.13994	1.32943
804.21138	1.33551
802.28281	1.33588
800.35425	1.34487
798.42568	1.37774
796.49712	1.41127
794.56855	1.41184
792.63999	1.39768
790.71143	1.40120
788.78286	1.41850
786.85430	1.43407
784.92573	1.46442
782.99717	1.50382
781.06860	1.57716
779.14004	1.67211
777.21147	1.56750
775.28291	1.45192
773.35435	1.47029
771.42578	1.52308
769.49722	1.53932
767.56865	1.52358
765.64009	1.49392
763.71152	1.46106
761.78296	1.43528
759.85439	1.45505
757.92583	1.51038
755.99727	1.61283
754.06870	2.63663
752.14014	4.51284
750.21157	4.50127
748.28301	4.48970
746.35444	1.53279
744.42588	1.35832
742.49731	1.21765
740.56875	1.09363
738.64019	1.09121
736.71162	1.09923
734.78306	0.98118
732.85449	0.89592
730.92593	0.89299
728.99736	0.83306
727.06880	0.79094
725.14023	1.01445
723.21167	1.34633
721.28311	0.77033
719.35454	0.43939
717.42598	0.26439
715.49741	0.16016
713.56885	0.04161
711.64028	-0.32851
709.71172	-0.32762
707.78315	0.18346
705.85459	0.43405
703.92603	0.82482
701.99746	4.21198
700.06890	4.20041
698.14033	4.18884
696.21177	2.10087
694.28320	1.11921
692.35464	0.76155
690.42607	0.49121
688.49751	0.40327
686.56895	0.43606
684.64038	0.60822
682.71182	0.87631
680.78325	0.89398
678.85469	0.75294
676.92612	0.72412
674.99756	0.75312
673.06899	0.41746
671.14043	0.25766
669.21187	0.36996
667.28330	0.60028
665.35474	0.48293
663.42617	0.26175
661.49761	0.17735
659.56904	0.19226
657.64048	0.22458
655.71191	0.24634
653.78335	0.33500
651.85479	0.50651
649.92622	0.42835
647.99766	0.24083
646.06909	0.28315
644.14053	0.41526
642.21196	0.36548
640.28340	0.34591
638.35483	0.37692
636.42627	0.35153
634.49771	0.42310
632.56914	1.06619
630.64058	3.78384
628.71201	0.71207
626.78345	0.40212
624.85488	0.33018
622.92632	0.29299
620.99775	0.30825
619.06919	0.38258
617.14062	0.42842
615.21206	0.40724
613.28350	0.27945
611.35493	0.13189
609.42637	0.09795
607.49780	0.14868
605.56924	0.22185
603.64067	0.27255
601.71211	0.28772
599.78354	0.29866
597.85498	0.30023
595.92642	0.42774
593.99785	3.56399
592.06929	3.55242
590.14072	3.54084
588.21216	0.56969
586.28359	0.31398
584.35503	0.17860
582.42646	0.19012
580.49790	0.32160
578.56934	0.50846
576.64077	0.52502
574.71221	0.40325
572.78364	0.28337
570.85508	0.21919
568.92651	0.18410
566.99795	0.16133
565.06938	0.19934
563.14082	0.31322
561.21226	0.36658
559.28369	0.30156
557.35513	0.21733
555.42656	0.18216
553.49800	0.22182
551.56943	0.24500
549.64087	0.18375
547.71230	0.13335
545.78374	0.12439
543.85518	0.16590
541.92661	0.22610
539.99805	0.26059
538.06948	0.24770
536.14092	0.20325
534.21235	0.20819
532.28379	0.29134
530.35522	0.39383
528.42666	0.34873
526.49810	0.23806
524.56953	0.21480
522.64097	0.25872
520.71240	0.31701
518.78384	0.38887
516.85527	0.47801
514.92671	0.49399
512.99814	0.34485
511.06958	0.20716
509.14102	0.13464
507.21245	0.10235
505.28389	0.10682
503.35532	0.14783
501.42676	0.20832
499.49819	0.24377
