3997.91411	0.06528
3995.98555	0.06528
3994.05698	0.06537
3992.12842	0.06578
3990.19985	0.06625
3988.27129	0.06666
3986.34272	0.06679
3984.41416	0.06669
3982.48560	0.06667
3980.55703	0.06689
3978.62847	0.06751
3976.69990	0.06818
3974.77134	0.06829
3972.84277	0.06805
3970.91421	0.06815
3968.98564	0.06864
3967.05708	0.06898
3965.12852	0.06897
3963.19995	0.06908
3961.27139	0.06935
3959.34282	0.06941
3957.41426	0.06923
3955.48569	0.06914
3953.55713	0.06917
3951.62856	0.06897
3949.70000	0.06879
3947.77144	0.06927
3945.84287	0.06993
3943.91431	0.07014
3941.98574	0.07020
3940.05718	0.06999
3938.12861	0.06966
3936.20005	0.06984
3934.27148	0.07028
3932.34292	0.07050
3930.41436	0.07030
3928.48579	0.06967
3926.55723	0.06914
3924.62866	0.06895
3922.70010	0.06875
3920.77153	0.06884
3918.84297	0.06940
3916.91440	0.06976
3914.98584	0.06946
3913.05728	0.06895
3911.12871	0.06896
3909.20015	0.06947
3907.27158	0.07004
3905.34302	0.07040
3903.41445	0.07045
3901.48589	0.07027
3899.55732	0.06997
3897.62876	0.06971
3895.70020	0.06954
3893.77163	0.06959
3891.84307	0.07002
3889.91450	0.07024
3887.98594	0.06996
3886.05737	0.07005
3884.12881	0.07050
3882.20024	0.07064
3880.27168	0.07049
3878.34312	0.07020
3876.41455	0.07010
3874.48599	0.07059
3872.55742	0.07142
3870.62886	0.07196
3868.70029	0.07252
3866.77173	0.07299
3864.84316	0.07297
3862.91460	0.07287
3860.98604	0.07295
3859.05747	0.07316
3857.12891	0.07357
3855.20034	0.07422
3853.27178	0.07484
3851.34321	0.07518
3849.41465	0.07528
3847.48608	0.07534
3845.55752	0.07572
3843.62896	0.07676
3841.70039	0.07799
3839.77183	0.07841
3837.84326	0.07847
3835.91470	0.07917
3833.98613	0.08010
3832.05757	0.08108
3830.12900	0.08190
3828.20044	0.08211
3826.27187	0.08228
3824.34331	0.08290
3822.41475	0.08381
3820.48618	0.08530
3818.55762	0.08687
3816.62905	0.08780
3814.70049	0.08840
3812.77192	0.08890
3810.84336	0.08952
3808.91479	0.09038
3806.98623	0.09194
3805.05767	0.09392
3803.12910	0.09527
3801.20054	0.09652
3799.27197	0.09798
3797.34341	0.09896
3795.41484	0.09961
3793.48628	0.09996
3791.55771	0.10036
3789.62915	0.10113
3787.70059	0.10234
3785.77202	0.10402
3783.84346	0.10586
3781.91489	0.10745
3779.98633	0.10915
3778.05776	0.11133
3776.12920	0.11312
3774.20063	0.11423
3772.27207	0.11531
3770.34351	0.11701
3768.41494	0.11966
3766.48638	0.12225
3764.55781	0.12424
3762.62925	0.12580
3760.70068	0.12740
3758.77212	0.12978
3756.84355	0.13259
3754.91499	0.13501
3752.98643	0.13735
3751.05786	0.14004
3749.12930	0.14285
3747.20073	0.14507
3745.27217	0.14733
3743.34360	0.15115
3741.41504	0.15512
3739.48647	0.15797
3737.55791	0.16115
3735.62935	0.16540
3733.70078	0.17029
3731.77222	0.17491
3729.84365	0.17930
3727.91509	0.18368
3725.98652	0.18882
3724.05796	0.19538
3722.12939	0.20268
3720.20083	0.21000
3718.27227	0.21765
3716.34370	0.22581
3714.41514	0.23370
3712.48657	0.24247
3710.55801	0.25468
3708.62944	0.26846
3706.70088	0.28041
3704.77231	0.29185
3702.84375	0.30499
3700.91519	0.32186
3698.98662	0.34078
3697.05806	0.35908
3695.12949	0.37812
3693.20093	0.39805
3691.27236	0.41990
3689.34380	0.44819
3687.41523	0.48230
3685.48667	0.51257
3683.55811	0.53947
3681.62954	0.56821
3679.70098	0.60001
3677.77241	0.63312
3675.84385	0.67222
3673.91528	0.72522
3671.98672	0.76883
3670.05815	0.80722
3668.12959	0.86073
3666.20103	0.91065
3664.27246	0.95208
3662.34390	0.99584
3660.41533	1.04309
3658.48677	1.08968
3656.55820	1.13873
3654.62964	1.19361
3652.70107	1.24046
3650.77251	1.28091
3648.84395	1.33572
3646.91538	1.40376
3644.98682	1.45492
3643.05825	1.49433
3641.12969	1.53434
3639.20112	1.57820
3637.27256	1.62241
3635.34399	1.66551
3633.41543	1.70818
3631.48687	1.74834
3629.55830	1.79016
3627.62974	1.84483
3625.70117	1.89535
3623.77261	1.92918
3621.84404	1.96120
3619.91548	1.99812
3617.98691	2.04318
3616.05835	2.08771
3614.12979	2.12646
3612.20122	2.16660
3610.27266	2.20514
3608.34409	2.24317
3606.41553	2.28496
3604.48696	2.32483
3602.55840	2.36007
3600.62983	2.39746
3598.70127	2.43832
3596.77271	2.47854
3594.84414	2.51918
3592.91558	2.56109
3590.98701	2.60043
3589.05845	2.63668
3587.12988	2.67942
3585.20132	2.72674
3583.27275	2.76783
3581.34419	2.80698
3579.41562	2.84922
3577.48706	2.89256
3575.55850	2.93430
3573.62993	2.97620
3571.70137	3.01702
3569.77280	3.05583
3567.84424	3.09753
3565.91567	3.14965
3563.98711	3.20167
3562.05854	3.24430
3560.12998	3.28466
3558.20142	3.32767
3556.27285	3.37495
3554.34429	3.42256
3552.41572	3.46830
3550.48716	3.51249
3548.55859	3.55515
3546.63003	3.59854
3544.70146	3.64759
3542.77290	3.69893
3540.84434	3.74552
3538.91577	3.78928
3536.98721	3.83421
3535.05864	3.88280
3533.13008	3.93237
3531.20151	3.97992
3529.27295	4.02540
3527.34438	4.07245
3525.41582	4.12065
3523.48726	4.16631
3521.55869	4.21148
3519.63013	4.25827
3517.70156	4.30800
3515.77300	4.35905
3513.84443	4.40896
3511.91587	4.45733
3509.98730	4.50712
3508.05874	4.55869
3506.13018	4.60486
3504.20161	4.64597
3502.27305	4.69415
3500.34448	4.74911
3498.41592	4.79522
3496.48735	4.83374
3494.55879	4.87883
3492.63022	4.93344
3490.70166	4.98719
3488.77310	5.03413
3486.84453	5.07935
3484.91597	5.12768
3482.98740	5.17700
3481.05884	5.22394
3479.13027	5.26225
3477.20171	5.29472
3475.27314	5.33952
3473.34458	5.39926
3471.41602	5.45625
3469.48745	5.50155
3467.55889	5.54345
3465.63032	5.58937
3463.70176	5.64178
3461.77319	5.70094
3459.84463	5.76207
3457.91606	5.82671
3455.98750	5.89415
3454.05894	5.94986
3452.13037	5.99371
3450.20181	6.03098
3448.27324	6.06200
3446.34468	6.10407
3444.41611	6.16247
3442.48755	6.22590
3440.55898	6.28186
3438.63042	6.32363
3436.70186	6.36331
3434.77329	6.41301
3432.84473	6.46636
3430.91616	6.51306
3428.98760	6.55999
3427.05903	6.61432
3425.13047	6.67815
3423.20190	6.73333
3421.27334	6.75924
3419.34478	6.77940
3417.41621	6.83569
3415.48765	6.91858
3413.55908	6.98149
3411.63052	7.00935
3409.70195	7.02088
3407.77339	7.04526
3405.84482	7.09284
3403.91626	7.16288
3401.98770	7.21959
3400.05913	7.24090
3398.13057	7.27118
3396.20200	7.33617
3394.27344	7.41708
3392.34487	7.47595
3390.41631	7.50484
3388.48774	7.50918
3386.55918	7.50534
3384.63062	7.51397
3382.70205	7.55901
3380.77349	7.63628
3378.84492	7.69093
3376.91636	7.70656
3374.98779	7.72937
3373.05923	7.80434
3371.13066	7.87840
3369.20210	7.89040
3367.27354	7.87980
3365.34497	7.90372
3363.41641	7.94530
3361.48784	7.96896
3359.55928	7.98256
3357.63071	7.99305
3355.70215	8.00862
3353.77358	8.02075
3351.84502	8.01250
3349.91646	7.96904
3347.98789	7.97538
3346.05933	8.06893
3344.13076	8.16008
3342.20220	8.19943
3340.27363	8.13921
3338.34507	8.02720
3336.41650	7.98577
3334.48794	8.05734
3332.55937	8.17980
3330.63081	8.23758
3328.70225	8.15614
3326.77368	8.04100
3324.84512	8.04438
3322.91655	8.11246
3320.98799	8.10812
3319.05942	8.05538
3317.13086	8.07335
3315.20229	8.16022
3313.27373	8.23512
3311.34517	8.26039
3309.41660	8.24439
3307.48804	8.21449
3305.55947	8.19829
3303.63091	8.24495
3301.70234	8.35751
3299.77378	8.41471
3297.84521	8.33296
3295.91665	8.25235
3293.98809	8.27586
3292.05952	8.34784
3290.13096	8.34135
3288.20239	8.26009
3286.27383	8.19656
3284.34526	8.17085
3282.41670	8.23658
3280.48813	8.33691
3278.55957	8.31986
3276.63101	8.24560
3274.70244	8.22562
3272.77388	8.22017
3270.84531	8.20243
3268.91675	8.17792
3266.98818	8.12936
3265.05962	8.14599
3263.13105	8.24732
3261.20249	8.29488
3259.27393	8.25401
3257.34536	8.20562
3255.41680	8.17544
3253.48823	8.19233
3251.55967	8.25163
3249.63110	8.30554
3247.70254	8.35626
3245.77397	8.34887
3243.84541	8.26745
3241.91685	8.19995
3239.98828	8.15703
3238.05972	8.13185
3236.13115	8.17530
3234.20259	8.24415
3232.27402	8.24756
3230.34546	8.21263
3228.41689	8.13325
3226.48833	8.05217
3224.55977	8.09304
3222.63120	8.17413
3220.70264	8.08706
3218.77407	7.91057
3216.84551	7.83604
3214.91694	7.87309
3212.98838	7.91399
3211.05981	7.93051
3209.13125	7.96446
3207.20269	7.95868
3205.27412	7.89348
3203.34556	7.84456
3201.41699	7.79290
3199.48843	7.68734
3197.55986	7.59334
3195.63130	7.57227
3193.70273	7.60066
3191.77417	7.62601
3189.84561	7.59969
3187.91704	7.52325
3185.98848	7.46250
3184.05991	7.44974
3182.13135	7.42811
3180.20278	7.34936
3178.27422	7.24584
3176.34565	7.17410
3174.41709	7.12627
3172.48853	7.06755
3170.55996	7.01999
3168.63140	6.98286
3166.70283	6.92752
3164.77427	6.86646
3162.84570	6.78999
3160.91714	6.68201
3158.98857	6.57740
3157.06001	6.50264
3155.13145	6.45994
3153.20288	6.42455
3151.27432	6.36274
3149.34575	6.28542
3147.41719	6.21036
3145.48862	6.13501
3143.56006	6.06407
3141.63149	5.99555
3139.70293	5.91640
3137.77437	5.83800
3135.84580	5.77447
3133.91724	5.71540
3131.98867	5.64983
3130.06011	5.57945
3128.13154	5.50933
3126.20298	5.43861
3124.27441	5.36800
3122.34585	5.29952
3120.41729	5.22953
3118.48872	5.15572
3116.56016	5.08135
3114.63159	5.00919
3112.70303	4.93856
3110.77446	4.86927
3108.84590	4.80307
3106.91733	4.73802
3104.98877	4.66894
3103.06021	4.59586
3101.13164	4.52447
3099.20308	4.45858
3097.27451	4.39350
3095.34595	4.32596
3093.41738	4.25958
3091.48882	4.19597
3089.56025	4.13404
3087.63169	4.06956
3085.70312	4.00243
3083.77456	3.93938
3081.84600	3.88080
3079.91743	3.82183
3077.98887	3.76161
3076.06030	3.70125
3074.13174	3.64077
3072.20317	3.58091
3070.27461	3.52316
3068.34604	3.46646
3066.41748	3.40947
3064.48892	3.35411
3062.56035	3.30081
3060.63179	3.24753
3058.70322	3.19354
3056.77466	3.13961
3054.84609	3.08697
3052.91753	3.03587
3050.98896	2.98511
3049.06040	2.93416
3047.13184	2.88438
3045.20327	2.83638
3043.27471	2.78865
3041.34614	2.74013
3039.41758	2.69203
3037.48901	2.64607
3035.56045	2.60189
3033.63188	2.55779
3031.70332	2.51297
3029.77476	2.46801
3027.84619	2.42435
3025.91763	2.38246
3023.98906	2.34099
3022.06050	2.29964
3020.13193	2.25945
3018.20337	2.22051
3016.27480	2.18215
3014.34624	2.14370
3012.41768	2.10501
3010.48911	2.06683
3008.56055	2.03012
3006.63198	1.99475
3004.70342	1.95985
3002.77485	1.92533
3000.84629	1.89146
2998.91772	1.85790
2996.98916	1.82441
2995.06060	1.79183
2993.13203	1.76060
2991.20347	1.73021
2989.27490	1.70015
2987.34634	1.67013
2985.41777	1.64051
2983.48921	1.61132
2981.56064	1.58246
2979.63208	1.55473
2977.70352	1.52783
2975.77495	1.50104
2973.84639	1.47486
2971.91782	1.44930
2969.98926	1.42386
2968.06069	1.39878
2966.13213	1.37423
2964.20356	1.35013
2962.27500	1.32660
2960.34644	1.30315
2958.41787	1.27959
2956.48931	1.25636
2954.56074	1.23365
2952.63218	1.21120
2950.70361	1.18898
2948.77505	1.16752
2946.84648	1.14676
2944.91792	1.12626
2942.98936	1.10586
2941.06079	1.08572
2939.13223	1.06636
2937.20366	1.04759
2935.27510	1.02880
2933.34653	1.01017
2931.41797	0.99177
2929.48940	0.97365
2927.56084	0.95616
2925.63228	0.93900
2923.70371	0.92206
2921.77515	0.90529
2919.84658	0.88845
2917.91802	0.87206
2915.98945	0.85639
2914.06089	0.84110
2912.13232	0.82619
2910.20376	0.81163
2908.27520	0.79743
2906.34663	0.78358
2904.41807	0.76958
2902.48950	0.75567
2900.56094	0.74263
2898.63237	0.73032
2896.70381	0.71819
2894.77524	0.70606
2892.84668	0.69403
2890.91812	0.68221
2888.98955	0.67084
2887.06099	0.65989
2885.13242	0.64924
2883.20386	0.63885
2881.27529	0.62867
2879.34673	0.61865
2877.41816	0.60873
2875.48960	0.59895
2873.56104	0.58908
2871.63247	0.57892
2869.70391	0.56876
2867.77534	0.55880
2865.84678	0.54878
2863.91821	0.53850
2861.98965	0.52841
2860.06108	0.51915
2858.13252	0.51051
2856.20396	0.50182
2854.27539	0.49302
2852.34683	0.48443
2850.41826	0.47613
2848.48970	0.46819
2846.56113	0.46075
2844.63257	0.45380
2842.70400	0.44700
2840.77544	0.44030
2838.84687	0.43392
2836.91831	0.42784
2834.98975	0.42196
2833.06118	0.41618
2831.13262	0.41034
2829.20405	0.40445
2827.27549	0.39853
2825.34692	0.39263
2823.41836	0.38670
2821.48979	0.38079
2819.56123	0.37517
2817.63267	0.36985
2815.70410	0.36459
2813.77554	0.35921
2811.84697	0.35372
2809.91841	0.34844
2807.98984	0.34340
2806.06128	0.33840
2804.13271	0.33348
2802.20415	0.32878
2800.27559	0.32423
2798.34702	0.31963
2796.41846	0.31505
2794.48989	0.31078
2792.56133	0.30664
2790.63276	0.30226
2788.70420	0.29779
2786.77563	0.29353
2784.84707	0.28948
2782.91851	0.28561
2780.98994	0.28185
2779.06138	0.27814
2777.13281	0.27444
2775.20425	0.27072
2773.27568	0.26698
2771.34712	0.26337
2769.41855	0.25998
2767.48999	0.25670
2765.56143	0.25352
2763.63286	0.25034
2761.70430	0.24712
2759.77573	0.24409
2757.84717	0.24129
2755.91860	0.23844
2753.99004	0.23544
2752.06147	0.23247
2750.13291	0.22969
2748.20435	0.22718
2746.27578	0.22487
2744.34722	0.22255
2742.41865	0.22004
2740.49009	0.21745
2738.56152	0.21493
2736.63296	0.21264
2734.70439	0.21051
2732.77583	0.20829
2730.84727	0.20601
2728.91870	0.20381
2726.99014	0.20171
2725.06157	0.19972
2723.13301	0.19780
2721.20444	0.19578
2719.27588	0.19375
2717.34731	0.19196
2715.41875	0.19032
2713.49019	0.18864
2711.56162	0.18687
2709.63306	0.18507
2707.70449	0.18335
2705.77593	0.18183
2703.84736	0.18038
2701.91880	0.17878
2699.99023	0.17713
2698.06167	0.17571
2696.13311	0.17450
2694.20454	0.17323
2692.27598	0.17195
2690.34741	0.17076
2688.41885	0.16953
2686.49028	0.16812
2684.56172	0.16673
2682.63315	0.16552
2680.70459	0.16445
2678.77603	0.16340
2676.84746	0.16232
2674.91890	0.16128
2672.99033	0.16034
2671.06177	0.15943
2669.13320	0.15846
2667.20464	0.15747
2665.27607	0.15656
2663.34751	0.15571
2661.41895	0.15495
2659.49038	0.15430
2657.56182	0.15352
2655.63325	0.15261
2653.70469	0.15189
2651.77612	0.15133
2649.84756	0.15077
2647.91899	0.15018
2645.99043	0.14957
2644.06187	0.14891
2642.13330	0.14826
2640.20474	0.14777
2638.27617	0.14745
2636.34761	0.14711
2634.41904	0.14670
2632.49048	0.14634
2630.56191	0.14598
2628.63335	0.14562
2626.70479	0.14535
2624.77622	0.14515
2622.84766	0.14491
2620.91909	0.14453
2618.99053	0.14419
2617.06196	0.14412
2615.13340	0.14411
2613.20483	0.14393
2611.27627	0.14382
2609.34771	0.14389
2607.41914	0.14394
2605.49058	0.14380
2603.56201	0.14363
2601.63345	0.14358
2599.70488	0.14368
2597.77632	0.14390
2595.84775	0.14413
2593.91919	0.14424
2591.99062	0.14419
2590.06206	0.14401
2588.13350	0.14393
2586.20493	0.14417
2584.27637	0.14461
2582.34780	0.14493
2580.41924	0.14515
2578.49067	0.14551
2576.56211	0.14594
2574.63354	0.14630
2572.70498	0.14658
2570.77642	0.14676
2568.84785	0.14703
2566.91929	0.14757
2564.99072	0.14814
2563.06216	0.14851
2561.13359	0.14886
2559.20503	0.14943
2557.27646	0.15005
2555.34790	0.15039
2553.41934	0.15066
2551.49077	0.15122
2549.56221	0.15206
2547.63364	0.15288
2545.70508	0.15351
2543.77651	0.15402
2541.84795	0.15452
2539.91938	0.15514
2537.99082	0.15587
2536.06226	0.15650
2534.13369	0.15704
2532.20513	0.15773
2530.27656	0.15848
2528.34800	0.15915
2526.41943	0.15980
2524.49087	0.16047
2522.56230	0.16122
2520.63374	0.16198
2518.70518	0.16276
2516.77661	0.16372
2514.84805	0.16469
2512.91948	0.16546
2510.99092	0.16619
2509.06235	0.16689
2507.13379	0.16754
2505.20522	0.16827
2503.27666	0.16907
2501.34810	0.16983
2499.41953	0.17067
2497.49097	0.17164
2495.56240	0.17254
2493.63384	0.17326
2491.70527	0.17401
2489.77671	0.17491
2487.84814	0.17585
2485.91958	0.17670
2483.99102	0.17753
2482.06245	0.17843
2480.13389	0.17936
2478.20532	0.18031
2476.27676	0.18127
2474.34819	0.18224
2472.41963	0.18319
2470.49106	0.18410
2468.56250	0.18503
2466.63394	0.18602
2464.70537	0.18693
2462.77681	0.18773
2460.84824	0.18861
2458.91968	0.18964
2456.99111	0.19063
2455.06255	0.19153
2453.13398	0.19244
2451.20542	0.19342
2449.27686	0.19439
2447.34829	0.19536
2445.41973	0.19639
2443.49116	0.19742
2441.56260	0.19835
2439.63403	0.19932
2437.70547	0.20040
2435.77690	0.20156
2433.84834	0.20267
2431.91978	0.20364
2429.99121	0.20451
2428.06265	0.20545
2426.13408	0.20656
2424.20552	0.20781
2422.27695	0.20905
2420.34839	0.21016
2418.41982	0.21129
2416.49126	0.21248
2414.56270	0.21357
2412.63413	0.21458
2410.70557	0.21563
2408.77700	0.21673
2406.84844	0.21788
2404.91987	0.21909
2402.99131	0.22028
2401.06274	0.22142
2399.13418	0.22267
2397.20562	0.22401
2395.27705	0.22523
2393.34849	0.22638
2391.41992	0.22757
2389.49136	0.22870
2387.56279	0.22970
2385.63423	0.23053
2383.70566	0.23098
2381.77710	0.23093
2379.84854	0.23046
2377.91997	0.22971
2375.99141	0.22878
2374.06284	0.22758
2372.13428	0.22576
2370.20571	0.22318
2368.27715	0.21996
2366.34858	0.21680
2364.42002	0.21424
2362.49146	0.21217
2360.56289	0.21140
2358.63433	0.21359
2356.70576	0.21886
2354.77720	0.22552
2352.84863	0.23237
2350.92007	0.23822
2348.99150	0.24169
2347.06294	0.24256
2345.13437	0.24129
2343.20581	0.23929
2341.27725	0.23945
2339.34868	0.24218
2337.42012	0.24494
2335.49155	0.24687
2333.56299	0.24869
2331.63442	0.25106
2329.70586	0.25404
2327.77729	0.25689
2325.84873	0.25952
2323.92017	0.26244
2321.99160	0.26565
2320.06304	0.26886
2318.13447	0.27217
2316.20591	0.27558
2314.27734	0.27859
2312.34878	0.28104
2310.42021	0.28342
2308.49165	0.28593
2306.56309	0.28863
2304.63452	0.29145
2302.70596	0.29396
2300.77739	0.29614
2298.84883	0.29822
2296.92026	0.30027
2294.99170	0.30242
2293.06313	0.30479
2291.13457	0.30726
2289.20601	0.30967
2287.27744	0.31207
2285.34888	0.31450
2283.42031	0.31677
2281.49175	0.31876
2279.56318	0.32059
2277.63462	0.32231
2275.70605	0.32417
2273.77749	0.32637
2271.84893	0.32849
2269.92036	0.33038
2267.99180	0.33245
2266.06323	0.33470
2264.13467	0.33682
2262.20610	0.33890
2260.27754	0.34104
2258.34897	0.34312
2256.42041	0.34518
2254.49185	0.34742
2252.56328	0.34974
2250.63472	0.35184
2248.70615	0.35385
2246.77759	0.35609
2244.84902	0.35853
2242.92046	0.36094
2240.99189	0.36323
2239.06333	0.36542
2237.13477	0.36757
2235.20620	0.36974
2233.27764	0.37196
2231.34907	0.37416
2229.42051	0.37630
2227.49194	0.37847
2225.56338	0.38076
2223.63481	0.38307
2221.70625	0.38529
2219.77769	0.38738
2217.84912	0.38938
2215.92056	0.39140
2213.99199	0.39342
2212.06343	0.39548
2210.13486	0.39778
2208.20630	0.40017
2206.27773	0.40236
2204.34917	0.40442
2202.42061	0.40649
2200.49204	0.40853
2198.56348	0.41054
2196.63491	0.41252
2194.70635	0.41440
2192.77778	0.41613
2190.84922	0.41794
2188.92065	0.41999
2186.99209	0.42205
2185.06353	0.42390
2183.13496	0.42561
2181.20640	0.42723
2179.27783	0.42879
2177.34927	0.43036
2175.42070	0.43194
2173.49214	0.43347
2171.56357	0.43493
2169.63501	0.43626
2167.70645	0.43752
2165.77788	0.43877
2163.84932	0.43996
2161.92075	0.44108
2159.99219	0.44224
2158.06362	0.44342
2156.13506	0.44447
2154.20649	0.44537
2152.27793	0.44616
2150.34937	0.44681
2148.42080	0.44751
2146.49224	0.44826
2144.56367	0.44883
2142.63511	0.44929
2140.70654	0.44970
2138.77798	0.44995
2136.84941	0.45007
2134.92085	0.45016
2132.99229	0.45023
2131.06372	0.45027
2129.13516	0.45032
2127.20659	0.45026
2125.27803	0.44994
2123.34946	0.44948
2121.42090	0.44900
2119.49233	0.44846
2117.56377	0.44786
2115.63521	0.44724
2113.70664	0.44669
2111.77808	0.44615
2109.84951	0.44542
2107.92095	0.44451
2105.99238	0.44347
2104.06382	0.44232
2102.13525	0.44111
2100.20669	0.43988
2098.27812	0.43856
2096.34956	0.43713
2094.42100	0.43565
2092.49243	0.43411
2090.56387	0.43253
2088.63530	0.43096
2086.70674	0.42931
2084.77817	0.42740
2082.84961	0.42540
2080.92104	0.42351
2078.99248	0.42175
2077.06392	0.41992
2075.13535	0.41792
2073.20679	0.41583
2071.27822	0.41365
2069.34966	0.41144
2067.42109	0.40922
2065.49253	0.40697
2063.56396	0.40472
2061.63540	0.40248
2059.70684	0.40004
2057.77827	0.39745
2055.84971	0.39495
2053.92114	0.39253
2051.99258	0.39006
2050.06401	0.38758
2048.13545	0.38511
2046.20688	0.38251
2044.27832	0.37987
2042.34976	0.37732
2040.42119	0.37483
2038.49263	0.37225
2036.56406	0.36957
2034.63550	0.36687
2032.70693	0.36414
2030.77837	0.36139
2028.84980	0.35872
2026.92124	0.35610
2024.99268	0.35336
2023.06411	0.35056
2021.13555	0.34778
2019.20698	0.34511
2017.27842	0.34250
2015.34985	0.33977
2013.42129	0.33699
2011.49272	0.33422
2009.56416	0.33151
2007.63560	0.32887
2005.70703	0.32629
2003.77847	0.32366
2001.84990	0.32102
1999.92134	0.31854
1997.99277	0.31612
1996.06421	0.31360
1994.13564	0.31102
1992.20708	0.30847
1990.27852	0.30593
1988.34995	0.30346
1986.42139	0.30104
1984.49282	0.29868
1982.56426	0.29635
1980.63569	0.29400
1978.70713	0.29170
1976.77856	0.28950
1974.85000	0.28736
1972.92144	0.28518
1970.99287	0.28301
1969.06431	0.28094
1967.13574	0.27898
1965.20718	0.27705
1963.27861	0.27513
1961.35005	0.27318
1959.42148	0.27122
1957.49292	0.26937
1955.56436	0.26757
1953.63579	0.26576
1951.70723	0.26403
1949.77866	0.26243
1947.85010	0.26086
1945.92153	0.25930
1943.99297	0.25784
1942.06440	0.25645
1940.13584	0.25508
1938.20728	0.25373
1936.27871	0.25238
1934.35015	0.25101
1932.42158	0.24965
1930.49302	0.24833
1928.56445	0.24711
1926.63589	0.24597
1924.70732	0.24497
1922.77876	0.24409
1920.85020	0.24320
1918.92163	0.24226
1916.99307	0.24130
1915.06450	0.24035
1913.13594	0.23943
1911.20737	0.23861
1909.27881	0.23788
1907.35024	0.23721
1905.42168	0.23659
1903.49312	0.23608
1901.56455	0.23557
1899.63599	0.23497
1897.70742	0.23443
1895.77886	0.23401
1893.85029	0.23368
1891.92173	0.23337
1889.99316	0.23314
1888.06460	0.23286
1886.13604	0.23260
1884.20747	0.23243
1882.27891	0.23225
1880.35034	0.23207
1878.42178	0.23195
1876.49321	0.23197
1874.56465	0.23196
1872.63608	0.23193
1870.70752	0.23203
1868.77896	0.23240
1866.85039	0.23269
1864.92183	0.23272
1862.99326	0.23282
1861.06470	0.23307
1859.13613	0.23347
1857.20757	0.23389
1855.27900	0.23436
1853.35044	0.23478
1851.42187	0.23523
1849.49331	0.23577
1847.56475	0.23639
1845.63618	0.23708
1843.70762	0.23797
1841.77905	0.23883
1839.85049	0.23941
1837.92192	0.24014
1835.99336	0.24101
1834.06479	0.24192
1832.13623	0.24285
1830.20767	0.24413
1828.27910	0.24555
1826.35054	0.24663
1824.42197	0.24787
1822.49341	0.24917
1820.56484	0.25041
1818.63628	0.25171
1816.70771	0.25333
1814.77915	0.25504
1812.85059	0.25672
1810.92202	0.25860
1808.99346	0.26066
1807.06489	0.26271
1805.13633	0.26466
1803.20776	0.26680
1801.27920	0.26917
1799.35063	0.27185
1797.42207	0.27437
1795.49351	0.27681
1793.56494	0.27957
1791.63638	0.28310
1789.70781	0.28657
1787.77925	0.28928
1785.85068	0.29239
1783.92212	0.29589
1781.99355	0.29962
1780.06499	0.30375
1778.13643	0.30814
1776.20786	0.31215
1774.27930	0.31622
1772.35073	0.32172
1770.42217	0.32798
1768.49360	0.33349
1766.56504	0.33882
1764.63647	0.34416
1762.70791	0.34980
1760.77935	0.35699
1758.85078	0.36398
1756.92222	0.37105
1754.99365	0.37869
1753.06509	0.38552
1751.13652	0.39359
1749.20796	0.40396
1747.27939	0.41441
1745.35083	0.42362
1743.42227	0.43332
1741.49370	0.44391
1739.56514	0.45624
1737.63657	0.46870
1735.70801	0.47943
1733.77944	0.49518
1731.85088	0.51460
1729.92231	0.53041
1727.99375	0.54621
1726.06519	0.56294
1724.13662	0.58106
1722.20806	0.60069
1720.27949	0.61887
1718.35093	0.63992
1716.42236	0.67105
1714.49380	0.70114
1712.56523	0.72584
1710.63667	0.74980
1708.70811	0.77533
1706.77954	0.80393
1704.85098	0.83809
1702.92241	0.86872
1700.99385	0.89855
1699.06528	0.94285
1697.13672	0.98431
1695.20815	1.02714
1693.27959	1.06873
1691.35103	1.10218
1689.42246	1.14049
1687.49390	1.18060
1685.56533	1.21886
1683.63677	1.27798
1681.70820	1.34028
1679.77964	1.38063
1677.85107	1.41888
1675.92251	1.46295
1673.99395	1.51755
1672.06538	1.56608
1670.13682	1.61289
1668.20825	1.67274
1666.27969	1.72133
1664.35112	1.76233
1662.42256	1.81325
1660.49399	1.87020
1658.56543	1.91477
1656.63687	1.95166
1654.70830	1.98680
1652.77974	2.04241
1650.85117	2.09539
1648.92261	2.11627
1646.99404	2.14381
1645.06548	2.17542
1643.13691	2.19585
1641.20835	2.20797
1639.27979	2.21911
1637.35122	2.22668
1635.42266	2.22856
1633.49409	2.22525
1631.56553	2.21483
1629.63696	2.19889
1627.70840	2.17222
1625.77983	2.14152
1623.85127	2.10360
1621.92271	2.05754
1619.99414	2.01542
1618.06558	1.97238
1616.13701	1.91050
1614.20845	1.84818
1612.27988	1.80131
1610.35132	1.75199
1608.42275	1.69762
1606.49419	1.64413
1604.56562	1.59569
1602.63706	1.54922
1600.70850	1.50313
1598.77993	1.45995
1596.85137	1.41877
1594.92280	1.37831
1592.99424	1.33919
1591.06567	1.30354
1589.13711	1.27002
1587.20854	1.23814
1585.27998	1.20793
1583.35142	1.17945
1581.42285	1.15361
1579.49429	1.13145
1577.56572	1.11114
1575.63716	1.08606
1573.70859	1.06388
1571.78003	1.04947
1569.85146	1.03401
1567.92290	1.01645
1565.99434	1.00307
1564.06577	0.99212
1562.13721	0.98275
1560.20864	0.97476
1558.28008	0.96327
1556.35151	0.95453
1554.42295	0.94931
1552.49438	0.94365
1550.56582	0.93714
1548.63726	0.92926
1546.70869	0.92111
1544.78013	0.91223
1542.85156	0.90185
1540.92300	0.88881
1538.99443	0.87059
1537.06587	0.85724
1535.13730	0.84785
1533.20874	0.83575
1531.28018	0.82292
1529.35161	0.81345
1527.42305	0.80440
1525.49448	0.79486
1523.56592	0.78653
1521.63735	0.77850
1519.70879	0.77020
1517.78022	0.76297
1515.85166	0.75505
1513.92310	0.74721
1511.99453	0.74066
1510.06597	0.73490
1508.13740	0.72932
1506.20884	0.72040
1504.28027	0.71264
1502.35171	0.70841
1500.42314	0.70458
1498.49458	0.70035
1496.56602	0.69560
1494.63745	0.69106
1492.70889	0.68739
1490.78032	0.68397
1488.85176	0.68013
1486.92319	0.67672
1484.99463	0.67395
1483.06606	0.67161
1481.13750	0.66953
1479.20894	0.66762
1477.28037	0.66607
1475.35181	0.66494
1473.42324	0.66408
1471.49468	0.66265
1469.56611	0.66057
1467.63755	0.65849
1465.70898	0.65659
1463.78042	0.65485
1461.85186	0.65329
1459.92329	0.65201
1457.99473	0.65078
1456.06616	0.64895
1454.13760	0.64643
1452.20903	0.64395
1450.28047	0.64156
1448.35190	0.63930
1446.42334	0.63708
1444.49478	0.63490
1442.56621	0.63275
1440.63765	0.63067
1438.70908	0.62879
1436.78052	0.62675
1434.85195	0.62432
1432.92339	0.62202
1430.99482	0.62016
1429.06626	0.61871
1427.13770	0.61750
1425.20913	0.61642
1423.28057	0.61548
1421.35200	0.61458
1419.42344	0.61353
1417.49487	0.61219
1415.56631	0.61082
1413.63774	0.60971
1411.70918	0.60886
1409.78062	0.60819
1407.85205	0.60766
1405.92349	0.60727
1403.99492	0.60687
1402.06636	0.60612
1400.13779	0.60496
1398.20923	0.60348
1396.28066	0.60178
1394.35210	0.59967
1392.42354	0.59733
1390.49497	0.59517
1388.56641	0.59308
1386.63784	0.59069
1384.70928	0.58811
1382.78071	0.58573
1380.85215	0.58364
1378.92358	0.58193
1376.99502	0.58051
1375.06646	0.57936
1373.13789	0.57860
1371.20933	0.57808
1369.28076	0.57752
1367.35220	0.57663
1365.42363	0.57538
1363.49507	0.57405
1361.56650	0.57280
1359.63794	0.57161
1357.70937	0.57065
1355.78081	0.56975
1353.85225	0.56866
1351.92368	0.56751
1349.99512	0.56653
1348.06655	0.56565
1346.13799	0.56476
1344.20942	0.56388
1342.28086	0.56305
1340.35229	0.56218
1338.42373	0.56117
1336.49517	0.56019
1334.56660	0.55944
1332.63804	0.55887
1330.70947	0.55840
1328.78091	0.55802
1326.85234	0.55772
1324.92378	0.55753
1322.99521	0.55738
1321.06665	0.55715
1319.13809	0.55681
1317.20952	0.55631
1315.28096	0.55569
1313.35239	0.55504
1311.42383	0.55441
1309.49526	0.55376
1307.56670	0.55296
1305.63813	0.55210
1303.70957	0.55137
1301.78101	0.55078
1299.85244	0.55011
1297.92388	0.54933
1295.99531	0.54854
1294.06675	0.54774
1292.13818	0.54694
1290.20962	0.54613
1288.28105	0.54537
1286.35249	0.54472
1284.42393	0.54402
1282.49536	0.54307
1280.56680	0.54202
1278.63823	0.54116
1276.70967	0.54065
1274.78110	0.54024
1272.85254	0.53959
1270.92397	0.53877
1268.99541	0.53801
1267.06685	0.53739
1265.13828	0.53694
1263.20972	0.53663
1261.28115	0.53622
1259.35259	0.53571
1257.42402	0.53526
1255.49546	0.53490
1253.56689	0.53466
1251.63833	0.53450
1249.70977	0.53418
1247.78120	0.53368
1245.85264	0.53321
1243.92407	0.53283
1241.99551	0.53234
1240.06694	0.53165
1238.13838	0.53081
1236.20981	0.52984
1234.28125	0.52863
1232.35269	0.52731
1230.42412	0.52610
1228.49556	0.52499
1226.56699	0.52392
1224.63843	0.52281
1222.70986	0.52162
1220.78130	0.52058
1218.85273	0.51976
1216.92417	0.51893
1214.99561	0.51803
1213.06704	0.51730
1211.13848	0.51675
1209.20991	0.51619
1207.28135	0.51559
1205.35278	0.51505
1203.42422	0.51449
1201.49565	0.51378
1199.56709	0.51304
1197.63853	0.51227
1195.70996	0.51141
1193.78140	0.51074
1191.85283	0.51033
1189.92427	0.51002
1187.99570	0.50978
1186.06714	0.50956
1184.13857	0.50934
1182.21001	0.50937
1180.28145	0.50980
1178.35288	0.51049
1176.42432	0.51129
1174.49575	0.51212
1172.56719	0.51285
1170.63862	0.51350
1168.71006	0.51426
1166.78149	0.51528
1164.85293	0.51630
1162.92437	0.51689
1160.99580	0.51717
1159.06724	0.51732
1157.13867	0.51714
1155.21011	0.51655
1153.28154	0.51569
1151.35298	0.51437
1149.42441	0.51230
1147.49585	0.50979
1145.56729	0.50721
1143.63872	0.50458
1141.71016	0.50202
1139.78159	0.49983
1137.85303	0.49802
1135.92446	0.49640
1133.99590	0.49513
1132.06733	0.49432
1130.13877	0.49364
1128.21021	0.49286
1126.28164	0.49202
1124.35308	0.49122
1122.42451	0.49070
1120.49595	0.49071
1118.56738	0.49121
1116.63882	0.49190
1114.71025	0.49271
1112.78169	0.49353
1110.85312	0.49425
1108.92456	0.49500
1106.99600	0.49575
1105.06743	0.49651
1103.13887	0.49746
1101.21030	0.49854
1099.28174	0.49984
1097.35317	0.50176
1095.42461	0.50435
1093.49604	0.50783
1091.56748	0.51259
1089.63892	0.51872
1087.71035	0.52611
1085.78179	0.53456
1083.85322	0.54333
1081.92466	0.55105
1079.99609	0.55677
1078.06753	0.55990
1076.13896	0.55978
1074.21040	0.55659
1072.28184	0.55134
1070.35327	0.54474
1068.42471	0.53748
1066.49614	0.53064
1064.56758	0.52472
1062.63901	0.51955
1060.71045	0.51492
1058.78188	0.51076
1056.85332	0.50718
1054.92476	0.50411
1052.99619	0.50141
1051.06763	0.49918
1049.13906	0.49755
1047.21050	0.49652
1045.28193	0.49616
1043.35337	0.49642
1041.42480	0.49701
1039.49624	0.49764
1037.56768	0.49808
1035.63911	0.49826
1033.71055	0.49807
1031.78198	0.49725
1029.85342	0.49587
1027.92485	0.49441
1025.99629	0.49311
1024.06772	0.49187
1022.13916	0.49094
1020.21060	0.49074
1018.28203	0.49104
1016.35347	0.49123
1014.42490	0.49098
1012.49634	0.49046
1010.56777	0.49020
1008.63921	0.49047
1006.71064	0.49112
1004.78208	0.49211
1002.85352	0.49378
1000.92495	0.49632
998.99639	0.49950
997.06782	0.50327
995.13926	0.50754
993.21069	0.51169
991.28213	0.51495
989.35356	0.51688
987.42500	0.51752
985.49644	0.51746
983.56787	0.51734
981.63931	0.51760
979.71074	0.51853
977.78218	0.52005
975.85361	0.52204
973.92505	0.52455
971.99648	0.52740
970.06792	0.53041
968.13936	0.53387
966.21079	0.53800
964.28223	0.54252
962.35366	0.54710
960.42510	0.55198
958.49653	0.55737
956.56797	0.56288
954.63940	0.56845
952.71084	0.57443
950.78228	0.58070
948.85371	0.58690
946.92515	0.59315
944.99658	0.59957
943.06802	0.60565
941.13945	0.61126
939.21089	0.61708
937.28232	0.62300
935.35376	0.62858
933.42520	0.63420
931.49663	0.63988
929.56807	0.64498
927.63950	0.64993
925.71094	0.65569
923.78237	0.66211
921.85381	0.66897
919.92524	0.67611
917.99668	0.68298
916.06812	0.68975
914.13955	0.69711
912.21099	0.70496
910.28242	0.71268
908.35386	0.72034
906.42529	0.72864
904.49673	0.73773
902.56816	0.74694
900.63960	0.75606
898.71104	0.76554
896.78247	0.77520
894.85391	0.78464
892.92534	0.79397
890.99678	0.80353
889.06821	0.81386
887.13965	0.82490
885.21108	0.83596
883.28252	0.84681
881.35396	0.85710
879.42539	0.86671
877.49683	0.87764
875.56826	0.89107
873.63970	0.90441
871.71113	0.91575
869.78257	0.92576
867.85400	0.93525
865.92544	0.94542
863.99687	0.95744
862.06831	0.97034
860.13975	0.98254
858.21118	0.99421
856.28262	1.00615
854.35405	1.01851
852.42549	1.03025
850.49692	1.04204
848.56836	1.05515
846.63979	1.06722
844.71123	1.07619
842.78267	1.08470
840.85410	1.09625
838.92554	1.10950
836.99697	1.12120
835.06841	1.13066
833.13984	1.14137
831.21128	1.15538
829.28271	1.16622
827.35415	1.17432
825.42559	1.19019
823.49702	1.21007
821.56846	1.22146
819.63989	1.22682
817.71133	1.23177
815.78276	1.24216
813.85420	1.25981
811.92563	1.26962
809.99707	1.26758
808.06851	1.26529
806.13994	1.27377
804.21138	1.29533
802.28281	1.32061
800.35425	1.33584
798.42568	1.33274
796.49712	1.33853
794.56855	1.37351
792.63999	1.40991
790.71143	1.42819
788.78286	1.41078
786.85430	1.36515
784.92573	1.36820
782.99717	1.43723
781.06860	1.48307
779.14004	1.48625
777.21147	1.56627
775.28291	1.70863
773.35435	1.70419
771.42578	1.69362
769.49722	1.73492
767.56865	1.57682
765.64009	1.49141
763.71152	1.52392
761.78296	1.41672
759.85439	1.23938
757.92583	1.19005
755.99727	1.28601
754.06870	1.50436
752.14014	1.47738
750.21157	1.21505
748.28301	1.10030
746.35444	1.13244
744.42588	1.18426
742.49731	1.12659
740.56875	1.06465
738.64019	1.01315
736.71162	0.98528
734.78306	1.06928
732.85449	1.25242
730.92593	4.38556
728.99736	4.37398
727.06880	4.36241
725.14023	1.01741
723.21167	0.87464
721.28311	4.32770
719.35454	0.85529
717.42598	0.27802
715.49741	0.08016
713.56885	-0.10376
711.64028	-0.56132
709.71172	-0.55980
707.78315	0.03784
705.85459	0.25514
703.92603	0.06196
701.99746	0.02912
700.06890	0.09257
698.14033	0.15275
696.21177	0.23779
694.28320	0.30942
692.35464	0.25739
690.42607	0.19156
688.49751	0.21184
686.56895	0.22161
684.64038	0.21729
682.71182	0.26604
680.78325	0.40404
678.85469	0.52680
676.92612	0.47449
674.99756	0.39186
673.06899	0.38257
671.14043	0.44279
669.21187	0.40738
667.28330	0.27894
665.35474	0.16296
663.42617	0.09005
661.49761	0.07488
659.56904	0.13844
657.64048	0.24416
655.71191	0.33494
653.78335	0.35813
651.85479	0.33219
649.92622	0.29080
647.99766	0.20834
646.06909	0.13834
644.14053	0.16809
642.21196	0.24686
640.28340	0.28379
638.35483	0.31780
636.42627	0.33554
634.49771	0.26128
632.56914	0.19231
630.64058	0.19030
628.71201	0.24418
626.78345	0.31913
624.85488	0.36138
622.92632	0.28632
620.99775	0.19156
619.06919	0.18844
617.14062	0.28249
615.21206	0.37036
613.28350	0.26710
611.35493	0.14157
609.42637	0.14588
607.49780	0.22951
605.56924	0.26644
603.64067	0.17993
601.71211	0.09666
599.78354	0.07258
597.85498	0.09838
595.92642	0.13135
593.99785	0.13786
592.06929	0.19383
590.14072	0.26589
588.21216	0.27759
586.28359	0.27645
584.35503	0.33508
582.42646	0.38134
580.49790	0.29368
578.56934	0.23549
576.64077	0.33050
574.71221	0.45019
572.78364	0.37232
570.85508	0.28814
568.92651	0.26157
566.99795	0.21477
565.06938	0.16904
563.14082	0.20587
561.21226	0.27083
559.28369	0.23019
557.35513	0.14688
555.42656	0.10301
553.49800	0.13141
551.56943	0.16831
549.64087	0.11911
547.71230	0.08677
545.78374	0.14057
543.85518	0.23886
541.92661	0.26480
539.99805	0.25621
538.06948	0.21324
536.14092	0.13991
534.21235	0.11687
532.28379	0.11522
530.35522	0.12200
528.42666	0.18318
526.49810	0.26400
524.56953	0.27003
522.64097	0.22538
520.71240	0.19679
518.78384	0.21656
516.85527	0.25784
514.92671	0.29146
512.99814	0.29184
511.06958	0.24430
509.14102	0.21229
507.21245	0.21245
505.28389	0.21789
503.35532	0.23860
501.42676	0.27163
499.49819	0.28000
