3997.91411	0.06868
3995.98555	0.06887
3994.05698	0.06934
3992.12842	0.07000
3990.19985	0.07037
3988.27129	0.07026
3986.34272	0.07023
3984.41416	0.07053
3982.48560	0.07067
3980.55703	0.07079
3978.62847	0.07112
3976.69990	0.07139
3974.77134	0.07175
3972.84277	0.07232
3970.91421	0.07273
3968.98564	0.07277
3967.05708	0.07275
3965.12852	0.07297
3963.19995	0.07321
3961.27139	0.07316
3959.34282	0.07301
3957.41426	0.07301
3955.48569	0.07320
3953.55713	0.07364
3951.62856	0.07408
3949.70000	0.07401
3947.77144	0.07363
3945.84287	0.07364
3943.91431	0.07397
3941.98574	0.07432
3940.05718	0.07444
3938.12861	0.07428
3936.20005	0.07400
3934.27148	0.07394
3932.34292	0.07425
3930.41436	0.07438
3928.48579	0.07393
3926.55723	0.07341
3924.62866	0.07353
3922.70010	0.07418
3920.77153	0.07455
3918.84297	0.07440
3916.91440	0.07367
3914.98584	0.07258
3913.05728	0.07195
3911.12871	0.07184
3909.20015	0.07186
3907.27158	0.07223
3905.34302	0.07320
3903.41445	0.07450
3901.48589	0.07537
3899.55732	0.07554
3897.62876	0.07474
3895.70020	0.07338
3893.77163	0.07288
3891.84307	0.07342
3889.91450	0.07360
3887.98594	0.07314
3886.05737	0.07347
3884.12881	0.07433
3882.20024	0.07448
3880.27168	0.07472
3878.34312	0.07509
3876.41455	0.07473
3874.48599	0.07468
3872.55742	0.07581
3870.62886	0.07739
3868.70029	0.07822
3866.77173	0.07766
3864.84316	0.07696
3862.91460	0.07690
3860.98604	0.07694
3859.05747	0.07693
3857.12891	0.07715
3855.20034	0.07797
3853.27178	0.08015
3851.34321	0.08178
3849.41465	0.08095
3847.48608	0.08034
3845.55752	0.08041
3843.62896	0.08078
3841.70039	0.08137
3839.77183	0.08207
3837.84326	0.08326
3835.91470	0.08460
3833.98613	0.08508
3832.05757	0.08533
3830.12900	0.08573
3828.20044	0.08580
3826.27187	0.08583
3824.34331	0.08643
3822.41475	0.08785
3820.48618	0.09022
3818.55762	0.09173
3816.62905	0.09173
3814.70049	0.09181
3812.77192	0.09213
3810.84336	0.09268
3808.91479	0.09378
3806.98623	0.09559
3805.05767	0.09749
3803.12910	0.09869
3801.20054	0.09992
3799.27197	0.10113
3797.34341	0.10175
3795.41484	0.10233
3793.48628	0.10273
3791.55771	0.10321
3789.62915	0.10418
3787.70059	0.10544
3785.77202	0.10699
3783.84346	0.10887
3781.91489	0.11074
3779.98633	0.11245
3778.05776	0.11419
3776.12920	0.11561
3774.20063	0.11669
3772.27207	0.11802
3770.34351	0.12042
3768.41494	0.12365
3766.48638	0.12597
3764.55781	0.12730
3762.62925	0.12849
3760.70068	0.13020
3758.77212	0.13280
3756.84355	0.13555
3754.91499	0.13774
3752.98643	0.14033
3751.05786	0.14473
3749.12930	0.14984
3747.20073	0.15180
3745.27217	0.15239
3743.34360	0.15536
3741.41504	0.15964
3739.48647	0.16277
3737.55791	0.16651
3735.62935	0.17238
3733.70078	0.17896
3731.77222	0.18378
3729.84365	0.18787
3727.91509	0.19236
3725.98652	0.19791
3724.05796	0.20409
3722.12939	0.21035
3720.20083	0.21704
3718.27227	0.22376
3716.34370	0.23036
3714.41514	0.23744
3712.48657	0.24685
3710.55801	0.26071
3708.62944	0.27543
3706.70088	0.28699
3704.77231	0.29796
3702.84375	0.31101
3700.91519	0.32799
3698.98662	0.34676
3697.05806	0.36442
3695.12949	0.38264
3693.20093	0.40199
3691.27236	0.42342
3689.34380	0.45153
3687.41523	0.48613
3685.48667	0.51607
3683.55811	0.54168
3681.62954	0.56980
3679.70098	0.60204
3677.77241	0.63594
3675.84385	0.67533
3673.91528	0.72762
3671.98672	0.77089
3670.05815	0.80949
3668.12959	0.86207
3666.20103	0.91083
3664.27246	0.95226
3662.34390	0.99655
3660.41533	1.04407
3658.48677	1.09029
3656.55820	1.13906
3654.62964	1.19445
3652.70107	1.24176
3650.77251	1.28213
3648.84395	1.33646
3646.91538	1.40359
3644.98682	1.45450
3643.05825	1.49466
3641.12969	1.53551
3639.20112	1.58000
3637.27256	1.62487
3635.34399	1.66851
3633.41543	1.71155
3631.48687	1.75124
3629.55830	1.79178
3627.62974	1.84686
3625.70117	1.89901
3623.77261	1.93309
3621.84404	1.96484
3619.91548	2.00203
3617.98691	2.04752
3616.05835	2.09119
3614.12979	2.12823
3612.20122	2.16724
3610.27266	2.20618
3608.34409	2.24532
3606.41553	2.28703
3604.48696	2.32609
3602.55840	2.36144
3600.62983	2.40012
3598.70127	2.44221
3596.77271	2.48210
3594.84414	2.52176
3592.91558	2.56420
3590.98701	2.60487
3589.05845	2.64093
3587.12988	2.68308
3585.20132	2.73177
3583.27275	2.77321
3581.34419	2.80988
3579.41562	2.84908
3577.48706	2.89122
3575.55850	2.93447
3573.62993	2.97913
3571.70137	3.02220
3569.77280	3.06248
3567.84424	3.10470
3565.91567	3.15619
3563.98711	3.20662
3562.05854	3.24837
3560.12998	3.29044
3558.20142	3.33466
3556.27285	3.37811
3554.34429	3.42062
3552.41572	3.46706
3550.48716	3.51605
3548.55859	3.56171
3546.63003	3.60620
3544.70146	3.65361
3542.77290	3.69958
3540.84434	3.74073
3538.91577	3.78161
3536.98721	3.82739
3535.05864	3.88093
3533.13008	3.93648
3531.20151	3.98695
3529.27295	4.03233
3527.34438	4.07779
3525.41582	4.12516
3523.48726	4.17411
3521.55869	4.22450
3519.63013	4.27195
3517.70156	4.31752
3515.77300	4.36532
3513.84443	4.41583
3511.91587	4.46638
3509.98730	4.51422
3508.05874	4.55999
3506.13018	4.60524
3504.20161	4.64690
3502.27305	4.68766
3500.34448	4.73572
3498.41592	4.78719
3496.48735	4.83715
3494.55879	4.88750
3492.63022	4.93993
3490.70166	4.99227
3488.77310	5.04005
3486.84453	5.08397
3484.91597	5.13147
3482.98740	5.18436
3481.05884	5.23771
3479.13027	5.28876
3477.20171	5.33729
3475.27314	5.38445
3473.34458	5.43503
3471.41602	5.49028
3469.48745	5.54069
3467.55889	5.57792
3465.63032	5.60959
3463.70176	5.65422
3461.77319	5.70911
3459.84463	5.75654
3457.91606	5.79302
3455.98750	5.82866
3454.05894	5.87552
3452.13037	5.93416
3450.20181	5.99719
3448.27324	6.06283
3446.34468	6.12828
3444.41611	6.17749
3442.48755	6.20716
3440.55898	6.23670
3438.63042	6.28655
3436.70186	6.34679
3434.77329	6.39579
3432.84473	6.43244
3430.91616	6.46370
3428.98760	6.50270
3427.05903	6.55817
3425.13047	6.63579
3423.20190	6.72407
3421.27334	6.80023
3419.34478	6.84538
3417.41621	6.86412
3415.48765	6.86980
3413.55908	6.87090
3411.63052	6.90718
3409.70195	6.98365
3407.77339	7.06503
3405.84482	7.13318
3403.91626	7.19021
3401.98770	7.22294
3400.05913	7.22959
3398.13057	7.24184
3396.20200	7.28433
3394.27344	7.35861
3392.34487	7.42336
3390.41631	7.45202
3388.48774	7.45318
3386.55918	7.46037
3384.63062	7.49692
3382.70205	7.56596
3380.77349	7.64310
3378.84492	7.69730
3376.91636	7.74301
3374.98779	7.74901
3373.05923	7.71323
3371.13066	7.71685
3369.20210	7.78204
3367.27354	7.84051
3365.34497	7.87131
3363.41641	7.89986
3361.48784	7.93633
3359.55928	7.95296
3357.63071	7.92083
3355.70215	7.94087
3353.77358	8.02829
3351.84502	8.05209
3349.91646	7.98810
3347.98789	7.97227
3346.05933	8.04961
3344.13076	8.10335
3342.20220	8.08108
3340.27363	8.05244
3338.34507	8.05538
3336.41650	8.05422
3334.48794	8.05069
3332.55937	8.04039
3330.63081	7.99784
3328.70225	7.93996
3326.77368	7.93222
3324.84512	8.00747
3322.91655	8.06992
3320.98799	8.07740
3319.05942	8.12958
3317.13086	8.24559
3315.20229	8.30376
3313.27373	8.31190
3311.34517	8.33188
3309.41660	8.27575
3307.48804	8.15707
3305.55947	8.13169
3303.63091	8.20699
3301.70234	8.22457
3299.77378	8.19877
3297.84521	8.23095
3295.91665	8.27042
3293.98809	8.27386
3292.05952	8.32114
3290.13096	8.42523
3288.20239	8.45222
3286.27383	8.36780
3284.34526	8.34338
3282.41670	8.46342
3280.48813	8.56847
3278.55957	8.51840
3276.63101	8.33344
3274.70244	8.19347
3272.77388	8.24129
3270.84531	8.33882
3268.91675	8.38020
3266.98818	8.44738
3265.05962	8.43704
3263.13105	8.29404
3261.20249	8.23110
3259.27393	8.32997
3257.34536	8.44798
3255.41680	8.43326
3253.48823	8.40282
3251.55967	8.39060
3249.63110	8.26049
3247.70254	8.12872
3245.77397	8.11287
3243.84541	8.16489
3241.91685	8.19305
3239.98828	8.18928
3238.05972	8.21980
3236.13115	8.25808
3234.20259	8.22541
3232.27402	8.15448
3230.34546	8.11253
3228.41689	8.11158
3226.48833	8.14327
3224.55977	8.13226
3222.63120	8.06799
3220.70264	8.05339
3218.77407	8.07888
3216.84551	8.08067
3214.91694	8.07191
3212.98838	8.03165
3211.05981	7.94904
3209.13125	7.86512
3207.20269	7.78841
3205.27412	7.74674
3203.34556	7.76291
3201.41699	7.77961
3199.48843	7.73930
3197.55986	7.70029
3195.63130	7.70677
3193.70273	7.69205
3191.77417	7.63625
3189.84561	7.58777
3187.91704	7.53043
3185.98848	7.44656
3184.05991	7.37784
3182.13135	7.32178
3180.20278	7.24780
3178.27422	7.18529
3176.34565	7.16559
3174.41709	7.12960
3172.48853	7.02635
3170.55996	6.90874
3168.63140	6.83707
3166.70283	6.81508
3164.77427	6.78614
3162.84570	6.71677
3160.91714	6.64293
3158.98857	6.58981
3157.06001	6.53971
3155.13145	6.46379
3153.20288	6.37612
3151.27432	6.30510
3149.34575	6.24079
3147.41719	6.18110
3145.48862	6.13197
3143.56006	6.07111
3141.63149	5.99491
3139.70293	5.92098
3137.77437	5.85030
3135.84580	5.78328
3133.91724	5.71864
3131.98867	5.64689
3130.06011	5.57097
3128.13154	5.49698
3126.20298	5.42474
3124.27441	5.35137
3122.34585	5.27472
3120.41729	5.20337
3118.48872	5.13742
3116.56016	5.06885
3114.63159	4.99815
3112.70303	4.92825
3110.77446	4.86201
3108.84590	4.79838
3106.91733	4.73295
3104.98877	4.66317
3103.06021	4.59137
3101.13164	4.52178
3099.20308	4.45638
3097.27451	4.39521
3095.34595	4.33298
3093.41738	4.26548
3091.48882	4.19878
3089.56025	4.13672
3087.63169	4.07476
3085.70312	4.01185
3083.77456	3.95118
3081.84600	3.89316
3079.91743	3.83364
3077.98887	3.77179
3076.06030	3.71252
3074.13174	3.65514
3072.20317	3.59601
3070.27461	3.53675
3068.34604	3.47992
3066.41748	3.42521
3064.48892	3.37097
3062.56035	3.31642
3060.63179	3.26160
3058.70322	3.20756
3056.77466	3.15592
3054.84609	3.10580
3052.91753	3.05612
3050.98896	3.00692
3049.06040	2.95636
3047.13184	2.90477
3045.20327	2.85438
3043.27471	2.80516
3041.34614	2.75673
3039.41758	2.70957
3037.48901	2.66412
3035.56045	2.62056
3033.63188	2.57820
3031.70332	2.53551
3029.77476	2.49160
3027.84619	2.44698
3025.91763	2.40324
3023.98906	2.36079
3022.06050	2.31910
3020.13193	2.27860
3018.20337	2.23897
3016.27480	2.19997
3014.34624	2.16206
3012.41768	2.12464
3010.48911	2.08702
3008.56055	2.04993
3006.63198	2.01424
3004.70342	1.97916
3002.77485	1.94399
3000.84629	1.90972
2998.91772	1.87640
2996.98916	1.84356
2995.06060	1.81189
2993.13203	1.78123
2991.20347	1.75058
2989.27490	1.71994
2987.34634	1.68988
2985.41777	1.66117
2983.48921	1.63362
2981.56064	1.60622
2979.63208	1.57884
2977.70352	1.55197
2975.77495	1.52588
2973.84639	1.50048
2971.91782	1.47544
2969.98926	1.45061
2968.06069	1.42622
2966.13213	1.40255
2964.20356	1.37926
2962.27500	1.35573
2960.34644	1.33227
2958.41787	1.30926
2956.48931	1.28639
2954.56074	1.26376
2952.63218	1.24118
2950.70361	1.21878
2948.77505	1.19688
2946.84648	1.17518
2944.91792	1.15406
2942.98936	1.13393
2941.06079	1.11420
2939.13223	1.09422
2937.20366	1.07439
2935.27510	1.05555
2933.34653	1.03755
2931.41797	1.01958
2929.48940	1.00154
2927.56084	0.98360
2925.63228	0.96558
2923.70371	0.94773
2921.77515	0.93061
2919.84658	0.91398
2917.91802	0.89712
2915.98945	0.88036
2914.06089	0.86429
2912.13232	0.84858
2910.20376	0.83343
2908.27520	0.81891
2906.34663	0.80446
2904.41807	0.79015
2902.48950	0.77632
2900.56094	0.76297
2898.63237	0.75014
2896.70381	0.73757
2894.77524	0.72492
2892.84668	0.71248
2890.91812	0.70060
2888.98955	0.68920
2887.06099	0.67823
2885.13242	0.66766
2883.20386	0.65739
2881.27529	0.64748
2879.34673	0.63764
2877.41816	0.62755
2875.48960	0.61755
2873.56104	0.60780
2871.63247	0.59805
2869.70391	0.58790
2867.77534	0.57712
2865.84678	0.56598
2863.91821	0.55513
2861.98965	0.54474
2860.06108	0.53474
2858.13252	0.52543
2856.20396	0.51678
2854.27539	0.50833
2852.34683	0.49978
2850.41826	0.49110
2848.48970	0.48251
2846.56113	0.47443
2844.63257	0.46724
2842.70400	0.46082
2840.77544	0.45465
2838.84687	0.44823
2836.91831	0.44172
2834.98975	0.43562
2833.06118	0.42980
2831.13262	0.42384
2829.20405	0.41770
2827.27549	0.41157
2825.34692	0.40559
2823.41836	0.39979
2821.48979	0.39409
2819.56123	0.38842
2817.63267	0.38281
2815.70410	0.37717
2813.77554	0.37158
2811.84697	0.36620
2809.91841	0.36088
2807.98984	0.35570
2806.06128	0.35086
2804.13271	0.34595
2802.20415	0.34072
2800.27559	0.33571
2798.34702	0.33120
2796.41846	0.32684
2794.48989	0.32237
2792.56133	0.31782
2790.63276	0.31347
2788.70420	0.30941
2786.77563	0.30536
2784.84707	0.30105
2782.91851	0.29680
2780.98994	0.29297
2779.06138	0.28930
2777.13281	0.28541
2775.20425	0.28146
2773.27568	0.27775
2771.34712	0.27425
2769.41855	0.27073
2767.48999	0.26707
2765.56143	0.26353
2763.63286	0.26046
2761.70430	0.25760
2759.77573	0.25455
2757.84717	0.25136
2755.91860	0.24828
2753.99004	0.24535
2752.06147	0.24240
2750.13291	0.23946
2748.20435	0.23668
2746.27578	0.23410
2744.34722	0.23156
2742.41865	0.22898
2740.49009	0.22635
2738.56152	0.22364
2736.63296	0.22109
2734.70439	0.21874
2732.77583	0.21637
2730.84727	0.21408
2728.91870	0.21196
2726.99014	0.20990
2725.06157	0.20785
2723.13301	0.20575
2721.20444	0.20365
2719.27588	0.20172
2717.34731	0.19984
2715.41875	0.19795
2713.49019	0.19614
2711.56162	0.19438
2709.63306	0.19275
2707.70449	0.19123
2705.77593	0.18962
2703.84736	0.18799
2701.91880	0.18650
2699.99023	0.18511
2698.06167	0.18372
2696.13311	0.18242
2694.20454	0.18111
2692.27598	0.17971
2690.34741	0.17825
2688.41885	0.17680
2686.49028	0.17545
2684.56172	0.17419
2682.63315	0.17303
2680.70459	0.17196
2678.77603	0.17083
2676.84746	0.16966
2674.91890	0.16856
2672.99033	0.16754
2671.06177	0.16656
2669.13320	0.16559
2667.20464	0.16464
2665.27607	0.16377
2663.34751	0.16294
2661.41895	0.16216
2659.49038	0.16141
2657.56182	0.16056
2655.63325	0.15973
2653.70469	0.15908
2651.77612	0.15848
2649.84756	0.15776
2647.91899	0.15700
2645.99043	0.15643
2644.06187	0.15608
2642.13330	0.15563
2640.20474	0.15495
2638.27617	0.15431
2636.34761	0.15388
2634.41904	0.15345
2632.49048	0.15289
2630.56191	0.15235
2628.63335	0.15199
2626.70479	0.15164
2624.77622	0.15121
2622.84766	0.15084
2620.91909	0.15067
2618.99053	0.15063
2617.06196	0.15044
2615.13340	0.15011
2613.20483	0.14996
2611.27627	0.14989
2609.34771	0.14973
2607.41914	0.14964
2605.49058	0.14968
2603.56201	0.14967
2601.63345	0.14954
2599.70488	0.14932
2597.77632	0.14922
2595.84775	0.14930
2593.91919	0.14946
2591.99062	0.14957
2590.06206	0.14970
2588.13350	0.14997
2586.20493	0.15027
2584.27637	0.15037
2582.34780	0.15037
2580.41924	0.15061
2578.49067	0.15097
2576.56211	0.15115
2574.63354	0.15140
2572.70498	0.15180
2570.77642	0.15214
2568.84785	0.15242
2566.91929	0.15271
2564.99072	0.15306
2563.06216	0.15359
2561.13359	0.15428
2559.20503	0.15487
2557.27646	0.15518
2555.34790	0.15548
2553.41934	0.15593
2551.49077	0.15643
2549.56221	0.15698
2547.63364	0.15757
2545.70508	0.15805
2543.77651	0.15848
2541.84795	0.15907
2539.91938	0.15979
2537.99082	0.16041
2536.06226	0.16095
2534.13369	0.16151
2532.20513	0.16208
2530.27656	0.16269
2528.34800	0.16343
2526.41943	0.16422
2524.49087	0.16492
2522.56230	0.16557
2520.63374	0.16629
2518.70518	0.16705
2516.77661	0.16780
2514.84805	0.16854
2512.91948	0.16938
2510.99092	0.17034
2509.06235	0.17120
2507.13379	0.17181
2505.20522	0.17242
2503.27666	0.17326
2501.34810	0.17420
2499.41953	0.17513
2497.49097	0.17589
2495.56240	0.17653
2493.63384	0.17723
2491.70527	0.17798
2489.77671	0.17874
2487.84814	0.17961
2485.91958	0.18051
2483.99102	0.18138
2482.06245	0.18235
2480.13389	0.18332
2478.20532	0.18414
2476.27676	0.18494
2474.34819	0.18591
2472.41963	0.18702
2470.49106	0.18807
2468.56250	0.18893
2466.63394	0.18962
2464.70537	0.19035
2462.77681	0.19132
2460.84824	0.19242
2458.91968	0.19342
2456.99111	0.19437
2455.06255	0.19539
2453.13398	0.19636
2451.20542	0.19715
2449.27686	0.19793
2447.34829	0.19879
2445.41973	0.19973
2443.49116	0.20072
2441.56260	0.20178
2439.63403	0.20294
2437.70547	0.20409
2435.77690	0.20509
2433.84834	0.20607
2431.91978	0.20710
2429.99121	0.20806
2428.06265	0.20895
2426.13408	0.20988
2424.20552	0.21094
2422.27695	0.21216
2420.34839	0.21334
2418.41982	0.21432
2416.49126	0.21527
2414.56270	0.21635
2412.63413	0.21756
2410.70557	0.21874
2408.77700	0.21987
2406.84844	0.22096
2404.91987	0.22207
2402.99131	0.22328
2401.06274	0.22457
2399.13418	0.22587
2397.20562	0.22710
2395.27705	0.22827
2393.34849	0.22943
2391.41992	0.23061
2389.49136	0.23187
2387.56279	0.23329
2385.63423	0.23484
2383.70566	0.23672
2381.77710	0.23919
2379.84854	0.24220
2377.91997	0.24552
2375.99141	0.24905
2374.06284	0.25294
2372.13428	0.25731
2370.20571	0.26178
2368.27715	0.26591
2366.34858	0.27031
2364.42002	0.27509
2362.49146	0.27850
2360.56289	0.28005
2358.63433	0.28092
2356.70576	0.28107
2354.77720	0.28065
2352.84863	0.27984
2350.92007	0.27770
2348.99150	0.27578
2347.06294	0.27608
2345.13437	0.27937
2343.20581	0.28430
2341.27725	0.28781
2339.34868	0.28956
2337.42012	0.29025
2335.49155	0.29053
2333.56299	0.29119
2331.63442	0.29249
2329.70586	0.29401
2327.77729	0.29520
2325.84873	0.29590
2323.92017	0.29668
2321.99160	0.29761
2320.06304	0.29809
2318.13447	0.29808
2316.20591	0.29812
2314.27734	0.29884
2312.34878	0.30018
2310.42021	0.30144
2308.49165	0.30234
2306.56309	0.30308
2304.63452	0.30381
2302.70596	0.30474
2300.77739	0.30599
2298.84883	0.30741
2296.92026	0.30887
2294.99170	0.31028
2293.06313	0.31174
2291.13457	0.31337
2289.20601	0.31499
2287.27744	0.31647
2285.34888	0.31802
2283.42031	0.31978
2281.49175	0.32160
2279.56318	0.32345
2277.63462	0.32551
2275.70605	0.32781
2273.77749	0.33006
2271.84893	0.33202
2269.92036	0.33383
2267.99180	0.33573
2266.06323	0.33778
2264.13467	0.33989
2262.20610	0.34205
2260.27754	0.34412
2258.34897	0.34618
2256.42041	0.34836
2254.49185	0.35052
2252.56328	0.35244
2250.63472	0.35428
2248.70615	0.35630
2246.77759	0.35836
2244.84902	0.36037
2242.92046	0.36260
2240.99189	0.36500
2239.06333	0.36722
2237.13477	0.36930
2235.20620	0.37139
2233.27764	0.37354
2231.34907	0.37574
2229.42051	0.37795
2227.49194	0.38018
2225.56338	0.38231
2223.63481	0.38437
2221.70625	0.38654
2219.77769	0.38888
2217.84912	0.39118
2215.92056	0.39331
2213.99199	0.39537
2212.06343	0.39755
2210.13486	0.39973
2208.20630	0.40177
2206.27773	0.40376
2204.34917	0.40576
2202.42061	0.40784
2200.49204	0.40998
2198.56348	0.41200
2196.63491	0.41388
2194.70635	0.41575
2192.77778	0.41761
2190.84922	0.41944
2188.92065	0.42127
2186.99209	0.42309
2185.06353	0.42488
2183.13496	0.42657
2181.20640	0.42826
2179.27783	0.42999
2177.34927	0.43156
2175.42070	0.43287
2173.49214	0.43420
2171.56357	0.43576
2169.63501	0.43736
2167.70645	0.43875
2165.77788	0.43995
2163.84932	0.44113
2161.92075	0.44229
2159.99219	0.44338
2158.06362	0.44438
2156.13506	0.44534
2154.20649	0.44633
2152.27793	0.44726
2150.34937	0.44801
2148.42080	0.44861
2146.49224	0.44919
2144.56367	0.44980
2142.63511	0.45032
2140.70654	0.45071
2138.77798	0.45105
2136.84941	0.45123
2134.92085	0.45128
2132.99229	0.45136
2131.06372	0.45144
2129.13516	0.45132
2127.20659	0.45098
2125.27803	0.45066
2123.34946	0.45034
2121.42090	0.44996
2119.49233	0.44955
2117.56377	0.44903
2115.63521	0.44833
2113.70664	0.44761
2111.77808	0.44691
2109.84951	0.44614
2107.92095	0.44520
2105.99238	0.44410
2104.06382	0.44298
2102.13525	0.44188
2100.20669	0.44070
2098.27812	0.43933
2096.34956	0.43785
2094.42100	0.43639
2092.49243	0.43490
2090.56387	0.43332
2088.63530	0.43164
2086.70674	0.42992
2084.77817	0.42816
2082.84961	0.42635
2080.92104	0.42451
2078.99248	0.42260
2077.06392	0.42058
2075.13535	0.41850
2073.20679	0.41640
2071.27822	0.41424
2069.34966	0.41202
2067.42109	0.40985
2065.49253	0.40770
2063.56396	0.40541
2061.63540	0.40295
2059.70684	0.40045
2057.77827	0.39803
2055.84971	0.39571
2053.92114	0.39332
2051.99258	0.39078
2050.06401	0.38813
2048.13545	0.38549
2046.20688	0.38286
2044.27832	0.38020
2042.34976	0.37765
2040.42119	0.37522
2038.49263	0.37265
2036.56406	0.36991
2034.63550	0.36719
2032.70693	0.36447
2030.77837	0.36168
2028.84980	0.35891
2026.92124	0.35623
2024.99268	0.35354
2023.06411	0.35080
2021.13555	0.34813
2019.20698	0.34558
2017.27842	0.34296
2015.34985	0.34012
2013.42129	0.33723
2011.49272	0.33443
2009.56416	0.33174
2007.63560	0.32915
2005.70703	0.32659
2003.77847	0.32400
2001.84990	0.32138
1999.92134	0.31875
1997.99277	0.31617
1996.06421	0.31369
1994.13564	0.31136
1992.20708	0.30904
1990.27852	0.30656
1988.34995	0.30403
1986.42139	0.30151
1984.49282	0.29898
1982.56426	0.29648
1980.63569	0.29412
1978.70713	0.29190
1976.77856	0.28968
1974.85000	0.28745
1972.92144	0.28523
1970.99287	0.28307
1969.06431	0.28109
1967.13574	0.27919
1965.20718	0.27724
1963.27861	0.27529
1961.35005	0.27338
1959.42148	0.27149
1957.49292	0.26963
1955.56436	0.26778
1953.63579	0.26595
1951.70723	0.26416
1949.77866	0.26248
1947.85010	0.26094
1945.92153	0.25950
1943.99297	0.25819
1942.06440	0.25691
1940.13584	0.25546
1938.20728	0.25397
1936.27871	0.25253
1934.35015	0.25108
1932.42158	0.24977
1930.49302	0.24861
1928.56445	0.24752
1926.63589	0.24640
1924.70732	0.24532
1922.77876	0.24431
1920.85020	0.24341
1918.92163	0.24264
1916.99307	0.24175
1915.06450	0.24065
1913.13594	0.23968
1911.20737	0.23902
1909.27881	0.23846
1907.35024	0.23775
1905.42168	0.23691
1903.49312	0.23626
1901.56455	0.23582
1899.63599	0.23535
1897.70742	0.23488
1895.77886	0.23448
1893.85029	0.23417
1891.92173	0.23387
1889.99316	0.23367
1888.06460	0.23339
1886.13604	0.23295
1884.20747	0.23257
1882.27891	0.23234
1880.35034	0.23220
1878.42178	0.23204
1876.49321	0.23193
1874.56465	0.23195
1872.63608	0.23215
1870.70752	0.23246
1868.77896	0.23296
1866.85039	0.23328
1864.92183	0.23314
1862.99326	0.23300
1861.06470	0.23312
1859.13613	0.23348
1857.20757	0.23387
1855.27900	0.23436
1853.35044	0.23488
1851.42187	0.23538
1849.49331	0.23585
1847.56475	0.23643
1845.63618	0.23731
1843.70762	0.23845
1841.77905	0.23925
1839.85049	0.23953
1837.92192	0.24006
1835.99336	0.24088
1834.06479	0.24187
1832.13623	0.24295
1830.20767	0.24440
1828.27910	0.24590
1826.35054	0.24696
1824.42197	0.24816
1822.49341	0.24940
1820.56484	0.25058
1818.63628	0.25191
1816.70771	0.25356
1814.77915	0.25525
1812.85059	0.25696
1810.92202	0.25887
1808.99346	0.26081
1807.06489	0.26268
1805.13633	0.26457
1803.20776	0.26673
1801.27920	0.26920
1799.35063	0.27204
1797.42207	0.27461
1795.49351	0.27700
1793.56494	0.27985
1791.63638	0.28350
1789.70781	0.28683
1787.77925	0.28922
1785.85068	0.29220
1783.92212	0.29597
1781.99355	0.30002
1780.06499	0.30421
1778.13643	0.30843
1776.20786	0.31235
1774.27930	0.31650
1772.35073	0.32202
1770.42217	0.32810
1768.49360	0.33344
1766.56504	0.33863
1764.63647	0.34393
1762.70791	0.34970
1760.77935	0.35700
1758.85078	0.36394
1756.92222	0.37103
1754.99365	0.37884
1753.06509	0.38587
1751.13652	0.39410
1749.20796	0.40446
1747.27939	0.41475
1745.35083	0.42387
1743.42227	0.43362
1741.49370	0.44436
1739.56514	0.45682
1737.63657	0.46911
1735.70801	0.47994
1733.77944	0.49634
1731.85088	0.51575
1729.92231	0.53092
1727.99375	0.54637
1726.06519	0.56297
1724.13662	0.58108
1722.20806	0.60087
1720.27949	0.61927
1718.35093	0.64058
1716.42236	0.67190
1714.49380	0.70191
1712.56523	0.72643
1710.63667	0.75025
1708.70811	0.77588
1706.77954	0.80498
1704.85098	0.83985
1702.92241	0.87098
1700.99385	0.90162
1699.06528	0.94766
1697.13672	0.99076
1695.20815	1.03495
1693.27959	1.07758
1691.35103	1.11191
1689.42246	1.15162
1687.49390	1.19363
1685.56533	1.23421
1683.63677	1.29677
1681.70820	1.36190
1679.77964	1.40399
1677.85107	1.44416
1675.92251	1.49019
1673.99395	1.54689
1672.06538	1.59793
1670.13682	1.64810
1668.20825	1.71214
1666.27969	1.76400
1664.35112	1.80806
1662.42256	1.86398
1660.49399	1.92711
1658.56543	1.97561
1656.63687	2.01459
1654.70830	2.05157
1652.77974	2.11078
1650.85117	2.16578
1648.92261	2.18514
1646.99404	2.21027
1645.06548	2.23900
1643.13691	2.25793
1641.20835	2.26971
1639.27979	2.28039
1637.35122	2.28655
1635.42266	2.28700
1633.49409	2.28062
1631.56553	2.26736
1629.63696	2.25075
1627.70840	2.22379
1625.77983	2.19173
1623.85127	2.15090
1621.92271	2.10094
1619.99414	2.05601
1618.06558	2.01155
1616.13701	1.94799
1614.20845	1.88290
1612.27988	1.83330
1610.35132	1.78214
1608.42275	1.72726
1606.49419	1.67330
1604.56562	1.62316
1602.63706	1.57448
1600.70850	1.52714
1598.77993	1.48355
1596.85137	1.44225
1594.92280	1.40212
1592.99424	1.36345
1591.06567	1.32770
1589.13711	1.29403
1587.20854	1.26267
1585.27998	1.23332
1583.35142	1.20549
1581.42285	1.18007
1579.49429	1.15841
1577.56572	1.13902
1575.63716	1.11595
1573.70859	1.09600
1571.78003	1.08316
1569.85146	1.06971
1567.92290	1.05456
1565.99434	1.04318
1564.06577	1.03450
1562.13721	1.02798
1560.20864	1.02391
1558.28008	1.01912
1556.35151	1.01483
1554.42295	1.01242
1552.49438	1.00991
1550.56582	1.00610
1548.63726	1.00067
1546.70869	0.99426
1544.78013	0.98584
1542.85156	0.97457
1540.92300	0.95921
1538.99443	0.93666
1537.06587	0.91971
1535.13730	0.90809
1533.20874	0.89285
1531.28018	0.87609
1529.35161	0.86379
1527.42305	0.85258
1525.49448	0.84092
1523.56592	0.83066
1521.63735	0.82084
1519.70879	0.81106
1517.78022	0.80276
1515.85166	0.79313
1513.92310	0.78310
1511.99453	0.77441
1510.06597	0.76654
1508.13740	0.75915
1506.20884	0.74796
1504.28027	0.73755
1502.35171	0.73144
1500.42314	0.72620
1498.49458	0.72066
1496.56602	0.71448
1494.63745	0.70866
1492.70889	0.70406
1490.78032	0.70001
1488.85176	0.69568
1486.92319	0.69151
1484.99463	0.68786
1483.06606	0.68494
1481.13750	0.68274
1479.20894	0.68114
1477.28037	0.68009
1475.35181	0.67960
1473.42324	0.67958
1471.49468	0.67885
1469.56611	0.67687
1467.63755	0.67466
1465.70898	0.67266
1463.78042	0.67085
1461.85186	0.66945
1459.92329	0.66868
1457.99473	0.66823
1456.06616	0.66678
1454.13760	0.66393
1452.20903	0.66108
1450.28047	0.65843
1448.35190	0.65586
1446.42334	0.65310
1444.49478	0.65046
1442.56621	0.64813
1440.63765	0.64580
1438.70908	0.64341
1436.78052	0.64052
1434.85195	0.63713
1432.92339	0.63439
1430.99482	0.63245
1429.06626	0.63093
1427.13770	0.62982
1425.20913	0.62926
1423.28057	0.62912
1421.35200	0.62895
1419.42344	0.62859
1417.49487	0.62780
1415.56631	0.62642
1413.63774	0.62528
1411.70918	0.62483
1409.78062	0.62490
1407.85205	0.62523
1405.92349	0.62578
1403.99492	0.62626
1402.06636	0.62614
1400.13779	0.62546
1398.20923	0.62416
1396.28066	0.62218
1394.35210	0.61944
1392.42354	0.61620
1390.49497	0.61311
1388.56641	0.61005
1386.63784	0.60651
1384.70928	0.60268
1382.78071	0.59917
1380.85215	0.59609
1378.92358	0.59347
1376.99502	0.59140
1375.06646	0.58996
1373.13789	0.58882
1371.20933	0.58776
1369.28076	0.58677
1367.35220	0.58560
1365.42363	0.58417
1363.49507	0.58278
1361.56650	0.58161
1359.63794	0.58043
1357.70937	0.57925
1355.78081	0.57810
1353.85225	0.57699
1351.92368	0.57599
1349.99512	0.57513
1348.06655	0.57437
1346.13799	0.57354
1344.20942	0.57261
1342.28086	0.57183
1340.35229	0.57127
1338.42373	0.57055
1336.49517	0.56967
1334.56660	0.56900
1332.63804	0.56855
1330.70947	0.56832
1328.78091	0.56829
1326.85234	0.56836
1324.92378	0.56849
1322.99521	0.56869
1321.06665	0.56889
1319.13809	0.56904
1317.20952	0.56908
1315.28096	0.56894
1313.35239	0.56845
1311.42383	0.56774
1309.49526	0.56710
1307.56670	0.56664
1305.63813	0.56625
1303.70957	0.56573
1301.78101	0.56510
1299.85244	0.56437
1297.92388	0.56345
1295.99531	0.56246
1294.06675	0.56147
1292.13818	0.56036
1290.20962	0.55928
1288.28105	0.55841
1286.35249	0.55755
1284.42393	0.55652
1282.49536	0.55539
1280.56680	0.55436
1278.63823	0.55351
1276.70967	0.55268
1274.78110	0.55178
1272.85254	0.55097
1270.92397	0.55027
1268.99541	0.54958
1267.06685	0.54903
1265.13828	0.54855
1263.20972	0.54805
1261.28115	0.54750
1259.35259	0.54685
1257.42402	0.54616
1255.49546	0.54567
1253.56689	0.54556
1251.63833	0.54573
1249.70977	0.54583
1247.78120	0.54552
1245.85264	0.54495
1243.92407	0.54440
1241.99551	0.54382
1240.06694	0.54293
1238.13838	0.54154
1236.20981	0.53990
1234.28125	0.53827
1232.35269	0.53665
1230.42412	0.53506
1228.49556	0.53364
1226.56699	0.53229
1224.63843	0.53083
1222.70986	0.52936
1220.78130	0.52812
1218.85273	0.52715
1216.92417	0.52625
1214.99561	0.52522
1213.06704	0.52422
1211.13848	0.52356
1209.20991	0.52310
1207.28135	0.52247
1205.35278	0.52167
1203.42422	0.52095
1201.49565	0.52032
1199.56709	0.51961
1197.63853	0.51889
1195.70996	0.51830
1193.78140	0.51773
1191.85283	0.51715
1189.92427	0.51672
1187.99570	0.51649
1186.06714	0.51638
1184.13857	0.51643
1182.21001	0.51681
1180.28145	0.51752
1178.35288	0.51851
1176.42432	0.51965
1174.49575	0.52066
1172.56719	0.52140
1170.63862	0.52206
1168.71006	0.52272
1166.78149	0.52335
1164.85293	0.52386
1162.92437	0.52425
1160.99580	0.52448
1159.06724	0.52429
1157.13867	0.52361
1155.21011	0.52270
1153.28154	0.52165
1151.35298	0.52013
1149.42441	0.51795
1147.49585	0.51545
1145.56729	0.51296
1143.63872	0.51051
1141.71016	0.50819
1139.78159	0.50618
1137.85303	0.50453
1135.92446	0.50319
1133.99590	0.50210
1132.06733	0.50113
1130.13877	0.50020
1128.21021	0.49927
1126.28164	0.49838
1124.35308	0.49764
1122.42451	0.49709
1120.49595	0.49679
1118.56738	0.49687
1116.63882	0.49719
1114.71025	0.49776
1112.78169	0.49858
1110.85312	0.49941
1108.92456	0.50020
1106.99600	0.50116
1105.06743	0.50223
1103.13887	0.50324
1101.21030	0.50428
1099.28174	0.50572
1097.35317	0.50797
1095.42461	0.51098
1093.49604	0.51458
1091.56748	0.51894
1089.63892	0.52443
1087.71035	0.53129
1085.78179	0.53917
1083.85322	0.54713
1081.92466	0.55422
1079.99609	0.55975
1078.06753	0.56296
1076.13896	0.56304
1074.21040	0.56008
1072.28184	0.55510
1070.35327	0.54893
1068.42471	0.54209
1066.49614	0.53528
1064.56758	0.52897
1062.63901	0.52321
1060.71045	0.51809
1058.78188	0.51382
1056.85332	0.51034
1054.92476	0.50726
1052.99619	0.50427
1051.06763	0.50160
1049.13906	0.49950
1047.21050	0.49783
1045.28193	0.49660
1043.35337	0.49602
1041.42480	0.49593
1039.49624	0.49590
1037.56768	0.49558
1035.63911	0.49504
1033.71055	0.49454
1031.78198	0.49397
1029.85342	0.49317
1027.92485	0.49223
1025.99629	0.49128
1024.06772	0.49050
1022.13916	0.49016
1020.21060	0.49023
1018.28203	0.49045
1016.35347	0.49066
1014.42490	0.49089
1012.49634	0.49113
1010.56777	0.49139
1008.63921	0.49186
1006.71064	0.49274
1004.78208	0.49404
1002.85352	0.49575
1000.92495	0.49810
998.99639	0.50110
997.06782	0.50467
995.13926	0.50877
993.21069	0.51295
991.28213	0.51648
989.35356	0.51891
987.42500	0.52003
985.49644	0.52018
983.56787	0.52018
981.63931	0.52050
979.71074	0.52123
977.78218	0.52255
975.85361	0.52441
973.92505	0.52666
971.99648	0.52936
970.06792	0.53263
968.13936	0.53629
966.21079	0.54013
964.28223	0.54426
962.35366	0.54872
960.42510	0.55357
958.49653	0.55900
956.56797	0.56479
954.63940	0.57054
952.71084	0.57639
950.78228	0.58249
948.85371	0.58877
946.92515	0.59521
944.99658	0.60129
943.06802	0.60696
941.13945	0.61281
939.21089	0.61867
937.28232	0.62422
935.35376	0.62979
933.42520	0.63576
931.49663	0.64190
929.56807	0.64765
927.63950	0.65317
925.71094	0.65868
923.78237	0.66433
921.85381	0.67038
919.92524	0.67661
917.99668	0.68305
916.06812	0.69006
914.13955	0.69764
912.21099	0.70551
910.28242	0.71321
908.35386	0.72086
906.42529	0.72950
904.49673	0.73923
902.56816	0.74849
900.63960	0.75721
898.71104	0.76645
896.78247	0.77610
894.85391	0.78587
892.92534	0.79566
890.99678	0.80551
889.06821	0.81599
887.13965	0.82718
885.21108	0.83850
883.28252	0.85006
881.35396	0.86153
879.42539	0.87191
877.49683	0.88206
875.56826	0.89325
873.63970	0.90520
871.71113	0.91732
869.78257	0.92927
867.85400	0.94088
865.92544	0.95282
863.99687	0.96492
862.06831	0.97569
860.13975	0.98663
858.21118	0.99958
856.28262	1.01158
854.35405	1.02079
852.42549	1.03022
850.49692	1.04201
848.56836	1.05396
846.63979	1.06496
844.71123	1.07791
842.78267	1.09172
840.85410	1.10208
838.92554	1.11152
836.99697	1.12408
835.06841	1.13655
833.13984	1.14791
831.21128	1.15987
829.28271	1.17054
827.35415	1.18012
825.42559	1.19047
823.49702	1.20146
821.56846	1.20966
819.63989	1.21825
817.71133	1.23523
815.78276	1.25418
813.85420	1.26663
811.92563	1.27968
809.99707	1.29351
808.06851	1.30087
806.13994	1.31162
804.21138	1.33431
802.28281	1.36407
800.35425	1.38765
798.42568	1.39623
796.49712	1.38802
794.56855	1.36867
792.63999	1.36008
790.71143	1.35765
788.78286	1.36280
786.85430	1.40181
784.92573	1.44859
782.99717	1.46054
781.06860	1.48374
779.14004	1.59056
777.21147	1.77593
775.28291	1.74180
773.35435	1.62541
771.42578	1.67144
769.49722	1.58847
767.56865	1.36301
765.64009	1.27687
763.71152	1.32429
761.78296	1.34161
759.85439	1.30438
757.92583	1.31027
755.99727	1.29531
754.06870	1.24725
752.14014	1.19740
750.21157	1.14516
748.28301	1.10357
746.35444	1.12375
744.42588	1.27731
742.49731	1.47779
740.56875	1.21606
738.64019	0.91263
736.71162	0.73106
734.78306	0.63548
732.85449	0.58247
730.92593	0.54844
728.99736	0.51070
727.06880	0.38137
725.14023	0.23651
723.21167	0.18147
721.28311	0.18730
719.35454	0.15444
717.42598	0.04106
715.49741	-0.07695
713.56885	-0.25857
711.64028	-0.99550
709.71172	4.25827
707.78315	-0.36224
705.85459	-0.00303
703.92603	0.03780
701.99746	0.01818
700.06890	0.10463
698.14033	0.17772
696.21177	0.21412
694.28320	0.25228
692.35464	0.24291
690.42607	0.19885
688.49751	0.18883
686.56895	0.25413
684.64038	0.34602
682.71182	0.34534
680.78325	0.25927
678.85469	0.22412
676.92612	0.25482
674.99756	0.24060
673.06899	0.19048
671.14043	0.21857
669.21187	0.30661
667.28330	0.33837
665.35474	0.30655
663.42617	0.21632
661.49761	0.11100
659.56904	0.07399
657.64048	0.11522
655.71191	0.17555
653.78335	0.20337
651.85479	0.21085
649.92622	0.20113
647.99766	0.17101
646.06909	0.14638
644.14053	0.14011
642.21196	0.15778
640.28340	0.18919
638.35483	0.15785
636.42627	0.12999
634.49771	0.19057
632.56914	0.21412
630.64058	0.17326
628.71201	0.15515
626.78345	0.15126
624.85488	0.15935
622.92632	0.17664
620.99775	0.11944
619.06919	0.06135
617.14062	0.06486
615.21206	0.09578
613.28350	0.10358
611.35493	0.13615
609.42637	0.19603
607.49780	0.21943
605.56924	0.18932
603.64067	0.15227
601.71211	0.16760
599.78354	0.24490
597.85498	0.28004
595.92642	0.25313
593.99785	0.29093
592.06929	0.37721
590.14072	0.35439
588.21216	0.20902
586.28359	0.10431
584.35503	0.08401
582.42646	0.08301
580.49790	0.09755
578.56934	0.14150
576.64077	0.21248
574.71221	0.26463
572.78364	0.24323
570.85508	0.17511
568.92651	0.10651
566.99795	0.08633
565.06938	0.12734
563.14082	0.15583
561.21226	0.13169
559.28369	0.12843
557.35513	0.13327
555.42656	0.12882
553.49800	0.14639
551.56943	0.21485
549.64087	0.33156
547.71230	0.38462
545.78374	0.24999
543.85518	0.11459
541.92661	0.06293
539.99805	0.10680
538.06948	0.20503
536.14092	0.26303
534.21235	0.22523
532.28379	0.19625
530.35522	0.20094
528.42666	0.18623
526.49810	0.16488
524.56953	0.18007
522.64097	0.23722
520.71240	0.29797
518.78384	0.30392
516.85527	0.24462
514.92671	0.17979
512.99814	0.15121
511.06958	0.13011
509.14102	0.08511
507.21245	0.06012
505.28389	0.08344
503.35532	0.11751
501.42676	0.15065
499.49819	0.17289
