3997.91411	0.07621
3995.98555	0.07678
3994.05698	0.07713
3992.12842	0.07732
3990.19985	0.07770
3988.27129	0.07806
3986.34272	0.07814
3984.41416	0.07823
3982.48560	0.07860
3980.55703	0.07912
3978.62847	0.07939
3976.69990	0.07943
3974.77134	0.07969
3972.84277	0.08011
3970.91421	0.08022
3968.98564	0.08024
3967.05708	0.08040
3965.12852	0.08048
3963.19995	0.08055
3961.27139	0.08089
3959.34282	0.08150
3957.41426	0.08210
3955.48569	0.08231
3953.55713	0.08212
3951.62856	0.08210
3949.70000	0.08271
3947.77144	0.08335
3945.84287	0.08328
3943.91431	0.08304
3941.98574	0.08290
3940.05718	0.08215
3938.12861	0.08128
3936.20005	0.08119
3934.27148	0.08178
3932.34292	0.08270
3930.41436	0.08337
3928.48579	0.08302
3926.55723	0.08247
3924.62866	0.08283
3922.70010	0.08309
3920.77153	0.08256
3918.84297	0.08232
3916.91440	0.08253
3914.98584	0.08223
3913.05728	0.08122
3911.12871	0.08044
3909.20015	0.08033
3907.27158	0.08081
3905.34302	0.08215
3903.41445	0.08409
3901.48589	0.08526
3899.55732	0.08538
3897.62876	0.08450
3895.70020	0.08301
3893.77163	0.08250
3891.84307	0.08333
3889.91450	0.08373
3887.98594	0.08292
3886.05737	0.08293
3884.12881	0.08400
3882.20024	0.08456
3880.27168	0.08464
3878.34312	0.08387
3876.41455	0.08286
3874.48599	0.08349
3872.55742	0.08547
3870.62886	0.08736
3868.70029	0.08825
3866.77173	0.08763
3864.84316	0.08733
3862.91460	0.08778
3860.98604	0.08726
3859.05747	0.08620
3857.12891	0.08628
3855.20034	0.08849
3853.27178	0.09310
3851.34321	0.09510
3849.41465	0.09183
3847.48608	0.08915
3845.55752	0.08862
3843.62896	0.09001
3841.70039	0.09254
3839.77183	0.09536
3837.84326	0.09765
3835.91470	0.09811
3833.98613	0.09730
3832.05757	0.09630
3830.12900	0.09522
3828.20044	0.09496
3826.27187	0.09633
3824.34331	0.09824
3822.41475	0.10026
3820.48618	0.10287
3818.55762	0.10339
3816.62905	0.10244
3814.70049	0.10223
3812.77192	0.10186
3810.84336	0.10160
3808.91479	0.10270
3806.98623	0.10545
3805.05767	0.10813
3803.12910	0.10981
3801.20054	0.11183
3799.27197	0.11321
3797.34341	0.11342
3795.41484	0.11337
3793.48628	0.11268
3791.55771	0.11221
3789.62915	0.11285
3787.70059	0.11438
3785.77202	0.11651
3783.84346	0.11867
3781.91489	0.12041
3779.98633	0.12232
3778.05776	0.12420
3776.12920	0.12519
3774.20063	0.12625
3772.27207	0.12830
3770.34351	0.13125
3768.41494	0.13421
3766.48638	0.13607
3764.55781	0.13726
3762.62925	0.13840
3760.70068	0.14059
3758.77212	0.14425
3756.84355	0.14756
3754.91499	0.14991
3752.98643	0.15340
3751.05786	0.15943
3749.12930	0.16504
3747.20073	0.16672
3745.27217	0.16822
3743.34360	0.17155
3741.41504	0.17448
3739.48647	0.17698
3737.55791	0.18107
3735.62935	0.18777
3733.70078	0.19468
3731.77222	0.19788
3729.84365	0.19993
3727.91509	0.20345
3725.98652	0.20899
3724.05796	0.21590
3722.12939	0.22300
3720.20083	0.22956
3718.27227	0.23539
3716.34370	0.24167
3714.41514	0.24930
3712.48657	0.25982
3710.55801	0.27456
3708.62944	0.28887
3706.70088	0.29963
3704.77231	0.31020
3702.84375	0.32342
3700.91519	0.34089
3698.98662	0.35933
3697.05806	0.37654
3695.12949	0.39541
3693.20093	0.41600
3691.27236	0.43874
3689.34380	0.46826
3687.41523	0.50378
3685.48667	0.53352
3683.55811	0.55854
3681.62954	0.58629
3679.70098	0.61889
3677.77241	0.65403
3675.84385	0.69575
3673.91528	0.75031
3671.98672	0.79274
3670.05815	0.83062
3668.12959	0.88422
3666.20103	0.93247
3664.27246	0.97223
3662.34390	1.01517
3660.41533	1.06231
3658.48677	1.10962
3656.55820	1.16046
3654.62964	1.21700
3652.70107	1.26380
3650.77251	1.30467
3648.84395	1.36268
3646.91538	1.43298
3644.98682	1.48172
3643.05825	1.51892
3641.12969	1.55778
3639.20112	1.60122
3637.27256	1.64580
3635.34399	1.68991
3633.41543	1.73423
3631.48687	1.77588
3629.55830	1.81867
3627.62974	1.87424
3625.70117	1.92376
3623.77261	1.95630
3621.84404	1.98846
3619.91548	2.02658
3617.98691	2.07322
3616.05835	2.11678
3614.12979	2.15255
3612.20122	2.19142
3610.27266	2.23065
3608.34409	2.26980
3606.41553	2.31207
3604.48696	2.35079
3602.55840	2.38475
3600.62983	2.42331
3598.70127	2.46660
3596.77271	2.50669
3594.84414	2.54561
3592.91558	2.58671
3590.98701	2.62573
3589.05845	2.66208
3587.12988	2.70607
3585.20132	2.75425
3583.27275	2.79445
3581.34419	2.83262
3579.41562	2.87397
3577.48706	2.91582
3575.55850	2.95655
3573.62993	2.99881
3571.70137	3.04043
3569.77280	3.07964
3567.84424	3.12138
3565.91567	3.17407
3563.98711	3.22452
3562.05854	3.26360
3560.12998	3.30328
3558.20142	3.34760
3556.27285	3.39359
3554.34429	3.43873
3552.41572	3.48529
3550.48716	3.53257
3548.55859	3.57908
3546.63003	3.62681
3544.70146	3.67518
3542.77290	3.72029
3540.84434	3.76534
3538.91577	3.81397
3536.98721	3.86244
3535.05864	3.90887
3533.13008	3.95328
3531.20151	4.00053
3529.27295	4.05248
3527.34438	4.10244
3525.41582	4.14605
3523.48726	4.19136
3521.55869	4.24543
3519.63013	4.29927
3517.70156	4.34664
3515.77300	4.39238
3513.84443	4.44081
3511.91587	4.48866
3509.98730	4.53317
3508.05874	4.57597
3506.13018	4.62006
3504.20161	4.67085
3502.27305	4.72827
3500.34448	4.78020
3498.41592	4.82140
3496.48735	4.86203
3494.55879	4.90885
3492.63022	4.95969
3490.70166	5.00979
3488.77310	5.05854
3486.84453	5.10558
3484.91597	5.14756
3482.98740	5.18300
3481.05884	5.21989
3479.13027	5.27160
3477.20171	5.33326
3475.27314	5.38851
3473.34458	5.43766
3471.41602	5.48605
3469.48745	5.53242
3467.55889	5.58257
3465.63032	5.64143
3463.70176	5.70723
3461.77319	5.77547
3459.84463	5.83772
3457.91606	5.88334
3455.98750	5.92094
3454.05894	5.96441
3452.13037	6.01082
3450.20181	6.06286
3448.27324	6.12064
3446.34468	6.16464
3444.41611	6.19347
3442.48755	6.24591
3440.55898	6.32327
3438.63042	6.39332
3436.70186	6.44547
3434.77329	6.47994
3432.84473	6.50522
3430.91616	6.54240
3428.98760	6.60910
3427.05903	6.68740
3425.13047	6.75181
3423.20190	6.80025
3421.27334	6.85624
3419.34478	6.92212
3417.41621	6.96578
3415.48765	6.97489
3413.55908	6.98468
3411.63052	7.04593
3409.70195	7.12499
3407.77339	7.15992
3405.84482	7.17030
3403.91626	7.20766
3401.98770	7.25157
3400.05913	7.28536
3398.13057	7.33723
3396.20200	7.39729
3394.27344	7.46098
3392.34487	7.51214
3390.41631	7.52117
3388.48774	7.52190
3386.55918	7.56888
3384.63062	7.60602
3382.70205	7.61202
3380.77349	7.66763
3378.84492	7.77407
3376.91636	7.84466
3374.98779	7.83453
3373.05923	7.84041
3371.13066	7.89258
3369.20210	7.90994
3367.27354	7.85013
3365.34497	7.81140
3363.41641	7.86539
3361.48784	7.95708
3359.55928	8.01628
3357.63071	8.02392
3355.70215	8.06837
3353.77358	8.13269
3351.84502	8.11074
3349.91646	8.04389
3347.98789	8.03589
3346.05933	8.04949
3344.13076	8.05709
3342.20220	8.12411
3340.27363	8.15108
3338.34507	8.04824
3336.41650	7.93139
3334.48794	7.93550
3332.55937	8.07212
3330.63081	8.22331
3328.70225	8.24234
3326.77368	8.23190
3324.84512	8.30762
3322.91655	8.35033
3320.98799	8.33526
3319.05942	8.30096
3317.13086	8.24377
3315.20229	8.20649
3313.27373	8.26629
3311.34517	8.33891
3309.41660	8.33190
3307.48804	8.33292
3305.55947	8.31458
3303.63091	8.22672
3301.70234	8.11701
3299.77378	8.05596
3297.84521	8.07869
3295.91665	8.12700
3293.98809	8.08740
3292.05952	8.05658
3290.13096	8.11718
3288.20239	8.13848
3286.27383	8.09466
3284.34526	8.06270
3282.41670	8.04518
3280.48813	8.03524
3278.55957	8.12016
3276.63101	8.24957
3274.70244	8.36132
3272.77388	8.55300
3270.84531	8.71319
3268.91675	8.65914
3266.98818	8.44859
3265.05962	8.26669
3263.13105	8.19432
3261.20249	8.23969
3259.27393	8.37141
3257.34536	8.51024
3255.41680	8.54583
3253.48823	8.42449
3251.55967	8.28803
3249.63110	8.24583
3247.70254	8.29791
3245.77397	8.39059
3243.84541	8.43867
3241.91685	8.33674
3239.98828	8.15154
3238.05972	8.07113
3236.13115	8.15202
3234.20259	8.29851
3232.27402	8.33292
3230.34546	8.23601
3228.41689	8.14053
3226.48833	8.11893
3224.55977	8.16922
3222.63120	8.22286
3220.70264	8.20806
3218.77407	8.15872
3216.84551	8.09793
3214.91694	8.01304
3212.98838	7.99320
3211.05981	8.07060
3209.13125	8.13838
3207.20269	8.11676
3205.27412	8.02967
3203.34556	7.95798
3201.41699	7.93497
3199.48843	7.89937
3197.55986	7.80191
3195.63130	7.70207
3193.70273	7.64342
3191.77417	7.56155
3189.84561	7.47533
3187.91704	7.48147
3185.98848	7.54937
3184.05991	7.56258
3182.13135	7.49763
3180.20278	7.43311
3178.27422	7.38898
3176.34565	7.31516
3174.41709	7.21299
3172.48853	7.11141
3170.55996	7.01479
3168.63140	6.95844
3166.70283	6.94755
3164.77427	6.92747
3162.84570	6.87670
3160.91714	6.79140
3158.98857	6.69351
3157.06001	6.62825
3155.13145	6.59491
3153.20288	6.56645
3151.27432	6.51833
3149.34575	6.43382
3147.41719	6.33330
3145.48862	6.24207
3143.56006	6.15311
3141.63149	6.07176
3139.70293	6.00875
3137.77437	5.95217
3135.84580	5.89381
3133.91724	5.82817
3131.98867	5.74967
3130.06011	5.67242
3128.13154	5.60881
3126.20298	5.55027
3124.27441	5.48507
3122.34585	5.41315
3120.41729	5.34120
3118.48872	5.26671
3116.56016	5.18665
3114.63159	5.10740
3112.70303	5.03381
3110.77446	4.96080
3108.84590	4.88554
3106.91733	4.81658
3104.98877	4.75283
3103.06021	4.68476
3101.13164	4.61379
3099.20308	4.54603
3097.27451	4.48010
3095.34595	4.41284
3093.41738	4.34695
3091.48882	4.28267
3089.56025	4.21764
3087.63169	4.15290
3085.70312	4.08837
3083.77456	4.02359
3081.84600	3.96085
3079.91743	3.89958
3077.98887	3.83779
3076.06030	3.77577
3074.13174	3.71298
3072.20317	3.65057
3070.27461	3.59184
3068.34604	3.53620
3066.41748	3.48155
3064.48892	3.42681
3062.56035	3.37026
3060.63179	3.31263
3058.70322	3.25619
3056.77466	3.20172
3054.84609	3.14902
3052.91753	3.09675
3050.98896	3.04382
3049.06040	2.99136
3047.13184	2.94062
3045.20327	2.89066
3043.27471	2.84136
3041.34614	2.79362
3039.41758	2.74678
3037.48901	2.69974
3035.56045	2.65260
3033.63188	2.60685
3031.70332	2.56262
3029.77476	2.51853
3027.84619	2.47499
3025.91763	2.43285
3023.98906	2.39082
3022.06050	2.34798
3020.13193	2.30568
3018.20337	2.26530
3016.27480	2.22615
3014.34624	2.18719
3012.41768	2.14865
3010.48911	2.11077
3008.56055	2.07362
3006.63198	2.03733
3004.70342	2.00170
3002.77485	1.96607
3000.84629	1.93073
2998.91772	1.89637
2996.98916	1.86241
2995.06060	1.82872
2993.13203	1.79579
2991.20347	1.76340
2989.27490	1.73155
2987.34634	1.70063
2985.41777	1.67035
2983.48921	1.63993
2981.56064	1.60934
2979.63208	1.57921
2977.70352	1.54963
2975.77495	1.52048
2973.84639	1.49183
2971.91782	1.46380
2969.98926	1.43633
2968.06069	1.40937
2966.13213	1.38294
2964.20356	1.35671
2962.27500	1.33083
2960.34644	1.30590
2958.41787	1.28160
2956.48931	1.25772
2954.56074	1.23451
2952.63218	1.21185
2950.70361	1.18959
2948.77505	1.16747
2946.84648	1.14531
2944.91792	1.12346
2942.98936	1.10204
2941.06079	1.08089
2939.13223	1.06000
2937.20366	1.03950
2935.27510	1.01971
2933.34653	1.00063
2931.41797	0.98214
2929.48940	0.96425
2927.56084	0.94657
2925.63228	0.92874
2923.70371	0.91136
2921.77515	0.89509
2919.84658	0.87955
2917.91802	0.86418
2915.98945	0.84892
2914.06089	0.83361
2912.13232	0.81853
2910.20376	0.80430
2908.27520	0.79070
2906.34663	0.77714
2904.41807	0.76361
2902.48950	0.75042
2900.56094	0.73771
2898.63237	0.72537
2896.70381	0.71316
2894.77524	0.70100
2892.84668	0.68904
2890.91812	0.67737
2888.98955	0.66587
2887.06099	0.65436
2885.13242	0.64306
2883.20386	0.63225
2881.27529	0.62161
2879.34673	0.61102
2877.41816	0.60068
2875.48960	0.59008
2873.56104	0.57926
2871.63247	0.56901
2869.70391	0.55933
2867.77534	0.54981
2865.84678	0.54037
2863.91821	0.53096
2861.98965	0.52163
2860.06108	0.51261
2858.13252	0.50408
2856.20396	0.49595
2854.27539	0.48790
2852.34683	0.47998
2850.41826	0.47233
2848.48970	0.46456
2846.56113	0.45663
2844.63257	0.44945
2842.70400	0.44349
2840.77544	0.43799
2838.84687	0.43205
2836.91831	0.42604
2834.98975	0.42040
2833.06118	0.41484
2831.13262	0.40927
2829.20405	0.40363
2827.27549	0.39789
2825.34692	0.39223
2823.41836	0.38670
2821.48979	0.38118
2819.56123	0.37554
2817.63267	0.36991
2815.70410	0.36439
2813.77554	0.35893
2811.84697	0.35364
2809.91841	0.34861
2807.98984	0.34370
2806.06128	0.33876
2804.13271	0.33388
2802.20415	0.32909
2800.27559	0.32425
2798.34702	0.31948
2796.41846	0.31507
2794.48989	0.31096
2792.56133	0.30684
2790.63276	0.30265
2788.70420	0.29862
2786.77563	0.29474
2784.84707	0.29090
2782.91851	0.28707
2780.98994	0.28321
2779.06138	0.27938
2777.13281	0.27573
2775.20425	0.27231
2773.27568	0.26894
2771.34712	0.26541
2769.41855	0.26194
2767.48999	0.25872
2765.56143	0.25568
2763.63286	0.25261
2761.70430	0.24940
2759.77573	0.24625
2757.84717	0.24318
2755.91860	0.24008
2753.99004	0.23728
2752.06147	0.23488
2750.13291	0.23252
2748.20435	0.22998
2746.27578	0.22727
2744.34722	0.22446
2742.41865	0.22186
2740.49009	0.21954
2738.56152	0.21736
2736.63296	0.21519
2734.70439	0.21289
2732.77583	0.21054
2730.84727	0.20822
2728.91870	0.20590
2726.99014	0.20382
2725.06157	0.20209
2723.13301	0.20031
2721.20444	0.19837
2719.27588	0.19664
2717.34731	0.19508
2715.41875	0.19333
2713.49019	0.19157
2711.56162	0.18992
2709.63306	0.18825
2707.70449	0.18654
2705.77593	0.18486
2703.84736	0.18324
2701.91880	0.18176
2699.99023	0.18042
2698.06167	0.17909
2696.13311	0.17766
2694.20454	0.17624
2692.27598	0.17495
2690.34741	0.17378
2688.41885	0.17269
2686.49028	0.17159
2684.56172	0.17041
2682.63315	0.16922
2680.70459	0.16809
2678.77603	0.16709
2676.84746	0.16621
2674.91890	0.16532
2672.99033	0.16434
2671.06177	0.16333
2669.13320	0.16240
2667.20464	0.16153
2665.27607	0.16068
2663.34751	0.15987
2661.41895	0.15911
2659.49038	0.15847
2657.56182	0.15792
2655.63325	0.15732
2653.70469	0.15668
2651.77612	0.15610
2649.84756	0.15562
2647.91899	0.15515
2645.99043	0.15463
2644.06187	0.15415
2642.13330	0.15382
2640.20474	0.15354
2638.27617	0.15314
2636.34761	0.15267
2634.41904	0.15222
2632.49048	0.15181
2630.56191	0.15157
2628.63335	0.15140
2626.70479	0.15117
2624.77622	0.15091
2622.84766	0.15072
2620.91909	0.15067
2618.99053	0.15060
2617.06196	0.15042
2615.13340	0.15031
2613.20483	0.15027
2611.27627	0.15016
2609.34771	0.15002
2607.41914	0.14996
2605.49058	0.14999
2603.56201	0.15008
2601.63345	0.15027
2599.70488	0.15048
2597.77632	0.15061
2595.84775	0.15065
2593.91919	0.15072
2591.99062	0.15088
2590.06206	0.15116
2588.13350	0.15153
2586.20493	0.15180
2584.27637	0.15196
2582.34780	0.15225
2580.41924	0.15265
2578.49067	0.15303
2576.56211	0.15342
2574.63354	0.15385
2572.70498	0.15437
2570.77642	0.15489
2568.84785	0.15535
2566.91929	0.15574
2564.99072	0.15615
2563.06216	0.15663
2561.13359	0.15719
2559.20503	0.15776
2557.27646	0.15819
2555.34790	0.15864
2553.41934	0.15937
2551.49077	0.16020
2549.56221	0.16085
2547.63364	0.16142
2545.70508	0.16212
2543.77651	0.16288
2541.84795	0.16357
2539.91938	0.16424
2537.99082	0.16492
2536.06226	0.16569
2534.13369	0.16653
2532.20513	0.16725
2530.27656	0.16784
2528.34800	0.16851
2526.41943	0.16932
2524.49087	0.17006
2522.56230	0.17080
2520.63374	0.17170
2518.70518	0.17267
2516.77661	0.17355
2514.84805	0.17441
2512.91948	0.17520
2510.99092	0.17596
2509.06235	0.17680
2507.13379	0.17769
2505.20522	0.17857
2503.27666	0.17949
2501.34810	0.18042
2499.41953	0.18130
2497.49097	0.18221
2495.56240	0.18320
2493.63384	0.18427
2491.70527	0.18537
2489.77671	0.18629
2487.84814	0.18703
2485.91958	0.18780
2483.99102	0.18869
2482.06245	0.18967
2480.13389	0.19065
2478.20532	0.19155
2476.27676	0.19238
2474.34819	0.19327
2472.41963	0.19436
2470.49106	0.19556
2468.56250	0.19668
2466.63394	0.19771
2464.70537	0.19871
2462.77681	0.19969
2460.84824	0.20063
2458.91968	0.20162
2456.99111	0.20275
2455.06255	0.20383
2453.13398	0.20475
2451.20542	0.20568
2449.27686	0.20680
2447.34829	0.20792
2445.41973	0.20889
2443.49116	0.20992
2441.56260	0.21116
2439.63403	0.21241
2437.70547	0.21346
2435.77690	0.21446
2433.84834	0.21557
2431.91978	0.21677
2429.99121	0.21786
2428.06265	0.21891
2426.13408	0.22007
2424.20552	0.22121
2422.27695	0.22226
2420.34839	0.22341
2418.41982	0.22460
2416.49126	0.22571
2414.56270	0.22685
2412.63413	0.22809
2410.70557	0.22930
2408.77700	0.23045
2406.84844	0.23171
2404.91987	0.23310
2402.99131	0.23445
2401.06274	0.23564
2399.13418	0.23676
2397.20562	0.23786
2395.27705	0.23898
2393.34849	0.24024
2391.41992	0.24168
2389.49136	0.24320
2387.56279	0.24479
2385.63423	0.24662
2383.70566	0.24888
2381.77710	0.25148
2379.84854	0.25434
2377.91997	0.25747
2375.99141	0.26098
2374.06284	0.26502
2372.13428	0.26954
2370.20571	0.27436
2368.27715	0.27955
2366.34858	0.28521
2364.42002	0.29051
2362.49146	0.29404
2360.56289	0.29517
2358.63433	0.29529
2356.70576	0.29572
2354.77720	0.29547
2352.84863	0.29406
2350.92007	0.29190
2348.99150	0.29015
2347.06294	0.29024
2345.13437	0.29344
2343.20581	0.29917
2341.27725	0.30317
2339.34868	0.30400
2337.42012	0.30397
2335.49155	0.30463
2333.56299	0.30576
2331.63442	0.30709
2329.70586	0.30853
2327.77729	0.30970
2325.84873	0.31065
2323.92017	0.31182
2321.99160	0.31284
2320.06304	0.31315
2318.13447	0.31290
2316.20591	0.31280
2314.27734	0.31334
2312.34878	0.31435
2310.42021	0.31554
2308.49165	0.31667
2306.56309	0.31765
2304.63452	0.31861
2302.70596	0.31972
2300.77739	0.32107
2298.84883	0.32252
2296.92026	0.32392
2294.99170	0.32537
2293.06313	0.32696
2291.13457	0.32855
2289.20601	0.32999
2287.27744	0.33141
2285.34888	0.33298
2283.42031	0.33476
2281.49175	0.33676
2279.56318	0.33885
2277.63462	0.34097
2275.70605	0.34319
2273.77749	0.34542
2271.84893	0.34754
2269.92036	0.34953
2267.99180	0.35155
2266.06323	0.35372
2264.13467	0.35591
2262.20610	0.35804
2260.27754	0.36017
2258.34897	0.36231
2256.42041	0.36438
2254.49185	0.36649
2252.56328	0.36872
2250.63472	0.37096
2248.70615	0.37312
2246.77759	0.37520
2244.84902	0.37722
2242.92046	0.37933
2240.99189	0.38162
2239.06333	0.38393
2237.13477	0.38619
2235.20620	0.38854
2233.27764	0.39090
2231.34907	0.39313
2229.42051	0.39528
2227.49194	0.39750
2225.56338	0.39984
2223.63481	0.40213
2221.70625	0.40431
2219.77769	0.40644
2217.84912	0.40856
2215.92056	0.41066
2213.99199	0.41288
2212.06343	0.41517
2210.13486	0.41736
2208.20630	0.41949
2206.27773	0.42167
2204.34917	0.42374
2202.42061	0.42561
2200.49204	0.42754
2198.56348	0.42972
2196.63491	0.43194
2194.70635	0.43397
2192.77778	0.43590
2190.84922	0.43788
2188.92065	0.43983
2186.99209	0.44159
2185.06353	0.44324
2183.13496	0.44499
2181.20640	0.44686
2179.27783	0.44870
2177.34927	0.45044
2175.42070	0.45212
2173.49214	0.45375
2171.56357	0.45520
2169.63501	0.45654
2167.70645	0.45790
2165.77788	0.45925
2163.84932	0.46049
2161.92075	0.46157
2159.99219	0.46257
2158.06362	0.46361
2156.13506	0.46463
2154.20649	0.46550
2152.27793	0.46629
2150.34937	0.46707
2148.42080	0.46779
2146.49224	0.46846
2144.56367	0.46904
2142.63511	0.46946
2140.70654	0.46980
2138.77798	0.47012
2136.84941	0.47040
2134.92085	0.47052
2132.99229	0.47042
2131.06372	0.47032
2129.13516	0.47029
2127.20659	0.47011
2125.27803	0.46970
2123.34946	0.46924
2121.42090	0.46880
2119.49233	0.46824
2117.56377	0.46748
2115.63521	0.46669
2113.70664	0.46603
2111.77808	0.46532
2109.84951	0.46448
2107.92095	0.46351
2105.99238	0.46237
2104.06382	0.46114
2102.13525	0.45992
2100.20669	0.45867
2098.27812	0.45721
2096.34956	0.45562
2094.42100	0.45406
2092.49243	0.45251
2090.56387	0.45091
2088.63530	0.44925
2086.70674	0.44741
2084.77817	0.44535
2082.84961	0.44335
2080.92104	0.44154
2078.99248	0.43970
2077.06392	0.43768
2075.13535	0.43550
2073.20679	0.43321
2071.27822	0.43087
2069.34966	0.42860
2067.42109	0.42637
2065.49253	0.42411
2063.56396	0.42176
2061.63540	0.41935
2059.70684	0.41691
2057.77827	0.41442
2055.84971	0.41189
2053.92114	0.40930
2051.99258	0.40669
2050.06401	0.40398
2048.13545	0.40119
2046.20688	0.39841
2044.27832	0.39572
2042.34976	0.39305
2040.42119	0.39026
2038.49263	0.38738
2036.56406	0.38462
2034.63550	0.38198
2032.70693	0.37926
2030.77837	0.37645
2028.84980	0.37365
2026.92124	0.37088
2024.99268	0.36808
2023.06411	0.36517
2021.13555	0.36236
2019.20698	0.35980
2017.27842	0.35724
2015.34985	0.35435
2013.42129	0.35129
2011.49272	0.34828
2009.56416	0.34543
2007.63560	0.34277
2005.70703	0.34012
2003.77847	0.33736
2001.84990	0.33457
1999.92134	0.33185
1997.99277	0.32916
1996.06421	0.32657
1994.13564	0.32419
1992.20708	0.32188
1990.27852	0.31935
1988.34995	0.31669
1986.42139	0.31407
1984.49282	0.31146
1982.56426	0.30892
1980.63569	0.30651
1978.70713	0.30424
1976.77856	0.30201
1974.85000	0.29974
1972.92144	0.29746
1970.99287	0.29527
1969.06431	0.29327
1967.13574	0.29131
1965.20718	0.28914
1963.27861	0.28698
1961.35005	0.28501
1959.42148	0.28305
1957.49292	0.28104
1955.56436	0.27914
1953.63579	0.27742
1951.70723	0.27572
1949.77866	0.27405
1947.85010	0.27249
1945.92153	0.27101
1943.99297	0.26964
1942.06440	0.26821
1940.13584	0.26650
1938.20728	0.26481
1936.27871	0.26335
1934.35015	0.26200
1932.42158	0.26069
1930.49302	0.25948
1928.56445	0.25837
1926.63589	0.25730
1924.70732	0.25645
1922.77876	0.25572
1920.85020	0.25479
1918.92163	0.25387
1916.99307	0.25291
1915.06450	0.25167
1913.13594	0.25057
1911.20737	0.24992
1909.27881	0.24939
1907.35024	0.24865
1905.42168	0.24775
1903.49312	0.24696
1901.56455	0.24633
1899.63599	0.24577
1897.70742	0.24531
1895.77886	0.24501
1893.85029	0.24466
1891.92173	0.24425
1889.99316	0.24415
1888.06460	0.24402
1886.13604	0.24367
1884.20747	0.24332
1882.27891	0.24297
1880.35034	0.24269
1878.42178	0.24256
1876.49321	0.24251
1874.56465	0.24245
1872.63608	0.24264
1870.70752	0.24338
1868.77896	0.24456
1866.85039	0.24483
1864.92183	0.24416
1862.99326	0.24383
1861.06470	0.24397
1859.13613	0.24430
1857.20757	0.24457
1855.27900	0.24487
1853.35044	0.24530
1851.42187	0.24591
1849.49331	0.24667
1847.56475	0.24763
1845.63618	0.24884
1843.70762	0.25000
1841.77905	0.25045
1839.85049	0.25056
1837.92192	0.25125
1835.99336	0.25217
1834.06479	0.25304
1832.13623	0.25421
1830.20767	0.25604
1828.27910	0.25772
1826.35054	0.25867
1824.42197	0.25969
1822.49341	0.26066
1820.56484	0.26170
1818.63628	0.26305
1816.70771	0.26467
1814.77915	0.26632
1812.85059	0.26821
1810.92202	0.27050
1808.99346	0.27261
1807.06489	0.27436
1805.13633	0.27617
1803.20776	0.27852
1801.27920	0.28133
1799.35063	0.28420
1797.42207	0.28666
1795.49351	0.28923
1793.56494	0.29252
1791.63638	0.29644
1789.70781	0.29950
1787.77925	0.30161
1785.85068	0.30457
1783.92212	0.30837
1781.99355	0.31246
1780.06499	0.31673
1778.13643	0.32101
1776.20786	0.32518
1774.27930	0.33010
1772.35073	0.33674
1770.42217	0.34318
1768.49360	0.34797
1766.56504	0.35272
1764.63647	0.35791
1762.70791	0.36397
1760.77935	0.37172
1758.85078	0.37888
1756.92222	0.38609
1754.99365	0.39393
1753.06509	0.40100
1751.13652	0.40966
1749.20796	0.42085
1747.27939	0.43153
1745.35083	0.44052
1743.42227	0.44995
1741.49370	0.46056
1739.56514	0.47320
1737.63657	0.48582
1735.70801	0.49702
1733.77944	0.51417
1731.85088	0.53392
1729.92231	0.54867
1727.99375	0.56401
1726.06519	0.58090
1724.13662	0.59956
1722.20806	0.61971
1720.27949	0.63842
1718.35093	0.66088
1716.42236	0.69442
1714.49380	0.72518
1712.56523	0.74897
1710.63667	0.77210
1708.70811	0.79737
1706.77954	0.82649
1704.85098	0.86117
1702.92241	0.89151
1700.99385	0.92091
1699.06528	0.96551
1697.13672	1.00643
1695.20815	1.04704
1693.27959	1.08560
1691.35103	1.11615
1689.42246	1.15152
1687.49390	1.18844
1685.56533	1.22360
1683.63677	1.27930
1681.70820	1.33669
1679.77964	1.37134
1677.85107	1.40475
1675.92251	1.44396
1673.99395	1.49285
1672.06538	1.53593
1670.13682	1.57769
1668.20825	1.63104
1666.27969	1.67138
1664.35112	1.70438
1662.42256	1.74648
1660.49399	1.79497
1658.56543	1.83169
1656.63687	1.86123
1654.70830	1.89094
1652.77974	1.94548
1650.85117	2.00056
1648.92261	2.02325
1646.99404	2.05438
1645.06548	2.08766
1643.13691	2.10952
1641.20835	2.12401
1639.27979	2.13714
1637.35122	2.14620
1635.42266	2.15124
1633.49409	2.15149
1631.56553	2.14327
1629.63696	2.12993
1627.70840	2.10614
1625.77983	2.07980
1623.85127	2.04708
1621.92271	2.00549
1619.99414	1.96765
1618.06558	1.93017
1616.13701	1.87403
1614.20845	1.81451
1612.27988	1.76934
1610.35132	1.72256
1608.42275	1.67095
1606.49419	1.61904
1604.56562	1.57109
1602.63706	1.52439
1600.70850	1.47827
1598.77993	1.43590
1596.85137	1.39603
1594.92280	1.35690
1592.99424	1.31875
1591.06567	1.28357
1589.13711	1.24998
1587.20854	1.21817
1585.27998	1.18845
1583.35142	1.16015
1581.42285	1.13372
1579.49429	1.11092
1577.56572	1.09029
1575.63716	1.06381
1573.70859	1.03948
1571.78003	1.02361
1569.85146	1.00639
1567.92290	0.98563
1565.99434	0.96855
1564.06577	0.95390
1562.13721	0.94185
1560.20864	0.93226
1558.28008	0.91397
1556.35151	0.89503
1554.42295	0.88342
1552.49438	0.87229
1550.56582	0.86152
1548.63726	0.85065
1546.70869	0.84141
1544.78013	0.83383
1542.85156	0.82670
1540.92300	0.81819
1538.99443	0.80457
1537.06587	0.79457
1535.13730	0.78889
1533.20874	0.78217
1531.28018	0.77438
1529.35161	0.76864
1527.42305	0.76367
1525.49448	0.75824
1523.56592	0.75293
1521.63735	0.74709
1519.70879	0.74023
1517.78022	0.73470
1515.85166	0.72950
1513.92310	0.72433
1511.99453	0.72021
1510.06597	0.71707
1508.13740	0.71484
1506.20884	0.71025
1504.28027	0.70386
1502.35171	0.69973
1500.42314	0.69691
1498.49458	0.69445
1496.56602	0.69106
1494.63745	0.68707
1492.70889	0.68405
1490.78032	0.68201
1488.85176	0.67955
1486.92319	0.67586
1484.99463	0.67212
1483.06606	0.66908
1481.13750	0.66636
1479.20894	0.66377
1477.28037	0.66160
1475.35181	0.65966
1473.42324	0.65732
1471.49468	0.65322
1469.56611	0.64867
1467.63755	0.64549
1465.70898	0.64319
1463.78042	0.64078
1461.85186	0.63858
1459.92329	0.63739
1457.99473	0.63652
1456.06616	0.63369
1454.13760	0.63003
1452.20903	0.62756
1450.28047	0.62582
1448.35190	0.62431
1446.42334	0.62241
1444.49478	0.62039
1442.56621	0.61881
1440.63765	0.61752
1438.70908	0.61641
1436.78052	0.61551
1434.85195	0.61434
1432.92339	0.61285
1430.99482	0.61156
1429.06626	0.61018
1427.13770	0.60853
1425.20913	0.60704
1423.28057	0.60570
1421.35200	0.60449
1419.42344	0.60356
1417.49487	0.60201
1415.56631	0.59961
1413.63774	0.59751
1411.70918	0.59591
1409.78062	0.59453
1407.85205	0.59329
1405.92349	0.59220
1403.99492	0.59090
1402.06636	0.58931
1400.13779	0.58797
1398.20923	0.58703
1396.28066	0.58605
1394.35210	0.58454
1392.42354	0.58268
1390.49497	0.58122
1388.56641	0.58027
1386.63784	0.57922
1384.70928	0.57771
1382.78071	0.57629
1380.85215	0.57520
1378.92358	0.57429
1376.99502	0.57352
1375.06646	0.57302
1373.13789	0.57227
1371.20933	0.57101
1369.28076	0.56975
1367.35220	0.56868
1365.42363	0.56787
1363.49507	0.56734
1361.56650	0.56651
1359.63794	0.56525
1357.70937	0.56419
1355.78081	0.56340
1353.85225	0.56258
1351.92368	0.56165
1349.99512	0.56071
1348.06655	0.55981
1346.13799	0.55889
1344.20942	0.55797
1342.28086	0.55730
1340.35229	0.55689
1338.42373	0.55616
1336.49517	0.55503
1334.56660	0.55398
1332.63804	0.55305
1330.70947	0.55212
1328.78091	0.55115
1326.85234	0.55022
1324.92378	0.54934
1322.99521	0.54858
1321.06665	0.54808
1319.13809	0.54757
1317.20952	0.54669
1315.28096	0.54569
1313.35239	0.54482
1311.42383	0.54398
1309.49526	0.54303
1307.56670	0.54209
1305.63813	0.54139
1303.70957	0.54073
1301.78101	0.53987
1299.85244	0.53892
1297.92388	0.53806
1295.99531	0.53722
1294.06675	0.53638
1292.13818	0.53570
1290.20962	0.53511
1288.28105	0.53447
1286.35249	0.53392
1284.42393	0.53354
1282.49536	0.53313
1280.56680	0.53276
1278.63823	0.53250
1276.70967	0.53202
1274.78110	0.53129
1272.85254	0.53078
1270.92397	0.53049
1268.99541	0.53003
1267.06685	0.52939
1265.13828	0.52882
1263.20972	0.52850
1261.28115	0.52840
1259.35259	0.52825
1257.42402	0.52796
1255.49546	0.52763
1253.56689	0.52732
1251.63833	0.52709
1249.70977	0.52697
1247.78120	0.52685
1245.85264	0.52662
1243.92407	0.52622
1241.99551	0.52581
1240.06694	0.52548
1238.13838	0.52512
1236.20981	0.52459
1234.28125	0.52402
1232.35269	0.52357
1230.42412	0.52313
1228.49556	0.52263
1226.56699	0.52205
1224.63843	0.52137
1222.70986	0.52063
1220.78130	0.51994
1218.85273	0.51941
1216.92417	0.51899
1214.99561	0.51857
1213.06704	0.51805
1211.13848	0.51742
1209.20991	0.51678
1207.28135	0.51612
1205.35278	0.51549
1203.42422	0.51498
1201.49565	0.51448
1199.56709	0.51395
1197.63853	0.51341
1195.70996	0.51281
1193.78140	0.51220
1191.85283	0.51165
1189.92427	0.51116
1187.99570	0.51076
1186.06714	0.51046
1184.13857	0.51012
1182.21001	0.50984
1180.28145	0.50980
1178.35288	0.50998
1176.42432	0.51033
1174.49575	0.51077
1172.56719	0.51124
1170.63862	0.51186
1168.71006	0.51251
1166.78149	0.51286
1164.85293	0.51293
1162.92437	0.51291
1160.99580	0.51273
1159.06724	0.51235
1157.13867	0.51175
1155.21011	0.51087
1153.28154	0.50962
1151.35298	0.50803
1149.42441	0.50631
1147.49585	0.50449
1145.56729	0.50240
1143.63872	0.50000
1141.71016	0.49738
1139.78159	0.49481
1137.85303	0.49259
1135.92446	0.49066
1133.99590	0.48879
1132.06733	0.48688
1130.13877	0.48494
1128.21021	0.48326
1126.28164	0.48198
1124.35308	0.48085
1122.42451	0.47973
1120.49595	0.47889
1118.56738	0.47838
1116.63882	0.47804
1114.71025	0.47802
1112.78169	0.47829
1110.85312	0.47863
1108.92456	0.47926
1106.99600	0.48043
1105.06743	0.48183
1103.13887	0.48326
1101.21030	0.48498
1099.28174	0.48712
1097.35317	0.48956
1095.42461	0.49233
1093.49604	0.49576
1091.56748	0.49992
1089.63892	0.50466
1087.71035	0.51000
1085.78179	0.51605
1083.85322	0.52250
1081.92466	0.52870
1079.99609	0.53412
1078.06753	0.53809
1076.13896	0.53977
1074.21040	0.53872
1072.28184	0.53502
1070.35327	0.52932
1068.42471	0.52278
1066.49614	0.51626
1064.56758	0.51012
1062.63901	0.50455
1060.71045	0.49957
1058.78188	0.49516
1056.85332	0.49109
1054.92476	0.48746
1052.99619	0.48461
1051.06763	0.48227
1049.13906	0.48018
1047.21050	0.47840
1045.28193	0.47679
1043.35337	0.47541
1041.42480	0.47431
1039.49624	0.47331
1037.56768	0.47276
1035.63911	0.47284
1033.71055	0.47296
1031.78198	0.47309
1029.85342	0.47349
1027.92485	0.47396
1025.99629	0.47425
1024.06772	0.47468
1022.13916	0.47554
1020.21060	0.47665
1018.28203	0.47774
1016.35347	0.47889
1014.42490	0.48013
1012.49634	0.48134
1010.56777	0.48272
1008.63921	0.48446
1006.71064	0.48642
1004.78208	0.48846
1002.85352	0.49073
1000.92495	0.49346
998.99639	0.49662
997.06782	0.50007
995.13926	0.50378
993.21069	0.50752
991.28213	0.51081
989.35356	0.51356
987.42500	0.51565
985.49644	0.51691
983.56787	0.51776
981.63931	0.51885
979.71074	0.52052
977.78218	0.52271
975.85361	0.52522
973.92505	0.52807
971.99648	0.53130
970.06792	0.53475
968.13936	0.53853
966.21079	0.54286
964.28223	0.54742
962.35366	0.55205
960.42510	0.55714
958.49653	0.56265
956.56797	0.56826
954.63940	0.57415
952.71084	0.58045
950.78228	0.58682
948.85371	0.59326
946.92515	0.59979
944.99658	0.60620
943.06802	0.61229
941.13945	0.61798
939.21089	0.62347
937.28232	0.62883
935.35376	0.63409
933.42520	0.63996
931.49663	0.64628
929.56807	0.65202
927.63950	0.65759
925.71094	0.66362
923.78237	0.66969
921.85381	0.67612
919.92524	0.68323
917.99668	0.69026
916.06812	0.69691
914.13955	0.70385
912.21099	0.71179
910.28242	0.72107
908.35386	0.73065
906.42529	0.73906
904.49673	0.74729
902.56816	0.75674
900.63960	0.76664
898.71104	0.77634
896.78247	0.78592
894.85391	0.79548
892.92534	0.80566
890.99678	0.81623
889.06821	0.82635
887.13965	0.83577
885.21108	0.84531
883.28252	0.85654
881.35396	0.86903
879.42539	0.88162
877.49683	0.89423
875.56826	0.90637
873.63970	0.91795
871.71113	0.92953
869.78257	0.94042
867.85400	0.95072
865.92544	0.96205
863.99687	0.97415
862.06831	0.98553
860.13975	0.99552
858.21118	1.00474
856.28262	1.01401
854.35405	1.02394
852.42549	1.03569
850.49692	1.04956
848.56836	1.06387
846.63979	1.07720
844.71123	1.09088
842.78267	1.10466
840.85410	1.11461
838.92554	1.12198
836.99697	1.13260
835.06841	1.14562
833.13984	1.15873
831.21128	1.17228
829.28271	1.18343
827.35415	1.19150
825.42559	1.19863
823.49702	1.20963
821.56846	1.22655
819.63989	1.23969
817.71133	1.24429
815.78276	1.25315
813.85420	1.27288
811.92563	1.28807
809.99707	1.28753
808.06851	1.28938
806.13994	1.30926
804.21138	1.33768
802.28281	1.36885
800.35425	1.39399
798.42568	1.39839
796.49712	1.39656
794.56855	1.39553
792.63999	1.39276
790.71143	1.41060
788.78286	1.47550
786.85430	1.54961
784.92573	1.52885
782.99717	1.47930
781.06860	1.51861
779.14004	1.64393
777.21147	1.75750
775.28291	1.69283
773.35435	1.58930
771.42578	1.57944
769.49722	1.56705
767.56865	1.58082
765.64009	1.58421
763.71152	1.47420
761.78296	1.40767
759.85439	1.42465
757.92583	1.35768
755.99727	1.25629
754.06870	1.23336
752.14014	1.26664
750.21157	1.28428
748.28301	1.28911
746.35444	1.25700
744.42588	1.13430
742.49731	1.04694
740.56875	0.99608
738.64019	0.88491
736.71162	0.77888
734.78306	0.77317
732.85449	0.83151
730.92593	0.80735
728.99736	0.74305
727.06880	0.65336
725.14023	0.48001
723.21167	0.37550
721.28311	0.41188
719.35454	0.62337
717.42598	1.17926
715.49741	1.33501
713.56885	0.20903
711.64028	-0.08904
709.71172	-0.25015
707.78315	-0.51630
705.85459	-0.27936
703.92603	0.41295
701.99746	0.37342
700.06890	0.21305
698.14033	0.14232
696.21177	0.21548
694.28320	0.37722
692.35464	0.45705
690.42607	0.38298
688.49751	0.22566
686.56895	0.14114
684.64038	0.18608
682.71182	0.25524
680.78325	0.28115
678.85469	0.27806
676.92612	0.28752
674.99756	0.32952
673.06899	0.36532
671.14043	0.39512
669.21187	0.45407
667.28330	0.46565
665.35474	0.41610
663.42617	0.34549
661.49761	0.31683
659.56904	0.33170
657.64048	0.28979
655.71191	0.26110
653.78335	0.29416
651.85479	0.30620
649.92622	0.25677
647.99766	0.21004
646.06909	0.18517
644.14053	0.14900
642.21196	0.13428
640.28340	0.19622
638.35483	0.26656
636.42627	0.30232
634.49771	0.39377
632.56914	0.59102
630.64058	0.61831
628.71201	0.33818
626.78345	0.17819
624.85488	0.10072
622.92632	0.10590
620.99775	0.21102
619.06919	0.39915
617.14062	0.35636
615.21206	0.25708
613.28350	0.26871
611.35493	0.31889
609.42637	0.33623
607.49780	0.33212
605.56924	0.30465
603.64067	0.25528
601.71211	0.23637
599.78354	0.25783
597.85498	0.31546
595.92642	0.37950
593.99785	0.34894
592.06929	0.27410
590.14072	0.25949
588.21216	0.28792
586.28359	0.30132
584.35503	0.27612
582.42646	0.19772
580.49790	0.13402
578.56934	0.15065
576.64077	0.20395
574.71221	0.22467
572.78364	0.18804
570.85508	0.18236
568.92651	0.24275
566.99795	0.27272
565.06938	0.21656
563.14082	0.17932
561.21226	0.23026
559.28369	0.34137
557.35513	0.40014
555.42656	0.32990
553.49800	0.23851
551.56943	0.21148
549.64087	0.21139
547.71230	0.17263
545.78374	0.14153
543.85518	0.15681
541.92661	0.21421
539.99805	0.28205
538.06948	0.27039
536.14092	0.20473
534.21235	0.16432
532.28379	0.17582
530.35522	0.21003
528.42666	0.22991
526.49810	0.23174
524.56953	0.20564
522.64097	0.17699
520.71240	0.19270
518.78384	0.24286
516.85527	0.26015
514.92671	0.19078
512.99814	0.10164
511.06958	0.04721
509.14102	0.04763
507.21245	0.08613
505.28389	0.11577
503.35532	0.12777
501.42676	0.12599
499.49819	0.12180
