3997.91411	0.06061
3995.98555	0.06153
3994.05698	0.06176
3992.12842	0.06157
3990.19985	0.06197
3988.27129	0.06285
3986.34272	0.06326
3984.41416	0.06309
3982.48560	0.06304
3980.55703	0.06323
3978.62847	0.06343
3976.69990	0.06377
3974.77134	0.06391
3972.84277	0.06393
3970.91421	0.06451
3968.98564	0.06504
3967.05708	0.06520
3965.12852	0.06548
3963.19995	0.06565
3961.27139	0.06542
3959.34282	0.06506
3957.41426	0.06480
3955.48569	0.06467
3953.55713	0.06460
3951.62856	0.06445
3949.70000	0.06433
3947.77144	0.06452
3945.84287	0.06483
3943.91431	0.06484
3941.98574	0.06458
3940.05718	0.06460
3938.12861	0.06526
3936.20005	0.06589
3934.27148	0.06556
3932.34292	0.06461
3930.41436	0.06404
3928.48579	0.06412
3926.55723	0.06453
3924.62866	0.06478
3922.70010	0.06445
3920.77153	0.06391
3918.84297	0.06367
3916.91440	0.06398
3914.98584	0.06456
3913.05728	0.06476
3911.12871	0.06462
3909.20015	0.06441
3907.27158	0.06386
3905.34302	0.06274
3903.41445	0.06173
3901.48589	0.06157
3899.55732	0.06212
3897.62876	0.06319
3895.70020	0.06396
3893.77163	0.06362
3891.84307	0.06256
3889.91450	0.06212
3887.98594	0.06259
3886.05737	0.06319
3884.12881	0.06344
3882.20024	0.06313
3880.27168	0.06269
3878.34312	0.06297
3876.41455	0.06373
3874.48599	0.06392
3872.55742	0.06372
3870.62886	0.06392
3868.70029	0.06468
3866.77173	0.06514
3864.84316	0.06500
3862.91460	0.06505
3860.98604	0.06566
3859.05747	0.06614
3857.12891	0.06579
3855.20034	0.06465
3853.27178	0.06388
3851.34321	0.06558
3849.41465	0.06768
3847.48608	0.06876
3845.55752	0.06942
3843.62896	0.06964
3841.70039	0.06934
3839.77183	0.06904
3837.84326	0.06942
3835.91470	0.07052
3833.98613	0.07178
3832.05757	0.07299
3830.12900	0.07397
3828.20044	0.07459
3826.27187	0.07502
3824.34331	0.07530
3822.41475	0.07532
3820.48618	0.07576
3818.55762	0.07706
3816.62905	0.07851
3814.70049	0.08041
3812.77192	0.08219
3810.84336	0.08323
3808.91479	0.08392
3806.98623	0.08461
3805.05767	0.08560
3803.12910	0.08642
3801.20054	0.08711
3799.27197	0.08827
3797.34341	0.08953
3795.41484	0.09126
3793.48628	0.09325
3791.55771	0.09479
3789.62915	0.09619
3787.70059	0.09746
3785.77202	0.09853
3783.84346	0.09977
3781.91489	0.10109
3779.98633	0.10239
3778.05776	0.10428
3776.12920	0.10646
3774.20063	0.10826
3772.27207	0.10957
3770.34351	0.11064
3768.41494	0.11220
3766.48638	0.11414
3764.55781	0.11633
3762.62925	0.11846
3760.70068	0.11993
3758.77212	0.12150
3756.84355	0.12375
3754.91499	0.12551
3752.98643	0.12648
3751.05786	0.12801
3749.12930	0.13166
3747.20073	0.13531
3745.27217	0.13804
3743.34360	0.14237
3741.41504	0.14699
3739.48647	0.14966
3737.55791	0.15148
3735.62935	0.15387
3733.70078	0.15868
3731.77222	0.16527
3729.84365	0.17148
3727.91509	0.17659
3725.98652	0.18174
3724.05796	0.18829
3722.12939	0.19580
3720.20083	0.20362
3718.27227	0.21147
3716.34370	0.21941
3714.41514	0.22691
3712.48657	0.23446
3710.55801	0.24535
3708.62944	0.26028
3706.70088	0.27433
3704.77231	0.28656
3702.84375	0.29931
3700.91519	0.31579
3698.98662	0.33488
3697.05806	0.35314
3695.12949	0.37164
3693.20093	0.39047
3691.27236	0.40997
3689.34380	0.43600
3687.41523	0.47197
3685.48667	0.50523
3683.55811	0.53290
3681.62954	0.56115
3679.70098	0.59187
3677.77241	0.62333
3675.84385	0.66101
3673.91528	0.71496
3671.98672	0.75912
3670.05815	0.79720
3668.12959	0.85219
3666.20103	0.90359
3664.27246	0.94550
3662.34390	0.98936
3660.41533	1.03647
3658.48677	1.08265
3656.55820	1.13151
3654.62964	1.18660
3652.70107	1.23176
3650.77251	1.26838
3648.84395	1.32143
3646.91538	1.39434
3644.98682	1.44914
3643.05825	1.48958
3641.12969	1.52999
3639.20112	1.57415
3637.27256	1.61843
3635.34399	1.66110
3633.41543	1.70336
3631.48687	1.74263
3629.55830	1.78163
3627.62974	1.83540
3625.70117	1.88863
3623.77261	1.92394
3621.84404	1.95671
3619.91548	1.99441
3617.98691	2.04065
3616.05835	2.08476
3614.12979	2.12098
3612.20122	2.16016
3610.27266	2.20021
3608.34409	2.24014
3606.41553	2.28347
3604.48696	2.32455
3602.55840	2.36043
3600.62983	2.39792
3598.70127	2.43886
3596.77271	2.47931
3594.84414	2.52026
3592.91558	2.56260
3590.98701	2.60158
3589.05845	2.63672
3587.12988	2.68073
3585.20132	2.73223
3583.27275	2.77537
3581.34419	2.81367
3579.41562	2.85410
3577.48706	2.89752
3575.55850	2.94172
3573.62993	2.98483
3571.70137	3.02419
3569.77280	3.06123
3567.84424	3.10143
3565.91567	3.15476
3563.98711	3.21118
3562.05854	3.25564
3560.12998	3.29704
3558.20142	3.34219
3556.27285	3.38846
3554.34429	3.43192
3552.41572	3.47603
3550.48716	3.52244
3548.55859	3.56906
3546.63003	3.61592
3544.70146	3.66469
3542.77290	3.71284
3540.84434	3.75953
3538.91577	3.80723
3536.98721	3.85356
3535.05864	3.89840
3533.13008	3.94317
3531.20151	3.99005
3529.27295	4.04024
3527.34438	4.09310
3525.41582	4.14400
3523.48726	4.18933
3521.55869	4.23470
3519.63013	4.28243
3517.70156	4.32861
3515.77300	4.37137
3513.84443	4.41398
3511.91587	4.45991
3509.98730	4.51259
3508.05874	4.56903
3506.13018	4.61999
3504.20161	4.66648
3502.27305	4.71632
3500.34448	4.76950
3498.41592	4.81961
3496.48735	4.86596
3494.55879	4.90956
3492.63022	4.95528
3490.70166	5.00422
3488.77310	5.04978
3486.84453	5.09642
3484.91597	5.14867
3482.98740	5.19777
3481.05884	5.24291
3479.13027	5.29050
3477.20171	5.33797
3475.27314	5.38814
3473.34458	5.44531
3471.41602	5.49399
3469.48745	5.53505
3467.55889	5.58689
3465.63032	5.63822
3463.70176	5.67811
3461.77319	5.72202
3459.84463	5.77351
3457.91606	5.82101
3455.98750	5.87060
3454.05894	5.92132
3452.13037	5.96120
3450.20181	5.99451
3448.27324	6.03553
3446.34468	6.09955
3444.41611	6.17267
3442.48755	6.22840
3440.55898	6.26179
3438.63042	6.29655
3436.70186	6.34576
3434.77329	6.39504
3432.84473	6.44748
3430.91616	6.50361
3428.98760	6.54288
3427.05903	6.57722
3425.13047	6.64101
3423.20190	6.69965
3421.27334	6.73168
3419.34478	6.78584
3417.41621	6.87469
3415.48765	6.94189
3413.55908	6.96579
3411.63052	7.01177
3409.70195	7.09615
3407.77339	7.16720
3405.84482	7.18902
3403.91626	7.19398
3401.98770	7.21360
3400.05913	7.23247
3398.13057	7.24159
3396.20200	7.27785
3394.27344	7.35328
3392.34487	7.39649
3390.41631	7.39662
3388.48774	7.39253
3386.55918	7.42015
3384.63062	7.47583
3382.70205	7.53347
3380.77349	7.57981
3378.84492	7.58152
3376.91636	7.58365
3374.98779	7.65023
3373.05923	7.72750
3371.13066	7.73884
3369.20210	7.73389
3367.27354	7.73292
3365.34497	7.74058
3363.41641	7.77131
3361.48784	7.82043
3359.55928	7.89215
3357.63071	7.93035
3355.70215	7.90642
3353.77358	7.85062
3351.84502	7.82546
3349.91646	7.82508
3347.98789	7.83285
3346.05933	7.83072
3344.13076	7.81987
3342.20220	7.85990
3340.27363	7.90577
3338.34507	7.91417
3336.41650	7.88644
3334.48794	7.87375
3332.55937	7.93714
3330.63081	8.04818
3328.70225	8.11520
3326.77368	8.09158
3324.84512	8.02986
3322.91655	8.03568
3320.98799	8.15087
3319.05942	8.22627
3317.13086	8.21770
3315.20229	8.19151
3313.27373	8.11316
3311.34517	8.00136
3309.41660	7.98081
3307.48804	8.06977
3305.55947	8.10909
3303.63091	8.04948
3301.70234	7.97568
3299.77378	8.00247
3297.84521	8.15379
3295.91665	8.30209
3293.98809	8.34224
3292.05952	8.27126
3290.13096	8.13849
3288.20239	8.07502
3286.27383	8.17067
3284.34526	8.32573
3282.41670	8.38651
3280.48813	8.34619
3278.55957	8.29757
3276.63101	8.28353
3274.70244	8.33906
3272.77388	8.41088
3270.84531	8.39723
3268.91675	8.35062
3266.98818	8.27349
3265.05962	8.17234
3263.13105	8.15946
3261.20249	8.25644
3259.27393	8.31825
3257.34536	8.31442
3255.41680	8.33142
3253.48823	8.36385
3251.55967	8.39018
3249.63110	8.35198
3247.70254	8.23945
3245.77397	8.12523
3243.84541	8.06387
3241.91685	8.06499
3239.98828	8.10978
3238.05972	8.14585
3236.13115	8.12453
3234.20259	8.04252
3232.27402	7.91757
3230.34546	7.86671
3228.41689	7.97696
3226.48833	8.13433
3224.55977	8.17024
3222.63120	8.07260
3220.70264	7.97381
3218.77407	7.99404
3216.84551	8.05257
3214.91694	8.01708
3212.98838	7.92207
3211.05981	7.86251
3209.13125	7.86995
3207.20269	7.90974
3205.27412	7.95539
3203.34556	7.95821
3201.41699	7.86830
3199.48843	7.71219
3197.55986	7.55041
3195.63130	7.45502
3193.70273	7.44430
3191.77417	7.46919
3189.84561	7.50971
3187.91704	7.55129
3185.98848	7.53398
3184.05991	7.43772
3182.13135	7.33692
3180.20278	7.31055
3178.27422	7.31811
3176.34565	7.26954
3174.41709	7.16778
3172.48853	7.06654
3170.55996	6.99658
3168.63140	6.96072
3166.70283	6.91580
3164.77427	6.81612
3162.84570	6.71998
3160.91714	6.68617
3158.98857	6.65340
3157.06001	6.56798
3155.13145	6.48084
3153.20288	6.42698
3151.27432	6.39298
3149.34575	6.35254
3147.41719	6.28785
3145.48862	6.22058
3143.56006	6.16187
3141.63149	6.08931
3139.70293	5.99637
3137.77437	5.90938
3135.84580	5.84248
3133.91724	5.77662
3131.98867	5.69856
3130.06011	5.61388
3128.13154	5.53451
3126.20298	5.46932
3124.27441	5.40765
3122.34585	5.33877
3120.41729	5.27222
3118.48872	5.21214
3116.56016	5.15064
3114.63159	5.08138
3112.70303	5.00631
3110.77446	4.92951
3108.84590	4.85378
3106.91733	4.78844
3104.98877	4.73442
3103.06021	4.67595
3101.13164	4.60530
3099.20308	4.53484
3097.27451	4.47187
3095.34595	4.40889
3093.41738	4.34220
3091.48882	4.27659
3089.56025	4.21421
3087.63169	4.15156
3085.70312	4.08910
3083.77456	4.02998
3081.84600	3.97084
3079.91743	3.90831
3077.98887	3.84694
3076.06030	3.78930
3074.13174	3.73294
3072.20317	3.67817
3070.27461	3.62436
3068.34604	3.56947
3066.41748	3.51337
3064.48892	3.45662
3062.56035	3.40069
3060.63179	3.34648
3058.70322	3.29355
3056.77466	3.24154
3054.84609	3.18942
3052.91753	3.13739
3050.98896	3.08710
3049.06040	3.03748
3047.13184	2.98746
3045.20327	2.93763
3043.27471	2.88750
3041.34614	2.83788
3039.41758	2.79105
3037.48901	2.74697
3035.56045	2.70357
3033.63188	2.65910
3031.70332	2.61326
3029.77476	2.56793
3027.84619	2.52473
3025.91763	2.48260
3023.98906	2.44051
3022.06050	2.39902
3020.13193	2.35804
3018.20337	2.31683
3016.27480	2.27580
3014.34624	2.23621
3012.41768	2.19789
3010.48911	2.15977
3008.56055	2.12255
3006.63198	2.08673
3004.70342	2.05159
3002.77485	2.01726
3000.84629	1.98355
2998.91772	1.94993
2996.98916	1.91701
2995.06060	1.88512
2993.13203	1.85384
2991.20347	1.82321
2989.27490	1.79339
2987.34634	1.76431
2985.41777	1.73574
2983.48921	1.70778
2981.56064	1.68030
2979.63208	1.65311
2977.70352	1.62659
2975.77495	1.60059
2973.84639	1.57476
2971.91782	1.54935
2969.98926	1.52463
2968.06069	1.50039
2966.13213	1.47656
2964.20356	1.45310
2962.27500	1.42930
2960.34644	1.40511
2958.41787	1.38100
2956.48931	1.35666
2954.56074	1.33228
2952.63218	1.30834
2950.70361	1.28468
2948.77505	1.26163
2946.84648	1.23947
2944.91792	1.21776
2942.98936	1.19653
2941.06079	1.17555
2939.13223	1.15416
2937.20366	1.13300
2935.27510	1.11264
2933.34653	1.09199
2931.41797	1.07084
2929.48940	1.05015
2927.56084	1.03043
2925.63228	1.01140
2923.70371	0.99247
2921.77515	0.97395
2919.84658	0.95659
2917.91802	0.93982
2915.98945	0.92267
2914.06089	0.90569
2912.13232	0.89001
2910.20376	0.87546
2908.27520	0.86134
2906.34663	0.84762
2904.41807	0.83402
2902.48950	0.81992
2900.56094	0.80569
2898.63237	0.79222
2896.70381	0.77947
2894.77524	0.76697
2892.84668	0.75460
2890.91812	0.74242
2888.98955	0.73073
2887.06099	0.71993
2885.13242	0.70978
2883.20386	0.69974
2881.27529	0.68985
2879.34673	0.68029
2877.41816	0.67072
2875.48960	0.66070
2873.56104	0.65028
2871.63247	0.63962
2869.70391	0.62826
2867.77534	0.61618
2865.84678	0.60397
2863.91821	0.59164
2861.98965	0.57913
2860.06108	0.56710
2858.13252	0.55596
2856.20396	0.54533
2854.27539	0.53487
2852.34683	0.52506
2850.41826	0.51613
2848.48970	0.50751
2846.56113	0.49944
2844.63257	0.49259
2842.70400	0.48644
2840.77544	0.48045
2838.84687	0.47486
2836.91831	0.46951
2834.98975	0.46398
2833.06118	0.45836
2831.13262	0.45262
2829.20405	0.44664
2827.27549	0.44059
2825.34692	0.43459
2823.41836	0.42868
2821.48979	0.42284
2819.56123	0.41695
2817.63267	0.41094
2815.70410	0.40497
2813.77554	0.39919
2811.84697	0.39352
2809.91841	0.38783
2807.98984	0.38223
2806.06128	0.37679
2804.13271	0.37148
2802.20415	0.36630
2800.27559	0.36131
2798.34702	0.35638
2796.41846	0.35131
2794.48989	0.34621
2792.56133	0.34130
2790.63276	0.33664
2788.70420	0.33210
2786.77563	0.32763
2784.84707	0.32315
2782.91851	0.31860
2780.98994	0.31416
2779.06138	0.30996
2777.13281	0.30589
2775.20425	0.30188
2773.27568	0.29796
2771.34712	0.29406
2769.41855	0.29021
2767.48999	0.28650
2765.56143	0.28280
2763.63286	0.27907
2761.70430	0.27554
2759.77573	0.27213
2757.84717	0.26878
2755.91860	0.26561
2753.99004	0.26252
2752.06147	0.25937
2750.13291	0.25622
2748.20435	0.25317
2746.27578	0.25027
2744.34722	0.24746
2742.41865	0.24460
2740.49009	0.24172
2738.56152	0.23893
2736.63296	0.23625
2734.70439	0.23361
2732.77583	0.23092
2730.84727	0.22830
2728.91870	0.22594
2726.99014	0.22374
2725.06157	0.22148
2723.13301	0.21912
2721.20444	0.21680
2719.27588	0.21460
2717.34731	0.21251
2715.41875	0.21054
2713.49019	0.20866
2711.56162	0.20683
2709.63306	0.20500
2707.70449	0.20320
2705.77593	0.20152
2703.84736	0.19991
2701.91880	0.19826
2699.99023	0.19662
2698.06167	0.19500
2696.13311	0.19350
2694.20454	0.19215
2692.27598	0.19072
2690.34741	0.18926
2688.41885	0.18798
2686.49028	0.18677
2684.56172	0.18550
2682.63315	0.18422
2680.70459	0.18289
2678.77603	0.18158
2676.84746	0.18041
2674.91890	0.17931
2672.99033	0.17812
2671.06177	0.17689
2669.13320	0.17574
2667.20464	0.17468
2665.27607	0.17364
2663.34751	0.17254
2661.41895	0.17145
2659.49038	0.17057
2657.56182	0.16991
2655.63325	0.16922
2653.70469	0.16837
2651.77612	0.16752
2649.84756	0.16676
2647.91899	0.16606
2645.99043	0.16553
2644.06187	0.16508
2642.13330	0.16447
2640.20474	0.16378
2638.27617	0.16312
2636.34761	0.16241
2634.41904	0.16175
2632.49048	0.16128
2630.56191	0.16088
2628.63335	0.16047
2626.70479	0.16016
2624.77622	0.15987
2622.84766	0.15945
2620.91909	0.15907
2618.99053	0.15881
2617.06196	0.15853
2615.13340	0.15814
2613.20483	0.15773
2611.27627	0.15752
2609.34771	0.15743
2607.41914	0.15730
2605.49058	0.15719
2603.56201	0.15716
2601.63345	0.15716
2599.70488	0.15707
2597.77632	0.15684
2595.84775	0.15664
2593.91919	0.15677
2591.99062	0.15717
2590.06206	0.15748
2588.13350	0.15756
2586.20493	0.15750
2584.27637	0.15757
2582.34780	0.15776
2580.41924	0.15792
2578.49067	0.15815
2576.56211	0.15841
2574.63354	0.15855
2572.70498	0.15864
2570.77642	0.15880
2568.84785	0.15915
2566.91929	0.15966
2564.99072	0.16016
2563.06216	0.16059
2561.13359	0.16097
2559.20503	0.16128
2557.27646	0.16166
2555.34790	0.16222
2553.41934	0.16271
2551.49077	0.16300
2549.56221	0.16324
2547.63364	0.16363
2545.70508	0.16425
2543.77651	0.16492
2541.84795	0.16547
2539.91938	0.16600
2537.99082	0.16669
2536.06226	0.16737
2534.13369	0.16787
2532.20513	0.16838
2530.27656	0.16900
2528.34800	0.16964
2526.41943	0.17028
2524.49087	0.17109
2522.56230	0.17190
2520.63374	0.17256
2518.70518	0.17322
2516.77661	0.17395
2514.84805	0.17468
2512.91948	0.17539
2510.99092	0.17611
2509.06235	0.17687
2507.13379	0.17768
2505.20522	0.17854
2503.27666	0.17932
2501.34810	0.18002
2499.41953	0.18086
2497.49097	0.18181
2495.56240	0.18264
2493.63384	0.18337
2491.70527	0.18413
2489.77671	0.18496
2487.84814	0.18578
2485.91958	0.18657
2483.99102	0.18735
2482.06245	0.18818
2480.13389	0.18905
2478.20532	0.18995
2476.27676	0.19080
2474.34819	0.19151
2472.41963	0.19219
2470.49106	0.19301
2468.56250	0.19399
2466.63394	0.19498
2464.70537	0.19580
2462.77681	0.19657
2460.84824	0.19744
2458.91968	0.19844
2456.99111	0.19951
2455.06255	0.20048
2453.13398	0.20136
2451.20542	0.20224
2449.27686	0.20315
2447.34829	0.20415
2445.41973	0.20512
2443.49116	0.20598
2441.56260	0.20691
2439.63403	0.20794
2437.70547	0.20890
2435.77690	0.20979
2433.84834	0.21074
2431.91978	0.21176
2429.99121	0.21286
2428.06265	0.21403
2426.13408	0.21522
2424.20552	0.21630
2422.27695	0.21729
2420.34839	0.21829
2418.41982	0.21940
2416.49126	0.22056
2414.56270	0.22166
2412.63413	0.22270
2410.70557	0.22380
2408.77700	0.22504
2406.84844	0.22623
2404.91987	0.22731
2402.99131	0.22837
2401.06274	0.22952
2399.13418	0.23080
2397.20562	0.23209
2395.27705	0.23327
2393.34849	0.23444
2391.41992	0.23570
2389.49136	0.23691
2387.56279	0.23798
2385.63423	0.23884
2383.70566	0.23949
2381.77710	0.24005
2379.84854	0.24054
2377.91997	0.24091
2375.99141	0.24121
2374.06284	0.24126
2372.13428	0.24083
2370.20571	0.24045
2368.27715	0.24016
2366.34858	0.23972
2364.42002	0.23944
2362.49146	0.23897
2360.56289	0.23893
2358.63433	0.24074
2356.70576	0.24387
2354.77720	0.24787
2352.84863	0.25256
2350.92007	0.25655
2348.99150	0.25883
2347.06294	0.25963
2345.13437	0.25944
2343.20581	0.25920
2341.27725	0.26042
2339.34868	0.26252
2337.42012	0.26431
2335.49155	0.26616
2333.56299	0.26809
2331.63442	0.27014
2329.70586	0.27236
2327.77729	0.27449
2325.84873	0.27676
2323.92017	0.27930
2321.99160	0.28185
2320.06304	0.28435
2318.13447	0.28683
2316.20591	0.28921
2314.27734	0.29160
2312.34878	0.29395
2310.42021	0.29618
2308.49165	0.29840
2306.56309	0.30080
2304.63452	0.30323
2302.70596	0.30529
2300.77739	0.30710
2298.84883	0.30900
2296.92026	0.31105
2294.99170	0.31317
2293.06313	0.31539
2291.13457	0.31764
2289.20601	0.31985
2287.27744	0.32206
2285.34888	0.32419
2283.42031	0.32628
2281.49175	0.32833
2279.56318	0.33029
2277.63462	0.33225
2275.70605	0.33433
2273.77749	0.33643
2271.84893	0.33839
2269.92036	0.34036
2267.99180	0.34247
2266.06323	0.34455
2264.13467	0.34666
2262.20610	0.34898
2260.27754	0.35136
2258.34897	0.35363
2256.42041	0.35586
2254.49185	0.35812
2252.56328	0.36035
2250.63472	0.36256
2248.70615	0.36474
2246.77759	0.36681
2244.84902	0.36896
2242.92046	0.37136
2240.99189	0.37376
2239.06333	0.37597
2237.13477	0.37816
2235.20620	0.38041
2233.27764	0.38266
2231.34907	0.38489
2229.42051	0.38713
2227.49194	0.38935
2225.56338	0.39159
2223.63481	0.39384
2221.70625	0.39605
2219.77769	0.39818
2217.84912	0.40027
2215.92056	0.40243
2213.99199	0.40469
2212.06343	0.40689
2210.13486	0.40890
2208.20630	0.41089
2206.27773	0.41303
2204.34917	0.41522
2202.42061	0.41742
2200.49204	0.41958
2198.56348	0.42162
2196.63491	0.42362
2194.70635	0.42568
2192.77778	0.42768
2190.84922	0.42950
2188.92065	0.43116
2186.99209	0.43277
2185.06353	0.43448
2183.13496	0.43632
2181.20640	0.43815
2179.27783	0.43979
2177.34927	0.44133
2175.42070	0.44285
2173.49214	0.44440
2171.56357	0.44596
2169.63501	0.44739
2167.70645	0.44868
2165.77788	0.44989
2163.84932	0.45105
2161.92075	0.45218
2159.99219	0.45335
2158.06362	0.45446
2156.13506	0.45550
2154.20649	0.45642
2152.27793	0.45713
2150.34937	0.45784
2148.42080	0.45872
2146.49224	0.45949
2144.56367	0.45991
2142.63511	0.46020
2140.70654	0.46055
2138.77798	0.46081
2136.84941	0.46095
2134.92085	0.46105
2132.99229	0.46109
2131.06372	0.46108
2129.13516	0.46098
2127.20659	0.46074
2125.27803	0.46041
2123.34946	0.45999
2121.42090	0.45954
2119.49233	0.45899
2117.56377	0.45831
2115.63521	0.45760
2113.70664	0.45689
2111.77808	0.45603
2109.84951	0.45503
2107.92095	0.45410
2105.99238	0.45313
2104.06382	0.45194
2102.13525	0.45062
2100.20669	0.44932
2098.27812	0.44798
2096.34956	0.44646
2094.42100	0.44483
2092.49243	0.44319
2090.56387	0.44149
2088.63530	0.43972
2086.70674	0.43797
2084.77817	0.43622
2082.84961	0.43432
2080.92104	0.43229
2078.99248	0.43026
2077.06392	0.42822
2075.13535	0.42608
2073.20679	0.42383
2071.27822	0.42145
2069.34966	0.41907
2067.42109	0.41675
2065.49253	0.41446
2063.56396	0.41210
2061.63540	0.40973
2059.70684	0.40734
2057.77827	0.40492
2055.84971	0.40237
2053.92114	0.39966
2051.99258	0.39694
2050.06401	0.39425
2048.13545	0.39154
2046.20688	0.38885
2044.27832	0.38615
2042.34976	0.38337
2040.42119	0.38058
2038.49263	0.37793
2036.56406	0.37527
2034.63550	0.37253
2032.70693	0.36978
2030.77837	0.36704
2028.84980	0.36424
2026.92124	0.36141
2024.99268	0.35863
2023.06411	0.35586
2021.13555	0.35305
2019.20698	0.35023
2017.27842	0.34738
2015.34985	0.34454
2013.42129	0.34180
2011.49272	0.33909
2009.56416	0.33641
2007.63560	0.33376
2005.70703	0.33107
2003.77847	0.32830
2001.84990	0.32552
1999.92134	0.32282
1997.99277	0.32017
1996.06421	0.31762
1994.13564	0.31506
1992.20708	0.31241
1990.27852	0.30988
1988.34995	0.30758
1986.42139	0.30521
1984.49282	0.30274
1982.56426	0.30032
1980.63569	0.29804
1978.70713	0.29583
1976.77856	0.29349
1974.85000	0.29106
1972.92144	0.28876
1970.99287	0.28668
1969.06431	0.28469
1967.13574	0.28264
1965.20718	0.28058
1963.27861	0.27859
1961.35005	0.27666
1959.42148	0.27476
1957.49292	0.27294
1955.56436	0.27114
1953.63579	0.26937
1951.70723	0.26766
1949.77866	0.26601
1947.85010	0.26433
1945.92153	0.26264
1943.99297	0.26102
1942.06440	0.25956
1940.13584	0.25822
1938.20728	0.25684
1936.27871	0.25547
1934.35015	0.25414
1932.42158	0.25282
1930.49302	0.25156
1928.56445	0.25039
1926.63589	0.24925
1924.70732	0.24803
1922.77876	0.24683
1920.85020	0.24585
1918.92163	0.24495
1916.99307	0.24408
1915.06450	0.24331
1913.13594	0.24255
1911.20737	0.24183
1909.27881	0.24114
1907.35024	0.24046
1905.42168	0.23979
1903.49312	0.23920
1901.56455	0.23876
1899.63599	0.23836
1897.70742	0.23788
1895.77886	0.23730
1893.85029	0.23683
1891.92173	0.23641
1889.99316	0.23607
1888.06460	0.23589
1886.13604	0.23580
1884.20747	0.23565
1882.27891	0.23544
1880.35034	0.23523
1878.42178	0.23511
1876.49321	0.23510
1874.56465	0.23510
1872.63608	0.23509
1870.70752	0.23493
1868.77896	0.23485
1866.85039	0.23517
1864.92183	0.23559
1862.99326	0.23592
1861.06470	0.23629
1859.13613	0.23674
1857.20757	0.23713
1855.27900	0.23754
1853.35044	0.23797
1851.42187	0.23846
1849.49331	0.23888
1847.56475	0.23920
1845.63618	0.23960
1843.70762	0.24049
1841.77905	0.24173
1839.85049	0.24256
1837.92192	0.24334
1835.99336	0.24430
1834.06479	0.24531
1832.13623	0.24608
1830.20767	0.24705
1828.27910	0.24846
1826.35054	0.24971
1824.42197	0.25111
1822.49341	0.25270
1820.56484	0.25416
1818.63628	0.25556
1816.70771	0.25717
1814.77915	0.25873
1812.85059	0.26026
1810.92202	0.26207
1808.99346	0.26412
1807.06489	0.26615
1805.13633	0.26804
1803.20776	0.26998
1801.27920	0.27216
1799.35063	0.27495
1797.42207	0.27769
1795.49351	0.28005
1793.56494	0.28243
1791.63638	0.28586
1789.70781	0.28991
1787.77925	0.29303
1785.85068	0.29616
1783.92212	0.29973
1781.99355	0.30348
1780.06499	0.30755
1778.13643	0.31186
1776.20786	0.31567
1774.27930	0.31932
1772.35073	0.32451
1770.42217	0.33112
1768.49360	0.33711
1766.56504	0.34271
1764.63647	0.34808
1762.70791	0.35364
1760.77935	0.36096
1758.85078	0.36807
1756.92222	0.37506
1754.99365	0.38272
1753.06509	0.38943
1751.13652	0.39685
1749.20796	0.40653
1747.27939	0.41697
1745.35083	0.42632
1743.42227	0.43583
1741.49370	0.44615
1739.56514	0.45842
1737.63657	0.47070
1735.70801	0.48094
1733.77944	0.49668
1731.85088	0.51700
1729.92231	0.53340
1727.99375	0.54984
1726.06519	0.56700
1724.13662	0.58528
1722.20806	0.60491
1720.27949	0.62251
1718.35093	0.64245
1716.42236	0.67386
1714.49380	0.70588
1712.56523	0.73192
1710.63667	0.75639
1708.70811	0.78185
1706.77954	0.81049
1704.85098	0.84557
1702.92241	0.87706
1700.99385	0.90711
1699.06528	0.95286
1697.13672	0.99657
1695.20815	1.04263
1693.27959	1.08727
1691.35103	1.12244
1689.42246	1.16319
1687.49390	1.20640
1685.56533	1.24688
1683.63677	1.31200
1681.70820	1.38314
1679.77964	1.42693
1677.85107	1.46719
1675.92251	1.51313
1673.99395	1.57230
1672.06538	1.62658
1670.13682	1.67990
1668.20825	1.75146
1666.27969	1.80976
1664.35112	1.85974
1662.42256	1.92504
1660.49399	2.00097
1658.56543	2.05848
1656.63687	2.10284
1654.70830	2.13995
1652.77974	2.19873
1650.85117	2.26215
1648.92261	2.28361
1646.99404	2.30703
1645.06548	2.33230
1643.13691	2.35121
1641.20835	2.35908
1639.27979	2.36435
1637.35122	2.36741
1635.42266	2.36581
1633.49409	2.35546
1631.56553	2.33883
1629.63696	2.32100
1627.70840	2.29175
1625.77983	2.25679
1623.85127	2.21042
1621.92271	2.15347
1619.99414	2.10437
1618.06558	2.05702
1616.13701	1.98942
1614.20845	1.92300
1612.27988	1.87406
1610.35132	1.82215
1608.42275	1.76471
1606.49419	1.70742
1604.56562	1.65504
1602.63706	1.60519
1600.70850	1.55750
1598.77993	1.51442
1596.85137	1.47378
1594.92280	1.43365
1592.99424	1.39494
1591.06567	1.36033
1589.13711	1.32888
1587.20854	1.30033
1585.27998	1.27416
1583.35142	1.24989
1581.42285	1.22811
1579.49429	1.20987
1577.56572	1.19370
1575.63716	1.17483
1573.70859	1.15967
1571.78003	1.15006
1569.85146	1.14061
1567.92290	1.13190
1565.99434	1.12643
1564.06577	1.12306
1562.13721	1.12099
1560.20864	1.12041
1558.28008	1.12565
1556.35151	1.13491
1554.42295	1.14042
1552.49438	1.14506
1550.56582	1.14754
1548.63726	1.14705
1546.70869	1.14300
1544.78013	1.13409
1542.85156	1.12036
1540.92300	1.09901
1538.99443	1.06602
1537.06587	1.04354
1535.13730	1.02787
1533.20874	1.00559
1531.28018	0.98215
1529.35161	0.96541
1527.42305	0.94899
1525.49448	0.93181
1523.56592	0.91754
1521.63735	0.90437
1519.70879	0.89166
1517.78022	0.88089
1515.85166	0.86823
1513.92310	0.85519
1511.99453	0.84317
1510.06597	0.83122
1508.13740	0.81862
1506.20884	0.80061
1504.28027	0.78791
1502.35171	0.78097
1500.42314	0.77400
1498.49458	0.76602
1496.56602	0.75690
1494.63745	0.74863
1492.70889	0.74222
1490.78032	0.73575
1488.85176	0.72826
1486.92319	0.72233
1484.99463	0.71826
1483.06606	0.71501
1481.13750	0.71213
1479.20894	0.70989
1477.28037	0.70866
1475.35181	0.70817
1473.42324	0.70808
1471.49468	0.70788
1469.56611	0.70681
1467.63755	0.70490
1465.70898	0.70290
1463.78042	0.70168
1461.85186	0.70128
1459.92329	0.70100
1457.99473	0.70097
1456.06616	0.70157
1454.13760	0.70104
1452.20903	0.69931
1450.28047	0.69705
1448.35190	0.69458
1446.42334	0.69203
1444.49478	0.68966
1442.56621	0.68733
1440.63765	0.68473
1438.70908	0.68167
1436.78052	0.67774
1434.85195	0.67379
1432.92339	0.67111
1430.99482	0.66941
1429.06626	0.66876
1427.13770	0.66898
1425.20913	0.66961
1423.28057	0.67071
1421.35200	0.67170
1419.42344	0.67229
1417.49487	0.67271
1415.56631	0.67258
1413.63774	0.67236
1411.70918	0.67279
1409.78062	0.67409
1407.85205	0.67588
1405.92349	0.67787
1403.99492	0.67968
1402.06636	0.68037
1400.13779	0.67974
1398.20923	0.67795
1396.28066	0.67505
1394.35210	0.67093
1392.42354	0.66629
1390.49497	0.66181
1388.56641	0.65680
1386.63784	0.65091
1384.70928	0.64509
1382.78071	0.63969
1380.85215	0.63439
1378.92358	0.62969
1376.99502	0.62608
1375.06646	0.62359
1373.13789	0.62223
1371.20933	0.62162
1369.28076	0.62108
1367.35220	0.62022
1365.42363	0.61874
1363.49507	0.61676
1361.56650	0.61495
1359.63794	0.61348
1357.70937	0.61206
1355.78081	0.61081
1353.85225	0.60981
1351.92368	0.60890
1349.99512	0.60807
1348.06655	0.60730
1346.13799	0.60642
1344.20942	0.60552
1342.28086	0.60471
1340.35229	0.60392
1338.42373	0.60315
1336.49517	0.60263
1334.56660	0.60245
1332.63804	0.60259
1330.70947	0.60301
1328.78091	0.60364
1326.85234	0.60448
1324.92378	0.60548
1322.99521	0.60657
1321.06665	0.60756
1319.13809	0.60830
1317.20952	0.60877
1315.28096	0.60899
1313.35239	0.60896
1311.42383	0.60868
1309.49526	0.60812
1307.56670	0.60743
1305.63813	0.60679
1303.70957	0.60621
1301.78101	0.60554
1299.85244	0.60450
1297.92388	0.60315
1295.99531	0.60180
1294.06675	0.60051
1292.13818	0.59919
1290.20962	0.59782
1288.28105	0.59623
1286.35249	0.59441
1284.42393	0.59277
1282.49536	0.59145
1280.56680	0.59015
1278.63823	0.58862
1276.70967	0.58695
1274.78110	0.58544
1272.85254	0.58425
1270.92397	0.58341
1268.99541	0.58269
1267.06685	0.58183
1265.13828	0.58087
1263.20972	0.58001
1261.28115	0.57920
1259.35259	0.57836
1257.42402	0.57763
1255.49546	0.57723
1253.56689	0.57722
1251.63833	0.57751
1249.70977	0.57797
1247.78120	0.57834
1245.85264	0.57830
1243.92407	0.57770
1241.99551	0.57658
1240.06694	0.57502
1238.13838	0.57318
1236.20981	0.57098
1234.28125	0.56827
1232.35269	0.56533
1230.42412	0.56262
1228.49556	0.56027
1226.56699	0.55810
1224.63843	0.55599
1222.70986	0.55400
1220.78130	0.55215
1218.85273	0.55043
1216.92417	0.54891
1214.99561	0.54769
1213.06704	0.54674
1211.13848	0.54594
1209.20991	0.54529
1207.28135	0.54460
1205.35278	0.54364
1203.42422	0.54261
1201.49565	0.54166
1199.56709	0.54053
1197.63853	0.53926
1195.70996	0.53829
1193.78140	0.53773
1191.85283	0.53726
1189.92427	0.53676
1187.99570	0.53636
1186.06714	0.53614
1184.13857	0.53609
1182.21001	0.53636
1180.28145	0.53710
1178.35288	0.53829
1176.42432	0.53980
1174.49575	0.54126
1172.56719	0.54230
1170.63862	0.54271
1168.71006	0.54263
1166.78149	0.54237
1164.85293	0.54203
1162.92437	0.54168
1160.99580	0.54139
1159.06724	0.54105
1157.13867	0.54044
1155.21011	0.53958
1153.28154	0.53845
1151.35298	0.53674
1149.42441	0.53438
1147.49585	0.53177
1145.56729	0.52916
1143.63872	0.52664
1141.71016	0.52433
1139.78159	0.52238
1137.85303	0.52103
1135.92446	0.52036
1133.99590	0.52018
1132.06733	0.52031
1130.13877	0.52059
1128.21021	0.52065
1126.28164	0.52025
1124.35308	0.51966
1122.42451	0.51924
1120.49595	0.51906
1118.56738	0.51919
1116.63882	0.51961
1114.71025	0.52017
1112.78169	0.52076
1110.85312	0.52137
1108.92456	0.52212
1106.99600	0.52304
1105.06743	0.52396
1103.13887	0.52488
1101.21030	0.52606
1099.28174	0.52770
1097.35317	0.52987
1095.42461	0.53270
1093.49604	0.53638
1091.56748	0.54106
1089.63892	0.54675
1087.71035	0.55348
1085.78179	0.56130
1083.85322	0.56953
1081.92466	0.57678
1079.99609	0.58173
1078.06753	0.58395
1076.13896	0.58352
1074.21040	0.58038
1072.28184	0.57498
1070.35327	0.56834
1068.42471	0.56119
1066.49614	0.55406
1064.56758	0.54767
1062.63901	0.54237
1060.71045	0.53782
1058.78188	0.53347
1056.85332	0.52929
1054.92476	0.52565
1052.99619	0.52263
1051.06763	0.52022
1049.13906	0.51841
1047.21050	0.51709
1045.28193	0.51615
1043.35337	0.51550
1041.42480	0.51512
1039.49624	0.51476
1037.56768	0.51418
1035.63911	0.51358
1033.71055	0.51310
1031.78198	0.51231
1029.85342	0.51092
1027.92485	0.50928
1025.99629	0.50786
1024.06772	0.50682
1022.13916	0.50617
1020.21060	0.50580
1018.28203	0.50556
1016.35347	0.50542
1014.42490	0.50527
1012.49634	0.50506
1010.56777	0.50504
1008.63921	0.50536
1006.71064	0.50602
1004.78208	0.50713
1002.85352	0.50894
1000.92495	0.51156
998.99639	0.51478
997.06782	0.51857
995.13926	0.52298
993.21069	0.52754
991.28213	0.53123
989.35356	0.53347
987.42500	0.53427
985.49644	0.53403
983.56787	0.53361
981.63931	0.53377
979.71074	0.53465
977.78218	0.53618
975.85361	0.53815
973.92505	0.54034
971.99648	0.54292
970.06792	0.54608
968.13936	0.54966
966.21079	0.55359
964.28223	0.55784
962.35366	0.56227
960.42510	0.56710
958.49653	0.57259
956.56797	0.57844
954.63940	0.58441
952.71084	0.59067
950.78228	0.59712
948.85371	0.60325
946.92515	0.60900
944.99658	0.61495
943.06802	0.62149
941.13945	0.62787
939.21089	0.63358
937.28232	0.63918
935.35376	0.64489
933.42520	0.65046
931.49663	0.65594
929.56807	0.66156
927.63950	0.66744
925.71094	0.67376
923.78237	0.68031
921.85381	0.68657
919.92524	0.69281
917.99668	0.69997
916.06812	0.70816
914.13955	0.71607
912.21099	0.72337
910.28242	0.73097
908.35386	0.73895
906.42529	0.74724
904.49673	0.75570
902.56816	0.76444
900.63960	0.77457
898.71104	0.78553
896.78247	0.79511
894.85391	0.80332
892.92534	0.81259
890.99678	0.82350
889.06821	0.83405
887.13965	0.84415
885.21108	0.85539
883.28252	0.86765
881.35396	0.87928
879.42539	0.88957
877.49683	0.90041
875.56826	0.91316
873.63970	0.92540
871.71113	0.93561
869.78257	0.94711
867.85400	0.96041
865.92544	0.97252
863.99687	0.98434
862.06831	0.99650
860.13975	1.00792
858.21118	1.01958
856.28262	1.03173
854.35405	1.04332
852.42549	1.05374
850.49692	1.06369
848.56836	1.07481
846.63979	1.08747
844.71123	1.10028
842.78267	1.11189
840.85410	1.12345
838.92554	1.13638
836.99697	1.14850
835.06841	1.15787
833.13984	1.16734
831.21128	1.17833
829.28271	1.18925
827.35415	1.19995
825.42559	1.20944
823.49702	1.21984
821.56846	1.23370
819.63989	1.24502
817.71133	1.25205
815.78276	1.26348
813.85420	1.27680
811.92563	1.28466
809.99707	1.29399
808.06851	1.30869
806.13994	1.32501
804.21138	1.34533
802.28281	1.36785
800.35425	1.37163
798.42568	1.36483
796.49712	1.38039
794.56855	1.40610
792.63999	1.41499
790.71143	1.41254
788.78286	1.42471
786.85430	1.48237
784.92573	1.55259
782.99717	1.51433
781.06860	1.43698
779.14004	1.42041
777.21147	1.42392
775.28291	1.41349
773.35435	1.42408
771.42578	1.45364
769.49722	1.40886
767.56865	1.32894
765.64009	1.34493
763.71152	1.54665
761.78296	2.01742
759.85439	1.68073
757.92583	1.36375
755.99727	1.31183
754.06870	1.28661
752.14014	1.17583
750.21157	1.14156
748.28301	1.22055
746.35444	1.30096
744.42588	1.20826
742.49731	1.05303
740.56875	0.98121
738.64019	1.03041
736.71162	1.10828
734.78306	0.96222
732.85449	0.70270
730.92593	0.51650
728.99736	0.45081
727.06880	0.48211
725.14023	0.45257
723.21167	0.34700
721.28311	0.33872
719.35454	0.71534
717.42598	0.74940
715.49741	0.37327
713.56885	0.25498
711.64028	0.25460
709.71172	0.31898
707.78315	0.36071
705.85459	0.39717
703.92603	0.41109
701.99746	0.32832
700.06890	0.21166
698.14033	0.19680
696.21177	0.29911
694.28320	0.39901
692.35464	0.43200
690.42607	0.53432
688.49751	0.60794
686.56895	0.46547
684.64038	0.38686
682.71182	0.43235
680.78325	0.53788
678.85469	0.63325
676.92612	0.56176
674.99756	0.45817
673.06899	0.55921
671.14043	0.99719
669.21187	0.68017
667.28330	0.39435
665.35474	0.33401
663.42617	0.33938
661.49761	0.29683
659.56904	0.34057
657.64048	1.08709
655.71191	3.93427
653.78335	0.60570
651.85479	0.30531
649.92622	0.40414
647.99766	0.69984
646.06909	0.55331
644.14053	0.36064
642.21196	0.32073
640.28340	0.34267
638.35483	0.42486
636.42627	0.47844
634.49771	0.39611
632.56914	0.32806
630.64058	0.32243
628.71201	0.34877
626.78345	0.34700
624.85488	0.27911
622.92632	0.24325
620.99775	0.27733
619.06919	0.30618
617.14062	0.32442
615.21206	0.40315
613.28350	0.45969
611.35493	0.45293
609.42637	0.45146
607.49780	0.38422
605.56924	0.32117
603.64067	0.32541
601.71211	0.33730
599.78354	0.28581
597.85498	0.23799
595.92642	0.24017
593.99785	0.25247
592.06929	0.27630
590.14072	0.32377
588.21216	0.33182
586.28359	0.27613
584.35503	0.21203
582.42646	0.19293
580.49790	0.22743
578.56934	0.26612
576.64077	0.24320
574.71221	0.19804
572.78364	0.24185
570.85508	0.34415
568.92651	0.28823
566.99795	0.17406
565.06938	0.18150
563.14082	0.28388
561.21226	0.33007
559.28369	0.26527
557.35513	0.19741
555.42656	0.16753
553.49800	0.18646
551.56943	0.24134
549.64087	0.27279
547.71230	0.28404
545.78374	0.29812
543.85518	0.29047
541.92661	0.31505
539.99805	0.32458
538.06948	0.24268
536.14092	0.17410
534.21235	0.16399
532.28379	0.18894
530.35522	0.23195
528.42666	0.26330
526.49810	0.24488
524.56953	0.24004
522.64097	0.33318
520.71240	0.47592
518.78384	0.43940
516.85527	0.34878
514.92671	0.31991
512.99814	0.34232
511.06958	0.35233
509.14102	0.32466
507.21245	0.29674
505.28389	0.29022
503.35532	0.32524
501.42676	0.31931
499.49819	0.24331
