3997.91411	0.07313
3995.98555	0.07400
3994.05698	0.07484
3992.12842	0.07542
3990.19985	0.07595
3988.27129	0.07631
3986.34272	0.07627
3984.41416	0.07618
3982.48560	0.07635
3980.55703	0.07667
3978.62847	0.07696
3976.69990	0.07734
3974.77134	0.07794
3972.84277	0.07831
3970.91421	0.07817
3968.98564	0.07793
3967.05708	0.07795
3965.12852	0.07815
3963.19995	0.07840
3961.27139	0.07871
3959.34282	0.07925
3957.41426	0.07984
3955.48569	0.07983
3953.55713	0.07933
3951.62856	0.07920
3949.70000	0.07984
3947.77144	0.08069
3945.84287	0.08093
3943.91431	0.08109
3941.98574	0.08135
3940.05718	0.08052
3938.12861	0.07923
3936.20005	0.07885
3934.27148	0.07959
3932.34292	0.08099
3930.41436	0.08179
3928.48579	0.08123
3926.55723	0.08069
3924.62866	0.08136
3922.70010	0.08181
3920.77153	0.08112
3918.84297	0.08105
3916.91440	0.08158
3914.98584	0.08065
3913.05728	0.07861
3911.12871	0.07740
3909.20015	0.07748
3907.27158	0.07867
3905.34302	0.08146
3903.41445	0.08511
3901.48589	0.08666
3899.55732	0.08571
3897.62876	0.08356
3895.70020	0.08126
3893.77163	0.08061
3891.84307	0.08185
3889.91450	0.08240
3887.98594	0.08117
3886.05737	0.08118
3884.12881	0.08276
3882.20024	0.08368
3880.27168	0.08393
3878.34312	0.08282
3876.41455	0.08136
3874.48599	0.08234
3872.55742	0.08509
3870.62886	0.08766
3868.70029	0.08891
3866.77173	0.08800
3864.84316	0.08782
3862.91460	0.08853
3860.98604	0.08711
3859.05747	0.08528
3857.12891	0.08581
3855.20034	0.08918
3853.27178	0.09528
3851.34321	0.09754
3849.41465	0.09244
3847.48608	0.08792
3845.55752	0.08667
3843.62896	0.08862
3841.70039	0.09249
3839.77183	0.09682
3837.84326	0.09996
3835.91470	0.09958
3833.98613	0.09712
3832.05757	0.09504
3830.12900	0.09378
3828.20044	0.09388
3826.27187	0.09564
3824.34331	0.09795
3822.41475	0.10085
3820.48618	0.10475
3818.55762	0.10558
3816.62905	0.10409
3814.70049	0.10277
3812.77192	0.10041
3810.84336	0.09881
3808.91479	0.09995
3806.98623	0.10369
3805.05767	0.10724
3803.12910	0.10968
3801.20054	0.11302
3799.27197	0.11447
3797.34341	0.11322
3795.41484	0.11200
3793.48628	0.11038
3791.55771	0.10917
3789.62915	0.10935
3787.70059	0.11075
3785.77202	0.11331
3783.84346	0.11601
3781.91489	0.11767
3779.98633	0.11935
3778.05776	0.12121
3776.12920	0.12175
3774.20063	0.12229
3772.27207	0.12451
3770.34351	0.12850
3768.41494	0.13234
3766.48638	0.13418
3764.55781	0.13528
3762.62925	0.13638
3760.70068	0.13875
3758.77212	0.14319
3756.84355	0.14691
3754.91499	0.14896
3752.98643	0.15264
3751.05786	0.16016
3749.12930	0.16739
3747.20073	0.16871
3745.27217	0.16940
3743.34360	0.17204
3741.41504	0.17357
3739.48647	0.17511
3737.55791	0.17965
3735.62935	0.18786
3733.70078	0.19534
3731.77222	0.19696
3729.84365	0.19689
3727.91509	0.19922
3725.98652	0.20495
3724.05796	0.21268
3722.12939	0.22005
3720.20083	0.22624
3718.27227	0.23147
3716.34370	0.23746
3714.41514	0.24557
3712.48657	0.25750
3710.55801	0.27383
3708.62944	0.28776
3706.70088	0.29674
3704.77231	0.30594
3702.84375	0.31852
3700.91519	0.33566
3698.98662	0.35381
3697.05806	0.37084
3695.12949	0.38962
3693.20093	0.41057
3691.27236	0.43484
3689.34380	0.46654
3687.41523	0.50183
3685.48667	0.52912
3683.55811	0.55242
3681.62954	0.57950
3679.70098	0.61228
3677.77241	0.64840
3675.84385	0.69174
3673.91528	0.74715
3671.98672	0.78897
3670.05815	0.82680
3668.12959	0.87968
3666.20103	0.92558
3664.27246	0.96386
3662.34390	1.00654
3660.41533	1.05355
3658.48677	1.10086
3656.55820	1.15249
3654.62964	1.20979
3652.70107	1.25698
3650.77251	1.29912
3648.84395	1.35907
3646.91538	1.42937
3644.98682	1.47594
3643.05825	1.51115
3641.12969	1.54936
3639.20112	1.59326
3637.27256	1.63832
3635.34399	1.68238
3633.41543	1.72586
3631.48687	1.76658
3629.55830	1.80989
3627.62974	1.86803
3625.70117	1.91826
3623.77261	1.94900
3621.84404	1.98040
3619.91548	2.01967
3617.98691	2.06715
3616.05835	2.11055
3614.12979	2.14667
3612.20122	2.18576
3610.27266	2.22497
3608.34409	2.26451
3606.41553	2.30676
3604.48696	2.34535
3602.55840	2.37971
3600.62983	2.41842
3598.70127	2.46136
3596.77271	2.50173
3594.84414	2.54199
3592.91558	2.58343
3590.98701	2.62150
3589.05845	2.65809
3587.12988	2.70380
3585.20132	2.75300
3583.27275	2.79367
3581.34419	2.83201
3579.41562	2.87263
3577.48706	2.91462
3575.55850	2.95630
3573.62993	2.99835
3571.70137	3.03924
3569.77280	3.07861
3567.84424	3.12270
3565.91567	3.17944
3563.98711	3.23265
3562.05854	3.27321
3560.12998	3.31301
3558.20142	3.35546
3556.27285	3.39920
3554.34429	3.44353
3552.41572	3.49072
3550.48716	3.53753
3548.55859	3.58107
3546.63003	3.62765
3544.70146	3.67932
3542.77290	3.72708
3540.84434	3.77161
3538.91577	3.81905
3536.98721	3.86648
3535.05864	3.91345
3533.13008	3.96009
3531.20151	4.00621
3529.27295	4.05161
3527.34438	4.09706
3525.41582	4.14608
3523.48726	4.19983
3521.55869	4.25233
3519.63013	4.29624
3517.70156	4.33851
3515.77300	4.38621
3513.84443	4.43497
3511.91587	4.48121
3509.98730	4.52536
3508.05874	4.56784
3506.13018	4.61210
3504.20161	4.66134
3502.27305	4.71896
3500.34448	4.77979
3498.41592	4.83254
3496.48735	4.88142
3494.55879	4.92933
3492.63022	4.97127
3490.70166	5.01142
3488.77310	5.05747
3486.84453	5.10625
3484.91597	5.15227
3482.98740	5.19786
3481.05884	5.24618
3479.13027	5.29543
3477.20171	5.34598
3475.27314	5.39862
3473.34458	5.44812
3471.41602	5.49857
3469.48745	5.55534
3467.55889	5.60969
3465.63032	5.65637
3463.70176	5.69832
3461.77319	5.73748
3459.84463	5.77639
3457.91606	5.81988
3455.98750	5.87674
3454.05894	5.94191
3452.13037	6.00248
3450.20181	6.05377
3448.27324	6.09757
3446.34468	6.14554
3444.41611	6.19334
3442.48755	6.23707
3440.55898	6.27944
3438.63042	6.32094
3436.70186	6.36766
3434.77329	6.41584
3432.84473	6.46850
3430.91616	6.54261
3428.98760	6.62414
3427.05903	6.67698
3425.13047	6.71346
3423.20190	6.76132
3421.27334	6.82436
3419.34478	6.87983
3417.41621	6.92762
3415.48765	6.98530
3413.55908	7.02791
3411.63052	7.03500
3409.70195	7.03715
3407.77339	7.08026
3405.84482	7.14460
3403.91626	7.20682
3401.98770	7.24820
3400.05913	7.27022
3398.13057	7.30333
3396.20200	7.35675
3394.27344	7.43371
3392.34487	7.47571
3390.41631	7.48726
3388.48774	7.51361
3386.55918	7.56905
3384.63062	7.66671
3382.70205	7.74049
3380.77349	7.74859
3378.84492	7.77178
3376.91636	7.80179
3374.98779	7.77909
3373.05923	7.79523
3371.13066	7.83993
3369.20210	7.84766
3367.27354	7.88195
3365.34497	7.98252
3363.41641	8.06798
3361.48784	8.06402
3359.55928	8.02607
3357.63071	7.99810
3355.70215	7.98899
3353.77358	7.97296
3351.84502	7.97285
3349.91646	8.03650
3347.98789	8.12721
3346.05933	8.18284
3344.13076	8.21437
3342.20220	8.23791
3340.27363	8.24511
3338.34507	8.24852
3336.41650	8.22389
3334.48794	8.19382
3332.55937	8.18213
3330.63081	8.19090
3328.70225	8.17819
3326.77368	8.15321
3324.84512	8.17034
3322.91655	8.12426
3320.98799	7.99466
3319.05942	7.91401
3317.13086	7.91246
3315.20229	7.91046
3313.27373	7.90539
3311.34517	7.98986
3309.41660	8.17512
3307.48804	8.28734
3305.55947	8.27531
3303.63091	8.19048
3301.70234	8.03375
3299.77378	7.97973
3297.84521	8.04105
3295.91665	8.12181
3293.98809	8.17214
3292.05952	8.15884
3290.13096	8.18283
3288.20239	8.29980
3286.27383	8.37550
3284.34526	8.29745
3282.41670	8.19567
3280.48813	8.16405
3278.55957	8.19401
3276.63101	8.26578
3274.70244	8.35925
3272.77388	8.33438
3270.84531	8.17687
3268.91675	8.14373
3266.98818	8.26474
3265.05962	8.40586
3263.13105	8.47734
3261.20249	8.42000
3259.27393	8.28342
3257.34536	8.18244
3255.41680	8.11812
3253.48823	8.07981
3251.55967	8.07837
3249.63110	8.12143
3247.70254	8.24049
3245.77397	8.32656
3243.84541	8.30750
3241.91685	8.25408
3239.98828	8.20772
3238.05972	8.21429
3236.13115	8.28614
3234.20259	8.35722
3232.27402	8.32848
3230.34546	8.19033
3228.41689	8.01897
3226.48833	7.93807
3224.55977	8.00530
3222.63120	8.10227
3220.70264	8.11244
3218.77407	8.08002
3216.84551	8.05343
3214.91694	8.05487
3212.98838	8.09662
3211.05981	8.15935
3209.13125	8.20646
3207.20269	8.24404
3205.27412	8.23530
3203.34556	8.07421
3201.41699	7.86737
3199.48843	7.76785
3197.55986	7.78167
3195.63130	7.80030
3193.70273	7.75009
3191.77417	7.70022
3189.84561	7.65046
3187.91704	7.56554
3185.98848	7.47733
3184.05991	7.41440
3182.13135	7.39167
3180.20278	7.36126
3178.27422	7.28994
3176.34565	7.24247
3174.41709	7.23027
3172.48853	7.20827
3170.55996	7.15027
3168.63140	7.04702
3166.70283	6.92659
3164.77427	6.82722
3162.84570	6.77494
3160.91714	6.75378
3158.98857	6.72797
3157.06001	6.69528
3155.13145	6.65147
3153.20288	6.57941
3151.27432	6.47959
3149.34575	6.38552
3147.41719	6.32625
3145.48862	6.27378
3143.56006	6.19830
3141.63149	6.11619
3139.70293	6.04074
3137.77437	5.97027
3135.84580	5.90478
3133.91724	5.83989
3131.98867	5.76191
3130.06011	5.67833
3128.13154	5.60936
3126.20298	5.54394
3124.27441	5.46865
3122.34585	5.39075
3120.41729	5.31586
3118.48872	5.24514
3116.56016	5.17671
3114.63159	5.10619
3112.70303	5.03537
3110.77446	4.96755
3108.84590	4.90092
3106.91733	4.83262
3104.98877	4.76406
3103.06021	4.69741
3101.13164	4.62946
3099.20308	4.56058
3097.27451	4.49313
3095.34595	4.42608
3093.41738	4.36017
3091.48882	4.29649
3089.56025	4.23448
3087.63169	4.17153
3085.70312	4.10623
3083.77456	4.04196
3081.84600	3.98062
3079.91743	3.91858
3077.98887	3.85498
3076.06030	3.79375
3074.13174	3.73583
3072.20317	3.67802
3070.27461	3.61894
3068.34604	3.56017
3066.41748	3.50225
3064.48892	3.44579
3062.56035	3.39129
3060.63179	3.33698
3058.70322	3.28154
3056.77466	3.22588
3054.84609	3.17198
3052.91753	3.12080
3050.98896	3.07091
3049.06040	3.02022
3047.13184	2.96929
3045.20327	2.91933
3043.27471	2.86990
3041.34614	2.82071
3039.41758	2.77260
3037.48901	2.72636
3035.56045	2.68154
3033.63188	2.63693
3031.70332	2.59158
3029.77476	2.54637
3027.84619	2.50289
3025.91763	2.46069
3023.98906	2.41862
3022.06050	2.37676
3020.13193	2.33558
3018.20337	2.29522
3016.27480	2.25516
3014.34624	2.21543
3012.41768	2.17697
3010.48911	2.13906
3008.56055	2.10078
3006.63198	2.06357
3004.70342	2.02827
3002.77485	1.99343
3000.84629	1.95862
2998.91772	1.92496
2996.98916	1.89220
2995.06060	1.85920
2993.13203	1.82611
2991.20347	1.79375
2989.27490	1.76225
2987.34634	1.73126
2985.41777	1.70080
2983.48921	1.67094
2981.56064	1.64140
2979.63208	1.61223
2977.70352	1.58392
2975.77495	1.55638
2973.84639	1.52886
2971.91782	1.50112
2969.98926	1.47379
2968.06069	1.44711
2966.13213	1.42107
2964.20356	1.39573
2962.27500	1.37082
2960.34644	1.34604
2958.41787	1.32149
2956.48931	1.29765
2954.56074	1.27492
2952.63218	1.25280
2950.70361	1.23035
2948.77505	1.20731
2946.84648	1.18423
2944.91792	1.16186
2942.98936	1.14056
2941.06079	1.12024
2939.13223	1.10031
2937.20366	1.08015
2935.27510	1.06002
2933.34653	1.04062
2931.41797	1.02178
2929.48940	1.00297
2927.56084	0.98426
2925.63228	0.96616
2923.70371	0.94870
2921.77515	0.93141
2919.84658	0.91434
2917.91802	0.89796
2915.98945	0.88232
2914.06089	0.86692
2912.13232	0.85152
2910.20376	0.83648
2908.27520	0.82222
2906.34663	0.80878
2904.41807	0.79558
2902.48950	0.78217
2900.56094	0.76879
2898.63237	0.75590
2896.70381	0.74362
2894.77524	0.73170
2892.84668	0.71982
2890.91812	0.70807
2888.98955	0.69654
2887.06099	0.68502
2885.13242	0.67383
2883.20386	0.66315
2881.27529	0.65246
2879.34673	0.64185
2877.41816	0.63144
2875.48960	0.62088
2873.56104	0.61032
2871.63247	0.60009
2869.70391	0.59003
2867.77534	0.57993
2865.84678	0.56964
2863.91821	0.55914
2861.98965	0.54879
2860.06108	0.53889
2858.13252	0.52935
2856.20396	0.52043
2854.27539	0.51212
2852.34683	0.50385
2850.41826	0.49553
2848.48970	0.48739
2846.56113	0.47945
2844.63257	0.47199
2842.70400	0.46546
2840.77544	0.45943
2838.84687	0.45322
2836.91831	0.44698
2834.98975	0.44110
2833.06118	0.43546
2831.13262	0.42998
2829.20405	0.42450
2827.27549	0.41868
2825.34692	0.41268
2823.41836	0.40673
2821.48979	0.40072
2819.56123	0.39473
2817.63267	0.38898
2815.70410	0.38337
2813.77554	0.37776
2811.84697	0.37232
2809.91841	0.36723
2807.98984	0.36225
2806.06128	0.35705
2804.13271	0.35185
2802.20415	0.34687
2800.27559	0.34185
2798.34702	0.33685
2796.41846	0.33215
2794.48989	0.32764
2792.56133	0.32318
2790.63276	0.31883
2788.70420	0.31469
2786.77563	0.31073
2784.84707	0.30679
2782.91851	0.30276
2780.98994	0.29870
2779.06138	0.29471
2777.13281	0.29083
2775.20425	0.28708
2773.27568	0.28327
2771.34712	0.27943
2769.41855	0.27582
2767.48999	0.27238
2765.56143	0.26902
2763.63286	0.26580
2761.70430	0.26264
2759.77573	0.25945
2757.84717	0.25623
2755.91860	0.25307
2753.99004	0.25010
2752.06147	0.24741
2750.13291	0.24474
2748.20435	0.24189
2746.27578	0.23900
2744.34722	0.23630
2742.41865	0.23374
2740.49009	0.23114
2738.56152	0.22854
2736.63296	0.22606
2734.70439	0.22368
2732.77583	0.22146
2730.84727	0.21938
2728.91870	0.21721
2726.99014	0.21497
2725.06157	0.21287
2723.13301	0.21076
2721.20444	0.20856
2719.27588	0.20654
2717.34731	0.20467
2715.41875	0.20276
2713.49019	0.20102
2711.56162	0.19945
2709.63306	0.19779
2707.70449	0.19599
2705.77593	0.19415
2703.84736	0.19238
2701.91880	0.19077
2699.99023	0.18938
2698.06167	0.18811
2696.13311	0.18673
2694.20454	0.18523
2692.27598	0.18382
2690.34741	0.18253
2688.41885	0.18128
2686.49028	0.18000
2684.56172	0.17873
2682.63315	0.17763
2680.70459	0.17659
2678.77603	0.17559
2676.84746	0.17463
2674.91890	0.17354
2672.99033	0.17224
2671.06177	0.17093
2669.13320	0.16986
2667.20464	0.16900
2665.27607	0.16826
2663.34751	0.16747
2661.41895	0.16656
2659.49038	0.16564
2657.56182	0.16498
2655.63325	0.16451
2653.70469	0.16391
2651.77612	0.16310
2649.84756	0.16230
2647.91899	0.16160
2645.99043	0.16103
2644.06187	0.16058
2642.13330	0.16011
2640.20474	0.15957
2638.27617	0.15908
2636.34761	0.15868
2634.41904	0.15835
2632.49048	0.15799
2630.56191	0.15761
2628.63335	0.15728
2626.70479	0.15698
2624.77622	0.15668
2622.84766	0.15632
2620.91909	0.15591
2618.99053	0.15562
2617.06196	0.15547
2615.13340	0.15537
2613.20483	0.15535
2611.27627	0.15528
2609.34771	0.15505
2607.41914	0.15484
2605.49058	0.15474
2603.56201	0.15463
2601.63345	0.15462
2599.70488	0.15483
2597.77632	0.15511
2595.84775	0.15525
2593.91919	0.15528
2591.99062	0.15534
2590.06206	0.15554
2588.13350	0.15589
2586.20493	0.15617
2584.27637	0.15633
2582.34780	0.15655
2580.41924	0.15680
2578.49067	0.15701
2576.56211	0.15716
2574.63354	0.15738
2572.70498	0.15778
2570.77642	0.15835
2568.84785	0.15897
2566.91929	0.15946
2564.99072	0.15977
2563.06216	0.16009
2561.13359	0.16055
2559.20503	0.16103
2557.27646	0.16146
2555.34790	0.16192
2553.41934	0.16251
2551.49077	0.16314
2549.56221	0.16371
2547.63364	0.16427
2545.70508	0.16488
2543.77651	0.16556
2541.84795	0.16626
2539.91938	0.16691
2537.99082	0.16750
2536.06226	0.16818
2534.13369	0.16901
2532.20513	0.16977
2530.27656	0.17039
2528.34800	0.17103
2526.41943	0.17178
2524.49087	0.17258
2522.56230	0.17335
2520.63374	0.17418
2518.70518	0.17506
2516.77661	0.17582
2514.84805	0.17643
2512.91948	0.17710
2510.99092	0.17794
2509.06235	0.17891
2507.13379	0.17984
2505.20522	0.18065
2503.27666	0.18138
2501.34810	0.18209
2499.41953	0.18282
2497.49097	0.18365
2495.56240	0.18458
2493.63384	0.18566
2491.70527	0.18675
2489.77671	0.18764
2487.84814	0.18843
2485.91958	0.18927
2483.99102	0.19017
2482.06245	0.19114
2480.13389	0.19209
2478.20532	0.19301
2476.27676	0.19388
2474.34819	0.19468
2472.41963	0.19562
2470.49106	0.19674
2468.56250	0.19777
2466.63394	0.19859
2464.70537	0.19943
2462.77681	0.20041
2460.84824	0.20144
2458.91968	0.20245
2456.99111	0.20348
2455.06255	0.20437
2453.13398	0.20513
2451.20542	0.20604
2449.27686	0.20708
2447.34829	0.20805
2445.41973	0.20903
2443.49116	0.21017
2441.56260	0.21135
2439.63403	0.21249
2437.70547	0.21368
2435.77690	0.21484
2433.84834	0.21588
2431.91978	0.21690
2429.99121	0.21792
2428.06265	0.21893
2426.13408	0.21999
2424.20552	0.22108
2422.27695	0.22214
2420.34839	0.22323
2418.41982	0.22441
2416.49126	0.22554
2414.56270	0.22660
2412.63413	0.22772
2410.70557	0.22892
2408.77700	0.23019
2406.84844	0.23149
2404.91987	0.23268
2402.99131	0.23380
2401.06274	0.23501
2399.13418	0.23630
2397.20562	0.23752
2395.27705	0.23867
2393.34849	0.23990
2391.41992	0.24123
2389.49136	0.24261
2387.56279	0.24403
2385.63423	0.24555
2383.70566	0.24738
2381.77710	0.24951
2379.84854	0.25174
2377.91997	0.25413
2375.99141	0.25681
2374.06284	0.25976
2372.13428	0.26290
2370.20571	0.26649
2368.27715	0.27092
2366.34858	0.27594
2364.42002	0.28029
2362.49146	0.28263
2360.56289	0.28335
2358.63433	0.28384
2356.70576	0.28390
2354.77720	0.28374
2352.84863	0.28374
2350.92007	0.28294
2348.99150	0.28204
2347.06294	0.28254
2345.13437	0.28549
2343.20581	0.29002
2341.27725	0.29290
2339.34868	0.29388
2337.42012	0.29459
2335.49155	0.29545
2333.56299	0.29647
2331.63442	0.29789
2329.70586	0.29956
2327.77729	0.30123
2325.84873	0.30263
2323.92017	0.30391
2321.99160	0.30529
2320.06304	0.30618
2318.13447	0.30659
2316.20591	0.30732
2314.27734	0.30858
2312.34878	0.30999
2310.42021	0.31133
2308.49165	0.31254
2306.56309	0.31374
2304.63452	0.31505
2302.70596	0.31656
2300.77739	0.31828
2298.84883	0.31997
2296.92026	0.32158
2294.99170	0.32325
2293.06313	0.32495
2291.13457	0.32654
2289.20601	0.32816
2287.27744	0.32987
2285.34888	0.33155
2283.42031	0.33332
2281.49175	0.33534
2279.56318	0.33745
2277.63462	0.33954
2275.70605	0.34163
2273.77749	0.34363
2271.84893	0.34565
2269.92036	0.34780
2267.99180	0.34997
2266.06323	0.35213
2264.13467	0.35439
2262.20610	0.35663
2260.27754	0.35870
2258.34897	0.36068
2256.42041	0.36271
2254.49185	0.36494
2252.56328	0.36728
2250.63472	0.36952
2248.70615	0.37164
2246.77759	0.37371
2244.84902	0.37585
2242.92046	0.37811
2240.99189	0.38039
2239.06333	0.38261
2237.13477	0.38484
2235.20620	0.38713
2233.27764	0.38937
2231.34907	0.39146
2229.42051	0.39355
2227.49194	0.39586
2225.56338	0.39830
2223.63481	0.40062
2221.70625	0.40278
2219.77769	0.40495
2217.84912	0.40714
2215.92056	0.40927
2213.99199	0.41140
2212.06343	0.41362
2210.13486	0.41585
2208.20630	0.41805
2206.27773	0.42023
2204.34917	0.42233
2202.42061	0.42432
2200.49204	0.42623
2198.56348	0.42820
2196.63491	0.43037
2194.70635	0.43257
2192.77778	0.43460
2190.84922	0.43650
2188.92065	0.43839
2186.99209	0.44017
2185.06353	0.44180
2183.13496	0.44347
2181.20640	0.44524
2179.27783	0.44703
2177.34927	0.44877
2175.42070	0.45044
2173.49214	0.45201
2171.56357	0.45334
2169.63501	0.45456
2167.70645	0.45594
2165.77788	0.45736
2163.84932	0.45862
2161.92075	0.45974
2159.99219	0.46089
2158.06362	0.46210
2156.13506	0.46315
2154.20649	0.46400
2152.27793	0.46483
2150.34937	0.46559
2148.42080	0.46613
2146.49224	0.46655
2144.56367	0.46702
2142.63511	0.46755
2140.70654	0.46803
2138.77798	0.46841
2136.84941	0.46867
2134.92085	0.46876
2132.99229	0.46865
2131.06372	0.46845
2129.13516	0.46833
2127.20659	0.46824
2125.27803	0.46798
2123.34946	0.46747
2121.42090	0.46691
2119.49233	0.46634
2117.56377	0.46571
2115.63521	0.46502
2113.70664	0.46421
2111.77808	0.46326
2109.84951	0.46232
2107.92095	0.46144
2105.99238	0.46045
2104.06382	0.45925
2102.13525	0.45785
2100.20669	0.45642
2098.27812	0.45502
2096.34956	0.45359
2094.42100	0.45210
2092.49243	0.45048
2090.56387	0.44876
2088.63530	0.44699
2086.70674	0.44517
2084.77817	0.44328
2082.84961	0.44136
2080.92104	0.43942
2078.99248	0.43743
2077.06392	0.43534
2075.13535	0.43314
2073.20679	0.43094
2071.27822	0.42875
2069.34966	0.42652
2067.42109	0.42424
2065.49253	0.42192
2063.56396	0.41951
2061.63540	0.41699
2059.70684	0.41443
2057.77827	0.41188
2055.84971	0.40937
2053.92114	0.40679
2051.99258	0.40406
2050.06401	0.40134
2048.13545	0.39864
2046.20688	0.39587
2044.27832	0.39313
2042.34976	0.39052
2040.42119	0.38792
2038.49263	0.38520
2036.56406	0.38237
2034.63550	0.37950
2032.70693	0.37665
2030.77837	0.37385
2028.84980	0.37104
2026.92124	0.36827
2024.99268	0.36548
2023.06411	0.36266
2021.13555	0.35992
2019.20698	0.35734
2017.27842	0.35475
2015.34985	0.35187
2013.42129	0.34878
2011.49272	0.34578
2009.56416	0.34299
2007.63560	0.34026
2005.70703	0.33752
2003.77847	0.33476
2001.84990	0.33208
1999.92134	0.32954
1997.99277	0.32696
1996.06421	0.32432
1994.13564	0.32194
1992.20708	0.31976
1990.27852	0.31719
1988.34995	0.31424
1986.42139	0.31142
1984.49282	0.30883
1982.56426	0.30639
1980.63569	0.30404
1978.70713	0.30180
1976.77856	0.29963
1974.85000	0.29738
1972.92144	0.29505
1970.99287	0.29289
1969.06431	0.29104
1967.13574	0.28920
1965.20718	0.28699
1963.27861	0.28472
1961.35005	0.28270
1959.42148	0.28070
1957.49292	0.27868
1955.56436	0.27681
1953.63579	0.27503
1951.70723	0.27325
1949.77866	0.27160
1947.85010	0.27015
1945.92153	0.26887
1943.99297	0.26771
1942.06440	0.26635
1940.13584	0.26450
1938.20728	0.26261
1936.27871	0.26103
1934.35015	0.25962
1932.42158	0.25835
1930.49302	0.25713
1928.56445	0.25598
1926.63589	0.25499
1924.70732	0.25433
1922.77876	0.25373
1920.85020	0.25277
1918.92163	0.25187
1916.99307	0.25091
1915.06450	0.24946
1913.13594	0.24819
1911.20737	0.24761
1909.27881	0.24726
1907.35024	0.24654
1905.42168	0.24550
1903.49312	0.24462
1901.56455	0.24397
1899.63599	0.24341
1897.70742	0.24302
1895.77886	0.24288
1893.85029	0.24266
1891.92173	0.24231
1889.99316	0.24229
1888.06460	0.24212
1886.13604	0.24152
1884.20747	0.24096
1882.27891	0.24053
1880.35034	0.24028
1878.42178	0.24020
1876.49321	0.24018
1874.56465	0.24013
1872.63608	0.24039
1870.70752	0.24144
1868.77896	0.24305
1866.85039	0.24338
1864.92183	0.24230
1862.99326	0.24155
1861.06470	0.24153
1859.13613	0.24187
1857.20757	0.24213
1855.27900	0.24238
1853.35044	0.24283
1851.42187	0.24349
1849.49331	0.24433
1847.56475	0.24551
1845.63618	0.24707
1843.70762	0.24837
1841.77905	0.24848
1839.85049	0.24828
1837.92192	0.24892
1835.99336	0.24984
1834.06479	0.25070
1832.13623	0.25208
1830.20767	0.25441
1828.27910	0.25622
1826.35054	0.25684
1824.42197	0.25765
1822.49341	0.25843
1820.56484	0.25919
1818.63628	0.26045
1816.70771	0.26212
1814.77915	0.26379
1812.85059	0.26579
1810.92202	0.26827
1808.99346	0.27044
1807.06489	0.27204
1805.13633	0.27361
1803.20776	0.27598
1801.27920	0.27914
1799.35063	0.28233
1797.42207	0.28485
1795.49351	0.28742
1793.56494	0.29085
1791.63638	0.29492
1789.70781	0.29758
1787.77925	0.29915
1785.85068	0.30197
1783.92212	0.30596
1781.99355	0.31033
1780.06499	0.31472
1778.13643	0.31879
1776.20786	0.32284
1774.27930	0.32804
1772.35073	0.33519
1770.42217	0.34161
1768.49360	0.34582
1766.56504	0.35001
1764.63647	0.35497
1762.70791	0.36118
1760.77935	0.36907
1758.85078	0.37611
1756.92222	0.38318
1754.99365	0.39084
1753.06509	0.39793
1751.13652	0.40707
1749.20796	0.41877
1747.27939	0.42938
1745.35083	0.43804
1743.42227	0.44727
1741.49370	0.45769
1739.56514	0.47005
1737.63657	0.48235
1735.70801	0.49353
1733.77944	0.51103
1731.85088	0.53090
1729.92231	0.54530
1727.99375	0.56010
1726.06519	0.57667
1724.13662	0.59541
1722.20806	0.61567
1720.27949	0.63455
1718.35093	0.65774
1716.42236	0.69214
1714.49380	0.72243
1712.56523	0.74533
1710.63667	0.76814
1708.70811	0.79369
1706.77954	0.82355
1704.85098	0.85925
1702.92241	0.89026
1700.99385	0.92019
1699.06528	0.96562
1697.13672	1.00747
1695.20815	1.04893
1693.27959	1.08779
1691.35103	1.11903
1689.42246	1.15643
1687.49390	1.19614
1685.56533	1.23407
1683.63677	1.29336
1681.70820	1.35428
1679.77964	1.39155
1677.85107	1.42749
1675.92251	1.46924
1673.99395	1.52124
1672.06538	1.56739
1670.13682	1.61277
1668.20825	1.67172
1666.27969	1.71707
1664.35112	1.75504
1662.42256	1.80419
1660.49399	1.86032
1658.56543	1.90264
1656.63687	1.93698
1654.70830	1.97021
1652.77974	2.02628
1650.85117	2.08121
1648.92261	2.10237
1646.99404	2.13269
1645.06548	2.16557
1643.13691	2.18569
1641.20835	2.19711
1639.27979	2.20764
1637.35122	2.21549
1635.42266	2.21947
1633.49409	2.21523
1631.56553	2.20380
1629.63696	2.19127
1627.70840	2.16841
1625.77983	2.13913
1623.85127	2.10037
1621.92271	2.05319
1619.99414	2.01244
1618.06558	1.97307
1616.13701	1.91418
1614.20845	1.85228
1612.27988	1.80559
1610.35132	1.75757
1608.42275	1.70555
1606.49419	1.65365
1604.56562	1.60531
1602.63706	1.55793
1600.70850	1.51130
1598.77993	1.46836
1596.85137	1.42788
1594.92280	1.38864
1592.99424	1.35080
1591.06567	1.31581
1589.13711	1.28260
1587.20854	1.25157
1585.27998	1.22277
1583.35142	1.19566
1581.42285	1.17084
1579.49429	1.15000
1577.56572	1.13169
1575.63716	1.10777
1573.70859	1.08518
1571.78003	1.07097
1569.85146	1.05638
1567.92290	1.03828
1565.99434	1.02341
1564.06577	1.01152
1562.13721	1.00242
1560.20864	0.99692
1558.28008	0.98733
1556.35151	0.97428
1554.42295	0.96516
1552.49438	0.95708
1550.56582	0.94895
1548.63726	0.93988
1546.70869	0.93164
1544.78013	0.92427
1542.85156	0.91639
1540.92300	0.90534
1538.99443	0.88528
1537.06587	0.86936
1535.13730	0.85991
1533.20874	0.84857
1531.28018	0.83556
1529.35161	0.82614
1527.42305	0.81824
1525.49448	0.81010
1523.56592	0.80302
1521.63735	0.79609
1519.70879	0.78773
1517.78022	0.78035
1515.85166	0.77205
1513.92310	0.76332
1511.99453	0.75683
1510.06597	0.75246
1508.13740	0.74932
1506.20884	0.74117
1504.28027	0.73077
1502.35171	0.72493
1500.42314	0.72108
1498.49458	0.71773
1496.56602	0.71320
1494.63745	0.70773
1492.70889	0.70382
1490.78032	0.70157
1488.85176	0.69875
1486.92319	0.69414
1484.99463	0.68958
1483.06606	0.68618
1481.13750	0.68359
1479.20894	0.68142
1477.28037	0.68010
1475.35181	0.67973
1473.42324	0.67942
1471.49468	0.67673
1469.56611	0.67227
1467.63755	0.66893
1465.70898	0.66692
1463.78042	0.66521
1461.85186	0.66369
1459.92329	0.66327
1457.99473	0.66365
1456.06616	0.66167
1454.13760	0.65729
1452.20903	0.65387
1450.28047	0.65144
1448.35190	0.64935
1446.42334	0.64667
1444.49478	0.64395
1442.56621	0.64193
1440.63765	0.64034
1438.70908	0.63905
1436.78052	0.63774
1434.85195	0.63575
1432.92339	0.63376
1430.99482	0.63248
1429.06626	0.63149
1427.13770	0.63045
1425.20913	0.62976
1423.28057	0.62935
1421.35200	0.62906
1419.42344	0.62914
1417.49487	0.62829
1415.56631	0.62587
1413.63774	0.62364
1411.70918	0.62208
1409.78062	0.62086
1407.85205	0.61994
1405.92349	0.61962
1403.99492	0.61928
1402.06636	0.61837
1400.13779	0.61747
1398.20923	0.61643
1396.28066	0.61478
1394.35210	0.61231
1392.42354	0.60915
1390.49497	0.60652
1388.56641	0.60471
1386.63784	0.60254
1384.70928	0.59958
1382.78071	0.59677
1380.85215	0.59448
1378.92358	0.59273
1376.99502	0.59164
1375.06646	0.59116
1373.13789	0.59044
1371.20933	0.58917
1369.28076	0.58811
1367.35220	0.58729
1365.42363	0.58644
1363.49507	0.58576
1361.56650	0.58482
1359.63794	0.58322
1357.70937	0.58168
1355.78081	0.58051
1353.85225	0.57946
1351.92368	0.57848
1349.99512	0.57762
1348.06655	0.57676
1346.13799	0.57573
1344.20942	0.57466
1342.28086	0.57394
1340.35229	0.57368
1338.42373	0.57315
1336.49517	0.57187
1334.56660	0.57052
1332.63804	0.56952
1330.70947	0.56880
1328.78091	0.56824
1326.85234	0.56781
1324.92378	0.56757
1322.99521	0.56753
1321.06665	0.56768
1319.13809	0.56773
1317.20952	0.56733
1315.28096	0.56657
1313.35239	0.56570
1311.42383	0.56470
1309.49526	0.56366
1307.56670	0.56273
1305.63813	0.56188
1303.70957	0.56092
1301.78101	0.55990
1299.85244	0.55895
1297.92388	0.55792
1295.99531	0.55680
1294.06675	0.55577
1292.13818	0.55485
1290.20962	0.55395
1288.28105	0.55312
1286.35249	0.55239
1284.42393	0.55161
1282.49536	0.55076
1280.56680	0.54996
1278.63823	0.54917
1276.70967	0.54837
1274.78110	0.54765
1272.85254	0.54717
1270.92397	0.54685
1268.99541	0.54644
1267.06685	0.54585
1265.13828	0.54523
1263.20972	0.54478
1261.28115	0.54436
1259.35259	0.54380
1257.42402	0.54322
1255.49546	0.54286
1253.56689	0.54273
1251.63833	0.54272
1249.70977	0.54273
1247.78120	0.54257
1245.85264	0.54225
1243.92407	0.54192
1241.99551	0.54157
1240.06694	0.54103
1238.13838	0.54019
1236.20981	0.53905
1234.28125	0.53773
1232.35269	0.53646
1230.42412	0.53534
1228.49556	0.53430
1226.56699	0.53333
1224.63843	0.53235
1222.70986	0.53132
1220.78130	0.53037
1218.85273	0.52956
1216.92417	0.52874
1214.99561	0.52787
1213.06704	0.52706
1211.13848	0.52634
1209.20991	0.52569
1207.28135	0.52513
1205.35278	0.52456
1203.42422	0.52383
1201.49565	0.52301
1199.56709	0.52228
1197.63853	0.52160
1195.70996	0.52090
1193.78140	0.52018
1191.85283	0.51954
1189.92427	0.51910
1187.99570	0.51879
1186.06714	0.51853
1184.13857	0.51834
1182.21001	0.51832
1180.28145	0.51849
1178.35288	0.51886
1176.42432	0.51955
1174.49575	0.52050
1172.56719	0.52138
1170.63862	0.52203
1168.71006	0.52257
1166.78149	0.52308
1164.85293	0.52346
1162.92437	0.52372
1160.99580	0.52395
1159.06724	0.52403
1157.13867	0.52367
1155.21011	0.52284
1153.28154	0.52171
1151.35298	0.52033
1149.42441	0.51852
1147.49585	0.51629
1145.56729	0.51376
1143.63872	0.51106
1141.71016	0.50847
1139.78159	0.50623
1137.85303	0.50449
1135.92446	0.50316
1133.99590	0.50203
1132.06733	0.50107
1130.13877	0.50012
1128.21021	0.49902
1126.28164	0.49800
1124.35308	0.49712
1122.42451	0.49636
1120.49595	0.49593
1118.56738	0.49581
1116.63882	0.49597
1114.71025	0.49643
1112.78169	0.49686
1110.85312	0.49712
1108.92456	0.49747
1106.99600	0.49822
1105.06743	0.49933
1103.13887	0.50058
1101.21030	0.50205
1099.28174	0.50404
1097.35317	0.50641
1095.42461	0.50910
1093.49604	0.51261
1091.56748	0.51720
1089.63892	0.52274
1087.71035	0.52918
1085.78179	0.53646
1083.85322	0.54420
1081.92466	0.55156
1079.99609	0.55743
1078.06753	0.56084
1076.13896	0.56132
1074.21040	0.55876
1072.28184	0.55383
1070.35327	0.54767
1068.42471	0.54111
1066.49614	0.53456
1064.56758	0.52818
1062.63901	0.52226
1060.71045	0.51722
1058.78188	0.51298
1056.85332	0.50914
1054.92476	0.50565
1052.99619	0.50285
1051.06763	0.50066
1049.13906	0.49886
1047.21050	0.49766
1045.28193	0.49700
1043.35337	0.49640
1041.42480	0.49590
1039.49624	0.49570
1037.56768	0.49563
1035.63911	0.49545
1033.71055	0.49513
1031.78198	0.49464
1029.85342	0.49381
1027.92485	0.49273
1025.99629	0.49176
1024.06772	0.49129
1022.13916	0.49134
1020.21060	0.49145
1018.28203	0.49161
1016.35347	0.49206
1014.42490	0.49257
1012.49634	0.49291
1010.56777	0.49317
1008.63921	0.49373
1006.71064	0.49486
1004.78208	0.49637
1002.85352	0.49826
1000.92495	0.50084
998.99639	0.50401
997.06782	0.50768
995.13926	0.51190
993.21069	0.51605
991.28213	0.51936
989.35356	0.52167
987.42500	0.52309
985.49644	0.52385
983.56787	0.52416
981.63931	0.52438
979.71074	0.52517
977.78218	0.52688
975.85361	0.52909
973.92505	0.53145
971.99648	0.53416
970.06792	0.53747
968.13936	0.54134
966.21079	0.54562
964.28223	0.55036
962.35366	0.55549
960.42510	0.56062
958.49653	0.56576
956.56797	0.57116
954.63940	0.57692
952.71084	0.58302
950.78228	0.58932
948.85371	0.59573
946.92515	0.60219
944.99658	0.60855
943.06802	0.61475
941.13945	0.62062
939.21089	0.62628
937.28232	0.63215
935.35376	0.63810
933.42520	0.64361
931.49663	0.64893
929.56807	0.65475
927.63950	0.66078
925.71094	0.66635
923.78237	0.67202
921.85381	0.67867
919.92524	0.68606
917.99668	0.69352
916.06812	0.70071
914.13955	0.70766
912.21099	0.71463
910.28242	0.72231
908.35386	0.73119
906.42529	0.74074
904.49673	0.75005
902.56816	0.75918
900.63960	0.76842
898.71104	0.77754
896.78247	0.78665
894.85391	0.79562
892.92534	0.80479
890.99678	0.81598
889.06821	0.82832
887.13965	0.83969
885.21108	0.85083
883.28252	0.86235
881.35396	0.87359
879.42539	0.88478
877.49683	0.89652
875.56826	0.90881
873.63970	0.92038
871.71113	0.93098
869.78257	0.94240
867.85400	0.95470
865.92544	0.96633
863.99687	0.97690
862.06831	0.98715
860.13975	0.99809
858.21118	1.01008
856.28262	1.02352
854.35405	1.03747
852.42549	1.04947
850.49692	1.05982
848.56836	1.07035
846.63979	1.08142
844.71123	1.09288
842.78267	1.10462
840.85410	1.11621
838.92554	1.12762
836.99697	1.13915
835.06841	1.14984
833.13984	1.15966
831.21128	1.16980
829.28271	1.18283
827.35415	1.19908
825.42559	1.21320
823.49702	1.22509
821.56846	1.23807
819.63989	1.25158
817.71133	1.26260
815.78276	1.26964
813.85420	1.27140
811.92563	1.27258
809.99707	1.28501
808.06851	1.30084
806.13994	1.31257
804.21138	1.32891
802.28281	1.35322
800.35425	1.38712
798.42568	1.42453
796.49712	1.45607
794.56855	1.46331
792.63999	1.43090
790.71143	1.40275
788.78286	1.42849
786.85430	1.48399
784.92573	1.50337
782.99717	1.51016
781.06860	1.53816
779.14004	1.51680
777.21147	1.45021
775.28291	1.47598
773.35435	1.68179
771.42578	1.92151
769.49722	1.63252
767.56865	1.41438
765.64009	1.40410
763.71152	1.60852
761.78296	1.96045
759.85439	1.67159
757.92583	1.43543
755.99727	1.41617
754.06870	1.46725
752.14014	1.46152
750.21157	1.39266
748.28301	1.26226
746.35444	1.14908
744.42588	1.11289
742.49731	1.11258
740.56875	1.05802
738.64019	1.03725
736.71162	1.10808
734.78306	0.99294
732.85449	0.74705
730.92593	0.58117
728.99736	0.44494
727.06880	0.33966
725.14023	0.28538
723.21167	0.27473
721.28311	0.25947
719.35454	0.18487
717.42598	0.09057
715.49741	-0.00008
713.56885	-0.07876
711.64028	-0.04880
709.71172	0.01063
707.78315	0.11366
705.85459	0.00161
703.92603	0.11744
701.99746	0.17052
700.06890	0.21036
698.14033	0.21729
696.21177	0.24293
694.28320	0.30398
692.35464	0.32404
690.42607	0.26506
688.49751	0.18702
686.56895	0.22981
684.64038	0.38097
682.71182	0.48661
680.78325	0.53046
678.85469	0.44335
676.92612	0.28442
674.99756	0.20955
673.06899	0.21881
671.14043	0.24714
669.21187	0.24337
667.28330	0.20125
665.35474	0.17822
663.42617	0.20075
661.49761	0.22677
659.56904	0.21304
657.64048	0.18807
655.71191	0.19244
653.78335	0.18689
651.85479	0.16549
649.92622	0.17999
647.99766	0.28012
646.06909	0.40633
644.14053	0.31256
642.21196	0.17087
640.28340	0.21241
638.35483	0.35255
636.42627	0.37227
634.49771	0.26201
632.56914	0.13769
630.64058	0.07643
628.71201	0.14700
626.78345	0.26455
624.85488	0.33060
622.92632	0.45014
620.99775	0.54881
619.06919	0.49159
617.14062	0.58964
615.21206	3.69127
613.28350	3.67970
611.35493	3.66813
609.42637	3.65656
607.49780	3.64499
605.56924	0.61023
603.64067	0.42762
601.71211	0.37374
599.78354	0.36245
597.85498	0.34525
595.92642	0.29090
593.99785	0.28351
592.06929	0.33626
590.14072	0.39391
588.21216	0.40632
586.28359	0.36420
584.35503	0.35672
582.42646	0.44575
580.49790	0.51437
578.56934	0.43881
576.64077	0.36568
574.71221	0.31757
572.78364	0.30661
570.85508	0.34266
568.92651	0.36931
566.99795	0.33610
565.06938	0.34914
563.14082	0.41511
561.21226	0.36667
559.28369	0.33132
557.35513	0.38414
555.42656	0.56297
553.49800	0.95824
551.56943	0.66649
549.64087	0.39345
547.71230	0.27537
545.78374	0.29731
543.85518	0.37963
541.92661	0.34755
539.99805	0.31479
538.06948	0.34521
536.14092	0.29988
534.21235	0.22792
532.28379	0.26062
530.35522	0.39020
528.42666	0.43716
526.49810	0.28945
524.56953	0.20399
522.64097	0.22795
520.71240	0.23869
518.78384	0.17472
516.85527	0.13733
514.92671	0.15974
512.99814	0.15227
511.06958	0.12139
509.14102	0.14331
507.21245	0.15965
505.28389	0.14634
503.35532	0.16029
501.42676	0.19301
499.49819	0.20601
