3997.91411	0.07125
3995.98555	0.07206
3994.05698	0.07255
3992.12842	0.07287
3990.19985	0.07343
3988.27129	0.07398
3986.34272	0.07415
3984.41416	0.07404
3982.48560	0.07390
3980.55703	0.07379
3978.62847	0.07395
3976.69990	0.07450
3974.77134	0.07484
3972.84277	0.07502
3970.91421	0.07549
3968.98564	0.07585
3967.05708	0.07595
3965.12852	0.07599
3963.19995	0.07593
3961.27139	0.07581
3959.34282	0.07574
3957.41426	0.07582
3955.48569	0.07605
3953.55713	0.07614
3951.62856	0.07584
3949.70000	0.07554
3947.77144	0.07556
3945.84287	0.07561
3943.91431	0.07542
3941.98574	0.07526
3940.05718	0.07566
3938.12861	0.07647
3936.20005	0.07674
3934.27148	0.07617
3932.34292	0.07543
3930.41436	0.07510
3928.48579	0.07513
3926.55723	0.07549
3924.62866	0.07595
3922.70010	0.07595
3920.77153	0.07563
3918.84297	0.07537
3916.91440	0.07534
3914.98584	0.07538
3913.05728	0.07522
3911.12871	0.07509
3909.20015	0.07505
3907.27158	0.07477
3905.34302	0.07399
3903.41445	0.07310
3901.48589	0.07292
3899.55732	0.07330
3897.62876	0.07379
3895.70020	0.07433
3893.77163	0.07433
3891.84307	0.07366
3889.91450	0.07336
3887.98594	0.07378
3886.05737	0.07432
3884.12881	0.07480
3882.20024	0.07471
3880.27168	0.07416
3878.34312	0.07418
3876.41455	0.07464
3874.48599	0.07481
3872.55742	0.07500
3870.62886	0.07525
3868.70029	0.07524
3866.77173	0.07513
3864.84316	0.07504
3862.91460	0.07553
3860.98604	0.07650
3859.05747	0.07677
3857.12891	0.07625
3855.20034	0.07563
3853.27178	0.07566
3851.34321	0.07695
3849.41465	0.07831
3847.48608	0.07936
3845.55752	0.08006
3843.62896	0.08025
3841.70039	0.08015
3839.77183	0.08001
3837.84326	0.08018
3835.91470	0.08108
3833.98613	0.08248
3832.05757	0.08390
3830.12900	0.08472
3828.20044	0.08495
3826.27187	0.08548
3824.34331	0.08623
3822.41475	0.08649
3820.48618	0.08700
3818.55762	0.08792
3816.62905	0.08874
3814.70049	0.09045
3812.77192	0.09243
3810.84336	0.09349
3808.91479	0.09409
3806.98623	0.09475
3805.05767	0.09569
3803.12910	0.09647
3801.20054	0.09723
3799.27197	0.09850
3797.34341	0.09985
3795.41484	0.10159
3793.48628	0.10353
3791.55771	0.10522
3789.62915	0.10690
3787.70059	0.10821
3785.77202	0.10905
3783.84346	0.11024
3781.91489	0.11194
3779.98633	0.11366
3778.05776	0.11542
3776.12920	0.11716
3774.20063	0.11872
3772.27207	0.11991
3770.34351	0.12087
3768.41494	0.12222
3766.48638	0.12383
3764.55781	0.12576
3762.62925	0.12802
3760.70068	0.13011
3758.77212	0.13240
3756.84355	0.13494
3754.91499	0.13669
3752.98643	0.13789
3751.05786	0.13987
3749.12930	0.14340
3747.20073	0.14631
3745.27217	0.14841
3743.34360	0.15212
3741.41504	0.15670
3739.48647	0.15997
3737.55791	0.16252
3735.62935	0.16546
3733.70078	0.17041
3731.77222	0.17681
3729.84365	0.18241
3727.91509	0.18698
3725.98652	0.19190
3724.05796	0.19798
3722.12939	0.20485
3720.20083	0.21256
3718.27227	0.22089
3716.34370	0.22934
3714.41514	0.23705
3712.48657	0.24488
3710.55801	0.25628
3708.62944	0.27090
3706.70088	0.28413
3704.77231	0.29610
3702.84375	0.30898
3700.91519	0.32556
3698.98662	0.34441
3697.05806	0.36228
3695.12949	0.38074
3693.20093	0.39996
3691.27236	0.42031
3689.34380	0.44748
3687.41523	0.48370
3685.48667	0.51624
3683.55811	0.54343
3681.62954	0.57160
3679.70098	0.60245
3677.77241	0.63390
3675.84385	0.67122
3673.91528	0.72530
3671.98672	0.77026
3670.05815	0.80868
3668.12959	0.86365
3666.20103	0.91509
3664.27246	0.95710
3662.34390	1.00107
3660.41533	1.04811
3658.48677	1.09407
3656.55820	1.14279
3654.62964	1.19797
3652.70107	1.24415
3650.77251	1.28230
3648.84395	1.33520
3646.91538	1.40612
3644.98682	1.46060
3643.05825	1.50129
3641.12969	1.54142
3639.20112	1.58536
3637.27256	1.62992
3635.34399	1.67352
3633.41543	1.71679
3631.48687	1.75605
3629.55830	1.79452
3627.62974	1.84793
3625.70117	1.90158
3623.77261	1.93761
3621.84404	1.96985
3619.91548	2.00603
3617.98691	2.05183
3616.05835	2.09721
3614.12979	2.13475
3612.20122	2.17430
3610.27266	2.21415
3608.34409	2.25393
3606.41553	2.29710
3604.48696	2.33770
3602.55840	2.37219
3600.62983	2.40804
3598.70127	2.44883
3596.77271	2.49019
3594.84414	2.53196
3592.91558	2.57581
3590.98701	2.61673
3589.05845	2.65209
3587.12988	2.69373
3585.20132	2.74292
3583.27275	2.78615
3581.34419	2.82529
3579.41562	2.86550
3577.48706	2.90737
3575.55850	2.95006
3573.62993	2.99370
3571.70137	3.03548
3569.77280	3.07432
3567.84424	3.11483
3565.91567	3.16585
3563.98711	3.21843
3562.05854	3.26219
3560.12998	3.30426
3558.20142	3.34898
3556.27285	3.39489
3554.34429	3.43856
3552.41572	3.48431
3550.48716	3.53318
3548.55859	3.57834
3546.63003	3.62052
3544.70146	3.66678
3542.77290	3.71606
3540.84434	3.76478
3538.91577	3.81398
3536.98721	3.86135
3535.05864	3.90808
3533.13008	3.95660
3531.20151	4.00584
3529.27295	4.05421
3527.34438	4.10272
3525.41582	4.15112
3523.48726	4.19722
3521.55869	4.24138
3519.63013	4.28760
3517.70156	4.34067
3515.77300	4.39518
3513.84443	4.44403
3511.91587	4.49165
3509.98730	4.54431
3508.05874	4.59529
3506.13018	4.63712
3504.20161	4.67714
3502.27305	4.72241
3500.34448	4.76637
3498.41592	4.80666
3496.48735	4.85599
3494.55879	4.91408
3492.63022	4.96752
3490.70166	5.01919
3488.77310	5.07180
3486.84453	5.11791
3484.91597	5.16621
3482.98740	5.21855
3481.05884	5.25779
3479.13027	5.28789
3477.20171	5.32641
3475.27314	5.37354
3473.34458	5.42808
3471.41602	5.48619
3469.48745	5.53472
3467.55889	5.57645
3465.63032	5.62239
3463.70176	5.67191
3461.77319	5.71779
3459.84463	5.76320
3457.91606	5.81589
3455.98750	5.87432
3454.05894	5.92841
3452.13037	5.98156
3450.20181	6.03808
3448.27324	6.07790
3446.34468	6.10889
3444.41611	6.15248
3442.48755	6.20559
3440.55898	6.26214
3438.63042	6.31608
3436.70186	6.35991
3434.77329	6.40691
3432.84473	6.46202
3430.91616	6.49708
3428.98760	6.52134
3427.05903	6.55350
3425.13047	6.59462
3423.20190	6.64816
3421.27334	6.69950
3419.34478	6.73992
3417.41621	6.80817
3415.48765	6.91234
3413.55908	6.99943
3411.63052	7.05603
3409.70195	7.08371
3407.77339	7.07268
3405.84482	7.05693
3403.91626	7.09977
3401.98770	7.19151
3400.05913	7.29041
3398.13057	7.36896
3396.20200	7.38569
3394.27344	7.37058
3392.34487	7.36110
3390.41631	7.36608
3388.48774	7.39258
3386.55918	7.44078
3384.63062	7.47335
3382.70205	7.48654
3380.77349	7.54029
3378.84492	7.64789
3376.91636	7.73387
3374.98779	7.72282
3373.05923	7.67998
3371.13066	7.65708
3369.20210	7.67600
3367.27354	7.71827
3365.34497	7.74832
3363.41641	7.80141
3361.48784	7.87399
3359.55928	7.88459
3357.63071	7.82637
3355.70215	7.86820
3353.77358	8.03583
3351.84502	8.14924
3349.91646	8.10737
3347.98789	8.00232
3346.05933	7.94492
3344.13076	7.96398
3342.20220	8.04127
3340.27363	8.06327
3338.34507	8.01121
3336.41650	8.03294
3334.48794	8.11644
3332.55937	8.07985
3330.63081	7.96503
3328.70225	7.88737
3326.77368	7.87406
3324.84512	7.97959
3322.91655	8.13168
3320.98799	8.15388
3319.05942	8.08796
3317.13086	8.06346
3315.20229	8.05341
3313.27373	8.07083
3311.34517	8.09270
3309.41660	8.03445
3307.48804	8.00005
3305.55947	8.03626
3303.63091	8.01925
3301.70234	7.98442
3299.77378	8.06893
3297.84521	8.18336
3295.91665	8.20484
3293.98809	8.15290
3292.05952	8.09012
3290.13096	8.06285
3288.20239	8.06019
3286.27383	8.07898
3284.34526	8.06944
3282.41670	8.05923
3280.48813	8.17339
3278.55957	8.31720
3276.63101	8.31273
3274.70244	8.29722
3272.77388	8.33410
3270.84531	8.32716
3268.91675	8.26815
3266.98818	8.15758
3265.05962	8.04173
3263.13105	8.02239
3261.20249	8.16090
3259.27393	8.31423
3257.34536	8.27085
3255.41680	8.12172
3253.48823	8.01835
3251.55967	7.97373
3249.63110	7.98067
3247.70254	7.98928
3245.77397	7.93027
3243.84541	7.86649
3241.91685	7.83456
3239.98828	7.86192
3238.05972	8.00858
3236.13115	8.20952
3234.20259	8.34470
3232.27402	8.29954
3230.34546	8.10456
3228.41689	7.98104
3226.48833	7.96398
3224.55977	7.97449
3222.63120	7.97120
3220.70264	7.88524
3218.77407	7.76865
3216.84551	7.71683
3214.91694	7.74760
3212.98838	7.82436
3211.05981	7.85302
3209.13125	7.83060
3207.20269	7.86405
3205.27412	7.91272
3203.34556	7.85718
3201.41699	7.80638
3199.48843	7.83125
3197.55986	7.80842
3195.63130	7.68313
3193.70273	7.55393
3191.77417	7.48188
3189.84561	7.45289
3187.91704	7.47754
3185.98848	7.51428
3184.05991	7.45698
3182.13135	7.34737
3180.20278	7.28525
3178.27422	7.23441
3176.34565	7.15951
3174.41709	7.09040
3172.48853	7.03258
3170.55996	6.98303
3168.63140	6.92679
3166.70283	6.85867
3164.77427	6.80036
3162.84570	6.75446
3160.91714	6.69514
3158.98857	6.61031
3157.06001	6.52400
3155.13145	6.46134
3153.20288	6.41827
3151.27432	6.37719
3149.34575	6.33550
3147.41719	6.28315
3145.48862	6.20771
3143.56006	6.13776
3141.63149	6.08061
3139.70293	6.00465
3137.77437	5.92270
3135.84580	5.85374
3133.91724	5.77913
3131.98867	5.69473
3130.06011	5.61920
3128.13154	5.55387
3126.20298	5.48415
3124.27441	5.41074
3122.34585	5.34042
3120.41729	5.27149
3118.48872	5.20101
3116.56016	5.13089
3114.63159	5.06437
3112.70303	4.99988
3110.77446	4.93720
3108.84590	4.87575
3106.91733	4.80999
3104.98877	4.73609
3103.06021	4.65923
3101.13164	4.58926
3099.20308	4.52765
3097.27451	4.46575
3095.34595	4.39935
3093.41738	4.33383
3091.48882	4.27249
3089.56025	4.21287
3087.63169	4.15395
3085.70312	4.09688
3083.77456	4.03863
3081.84600	3.97480
3079.91743	3.90869
3077.98887	3.84684
3076.06030	3.78885
3074.13174	3.73065
3072.20317	3.67183
3070.27461	3.61533
3068.34604	3.56139
3066.41748	3.50665
3064.48892	3.45061
3062.56035	3.39539
3060.63179	3.34214
3058.70322	3.29009
3056.77466	3.23796
3054.84609	3.18564
3052.91753	3.13401
3050.98896	3.08322
3049.06040	3.03304
3047.13184	2.98408
3045.20327	2.93483
3043.27471	2.88462
3041.34614	2.83602
3039.41758	2.78992
3037.48901	2.74530
3035.56045	2.70045
3033.63188	2.65505
3031.70332	2.61063
3029.77476	2.56675
3027.84619	2.52275
3025.91763	2.47954
3023.98906	2.43719
3022.06050	2.39560
3020.13193	2.35475
3018.20337	2.31433
3016.27480	2.27441
3014.34624	2.23538
3012.41768	2.19741
3010.48911	2.15964
3008.56055	2.12202
3006.63198	2.08568
3004.70342	2.05019
3002.77485	2.01498
3000.84629	1.98070
2998.91772	1.94741
2996.98916	1.91484
2995.06060	1.88297
2993.13203	1.85164
2991.20347	1.82088
2989.27490	1.79097
2987.34634	1.76144
2985.41777	1.73195
2983.48921	1.70318
2981.56064	1.67551
2979.63208	1.64875
2977.70352	1.62290
2975.77495	1.59731
2973.84639	1.57127
2971.91782	1.54535
2969.98926	1.52049
2968.06069	1.49653
2966.13213	1.47265
2964.20356	1.44845
2962.27500	1.42424
2960.34644	1.40023
2958.41787	1.37620
2956.48931	1.35215
2954.56074	1.32843
2952.63218	1.30492
2950.70361	1.28157
2948.77505	1.25888
2946.84648	1.23667
2944.91792	1.21479
2942.98936	1.19347
2941.06079	1.17228
2939.13223	1.15100
2937.20366	1.13012
2935.27510	1.10979
2933.34653	1.08970
2931.41797	1.06964
2929.48940	1.04952
2927.56084	1.02984
2925.63228	1.01128
2923.70371	0.99392
2921.77515	0.97700
2919.84658	0.95984
2917.91802	0.94277
2915.98945	0.92574
2914.06089	0.90869
2912.13232	0.89228
2910.20376	0.87675
2908.27520	0.86187
2906.34663	0.84745
2904.41807	0.83326
2902.48950	0.81909
2900.56094	0.80526
2898.63237	0.79220
2896.70381	0.77976
2894.77524	0.76733
2892.84668	0.75463
2890.91812	0.74217
2888.98955	0.73038
2887.06099	0.71910
2885.13242	0.70837
2883.20386	0.69831
2881.27529	0.68861
2879.34673	0.67902
2877.41816	0.66922
2875.48960	0.65907
2873.56104	0.64878
2871.63247	0.63823
2869.70391	0.62695
2867.77534	0.61511
2865.84678	0.60335
2863.91821	0.59181
2861.98965	0.58021
2860.06108	0.56870
2858.13252	0.55785
2856.20396	0.54780
2854.27539	0.53821
2852.34683	0.52893
2850.41826	0.52004
2848.48970	0.51145
2846.56113	0.50334
2844.63257	0.49605
2842.70400	0.48949
2840.77544	0.48334
2838.84687	0.47726
2836.91831	0.47121
2834.98975	0.46535
2833.06118	0.45973
2831.13262	0.45405
2829.20405	0.44810
2827.27549	0.44204
2825.34692	0.43595
2823.41836	0.42986
2821.48979	0.42389
2819.56123	0.41811
2817.63267	0.41243
2815.70410	0.40666
2813.77554	0.40076
2811.84697	0.39489
2809.91841	0.38915
2807.98984	0.38353
2806.06128	0.37802
2804.13271	0.37276
2802.20415	0.36783
2800.27559	0.36304
2798.34702	0.35813
2796.41846	0.35307
2794.48989	0.34796
2792.56133	0.34292
2790.63276	0.33826
2788.70420	0.33398
2786.77563	0.32970
2784.84707	0.32526
2782.91851	0.32075
2780.98994	0.31622
2779.06138	0.31198
2777.13281	0.30824
2775.20425	0.30464
2773.27568	0.30077
2771.34712	0.29672
2769.41855	0.29287
2767.48999	0.28927
2765.56143	0.28561
2763.63286	0.28193
2761.70430	0.27855
2759.77573	0.27537
2757.84717	0.27210
2755.91860	0.26872
2753.99004	0.26537
2752.06147	0.26211
2750.13291	0.25890
2748.20435	0.25580
2746.27578	0.25293
2744.34722	0.25039
2742.41865	0.24789
2740.49009	0.24513
2738.56152	0.24232
2736.63296	0.23972
2734.70439	0.23719
2732.77583	0.23462
2730.84727	0.23202
2728.91870	0.22941
2726.99014	0.22697
2725.06157	0.22477
2723.13301	0.22256
2721.20444	0.22026
2719.27588	0.21811
2717.34731	0.21615
2715.41875	0.21421
2713.49019	0.21240
2711.56162	0.21074
2709.63306	0.20901
2707.70449	0.20712
2705.77593	0.20523
2703.84736	0.20343
2701.91880	0.20177
2699.99023	0.20031
2698.06167	0.19888
2696.13311	0.19740
2694.20454	0.19599
2692.27598	0.19454
2690.34741	0.19308
2688.41885	0.19187
2686.49028	0.19071
2684.56172	0.18941
2682.63315	0.18816
2680.70459	0.18689
2678.77603	0.18558
2676.84746	0.18439
2674.91890	0.18328
2672.99033	0.18209
2671.06177	0.18088
2669.13320	0.17979
2667.20464	0.17877
2665.27607	0.17771
2663.34751	0.17668
2661.41895	0.17579
2659.49038	0.17506
2657.56182	0.17432
2655.63325	0.17345
2653.70469	0.17262
2651.77612	0.17199
2649.84756	0.17141
2647.91899	0.17073
2645.99043	0.17002
2644.06187	0.16934
2642.13330	0.16865
2640.20474	0.16791
2638.27617	0.16722
2636.34761	0.16674
2634.41904	0.16635
2632.49048	0.16589
2630.56191	0.16539
2628.63335	0.16498
2626.70479	0.16469
2624.77622	0.16441
2622.84766	0.16408
2620.91909	0.16378
2618.99053	0.16353
2617.06196	0.16328
2615.13340	0.16299
2613.20483	0.16263
2611.27627	0.16228
2609.34771	0.16207
2607.41914	0.16197
2605.49058	0.16190
2603.56201	0.16185
2601.63345	0.16180
2599.70488	0.16169
2597.77632	0.16152
2595.84775	0.16139
2593.91919	0.16142
2591.99062	0.16161
2590.06206	0.16198
2588.13350	0.16236
2586.20493	0.16247
2584.27637	0.16253
2582.34780	0.16271
2580.41924	0.16286
2578.49067	0.16297
2576.56211	0.16311
2574.63354	0.16331
2572.70498	0.16360
2570.77642	0.16384
2568.84785	0.16408
2566.91929	0.16453
2564.99072	0.16508
2563.06216	0.16552
2561.13359	0.16582
2559.20503	0.16607
2557.27646	0.16638
2555.34790	0.16683
2553.41934	0.16732
2551.49077	0.16770
2549.56221	0.16806
2547.63364	0.16858
2545.70508	0.16922
2543.77651	0.16982
2541.84795	0.17037
2539.91938	0.17101
2537.99082	0.17173
2536.06226	0.17236
2534.13369	0.17289
2532.20513	0.17341
2530.27656	0.17403
2528.34800	0.17475
2526.41943	0.17547
2524.49087	0.17621
2522.56230	0.17692
2520.63374	0.17757
2518.70518	0.17821
2516.77661	0.17883
2514.84805	0.17944
2512.91948	0.18015
2510.99092	0.18095
2509.06235	0.18178
2507.13379	0.18267
2505.20522	0.18358
2503.27666	0.18441
2501.34810	0.18509
2499.41953	0.18578
2497.49097	0.18656
2495.56240	0.18733
2493.63384	0.18803
2491.70527	0.18877
2489.77671	0.18964
2487.84814	0.19050
2485.91958	0.19132
2483.99102	0.19220
2482.06245	0.19312
2480.13389	0.19396
2478.20532	0.19484
2476.27676	0.19575
2474.34819	0.19653
2472.41963	0.19727
2470.49106	0.19814
2468.56250	0.19917
2466.63394	0.20023
2464.70537	0.20114
2462.77681	0.20196
2460.84824	0.20277
2458.91968	0.20363
2456.99111	0.20458
2455.06255	0.20552
2453.13398	0.20646
2451.20542	0.20746
2449.27686	0.20848
2447.34829	0.20943
2445.41973	0.21023
2443.49116	0.21103
2441.56260	0.21198
2439.63403	0.21297
2437.70547	0.21388
2435.77690	0.21474
2433.84834	0.21568
2431.91978	0.21679
2429.99121	0.21805
2428.06265	0.21932
2426.13408	0.22046
2424.20552	0.22146
2422.27695	0.22246
2420.34839	0.22351
2418.41982	0.22456
2416.49126	0.22570
2414.56270	0.22690
2412.63413	0.22804
2410.70557	0.22917
2408.77700	0.23032
2406.84844	0.23147
2404.91987	0.23262
2402.99131	0.23374
2401.06274	0.23494
2399.13418	0.23618
2397.20562	0.23740
2395.27705	0.23859
2393.34849	0.23977
2391.41992	0.24096
2389.49136	0.24214
2387.56279	0.24316
2385.63423	0.24394
2383.70566	0.24458
2381.77710	0.24512
2379.84854	0.24548
2377.91997	0.24569
2375.99141	0.24581
2374.06284	0.24568
2372.13428	0.24511
2370.20571	0.24470
2368.27715	0.24469
2366.34858	0.24453
2364.42002	0.24428
2362.49146	0.24400
2360.56289	0.24390
2358.63433	0.24510
2356.70576	0.24760
2354.77720	0.25124
2352.84863	0.25622
2350.92007	0.26090
2348.99150	0.26364
2347.06294	0.26449
2345.13437	0.26414
2343.20581	0.26398
2341.27725	0.26481
2339.34868	0.26578
2337.42012	0.26717
2335.49155	0.26969
2333.56299	0.27241
2331.63442	0.27480
2329.70586	0.27731
2327.77729	0.27964
2325.84873	0.28148
2323.92017	0.28359
2321.99160	0.28639
2320.06304	0.28924
2318.13447	0.29167
2316.20591	0.29380
2314.27734	0.29599
2312.34878	0.29828
2310.42021	0.30074
2308.49165	0.30338
2306.56309	0.30592
2304.63452	0.30815
2302.70596	0.31011
2300.77739	0.31198
2298.84883	0.31394
2296.92026	0.31601
2294.99170	0.31819
2293.06313	0.32046
2291.13457	0.32271
2289.20601	0.32486
2287.27744	0.32699
2285.34888	0.32913
2283.42031	0.33124
2281.49175	0.33330
2279.56318	0.33529
2277.63462	0.33718
2275.70605	0.33909
2273.77749	0.34115
2271.84893	0.34320
2269.92036	0.34518
2267.99180	0.34725
2266.06323	0.34944
2264.13467	0.35163
2262.20610	0.35387
2260.27754	0.35624
2258.34897	0.35859
2256.42041	0.36069
2254.49185	0.36269
2252.56328	0.36488
2250.63472	0.36721
2248.70615	0.36947
2246.77759	0.37153
2244.84902	0.37356
2242.92046	0.37577
2240.99189	0.37811
2239.06333	0.38043
2237.13477	0.38281
2235.20620	0.38512
2233.27764	0.38728
2231.34907	0.38946
2229.42051	0.39175
2227.49194	0.39414
2225.56338	0.39650
2223.63481	0.39871
2221.70625	0.40076
2219.77769	0.40280
2217.84912	0.40495
2215.92056	0.40724
2213.99199	0.40957
2212.06343	0.41182
2210.13486	0.41398
2208.20630	0.41606
2206.27773	0.41806
2204.34917	0.42010
2202.42061	0.42223
2200.49204	0.42429
2198.56348	0.42618
2196.63491	0.42810
2194.70635	0.43023
2192.77778	0.43234
2190.84922	0.43420
2188.92065	0.43590
2186.99209	0.43758
2185.06353	0.43932
2183.13496	0.44112
2181.20640	0.44285
2179.27783	0.44443
2177.34927	0.44597
2175.42070	0.44760
2173.49214	0.44927
2171.56357	0.45075
2169.63501	0.45200
2167.70645	0.45322
2165.77788	0.45453
2163.84932	0.45590
2161.92075	0.45720
2159.99219	0.45835
2158.06362	0.45933
2156.13506	0.46024
2154.20649	0.46113
2152.27793	0.46190
2150.34937	0.46259
2148.42080	0.46341
2146.49224	0.46421
2144.56367	0.46467
2142.63511	0.46487
2140.70654	0.46507
2138.77798	0.46526
2136.84941	0.46538
2134.92085	0.46546
2132.99229	0.46550
2131.06372	0.46544
2129.13516	0.46533
2127.20659	0.46525
2125.27803	0.46509
2123.34946	0.46468
2121.42090	0.46410
2119.49233	0.46338
2117.56377	0.46260
2115.63521	0.46191
2113.70664	0.46132
2111.77808	0.46067
2109.84951	0.45973
2107.92095	0.45860
2105.99238	0.45743
2104.06382	0.45624
2102.13525	0.45499
2100.20669	0.45367
2098.27812	0.45232
2096.34956	0.45087
2094.42100	0.44923
2092.49243	0.44752
2090.56387	0.44590
2088.63530	0.44426
2086.70674	0.44245
2084.77817	0.44053
2082.84961	0.43867
2080.92104	0.43675
2078.99248	0.43462
2077.06392	0.43237
2075.13535	0.43018
2073.20679	0.42802
2071.27822	0.42584
2069.34966	0.42361
2067.42109	0.42129
2065.49253	0.41898
2063.56396	0.41664
2061.63540	0.41417
2059.70684	0.41165
2057.77827	0.40921
2055.84971	0.40680
2053.92114	0.40424
2051.99258	0.40152
2050.06401	0.39876
2048.13545	0.39607
2046.20688	0.39345
2044.27832	0.39079
2042.34976	0.38800
2040.42119	0.38512
2038.49263	0.38235
2036.56406	0.37970
2034.63550	0.37698
2032.70693	0.37416
2030.77837	0.37135
2028.84980	0.36852
2026.92124	0.36569
2024.99268	0.36289
2023.06411	0.36008
2021.13555	0.35724
2019.20698	0.35446
2017.27842	0.35172
2015.34985	0.34902
2013.42129	0.34632
2011.49272	0.34354
2009.56416	0.34074
2007.63560	0.33798
2005.70703	0.33525
2003.77847	0.33254
2001.84990	0.32986
1999.92134	0.32717
1997.99277	0.32449
1996.06421	0.32189
1994.13564	0.31933
1992.20708	0.31673
1990.27852	0.31418
1988.34995	0.31174
1986.42139	0.30927
1984.49282	0.30679
1982.56426	0.30437
1980.63569	0.30201
1978.70713	0.29975
1976.77856	0.29749
1974.85000	0.29516
1972.92144	0.29286
1970.99287	0.29070
1969.06431	0.28859
1967.13574	0.28648
1965.20718	0.28446
1963.27861	0.28253
1961.35005	0.28057
1959.42148	0.27862
1957.49292	0.27674
1955.56436	0.27497
1953.63579	0.27331
1951.70723	0.27161
1949.77866	0.26979
1947.85010	0.26797
1945.92153	0.26630
1943.99297	0.26472
1942.06440	0.26325
1940.13584	0.26190
1938.20728	0.26058
1936.27871	0.25921
1934.35015	0.25783
1932.42158	0.25656
1930.49302	0.25534
1928.56445	0.25413
1926.63589	0.25295
1924.70732	0.25178
1922.77876	0.25063
1920.85020	0.24958
1918.92163	0.24862
1916.99307	0.24778
1915.06450	0.24705
1913.13594	0.24628
1911.20737	0.24548
1909.27881	0.24464
1907.35024	0.24392
1905.42168	0.24339
1903.49312	0.24287
1901.56455	0.24231
1899.63599	0.24178
1897.70742	0.24125
1895.77886	0.24072
1893.85029	0.24032
1891.92173	0.23994
1889.99316	0.23960
1888.06460	0.23936
1886.13604	0.23918
1884.20747	0.23896
1882.27891	0.23869
1880.35034	0.23845
1878.42178	0.23834
1876.49321	0.23839
1874.56465	0.23840
1872.63608	0.23832
1870.70752	0.23809
1868.77896	0.23798
1866.85039	0.23828
1864.92183	0.23878
1862.99326	0.23920
1861.06470	0.23949
1859.13613	0.23983
1857.20757	0.24024
1855.27900	0.24072
1853.35044	0.24119
1851.42187	0.24167
1849.49331	0.24212
1847.56475	0.24253
1845.63618	0.24301
1843.70762	0.24388
1841.77905	0.24496
1839.85049	0.24562
1837.92192	0.24632
1835.99336	0.24729
1834.06479	0.24827
1832.13623	0.24898
1830.20767	0.24996
1828.27910	0.25142
1826.35054	0.25264
1824.42197	0.25400
1822.49341	0.25557
1820.56484	0.25705
1818.63628	0.25849
1816.70771	0.26008
1814.77915	0.26157
1812.85059	0.26308
1810.92202	0.26495
1808.99346	0.26707
1807.06489	0.26910
1805.13633	0.27097
1803.20776	0.27299
1801.27920	0.27523
1799.35063	0.27791
1797.42207	0.28055
1795.49351	0.28297
1793.56494	0.28550
1791.63638	0.28897
1789.70781	0.29286
1787.77925	0.29582
1785.85068	0.29886
1783.92212	0.30234
1781.99355	0.30608
1780.06499	0.31020
1778.13643	0.31456
1776.20786	0.31842
1774.27930	0.32217
1772.35073	0.32745
1770.42217	0.33400
1768.49360	0.33995
1766.56504	0.34551
1764.63647	0.35077
1762.70791	0.35623
1760.77935	0.36339
1758.85078	0.37043
1756.92222	0.37766
1754.99365	0.38559
1753.06509	0.39239
1751.13652	0.39984
1749.20796	0.40958
1747.27939	0.42002
1745.35083	0.42944
1743.42227	0.43910
1741.49370	0.44948
1739.56514	0.46175
1737.63657	0.47416
1735.70801	0.48457
1733.77944	0.50021
1731.85088	0.52014
1729.92231	0.53639
1727.99375	0.55272
1726.06519	0.56972
1724.13662	0.58805
1722.20806	0.60790
1720.27949	0.62564
1718.35093	0.64586
1716.42236	0.67783
1714.49380	0.70989
1712.56523	0.73554
1710.63667	0.75981
1708.70811	0.78521
1706.77954	0.81366
1704.85098	0.84849
1702.92241	0.87996
1700.99385	0.91003
1699.06528	0.95588
1697.13672	0.99997
1695.20815	1.04584
1693.27959	1.08953
1691.35103	1.12388
1689.42246	1.16418
1687.49390	1.20734
1685.56533	1.24790
1683.63677	1.31207
1681.70820	1.38182
1679.77964	1.42540
1677.85107	1.46575
1675.92251	1.51208
1673.99395	1.57107
1672.06538	1.62345
1670.13682	1.67431
1668.20825	1.74385
1666.27969	1.80091
1664.35112	1.84911
1662.42256	1.91091
1660.49399	1.98276
1658.56543	2.03788
1656.63687	2.08154
1654.70830	2.11899
1652.77974	2.17610
1650.85117	2.23510
1648.92261	2.25636
1646.99404	2.28554
1645.06548	2.31651
1643.13691	2.33351
1641.20835	2.34021
1639.27979	2.34781
1637.35122	2.35356
1635.42266	2.35344
1633.49409	2.34626
1631.56553	2.33266
1629.63696	2.31510
1627.70840	2.28421
1625.77983	2.24949
1623.85127	2.20629
1621.92271	2.15322
1619.99414	2.10702
1618.06558	2.06060
1616.13701	1.99132
1614.20845	1.92371
1612.27988	1.87536
1610.35132	1.82448
1608.42275	1.76823
1606.49419	1.71260
1604.56562	1.66212
1602.63706	1.61336
1600.70850	1.56540
1598.77993	1.52162
1596.85137	1.48122
1594.92280	1.44195
1592.99424	1.40352
1591.06567	1.36842
1589.13711	1.33592
1587.20854	1.30623
1585.27998	1.27904
1583.35142	1.25352
1581.42285	1.23036
1579.49429	1.21090
1577.56572	1.19388
1575.63716	1.17374
1573.70859	1.15692
1571.78003	1.14661
1569.85146	1.13617
1567.92290	1.12509
1565.99434	1.11759
1564.06577	1.11240
1562.13721	1.10865
1560.20864	1.10737
1558.28008	1.11074
1556.35151	1.11563
1554.42295	1.11801
1552.49438	1.12008
1550.56582	1.12033
1548.63726	1.11779
1546.70869	1.11239
1544.78013	1.10330
1542.85156	1.09008
1540.92300	1.06932
1538.99443	1.03830
1537.06587	1.01827
1535.13730	1.00416
1533.20874	0.98333
1531.28018	0.96115
1529.35161	0.94541
1527.42305	0.93030
1525.49448	0.91441
1523.56592	0.90055
1521.63735	0.88736
1519.70879	0.87537
1517.78022	0.86572
1515.85166	0.85384
1513.92310	0.84162
1511.99453	0.83084
1510.06597	0.82023
1508.13740	0.80896
1506.20884	0.79264
1504.28027	0.78091
1502.35171	0.77456
1500.42314	0.76824
1498.49458	0.76092
1496.56602	0.75244
1494.63745	0.74477
1492.70889	0.73903
1490.78032	0.73366
1488.85176	0.72745
1486.92319	0.72221
1484.99463	0.71855
1483.06606	0.71567
1481.13750	0.71313
1479.20894	0.71124
1477.28037	0.71022
1475.35181	0.70967
1473.42324	0.70948
1471.49468	0.70926
1469.56611	0.70809
1467.63755	0.70612
1465.70898	0.70410
1463.78042	0.70274
1461.85186	0.70205
1459.92329	0.70144
1457.99473	0.70089
1456.06616	0.70037
1454.13760	0.69874
1452.20903	0.69636
1450.28047	0.69364
1448.35190	0.69078
1446.42334	0.68793
1444.49478	0.68543
1442.56621	0.68302
1440.63765	0.68041
1438.70908	0.67742
1436.78052	0.67335
1434.85195	0.66917
1432.92339	0.66639
1430.99482	0.66461
1429.06626	0.66391
1427.13770	0.66418
1425.20913	0.66479
1423.28057	0.66563
1421.35200	0.66628
1419.42344	0.66671
1417.49487	0.66708
1415.56631	0.66678
1413.63774	0.66623
1411.70918	0.66609
1409.78062	0.66669
1407.85205	0.66787
1405.92349	0.66939
1403.99492	0.67096
1402.06636	0.67153
1400.13779	0.67063
1398.20923	0.66871
1396.28066	0.66601
1394.35210	0.66219
1392.42354	0.65785
1390.49497	0.65370
1388.56641	0.64924
1386.63784	0.64395
1384.70928	0.63854
1382.78071	0.63352
1380.85215	0.62873
1378.92358	0.62452
1376.99502	0.62120
1375.06646	0.61885
1373.13789	0.61759
1371.20933	0.61699
1369.28076	0.61644
1367.35220	0.61555
1365.42363	0.61400
1363.49507	0.61208
1361.56650	0.61052
1359.63794	0.60921
1357.70937	0.60774
1355.78081	0.60640
1353.85225	0.60541
1351.92368	0.60460
1349.99512	0.60390
1348.06655	0.60320
1346.13799	0.60232
1344.20942	0.60134
1342.28086	0.60038
1340.35229	0.59946
1338.42373	0.59871
1336.49517	0.59832
1334.56660	0.59812
1332.63804	0.59809
1330.70947	0.59829
1328.78091	0.59869
1326.85234	0.59930
1324.92378	0.60007
1322.99521	0.60095
1321.06665	0.60186
1319.13809	0.60268
1317.20952	0.60320
1315.28096	0.60330
1313.35239	0.60296
1311.42383	0.60227
1309.49526	0.60147
1307.56670	0.60077
1305.63813	0.60019
1303.70957	0.59956
1301.78101	0.59869
1299.85244	0.59763
1297.92388	0.59647
1295.99531	0.59523
1294.06675	0.59388
1292.13818	0.59234
1290.20962	0.59068
1288.28105	0.58924
1286.35249	0.58809
1284.42393	0.58691
1282.49536	0.58548
1280.56680	0.58392
1278.63823	0.58248
1276.70967	0.58120
1274.78110	0.58003
1272.85254	0.57897
1270.92397	0.57801
1268.99541	0.57710
1267.06685	0.57631
1265.13828	0.57557
1263.20972	0.57487
1261.28115	0.57419
1259.35259	0.57349
1257.42402	0.57287
1255.49546	0.57245
1253.56689	0.57229
1251.63833	0.57241
1249.70977	0.57270
1247.78120	0.57283
1245.85264	0.57273
1243.92407	0.57243
1241.99551	0.57169
1240.06694	0.57031
1238.13838	0.56836
1236.20981	0.56606
1234.28125	0.56368
1232.35269	0.56136
1230.42412	0.55912
1228.49556	0.55703
1226.56699	0.55509
1224.63843	0.55327
1222.70986	0.55145
1220.78130	0.54967
1218.85273	0.54803
1216.92417	0.54658
1214.99561	0.54537
1213.06704	0.54441
1211.13848	0.54361
1209.20991	0.54294
1207.28135	0.54228
1205.35278	0.54139
1203.42422	0.54037
1201.49565	0.53944
1199.56709	0.53851
1197.63853	0.53755
1195.70996	0.53679
1193.78140	0.53620
1191.85283	0.53563
1189.92427	0.53508
1187.99570	0.53461
1186.06714	0.53439
1184.13857	0.53444
1182.21001	0.53469
1180.28145	0.53540
1178.35288	0.53668
1176.42432	0.53824
1174.49575	0.53968
1172.56719	0.54061
1170.63862	0.54092
1168.71006	0.54089
1166.78149	0.54082
1164.85293	0.54068
1162.92437	0.54034
1160.99580	0.54003
1159.06724	0.53983
1157.13867	0.53931
1155.21011	0.53819
1153.28154	0.53684
1151.35298	0.53539
1149.42441	0.53336
1147.49585	0.53054
1145.56729	0.52746
1143.63872	0.52464
1141.71016	0.52208
1139.78159	0.51996
1137.85303	0.51858
1135.92446	0.51771
1133.99590	0.51722
1132.06733	0.51724
1130.13877	0.51730
1128.21021	0.51691
1126.28164	0.51618
1124.35308	0.51546
1122.42451	0.51498
1120.49595	0.51475
1118.56738	0.51471
1116.63882	0.51477
1114.71025	0.51493
1112.78169	0.51539
1110.85312	0.51598
1108.92456	0.51650
1106.99600	0.51726
1105.06743	0.51836
1103.13887	0.51955
1101.21030	0.52074
1099.28174	0.52210
1097.35317	0.52420
1095.42461	0.52733
1093.49604	0.53116
1091.56748	0.53554
1089.63892	0.54069
1087.71035	0.54679
1085.78179	0.55376
1083.85322	0.56126
1081.92466	0.56827
1079.99609	0.57349
1078.06753	0.57620
1076.13896	0.57618
1074.21040	0.57336
1072.28184	0.56823
1070.35327	0.56172
1068.42471	0.55476
1066.49614	0.54794
1064.56758	0.54150
1062.63901	0.53581
1060.71045	0.53100
1058.78188	0.52673
1056.85332	0.52278
1054.92476	0.51927
1052.99619	0.51629
1051.06763	0.51382
1049.13906	0.51192
1047.21050	0.51058
1045.28193	0.50965
1043.35337	0.50898
1041.42480	0.50839
1039.49624	0.50760
1037.56768	0.50665
1035.63911	0.50599
1033.71055	0.50556
1031.78198	0.50486
1029.85342	0.50384
1027.92485	0.50271
1025.99629	0.50163
1024.06772	0.50081
1022.13916	0.50053
1020.21060	0.50058
1018.28203	0.50057
1016.35347	0.50042
1014.42490	0.50024
1012.49634	0.50027
1010.56777	0.50084
1008.63921	0.50179
1006.71064	0.50282
1004.78208	0.50404
1002.85352	0.50588
1000.92495	0.50850
998.99639	0.51185
997.06782	0.51587
995.13926	0.52027
993.21069	0.52449
991.28213	0.52803
989.35356	0.53039
987.42500	0.53147
985.49644	0.53189
983.56787	0.53212
981.63931	0.53237
979.71074	0.53310
977.78218	0.53462
975.85361	0.53660
973.92505	0.53889
971.99648	0.54165
970.06792	0.54480
968.13936	0.54830
966.21079	0.55238
964.28223	0.55699
962.35366	0.56174
960.42510	0.56647
958.49653	0.57141
956.56797	0.57672
954.63940	0.58248
952.71084	0.58859
950.78228	0.59485
948.85371	0.60125
946.92515	0.60789
944.99658	0.61470
943.06802	0.62114
941.13945	0.62688
939.21089	0.63263
937.28232	0.63873
935.35376	0.64429
933.42520	0.64944
931.49663	0.65490
929.56807	0.66066
927.63950	0.66677
925.71094	0.67299
923.78237	0.67879
921.85381	0.68478
919.92524	0.69167
917.99668	0.69884
916.06812	0.70577
914.13955	0.71279
912.21099	0.72018
910.28242	0.72790
908.35386	0.73596
906.42529	0.74428
904.49673	0.75234
902.56816	0.76069
900.63960	0.77035
898.71104	0.78044
896.78247	0.78971
894.85391	0.79902
892.92534	0.80963
890.99678	0.82044
889.06821	0.83035
887.13965	0.84044
885.21108	0.85158
883.28252	0.86348
881.35396	0.87538
879.42539	0.88772
877.49683	0.90121
875.56826	0.91483
873.63970	0.92725
871.71113	0.93855
869.78257	0.94888
867.85400	0.95821
865.92544	0.96784
863.99687	0.97923
862.06831	0.99258
860.13975	1.00593
858.21118	1.01655
856.28262	1.02594
854.35405	1.03723
852.42549	1.04955
850.49692	1.06205
848.56836	1.07522
846.63979	1.08709
844.71123	1.09695
842.78267	1.10773
840.85410	1.12066
838.92554	1.13146
836.99697	1.13866
835.06841	1.14822
833.13984	1.16261
831.21128	1.17788
829.28271	1.19079
827.35415	1.20124
825.42559	1.21173
823.49702	1.22542
821.56846	1.24234
819.63989	1.26105
817.71133	1.27478
815.78276	1.27612
813.85420	1.27384
811.92563	1.28379
809.99707	1.30729
808.06851	1.32506
806.13994	1.33186
804.21138	1.34838
802.28281	1.36629
800.35425	1.36073
798.42568	1.35025
796.49712	1.34087
794.56855	1.32569
792.63999	1.33726
790.71143	1.36846
788.78286	1.36741
786.85430	1.35692
784.92573	1.39126
782.99717	1.45571
781.06860	1.50280
779.14004	1.50105
777.21147	1.42942
775.28291	1.34760
773.35435	1.30859
771.42578	1.31974
769.49722	1.39561
767.56865	1.51528
765.64009	1.50348
763.71152	1.35566
761.78296	1.24025
759.85439	1.20604
757.92583	1.28140
755.99727	1.51092
754.06870	1.85458
752.14014	1.59124
750.21157	1.26032
748.28301	1.08877
746.35444	1.04326
744.42588	1.08101
742.49731	1.07984
740.56875	0.99238
738.64019	0.91421
736.71162	0.89013
734.78306	1.00975
732.85449	4.39713
730.92593	4.38556
728.99736	1.22892
727.06880	0.86518
725.14023	0.66321
723.21167	0.46003
721.28311	0.19217
719.35454	0.03709
717.42598	0.17973
715.49741	0.57549
713.56885	0.85153
711.64028	0.59515
709.71172	0.52899
707.78315	0.74102
705.85459	4.23513
703.92603	4.22356
701.99746	0.87385
700.06890	0.77702
698.14033	0.73762
696.21177	0.64927
694.28320	0.50865
692.35464	0.45212
690.42607	0.55763
688.49751	0.56862
686.56895	0.35317
684.64038	0.25370
682.71182	0.29672
680.78325	0.48493
678.85469	0.70297
676.92612	0.51719
674.99756	0.31705
673.06899	0.23620
671.14043	0.26671
669.21187	0.31517
667.28330	0.30200
665.35474	0.30790
663.42617	0.37896
661.49761	0.47072
659.56904	0.56176
657.64048	0.68764
655.71191	0.95327
653.78335	1.07500
651.85479	0.55395
649.92622	0.32760
647.99766	0.30762
646.06909	0.37243
644.14053	0.31812
642.21196	0.28913
640.28340	0.35323
638.35483	0.34084
636.42627	0.26564
634.49771	0.27541
632.56914	0.35131
630.64058	0.44732
628.71201	0.44326
626.78345	0.34612
624.85488	0.27364
622.92632	0.24238
620.99775	0.23665
619.06919	0.23312
617.14062	0.26181
615.21206	0.39544
613.28350	0.53076
611.35493	0.50254
609.42637	0.46850
607.49780	0.40974
605.56924	0.32159
603.64067	0.27434
601.71211	0.29271
599.78354	0.34972
597.85498	0.39568
595.92642	0.41710
593.99785	0.42708
592.06929	0.44936
590.14072	0.47371
588.21216	0.47241
586.28359	0.42441
584.35503	0.31732
582.42646	0.24343
580.49790	0.27805
578.56934	0.37155
576.64077	0.35206
574.71221	0.28465
572.78364	0.28533
570.85508	0.29863
568.92651	0.30624
566.99795	0.32129
565.06938	0.24588
563.14082	0.21701
561.21226	0.33551
559.28369	0.65095
557.35513	0.98433
555.42656	0.82628
553.49800	0.81128
551.56943	0.64456
549.64087	0.51002
547.71230	0.46790
545.78374	0.44273
543.85518	0.42389
541.92661	0.44708
539.99805	0.51148
538.06948	0.58438
536.14092	0.54669
534.21235	0.39677
532.28379	0.29782
530.35522	0.26172
528.42666	0.24142
526.49810	0.24403
524.56953	0.26677
522.64097	0.28068
520.71240	0.27877
518.78384	0.27011
516.85527	0.29068
514.92671	0.38981
512.99814	0.52239
511.06958	0.54887
509.14102	0.48397
507.21245	0.42705
505.28389	0.41677
503.35532	0.39082
501.42676	0.32704
499.49819	0.30328
