3997.91411	0.06974
3995.98555	0.07074
3994.05698	0.07150
3992.12842	0.07187
3990.19985	0.07219
3988.27129	0.07247
3986.34272	0.07259
3984.41416	0.07271
3982.48560	0.07278
3980.55703	0.07281
3978.62847	0.07312
3976.69990	0.07368
3974.77134	0.07384
3972.84277	0.07372
3970.91421	0.07393
3968.98564	0.07438
3967.05708	0.07478
3965.12852	0.07492
3963.19995	0.07479
3961.27139	0.07465
3959.34282	0.07440
3957.41426	0.07417
3955.48569	0.07431
3953.55713	0.07457
3951.62856	0.07478
3949.70000	0.07508
3947.77144	0.07524
3945.84287	0.07504
3943.91431	0.07486
3941.98574	0.07496
3940.05718	0.07526
3938.12861	0.07554
3936.20005	0.07542
3934.27148	0.07490
3932.34292	0.07461
3930.41436	0.07489
3928.48579	0.07522
3926.55723	0.07524
3924.62866	0.07508
3922.70010	0.07482
3920.77153	0.07464
3918.84297	0.07477
3916.91440	0.07507
3914.98584	0.07510
3913.05728	0.07478
3911.12871	0.07441
3909.20015	0.07410
3907.27158	0.07380
3905.34302	0.07357
3903.41445	0.07366
3901.48589	0.07428
3899.55732	0.07494
3897.62876	0.07496
3895.70020	0.07461
3893.77163	0.07432
3891.84307	0.07398
3889.91450	0.07373
3887.98594	0.07390
3886.05737	0.07435
3884.12881	0.07464
3882.20024	0.07460
3880.27168	0.07434
3878.34312	0.07405
3876.41455	0.07408
3874.48599	0.07437
3872.55742	0.07477
3870.62886	0.07532
3868.70029	0.07595
3866.77173	0.07637
3864.84316	0.07688
3862.91460	0.07759
3860.98604	0.07756
3859.05747	0.07692
3857.12891	0.07666
3855.20034	0.07705
3853.27178	0.07820
3851.34321	0.07939
3849.41465	0.07938
3847.48608	0.07932
3845.55752	0.07975
3843.62896	0.08059
3841.70039	0.08152
3839.77183	0.08223
3837.84326	0.08305
3835.91470	0.08365
3833.98613	0.08386
3832.05757	0.08440
3830.12900	0.08512
3828.20044	0.08576
3826.27187	0.08644
3824.34331	0.08679
3822.41475	0.08710
3820.48618	0.08883
3818.55762	0.09076
3816.62905	0.09132
3814.70049	0.09203
3812.77192	0.09273
3810.84336	0.09297
3808.91479	0.09341
3806.98623	0.09456
3805.05767	0.09623
3803.12910	0.09772
3801.20054	0.09950
3799.27197	0.10090
3797.34341	0.10119
3795.41484	0.10190
3793.48628	0.10305
3791.55771	0.10412
3789.62915	0.10551
3787.70059	0.10696
3785.77202	0.10820
3783.84346	0.10964
3781.91489	0.11132
3779.98633	0.11295
3778.05776	0.11463
3776.12920	0.11607
3774.20063	0.11733
3772.27207	0.11876
3770.34351	0.12072
3768.41494	0.12320
3766.48638	0.12500
3764.55781	0.12641
3762.62925	0.12824
3760.70068	0.13051
3758.77212	0.13351
3756.84355	0.13643
3754.91499	0.13819
3752.98643	0.13979
3751.05786	0.14309
3749.12930	0.14795
3747.20073	0.15069
3745.27217	0.15250
3743.34360	0.15627
3741.41504	0.16008
3739.48647	0.16245
3737.55791	0.16508
3735.62935	0.16915
3733.70078	0.17475
3731.77222	0.18009
3729.84365	0.18429
3727.91509	0.18809
3725.98652	0.19304
3724.05796	0.19973
3722.12939	0.20730
3720.20083	0.21524
3718.27227	0.22306
3716.34370	0.23069
3714.41514	0.23815
3712.48657	0.24667
3710.55801	0.25919
3708.62944	0.27398
3706.70088	0.28643
3704.77231	0.29760
3702.84375	0.31023
3700.91519	0.32689
3698.98662	0.34546
3697.05806	0.36284
3695.12949	0.38105
3693.20093	0.40064
3691.27236	0.42196
3689.34380	0.44997
3687.41523	0.48591
3685.48667	0.51741
3683.55811	0.54367
3681.62954	0.57138
3679.70098	0.60267
3677.77241	0.63545
3675.84385	0.67419
3673.91528	0.72854
3671.98672	0.77303
3670.05815	0.81179
3668.12959	0.86663
3666.20103	0.91632
3664.27246	0.95681
3662.34390	1.00018
3660.41533	1.04718
3658.48677	1.09363
3656.55820	1.14343
3654.62964	1.19927
3652.70107	1.24482
3650.77251	1.28287
3648.84395	1.33812
3646.91538	1.40996
3644.98682	1.46151
3643.05825	1.50031
3641.12969	1.54042
3639.20112	1.58483
3637.27256	1.62971
3635.34399	1.67354
3633.41543	1.71700
3631.48687	1.75687
3629.55830	1.79680
3627.62974	1.85123
3625.70117	1.90282
3623.77261	1.93640
3621.84404	1.96855
3619.91548	2.00653
3617.98691	2.05346
3616.05835	2.09767
3614.12979	2.13383
3612.20122	2.17360
3610.27266	2.21422
3608.34409	2.25418
3606.41553	2.29689
3604.48696	2.33668
3602.55840	2.37107
3600.62983	2.40754
3598.70127	2.44846
3596.77271	2.48994
3594.84414	2.53253
3592.91558	2.57532
3590.98701	2.61298
3589.05845	2.64664
3587.12988	2.68941
3585.20132	2.74024
3583.27275	2.78369
3581.34419	2.82273
3579.41562	2.86376
3577.48706	2.90595
3575.55850	2.94709
3573.62993	2.98919
3571.70137	3.03010
3569.77280	3.06806
3567.84424	3.10907
3565.91567	3.16313
3563.98711	3.21760
3562.05854	3.26144
3560.12998	3.30457
3558.20142	3.34920
3556.27285	3.39303
3554.34429	3.43619
3552.41572	3.48297
3550.48716	3.53177
3548.55859	3.57683
3546.63003	3.62037
3544.70146	3.66799
3542.77290	3.71610
3540.84434	3.76134
3538.91577	3.80682
3536.98721	3.85257
3535.05864	3.89980
3533.13008	3.94709
3531.20151	3.99338
3529.27295	4.04148
3527.34438	4.09331
3525.41582	4.14351
3523.48726	4.18934
3521.55869	4.23781
3519.63013	4.28858
3517.70156	4.33867
3515.77300	4.38646
3513.84443	4.43048
3511.91587	4.47465
3509.98730	4.52287
3508.05874	4.57102
3506.13018	4.61476
3504.20161	4.65882
3502.27305	4.70800
3500.34448	4.75920
3498.41592	4.80872
3496.48735	4.85679
3494.55879	4.90277
3492.63022	4.94809
3490.70166	4.99276
3488.77310	5.03779
3486.84453	5.08901
3484.91597	5.14649
3482.98740	5.20398
3481.05884	5.25488
3479.13027	5.29506
3477.20171	5.33105
3475.27314	5.37070
3473.34458	5.41868
3471.41602	5.47632
3469.48745	5.53677
3467.55889	5.59254
3465.63032	5.64319
3463.70176	5.69578
3461.77319	5.74757
3459.84463	5.78792
3457.91606	5.81568
3455.98750	5.84541
3454.05894	5.89356
3452.13037	5.95621
3450.20181	6.01643
3448.27324	6.07022
3446.34468	6.11789
3444.41611	6.15236
3442.48755	6.18688
3440.55898	6.23232
3438.63042	6.29350
3436.70186	6.35977
3434.77329	6.40688
3432.84473	6.43794
3430.91616	6.47664
3428.98760	6.53235
3427.05903	6.58029
3425.13047	6.63375
3423.20190	6.70482
3421.27334	6.74544
3419.34478	6.74620
3417.41621	6.77250
3415.48765	6.84486
3413.55908	6.91017
3411.63052	6.95218
3409.70195	6.99008
3407.77339	7.01377
3405.84482	7.01754
3403.91626	7.05616
3401.98770	7.13829
3400.05913	7.21891
3398.13057	7.27424
3396.20200	7.30476
3394.27344	7.33847
3392.34487	7.35477
3390.41631	7.36484
3388.48774	7.42506
3386.55918	7.52645
3384.63062	7.58438
3382.70205	7.57857
3380.77349	7.57869
3378.84492	7.60855
3376.91636	7.64097
3374.98779	7.64488
3373.05923	7.63370
3371.13066	7.60720
3369.20210	7.58373
3367.27354	7.59470
3365.34497	7.65490
3363.41641	7.71351
3361.48784	7.72322
3359.55928	7.76012
3357.63071	7.85952
3355.70215	7.94430
3353.77358	7.93526
3351.84502	7.92012
3349.91646	7.94671
3347.98789	7.96711
3346.05933	7.94386
3344.13076	7.88731
3342.20220	7.87127
3340.27363	7.86833
3338.34507	7.85015
3336.41650	7.85664
3334.48794	7.90741
3332.55937	7.96477
3330.63081	7.98083
3328.70225	7.93081
3326.77368	7.89495
3324.84512	7.96225
3322.91655	8.05984
3320.98799	8.12803
3319.05942	8.12324
3317.13086	8.03373
3315.20229	7.95571
3313.27373	7.90141
3311.34517	7.84532
3309.41660	7.87195
3307.48804	8.01660
3305.55947	8.16287
3303.63091	8.16469
3301.70234	8.06824
3299.77378	8.07460
3297.84521	8.20747
3295.91665	8.31669
3293.98809	8.25316
3292.05952	8.12714
3290.13096	8.07423
3288.20239	8.01932
3286.27383	7.92514
3284.34526	7.83204
3282.41670	7.79765
3280.48813	7.86339
3278.55957	8.01555
3276.63101	8.10545
3274.70244	8.08342
3272.77388	8.09974
3270.84531	8.11966
3268.91675	8.07271
3266.98818	8.00926
3265.05962	7.95513
3263.13105	7.94661
3261.20249	8.00186
3259.27393	8.00500
3257.34536	7.96250
3255.41680	8.01711
3253.48823	8.11045
3251.55967	8.09449
3249.63110	8.03647
3247.70254	8.05027
3245.77397	8.06149
3243.84541	8.01381
3241.91685	8.01021
3239.98828	8.07120
3238.05972	8.08487
3236.13115	8.01944
3234.20259	7.96413
3232.27402	7.97311
3230.34546	7.95341
3228.41689	7.84161
3226.48833	7.78613
3224.55977	7.85974
3222.63120	7.97480
3220.70264	7.98530
3218.77407	7.84660
3216.84551	7.73243
3214.91694	7.78589
3212.98838	7.91979
3211.05981	7.93480
3209.13125	7.84816
3207.20269	7.79316
3205.27412	7.79731
3203.34556	7.78382
3201.41699	7.71995
3199.48843	7.69041
3197.55986	7.66938
3195.63130	7.56327
3193.70273	7.43751
3191.77417	7.37775
3189.84561	7.40259
3187.91704	7.46760
3185.98848	7.44831
3184.05991	7.33743
3182.13135	7.24574
3180.20278	7.18599
3178.27422	7.13202
3176.34565	7.09060
3174.41709	7.04920
3172.48853	7.00506
3170.55996	6.98111
3168.63140	6.95567
3166.70283	6.89008
3164.77427	6.82205
3162.84570	6.77434
3160.91714	6.70538
3158.98857	6.61423
3157.06001	6.52822
3155.13145	6.46000
3153.20288	6.41206
3151.27432	6.36138
3149.34575	6.28703
3147.41719	6.21644
3145.48862	6.16232
3143.56006	6.10083
3141.63149	6.03620
3139.70293	5.96529
3137.77437	5.88355
3135.84580	5.81557
3133.91724	5.75229
3131.98867	5.67280
3130.06011	5.59986
3128.13154	5.53683
3126.20298	5.46481
3124.27441	5.39651
3122.34585	5.33497
3120.41729	5.26733
3118.48872	5.19858
3116.56016	5.13019
3114.63159	5.05296
3112.70303	4.97536
3110.77446	4.91013
3108.84590	4.85202
3106.91733	4.79298
3104.98877	4.72885
3103.06021	4.66202
3101.13164	4.59599
3099.20308	4.53084
3097.27451	4.46640
3095.34595	4.40083
3093.41738	4.33592
3091.48882	4.27153
3089.56025	4.20659
3087.63169	4.14463
3085.70312	4.08409
3083.77456	4.02104
3081.84600	3.95882
3079.91743	3.90140
3077.98887	3.84416
3076.06030	3.78206
3074.13174	3.72051
3072.20317	3.66412
3070.27461	3.60914
3068.34604	3.55332
3066.41748	3.49763
3064.48892	3.44198
3062.56035	3.38648
3060.63179	3.33284
3058.70322	3.28079
3056.77466	3.22786
3054.84609	3.17464
3052.91753	3.12401
3050.98896	3.07571
3049.06040	3.02649
3047.13184	2.97632
3045.20327	2.92732
3043.27471	2.87898
3041.34614	2.83038
3039.41758	2.78314
3037.48901	2.73801
3035.56045	2.69275
3033.63188	2.64656
3031.70332	2.60056
3029.77476	2.55553
3027.84619	2.51231
3025.91763	2.47040
3023.98906	2.42868
3022.06050	2.38701
3020.13193	2.34576
3018.20337	2.30582
3016.27480	2.26695
3014.34624	2.22779
3012.41768	2.18848
3010.48911	2.15008
3008.56055	2.11311
3006.63198	2.07729
3004.70342	2.04183
3002.77485	2.00662
3000.84629	1.97234
2998.91772	1.93921
2996.98916	1.90709
2995.06060	1.87568
2993.13203	1.84444
2991.20347	1.81333
2989.27490	1.78313
2987.34634	1.75411
2985.41777	1.72562
2983.48921	1.69701
2981.56064	1.66823
2979.63208	1.64033
2977.70352	1.61375
2975.77495	1.58750
2973.84639	1.56144
2971.91782	1.53597
2969.98926	1.51090
2968.06069	1.48635
2966.13213	1.46265
2964.20356	1.43931
2962.27500	1.41542
2960.34644	1.39077
2958.41787	1.36607
2956.48931	1.34201
2954.56074	1.31858
2952.63218	1.29518
2950.70361	1.27166
2948.77505	1.24852
2946.84648	1.22596
2944.91792	1.20383
2942.98936	1.18222
2941.06079	1.16099
2939.13223	1.14005
2937.20366	1.11960
2935.27510	1.09960
2933.34653	1.07991
2931.41797	1.06022
2929.48940	1.04037
2927.56084	1.02121
2925.63228	1.00315
2923.70371	0.98532
2921.77515	0.96717
2919.84658	0.94919
2917.91802	0.93190
2915.98945	0.91511
2914.06089	0.89867
2912.13232	0.88305
2910.20376	0.86818
2908.27520	0.85344
2906.34663	0.83884
2904.41807	0.82472
2902.48950	0.81097
2900.56094	0.79723
2898.63237	0.78373
2896.70381	0.77067
2894.77524	0.75798
2892.84668	0.74566
2890.91812	0.73364
2888.98955	0.72203
2887.06099	0.71093
2885.13242	0.70032
2883.20386	0.69028
2881.27529	0.68057
2879.34673	0.67083
2877.41816	0.66080
2875.48960	0.65045
2873.56104	0.63995
2871.63247	0.62942
2869.70391	0.61851
2867.77534	0.60712
2865.84678	0.59567
2863.91821	0.58423
2861.98965	0.57270
2860.06108	0.56150
2858.13252	0.55085
2856.20396	0.54071
2854.27539	0.53116
2852.34683	0.52212
2850.41826	0.51357
2848.48970	0.50542
2846.56113	0.49748
2844.63257	0.49004
2842.70400	0.48327
2840.77544	0.47703
2838.84687	0.47112
2836.91831	0.46524
2834.98975	0.45931
2833.06118	0.45359
2831.13262	0.44795
2829.20405	0.44216
2827.27549	0.43629
2825.34692	0.43031
2823.41836	0.42426
2821.48979	0.41835
2819.56123	0.41268
2817.63267	0.40699
2815.70410	0.40105
2813.77554	0.39507
2811.84697	0.38936
2809.91841	0.38391
2807.98984	0.37852
2806.06128	0.37321
2804.13271	0.36814
2802.20415	0.36318
2800.27559	0.35815
2798.34702	0.35309
2796.41846	0.34814
2794.48989	0.34336
2792.56133	0.33876
2790.63276	0.33418
2788.70420	0.32954
2786.77563	0.32504
2784.84707	0.32071
2782.91851	0.31631
2780.98994	0.31188
2779.06138	0.30771
2777.13281	0.30396
2775.20425	0.30035
2773.27568	0.29654
2771.34712	0.29254
2769.41855	0.28865
2767.48999	0.28504
2765.56143	0.28154
2763.63286	0.27799
2761.70430	0.27450
2759.77573	0.27103
2757.84717	0.26753
2755.91860	0.26419
2753.99004	0.26113
2752.06147	0.25819
2750.13291	0.25516
2748.20435	0.25212
2746.27578	0.24928
2744.34722	0.24665
2742.41865	0.24397
2740.49009	0.24109
2738.56152	0.23824
2736.63296	0.23567
2734.70439	0.23317
2732.77583	0.23061
2730.84727	0.22813
2728.91870	0.22578
2726.99014	0.22356
2725.06157	0.22139
2723.13301	0.21916
2721.20444	0.21691
2719.27588	0.21479
2717.34731	0.21287
2715.41875	0.21110
2713.49019	0.20930
2711.56162	0.20739
2709.63306	0.20537
2707.70449	0.20342
2705.77593	0.20165
2703.84736	0.19997
2701.91880	0.19838
2699.99023	0.19694
2698.06167	0.19551
2696.13311	0.19403
2694.20454	0.19263
2692.27598	0.19128
2690.34741	0.18994
2688.41885	0.18879
2686.49028	0.18762
2684.56172	0.18622
2682.63315	0.18480
2680.70459	0.18354
2678.77603	0.18241
2676.84746	0.18134
2674.91890	0.18030
2672.99033	0.17923
2671.06177	0.17809
2669.13320	0.17694
2667.20464	0.17595
2665.27607	0.17511
2663.34751	0.17418
2661.41895	0.17316
2659.49038	0.17223
2657.56182	0.17145
2655.63325	0.17068
2653.70469	0.16988
2651.77612	0.16923
2649.84756	0.16866
2647.91899	0.16799
2645.99043	0.16730
2644.06187	0.16668
2642.13330	0.16604
2640.20474	0.16536
2638.27617	0.16473
2636.34761	0.16424
2634.41904	0.16388
2632.49048	0.16345
2630.56191	0.16292
2628.63335	0.16254
2626.70479	0.16237
2624.77622	0.16210
2622.84766	0.16170
2620.91909	0.16135
2618.99053	0.16108
2617.06196	0.16086
2615.13340	0.16060
2613.20483	0.16020
2611.27627	0.15983
2609.34771	0.15966
2607.41914	0.15962
2605.49058	0.15963
2603.56201	0.15966
2601.63345	0.15969
2599.70488	0.15961
2597.77632	0.15940
2595.84775	0.15925
2593.91919	0.15930
2591.99062	0.15955
2590.06206	0.15992
2588.13350	0.16020
2586.20493	0.16021
2584.27637	0.16016
2582.34780	0.16029
2580.41924	0.16056
2578.49067	0.16082
2576.56211	0.16101
2574.63354	0.16119
2572.70498	0.16150
2570.77642	0.16189
2568.84785	0.16221
2566.91929	0.16252
2564.99072	0.16290
2563.06216	0.16332
2561.13359	0.16372
2559.20503	0.16413
2557.27646	0.16462
2555.34790	0.16512
2553.41934	0.16550
2551.49077	0.16581
2549.56221	0.16620
2547.63364	0.16673
2545.70508	0.16736
2543.77651	0.16799
2541.84795	0.16860
2539.91938	0.16926
2537.99082	0.16990
2536.06226	0.17043
2534.13369	0.17096
2532.20513	0.17150
2530.27656	0.17206
2528.34800	0.17271
2526.41943	0.17347
2524.49087	0.17429
2522.56230	0.17508
2520.63374	0.17580
2518.70518	0.17656
2516.77661	0.17739
2514.84805	0.17816
2512.91948	0.17882
2510.99092	0.17946
2509.06235	0.18009
2507.13379	0.18076
2505.20522	0.18154
2503.27666	0.18236
2501.34810	0.18322
2499.41953	0.18417
2497.49097	0.18511
2495.56240	0.18595
2493.63384	0.18667
2491.70527	0.18737
2489.77671	0.18815
2487.84814	0.18894
2485.91958	0.18976
2483.99102	0.19072
2482.06245	0.19168
2480.13389	0.19254
2478.20532	0.19340
2476.27676	0.19417
2474.34819	0.19488
2472.41963	0.19577
2470.49106	0.19678
2468.56250	0.19777
2466.63394	0.19868
2464.70537	0.19943
2462.77681	0.20019
2460.84824	0.20115
2458.91968	0.20220
2456.99111	0.20316
2455.06255	0.20394
2453.13398	0.20475
2451.20542	0.20577
2449.27686	0.20694
2447.34829	0.20809
2445.41973	0.20900
2443.49116	0.20966
2441.56260	0.21039
2439.63403	0.21140
2437.70547	0.21258
2435.77690	0.21369
2433.84834	0.21468
2431.91978	0.21572
2429.99121	0.21687
2428.06265	0.21796
2426.13408	0.21898
2424.20552	0.22001
2422.27695	0.22100
2420.34839	0.22201
2418.41982	0.22310
2416.49126	0.22428
2414.56270	0.22553
2412.63413	0.22674
2410.70557	0.22785
2408.77700	0.22896
2406.84844	0.23012
2404.91987	0.23127
2402.99131	0.23232
2401.06274	0.23340
2399.13418	0.23468
2397.20562	0.23601
2395.27705	0.23723
2393.34849	0.23836
2391.41992	0.23951
2389.49136	0.24075
2387.56279	0.24203
2385.63423	0.24317
2383.70566	0.24413
2381.77710	0.24500
2379.84854	0.24589
2377.91997	0.24670
2375.99141	0.24725
2374.06284	0.24784
2372.13428	0.24870
2370.20571	0.24956
2368.27715	0.25024
2366.34858	0.25094
2364.42002	0.25157
2362.49146	0.25196
2360.56289	0.25289
2358.63433	0.25532
2356.70576	0.25822
2354.77720	0.26057
2352.84863	0.26344
2350.92007	0.26618
2348.99150	0.26762
2347.06294	0.26813
2345.13437	0.26845
2343.20581	0.26934
2341.27725	0.27121
2339.34868	0.27329
2337.42012	0.27522
2335.49155	0.27732
2333.56299	0.27910
2331.63442	0.28060
2329.70586	0.28256
2327.77729	0.28486
2325.84873	0.28684
2323.92017	0.28888
2321.99160	0.29110
2320.06304	0.29307
2318.13447	0.29488
2316.20591	0.29660
2314.27734	0.29828
2312.34878	0.30016
2310.42021	0.30228
2308.49165	0.30436
2306.56309	0.30635
2304.63452	0.30828
2302.70596	0.31014
2300.77739	0.31202
2298.84883	0.31394
2296.92026	0.31585
2294.99170	0.31777
2293.06313	0.31977
2291.13457	0.32187
2289.20601	0.32404
2287.27744	0.32616
2285.34888	0.32817
2283.42031	0.33017
2281.49175	0.33221
2279.56318	0.33426
2277.63462	0.33628
2275.70605	0.33827
2273.77749	0.34027
2271.84893	0.34232
2269.92036	0.34440
2267.99180	0.34649
2266.06323	0.34857
2264.13467	0.35070
2262.20610	0.35294
2260.27754	0.35526
2258.34897	0.35747
2256.42041	0.35959
2254.49185	0.36179
2252.56328	0.36404
2250.63472	0.36627
2248.70615	0.36843
2246.77759	0.37050
2244.84902	0.37265
2242.92046	0.37499
2240.99189	0.37729
2239.06333	0.37944
2237.13477	0.38160
2235.20620	0.38384
2233.27764	0.38613
2231.34907	0.38843
2229.42051	0.39067
2227.49194	0.39289
2225.56338	0.39521
2223.63481	0.39758
2221.70625	0.39979
2219.77769	0.40186
2217.84912	0.40397
2215.92056	0.40617
2213.99199	0.40836
2212.06343	0.41052
2210.13486	0.41264
2208.20630	0.41478
2206.27773	0.41691
2204.34917	0.41896
2202.42061	0.42104
2200.49204	0.42315
2198.56348	0.42516
2196.63491	0.42709
2194.70635	0.42901
2192.77778	0.43098
2190.84922	0.43293
2188.92065	0.43478
2186.99209	0.43657
2185.06353	0.43835
2183.13496	0.44011
2181.20640	0.44187
2179.27783	0.44356
2177.34927	0.44515
2175.42070	0.44663
2173.49214	0.44809
2171.56357	0.44959
2169.63501	0.45111
2167.70645	0.45248
2165.77788	0.45367
2163.84932	0.45480
2161.92075	0.45597
2159.99219	0.45709
2158.06362	0.45804
2156.13506	0.45890
2154.20649	0.45981
2152.27793	0.46077
2150.34937	0.46162
2148.42080	0.46230
2146.49224	0.46285
2144.56367	0.46330
2142.63511	0.46378
2140.70654	0.46427
2138.77798	0.46455
2136.84941	0.46463
2134.92085	0.46466
2132.99229	0.46467
2131.06372	0.46461
2129.13516	0.46452
2127.20659	0.46433
2125.27803	0.46394
2123.34946	0.46343
2121.42090	0.46298
2119.49233	0.46251
2117.56377	0.46194
2115.63521	0.46127
2113.70664	0.46055
2111.77808	0.45970
2109.84951	0.45875
2107.92095	0.45775
2105.99238	0.45661
2104.06382	0.45529
2102.13525	0.45392
2100.20669	0.45262
2098.27812	0.45133
2096.34956	0.44992
2094.42100	0.44837
2092.49243	0.44674
2090.56387	0.44503
2088.63530	0.44326
2086.70674	0.44149
2084.77817	0.43967
2082.84961	0.43781
2080.92104	0.43589
2078.99248	0.43383
2077.06392	0.43172
2075.13535	0.42960
2073.20679	0.42737
2071.27822	0.42502
2069.34966	0.42269
2067.42109	0.42044
2065.49253	0.41817
2063.56396	0.41575
2061.63540	0.41326
2059.70684	0.41083
2057.77827	0.40838
2055.84971	0.40582
2053.92114	0.40324
2051.99258	0.40070
2050.06401	0.39809
2048.13545	0.39540
2046.20688	0.39269
2044.27832	0.39000
2042.34976	0.38722
2040.42119	0.38442
2038.49263	0.38170
2036.56406	0.37903
2034.63550	0.37623
2032.70693	0.37330
2030.77837	0.37046
2028.84980	0.36770
2026.92124	0.36491
2024.99268	0.36215
2023.06411	0.35941
2021.13555	0.35659
2019.20698	0.35378
2017.27842	0.35102
2015.34985	0.34821
2013.42129	0.34540
2011.49272	0.34260
2009.56416	0.33983
2007.63560	0.33710
2005.70703	0.33440
2003.77847	0.33173
2001.84990	0.32907
1999.92134	0.32639
1997.99277	0.32374
1996.06421	0.32119
1994.13564	0.31874
1992.20708	0.31627
1990.27852	0.31370
1988.34995	0.31117
1986.42139	0.30867
1984.49282	0.30615
1982.56426	0.30369
1980.63569	0.30134
1978.70713	0.29902
1976.77856	0.29668
1974.85000	0.29433
1972.92144	0.29205
1970.99287	0.28992
1969.06431	0.28795
1967.13574	0.28602
1965.20718	0.28405
1963.27861	0.28205
1961.35005	0.28002
1959.42148	0.27796
1957.49292	0.27592
1955.56436	0.27402
1953.63579	0.27234
1951.70723	0.27071
1949.77866	0.26901
1947.85010	0.26729
1945.92153	0.26573
1943.99297	0.26439
1942.06440	0.26301
1940.13584	0.26142
1938.20728	0.25987
1936.27871	0.25850
1934.35015	0.25720
1932.42158	0.25594
1930.49302	0.25467
1928.56445	0.25348
1926.63589	0.25233
1924.70732	0.25120
1922.77876	0.25017
1920.85020	0.24921
1918.92163	0.24825
1916.99307	0.24728
1915.06450	0.24637
1913.13594	0.24554
1911.20737	0.24480
1909.27881	0.24407
1907.35024	0.24338
1905.42168	0.24272
1903.49312	0.24212
1901.56455	0.24160
1899.63599	0.24112
1897.70742	0.24064
1895.77886	0.24018
1893.85029	0.23976
1891.92173	0.23935
1889.99316	0.23913
1888.06460	0.23900
1886.13604	0.23880
1884.20747	0.23851
1882.27891	0.23820
1880.35034	0.23795
1878.42178	0.23781
1876.49321	0.23779
1874.56465	0.23784
1872.63608	0.23793
1870.70752	0.23804
1868.77896	0.23834
1866.85039	0.23859
1864.92183	0.23870
1862.99326	0.23884
1861.06470	0.23901
1859.13613	0.23931
1857.20757	0.23969
1855.27900	0.24008
1853.35044	0.24043
1851.42187	0.24095
1849.49331	0.24160
1847.56475	0.24224
1845.63618	0.24295
1843.70762	0.24394
1841.77905	0.24478
1839.85049	0.24521
1837.92192	0.24593
1835.99336	0.24696
1834.06479	0.24788
1832.13623	0.24860
1830.20767	0.24979
1828.27910	0.25140
1826.35054	0.25259
1824.42197	0.25383
1822.49341	0.25517
1820.56484	0.25648
1818.63628	0.25787
1816.70771	0.25944
1814.77915	0.26097
1812.85059	0.26257
1810.92202	0.26452
1808.99346	0.26664
1807.06489	0.26868
1805.13633	0.27061
1803.20776	0.27274
1801.27920	0.27516
1799.35063	0.27798
1797.42207	0.28056
1795.49351	0.28286
1793.56494	0.28545
1791.63638	0.28912
1789.70781	0.29288
1787.77925	0.29556
1785.85068	0.29855
1783.92212	0.30216
1781.99355	0.30604
1780.06499	0.31019
1778.13643	0.31445
1776.20786	0.31831
1774.27930	0.32232
1772.35073	0.32800
1770.42217	0.33465
1768.49360	0.34030
1766.56504	0.34559
1764.63647	0.35086
1762.70791	0.35661
1760.77935	0.36400
1758.85078	0.37092
1756.92222	0.37788
1754.99365	0.38559
1753.06509	0.39235
1751.13652	0.40008
1749.20796	0.41027
1747.27939	0.42101
1745.35083	0.43048
1743.42227	0.44006
1741.49370	0.45041
1739.56514	0.46270
1737.63657	0.47501
1735.70801	0.48539
1733.77944	0.50128
1731.85088	0.52126
1729.92231	0.53709
1727.99375	0.55297
1726.06519	0.56981
1724.13662	0.58831
1722.20806	0.60844
1720.27949	0.62652
1718.35093	0.64721
1716.42236	0.67935
1714.49380	0.71098
1712.56523	0.73616
1710.63667	0.76014
1708.70811	0.78557
1706.77954	0.81451
1704.85098	0.84989
1702.92241	0.88142
1700.99385	0.91153
1699.06528	0.95748
1697.13672	1.00100
1695.20815	1.04593
1693.27959	1.08895
1691.35103	1.12283
1689.42246	1.16253
1687.49390	1.20525
1685.56533	1.24596
1683.63677	1.31054
1681.70820	1.37914
1679.77964	1.42118
1677.85107	1.46113
1675.92251	1.50727
1673.99395	1.56535
1672.06538	1.61783
1670.13682	1.67007
1668.20825	1.73957
1666.27969	1.79455
1664.35112	1.84072
1662.42256	1.90130
1660.49399	1.97253
1658.56543	2.02587
1656.63687	2.06607
1654.70830	2.10047
1652.77974	2.15840
1650.85117	2.22113
1648.92261	2.24406
1646.99404	2.27281
1645.06548	2.30270
1643.13691	2.31988
1641.20835	2.32677
1639.27979	2.33347
1637.35122	2.33641
1635.42266	2.33467
1633.49409	2.32944
1631.56553	2.31572
1629.63696	2.29764
1627.70840	2.26935
1625.77983	2.23865
1623.85127	2.19685
1621.92271	2.14288
1619.99414	2.09708
1618.06558	2.05296
1616.13701	1.98573
1614.20845	1.91765
1612.27988	1.86807
1610.35132	1.81597
1608.42275	1.75936
1606.49419	1.70450
1604.56562	1.65456
1602.63706	1.60598
1600.70850	1.55798
1598.77993	1.51366
1596.85137	1.47251
1594.92280	1.43295
1592.99424	1.39456
1591.06567	1.35913
1589.13711	1.32592
1587.20854	1.29548
1585.27998	1.26799
1583.35142	1.24272
1581.42285	1.21978
1579.49429	1.20030
1577.56572	1.18323
1575.63716	1.16299
1573.70859	1.14574
1571.78003	1.13499
1569.85146	1.12414
1567.92290	1.11246
1565.99434	1.10458
1564.06577	1.09952
1562.13721	1.09582
1560.20864	1.09415
1558.28008	1.09713
1556.35151	1.10128
1554.42295	1.10287
1552.49438	1.10440
1550.56582	1.10406
1548.63726	1.10091
1546.70869	1.09533
1544.78013	1.08665
1542.85156	1.07436
1540.92300	1.05543
1538.99443	1.02600
1537.06587	1.00590
1535.13730	0.99176
1533.20874	0.97130
1531.28018	0.94988
1529.35161	0.93507
1527.42305	0.92074
1525.49448	0.90558
1523.56592	0.89293
1521.63735	0.88084
1519.70879	0.86872
1517.78022	0.85876
1515.85166	0.84700
1513.92310	0.83475
1511.99453	0.82406
1510.06597	0.81413
1508.13740	0.80408
1506.20884	0.78842
1504.28027	0.77609
1502.35171	0.76955
1500.42314	0.76357
1498.49458	0.75686
1496.56602	0.74897
1494.63745	0.74144
1492.70889	0.73570
1490.78032	0.73035
1488.85176	0.72400
1486.92319	0.71845
1484.99463	0.71439
1483.06606	0.71119
1481.13750	0.70861
1479.20894	0.70679
1477.28037	0.70584
1475.35181	0.70555
1473.42324	0.70544
1471.49468	0.70453
1469.56611	0.70274
1467.63755	0.70055
1465.70898	0.69832
1463.78042	0.69667
1461.85186	0.69600
1459.92329	0.69583
1457.99473	0.69578
1456.06616	0.69509
1454.13760	0.69299
1452.20903	0.69046
1450.28047	0.68783
1448.35190	0.68515
1446.42334	0.68236
1444.49478	0.67982
1442.56621	0.67735
1440.63765	0.67466
1438.70908	0.67178
1436.78052	0.66811
1434.85195	0.66409
1432.92339	0.66128
1430.99482	0.65968
1429.06626	0.65896
1427.13770	0.65876
1425.20913	0.65903
1423.28057	0.65962
1421.35200	0.65999
1419.42344	0.66028
1417.49487	0.66046
1415.56631	0.65994
1413.63774	0.65940
1411.70918	0.65948
1409.78062	0.66027
1407.85205	0.66147
1405.92349	0.66301
1403.99492	0.66452
1402.06636	0.66499
1400.13779	0.66433
1398.20923	0.66264
1396.28066	0.65992
1394.35210	0.65615
1392.42354	0.65196
1390.49497	0.64794
1388.56641	0.64365
1386.63784	0.63856
1384.70928	0.63332
1382.78071	0.62845
1380.85215	0.62378
1378.92358	0.61968
1376.99502	0.61662
1375.06646	0.61459
1373.13789	0.61319
1371.20933	0.61206
1369.28076	0.61114
1367.35220	0.61014
1365.42363	0.60866
1363.49507	0.60696
1361.56650	0.60545
1359.63794	0.60406
1357.70937	0.60268
1355.78081	0.60139
1353.85225	0.60027
1351.92368	0.59931
1349.99512	0.59861
1348.06655	0.59811
1346.13799	0.59750
1344.20942	0.59676
1342.28086	0.59601
1340.35229	0.59534
1338.42373	0.59474
1336.49517	0.59412
1334.56660	0.59359
1332.63804	0.59331
1330.70947	0.59339
1328.78091	0.59385
1326.85234	0.59447
1324.92378	0.59507
1322.99521	0.59562
1321.06665	0.59616
1319.13809	0.59688
1317.20952	0.59748
1315.28096	0.59749
1313.35239	0.59709
1311.42383	0.59655
1309.49526	0.59593
1307.56670	0.59530
1305.63813	0.59473
1303.70957	0.59414
1301.78101	0.59342
1299.85244	0.59241
1297.92388	0.59119
1295.99531	0.59002
1294.06675	0.58889
1292.13818	0.58759
1290.20962	0.58617
1288.28105	0.58482
1286.35249	0.58341
1284.42393	0.58194
1282.49536	0.58058
1280.56680	0.57933
1278.63823	0.57806
1276.70967	0.57677
1274.78110	0.57557
1272.85254	0.57450
1270.92397	0.57364
1268.99541	0.57296
1267.06685	0.57229
1265.13828	0.57145
1263.20972	0.57057
1261.28115	0.56996
1259.35259	0.56951
1257.42402	0.56902
1255.49546	0.56862
1253.56689	0.56847
1251.63833	0.56863
1249.70977	0.56894
1247.78120	0.56896
1245.85264	0.56871
1243.92407	0.56842
1241.99551	0.56772
1240.06694	0.56634
1238.13838	0.56461
1236.20981	0.56269
1234.28125	0.56049
1232.35269	0.55813
1230.42412	0.55591
1228.49556	0.55401
1226.56699	0.55228
1224.63843	0.55049
1222.70986	0.54862
1220.78130	0.54695
1218.85273	0.54562
1216.92417	0.54438
1214.99561	0.54314
1213.06704	0.54206
1211.13848	0.54127
1209.20991	0.54068
1207.28135	0.53998
1205.35278	0.53905
1203.42422	0.53810
1201.49565	0.53723
1199.56709	0.53636
1197.63853	0.53555
1195.70996	0.53485
1193.78140	0.53416
1191.85283	0.53347
1189.92427	0.53285
1187.99570	0.53243
1186.06714	0.53233
1184.13857	0.53248
1182.21001	0.53279
1180.28145	0.53340
1178.35288	0.53454
1176.42432	0.53604
1174.49575	0.53740
1172.56719	0.53829
1170.63862	0.53865
1168.71006	0.53857
1166.78149	0.53830
1164.85293	0.53804
1162.92437	0.53768
1160.99580	0.53723
1159.06724	0.53662
1157.13867	0.53570
1155.21011	0.53456
1153.28154	0.53328
1151.35298	0.53167
1149.42441	0.52951
1147.49585	0.52700
1145.56729	0.52447
1143.63872	0.52200
1141.71016	0.51956
1139.78159	0.51736
1137.85303	0.51560
1135.92446	0.51428
1133.99590	0.51344
1132.06733	0.51303
1130.13877	0.51276
1128.21021	0.51218
1126.28164	0.51123
1124.35308	0.51035
1122.42451	0.50959
1120.49595	0.50892
1118.56738	0.50874
1116.63882	0.50905
1114.71025	0.50937
1112.78169	0.50965
1110.85312	0.51015
1108.92456	0.51089
1106.99600	0.51179
1105.06743	0.51291
1103.13887	0.51422
1101.21030	0.51565
1099.28174	0.51742
1097.35317	0.51973
1095.42461	0.52253
1093.49604	0.52593
1091.56748	0.53016
1089.63892	0.53523
1087.71035	0.54122
1085.78179	0.54802
1083.85322	0.55490
1081.92466	0.56106
1079.99609	0.56604
1078.06753	0.56929
1076.13896	0.56994
1074.21040	0.56752
1072.28184	0.56257
1070.35327	0.55622
1068.42471	0.54950
1066.49614	0.54301
1064.56758	0.53691
1062.63901	0.53127
1060.71045	0.52626
1058.78188	0.52190
1056.85332	0.51816
1054.92476	0.51488
1052.99619	0.51163
1051.06763	0.50855
1049.13906	0.50616
1047.21050	0.50446
1045.28193	0.50321
1043.35337	0.50220
1041.42480	0.50120
1039.49624	0.50018
1037.56768	0.49924
1035.63911	0.49860
1033.71055	0.49843
1031.78198	0.49828
1029.85342	0.49769
1027.92485	0.49685
1025.99629	0.49608
1024.06772	0.49566
1022.13916	0.49572
1020.21060	0.49600
1018.28203	0.49630
1016.35347	0.49658
1014.42490	0.49685
1012.49634	0.49725
1010.56777	0.49785
1008.63921	0.49864
1006.71064	0.49971
1004.78208	0.50137
1002.85352	0.50357
1000.92495	0.50605
998.99639	0.50905
997.06782	0.51290
995.13926	0.51733
993.21069	0.52164
991.28213	0.52518
989.35356	0.52763
987.42500	0.52893
985.49644	0.52946
983.56787	0.52983
981.63931	0.53026
979.71074	0.53088
977.78218	0.53218
975.85361	0.53443
973.92505	0.53712
971.99648	0.53993
970.06792	0.54300
968.13936	0.54641
966.21079	0.55038
964.28223	0.55502
962.35366	0.55996
960.42510	0.56495
958.49653	0.57018
956.56797	0.57579
954.63940	0.58148
952.71084	0.58705
950.78228	0.59298
948.85371	0.59962
946.92515	0.60660
944.99658	0.61326
943.06802	0.61921
941.13945	0.62478
939.21089	0.63050
937.28232	0.63635
935.35376	0.64217
933.42520	0.64795
931.49663	0.65348
929.56807	0.65857
927.63950	0.66360
925.71094	0.66949
923.78237	0.67624
921.85381	0.68324
919.92524	0.69043
917.99668	0.69718
916.06812	0.70318
914.13955	0.70979
912.21099	0.71782
910.28242	0.72651
908.35386	0.73479
906.42529	0.74258
904.49673	0.75078
902.56816	0.76016
900.63960	0.77043
898.71104	0.77990
896.78247	0.78850
894.85391	0.79849
892.92534	0.80987
890.99678	0.82094
889.06821	0.83125
887.13965	0.84148
885.21108	0.85194
883.28252	0.86305
881.35396	0.87604
879.42539	0.88954
877.49683	0.90108
875.56826	0.91165
873.63970	0.92275
871.71113	0.93394
869.78257	0.94471
867.85400	0.95618
865.92544	0.96847
863.99687	0.97972
862.06831	0.98994
860.13975	1.00062
858.21118	1.01254
856.28262	1.02463
854.35405	1.03579
852.42549	1.04673
850.49692	1.05810
848.56836	1.07094
846.63979	1.08536
844.71123	1.09850
842.78267	1.10879
840.85410	1.11827
838.92554	1.12911
836.99697	1.14177
835.06841	1.15379
833.13984	1.16173
831.21128	1.16670
829.28271	1.17392
827.35415	1.18535
825.42559	1.19908
823.49702	1.21406
821.56846	1.22736
819.63989	1.24272
817.71133	1.26091
815.78276	1.27021
813.85420	1.27549
811.92563	1.28441
809.99707	1.28914
808.06851	1.28830
806.13994	1.29016
804.21138	1.30691
802.28281	1.34217
800.35425	1.37105
798.42568	1.36911
796.49712	1.35511
794.56855	1.35354
792.63999	1.35978
790.71143	1.36947
788.78286	1.37875
786.85430	1.37930
784.92573	1.41587
782.99717	1.48446
781.06860	1.48092
779.14004	1.42619
777.21147	1.40017
775.28291	1.38926
773.35435	1.34004
771.42578	1.28092
769.49722	1.24918
767.56865	1.23289
765.64009	1.24828
763.71152	1.29262
761.78296	1.28712
759.85439	1.25109
757.92583	1.26724
755.99727	1.32708
754.06870	1.36938
752.14014	1.32737
750.21157	1.27038
748.28301	1.22137
746.35444	1.12968
744.42588	1.08043
742.49731	1.09038
740.56875	1.03851
738.64019	0.96350
736.71162	0.94038
734.78306	0.90659
732.85449	0.79971
730.92593	0.64426
728.99736	0.51452
727.06880	0.45756
725.14023	0.44386
723.21167	0.41393
721.28311	0.41704
719.35454	0.78208
717.42598	0.44804
715.49741	0.09873
713.56885	0.03936
711.64028	0.12805
709.71172	0.27468
707.78315	0.33976
705.85459	0.33595
703.92603	0.37883
701.99746	0.44766
700.06890	0.45232
698.14033	0.45412
696.21177	0.43924
694.28320	0.39857
692.35464	0.42041
690.42607	0.50660
688.49751	0.51900
686.56895	0.46924
684.64038	0.48616
682.71182	0.52751
680.78325	0.50116
678.85469	0.41764
676.92612	0.32966
674.99756	0.29055
673.06899	0.33285
671.14043	0.35838
669.21187	0.26898
667.28330	0.19038
665.35474	0.17248
663.42617	0.20248
661.49761	0.24850
659.56904	0.29348
657.64048	0.37406
655.71191	0.57711
653.78335	0.94782
651.85479	0.76721
649.92622	0.37273
647.99766	0.18045
646.06909	0.19450
644.14053	0.43789
642.21196	0.72505
640.28340	0.56771
638.35483	0.39773
636.42627	0.33832
634.49771	0.34367
632.56914	0.35818
630.64058	0.33326
628.71201	0.28733
626.78345	0.25608
624.85488	0.25334
622.92632	0.30678
620.99775	0.40288
619.06919	0.44909
617.14062	0.37452
615.21206	0.28630
613.28350	0.29097
611.35493	0.35072
609.42637	0.38298
607.49780	0.37370
605.56924	0.33473
603.64067	0.30934
601.71211	0.34804
599.78354	0.33112
597.85498	0.25770
595.92642	0.27341
593.99785	0.36960
592.06929	0.47124
590.14072	0.51310
588.21216	0.45215
586.28359	0.37645
584.35503	0.35934
582.42646	0.35787
580.49790	0.31748
578.56934	0.30205
576.64077	0.34281
574.71221	0.35133
572.78364	0.29532
570.85508	0.29849
568.92651	0.35840
566.99795	0.32308
565.06938	0.23547
563.14082	0.23322
561.21226	0.23004
559.28369	0.18512
557.35513	0.14884
555.42656	0.16752
553.49800	0.25114
551.56943	0.32476
549.64087	0.31433
547.71230	0.29937
545.78374	0.30831
543.85518	0.29330
541.92661	0.36061
539.99805	0.65084
538.06948	0.97804
536.14092	0.68004
534.21235	0.51334
532.28379	0.34421
530.35522	0.23548
528.42666	0.22329
526.49810	0.23999
524.56953	0.24076
522.64097	0.28406
520.71240	0.36963
518.78384	0.37342
516.85527	0.29559
514.92671	0.23962
512.99814	0.25785
511.06958	0.33293
509.14102	0.33265
507.21245	0.26842
505.28389	0.25997
503.35532	0.29184
501.42676	0.27656
499.49819	0.21782
