3997.91411	0.06885
3995.98555	0.06987
3994.05698	0.07083
3992.12842	0.07134
3990.19985	0.07170
3988.27129	0.07190
3986.34272	0.07184
3984.41416	0.07202
3982.48560	0.07246
3980.55703	0.07251
3978.62847	0.07231
3976.69990	0.07266
3974.77134	0.07327
3972.84277	0.07371
3970.91421	0.07420
3968.98564	0.07443
3967.05708	0.07424
3965.12852	0.07413
3963.19995	0.07441
3961.27139	0.07473
3959.34282	0.07457
3957.41426	0.07400
3955.48569	0.07362
3953.55713	0.07370
3951.62856	0.07425
3949.70000	0.07523
3947.77144	0.07588
3945.84287	0.07579
3943.91431	0.07572
3941.98574	0.07576
3940.05718	0.07546
3938.12861	0.07517
3936.20005	0.07496
3934.27148	0.07499
3932.34292	0.07576
3930.41436	0.07653
3928.48579	0.07636
3926.55723	0.07608
3924.62866	0.07650
3922.70010	0.07665
3920.77153	0.07601
3918.84297	0.07579
3916.91440	0.07609
3914.98584	0.07555
3913.05728	0.07430
3911.12871	0.07352
3909.20015	0.07326
3907.27158	0.07366
3905.34302	0.07544
3903.41445	0.07811
3901.48589	0.07965
3899.55732	0.07942
3897.62876	0.07782
3895.70020	0.07584
3893.77163	0.07518
3891.84307	0.07597
3889.91450	0.07629
3887.98594	0.07570
3886.05737	0.07627
3884.12881	0.07762
3882.20024	0.07790
3880.27168	0.07744
3878.34312	0.07627
3876.41455	0.07534
3874.48599	0.07625
3872.55742	0.07855
3870.62886	0.08061
3868.70029	0.08108
3866.77173	0.08010
3864.84316	0.08017
3862.91460	0.08124
3860.98604	0.08080
3859.05747	0.07960
3857.12891	0.07953
3855.20034	0.08115
3853.27178	0.08485
3851.34321	0.08673
3849.41465	0.08395
3847.48608	0.08163
3845.55752	0.08148
3843.62896	0.08322
3841.70039	0.08574
3839.77183	0.08828
3837.84326	0.09049
3835.91470	0.09054
3833.98613	0.08908
3832.05757	0.08826
3830.12900	0.08801
3828.20044	0.08817
3826.27187	0.08892
3824.34331	0.08974
3822.41475	0.09144
3820.48618	0.09518
3818.55762	0.09734
3816.62905	0.09685
3814.70049	0.09598
3812.77192	0.09447
3810.84336	0.09348
3808.91479	0.09426
3806.98623	0.09693
3805.05767	0.09977
3803.12910	0.10187
3801.20054	0.10478
3799.27197	0.10631
3797.34341	0.10539
3795.41484	0.10470
3793.48628	0.10418
3791.55771	0.10393
3789.62915	0.10466
3787.70059	0.10617
3785.77202	0.10824
3783.84346	0.11036
3781.91489	0.11201
3779.98633	0.11400
3778.05776	0.11607
3776.12920	0.11666
3774.20063	0.11710
3772.27207	0.11897
3770.34351	0.12220
3768.41494	0.12538
3766.48638	0.12704
3764.55781	0.12827
3762.62925	0.12977
3760.70068	0.13202
3758.77212	0.13566
3756.84355	0.13915
3754.91499	0.14134
3752.98643	0.14413
3751.05786	0.14954
3749.12930	0.15554
3747.20073	0.15786
3745.27217	0.15960
3743.34360	0.16251
3741.41504	0.16411
3739.48647	0.16534
3737.55791	0.16877
3735.62935	0.17550
3733.70078	0.18290
3731.77222	0.18624
3729.84365	0.18782
3727.91509	0.19070
3725.98652	0.19618
3724.05796	0.20374
3722.12939	0.21106
3720.20083	0.21751
3718.27227	0.22365
3716.34370	0.23043
3714.41514	0.23849
3712.48657	0.24928
3710.55801	0.26401
3708.62944	0.27762
3706.70088	0.28759
3704.77231	0.29783
3702.84375	0.31098
3700.91519	0.32832
3698.98662	0.34660
3697.05806	0.36367
3695.12949	0.38218
3693.20093	0.40235
3691.27236	0.42521
3689.34380	0.45568
3687.41523	0.49135
3685.48667	0.52009
3683.55811	0.54479
3681.62954	0.57247
3679.70098	0.60468
3677.77241	0.63923
3675.84385	0.68043
3673.91528	0.73544
3671.98672	0.77881
3670.05815	0.81770
3668.12959	0.87184
3666.20103	0.91896
3664.27246	0.95771
3662.34390	1.00061
3660.41533	1.04774
3658.48677	1.09448
3656.55820	1.14491
3654.62964	1.20166
3652.70107	1.24826
3650.77251	1.28861
3648.84395	1.34763
3646.91538	1.41983
3644.98682	1.46802
3643.05825	1.50453
3641.12969	1.54394
3639.20112	1.58849
3637.27256	1.63336
3635.34399	1.67676
3633.41543	1.72011
3631.48687	1.76104
3629.55830	1.80339
3627.62974	1.85944
3625.70117	1.91000
3623.77261	1.94305
3621.84404	1.97604
3619.91548	2.01531
3617.98691	2.06291
3616.05835	2.10781
3614.12979	2.14531
3612.20122	2.18509
3610.27266	2.22386
3608.34409	2.26279
3606.41553	2.30649
3604.48696	2.34714
3602.55840	2.38206
3600.62983	2.41906
3598.70127	2.45910
3596.77271	2.49857
3594.84414	2.53918
3592.91558	2.58156
3590.98701	2.62237
3589.05845	2.66102
3587.12988	2.70588
3585.20132	2.75410
3583.27275	2.79491
3581.34419	2.83217
3579.41562	2.87183
3577.48706	2.91473
3575.55850	2.95819
3573.62993	3.00159
3571.70137	3.04312
3569.77280	3.08285
3567.84424	3.12587
3565.91567	3.17949
3563.98711	3.23161
3562.05854	3.27422
3560.12998	3.31644
3558.20142	3.36092
3556.27285	3.40546
3554.34429	3.44736
3552.41572	3.49131
3550.48716	3.53920
3548.55859	3.58563
3546.63003	3.63011
3544.70146	3.67670
3542.77290	3.72416
3540.84434	3.77243
3538.91577	3.82239
3536.98721	3.86918
3535.05864	3.91643
3533.13008	3.96679
3531.20151	4.01357
3529.27295	4.05591
3527.34438	4.10261
3525.41582	4.15555
3523.48726	4.20754
3521.55869	4.25489
3519.63013	4.30005
3517.70156	4.34879
3515.77300	4.39791
3513.84443	4.44464
3511.91587	4.49246
3509.98730	4.54298
3508.05874	4.59422
3506.13018	4.64230
3504.20161	4.68765
3502.27305	4.73070
3500.34448	4.77333
3498.41592	4.82218
3496.48735	4.87528
3494.55879	4.92614
3492.63022	4.97537
3490.70166	5.02378
3488.77310	5.06943
3486.84453	5.11004
3484.91597	5.14895
3482.98740	5.19392
3481.05884	5.24197
3479.13027	5.28543
3477.20171	5.33198
3475.27314	5.39050
3473.34458	5.45336
3471.41602	5.50569
3469.48745	5.54173
3467.55889	5.57315
3465.63032	5.61561
3463.70176	5.67087
3461.77319	5.72872
3459.84463	5.77988
3457.91606	5.82387
3455.98750	5.87509
3454.05894	5.93829
3452.13037	6.00064
3450.20181	6.05032
3448.27324	6.08765
3446.34468	6.13582
3444.41611	6.19877
3442.48755	6.25219
3440.55898	6.29531
3438.63042	6.34297
3436.70186	6.37853
3434.77329	6.40195
3432.84473	6.44579
3430.91616	6.51286
3428.98760	6.57915
3427.05903	6.62801
3425.13047	6.68480
3423.20190	6.75484
3421.27334	6.82010
3419.34478	6.87165
3417.41621	6.91709
3415.48765	6.96402
3413.55908	6.98926
3411.63052	6.99938
3409.70195	7.00282
3407.77339	7.02264
3405.84482	7.08133
3403.91626	7.13038
3401.98770	7.13065
3400.05913	7.15055
3398.13057	7.21414
3396.20200	7.25819
3394.27344	7.29616
3392.34487	7.36025
3390.41631	7.43832
3388.48774	7.47555
3386.55918	7.44779
3384.63062	7.41862
3382.70205	7.46284
3380.77349	7.55956
3378.84492	7.64785
3376.91636	7.72485
3374.98779	7.75706
3373.05923	7.75508
3371.13066	7.77164
3369.20210	7.80717
3367.27354	7.81235
3365.34497	7.77185
3363.41641	7.71372
3361.48784	7.71760
3359.55928	7.81188
3357.63071	7.86608
3355.70215	7.86857
3353.77358	7.85869
3351.84502	7.80929
3349.91646	7.79502
3347.98789	7.86988
3346.05933	7.93469
3344.13076	7.94162
3342.20220	7.96378
3340.27363	8.00038
3338.34507	8.01900
3336.41650	8.01780
3334.48794	8.05419
3332.55937	8.10850
3330.63081	8.12662
3328.70225	8.10789
3326.77368	8.07857
3324.84512	8.09956
3322.91655	8.11265
3320.98799	8.04845
3319.05942	7.98118
3317.13086	7.97637
3315.20229	8.02243
3313.27373	8.10303
3311.34517	8.13976
3309.41660	8.11674
3307.48804	8.09706
3305.55947	8.09128
3303.63091	8.10896
3301.70234	8.10045
3299.77378	8.06582
3297.84521	8.07742
3295.91665	8.15551
3293.98809	8.19305
3292.05952	8.20419
3290.13096	8.27881
3288.20239	8.28006
3286.27383	8.17802
3284.34526	8.08221
3282.41670	8.04890
3280.48813	8.04299
3278.55957	8.01335
3276.63101	8.00894
3274.70244	8.04535
3272.77388	8.06085
3270.84531	8.05616
3268.91675	8.06582
3266.98818	8.04021
3265.05962	8.00689
3263.13105	8.09624
3261.20249	8.24117
3259.27393	8.23995
3257.34536	8.20883
3255.41680	8.21150
3253.48823	8.15147
3251.55967	8.09160
3249.63110	8.05179
3247.70254	8.03859
3245.77397	8.10259
3243.84541	8.22666
3241.91685	8.30910
3239.98828	8.27692
3238.05972	8.22911
3236.13115	8.26696
3234.20259	8.28932
3232.27402	8.21223
3230.34546	8.14177
3228.41689	8.12265
3226.48833	8.15933
3224.55977	8.24568
3222.63120	8.29143
3220.70264	8.18527
3218.77407	8.00074
3216.84551	7.93150
3214.91694	7.95876
3212.98838	7.92851
3211.05981	7.82936
3209.13125	7.74385
3207.20269	7.70876
3205.27412	7.70405
3203.34556	7.71137
3201.41699	7.68225
3199.48843	7.58132
3197.55986	7.51472
3195.63130	7.56019
3193.70273	7.64667
3191.77417	7.66828
3189.84561	7.60044
3187.91704	7.47344
3185.98848	7.35646
3184.05991	7.29821
3182.13135	7.26939
3180.20278	7.22303
3178.27422	7.15696
3176.34565	7.11294
3174.41709	7.08634
3172.48853	7.05520
3170.55996	7.02138
3168.63140	6.95136
3166.70283	6.86889
3164.77427	6.82586
3162.84570	6.78362
3160.91714	6.70324
3158.98857	6.61763
3157.06001	6.56472
3155.13145	6.53896
3153.20288	6.49585
3151.27432	6.41930
3149.34575	6.34570
3147.41719	6.29045
3145.48862	6.22442
3143.56006	6.13642
3141.63149	6.05088
3139.70293	5.98276
3137.77437	5.92171
3135.84580	5.85328
3133.91724	5.78730
3131.98867	5.72889
3130.06011	5.66454
3128.13154	5.58994
3126.20298	5.50949
3124.27441	5.43237
3122.34585	5.36374
3120.41729	5.29667
3118.48872	5.22558
3116.56016	5.15732
3114.63159	5.09089
3112.70303	5.02195
3110.77446	4.95528
3108.84590	4.88871
3106.91733	4.81858
3104.98877	4.74739
3103.06021	4.67877
3101.13164	4.61186
3099.20308	4.54557
3097.27451	4.48177
3095.34595	4.41825
3093.41738	4.35204
3091.48882	4.28606
3089.56025	4.22254
3087.63169	4.15911
3085.70312	4.09788
3083.77456	4.04010
3081.84600	3.98103
3079.91743	3.91902
3077.98887	3.85690
3076.06030	3.79786
3074.13174	3.74207
3072.20317	3.68610
3070.27461	3.62885
3068.34604	3.57299
3066.41748	3.51779
3064.48892	3.46095
3062.56035	3.40426
3060.63179	3.35022
3058.70322	3.29775
3056.77466	3.24393
3054.84609	3.18993
3052.91753	3.13838
3050.98896	3.08763
3049.06040	3.03601
3047.13184	2.98490
3045.20327	2.93596
3043.27471	2.88869
3041.34614	2.84105
3039.41758	2.79349
3037.48901	2.74758
3035.56045	2.70237
3033.63188	2.65672
3031.70332	2.61099
3029.77476	2.56630
3027.84619	2.52304
3025.91763	2.48062
3023.98906	2.43852
3022.06050	2.39631
3020.13193	2.35413
3018.20337	2.31326
3016.27480	2.27398
3014.34624	2.23513
3012.41768	2.19652
3010.48911	2.15853
3008.56055	2.12138
3006.63198	2.08542
3004.70342	2.05035
3002.77485	2.01542
3000.84629	1.98061
2998.91772	1.94658
2996.98916	1.91365
2995.06060	1.88164
2993.13203	1.85040
2991.20347	1.81934
2989.27490	1.78819
2987.34634	1.75771
2985.41777	1.72833
2983.48921	1.69974
2981.56064	1.67162
2979.63208	1.64393
2977.70352	1.61681
2975.77495	1.58998
2973.84639	1.56344
2971.91782	1.53753
2969.98926	1.51214
2968.06069	1.48709
2966.13213	1.46219
2964.20356	1.43737
2962.27500	1.41297
2960.34644	1.38900
2958.41787	1.36500
2956.48931	1.34091
2954.56074	1.31723
2952.63218	1.29411
2950.70361	1.27147
2948.77505	1.24915
2946.84648	1.22688
2944.91792	1.20504
2942.98936	1.18422
2941.06079	1.16398
2939.13223	1.14367
2937.20366	1.12334
2935.27510	1.10286
2933.34653	1.08225
2931.41797	1.06216
2929.48940	1.04258
2927.56084	1.02343
2925.63228	1.00533
2923.70371	0.98771
2921.77515	0.96973
2919.84658	0.95217
2917.91802	0.93551
2915.98945	0.91954
2914.06089	0.90392
2912.13232	0.88830
2910.20376	0.87301
2908.27520	0.85825
2906.34663	0.84387
2904.41807	0.82977
2902.48950	0.81576
2900.56094	0.80208
2898.63237	0.78907
2896.70381	0.77643
2894.77524	0.76387
2892.84668	0.75148
2890.91812	0.73943
2888.98955	0.72767
2887.06099	0.71628
2885.13242	0.70558
2883.20386	0.69545
2881.27529	0.68545
2879.34673	0.67544
2877.41816	0.66534
2875.48960	0.65505
2873.56104	0.64454
2871.63247	0.63370
2869.70391	0.62247
2867.77534	0.61123
2865.84678	0.60032
2863.91821	0.58934
2861.98965	0.57794
2860.06108	0.56667
2858.13252	0.55639
2856.20396	0.54680
2854.27539	0.53720
2852.34683	0.52786
2850.41826	0.51913
2848.48970	0.51062
2846.56113	0.50253
2844.63257	0.49540
2842.70400	0.48874
2840.77544	0.48211
2838.84687	0.47577
2836.91831	0.46980
2834.98975	0.46385
2833.06118	0.45784
2831.13262	0.45190
2829.20405	0.44600
2827.27549	0.44007
2825.34692	0.43412
2823.41836	0.42809
2821.48979	0.42191
2819.56123	0.41584
2817.63267	0.40997
2815.70410	0.40413
2813.77554	0.39833
2811.84697	0.39261
2809.91841	0.38693
2807.98984	0.38135
2806.06128	0.37599
2804.13271	0.37085
2802.20415	0.36577
2800.27559	0.36073
2798.34702	0.35570
2796.41846	0.35061
2794.48989	0.34561
2792.56133	0.34091
2790.63276	0.33642
2788.70420	0.33194
2786.77563	0.32743
2784.84707	0.32298
2782.91851	0.31855
2780.98994	0.31405
2779.06138	0.30981
2777.13281	0.30603
2775.20425	0.30238
2773.27568	0.29858
2771.34712	0.29467
2769.41855	0.29077
2767.48999	0.28707
2765.56143	0.28363
2763.63286	0.28020
2761.70430	0.27671
2759.77573	0.27320
2757.84717	0.26971
2755.91860	0.26642
2753.99004	0.26336
2752.06147	0.26045
2750.13291	0.25763
2748.20435	0.25470
2746.27578	0.25163
2744.34722	0.24875
2742.41865	0.24608
2740.49009	0.24339
2738.56152	0.24069
2736.63296	0.23811
2734.70439	0.23573
2732.77583	0.23344
2730.84727	0.23102
2728.91870	0.22843
2726.99014	0.22597
2725.06157	0.22368
2723.13301	0.22135
2721.20444	0.21908
2719.27588	0.21704
2717.34731	0.21512
2715.41875	0.21317
2713.49019	0.21129
2711.56162	0.20952
2709.63306	0.20775
2707.70449	0.20593
2705.77593	0.20407
2703.84736	0.20223
2701.91880	0.20045
2699.99023	0.19886
2698.06167	0.19750
2696.13311	0.19619
2694.20454	0.19484
2692.27598	0.19343
2690.34741	0.19193
2688.41885	0.19052
2686.49028	0.18921
2684.56172	0.18790
2682.63315	0.18661
2680.70459	0.18535
2678.77603	0.18405
2676.84746	0.18279
2674.91890	0.18171
2672.99033	0.18066
2671.06177	0.17952
2669.13320	0.17847
2667.20464	0.17744
2665.27607	0.17629
2663.34751	0.17512
2661.41895	0.17414
2659.49038	0.17333
2657.56182	0.17253
2655.63325	0.17160
2653.70469	0.17060
2651.77612	0.16981
2649.84756	0.16931
2647.91899	0.16880
2645.99043	0.16818
2644.06187	0.16759
2642.13330	0.16696
2640.20474	0.16618
2638.27617	0.16543
2636.34761	0.16489
2634.41904	0.16450
2632.49048	0.16402
2630.56191	0.16348
2628.63335	0.16307
2626.70479	0.16273
2624.77622	0.16234
2622.84766	0.16190
2620.91909	0.16158
2618.99053	0.16150
2617.06196	0.16148
2615.13340	0.16124
2613.20483	0.16086
2611.27627	0.16055
2609.34771	0.16035
2607.41914	0.16022
2605.49058	0.16016
2603.56201	0.16009
2601.63345	0.15995
2599.70488	0.15974
2597.77632	0.15954
2595.84775	0.15947
2593.91919	0.15958
2591.99062	0.15976
2590.06206	0.16000
2588.13350	0.16033
2586.20493	0.16061
2584.27637	0.16081
2582.34780	0.16093
2580.41924	0.16098
2578.49067	0.16111
2576.56211	0.16134
2574.63354	0.16164
2572.70498	0.16196
2570.77642	0.16217
2568.84785	0.16241
2566.91929	0.16287
2564.99072	0.16343
2563.06216	0.16396
2561.13359	0.16445
2559.20503	0.16482
2557.27646	0.16513
2555.34790	0.16551
2553.41934	0.16599
2551.49077	0.16652
2549.56221	0.16694
2547.63364	0.16728
2545.70508	0.16774
2543.77651	0.16833
2541.84795	0.16896
2539.91938	0.16962
2537.99082	0.17025
2536.06226	0.17073
2534.13369	0.17114
2532.20513	0.17169
2530.27656	0.17243
2528.34800	0.17325
2526.41943	0.17405
2524.49087	0.17485
2522.56230	0.17559
2520.63374	0.17624
2518.70518	0.17697
2516.77661	0.17773
2514.84805	0.17840
2512.91948	0.17903
2510.99092	0.17975
2509.06235	0.18056
2507.13379	0.18140
2505.20522	0.18219
2503.27666	0.18293
2501.34810	0.18377
2499.41953	0.18474
2497.49097	0.18569
2495.56240	0.18658
2493.63384	0.18732
2491.70527	0.18797
2489.77671	0.18876
2487.84814	0.18962
2485.91958	0.19042
2483.99102	0.19129
2482.06245	0.19218
2480.13389	0.19300
2478.20532	0.19388
2476.27676	0.19476
2474.34819	0.19555
2472.41963	0.19638
2470.49106	0.19732
2468.56250	0.19832
2466.63394	0.19932
2464.70537	0.20017
2462.77681	0.20096
2460.84824	0.20182
2458.91968	0.20277
2456.99111	0.20375
2455.06255	0.20465
2453.13398	0.20549
2451.20542	0.20643
2449.27686	0.20746
2447.34829	0.20844
2445.41973	0.20930
2443.49116	0.21017
2441.56260	0.21108
2439.63403	0.21197
2437.70547	0.21296
2435.77690	0.21403
2433.84834	0.21512
2431.91978	0.21619
2429.99121	0.21724
2428.06265	0.21832
2426.13408	0.21941
2424.20552	0.22049
2422.27695	0.22157
2420.34839	0.22266
2418.41982	0.22374
2416.49126	0.22487
2414.56270	0.22601
2412.63413	0.22709
2410.70557	0.22819
2408.77700	0.22937
2406.84844	0.23059
2404.91987	0.23186
2402.99131	0.23301
2401.06274	0.23410
2399.13418	0.23530
2397.20562	0.23648
2395.27705	0.23761
2393.34849	0.23883
2391.41992	0.24017
2389.49136	0.24148
2387.56279	0.24262
2385.63423	0.24362
2383.70566	0.24454
2381.77710	0.24547
2379.84854	0.24644
2377.91997	0.24740
2375.99141	0.24828
2374.06284	0.24909
2372.13428	0.25005
2370.20571	0.25137
2368.27715	0.25220
2366.34858	0.25227
2364.42002	0.25277
2362.49146	0.25334
2360.56289	0.25386
2358.63433	0.25597
2356.70576	0.25916
2354.77720	0.26217
2352.84863	0.26515
2350.92007	0.26753
2348.99150	0.26885
2347.06294	0.26955
2345.13437	0.27025
2343.20581	0.27137
2341.27725	0.27315
2339.34868	0.27495
2337.42012	0.27626
2335.49155	0.27812
2333.56299	0.28027
2331.63442	0.28192
2329.70586	0.28390
2327.77729	0.28616
2325.84873	0.28778
2323.92017	0.28929
2321.99160	0.29135
2320.06304	0.29359
2318.13447	0.29557
2316.20591	0.29736
2314.27734	0.29924
2312.34878	0.30115
2310.42021	0.30304
2308.49165	0.30506
2306.56309	0.30720
2304.63452	0.30930
2302.70596	0.31121
2300.77739	0.31295
2298.84883	0.31472
2296.92026	0.31663
2294.99170	0.31866
2293.06313	0.32072
2291.13457	0.32276
2289.20601	0.32478
2287.27744	0.32687
2285.34888	0.32896
2283.42031	0.33091
2281.49175	0.33277
2279.56318	0.33477
2277.63462	0.33688
2275.70605	0.33894
2273.77749	0.34095
2271.84893	0.34298
2269.92036	0.34507
2267.99180	0.34721
2266.06323	0.34939
2264.13467	0.35162
2262.20610	0.35387
2260.27754	0.35609
2258.34897	0.35822
2256.42041	0.36032
2254.49185	0.36259
2252.56328	0.36491
2250.63472	0.36711
2248.70615	0.36927
2246.77759	0.37145
2244.84902	0.37367
2242.92046	0.37594
2240.99189	0.37814
2239.06333	0.38025
2237.13477	0.38239
2235.20620	0.38464
2233.27764	0.38694
2231.34907	0.38924
2229.42051	0.39148
2227.49194	0.39371
2225.56338	0.39605
2223.63481	0.39846
2221.70625	0.40070
2219.77769	0.40278
2217.84912	0.40491
2215.92056	0.40713
2213.99199	0.40934
2212.06343	0.41154
2210.13486	0.41377
2208.20630	0.41593
2206.27773	0.41797
2204.34917	0.41996
2202.42061	0.42204
2200.49204	0.42417
2198.56348	0.42615
2196.63491	0.42805
2194.70635	0.43007
2192.77778	0.43212
2190.84922	0.43400
2188.92065	0.43576
2186.99209	0.43753
2185.06353	0.43928
2183.13496	0.44101
2181.20640	0.44282
2179.27783	0.44463
2177.34927	0.44627
2175.42070	0.44775
2173.49214	0.44928
2171.56357	0.45082
2169.63501	0.45226
2167.70645	0.45357
2165.77788	0.45475
2163.84932	0.45595
2161.92075	0.45720
2159.99219	0.45827
2158.06362	0.45914
2156.13506	0.46009
2154.20649	0.46113
2152.27793	0.46199
2150.34937	0.46266
2148.42080	0.46337
2146.49224	0.46410
2144.56367	0.46463
2142.63511	0.46504
2140.70654	0.46544
2138.77798	0.46570
2136.84941	0.46578
2134.92085	0.46589
2132.99229	0.46601
2131.06372	0.46593
2129.13516	0.46570
2127.20659	0.46549
2125.27803	0.46525
2123.34946	0.46481
2121.42090	0.46435
2119.49233	0.46390
2117.56377	0.46328
2115.63521	0.46247
2113.70664	0.46160
2111.77808	0.46064
2109.84951	0.45962
2107.92095	0.45867
2105.99238	0.45770
2104.06382	0.45659
2102.13525	0.45531
2100.20669	0.45392
2098.27812	0.45246
2096.34956	0.45089
2094.42100	0.44923
2092.49243	0.44765
2090.56387	0.44615
2088.63530	0.44452
2086.70674	0.44271
2084.77817	0.44086
2082.84961	0.43896
2080.92104	0.43687
2078.99248	0.43472
2077.06392	0.43264
2075.13535	0.43057
2073.20679	0.42837
2071.27822	0.42600
2069.34966	0.42365
2067.42109	0.42143
2065.49253	0.41928
2063.56396	0.41700
2061.63540	0.41449
2059.70684	0.41185
2057.77827	0.40931
2055.84971	0.40682
2053.92114	0.40424
2051.99258	0.40160
2050.06401	0.39892
2048.13545	0.39620
2046.20688	0.39355
2044.27832	0.39093
2042.34976	0.38818
2040.42119	0.38532
2038.49263	0.38250
2036.56406	0.37975
2034.63550	0.37695
2032.70693	0.37409
2030.77837	0.37137
2028.84980	0.36862
2026.92124	0.36576
2024.99268	0.36296
2023.06411	0.36021
2021.13555	0.35743
2019.20698	0.35473
2017.27842	0.35206
2015.34985	0.34920
2013.42129	0.34629
2011.49272	0.34349
2009.56416	0.34073
2007.63560	0.33790
2005.70703	0.33502
2003.77847	0.33222
2001.84990	0.32957
1999.92134	0.32695
1997.99277	0.32424
1996.06421	0.32163
1994.13564	0.31936
1992.20708	0.31718
1990.27852	0.31473
1988.34995	0.31213
1986.42139	0.30945
1984.49282	0.30672
1982.56426	0.30417
1980.63569	0.30183
1978.70713	0.29957
1976.77856	0.29731
1974.85000	0.29505
1972.92144	0.29280
1970.99287	0.29068
1969.06431	0.28874
1967.13574	0.28684
1965.20718	0.28475
1963.27861	0.28253
1961.35005	0.28042
1959.42148	0.27844
1957.49292	0.27652
1955.56436	0.27468
1953.63579	0.27291
1951.70723	0.27115
1949.77866	0.26946
1947.85010	0.26785
1945.92153	0.26637
1943.99297	0.26513
1942.06440	0.26387
1940.13584	0.26216
1938.20728	0.26035
1936.27871	0.25882
1934.35015	0.25749
1932.42158	0.25626
1930.49302	0.25501
1928.56445	0.25382
1926.63589	0.25276
1924.70732	0.25191
1922.77876	0.25117
1920.85020	0.25029
1918.92163	0.24936
1916.99307	0.24835
1915.06450	0.24712
1913.13594	0.24605
1911.20737	0.24545
1909.27881	0.24492
1907.35024	0.24406
1905.42168	0.24312
1903.49312	0.24243
1901.56455	0.24191
1899.63599	0.24142
1897.70742	0.24109
1895.77886	0.24092
1893.85029	0.24058
1891.92173	0.24013
1889.99316	0.24005
1888.06460	0.23989
1886.13604	0.23932
1884.20747	0.23881
1882.27891	0.23849
1880.35034	0.23829
1878.42178	0.23816
1876.49321	0.23811
1874.56465	0.23808
1872.63608	0.23831
1870.70752	0.23905
1868.77896	0.24011
1866.85039	0.24024
1864.92183	0.23950
1862.99326	0.23911
1861.06470	0.23928
1859.13613	0.23973
1857.20757	0.24010
1855.27900	0.24042
1853.35044	0.24079
1851.42187	0.24132
1849.49331	0.24202
1847.56475	0.24296
1845.63618	0.24417
1843.70762	0.24542
1841.77905	0.24589
1839.85049	0.24584
1837.92192	0.24636
1835.99336	0.24732
1834.06479	0.24832
1832.13623	0.24951
1830.20767	0.25139
1828.27910	0.25311
1826.35054	0.25394
1824.42197	0.25493
1822.49341	0.25595
1820.56484	0.25691
1818.63628	0.25823
1816.70771	0.25991
1814.77915	0.26153
1812.85059	0.26334
1810.92202	0.26555
1808.99346	0.26761
1807.06489	0.26933
1805.13633	0.27109
1803.20776	0.27341
1801.27920	0.27631
1799.35063	0.27934
1797.42207	0.28184
1795.49351	0.28428
1793.56494	0.28732
1791.63638	0.29116
1789.70781	0.29433
1787.77925	0.29642
1785.85068	0.29928
1783.92212	0.30303
1781.99355	0.30713
1780.06499	0.31143
1778.13643	0.31566
1776.20786	0.31966
1774.27930	0.32438
1772.35073	0.33100
1770.42217	0.33757
1768.49360	0.34225
1766.56504	0.34676
1764.63647	0.35178
1762.70791	0.35775
1760.77935	0.36537
1758.85078	0.37225
1756.92222	0.37918
1754.99365	0.38690
1753.06509	0.39398
1751.13652	0.40273
1749.20796	0.41395
1747.27939	0.42450
1745.35083	0.43329
1743.42227	0.44251
1741.49370	0.45282
1739.56514	0.46515
1737.63657	0.47748
1735.70801	0.48842
1733.77944	0.50536
1731.85088	0.52510
1729.92231	0.53988
1727.99375	0.55501
1726.06519	0.57149
1724.13662	0.58995
1722.20806	0.61020
1720.27949	0.62888
1718.35093	0.65127
1716.42236	0.68530
1714.49380	0.71634
1712.56523	0.74003
1710.63667	0.76314
1708.70811	0.78843
1706.77954	0.81763
1704.85098	0.85283
1702.92241	0.88373
1700.99385	0.91379
1699.06528	0.96030
1697.13672	1.00403
1695.20815	1.04805
1693.27959	1.08919
1691.35103	1.12173
1689.42246	1.16050
1687.49390	1.20183
1685.56533	1.24087
1683.63677	1.30375
1681.70820	1.37102
1679.77964	1.41222
1677.85107	1.45115
1675.92251	1.49596
1673.99395	1.55236
1672.06538	1.60309
1670.13682	1.65258
1668.20825	1.71686
1666.27969	1.76761
1664.35112	1.81174
1662.42256	1.86968
1660.49399	1.93635
1658.56543	1.98710
1656.63687	2.02810
1654.70830	2.06626
1652.77974	2.12593
1650.85117	2.18017
1648.92261	2.19736
1646.99404	2.22369
1645.06548	2.25465
1643.13691	2.27547
1641.20835	2.28547
1639.27979	2.29329
1637.35122	2.29837
1635.42266	2.29880
1633.49409	2.29178
1631.56553	2.27943
1629.63696	2.26504
1627.70840	2.23782
1625.77983	2.20428
1623.85127	2.16130
1621.92271	2.11002
1619.99414	2.06644
1618.06558	2.02386
1616.13701	1.95901
1614.20845	1.89268
1612.27988	1.84492
1610.35132	1.79529
1608.42275	1.73987
1606.49419	1.68466
1604.56562	1.63474
1602.63706	1.58660
1600.70850	1.53881
1598.77993	1.49506
1596.85137	1.45497
1594.92280	1.41602
1592.99424	1.37760
1591.06567	1.34248
1589.13711	1.31004
1587.20854	1.28006
1585.27998	1.25239
1583.35142	1.22666
1581.42285	1.20338
1579.49429	1.18386
1577.56572	1.16699
1575.63716	1.14611
1573.70859	1.12716
1571.78003	1.11545
1569.85146	1.10406
1567.92290	1.09089
1565.99434	1.08055
1564.06577	1.07285
1562.13721	1.06739
1560.20864	1.06474
1558.28008	1.06386
1556.35151	1.06268
1554.42295	1.06079
1552.49438	1.05882
1550.56582	1.05560
1548.63726	1.05020
1546.70869	1.04354
1544.78013	1.03540
1542.85156	1.02502
1540.92300	1.00942
1538.99443	0.98257
1537.06587	0.96250
1535.13730	0.94956
1533.20874	0.93269
1531.28018	0.91416
1529.35161	0.90066
1527.42305	0.88848
1525.49448	0.87613
1523.56592	0.86546
1521.63735	0.85497
1519.70879	0.84406
1517.78022	0.83483
1515.85166	0.82382
1513.92310	0.81237
1511.99453	0.80308
1510.06597	0.79533
1508.13740	0.78833
1506.20884	0.77533
1504.28027	0.76234
1502.35171	0.75534
1500.42314	0.75011
1498.49458	0.74484
1496.56602	0.73789
1494.63745	0.73049
1492.70889	0.72526
1490.78032	0.72146
1488.85176	0.71675
1486.92319	0.71107
1484.99463	0.70628
1483.06606	0.70280
1481.13750	0.70018
1479.20894	0.69836
1477.28037	0.69765
1475.35181	0.69787
1473.42324	0.69833
1471.49468	0.69703
1469.56611	0.69401
1467.63755	0.69137
1465.70898	0.68964
1463.78042	0.68843
1461.85186	0.68761
1459.92329	0.68767
1457.99473	0.68873
1456.06616	0.68823
1454.13760	0.68493
1452.20903	0.68182
1450.28047	0.67916
1448.35190	0.67668
1446.42334	0.67411
1444.49478	0.67170
1442.56621	0.66956
1440.63765	0.66750
1438.70908	0.66560
1436.78052	0.66330
1434.85195	0.66011
1432.92339	0.65734
1430.99482	0.65573
1429.06626	0.65489
1427.13770	0.65439
1425.20913	0.65454
1423.28057	0.65536
1421.35200	0.65607
1419.42344	0.65649
1417.49487	0.65576
1415.56631	0.65379
1413.63774	0.65228
1411.70918	0.65169
1409.78062	0.65177
1407.85205	0.65241
1405.92349	0.65355
1403.99492	0.65438
1402.06636	0.65410
1400.13779	0.65324
1398.20923	0.65188
1396.28066	0.64962
1394.35210	0.64612
1392.42354	0.64191
1390.49497	0.63824
1388.56641	0.63491
1386.63784	0.63094
1384.70928	0.62642
1382.78071	0.62218
1380.85215	0.61854
1378.92358	0.61572
1376.99502	0.61372
1375.06646	0.61239
1373.13789	0.61136
1371.20933	0.61041
1369.28076	0.60969
1367.35220	0.60884
1365.42363	0.60760
1363.49507	0.60642
1361.56650	0.60521
1359.63794	0.60354
1357.70937	0.60189
1355.78081	0.60056
1353.85225	0.59940
1351.92368	0.59829
1349.99512	0.59729
1348.06655	0.59633
1346.13799	0.59534
1344.20942	0.59443
1342.28086	0.59372
1340.35229	0.59320
1338.42373	0.59238
1336.49517	0.59110
1334.56660	0.59006
1332.63804	0.58959
1330.70947	0.58950
1328.78091	0.58955
1326.85234	0.58976
1324.92378	0.59016
1322.99521	0.59068
1321.06665	0.59122
1319.13809	0.59168
1317.20952	0.59180
1315.28096	0.59154
1313.35239	0.59107
1311.42383	0.59026
1309.49526	0.58922
1307.56670	0.58826
1305.63813	0.58737
1303.70957	0.58644
1301.78101	0.58550
1299.85244	0.58452
1297.92388	0.58339
1295.99531	0.58209
1294.06675	0.58080
1292.13818	0.57966
1290.20962	0.57856
1288.28105	0.57739
1286.35249	0.57616
1284.42393	0.57503
1282.49536	0.57395
1280.56680	0.57285
1278.63823	0.57170
1276.70967	0.57047
1274.78110	0.56936
1272.85254	0.56856
1270.92397	0.56798
1268.99541	0.56734
1267.06685	0.56655
1265.13828	0.56577
1263.20972	0.56520
1261.28115	0.56474
1259.35259	0.56418
1257.42402	0.56354
1255.49546	0.56305
1253.56689	0.56280
1251.63833	0.56274
1249.70977	0.56287
1247.78120	0.56305
1245.85264	0.56306
1243.92407	0.56265
1241.99551	0.56169
1240.06694	0.56038
1238.13838	0.55895
1236.20981	0.55732
1234.28125	0.55537
1232.35269	0.55330
1230.42412	0.55134
1228.49556	0.54958
1226.56699	0.54794
1224.63843	0.54628
1222.70986	0.54460
1220.78130	0.54305
1218.85273	0.54176
1216.92417	0.54057
1214.99561	0.53943
1213.06704	0.53848
1211.13848	0.53781
1209.20991	0.53724
1207.28135	0.53646
1205.35278	0.53547
1203.42422	0.53457
1201.49565	0.53380
1199.56709	0.53295
1197.63853	0.53199
1195.70996	0.53105
1193.78140	0.53015
1191.85283	0.52936
1189.92427	0.52872
1187.99570	0.52818
1186.06714	0.52782
1184.13857	0.52769
1182.21001	0.52783
1180.28145	0.52839
1178.35288	0.52946
1176.42432	0.53082
1174.49575	0.53203
1172.56719	0.53286
1170.63862	0.53345
1168.71006	0.53399
1166.78149	0.53463
1164.85293	0.53523
1162.92437	0.53560
1160.99580	0.53576
1159.06724	0.53579
1157.13867	0.53557
1155.21011	0.53493
1153.28154	0.53388
1151.35298	0.53231
1149.42441	0.53015
1147.49585	0.52757
1145.56729	0.52473
1143.63872	0.52197
1141.71016	0.51962
1139.78159	0.51782
1137.85303	0.51660
1135.92446	0.51572
1133.99590	0.51510
1132.06733	0.51479
1130.13877	0.51471
1128.21021	0.51464
1126.28164	0.51428
1124.35308	0.51377
1122.42451	0.51353
1120.49595	0.51358
1118.56738	0.51385
1116.63882	0.51452
1114.71025	0.51543
1112.78169	0.51616
1110.85312	0.51686
1108.92456	0.51799
1106.99600	0.51943
1105.06743	0.52047
1103.13887	0.52090
1101.21030	0.52147
1099.28174	0.52284
1097.35317	0.52504
1095.42461	0.52761
1093.49604	0.53070
1091.56748	0.53534
1089.63892	0.54198
1087.71035	0.54996
1085.78179	0.55852
1083.85322	0.56720
1081.92466	0.57507
1079.99609	0.58081
1078.06753	0.58351
1076.13896	0.58306
1074.21040	0.57979
1072.28184	0.57404
1070.35327	0.56673
1068.42471	0.55910
1066.49614	0.55194
1064.56758	0.54589
1062.63901	0.54109
1060.71045	0.53691
1058.78188	0.53275
1056.85332	0.52867
1054.92476	0.52514
1052.99619	0.52227
1051.06763	0.51999
1049.13906	0.51847
1047.21050	0.51783
1045.28193	0.51776
1043.35337	0.51798
1041.42480	0.51844
1039.49624	0.51891
1037.56768	0.51914
1035.63911	0.51908
1033.71055	0.51853
1031.78198	0.51735
1029.85342	0.51573
1027.92485	0.51393
1025.99629	0.51208
1024.06772	0.51034
1022.13916	0.50890
1020.21060	0.50810
1018.28203	0.50781
1016.35347	0.50755
1014.42490	0.50716
1012.49634	0.50677
1010.56777	0.50645
1008.63921	0.50625
1006.71064	0.50631
1004.78208	0.50690
1002.85352	0.50829
1000.92495	0.51067
998.99639	0.51406
997.06782	0.51819
995.13926	0.52257
993.21069	0.52679
991.28213	0.53025
989.35356	0.53229
987.42500	0.53289
985.49644	0.53254
983.56787	0.53186
981.63931	0.53153
979.71074	0.53199
977.78218	0.53320
975.85361	0.53510
973.92505	0.53747
971.99648	0.54018
970.06792	0.54335
968.13936	0.54690
966.21079	0.55075
964.28223	0.55502
962.35366	0.55979
960.42510	0.56485
958.49653	0.57020
956.56797	0.57605
954.63940	0.58206
952.71084	0.58804
950.78228	0.59410
948.85371	0.60003
946.92515	0.60592
944.99658	0.61207
943.06802	0.61840
941.13945	0.62456
939.21089	0.63034
937.28232	0.63617
935.35376	0.64224
933.42520	0.64807
931.49663	0.65359
929.56807	0.65898
927.63950	0.66451
925.71094	0.67020
923.78237	0.67550
921.85381	0.68131
919.92524	0.68885
917.99668	0.69715
916.06812	0.70489
914.13955	0.71190
912.21099	0.71907
910.28242	0.72686
908.35386	0.73464
906.42529	0.74264
904.49673	0.75129
902.56816	0.76050
900.63960	0.77036
898.71104	0.78026
896.78247	0.79006
894.85391	0.80008
892.92534	0.80972
890.99678	0.81958
889.06821	0.83106
887.13965	0.84317
885.21108	0.85461
883.28252	0.86574
881.35396	0.87707
879.42539	0.88822
877.49683	0.89863
875.56826	0.90921
873.63970	0.92081
871.71113	0.93297
869.78257	0.94547
867.85400	0.95845
865.92544	0.97071
863.99687	0.98112
862.06831	0.99112
860.13975	1.00189
858.21118	1.01269
856.28262	1.02454
854.35405	1.03906
852.42549	1.05292
850.49692	1.06383
848.56836	1.07384
846.63979	1.08295
844.71123	1.09289
842.78267	1.10551
840.85410	1.11832
838.92554	1.12869
836.99697	1.13670
835.06841	1.14471
833.13984	1.15514
831.21128	1.16835
829.28271	1.18337
827.35415	1.19636
825.42559	1.20250
823.49702	1.20929
821.56846	1.22456
819.63989	1.24167
817.71133	1.25823
815.78276	1.27464
813.85420	1.28204
811.92563	1.28840
809.99707	1.31086
808.06851	1.33622
806.13994	1.34637
804.21138	1.34656
802.28281	1.34926
800.35425	1.36386
798.42568	1.38109
796.49712	1.38262
794.56855	1.37008
792.63999	1.37284
790.71143	1.40552
788.78286	1.43140
786.85430	1.43998
784.92573	1.49040
782.99717	1.56112
781.06860	1.52781
779.14004	1.46730
777.21147	1.49196
775.28291	1.55787
773.35435	1.54845
771.42578	1.51547
769.49722	1.55316
767.56865	1.63636
765.64009	1.63250
763.71152	1.56605
761.78296	1.51264
759.85439	1.47774
757.92583	1.38560
755.99727	1.28086
754.06870	1.23415
752.14014	1.20235
750.21157	1.18875
748.28301	1.18378
746.35444	1.13638
744.42588	1.15395
742.49731	1.29198
740.56875	1.33326
738.64019	1.18628
736.71162	0.99151
734.78306	0.85621
732.85449	0.81394
730.92593	0.75389
728.99736	0.63287
727.06880	0.55898
725.14023	0.51130
723.21167	0.37872
721.28311	0.12467
719.35454	-0.06995
717.42598	-0.04811
715.49741	0.07087
713.56885	0.14811
711.64028	0.15373
709.71172	0.16863
707.78315	0.17874
705.85459	0.19774
703.92603	0.23824
701.99746	0.28902
700.06890	0.35220
698.14033	0.37286
696.21177	0.33865
694.28320	0.30508
692.35464	0.28275
690.42607	0.28405
688.49751	0.29925
686.56895	0.33107
684.64038	0.35676
682.71182	0.29975
680.78325	0.21680
678.85469	0.23401
676.92612	0.35522
674.99756	0.41413
673.06899	0.39821
671.14043	0.42455
669.21187	0.39474
667.28330	0.32559
665.35474	0.26369
663.42617	0.20402
661.49761	0.19356
659.56904	0.23543
657.64048	0.24213
655.71191	0.19321
653.78335	0.17218
651.85479	0.20303
649.92622	0.22716
647.99766	0.17958
646.06909	0.14250
644.14053	0.15838
642.21196	0.20596
640.28340	0.29398
638.35483	0.39101
636.42627	0.37182
634.49771	0.33582
632.56914	0.39612
630.64058	0.47859
628.71201	0.40920
626.78345	0.34639
624.85488	0.35787
622.92632	0.33445
620.99775	0.26878
619.06919	0.22352
617.14062	0.23026
615.21206	0.31651
613.28350	0.44572
611.35493	0.55735
609.42637	0.57455
607.49780	0.45319
605.56924	0.33725
603.64067	0.26590
601.71211	0.23908
599.78354	0.24144
597.85498	0.26537
595.92642	0.30551
593.99785	0.27525
592.06929	0.17840
590.14072	0.14710
588.21216	0.19947
586.28359	0.21852
584.35503	0.16950
582.42646	0.15701
580.49790	0.21999
578.56934	0.29299
576.64077	0.29179
574.71221	0.22883
572.78364	0.15460
570.85508	0.13122
568.92651	0.13467
566.99795	0.11440
565.06938	0.10668
563.14082	0.13661
561.21226	0.18382
559.28369	0.22056
557.35513	0.22753
555.42656	0.24757
553.49800	0.27110
551.56943	0.26757
549.64087	0.27716
547.71230	0.28918
545.78374	0.23182
543.85518	0.17444
541.92661	0.20698
539.99805	0.29027
538.06948	0.35129
536.14092	0.35190
534.21235	0.29314
532.28379	0.24934
530.35522	0.25939
528.42666	0.29077
526.49810	0.28186
524.56953	0.22791
522.64097	0.18082
520.71240	0.16968
518.78384	0.17661
516.85527	0.18842
514.92671	0.19780
512.99814	0.20721
511.06958	0.20086
509.14102	0.17345
507.21245	0.15594
505.28389	0.15267
503.35532	0.17135
501.42676	0.22586
499.49819	0.27856
