3997.91411	0.07078
3995.98555	0.07170
3994.05698	0.07253
3992.12842	0.07301
3990.19985	0.07346
3988.27129	0.07385
3986.34272	0.07384
3984.41416	0.07371
3982.48560	0.07371
3980.55703	0.07368
3978.62847	0.07385
3976.69990	0.07455
3974.77134	0.07502
3972.84277	0.07514
3970.91421	0.07561
3968.98564	0.07595
3967.05708	0.07584
3965.12852	0.07577
3963.19995	0.07584
3961.27139	0.07582
3959.34282	0.07569
3957.41426	0.07555
3955.48569	0.07553
3953.55713	0.07566
3951.62856	0.07617
3949.70000	0.07693
3947.77144	0.07710
3945.84287	0.07662
3943.91431	0.07656
3941.98574	0.07680
3940.05718	0.07666
3938.12861	0.07666
3936.20005	0.07696
3934.27148	0.07722
3932.34292	0.07755
3930.41436	0.07762
3928.48579	0.07696
3926.55723	0.07653
3924.62866	0.07696
3922.70010	0.07716
3920.77153	0.07662
3918.84297	0.07644
3916.91440	0.07677
3914.98584	0.07642
3913.05728	0.07538
3911.12871	0.07477
3909.20015	0.07486
3907.27158	0.07548
3905.34302	0.07663
3903.41445	0.07791
3901.48589	0.07848
3899.55732	0.07832
3897.62876	0.07763
3895.70020	0.07668
3893.77163	0.07622
3891.84307	0.07659
3889.91450	0.07688
3887.98594	0.07655
3886.05737	0.07685
3884.12881	0.07785
3882.20024	0.07829
3880.27168	0.07819
3878.34312	0.07766
3876.41455	0.07725
3874.48599	0.07783
3872.55742	0.07906
3870.62886	0.08018
3868.70029	0.08067
3866.77173	0.08026
3864.84316	0.08029
3862.91460	0.08087
3860.98604	0.08050
3859.05747	0.07972
3857.12891	0.07989
3855.20034	0.08150
3853.27178	0.08487
3851.34321	0.08658
3849.41465	0.08439
3847.48608	0.08261
3845.55752	0.08233
3843.62896	0.08329
3841.70039	0.08513
3839.77183	0.08745
3837.84326	0.08935
3835.91470	0.08922
3833.98613	0.08827
3832.05757	0.08811
3830.12900	0.08826
3828.20044	0.08843
3826.27187	0.08918
3824.34331	0.09015
3822.41475	0.09123
3820.48618	0.09352
3818.55762	0.09534
3816.62905	0.09575
3814.70049	0.09590
3812.77192	0.09529
3810.84336	0.09487
3808.91479	0.09577
3806.98623	0.09803
3805.05767	0.10030
3803.12910	0.10204
3801.20054	0.10459
3799.27197	0.10618
3797.34341	0.10596
3795.41484	0.10601
3793.48628	0.10602
3791.55771	0.10606
3789.62915	0.10685
3787.70059	0.10826
3785.77202	0.11015
3783.84346	0.11230
3781.91489	0.11432
3779.98633	0.11639
3778.05776	0.11806
3776.12920	0.11861
3774.20063	0.11924
3772.27207	0.12070
3770.34351	0.12301
3768.41494	0.12557
3766.48638	0.12730
3764.55781	0.12886
3762.62925	0.13080
3760.70068	0.13320
3758.77212	0.13659
3756.84355	0.13997
3754.91499	0.14223
3752.98643	0.14479
3751.05786	0.14940
3749.12930	0.15438
3747.20073	0.15618
3745.27217	0.15752
3743.34360	0.16091
3741.41504	0.16422
3739.48647	0.16655
3737.55791	0.17003
3735.62935	0.17580
3733.70078	0.18215
3731.77222	0.18607
3729.84365	0.18897
3727.91509	0.19263
3725.98652	0.19787
3724.05796	0.20462
3722.12939	0.21184
3720.20083	0.21894
3718.27227	0.22593
3716.34370	0.23330
3714.41514	0.24105
3712.48657	0.25061
3710.55801	0.26442
3708.62944	0.27867
3706.70088	0.28964
3704.77231	0.30031
3702.84375	0.31346
3700.91519	0.33096
3698.98662	0.34984
3697.05806	0.36715
3695.12949	0.38525
3693.20093	0.40470
3691.27236	0.42660
3689.34380	0.45599
3687.41523	0.49165
3685.48667	0.52152
3683.55811	0.54733
3681.62954	0.57554
3679.70098	0.60738
3677.77241	0.64077
3675.84385	0.68054
3673.91528	0.73540
3671.98672	0.77973
3670.05815	0.81881
3668.12959	0.87329
3666.20103	0.92166
3664.27246	0.96133
3662.34390	1.00433
3660.41533	1.05110
3658.48677	1.09741
3656.55820	1.14711
3654.62964	1.20289
3652.70107	1.24900
3650.77251	1.28849
3648.84395	1.34503
3646.91538	1.41595
3644.98682	1.46592
3643.05825	1.50429
3641.12969	1.54455
3639.20112	1.58868
3637.27256	1.63254
3635.34399	1.67548
3633.41543	1.71904
3631.48687	1.76037
3629.55830	1.80278
3627.62974	1.85863
3625.70117	1.90924
3623.77261	1.94191
3621.84404	1.97379
3619.91548	2.01214
3617.98691	2.05959
3616.05835	2.10361
3614.12979	2.13917
3612.20122	2.17829
3610.27266	2.21898
3608.34409	2.25925
3606.41553	2.30097
3604.48696	2.33970
3602.55840	2.37448
3600.62983	2.41164
3598.70127	2.45233
3596.77271	2.49265
3594.84414	2.53369
3592.91558	2.57602
3590.98701	2.61558
3589.05845	2.65194
3587.12988	2.69500
3585.20132	2.74295
3583.27275	2.78425
3581.34419	2.82251
3579.41562	2.86344
3577.48706	2.90705
3575.55850	2.95038
3573.62993	2.99312
3571.70137	3.03422
3569.77280	3.07404
3567.84424	3.11526
3565.91567	3.16477
3563.98711	3.21644
3562.05854	3.26068
3560.12998	3.30238
3558.20142	3.34534
3556.27285	3.39002
3554.34429	3.43412
3552.41572	3.47985
3550.48716	3.52718
3548.55859	3.57200
3546.63003	3.61584
3544.70146	3.66433
3542.77290	3.71540
3540.84434	3.76390
3538.91577	3.81062
3536.98721	3.85620
3535.05864	3.90356
3533.13008	3.94995
3531.20151	3.99165
3529.27295	4.03667
3527.34438	4.09172
3525.41582	4.14519
3523.48726	4.19009
3521.55869	4.23510
3519.63013	4.28190
3517.70156	4.32900
3515.77300	4.37620
3513.84443	4.42332
3511.91587	4.47189
3509.98730	4.52580
3508.05874	4.58253
3506.13018	4.63023
3504.20161	4.67138
3502.27305	4.71886
3500.34448	4.76736
3498.41592	4.80700
3496.48735	4.84819
3494.55879	4.89907
3492.63022	4.95082
3490.70166	4.99619
3488.77310	5.04085
3486.84453	5.09150
3484.91597	5.14581
3482.98740	5.19862
3481.05884	5.24853
3479.13027	5.29085
3477.20171	5.32678
3475.27314	5.36937
3473.34458	5.42510
3471.41602	5.48119
3469.48745	5.52322
3467.55889	5.55513
3465.63032	5.59053
3463.70176	5.64214
3461.77319	5.70580
3459.84463	5.76449
3457.91606	5.80906
3455.98750	5.85346
3454.05894	5.91631
3452.13037	5.99116
3450.20181	6.04965
3448.27324	6.08383
3446.34468	6.13073
3444.41611	6.19304
3442.48755	6.24161
3440.55898	6.28713
3438.63042	6.34647
3436.70186	6.39952
3434.77329	6.42946
3432.84473	6.46173
3430.91616	6.51360
3428.98760	6.57618
3427.05903	6.64441
3425.13047	6.71590
3423.20190	6.76677
3421.27334	6.80218
3419.34478	6.84225
3417.41621	6.89456
3415.48765	6.96997
3413.55908	7.04152
3411.63052	7.08105
3409.70195	7.10965
3407.77339	7.15237
3405.84482	7.17390
3403.91626	7.18495
3401.98770	7.22698
3400.05913	7.27990
3398.13057	7.32693
3396.20200	7.35820
3394.27344	7.37834
3392.34487	7.41393
3390.41631	7.46004
3388.48774	7.49379
3386.55918	7.54830
3384.63062	7.59542
3382.70205	7.59422
3380.77349	7.60355
3378.84492	7.65142
3376.91636	7.70172
3374.98779	7.71953
3373.05923	7.71672
3371.13066	7.69207
3369.20210	7.68464
3367.27354	7.72944
3365.34497	7.82792
3363.41641	7.94096
3361.48784	7.96360
3359.55928	7.90551
3357.63071	7.88363
3355.70215	7.92647
3353.77358	7.93549
3351.84502	7.91448
3349.91646	7.91347
3347.98789	7.93821
3346.05933	7.97196
3344.13076	7.97806
3342.20220	7.99462
3340.27363	8.04208
3338.34507	8.09287
3336.41650	8.12341
3334.48794	8.17147
3332.55937	8.21256
3330.63081	8.20693
3328.70225	8.25186
3326.77368	8.33421
3324.84512	8.28321
3322.91655	8.13024
3320.98799	8.03482
3319.05942	8.03542
3317.13086	8.12215
3315.20229	8.23317
3313.27373	8.28329
3311.34517	8.20639
3309.41660	8.12262
3307.48804	8.14315
3305.55947	8.14637
3303.63091	8.09406
3301.70234	8.06747
3299.77378	8.08908
3297.84521	8.13679
3295.91665	8.21392
3293.98809	8.24278
3292.05952	8.17442
3290.13096	8.11063
3288.20239	8.09378
3286.27383	8.13313
3284.34526	8.17296
3282.41670	8.15256
3280.48813	8.15749
3278.55957	8.21731
3276.63101	8.17305
3274.70244	8.08093
3272.77388	8.13234
3270.84531	8.21841
3268.91675	8.17588
3266.98818	8.07786
3265.05962	8.02445
3263.13105	8.10252
3261.20249	8.34730
3259.27393	8.53627
3257.34536	8.43055
3255.41680	8.24745
3253.48823	8.21958
3251.55967	8.26413
3249.63110	8.22253
3247.70254	8.15018
3245.77397	8.12728
3243.84541	8.12034
3241.91685	8.10598
3239.98828	8.15120
3238.05972	8.26188
3236.13115	8.39120
3234.20259	8.45835
3232.27402	8.39194
3230.34546	8.26634
3228.41689	8.15081
3226.48833	8.08386
3224.55977	8.07715
3222.63120	8.10075
3220.70264	8.09061
3218.77407	8.06685
3216.84551	8.11199
3214.91694	8.17312
3212.98838	8.15409
3211.05981	8.03860
3209.13125	7.88717
3207.20269	7.82446
3205.27412	7.89165
3203.34556	7.96828
3201.41699	7.90474
3199.48843	7.76021
3197.55986	7.70238
3195.63130	7.71829
3193.70273	7.68754
3191.77417	7.60570
3189.84561	7.55630
3187.91704	7.58673
3185.98848	7.59781
3184.05991	7.48163
3182.13135	7.34760
3180.20278	7.30581
3178.27422	7.32415
3176.34565	7.32029
3174.41709	7.24272
3172.48853	7.13671
3170.55996	7.07028
3168.63140	7.01494
3166.70283	6.93869
3164.77427	6.87183
3162.84570	6.82167
3160.91714	6.78034
3158.98857	6.72983
3157.06001	6.64169
3155.13145	6.54097
3153.20288	6.45607
3151.27432	6.39368
3149.34575	6.34828
3147.41719	6.28892
3145.48862	6.21548
3143.56006	6.14587
3141.63149	6.07471
3139.70293	6.00177
3137.77437	5.93531
3135.84580	5.87298
3133.91724	5.80445
3131.98867	5.72644
3130.06011	5.64980
3128.13154	5.57897
3126.20298	5.51063
3124.27441	5.44377
3122.34585	5.36614
3120.41729	5.27756
3118.48872	5.20046
3116.56016	5.13819
3114.63159	5.07474
3112.70303	5.00861
3110.77446	4.94402
3108.84590	4.87645
3106.91733	4.80656
3104.98877	4.73973
3103.06021	4.67668
3101.13164	4.61410
3099.20308	4.54969
3097.27451	4.48174
3095.34595	4.41098
3093.41738	4.34339
3091.48882	4.28141
3089.56025	4.21917
3087.63169	4.15368
3085.70312	4.08871
3083.77456	4.02400
3081.84600	3.95834
3079.91743	3.89636
3077.98887	3.83961
3076.06030	3.78336
3074.13174	3.72511
3072.20317	3.66588
3070.27461	3.60794
3068.34604	3.55278
3066.41748	3.49734
3064.48892	3.43883
3062.56035	3.37997
3060.63179	3.32417
3058.70322	3.27141
3056.77466	3.21946
3054.84609	3.16579
3052.91753	3.11147
3050.98896	3.05926
3049.06040	3.00809
3047.13184	2.95732
3045.20327	2.90824
3043.27471	2.86014
3041.34614	2.81175
3039.41758	2.76443
3037.48901	2.71895
3035.56045	2.67305
3033.63188	2.62614
3031.70332	2.58002
3029.77476	2.53588
3027.84619	2.49370
3025.91763	2.45236
3023.98906	2.41089
3022.06050	2.36933
3020.13193	2.32807
3018.20337	2.28760
3016.27480	2.24822
3014.34624	2.20929
3012.41768	2.17009
3010.48911	2.13117
3008.56055	2.09352
3006.63198	2.05738
3004.70342	2.02211
3002.77485	1.98689
3000.84629	1.95152
2998.91772	1.91676
2996.98916	1.88335
2995.06060	1.85061
2993.13203	1.81799
2991.20347	1.78661
2989.27490	1.75641
2987.34634	1.72620
2985.41777	1.69623
2983.48921	1.66666
2981.56064	1.63716
2979.63208	1.60824
2977.70352	1.58006
2975.77495	1.55192
2973.84639	1.52372
2971.91782	1.49625
2969.98926	1.46971
2968.06069	1.44315
2966.13213	1.41663
2964.20356	1.39142
2962.27500	1.36712
2960.34644	1.34216
2958.41787	1.31686
2956.48931	1.29276
2954.56074	1.27005
2952.63218	1.24747
2950.70361	1.22446
2948.77505	1.20200
2946.84648	1.18029
2944.91792	1.15889
2942.98936	1.13806
2941.06079	1.11766
2939.13223	1.09696
2937.20366	1.07587
2935.27510	1.05491
2933.34653	1.03470
2931.41797	1.01505
2929.48940	0.99544
2927.56084	0.97638
2925.63228	0.95858
2923.70371	0.94200
2921.77515	0.92600
2919.84658	0.91019
2917.91802	0.89449
2915.98945	0.87867
2914.06089	0.86301
2912.13232	0.84794
2910.20376	0.83348
2908.27520	0.81959
2906.34663	0.80621
2904.41807	0.79303
2902.48950	0.77976
2900.56094	0.76648
2898.63237	0.75368
2896.70381	0.74153
2894.77524	0.72981
2892.84668	0.71821
2890.91812	0.70646
2888.98955	0.69479
2887.06099	0.68361
2885.13242	0.67302
2883.20386	0.66262
2881.27529	0.65200
2879.34673	0.64126
2877.41816	0.63073
2875.48960	0.62050
2873.56104	0.61033
2871.63247	0.60000
2869.70391	0.58929
2867.77534	0.57856
2865.84678	0.56836
2863.91821	0.55842
2861.98965	0.54819
2860.06108	0.53780
2858.13252	0.52781
2856.20396	0.51816
2854.27539	0.50866
2852.34683	0.49993
2850.41826	0.49220
2848.48970	0.48457
2846.56113	0.47692
2844.63257	0.47010
2842.70400	0.46407
2840.77544	0.45825
2838.84687	0.45254
2836.91831	0.44690
2834.98975	0.44117
2833.06118	0.43532
2831.13262	0.42929
2829.20405	0.42335
2827.27549	0.41778
2825.34692	0.41217
2823.41836	0.40624
2821.48979	0.40036
2819.56123	0.39470
2817.63267	0.38915
2815.70410	0.38352
2813.77554	0.37783
2811.84697	0.37225
2809.91841	0.36685
2807.98984	0.36150
2806.06128	0.35622
2804.13271	0.35112
2802.20415	0.34623
2800.27559	0.34160
2798.34702	0.33699
2796.41846	0.33220
2794.48989	0.32742
2792.56133	0.32287
2790.63276	0.31853
2788.70420	0.31423
2786.77563	0.30993
2784.84707	0.30574
2782.91851	0.30170
2780.98994	0.29761
2779.06138	0.29357
2777.13281	0.28982
2775.20425	0.28622
2773.27568	0.28260
2771.34712	0.27900
2769.41855	0.27547
2767.48999	0.27201
2765.56143	0.26867
2763.63286	0.26534
2761.70430	0.26193
2759.77573	0.25854
2757.84717	0.25535
2755.91860	0.25241
2753.99004	0.24950
2752.06147	0.24658
2750.13291	0.24372
2748.20435	0.24092
2746.27578	0.23816
2744.34722	0.23543
2742.41865	0.23280
2740.49009	0.23029
2738.56152	0.22787
2736.63296	0.22553
2734.70439	0.22326
2732.77583	0.22092
2730.84727	0.21840
2728.91870	0.21582
2726.99014	0.21361
2725.06157	0.21176
2723.13301	0.20989
2721.20444	0.20793
2719.27588	0.20601
2717.34731	0.20410
2715.41875	0.20217
2713.49019	0.20041
2711.56162	0.19874
2709.63306	0.19688
2707.70449	0.19496
2705.77593	0.19328
2703.84736	0.19171
2701.91880	0.19011
2699.99023	0.18857
2698.06167	0.18714
2696.13311	0.18576
2694.20454	0.18440
2692.27598	0.18300
2690.34741	0.18161
2688.41885	0.18041
2686.49028	0.17927
2684.56172	0.17805
2682.63315	0.17676
2680.70459	0.17543
2678.77603	0.17417
2676.84746	0.17308
2674.91890	0.17215
2672.99033	0.17119
2671.06177	0.17023
2669.13320	0.16923
2667.20464	0.16813
2665.27607	0.16710
2663.34751	0.16618
2661.41895	0.16525
2659.49038	0.16442
2657.56182	0.16373
2655.63325	0.16296
2653.70469	0.16210
2651.77612	0.16149
2649.84756	0.16105
2647.91899	0.16048
2645.99043	0.15991
2644.06187	0.15943
2642.13330	0.15883
2640.20474	0.15817
2638.27617	0.15762
2636.34761	0.15711
2634.41904	0.15661
2632.49048	0.15617
2630.56191	0.15574
2628.63335	0.15538
2626.70479	0.15520
2624.77622	0.15508
2622.84766	0.15489
2620.91909	0.15468
2618.99053	0.15456
2617.06196	0.15432
2615.13340	0.15382
2613.20483	0.15341
2611.27627	0.15328
2609.34771	0.15329
2607.41914	0.15340
2605.49058	0.15352
2603.56201	0.15355
2601.63345	0.15351
2599.70488	0.15334
2597.77632	0.15317
2595.84775	0.15324
2593.91919	0.15360
2591.99062	0.15402
2590.06206	0.15438
2588.13350	0.15458
2586.20493	0.15465
2584.27637	0.15485
2582.34780	0.15515
2580.41924	0.15538
2578.49067	0.15557
2576.56211	0.15573
2574.63354	0.15589
2572.70498	0.15621
2570.77642	0.15660
2568.84785	0.15697
2566.91929	0.15744
2564.99072	0.15800
2563.06216	0.15852
2561.13359	0.15890
2559.20503	0.15922
2557.27646	0.15972
2555.34790	0.16041
2553.41934	0.16113
2551.49077	0.16171
2549.56221	0.16210
2547.63364	0.16246
2545.70508	0.16302
2543.77651	0.16372
2541.84795	0.16445
2539.91938	0.16521
2537.99082	0.16594
2536.06226	0.16656
2534.13369	0.16710
2532.20513	0.16767
2530.27656	0.16834
2528.34800	0.16906
2526.41943	0.16974
2524.49087	0.17046
2522.56230	0.17129
2520.63374	0.17223
2518.70518	0.17317
2516.77661	0.17392
2514.84805	0.17455
2512.91948	0.17526
2510.99092	0.17614
2509.06235	0.17701
2507.13379	0.17780
2505.20522	0.17864
2503.27666	0.17948
2501.34810	0.18022
2499.41953	0.18099
2497.49097	0.18191
2495.56240	0.18293
2493.63384	0.18380
2491.70527	0.18453
2489.77671	0.18535
2487.84814	0.18629
2485.91958	0.18726
2483.99102	0.18821
2482.06245	0.18918
2480.13389	0.19020
2478.20532	0.19112
2476.27676	0.19187
2474.34819	0.19258
2472.41963	0.19339
2470.49106	0.19435
2468.56250	0.19543
2466.63394	0.19644
2464.70537	0.19730
2462.77681	0.19824
2460.84824	0.19935
2458.91968	0.20041
2456.99111	0.20137
2455.06255	0.20228
2453.13398	0.20316
2451.20542	0.20409
2449.27686	0.20512
2447.34829	0.20616
2445.41973	0.20717
2443.49116	0.20812
2441.56260	0.20905
2439.63403	0.21010
2437.70547	0.21121
2435.77690	0.21220
2433.84834	0.21314
2431.91978	0.21413
2429.99121	0.21521
2428.06265	0.21637
2426.13408	0.21763
2424.20552	0.21884
2422.27695	0.21989
2420.34839	0.22091
2418.41982	0.22201
2416.49126	0.22314
2414.56270	0.22426
2412.63413	0.22537
2410.70557	0.22656
2408.77700	0.22783
2406.84844	0.22911
2404.91987	0.23035
2402.99131	0.23154
2401.06274	0.23282
2399.13418	0.23413
2397.20562	0.23529
2395.27705	0.23641
2393.34849	0.23768
2391.41992	0.23904
2389.49136	0.24025
2387.56279	0.24133
2385.63423	0.24244
2383.70566	0.24362
2381.77710	0.24483
2379.84854	0.24615
2377.91997	0.24754
2375.99141	0.24887
2374.06284	0.25027
2372.13428	0.25199
2370.20571	0.25389
2368.27715	0.25530
2366.34858	0.25603
2364.42002	0.25714
2362.49146	0.25882
2360.56289	0.25979
2358.63433	0.26138
2356.70576	0.26436
2354.77720	0.26645
2352.84863	0.26779
2350.92007	0.26928
2348.99150	0.27058
2347.06294	0.27161
2345.13437	0.27267
2343.20581	0.27384
2341.27725	0.27541
2339.34868	0.27723
2337.42012	0.27885
2335.49155	0.28093
2333.56299	0.28278
2331.63442	0.28413
2329.70586	0.28607
2327.77729	0.28820
2325.84873	0.28986
2323.92017	0.29153
2321.99160	0.29331
2320.06304	0.29490
2318.13447	0.29644
2316.20591	0.29808
2314.27734	0.29981
2312.34878	0.30161
2310.42021	0.30352
2308.49165	0.30549
2306.56309	0.30750
2304.63452	0.30952
2302.70596	0.31129
2300.77739	0.31284
2298.84883	0.31456
2296.92026	0.31653
2294.99170	0.31854
2293.06313	0.32049
2291.13457	0.32247
2289.20601	0.32452
2287.27744	0.32663
2285.34888	0.32865
2283.42031	0.33050
2281.49175	0.33235
2279.56318	0.33437
2277.63462	0.33652
2275.70605	0.33864
2273.77749	0.34068
2271.84893	0.34269
2269.92036	0.34472
2267.99180	0.34683
2266.06323	0.34900
2264.13467	0.35126
2262.20610	0.35359
2260.27754	0.35585
2258.34897	0.35803
2256.42041	0.36014
2254.49185	0.36224
2252.56328	0.36443
2250.63472	0.36668
2248.70615	0.36888
2246.77759	0.37098
2244.84902	0.37308
2242.92046	0.37528
2240.99189	0.37754
2239.06333	0.37979
2237.13477	0.38208
2235.20620	0.38436
2233.27764	0.38661
2231.34907	0.38891
2229.42051	0.39121
2227.49194	0.39342
2225.56338	0.39570
2223.63481	0.39805
2221.70625	0.40028
2219.77769	0.40238
2217.84912	0.40448
2215.92056	0.40664
2213.99199	0.40894
2212.06343	0.41134
2210.13486	0.41357
2208.20630	0.41553
2206.27773	0.41755
2204.34917	0.41978
2202.42061	0.42193
2200.49204	0.42383
2198.56348	0.42563
2196.63491	0.42758
2194.70635	0.42978
2192.77778	0.43202
2190.84922	0.43399
2188.92065	0.43574
2186.99209	0.43749
2185.06353	0.43923
2183.13496	0.44094
2181.20640	0.44274
2179.27783	0.44450
2177.34927	0.44611
2175.42070	0.44770
2173.49214	0.44933
2171.56357	0.45088
2169.63501	0.45232
2167.70645	0.45362
2165.77788	0.45478
2163.84932	0.45591
2161.92075	0.45710
2159.99219	0.45818
2158.06362	0.45913
2156.13506	0.46012
2154.20649	0.46114
2152.27793	0.46205
2150.34937	0.46273
2148.42080	0.46325
2146.49224	0.46374
2144.56367	0.46432
2142.63511	0.46490
2140.70654	0.46533
2138.77798	0.46563
2136.84941	0.46585
2134.92085	0.46597
2132.99229	0.46593
2131.06372	0.46578
2129.13516	0.46568
2127.20659	0.46558
2125.27803	0.46533
2123.34946	0.46492
2121.42090	0.46449
2119.49233	0.46398
2117.56377	0.46333
2115.63521	0.46257
2113.70664	0.46178
2111.77808	0.46096
2109.84951	0.45999
2107.92095	0.45893
2105.99238	0.45783
2104.06382	0.45666
2102.13525	0.45536
2100.20669	0.45409
2098.27812	0.45282
2096.34956	0.45139
2094.42100	0.44982
2092.49243	0.44820
2090.56387	0.44649
2088.63530	0.44471
2086.70674	0.44291
2084.77817	0.44107
2082.84961	0.43913
2080.92104	0.43715
2078.99248	0.43511
2077.06392	0.43298
2075.13535	0.43086
2073.20679	0.42872
2071.27822	0.42649
2069.34966	0.42421
2067.42109	0.42201
2065.49253	0.41984
2063.56396	0.41749
2061.63540	0.41501
2059.70684	0.41251
2057.77827	0.40999
2055.84971	0.40743
2053.92114	0.40473
2051.99258	0.40198
2050.06401	0.39930
2048.13545	0.39677
2046.20688	0.39425
2044.27832	0.39149
2042.34976	0.38857
2040.42119	0.38577
2038.49263	0.38304
2036.56406	0.38024
2034.63550	0.37748
2032.70693	0.37476
2030.77837	0.37205
2028.84980	0.36926
2026.92124	0.36647
2024.99268	0.36375
2023.06411	0.36103
2021.13555	0.35821
2019.20698	0.35542
2017.27842	0.35266
2015.34985	0.34976
2013.42129	0.34683
2011.49272	0.34405
2009.56416	0.34136
2007.63560	0.33861
2005.70703	0.33581
2003.77847	0.33303
2001.84990	0.33027
1999.92134	0.32755
1997.99277	0.32487
1996.06421	0.32230
1994.13564	0.31991
1992.20708	0.31758
1990.27852	0.31510
1988.34995	0.31259
1986.42139	0.31006
1984.49282	0.30751
1982.56426	0.30503
1980.63569	0.30265
1978.70713	0.30036
1976.77856	0.29803
1974.85000	0.29563
1972.92144	0.29326
1970.99287	0.29111
1969.06431	0.28927
1967.13574	0.28746
1965.20718	0.28534
1963.27861	0.28312
1961.35005	0.28103
1959.42148	0.27904
1957.49292	0.27713
1955.56436	0.27534
1953.63579	0.27364
1951.70723	0.27195
1949.77866	0.27023
1947.85010	0.26853
1945.92153	0.26702
1943.99297	0.26579
1942.06440	0.26456
1940.13584	0.26292
1938.20728	0.26116
1936.27871	0.25960
1934.35015	0.25822
1932.42158	0.25699
1930.49302	0.25576
1928.56445	0.25449
1926.63589	0.25332
1924.70732	0.25237
1922.77876	0.25156
1920.85020	0.25066
1918.92163	0.24967
1916.99307	0.24862
1915.06450	0.24749
1913.13594	0.24654
1911.20737	0.24597
1909.27881	0.24550
1907.35024	0.24479
1905.42168	0.24394
1903.49312	0.24323
1901.56455	0.24266
1899.63599	0.24214
1897.70742	0.24176
1895.77886	0.24150
1893.85029	0.24119
1891.92173	0.24078
1889.99316	0.24054
1888.06460	0.24028
1886.13604	0.23986
1884.20747	0.23946
1882.27891	0.23909
1880.35034	0.23885
1878.42178	0.23882
1876.49321	0.23890
1874.56465	0.23887
1872.63608	0.23893
1870.70752	0.23935
1868.77896	0.24010
1866.85039	0.24040
1864.92183	0.24009
1862.99326	0.23990
1861.06470	0.24005
1859.13613	0.24045
1857.20757	0.24087
1855.27900	0.24128
1853.35044	0.24169
1851.42187	0.24224
1849.49331	0.24294
1847.56475	0.24379
1845.63618	0.24478
1843.70762	0.24579
1841.77905	0.24639
1839.85049	0.24663
1837.92192	0.24726
1835.99336	0.24823
1834.06479	0.24922
1832.13623	0.25026
1830.20767	0.25185
1828.27910	0.25351
1826.35054	0.25451
1824.42197	0.25563
1822.49341	0.25675
1820.56484	0.25782
1818.63628	0.25914
1816.70771	0.26077
1814.77915	0.26239
1812.85059	0.26418
1810.92202	0.26637
1808.99346	0.26848
1807.06489	0.27027
1805.13633	0.27206
1803.20776	0.27429
1801.27920	0.27694
1799.35063	0.27984
1797.42207	0.28243
1795.49351	0.28494
1793.56494	0.28797
1791.63638	0.29182
1789.70781	0.29515
1787.77925	0.29746
1785.85068	0.30042
1783.92212	0.30415
1781.99355	0.30813
1780.06499	0.31240
1778.13643	0.31671
1776.20786	0.32073
1774.27930	0.32522
1772.35073	0.33140
1770.42217	0.33785
1768.49360	0.34294
1766.56504	0.34788
1764.63647	0.35309
1762.70791	0.35899
1760.77935	0.36653
1758.85078	0.37356
1756.92222	0.38064
1754.99365	0.38840
1753.06509	0.39536
1751.13652	0.40370
1749.20796	0.41451
1747.27939	0.42514
1745.35083	0.43411
1743.42227	0.44337
1741.49370	0.45376
1739.56514	0.46626
1737.63657	0.47882
1735.70801	0.48980
1733.77944	0.50659
1731.85088	0.52658
1729.92231	0.54181
1727.99375	0.55721
1726.06519	0.57384
1724.13662	0.59241
1722.20806	0.61264
1720.27949	0.63096
1718.35093	0.65238
1716.42236	0.68558
1714.49380	0.71722
1712.56523	0.74164
1710.63667	0.76502
1708.70811	0.79023
1706.77954	0.81909
1704.85098	0.85419
1702.92241	0.88542
1700.99385	0.91531
1699.06528	0.96054
1697.13672	1.00271
1695.20815	1.04548
1693.27959	1.08579
1691.35103	1.11721
1689.42246	1.15401
1687.49390	1.19337
1685.56533	1.23103
1683.63677	1.29080
1681.70820	1.35357
1679.77964	1.39191
1677.85107	1.42806
1675.92251	1.46984
1673.99395	1.52279
1672.06538	1.56954
1670.13682	1.61437
1668.20825	1.67331
1666.27969	1.71909
1664.35112	1.75760
1662.42256	1.80798
1660.49399	1.86483
1658.56543	1.90657
1656.63687	1.94049
1654.70830	1.97392
1652.77974	2.03223
1650.85117	2.08831
1648.92261	2.10735
1646.99404	2.13574
1645.06548	2.16927
1643.13691	2.19164
1641.20835	2.20532
1639.27979	2.21780
1637.35122	2.22579
1635.42266	2.22686
1633.49409	2.22105
1631.56553	2.21070
1629.63696	2.19796
1627.70840	2.17300
1625.77983	2.14313
1623.85127	2.10504
1621.92271	2.05784
1619.99414	2.01739
1618.06558	1.97848
1616.13701	1.91911
1614.20845	1.85685
1612.27988	1.81025
1610.35132	1.76191
1608.42275	1.70931
1606.49419	1.65654
1604.56562	1.60757
1602.63706	1.56044
1600.70850	1.51419
1598.77993	1.47133
1596.85137	1.43098
1594.92280	1.39162
1592.99424	1.35343
1591.06567	1.31834
1589.13711	1.28497
1587.20854	1.25352
1585.27998	1.22433
1583.35142	1.19677
1581.42285	1.17109
1579.49429	1.14893
1577.56572	1.12918
1575.63716	1.10478
1573.70859	1.08287
1571.78003	1.06831
1569.85146	1.05265
1567.92290	1.03491
1565.99434	1.02111
1564.06577	1.00947
1562.13721	1.00008
1560.20864	0.99334
1558.28008	0.98162
1556.35151	0.96959
1554.42295	0.96242
1552.49438	0.95553
1550.56582	0.94826
1548.63726	0.94007
1546.70869	0.93204
1544.78013	0.92382
1542.85156	0.91433
1540.92300	0.90163
1538.99443	0.88248
1537.06587	0.86885
1535.13730	0.86001
1533.20874	0.84851
1531.28018	0.83578
1529.35161	0.82643
1527.42305	0.81818
1525.49448	0.80995
1523.56592	0.80249
1521.63735	0.79454
1519.70879	0.78579
1517.78022	0.77854
1515.85166	0.77080
1513.92310	0.76288
1511.99453	0.75626
1510.06597	0.75076
1508.13740	0.74603
1506.20884	0.73776
1504.28027	0.72937
1502.35171	0.72448
1500.42314	0.72045
1498.49458	0.71635
1496.56602	0.71153
1494.63745	0.70652
1492.70889	0.70278
1490.78032	0.70011
1488.85176	0.69707
1486.92319	0.69321
1484.99463	0.68974
1483.06606	0.68710
1481.13750	0.68480
1479.20894	0.68267
1477.28037	0.68107
1475.35181	0.67987
1473.42324	0.67862
1471.49468	0.67628
1469.56611	0.67318
1467.63755	0.67057
1465.70898	0.66859
1463.78042	0.66665
1461.85186	0.66475
1459.92329	0.66358
1457.99473	0.66281
1456.06616	0.66077
1454.13760	0.65777
1452.20903	0.65525
1450.28047	0.65300
1448.35190	0.65094
1446.42334	0.64870
1444.49478	0.64633
1442.56621	0.64418
1440.63765	0.64241
1438.70908	0.64093
1436.78052	0.63922
1434.85195	0.63695
1432.92339	0.63481
1430.99482	0.63337
1429.06626	0.63240
1427.13770	0.63136
1425.20913	0.63038
1423.28057	0.62971
1421.35200	0.62917
1419.42344	0.62862
1417.49487	0.62738
1415.56631	0.62546
1413.63774	0.62394
1411.70918	0.62289
1409.78062	0.62197
1407.85205	0.62127
1405.92349	0.62085
1403.99492	0.62027
1402.06636	0.61920
1400.13779	0.61794
1398.20923	0.61653
1396.28066	0.61491
1394.35210	0.61276
1392.42354	0.61015
1390.49497	0.60781
1388.56641	0.60581
1386.63784	0.60351
1384.70928	0.60086
1382.78071	0.59838
1380.85215	0.59616
1378.92358	0.59423
1376.99502	0.59278
1375.06646	0.59185
1373.13789	0.59115
1371.20933	0.59049
1369.28076	0.58979
1367.35220	0.58880
1365.42363	0.58766
1363.49507	0.58675
1361.56650	0.58575
1359.63794	0.58436
1357.70937	0.58299
1355.78081	0.58188
1353.85225	0.58093
1351.92368	0.58001
1349.99512	0.57909
1348.06655	0.57811
1346.13799	0.57701
1344.20942	0.57599
1342.28086	0.57520
1340.35229	0.57463
1338.42373	0.57384
1336.49517	0.57262
1334.56660	0.57135
1332.63804	0.57039
1330.70947	0.56977
1328.78091	0.56935
1326.85234	0.56900
1324.92378	0.56870
1322.99521	0.56848
1321.06665	0.56832
1319.13809	0.56814
1317.20952	0.56767
1315.28096	0.56693
1313.35239	0.56616
1311.42383	0.56525
1309.49526	0.56419
1307.56670	0.56328
1305.63813	0.56254
1303.70957	0.56177
1301.78101	0.56094
1299.85244	0.56001
1297.92388	0.55897
1295.99531	0.55789
1294.06675	0.55690
1292.13818	0.55600
1290.20962	0.55507
1288.28105	0.55416
1286.35249	0.55332
1284.42393	0.55255
1282.49536	0.55176
1280.56680	0.55104
1278.63823	0.55037
1276.70967	0.54955
1274.78110	0.54867
1272.85254	0.54798
1270.92397	0.54742
1268.99541	0.54686
1267.06685	0.54624
1265.13828	0.54563
1263.20972	0.54515
1261.28115	0.54494
1259.35259	0.54479
1257.42402	0.54444
1255.49546	0.54401
1253.56689	0.54369
1251.63833	0.54363
1249.70977	0.54380
1247.78120	0.54377
1245.85264	0.54343
1243.92407	0.54293
1241.99551	0.54240
1240.06694	0.54181
1238.13838	0.54087
1236.20981	0.53964
1234.28125	0.53853
1232.35269	0.53754
1230.42412	0.53643
1228.49556	0.53518
1226.56699	0.53396
1224.63843	0.53297
1222.70986	0.53205
1220.78130	0.53099
1218.85273	0.52988
1216.92417	0.52888
1214.99561	0.52807
1213.06704	0.52750
1211.13848	0.52695
1209.20991	0.52632
1207.28135	0.52562
1205.35278	0.52485
1203.42422	0.52414
1201.49565	0.52348
1199.56709	0.52278
1197.63853	0.52208
1195.70996	0.52136
1193.78140	0.52067
1191.85283	0.52010
1189.92427	0.51958
1187.99570	0.51912
1186.06714	0.51881
1184.13857	0.51861
1182.21001	0.51859
1180.28145	0.51891
1178.35288	0.51954
1176.42432	0.52032
1174.49575	0.52112
1172.56719	0.52186
1170.63862	0.52253
1168.71006	0.52322
1166.78149	0.52388
1164.85293	0.52448
1162.92437	0.52517
1160.99580	0.52581
1159.06724	0.52591
1157.13867	0.52539
1155.21011	0.52459
1153.28154	0.52353
1151.35298	0.52206
1149.42441	0.52010
1147.49585	0.51767
1145.56729	0.51495
1143.63872	0.51220
1141.71016	0.50967
1139.78159	0.50746
1137.85303	0.50557
1135.92446	0.50400
1133.99590	0.50281
1132.06733	0.50199
1130.13877	0.50113
1128.21021	0.50007
1126.28164	0.49923
1124.35308	0.49876
1122.42451	0.49854
1120.49595	0.49842
1118.56738	0.49835
1116.63882	0.49849
1114.71025	0.49898
1112.78169	0.49979
1110.85312	0.50079
1108.92456	0.50173
1106.99600	0.50253
1105.06743	0.50335
1103.13887	0.50437
1101.21030	0.50573
1099.28174	0.50738
1097.35317	0.50933
1095.42461	0.51196
1093.49604	0.51567
1091.56748	0.52056
1089.63892	0.52650
1087.71035	0.53353
1085.78179	0.54161
1083.85322	0.54998
1081.92466	0.55746
1079.99609	0.56312
1078.06753	0.56640
1076.13896	0.56678
1074.21040	0.56415
1072.28184	0.55911
1070.35327	0.55252
1068.42471	0.54532
1066.49614	0.53844
1064.56758	0.53227
1062.63901	0.52676
1060.71045	0.52192
1058.78188	0.51783
1056.85332	0.51425
1054.92476	0.51099
1052.99619	0.50813
1051.06763	0.50575
1049.13906	0.50408
1047.21050	0.50340
1045.28193	0.50343
1043.35337	0.50339
1041.42480	0.50319
1039.49624	0.50329
1037.56768	0.50354
1035.63911	0.50347
1033.71055	0.50310
1031.78198	0.50249
1029.85342	0.50145
1027.92485	0.50012
1025.99629	0.49891
1024.06772	0.49795
1022.13916	0.49737
1020.21060	0.49720
1018.28203	0.49707
1016.35347	0.49697
1014.42490	0.49710
1012.49634	0.49722
1010.56777	0.49718
1008.63921	0.49724
1006.71064	0.49769
1004.78208	0.49878
1002.85352	0.50079
1000.92495	0.50361
998.99639	0.50695
997.06782	0.51075
995.13926	0.51490
993.21069	0.51893
991.28213	0.52219
989.35356	0.52422
987.42500	0.52498
985.49644	0.52504
983.56787	0.52504
981.63931	0.52542
979.71074	0.52638
977.78218	0.52791
975.85361	0.52994
973.92505	0.53241
971.99648	0.53528
970.06792	0.53856
968.13936	0.54227
966.21079	0.54624
964.28223	0.55054
962.35366	0.55531
960.42510	0.56043
958.49653	0.56580
956.56797	0.57146
954.63940	0.57748
952.71084	0.58369
950.78228	0.58984
948.85371	0.59601
946.92515	0.60229
944.99658	0.60880
943.06802	0.61549
941.13945	0.62172
939.21089	0.62728
937.28232	0.63245
935.35376	0.63759
933.42520	0.64321
931.49663	0.64917
929.56807	0.65500
927.63950	0.66067
925.71094	0.66646
923.78237	0.67247
921.85381	0.67860
919.92524	0.68505
917.99668	0.69196
916.06812	0.69944
914.13955	0.70727
912.21099	0.71501
910.28242	0.72274
908.35386	0.73086
906.42529	0.73942
904.49673	0.74817
902.56816	0.75710
900.63960	0.76625
898.71104	0.77566
896.78247	0.78554
894.85391	0.79531
892.92534	0.80454
890.99678	0.81455
889.06821	0.82627
887.13965	0.83876
885.21108	0.85079
883.28252	0.86158
881.35396	0.87247
879.42539	0.88551
877.49683	0.89819
875.56826	0.90781
873.63970	0.91732
871.71113	0.92898
869.78257	0.94030
867.85400	0.95023
865.92544	0.96069
863.99687	0.97316
862.06831	0.98691
860.13975	0.99898
858.21118	1.00917
856.28262	1.02043
854.35405	1.03300
852.42549	1.04499
850.49692	1.05647
848.56836	1.06843
846.63979	1.08114
844.71123	1.09359
842.78267	1.10394
840.85410	1.11385
838.92554	1.12546
836.99697	1.13672
835.06841	1.14668
833.13984	1.15723
831.21128	1.16785
829.28271	1.17745
827.35415	1.18739
825.42559	1.19737
823.49702	1.20890
821.56846	1.22559
819.63989	1.24298
817.71133	1.25218
815.78276	1.25518
813.85420	1.26023
811.92563	1.27183
809.99707	1.28890
808.06851	1.30562
806.13994	1.32368
804.21138	1.35171
802.28281	1.38874
800.35425	1.41161
798.42568	1.41266
796.49712	1.41364
794.56855	1.42305
792.63999	1.43319
790.71143	1.42371
788.78286	1.40090
786.85430	1.38235
784.92573	1.36603
782.99717	1.38233
781.06860	1.50770
779.14004	1.76731
777.21147	1.90492
775.28291	1.97180
773.35435	2.23197
771.42578	1.82303
769.49722	1.46871
767.56865	1.35422
765.64009	1.42479
763.71152	1.64302
761.78296	1.66965
759.85439	1.46704
757.92583	1.35097
755.99727	1.32331
754.06870	1.36330
752.14014	1.37963
750.21157	1.35112
748.28301	1.38375
746.35444	1.51977
744.42588	1.48582
742.49731	1.23044
740.56875	1.06952
738.64019	0.97884
736.71162	0.86147
734.78306	0.79234
732.85449	0.77120
730.92593	0.70491
728.99736	0.65300
727.06880	0.70353
725.14023	0.71376
723.21167	0.67486
721.28311	1.05753
719.35454	0.67540
717.42598	0.23587
715.49741	0.24353
713.56885	0.48955
711.64028	0.77892
709.71172	0.78984
707.78315	0.77423
705.85459	0.66631
703.92603	0.49165
701.99746	0.42262
700.06890	0.40969
698.14033	0.38423
696.21177	0.34526
694.28320	0.35593
692.35464	0.44119
690.42607	0.54477
688.49751	0.74413
686.56895	4.11941
684.64038	4.10784
682.71182	1.00034
680.78325	0.76221
678.85469	0.85213
676.92612	0.63443
674.99756	0.43441
673.06899	0.46126
671.14043	0.76814
669.21187	1.07603
667.28330	0.69166
665.35474	0.45858
663.42617	0.32798
661.49761	0.30016
659.56904	0.33454
657.64048	0.40241
655.71191	0.61212
653.78335	0.97375
651.85479	0.69943
649.92622	0.58265
647.99766	0.80664
646.06909	1.58151
644.14053	0.83064
642.21196	0.73215
640.28340	0.83948
638.35483	0.60657
636.42627	0.43175
634.49771	0.43837
632.56914	0.45808
630.64058	0.40573
628.71201	0.36164
626.78345	0.33705
624.85488	0.31293
622.92632	0.34775
620.99775	0.55264
619.06919	0.78889
617.14062	0.46956
615.21206	0.31569
613.28350	0.27194
611.35493	0.22028
609.42637	0.21264
607.49780	0.31071
605.56924	0.43519
603.64067	0.44570
601.71211	0.43034
599.78354	0.49248
597.85498	0.55640
595.92642	0.48671
593.99785	0.39889
592.06929	0.39004
590.14072	0.42421
588.21216	0.41917
586.28359	0.43295
584.35503	0.55413
582.42646	1.02645
580.49790	3.48299
578.56934	1.08755
576.64077	0.56147
574.71221	0.47169
572.78364	0.46399
570.85508	0.45946
568.92651	0.47550
566.99795	0.61037
565.06938	0.95090
563.14082	0.62075
561.21226	0.41186
559.28369	0.38163
557.35513	0.47255
555.42656	0.54133
553.49800	0.49306
551.56943	0.42550
549.64087	0.36037
547.71230	0.33981
545.78374	0.34071
543.85518	0.32278
541.92661	0.32244
539.99805	0.33727
538.06948	0.33903
536.14092	0.34018
534.21235	0.35017
532.28379	0.38542
530.35522	0.39664
528.42666	0.29068
526.49810	0.21677
524.56953	0.21914
522.64097	0.26881
520.71240	0.32668
518.78384	0.37658
516.85527	0.36224
514.92671	0.29604
512.99814	0.29143
511.06958	0.39091
509.14102	0.66127
507.21245	3.04327
505.28389	0.74809
503.35532	0.48826
501.42676	0.36705
499.49819	0.30007
