3997.91411	0.06726
3995.98555	0.06788
3994.05698	0.06834
3992.12842	0.06865
3990.19985	0.06879
3988.27129	0.06889
3986.34272	0.06917
3984.41416	0.06962
3982.48560	0.06999
3980.55703	0.07020
3978.62847	0.07031
3976.69990	0.07043
3974.77134	0.07076
3972.84277	0.07132
3970.91421	0.07185
3968.98564	0.07199
3967.05708	0.07174
3965.12852	0.07145
3963.19995	0.07157
3961.27139	0.07210
3959.34282	0.07278
3957.41426	0.07331
3955.48569	0.07329
3953.55713	0.07294
3951.62856	0.07318
3949.70000	0.07428
3947.77144	0.07525
3945.84287	0.07515
3943.91431	0.07511
3941.98574	0.07551
3940.05718	0.07455
3938.12861	0.07280
3936.20005	0.07228
3934.27148	0.07353
3932.34292	0.07573
3930.41436	0.07686
3928.48579	0.07594
3926.55723	0.07508
3924.62866	0.07577
3922.70010	0.07635
3920.77153	0.07581
3918.84297	0.07572
3916.91440	0.07620
3914.98584	0.07528
3913.05728	0.07287
3911.12871	0.07111
3909.20015	0.07094
3907.27158	0.07250
3905.34302	0.07624
3903.41445	0.08087
3901.48589	0.08309
3899.55732	0.08236
3897.62876	0.07960
3895.70020	0.07635
3893.77163	0.07543
3891.84307	0.07723
3889.91450	0.07817
3887.98594	0.07695
3886.05737	0.07725
3884.12881	0.07915
3882.20024	0.08006
3880.27168	0.08036
3878.34312	0.07903
3876.41455	0.07695
3874.48599	0.07757
3872.55742	0.08059
3870.62886	0.08372
3868.70029	0.08499
3866.77173	0.08377
3864.84316	0.08381
3862.91460	0.08508
3860.98604	0.08353
3859.05747	0.08095
3857.12891	0.08112
3855.20034	0.08530
3853.27178	0.09315
3851.34321	0.09526
3849.41465	0.08856
3847.48608	0.08345
3845.55752	0.08238
3843.62896	0.08480
3841.70039	0.08898
3839.77183	0.09338
3837.84326	0.09655
3835.91470	0.09610
3833.98613	0.09342
3832.05757	0.09113
3830.12900	0.08990
3828.20044	0.09002
3826.27187	0.09130
3824.34331	0.09296
3822.41475	0.09596
3820.48618	0.10101
3818.55762	0.10279
3816.62905	0.10112
3814.70049	0.09887
3812.77192	0.09551
3810.84336	0.09345
3808.91479	0.09483
3806.98623	0.09925
3805.05767	0.10312
3803.12910	0.10539
3801.20054	0.10867
3799.27197	0.11017
3797.34341	0.10893
3795.41484	0.10750
3793.48628	0.10544
3791.55771	0.10398
3789.62915	0.10426
3787.70059	0.10586
3785.77202	0.10854
3783.84346	0.11126
3781.91489	0.11288
3779.98633	0.11479
3778.05776	0.11677
3776.12920	0.11688
3774.20063	0.11720
3772.27207	0.11961
3770.34351	0.12378
3768.41494	0.12770
3766.48638	0.12955
3764.55781	0.13049
3762.62925	0.13135
3760.70068	0.13374
3758.77212	0.13866
3756.84355	0.14294
3754.91499	0.14533
3752.98643	0.14992
3751.05786	0.15931
3749.12930	0.16735
3747.20073	0.16765
3745.27217	0.16761
3743.34360	0.17007
3741.41504	0.17188
3739.48647	0.17369
3737.55791	0.17818
3735.62935	0.18645
3733.70078	0.19449
3731.77222	0.19629
3729.84365	0.19572
3727.91509	0.19772
3725.98652	0.20345
3724.05796	0.21122
3722.12939	0.21858
3720.20083	0.22447
3718.27227	0.22894
3716.34370	0.23407
3714.41514	0.24186
3712.48657	0.25434
3710.55801	0.27198
3708.62944	0.28631
3706.70088	0.29430
3704.77231	0.30291
3702.84375	0.31581
3700.91519	0.33334
3698.98662	0.35119
3697.05806	0.36784
3695.12949	0.38661
3693.20093	0.40787
3691.27236	0.43271
3689.34380	0.46454
3687.41523	0.49894
3685.48667	0.52555
3683.55811	0.54868
3681.62954	0.57563
3679.70098	0.60850
3677.77241	0.64550
3675.84385	0.69010
3673.91528	0.74552
3671.98672	0.78649
3670.05815	0.82394
3668.12959	0.87637
3666.20103	0.92138
3664.27246	0.95882
3662.34390	1.00109
3660.41533	1.04819
3658.48677	1.09561
3656.55820	1.14693
3654.62964	1.20402
3652.70107	1.25152
3650.77251	1.29452
3648.84395	1.35656
3646.91538	1.42839
3644.98682	1.47423
3643.05825	1.50882
3641.12969	1.54686
3639.20112	1.59013
3637.27256	1.63441
3635.34399	1.67894
3633.41543	1.72432
3631.48687	1.76676
3629.55830	1.81042
3627.62974	1.86683
3625.70117	1.91530
3623.77261	1.94602
3621.84404	1.97738
3619.91548	2.01695
3617.98691	2.06692
3616.05835	2.11260
3614.12979	2.14943
3612.20122	2.18879
3610.27266	2.22613
3608.34409	2.26202
3606.41553	2.30157
3604.48696	2.33971
3602.55840	2.37580
3600.62983	2.41663
3598.70127	2.46002
3596.77271	2.49996
3594.84414	2.53973
3592.91558	2.58106
3590.98701	2.62034
3589.05845	2.65930
3587.12988	2.70720
3585.20132	2.75528
3583.27275	2.79144
3581.34419	2.82583
3579.41562	2.86575
3577.48706	2.90988
3575.55850	2.95370
3573.62993	2.99621
3571.70137	3.03752
3569.77280	3.07847
3567.84424	3.12268
3565.91567	3.17708
3563.98711	3.22943
3562.05854	3.26957
3560.12998	3.30782
3558.20142	3.35052
3556.27285	3.39658
3554.34429	3.44207
3552.41572	3.48824
3550.48716	3.53412
3548.55859	3.57830
3546.63003	3.62320
3544.70146	3.67100
3542.77290	3.71919
3540.84434	3.76511
3538.91577	3.81136
3536.98721	3.85963
3535.05864	3.90969
3533.13008	3.95730
3531.20151	4.00186
3529.27295	4.04792
3527.34438	4.09896
3525.41582	4.15008
3523.48726	4.19763
3521.55869	4.24592
3519.63013	4.29327
3517.70156	4.33944
3515.77300	4.38614
3513.84443	4.43112
3511.91587	4.47572
3509.98730	4.52313
3508.05874	4.56987
3506.13018	4.61560
3504.20161	4.66665
3502.27305	4.72224
3500.34448	4.76876
3498.41592	4.80566
3496.48735	4.85120
3494.55879	4.90770
3492.63022	4.96529
3490.70166	5.01829
3488.77310	5.06357
3486.84453	5.10688
3484.91597	5.15716
3482.98740	5.21334
3481.05884	5.26399
3479.13027	5.30328
3477.20171	5.34096
3475.27314	5.38024
3473.34458	5.42309
3471.41602	5.47527
3469.48745	5.52864
3467.55889	5.57557
3465.63032	5.62181
3463.70176	5.67953
3461.77319	5.74198
3459.84463	5.79183
3457.91606	5.83968
3455.98750	5.90270
3454.05894	5.96302
3452.13037	6.00339
3450.20181	6.04355
3448.27324	6.10034
3446.34468	6.17288
3444.41611	6.24190
3442.48755	6.28941
3440.55898	6.31859
3438.63042	6.34270
3436.70186	6.37135
3434.77329	6.41480
3432.84473	6.47487
3430.91616	6.53115
3428.98760	6.57596
3427.05903	6.63009
3425.13047	6.69874
3423.20190	6.73239
3421.27334	6.72825
3419.34478	6.75031
3417.41621	6.82267
3415.48765	6.90262
3413.55908	6.95808
3411.63052	7.00524
3409.70195	7.04452
3407.77339	7.08930
3405.84482	7.13242
3403.91626	7.16357
3401.98770	7.18741
3400.05913	7.19585
3398.13057	7.20660
3396.20200	7.25230
3394.27344	7.34727
3392.34487	7.43911
3390.41631	7.47844
3388.48774	7.48009
3386.55918	7.49203
3384.63062	7.52111
3382.70205	7.56787
3380.77349	7.61276
3378.84492	7.61471
3376.91636	7.61404
3374.98779	7.65784
3373.05923	7.74800
3371.13066	7.77641
3369.20210	7.73383
3367.27354	7.74048
3365.34497	7.77136
3363.41641	7.77495
3361.48784	7.80148
3359.55928	7.85648
3357.63071	7.89582
3355.70215	7.88896
3353.77358	7.83594
3351.84502	7.86478
3349.91646	7.97882
3347.98789	8.09224
3346.05933	8.19299
3344.13076	8.22235
3342.20220	8.16622
3340.27363	8.03632
3338.34507	7.90555
3336.41650	7.86701
3334.48794	7.92526
3332.55937	7.99935
3330.63081	8.03600
3328.70225	8.03337
3326.77368	8.04367
3324.84512	8.09320
3322.91655	8.10604
3320.98799	8.07631
3319.05942	8.01193
3317.13086	7.96670
3315.20229	7.99816
3313.27373	8.09807
3311.34517	8.21609
3309.41660	8.23716
3307.48804	8.19794
3305.55947	8.24142
3303.63091	8.26132
3301.70234	8.12884
3299.77378	8.08815
3297.84521	8.15250
3295.91665	8.09509
3293.98809	8.01614
3292.05952	8.02388
3290.13096	8.05571
3288.20239	8.07242
3286.27383	8.04638
3284.34526	7.99818
3282.41670	8.00609
3280.48813	8.05074
3278.55957	8.04131
3276.63101	7.99814
3274.70244	8.01511
3272.77388	8.05155
3270.84531	8.06033
3268.91675	8.11795
3266.98818	8.22441
3265.05962	8.24792
3263.13105	8.15782
3261.20249	8.16318
3259.27393	8.29085
3257.34536	8.32106
3255.41680	8.21281
3253.48823	8.10432
3251.55967	8.05020
3249.63110	8.05088
3247.70254	8.08340
3245.77397	8.03694
3243.84541	7.94498
3241.91685	7.97903
3239.98828	8.12687
3238.05972	8.22482
3236.13115	8.21646
3234.20259	8.17597
3232.27402	8.13312
3230.34546	8.07723
3228.41689	7.99434
3226.48833	7.91572
3224.55977	7.89626
3222.63120	7.91186
3220.70264	7.92874
3218.77407	7.95588
3216.84551	8.00103
3214.91694	8.11020
3212.98838	8.20573
3211.05981	8.11372
3209.13125	7.98420
3207.20269	7.96506
3205.27412	7.92179
3203.34556	7.79361
3201.41699	7.72460
3199.48843	7.74036
3197.55986	7.71481
3195.63130	7.62452
3193.70273	7.56163
3191.77417	7.54301
3189.84561	7.52983
3187.91704	7.47390
3185.98848	7.39972
3184.05991	7.38382
3182.13135	7.39604
3180.20278	7.36381
3178.27422	7.27226
3176.34565	7.17366
3174.41709	7.12276
3172.48853	7.08883
3170.55996	7.03349
3168.63140	6.97559
3166.70283	6.90122
3164.77427	6.81357
3162.84570	6.77616
3160.91714	6.76320
3158.98857	6.71489
3157.06001	6.65096
3155.13145	6.58041
3153.20288	6.50340
3151.27432	6.44011
3149.34575	6.37862
3147.41719	6.31609
3145.48862	6.26677
3143.56006	6.20950
3141.63149	6.13647
3139.70293	6.05810
3137.77437	5.97694
3135.84580	5.90295
3133.91724	5.83746
3131.98867	5.76704
3130.06011	5.69198
3128.13154	5.62072
3126.20298	5.54845
3124.27441	5.47247
3122.34585	5.39292
3120.41729	5.31706
3118.48872	5.25055
3116.56016	5.18262
3114.63159	5.11310
3112.70303	5.04848
3110.77446	4.97856
3108.84590	4.89476
3106.91733	4.80996
3104.98877	4.74086
3103.06021	4.68356
3101.13164	4.62215
3099.20308	4.55424
3097.27451	4.48628
3095.34595	4.41981
3093.41738	4.35479
3091.48882	4.29108
3089.56025	4.23006
3087.63169	4.17058
3085.70312	4.10833
3083.77456	4.04432
3081.84600	3.98240
3079.91743	3.92180
3077.98887	3.85942
3076.06030	3.79565
3074.13174	3.73269
3072.20317	3.67148
3070.27461	3.61288
3068.34604	3.55574
3066.41748	3.49767
3064.48892	3.43903
3062.56035	3.38174
3060.63179	3.32747
3058.70322	3.27534
3056.77466	3.22185
3054.84609	3.16695
3052.91753	3.11362
3050.98896	3.06226
3049.06040	3.01147
3047.13184	2.96110
3045.20327	2.91162
3043.27471	2.86261
3041.34614	2.81406
3039.41758	2.76682
3037.48901	2.72024
3035.56045	2.67366
3033.63188	2.62786
3031.70332	2.58260
3029.77476	2.53733
3027.84619	2.49290
3025.91763	2.44982
3023.98906	2.40771
3022.06050	2.36622
3020.13193	2.32500
3018.20337	2.28377
3016.27480	2.24363
3014.34624	2.20561
3012.41768	2.16835
3010.48911	2.13057
3008.56055	2.09256
3006.63198	2.05500
3004.70342	2.01883
3002.77485	1.98392
3000.84629	1.94927
2998.91772	1.91462
2996.98916	1.88035
2995.06060	1.84690
2993.13203	1.81430
2991.20347	1.78238
2989.27490	1.75101
2987.34634	1.71987
2985.41777	1.68898
2983.48921	1.65891
2981.56064	1.62970
2979.63208	1.60033
2977.70352	1.57043
2975.77495	1.54099
2973.84639	1.51270
2971.91782	1.48534
2969.98926	1.45850
2968.06069	1.43194
2966.13213	1.40581
2964.20356	1.38056
2962.27500	1.35625
2960.34644	1.33206
2958.41787	1.30745
2956.48931	1.28326
2954.56074	1.26027
2952.63218	1.23810
2950.70361	1.21604
2948.77505	1.19377
2946.84648	1.17150
2944.91792	1.14977
2942.98936	1.12855
2941.06079	1.10758
2939.13223	1.08688
2937.20366	1.06660
2935.27510	1.04712
2933.34653	1.02818
2931.41797	1.00911
2929.48940	0.99042
2927.56084	0.97281
2925.63228	0.95561
2923.70371	0.93840
2921.77515	0.92149
2919.84658	0.90505
2917.91802	0.88892
2915.98945	0.87279
2914.06089	0.85718
2912.13232	0.84266
2910.20376	0.82851
2908.27520	0.81418
2906.34663	0.80019
2904.41807	0.78693
2902.48950	0.77423
2900.56094	0.76171
2898.63237	0.74911
2896.70381	0.73658
2894.77524	0.72427
2892.84668	0.71228
2890.91812	0.70063
2888.98955	0.68915
2887.06099	0.67770
2885.13242	0.66640
2883.20386	0.65530
2881.27529	0.64448
2879.34673	0.63408
2877.41816	0.62386
2875.48960	0.61340
2873.56104	0.60277
2871.63247	0.59235
2869.70391	0.58223
2867.77534	0.57223
2865.84678	0.56220
2863.91821	0.55207
2861.98965	0.54210
2860.06108	0.53263
2858.13252	0.52357
2856.20396	0.51473
2854.27539	0.50614
2852.34683	0.49789
2850.41826	0.48999
2848.48970	0.48216
2846.56113	0.47405
2844.63257	0.46615
2842.70400	0.45924
2840.77544	0.45319
2838.84687	0.44734
2836.91831	0.44147
2834.98975	0.43553
2833.06118	0.42954
2831.13262	0.42370
2829.20405	0.41794
2827.27549	0.41207
2825.34692	0.40613
2823.41836	0.40024
2821.48979	0.39441
2819.56123	0.38859
2817.63267	0.38285
2815.70410	0.37720
2813.77554	0.37165
2811.84697	0.36633
2809.91841	0.36115
2807.98984	0.35586
2806.06128	0.35050
2804.13271	0.34539
2802.20415	0.34072
2800.27559	0.33608
2798.34702	0.33122
2796.41846	0.32645
2794.48989	0.32185
2792.56133	0.31731
2790.63276	0.31288
2788.70420	0.30870
2786.77563	0.30469
2784.84707	0.30056
2782.91851	0.29642
2780.98994	0.29258
2779.06138	0.28892
2777.13281	0.28518
2775.20425	0.28145
2773.27568	0.27782
2771.34712	0.27412
2769.41855	0.27046
2767.48999	0.26702
2765.56143	0.26369
2763.63286	0.26040
2761.70430	0.25716
2759.77573	0.25401
2757.84717	0.25088
2755.91860	0.24778
2753.99004	0.24491
2752.06147	0.24232
2750.13291	0.23968
2748.20435	0.23685
2746.27578	0.23394
2744.34722	0.23114
2742.41865	0.22862
2740.49009	0.22626
2738.56152	0.22386
2736.63296	0.22143
2734.70439	0.21896
2732.77583	0.21657
2730.84727	0.21441
2728.91870	0.21226
2726.99014	0.21012
2725.06157	0.20823
2723.13301	0.20636
2721.20444	0.20427
2719.27588	0.20223
2717.34731	0.20035
2715.41875	0.19852
2713.49019	0.19680
2711.56162	0.19518
2709.63306	0.19349
2707.70449	0.19170
2705.77593	0.18990
2703.84736	0.18815
2701.91880	0.18655
2699.99023	0.18510
2698.06167	0.18372
2696.13311	0.18231
2694.20454	0.18085
2692.27598	0.17939
2690.34741	0.17800
2688.41885	0.17674
2686.49028	0.17554
2684.56172	0.17440
2682.63315	0.17329
2680.70459	0.17215
2678.77603	0.17099
2676.84746	0.16991
2674.91890	0.16891
2672.99033	0.16790
2671.06177	0.16684
2669.13320	0.16575
2667.20464	0.16473
2665.27607	0.16380
2663.34751	0.16289
2661.41895	0.16197
2659.49038	0.16114
2657.56182	0.16048
2655.63325	0.15988
2653.70469	0.15916
2651.77612	0.15825
2649.84756	0.15738
2647.91899	0.15667
2645.99043	0.15614
2644.06187	0.15573
2642.13330	0.15528
2640.20474	0.15470
2638.27617	0.15418
2636.34761	0.15379
2634.41904	0.15338
2632.49048	0.15295
2630.56191	0.15262
2628.63335	0.15237
2626.70479	0.15207
2624.77622	0.15171
2622.84766	0.15135
2620.91909	0.15115
2618.99053	0.15112
2617.06196	0.15104
2615.13340	0.15083
2613.20483	0.15062
2611.27627	0.15046
2609.34771	0.15025
2607.41914	0.15009
2605.49058	0.15011
2603.56201	0.15018
2601.63345	0.15026
2599.70488	0.15039
2597.77632	0.15047
2595.84775	0.15049
2593.91919	0.15057
2591.99062	0.15069
2590.06206	0.15085
2588.13350	0.15118
2586.20493	0.15161
2584.27637	0.15194
2582.34780	0.15219
2580.41924	0.15246
2578.49067	0.15271
2576.56211	0.15279
2574.63354	0.15296
2572.70498	0.15345
2570.77642	0.15409
2568.84785	0.15463
2566.91929	0.15504
2564.99072	0.15541
2563.06216	0.15578
2561.13359	0.15622
2559.20503	0.15674
2557.27646	0.15723
2555.34790	0.15778
2553.41934	0.15846
2551.49077	0.15912
2549.56221	0.15962
2547.63364	0.16012
2545.70508	0.16073
2543.77651	0.16144
2541.84795	0.16228
2539.91938	0.16307
2537.99082	0.16369
2536.06226	0.16427
2534.13369	0.16485
2532.20513	0.16543
2530.27656	0.16607
2528.34800	0.16681
2526.41943	0.16768
2524.49087	0.16852
2522.56230	0.16928
2520.63374	0.17006
2518.70518	0.17090
2516.77661	0.17180
2514.84805	0.17269
2512.91948	0.17336
2510.99092	0.17396
2509.06235	0.17485
2507.13379	0.17581
2505.20522	0.17664
2503.27666	0.17755
2501.34810	0.17850
2499.41953	0.17930
2497.49097	0.18005
2495.56240	0.18087
2493.63384	0.18182
2491.70527	0.18284
2489.77671	0.18379
2487.84814	0.18463
2485.91958	0.18546
2483.99102	0.18640
2482.06245	0.18744
2480.13389	0.18847
2478.20532	0.18942
2476.27676	0.19028
2474.34819	0.19112
2472.41963	0.19208
2470.49106	0.19317
2468.56250	0.19418
2466.63394	0.19504
2464.70537	0.19597
2462.77681	0.19699
2460.84824	0.19793
2458.91968	0.19872
2456.99111	0.19956
2455.06255	0.20056
2453.13398	0.20164
2451.20542	0.20275
2449.27686	0.20386
2447.34829	0.20490
2445.41973	0.20600
2443.49116	0.20719
2441.56260	0.20825
2439.63403	0.20923
2437.70547	0.21033
2435.77690	0.21146
2433.84834	0.21250
2431.91978	0.21354
2429.99121	0.21457
2428.06265	0.21557
2426.13408	0.21664
2424.20552	0.21771
2422.27695	0.21879
2420.34839	0.21998
2418.41982	0.22121
2416.49126	0.22236
2414.56270	0.22342
2412.63413	0.22455
2410.70557	0.22575
2408.77700	0.22695
2406.84844	0.22815
2404.91987	0.22939
2402.99131	0.23063
2401.06274	0.23189
2399.13418	0.23319
2397.20562	0.23442
2395.27705	0.23557
2393.34849	0.23674
2391.41992	0.23804
2389.49136	0.23956
2387.56279	0.24126
2385.63423	0.24315
2383.70566	0.24547
2381.77710	0.24848
2379.84854	0.25219
2377.91997	0.25643
2375.99141	0.26098
2374.06284	0.26580
2372.13428	0.27122
2370.20571	0.27746
2368.27715	0.28446
2366.34858	0.29164
2364.42002	0.29717
2362.49146	0.30021
2360.56289	0.30224
2358.63433	0.30366
2356.70576	0.30313
2354.77720	0.30065
2352.84863	0.29740
2350.92007	0.29391
2348.99150	0.29153
2347.06294	0.29190
2345.13437	0.29622
2343.20581	0.30292
2341.27725	0.30706
2339.34868	0.30777
2337.42012	0.30762
2335.49155	0.30821
2333.56299	0.30926
2331.63442	0.31042
2329.70586	0.31190
2327.77729	0.31328
2325.84873	0.31367
2323.92017	0.31346
2321.99160	0.31342
2320.06304	0.31332
2318.13447	0.31282
2316.20591	0.31233
2314.27734	0.31252
2312.34878	0.31337
2310.42021	0.31445
2308.49165	0.31544
2306.56309	0.31613
2304.63452	0.31660
2302.70596	0.31731
2300.77739	0.31848
2298.84883	0.31977
2296.92026	0.32100
2294.99170	0.32235
2293.06313	0.32378
2291.13457	0.32516
2289.20601	0.32661
2287.27744	0.32807
2285.34888	0.32949
2283.42031	0.33112
2281.49175	0.33307
2279.56318	0.33521
2277.63462	0.33750
2275.70605	0.33986
2273.77749	0.34208
2271.84893	0.34410
2269.92036	0.34610
2267.99180	0.34822
2266.06323	0.35037
2264.13467	0.35248
2262.20610	0.35451
2260.27754	0.35651
2258.34897	0.35856
2256.42041	0.36064
2254.49185	0.36275
2252.56328	0.36494
2250.63472	0.36709
2248.70615	0.36915
2246.77759	0.37124
2244.84902	0.37339
2242.92046	0.37562
2240.99189	0.37794
2239.06333	0.38019
2237.13477	0.38235
2235.20620	0.38471
2233.27764	0.38726
2231.34907	0.38962
2229.42051	0.39175
2227.49194	0.39393
2225.56338	0.39620
2223.63481	0.39841
2221.70625	0.40051
2219.77769	0.40264
2217.84912	0.40480
2215.92056	0.40699
2213.99199	0.40929
2212.06343	0.41161
2210.13486	0.41377
2208.20630	0.41589
2206.27773	0.41808
2204.34917	0.42024
2202.42061	0.42234
2200.49204	0.42435
2198.56348	0.42624
2196.63491	0.42813
2194.70635	0.43017
2192.77778	0.43223
2190.84922	0.43421
2188.92065	0.43614
2186.99209	0.43802
2185.06353	0.43977
2183.13496	0.44146
2181.20640	0.44322
2179.27783	0.44498
2177.34927	0.44667
2175.42070	0.44829
2173.49214	0.44983
2171.56357	0.45122
2169.63501	0.45259
2167.70645	0.45398
2165.77788	0.45528
2163.84932	0.45649
2161.92075	0.45769
2159.99219	0.45884
2158.06362	0.45983
2156.13506	0.46079
2154.20649	0.46182
2152.27793	0.46281
2150.34937	0.46356
2148.42080	0.46415
2146.49224	0.46470
2144.56367	0.46520
2142.63511	0.46558
2140.70654	0.46588
2138.77798	0.46622
2136.84941	0.46654
2134.92085	0.46668
2132.99229	0.46666
2131.06372	0.46661
2129.13516	0.46647
2127.20659	0.46617
2125.27803	0.46585
2123.34946	0.46554
2121.42090	0.46518
2119.49233	0.46466
2117.56377	0.46393
2115.63521	0.46312
2113.70664	0.46234
2111.77808	0.46150
2109.84951	0.46053
2107.92095	0.45949
2105.99238	0.45836
2104.06382	0.45719
2102.13525	0.45603
2100.20669	0.45475
2098.27812	0.45325
2096.34956	0.45167
2094.42100	0.45020
2092.49243	0.44878
2090.56387	0.44724
2088.63530	0.44549
2086.70674	0.44358
2084.77817	0.44159
2082.84961	0.43967
2080.92104	0.43778
2078.99248	0.43573
2077.06392	0.43354
2075.13535	0.43137
2073.20679	0.42922
2071.27822	0.42699
2069.34966	0.42467
2067.42109	0.42238
2065.49253	0.42014
2063.56396	0.41779
2061.63540	0.41530
2059.70684	0.41276
2057.77827	0.41017
2055.84971	0.40751
2053.92114	0.40483
2051.99258	0.40217
2050.06401	0.39952
2048.13545	0.39688
2046.20688	0.39431
2044.27832	0.39176
2042.34976	0.38914
2040.42119	0.38643
2038.49263	0.38364
2036.56406	0.38083
2034.63550	0.37799
2032.70693	0.37514
2030.77837	0.37233
2028.84980	0.36954
2026.92124	0.36675
2024.99268	0.36395
2023.06411	0.36117
2021.13555	0.35846
2019.20698	0.35585
2017.27842	0.35324
2015.34985	0.35037
2013.42129	0.34733
2011.49272	0.34436
2009.56416	0.34152
2007.63560	0.33885
2005.70703	0.33621
2003.77847	0.33338
2001.84990	0.33054
1999.92134	0.32786
1997.99277	0.32518
1996.06421	0.32259
1994.13564	0.32046
1992.20708	0.31854
1990.27852	0.31605
1988.34995	0.31315
1986.42139	0.31026
1984.49282	0.30745
1982.56426	0.30488
1980.63569	0.30253
1978.70713	0.30029
1976.77856	0.29808
1974.85000	0.29585
1972.92144	0.29360
1970.99287	0.29151
1969.06431	0.28972
1967.13574	0.28785
1965.20718	0.28548
1963.27861	0.28304
1961.35005	0.28099
1959.42148	0.27919
1957.49292	0.27741
1955.56436	0.27563
1953.63579	0.27382
1951.70723	0.27194
1949.77866	0.27019
1947.85010	0.26875
1945.92153	0.26758
1943.99297	0.26657
1942.06440	0.26527
1940.13584	0.26320
1938.20728	0.26108
1936.27871	0.25951
1934.35015	0.25823
1932.42158	0.25705
1930.49302	0.25590
1928.56445	0.25473
1926.63589	0.25369
1924.70732	0.25313
1922.77876	0.25281
1920.85020	0.25200
1918.92163	0.25103
1916.99307	0.24995
1915.06450	0.24837
1913.13594	0.24704
1911.20737	0.24657
1909.27881	0.24633
1907.35024	0.24552
1905.42168	0.24433
1903.49312	0.24339
1901.56455	0.24276
1899.63599	0.24223
1897.70742	0.24187
1895.77886	0.24176
1893.85029	0.24150
1891.92173	0.24117
1889.99316	0.24123
1888.06460	0.24102
1886.13604	0.24037
1884.20747	0.23987
1882.27891	0.23947
1880.35034	0.23914
1878.42178	0.23902
1876.49321	0.23899
1874.56465	0.23896
1872.63608	0.23933
1870.70752	0.24066
1868.77896	0.24259
1866.85039	0.24292
1864.92183	0.24160
1862.99326	0.24068
1861.06470	0.24061
1859.13613	0.24090
1857.20757	0.24112
1855.27900	0.24142
1853.35044	0.24194
1851.42187	0.24267
1849.49331	0.24368
1847.56475	0.24507
1845.63618	0.24674
1843.70762	0.24804
1841.77905	0.24795
1839.85049	0.24752
1837.92192	0.24810
1835.99336	0.24910
1834.06479	0.24998
1832.13623	0.25138
1830.20767	0.25384
1828.27910	0.25580
1826.35054	0.25653
1824.42197	0.25737
1822.49341	0.25797
1820.56484	0.25856
1818.63628	0.25976
1816.70771	0.26142
1814.77915	0.26315
1812.85059	0.26531
1810.92202	0.26792
1808.99346	0.26995
1807.06489	0.27139
1805.13633	0.27313
1803.20776	0.27575
1801.27920	0.27905
1799.35063	0.28223
1797.42207	0.28462
1795.49351	0.28718
1793.56494	0.29089
1791.63638	0.29522
1789.70781	0.29764
1787.77925	0.29888
1785.85068	0.30164
1783.92212	0.30567
1781.99355	0.31003
1780.06499	0.31443
1778.13643	0.31862
1776.20786	0.32292
1774.27930	0.32858
1772.35073	0.33618
1770.42217	0.34247
1768.49360	0.34620
1766.56504	0.35011
1764.63647	0.35502
1762.70791	0.36139
1760.77935	0.36944
1758.85078	0.37647
1756.92222	0.38354
1754.99365	0.39121
1753.06509	0.39839
1751.13652	0.40798
1749.20796	0.42025
1747.27939	0.43092
1745.35083	0.43931
1743.42227	0.44837
1741.49370	0.45884
1739.56514	0.47141
1737.63657	0.48387
1735.70801	0.49521
1733.77944	0.51292
1731.85088	0.53258
1729.92231	0.54654
1727.99375	0.56094
1726.06519	0.57714
1724.13662	0.59583
1722.20806	0.61645
1720.27949	0.63583
1718.35093	0.65971
1716.42236	0.69485
1714.49380	0.72502
1712.56523	0.74740
1710.63667	0.76990
1708.70811	0.79545
1706.77954	0.82549
1704.85098	0.86123
1702.92241	0.89216
1700.99385	0.92239
1699.06528	0.96866
1697.13672	1.01035
1695.20815	1.05032
1693.27959	1.08802
1691.35103	1.11869
1689.42246	1.15554
1687.49390	1.19494
1685.56533	1.23280
1683.63677	1.29086
1681.70820	1.34927
1679.77964	1.38465
1677.85107	1.41897
1675.92251	1.45955
1673.99395	1.51099
1672.06538	1.55653
1670.13682	1.59994
1668.20825	1.65517
1666.27969	1.69769
1664.35112	1.73393
1662.42256	1.78080
1660.49399	1.83263
1658.56543	1.86989
1656.63687	1.90079
1654.70830	1.93341
1652.77974	1.98974
1650.85117	2.04213
1648.92261	2.06164
1646.99404	2.09218
1645.06548	2.12816
1643.13691	2.15079
1641.20835	2.16366
1639.27979	2.17593
1637.35122	2.18472
1635.42266	2.18708
1633.49409	2.18430
1631.56553	2.17638
1629.63696	2.16585
1627.70840	2.14527
1625.77983	2.11933
1623.85127	2.08372
1621.92271	2.03750
1619.99414	1.99541
1618.06558	1.95513
1616.13701	1.89750
1614.20845	1.83720
1612.27988	1.79127
1610.35132	1.74459
1608.42275	1.69455
1606.49419	1.64424
1604.56562	1.59732
1602.63706	1.55125
1600.70850	1.50536
1598.77993	1.46338
1596.85137	1.42428
1594.92280	1.38571
1592.99424	1.34767
1591.06567	1.31254
1589.13711	1.27898
1587.20854	1.24697
1585.27998	1.21691
1583.35142	1.18854
1581.42285	1.16235
1579.49429	1.14011
1577.56572	1.12057
1575.63716	1.09494
1573.70859	1.07014
1571.78003	1.05407
1569.85146	1.03769
1567.92290	1.01760
1565.99434	1.00061
1564.06577	0.98648
1562.13721	0.97528
1560.20864	0.96732
1558.28008	0.95222
1556.35151	0.93432
1554.42295	0.92268
1552.49438	0.91184
1550.56582	0.90131
1548.63726	0.89048
1546.70869	0.88130
1544.78013	0.87412
1542.85156	0.86747
1540.92300	0.85862
1538.99443	0.84203
1537.06587	0.82855
1535.13730	0.82075
1533.20874	0.81193
1531.28018	0.80178
1529.35161	0.79444
1527.42305	0.78854
1525.49448	0.78255
1523.56592	0.77708
1521.63735	0.77110
1519.70879	0.76336
1517.78022	0.75657
1515.85166	0.74940
1513.92310	0.74212
1511.99453	0.73703
1510.06597	0.73426
1508.13740	0.73338
1506.20884	0.72793
1504.28027	0.71798
1502.35171	0.71210
1500.42314	0.70881
1498.49458	0.70660
1496.56602	0.70353
1494.63745	0.69919
1492.70889	0.69613
1490.78032	0.69516
1488.85176	0.69377
1486.92319	0.68955
1484.99463	0.68500
1483.06606	0.68188
1481.13750	0.67981
1479.20894	0.67805
1477.28037	0.67686
1475.35181	0.67665
1473.42324	0.67646
1471.49468	0.67352
1469.56611	0.66895
1467.63755	0.66598
1465.70898	0.66447
1463.78042	0.66261
1461.85186	0.66054
1459.92329	0.65997
1457.99473	0.66050
1456.06616	0.65793
1454.13760	0.65252
1452.20903	0.64855
1450.28047	0.64584
1448.35190	0.64373
1446.42334	0.64137
1444.49478	0.63883
1442.56621	0.63673
1440.63765	0.63516
1438.70908	0.63426
1436.78052	0.63365
1434.85195	0.63199
1432.92339	0.62988
1430.99482	0.62850
1429.06626	0.62723
1427.13770	0.62562
1425.20913	0.62444
1423.28057	0.62369
1421.35200	0.62303
1419.42344	0.62272
1417.49487	0.62142
1415.56631	0.61847
1413.63774	0.61578
1411.70918	0.61374
1409.78062	0.61191
1407.85205	0.61035
1405.92349	0.60932
1403.99492	0.60815
1402.06636	0.60660
1400.13779	0.60549
1398.20923	0.60479
1396.28066	0.60375
1394.35210	0.60172
1392.42354	0.59885
1390.49497	0.59664
1388.56641	0.59552
1386.63784	0.59431
1384.70928	0.59220
1382.78071	0.59023
1380.85215	0.58903
1378.92358	0.58837
1376.99502	0.58804
1375.06646	0.58801
1373.13789	0.58744
1371.20933	0.58606
1369.28076	0.58490
1367.35220	0.58405
1365.42363	0.58337
1363.49507	0.58312
1361.56650	0.58240
1359.63794	0.58065
1357.70937	0.57904
1355.78081	0.57792
1353.85225	0.57682
1351.92368	0.57559
1349.99512	0.57449
1348.06655	0.57356
1346.13799	0.57256
1344.20942	0.57151
1342.28086	0.57077
1340.35229	0.57045
1338.42373	0.56965
1336.49517	0.56798
1334.56660	0.56630
1332.63804	0.56511
1330.70947	0.56422
1328.78091	0.56341
1326.85234	0.56275
1324.92378	0.56231
1322.99521	0.56195
1321.06665	0.56160
1319.13809	0.56117
1317.20952	0.56048
1315.28096	0.55963
1313.35239	0.55870
1311.42383	0.55754
1309.49526	0.55617
1307.56670	0.55490
1305.63813	0.55389
1303.70957	0.55293
1301.78101	0.55183
1299.85244	0.55073
1297.92388	0.54972
1295.99531	0.54869
1294.06675	0.54772
1292.13818	0.54701
1290.20962	0.54649
1288.28105	0.54587
1286.35249	0.54507
1284.42393	0.54423
1282.49536	0.54343
1280.56680	0.54278
1278.63823	0.54224
1276.70967	0.54167
1274.78110	0.54117
1272.85254	0.54079
1270.92397	0.54043
1268.99541	0.53997
1267.06685	0.53951
1265.13828	0.53912
1263.20972	0.53867
1261.28115	0.53825
1259.35259	0.53793
1257.42402	0.53756
1255.49546	0.53718
1253.56689	0.53691
1251.63833	0.53666
1249.70977	0.53638
1247.78120	0.53610
1245.85264	0.53588
1243.92407	0.53560
1241.99551	0.53507
1240.06694	0.53437
1238.13838	0.53365
1236.20981	0.53289
1234.28125	0.53199
1232.35269	0.53106
1230.42412	0.53020
1228.49556	0.52936
1226.56699	0.52852
1224.63843	0.52771
1222.70986	0.52682
1220.78130	0.52585
1218.85273	0.52496
1216.92417	0.52420
1214.99561	0.52355
1213.06704	0.52299
1211.13848	0.52245
1209.20991	0.52186
1207.28135	0.52127
1205.35278	0.52074
1203.42422	0.52028
1201.49565	0.51981
1199.56709	0.51925
1197.63853	0.51850
1195.70996	0.51759
1193.78140	0.51671
1191.85283	0.51602
1189.92427	0.51556
1187.99570	0.51518
1186.06714	0.51482
1184.13857	0.51448
1182.21001	0.51430
1180.28145	0.51446
1178.35288	0.51497
1176.42432	0.51566
1174.49575	0.51644
1172.56719	0.51733
1170.63862	0.51833
1168.71006	0.51947
1166.78149	0.52068
1164.85293	0.52175
1162.92437	0.52265
1160.99580	0.52344
1159.06724	0.52396
1157.13867	0.52400
1155.21011	0.52353
1153.28154	0.52263
1151.35298	0.52120
1149.42441	0.51907
1147.49585	0.51646
1145.56729	0.51372
1143.63872	0.51101
1141.71016	0.50840
1139.78159	0.50597
1137.85303	0.50393
1135.92446	0.50250
1133.99590	0.50153
1132.06733	0.50069
1130.13877	0.49994
1128.21021	0.49930
1126.28164	0.49877
1124.35308	0.49828
1122.42451	0.49784
1120.49595	0.49770
1118.56738	0.49792
1116.63882	0.49832
1114.71025	0.49887
1112.78169	0.49961
1110.85312	0.50050
1108.92456	0.50140
1106.99600	0.50225
1105.06743	0.50313
1103.13887	0.50402
1101.21030	0.50509
1099.28174	0.50653
1097.35317	0.50829
1095.42461	0.51074
1093.49604	0.51437
1091.56748	0.51926
1089.63892	0.52563
1087.71035	0.53356
1085.78179	0.54247
1083.85322	0.55148
1081.92466	0.55943
1079.99609	0.56508
1078.06753	0.56779
1076.13896	0.56761
1074.21040	0.56461
1072.28184	0.55933
1070.35327	0.55291
1068.42471	0.54601
1066.49614	0.53917
1064.56758	0.53294
1062.63901	0.52759
1060.71045	0.52311
1058.78188	0.51910
1056.85332	0.51543
1054.92476	0.51234
1052.99619	0.50974
1051.06763	0.50768
1049.13906	0.50659
1047.21050	0.50635
1045.28193	0.50647
1043.35337	0.50681
1041.42480	0.50742
1039.49624	0.50812
1037.56768	0.50870
1035.63911	0.50899
1033.71055	0.50879
1031.78198	0.50789
1029.85342	0.50628
1027.92485	0.50432
1025.99629	0.50243
1024.06772	0.50098
1022.13916	0.50027
1020.21060	0.49998
1018.28203	0.49982
1016.35347	0.49980
1014.42490	0.49976
1012.49634	0.49944
1010.56777	0.49899
1008.63921	0.49872
1006.71064	0.49887
1004.78208	0.49972
1002.85352	0.50145
1000.92495	0.50404
998.99639	0.50742
997.06782	0.51145
995.13926	0.51569
993.21069	0.51959
991.28213	0.52269
989.35356	0.52469
987.42500	0.52546
985.49644	0.52532
983.56787	0.52503
981.63931	0.52519
979.71074	0.52597
977.78218	0.52746
975.85361	0.52964
973.92505	0.53231
971.99648	0.53532
970.06792	0.53850
968.13936	0.54186
966.21079	0.54558
964.28223	0.54977
962.35366	0.55438
960.42510	0.55939
958.49653	0.56481
956.56797	0.57049
954.63940	0.57633
952.71084	0.58250
950.78228	0.58907
948.85371	0.59553
946.92515	0.60137
944.99658	0.60694
943.06802	0.61276
941.13945	0.61869
939.21089	0.62460
937.28232	0.63062
935.35376	0.63667
933.42520	0.64249
931.49663	0.64805
929.56807	0.65358
927.63950	0.65914
925.71094	0.66485
923.78237	0.67119
921.85381	0.67805
919.92524	0.68508
917.99668	0.69229
916.06812	0.69965
914.13955	0.70725
912.21099	0.71526
910.28242	0.72367
908.35386	0.73211
906.42529	0.73990
904.49673	0.74726
902.56816	0.75568
900.63960	0.76539
898.71104	0.77554
896.78247	0.78586
894.85391	0.79585
892.92534	0.80568
890.99678	0.81581
889.06821	0.82578
887.13965	0.83509
885.21108	0.84477
883.28252	0.85638
881.35396	0.86826
879.42539	0.87848
877.49683	0.88881
875.56826	0.90118
873.63970	0.91443
871.71113	0.92723
869.78257	0.93988
867.85400	0.95190
865.92544	0.96178
863.99687	0.97038
862.06831	0.98055
860.13975	0.99279
858.21118	1.00558
856.28262	1.01773
854.35405	1.02870
852.42549	1.03869
850.49692	1.04888
848.56836	1.05979
846.63979	1.07006
844.71123	1.08054
842.78267	1.09421
840.85410	1.11062
838.92554	1.12538
836.99697	1.13586
835.06841	1.14367
833.13984	1.15316
831.21128	1.16632
829.28271	1.17807
827.35415	1.18490
825.42559	1.19155
823.49702	1.20300
821.56846	1.21789
819.63989	1.23296
817.71133	1.24722
815.78276	1.26064
813.85420	1.27374
811.92563	1.28671
809.99707	1.29320
808.06851	1.28943
806.13994	1.28594
804.21138	1.28791
802.28281	1.29604
800.35425	1.30150
798.42568	1.29172
796.49712	1.28719
794.56855	1.30900
792.63999	1.35111
790.71143	1.38597
788.78286	1.39421
786.85430	1.41358
784.92573	1.43071
782.99717	1.37242
781.06860	1.32203
779.14004	1.32449
777.21147	1.32806
775.28291	1.33701
773.35435	1.32927
771.42578	1.29212
769.49722	1.31253
767.56865	1.39002
765.64009	1.35765
763.71152	1.25958
761.78296	1.24299
759.85439	1.24951
757.92583	1.19378
755.99727	1.16172
754.06870	1.19075
752.14014	1.24379
750.21157	1.33910
748.28301	1.39296
746.35444	1.24429
744.42588	1.09501
742.49731	1.10648
740.56875	1.29431
738.64019	1.25183
736.71162	0.98367
734.78306	0.88209
732.85449	0.95702
730.92593	1.03001
728.99736	0.80694
727.06880	0.63272
725.14023	0.63125
723.21167	0.71109
721.28311	0.46436
719.35454	0.18090
717.42598	0.03654
715.49741	-0.02409
713.56885	0.00933
711.64028	0.08988
709.71172	-0.13444
707.78315	-0.58998
705.85459	-0.60155
703.92603	-0.05915
701.99746	0.10301
700.06890	0.11163
698.14033	0.14437
696.21177	0.24185
694.28320	0.29731
692.35464	0.32449
690.42607	0.36073
688.49751	0.30018
686.56895	0.29119
684.64038	0.44672
682.71182	0.57166
680.78325	0.58052
678.85469	0.56436
676.92612	0.53008
674.99756	0.50357
673.06899	0.42725
671.14043	0.30344
669.21187	0.26749
667.28330	0.32842
665.35474	0.41331
663.42617	0.46599
661.49761	0.56727
659.56904	0.82927
657.64048	0.78611
655.71191	0.50158
653.78335	0.39560
651.85479	0.32147
649.92622	0.23969
647.99766	0.24029
646.06909	0.29897
644.14053	0.31171
642.21196	0.26833
640.28340	0.23015
638.35483	0.18127
636.42627	0.16042
634.49771	0.16960
632.56914	0.16614
630.64058	0.20745
628.71201	0.36047
626.78345	0.39166
624.85488	0.28422
622.92632	0.24381
620.99775	0.25208
619.06919	0.23613
617.14062	0.24461
615.21206	0.30640
613.28350	0.33174
611.35493	0.31356
609.42637	0.31609
607.49780	0.24710
605.56924	0.15955
603.64067	0.21541
601.71211	0.37541
599.78354	0.44265
597.85498	0.36839
595.92642	0.32072
593.99785	0.32167
592.06929	0.34392
590.14072	0.32313
588.21216	0.26608
586.28359	0.24663
584.35503	0.25691
582.42646	0.23554
580.49790	0.19137
578.56934	0.16939
576.64077	0.16720
574.71221	0.18693
572.78364	0.22731
570.85508	0.28549
568.92651	0.34036
566.99795	0.29731
565.06938	0.16490
563.14082	0.09907
561.21226	0.15372
559.28369	0.23268
557.35513	0.23404
555.42656	0.22124
553.49800	0.23918
551.56943	0.23193
549.64087	0.24194
547.71230	0.33569
545.78374	0.41646
543.85518	0.33989
541.92661	0.26227
539.99805	0.26270
538.06948	0.29202
536.14092	0.30591
534.21235	0.32321
532.28379	0.35061
530.35522	0.35043
528.42666	0.27796
526.49810	0.20204
524.56953	0.18671
522.64097	0.18598
520.71240	0.17436
518.78384	0.19834
516.85527	0.26753
514.92671	0.31358
512.99814	0.30370
511.06958	0.24855
509.14102	0.15228
507.21245	0.11384
505.28389	0.15047
503.35532	0.19331
501.42676	0.20240
499.49819	0.23917
