3997.91411	0.06954
3995.98555	0.07030
3994.05698	0.07067
3992.12842	0.07069
3990.19985	0.07092
3988.27129	0.07127
3986.34272	0.07159
3984.41416	0.07189
3982.48560	0.07221
3980.55703	0.07277
3978.62847	0.07324
3976.69990	0.07327
3974.77134	0.07347
3972.84277	0.07397
3970.91421	0.07423
3968.98564	0.07427
3967.05708	0.07424
3965.12852	0.07412
3963.19995	0.07408
3961.27139	0.07455
3959.34282	0.07547
3957.41426	0.07604
3955.48569	0.07579
3953.55713	0.07512
3951.62856	0.07492
3949.70000	0.07572
3947.77144	0.07683
3945.84287	0.07719
3943.91431	0.07735
3941.98574	0.07738
3940.05718	0.07605
3938.12861	0.07455
3936.20005	0.07450
3934.27148	0.07551
3932.34292	0.07680
3930.41436	0.07741
3928.48579	0.07679
3926.55723	0.07638
3924.62866	0.07718
3922.70010	0.07767
3920.77153	0.07698
3918.84297	0.07662
3916.91440	0.07699
3914.98584	0.07655
3913.05728	0.07506
3911.12871	0.07392
3909.20015	0.07381
3907.27158	0.07480
3905.34302	0.07714
3903.41445	0.07995
3901.48589	0.08104
3899.55732	0.08031
3897.62876	0.07867
3895.70020	0.07695
3893.77163	0.07655
3891.84307	0.07763
3889.91450	0.07809
3887.98594	0.07717
3886.05737	0.07745
3884.12881	0.07925
3882.20024	0.08009
3880.27168	0.07978
3878.34312	0.07843
3876.41455	0.07699
3874.48599	0.07755
3872.55742	0.07991
3870.62886	0.08234
3868.70029	0.08336
3866.77173	0.08242
3864.84316	0.08213
3862.91460	0.08277
3860.98604	0.08190
3859.05747	0.08063
3857.12891	0.08109
3855.20034	0.08392
3853.27178	0.08920
3851.34321	0.09112
3849.41465	0.08666
3847.48608	0.08281
3845.55752	0.08180
3843.62896	0.08352
3841.70039	0.08685
3839.77183	0.09059
3837.84326	0.09348
3835.91470	0.09342
3833.98613	0.09156
3832.05757	0.09009
3830.12900	0.08925
3828.20044	0.08941
3826.27187	0.09088
3824.34331	0.09267
3822.41475	0.09489
3820.48618	0.09844
3818.55762	0.09986
3816.62905	0.09878
3814.70049	0.09760
3812.77192	0.09596
3810.84336	0.09478
3808.91479	0.09548
3806.98623	0.09831
3805.05767	0.10124
3803.12910	0.10328
3801.20054	0.10603
3799.27197	0.10746
3797.34341	0.10683
3795.41484	0.10628
3793.48628	0.10538
3791.55771	0.10471
3789.62915	0.10532
3787.70059	0.10699
3785.77202	0.10926
3783.84346	0.11118
3781.91489	0.11237
3779.98633	0.11424
3778.05776	0.11660
3776.12920	0.11755
3774.20063	0.11817
3772.27207	0.11999
3770.34351	0.12309
3768.41494	0.12648
3766.48638	0.12868
3764.55781	0.12992
3762.62925	0.13081
3760.70068	0.13304
3758.77212	0.13734
3756.84355	0.14091
3754.91499	0.14290
3752.98643	0.14659
3751.05786	0.15380
3749.12930	0.16050
3747.20073	0.16186
3745.27217	0.16271
3743.34360	0.16544
3741.41504	0.16730
3739.48647	0.16901
3737.55791	0.17309
3735.62935	0.18010
3733.70078	0.18709
3731.77222	0.18990
3729.84365	0.19102
3727.91509	0.19369
3725.98652	0.19918
3724.05796	0.20661
3722.12939	0.21379
3720.20083	0.21991
3718.27227	0.22530
3716.34370	0.23127
3714.41514	0.23892
3712.48657	0.25010
3710.55801	0.26594
3708.62944	0.27992
3706.70088	0.28893
3704.77231	0.29795
3702.84375	0.31022
3700.91519	0.32741
3698.98662	0.34600
3697.05806	0.36301
3695.12949	0.38138
3693.20093	0.40188
3691.27236	0.42524
3689.34380	0.45519
3687.41523	0.48935
3685.48667	0.51705
3683.55811	0.54085
3681.62954	0.56803
3679.70098	0.60034
3677.77241	0.63513
3675.84385	0.67646
3673.91528	0.73062
3671.98672	0.77236
3670.05815	0.80918
3668.12959	0.86099
3666.20103	0.90738
3664.27246	0.94597
3662.34390	0.98813
3660.41533	1.03461
3658.48677	1.08163
3656.55820	1.13256
3654.62964	1.18868
3652.70107	1.23485
3650.77251	1.27582
3648.84395	1.33389
3646.91538	1.40295
3644.98682	1.44993
3643.05825	1.48609
3641.12969	1.52503
3639.20112	1.56871
3637.27256	1.61286
3635.34399	1.65630
3633.41543	1.70017
3631.48687	1.74153
3629.55830	1.78345
3627.62974	1.83764
3625.70117	1.88641
3623.77261	1.91830
3621.84404	1.95026
3619.91548	1.98944
3617.98691	2.03744
3616.05835	2.08122
3614.12979	2.11619
3612.20122	2.15379
3610.27266	2.19288
3608.34409	2.23355
3606.41553	2.27727
3604.48696	2.31659
3602.55840	2.35031
3600.62983	2.38615
3598.70127	2.42547
3596.77271	2.46513
3594.84414	2.50688
3592.91558	2.55062
3590.98701	2.59087
3589.05845	2.62733
3587.12988	2.67049
3585.20132	2.71691
3583.27275	2.75552
3581.34419	2.79170
3579.41562	2.83000
3577.48706	2.87084
3575.55850	2.91347
3573.62993	2.95698
3571.70137	2.99900
3569.77280	3.03994
3567.84424	3.08536
3565.91567	3.14181
3563.98711	3.19300
3562.05854	3.23132
3560.12998	3.27065
3558.20142	3.31486
3556.27285	3.35975
3554.34429	3.40225
3552.41572	3.44658
3550.48716	3.49345
3548.55859	3.53765
3546.63003	3.57949
3544.70146	3.62593
3542.77290	3.67680
3540.84434	3.72500
3538.91577	3.76937
3536.98721	3.81340
3535.05864	3.86043
3533.13008	3.90766
3531.20151	3.95647
3529.27295	4.00882
3527.34438	4.06051
3525.41582	4.10577
3523.48726	4.14815
3521.55869	4.19677
3519.63013	4.24699
3517.70156	4.29385
3515.77300	4.33884
3513.84443	4.38387
3511.91587	4.43411
3509.98730	4.48938
3508.05874	4.54012
3506.13018	4.58541
3504.20161	4.63368
3502.27305	4.68498
3500.34448	4.73126
3498.41592	4.77296
3496.48735	4.81813
3494.55879	4.86665
3492.63022	4.91306
3490.70166	4.95704
3488.77310	5.00264
3486.84453	5.05061
3484.91597	5.10299
3482.98740	5.16196
3481.05884	5.21616
3479.13027	5.25793
3477.20171	5.30346
3475.27314	5.35616
3473.34458	5.40078
3471.41602	5.43753
3469.48745	5.47138
3467.55889	5.50662
3465.63032	5.55504
3463.70176	5.61506
3461.77319	5.66978
3459.84463	5.71907
3457.91606	5.77511
3455.98750	5.83794
3454.05894	5.89131
3452.13037	5.93246
3450.20181	5.98096
3448.27324	6.02927
3446.34468	6.06311
3444.41611	6.09694
3442.48755	6.14212
3440.55898	6.19476
3438.63042	6.25151
3436.70186	6.29494
3434.77329	6.32870
3432.84473	6.38796
3430.91616	6.46580
3428.98760	6.52730
3427.05903	6.56805
3425.13047	6.60507
3423.20190	6.63002
3421.27334	6.65453
3419.34478	6.71372
3417.41621	6.79095
3415.48765	6.83539
3413.55908	6.85522
3411.63052	6.88729
3409.70195	6.91649
3407.77339	6.95755
3405.84482	7.02752
3403.91626	7.09505
3401.98770	7.13279
3400.05913	7.17464
3398.13057	7.24383
3396.20200	7.30224
3394.27344	7.35206
3392.34487	7.37826
3390.41631	7.36999
3388.48774	7.37128
3386.55918	7.41658
3384.63062	7.46785
3382.70205	7.46468
3380.77349	7.43341
3378.84492	7.45477
3376.91636	7.56153
3374.98779	7.66036
3373.05923	7.68947
3371.13066	7.69675
3369.20210	7.70780
3367.27354	7.71522
3365.34497	7.74215
3363.41641	7.79036
3361.48784	7.85024
3359.55928	7.92090
3357.63071	7.94728
3355.70215	7.93538
3353.77358	7.90502
3351.84502	7.86028
3349.91646	7.84644
3347.98789	7.90890
3346.05933	8.00367
3344.13076	8.04959
3342.20220	8.03049
3340.27363	7.96145
3338.34507	7.92525
3336.41650	7.95295
3334.48794	7.91873
3332.55937	7.79137
3330.63081	7.76835
3328.70225	7.85221
3326.77368	7.90072
3324.84512	7.93740
3322.91655	7.99625
3320.98799	8.05076
3319.05942	8.07127
3317.13086	8.07022
3315.20229	8.02052
3313.27373	7.92381
3311.34517	7.87279
3309.41660	7.92660
3307.48804	8.04821
3305.55947	8.12127
3303.63091	8.10356
3301.70234	8.08562
3299.77378	8.12257
3297.84521	8.15336
3295.91665	8.20692
3293.98809	8.26318
3292.05952	8.25673
3290.13096	8.20480
3288.20239	8.12866
3286.27383	8.12476
3284.34526	8.14474
3282.41670	8.10248
3280.48813	8.04741
3278.55957	8.07045
3276.63101	8.14474
3274.70244	8.14553
3272.77388	8.11131
3270.84531	8.04691
3268.91675	7.96571
3266.98818	7.97206
3265.05962	8.02303
3263.13105	8.03017
3261.20249	8.01291
3259.27393	8.03907
3257.34536	8.06936
3255.41680	7.99050
3253.48823	7.90057
3251.55967	7.90115
3249.63110	7.98927
3247.70254	8.14528
3245.77397	8.23577
3243.84541	8.17979
3241.91685	8.05000
3239.98828	7.93730
3238.05972	7.88627
3236.13115	7.90351
3234.20259	7.94333
3232.27402	7.92895
3230.34546	7.89540
3228.41689	7.89186
3226.48833	7.91019
3224.55977	7.95719
3222.63120	7.99895
3220.70264	7.95843
3218.77407	7.87814
3216.84551	7.86865
3214.91694	7.91834
3212.98838	7.93875
3211.05981	7.91757
3209.13125	7.89822
3207.20269	7.87171
3205.27412	7.81519
3203.34556	7.75421
3201.41699	7.69068
3199.48843	7.60940
3197.55986	7.52224
3195.63130	7.47777
3193.70273	7.52636
3191.77417	7.60212
3189.84561	7.63369
3187.91704	7.61242
3185.98848	7.49199
3184.05991	7.34340
3182.13135	7.26225
3180.20278	7.22596
3178.27422	7.18098
3176.34565	7.09279
3174.41709	6.98361
3172.48853	6.91041
3170.55996	6.87355
3168.63140	6.84800
3166.70283	6.81638
3164.77427	6.77255
3162.84570	6.72935
3160.91714	6.67612
3158.98857	6.61824
3157.06001	6.56623
3155.13145	6.49843
3153.20288	6.41360
3151.27432	6.32890
3149.34575	6.25323
3147.41719	6.19342
3145.48862	6.13981
3143.56006	6.06724
3141.63149	5.98207
3139.70293	5.90596
3137.77437	5.83562
3135.84580	5.76684
3133.91724	5.70795
3131.98867	5.64978
3130.06011	5.58222
3128.13154	5.51455
3126.20298	5.44687
3124.27441	5.37509
3122.34585	5.29971
3120.41729	5.22566
3118.48872	5.16114
3116.56016	5.10093
3114.63159	5.03242
3112.70303	4.95817
3110.77446	4.88985
3108.84590	4.82589
3106.91733	4.75651
3104.98877	4.68401
3103.06021	4.61793
3101.13164	4.55597
3099.20308	4.49191
3097.27451	4.42781
3095.34595	4.36646
3093.41738	4.30505
3091.48882	4.23994
3089.56025	4.17444
3087.63169	4.11343
3085.70312	4.05457
3083.77456	3.99301
3081.84600	3.92911
3079.91743	3.86630
3077.98887	3.80719
3076.06030	3.75107
3074.13174	3.69539
3072.20317	3.63973
3070.27461	3.58412
3068.34604	3.52831
3066.41748	3.47280
3064.48892	3.41807
3062.56035	3.36350
3060.63179	3.30966
3058.70322	3.25704
3056.77466	3.20464
3054.84609	3.15317
3052.91753	3.10285
3050.98896	3.05193
3049.06040	3.00023
3047.13184	2.95031
3045.20327	2.90315
3043.27471	2.85601
3041.34614	2.80727
3039.41758	2.75901
3037.48901	2.71325
3035.56045	2.66888
3033.63188	2.62447
3031.70332	2.58004
3029.77476	2.53586
3027.84619	2.49265
3025.91763	2.45066
3023.98906	2.40924
3022.06050	2.36830
3020.13193	2.32779
3018.20337	2.28723
3016.27480	2.24715
3014.34624	2.20792
3012.41768	2.16912
3010.48911	2.13158
3008.56055	2.09567
3006.63198	2.06044
3004.70342	2.02534
3002.77485	1.99011
3000.84629	1.95536
2998.91772	1.92193
2996.98916	1.88962
2995.06060	1.85781
2993.13203	1.82648
2991.20347	1.79613
2989.27490	1.76653
2987.34634	1.73729
2985.41777	1.70845
2983.48921	1.68005
2981.56064	1.65194
2979.63208	1.62410
2977.70352	1.59714
2975.77495	1.57122
2973.84639	1.54558
2971.91782	1.51993
2969.98926	1.49473
2968.06069	1.47039
2966.13213	1.44667
2964.20356	1.42296
2962.27500	1.39912
2960.34644	1.37532
2958.41787	1.35169
2956.48931	1.32847
2954.56074	1.30562
2952.63218	1.28251
2950.70361	1.25933
2948.77505	1.23684
2946.84648	1.21478
2944.91792	1.19299
2942.98936	1.17217
2941.06079	1.15258
2939.13223	1.13321
2937.20366	1.11321
2935.27510	1.09350
2933.34653	1.07463
2931.41797	1.05554
2929.48940	1.03618
2927.56084	1.01732
2925.63228	0.99910
2923.70371	0.98159
2921.77515	0.96464
2919.84658	0.94761
2917.91802	0.93018
2915.98945	0.91288
2914.06089	0.89629
2912.13232	0.88058
2910.20376	0.86558
2908.27520	0.85101
2906.34663	0.83679
2904.41807	0.82289
2902.48950	0.80926
2900.56094	0.79572
2898.63237	0.78225
2896.70381	0.76894
2894.77524	0.75608
2892.84668	0.74397
2890.91812	0.73249
2888.98955	0.72121
2887.06099	0.70981
2885.13242	0.69864
2883.20386	0.68814
2881.27529	0.67808
2879.34673	0.66840
2877.41816	0.65890
2875.48960	0.64899
2873.56104	0.63854
2871.63247	0.62775
2869.70391	0.61685
2867.77534	0.60600
2865.84678	0.59478
2863.91821	0.58314
2861.98965	0.57203
2860.06108	0.56180
2858.13252	0.55196
2856.20396	0.54249
2854.27539	0.53361
2852.34683	0.52496
2850.41826	0.51609
2848.48970	0.50705
2846.56113	0.49834
2844.63257	0.49044
2842.70400	0.48349
2840.77544	0.47719
2838.84687	0.47099
2836.91831	0.46476
2834.98975	0.45859
2833.06118	0.45252
2831.13262	0.44653
2829.20405	0.44040
2827.27549	0.43425
2825.34692	0.42827
2823.41836	0.42236
2821.48979	0.41650
2819.56123	0.41061
2817.63267	0.40466
2815.70410	0.39877
2813.77554	0.39290
2811.84697	0.38721
2809.91841	0.38191
2807.98984	0.37674
2806.06128	0.37138
2804.13271	0.36605
2802.20415	0.36092
2800.27559	0.35591
2798.34702	0.35102
2796.41846	0.34622
2794.48989	0.34145
2792.56133	0.33682
2790.63276	0.33240
2788.70420	0.32807
2786.77563	0.32370
2784.84707	0.31935
2782.91851	0.31505
2780.98994	0.31084
2779.06138	0.30678
2777.13281	0.30287
2775.20425	0.29897
2773.27568	0.29508
2771.34712	0.29120
2769.41855	0.28736
2767.48999	0.28375
2765.56143	0.28030
2763.63286	0.27676
2761.70430	0.27322
2759.77573	0.26994
2757.84717	0.26677
2755.91860	0.26350
2753.99004	0.26039
2752.06147	0.25758
2750.13291	0.25476
2748.20435	0.25174
2746.27578	0.24860
2744.34722	0.24551
2742.41865	0.24271
2740.49009	0.24023
2738.56152	0.23786
2736.63296	0.23540
2734.70439	0.23278
2732.77583	0.23020
2730.84727	0.22779
2728.91870	0.22545
2726.99014	0.22317
2725.06157	0.22102
2723.13301	0.21889
2721.20444	0.21678
2719.27588	0.21483
2717.34731	0.21298
2715.41875	0.21098
2713.49019	0.20901
2711.56162	0.20724
2709.63306	0.20552
2707.70449	0.20379
2705.77593	0.20207
2703.84736	0.20029
2701.91880	0.19855
2699.99023	0.19700
2698.06167	0.19552
2696.13311	0.19397
2694.20454	0.19247
2692.27598	0.19106
2690.34741	0.18957
2688.41885	0.18803
2686.49028	0.18661
2684.56172	0.18536
2682.63315	0.18430
2680.70459	0.18332
2678.77603	0.18220
2676.84746	0.18098
2674.91890	0.17984
2672.99033	0.17873
2671.06177	0.17759
2669.13320	0.17649
2667.20464	0.17551
2665.27607	0.17459
2663.34751	0.17351
2661.41895	0.17231
2659.49038	0.17130
2657.56182	0.17052
2655.63325	0.16982
2653.70469	0.16905
2651.77612	0.16812
2649.84756	0.16731
2647.91899	0.16670
2645.99043	0.16614
2644.06187	0.16557
2642.13330	0.16501
2640.20474	0.16445
2638.27617	0.16390
2636.34761	0.16346
2634.41904	0.16308
2632.49048	0.16253
2630.56191	0.16187
2628.63335	0.16139
2626.70479	0.16114
2624.77622	0.16086
2622.84766	0.16042
2620.91909	0.15998
2618.99053	0.15970
2617.06196	0.15953
2615.13340	0.15938
2613.20483	0.15920
2611.27627	0.15897
2609.34771	0.15875
2607.41914	0.15866
2605.49058	0.15854
2603.56201	0.15828
2601.63345	0.15811
2599.70488	0.15808
2597.77632	0.15807
2595.84775	0.15807
2593.91919	0.15808
2591.99062	0.15804
2590.06206	0.15814
2588.13350	0.15848
2586.20493	0.15884
2584.27637	0.15900
2582.34780	0.15907
2580.41924	0.15918
2578.49067	0.15934
2576.56211	0.15953
2574.63354	0.15974
2572.70498	0.15999
2570.77642	0.16041
2568.84785	0.16093
2566.91929	0.16136
2564.99072	0.16166
2563.06216	0.16199
2561.13359	0.16244
2559.20503	0.16282
2557.27646	0.16312
2555.34790	0.16350
2553.41934	0.16404
2551.49077	0.16470
2549.56221	0.16536
2547.63364	0.16586
2545.70508	0.16628
2543.77651	0.16687
2541.84795	0.16760
2539.91938	0.16816
2537.99082	0.16854
2536.06226	0.16902
2534.13369	0.16970
2532.20513	0.17041
2530.27656	0.17102
2528.34800	0.17157
2526.41943	0.17219
2524.49087	0.17294
2522.56230	0.17370
2520.63374	0.17439
2518.70518	0.17509
2516.77661	0.17582
2514.84805	0.17650
2512.91948	0.17718
2510.99092	0.17799
2509.06235	0.17891
2507.13379	0.17978
2505.20522	0.18057
2503.27666	0.18135
2501.34810	0.18216
2499.41953	0.18298
2497.49097	0.18366
2495.56240	0.18428
2493.63384	0.18510
2491.70527	0.18602
2489.77671	0.18684
2487.84814	0.18764
2485.91958	0.18850
2483.99102	0.18939
2482.06245	0.19030
2480.13389	0.19109
2478.20532	0.19176
2476.27676	0.19243
2474.34819	0.19328
2472.41963	0.19436
2470.49106	0.19548
2468.56250	0.19637
2466.63394	0.19714
2464.70537	0.19800
2462.77681	0.19893
2460.84824	0.19984
2458.91968	0.20074
2456.99111	0.20172
2455.06255	0.20259
2453.13398	0.20322
2451.20542	0.20397
2449.27686	0.20505
2447.34829	0.20609
2445.41973	0.20701
2443.49116	0.20804
2441.56260	0.20915
2439.63403	0.21025
2437.70547	0.21138
2435.77690	0.21250
2433.84834	0.21350
2431.91978	0.21440
2429.99121	0.21530
2428.06265	0.21622
2426.13408	0.21722
2424.20552	0.21826
2422.27695	0.21925
2420.34839	0.22023
2418.41982	0.22127
2416.49126	0.22234
2414.56270	0.22347
2412.63413	0.22466
2410.70557	0.22578
2408.77700	0.22680
2406.84844	0.22793
2404.91987	0.22921
2402.99131	0.23050
2401.06274	0.23173
2399.13418	0.23290
2397.20562	0.23403
2395.27705	0.23516
2393.34849	0.23643
2391.41992	0.23786
2389.49136	0.23929
2387.56279	0.24065
2385.63423	0.24215
2383.70566	0.24415
2381.77710	0.24658
2379.84854	0.24928
2377.91997	0.25235
2375.99141	0.25576
2374.06284	0.25935
2372.13428	0.26320
2370.20571	0.26736
2368.27715	0.27195
2366.34858	0.27687
2364.42002	0.28124
2362.49146	0.28432
2360.56289	0.28617
2358.63433	0.28746
2356.70576	0.28811
2354.77720	0.28759
2352.84863	0.28625
2350.92007	0.28435
2348.99150	0.28289
2347.06294	0.28320
2345.13437	0.28615
2343.20581	0.29079
2341.27725	0.29434
2339.34868	0.29575
2337.42012	0.29588
2335.49155	0.29647
2333.56299	0.29819
2331.63442	0.30036
2329.70586	0.30197
2327.77729	0.30271
2325.84873	0.30287
2323.92017	0.30299
2321.99160	0.30345
2320.06304	0.30406
2318.13447	0.30445
2316.20591	0.30491
2314.27734	0.30592
2312.34878	0.30725
2310.42021	0.30849
2308.49165	0.30959
2306.56309	0.31053
2304.63452	0.31142
2302.70596	0.31257
2300.77739	0.31402
2298.84883	0.31551
2296.92026	0.31688
2294.99170	0.31823
2293.06313	0.31970
2291.13457	0.32128
2289.20601	0.32294
2287.27744	0.32458
2285.34888	0.32613
2283.42031	0.32778
2281.49175	0.32973
2279.56318	0.33181
2277.63462	0.33387
2275.70605	0.33596
2273.77749	0.33801
2271.84893	0.33998
2269.92036	0.34202
2267.99180	0.34413
2266.06323	0.34619
2264.13467	0.34824
2262.20610	0.35035
2260.27754	0.35250
2258.34897	0.35461
2256.42041	0.35666
2254.49185	0.35870
2252.56328	0.36077
2250.63472	0.36291
2248.70615	0.36502
2246.77759	0.36705
2244.84902	0.36914
2242.92046	0.37137
2240.99189	0.37362
2239.06333	0.37578
2237.13477	0.37796
2235.20620	0.38029
2233.27764	0.38256
2231.34907	0.38466
2229.42051	0.38687
2227.49194	0.38920
2225.56338	0.39143
2223.63481	0.39356
2221.70625	0.39559
2219.77769	0.39761
2217.84912	0.39978
2215.92056	0.40208
2213.99199	0.40436
2212.06343	0.40651
2210.13486	0.40857
2208.20630	0.41067
2206.27773	0.41284
2204.34917	0.41489
2202.42061	0.41685
2200.49204	0.41882
2198.56348	0.42079
2196.63491	0.42274
2194.70635	0.42473
2192.77778	0.42668
2190.84922	0.42851
2188.92065	0.43033
2186.99209	0.43215
2185.06353	0.43389
2183.13496	0.43563
2181.20640	0.43741
2179.27783	0.43919
2177.34927	0.44091
2175.42070	0.44251
2173.49214	0.44401
2171.56357	0.44543
2169.63501	0.44675
2167.70645	0.44806
2165.77788	0.44936
2163.84932	0.45059
2161.92075	0.45170
2159.99219	0.45276
2158.06362	0.45382
2156.13506	0.45482
2154.20649	0.45563
2152.27793	0.45635
2150.34937	0.45702
2148.42080	0.45771
2146.49224	0.45844
2144.56367	0.45902
2142.63511	0.45941
2140.70654	0.45973
2138.77798	0.46006
2136.84941	0.46031
2134.92085	0.46040
2132.99229	0.46037
2131.06372	0.46033
2129.13516	0.46022
2127.20659	0.45992
2125.27803	0.45949
2123.34946	0.45906
2121.42090	0.45862
2119.49233	0.45803
2117.56377	0.45730
2115.63521	0.45653
2113.70664	0.45580
2111.77808	0.45504
2109.84951	0.45414
2107.92095	0.45315
2105.99238	0.45213
2104.06382	0.45107
2102.13525	0.44984
2100.20669	0.44840
2098.27812	0.44688
2096.34956	0.44538
2094.42100	0.44387
2092.49243	0.44228
2090.56387	0.44067
2088.63530	0.43899
2086.70674	0.43719
2084.77817	0.43530
2082.84961	0.43340
2080.92104	0.43148
2078.99248	0.42948
2077.06392	0.42743
2075.13535	0.42537
2073.20679	0.42321
2071.27822	0.42087
2069.34966	0.41849
2067.42109	0.41627
2065.49253	0.41414
2063.56396	0.41182
2061.63540	0.40924
2059.70684	0.40660
2057.77827	0.40407
2055.84971	0.40156
2053.92114	0.39899
2051.99258	0.39649
2050.06401	0.39399
2048.13545	0.39136
2046.20688	0.38871
2044.27832	0.38616
2042.34976	0.38359
2040.42119	0.38084
2038.49263	0.37806
2036.56406	0.37535
2034.63550	0.37255
2032.70693	0.36967
2030.77837	0.36687
2028.84980	0.36415
2026.92124	0.36145
2024.99268	0.35872
2023.06411	0.35596
2021.13555	0.35324
2019.20698	0.35061
2017.27842	0.34800
2015.34985	0.34519
2013.42129	0.34219
2011.49272	0.33922
2009.56416	0.33641
2007.63560	0.33372
2005.70703	0.33101
2003.77847	0.32827
2001.84990	0.32561
1999.92134	0.32309
1997.99277	0.32055
1996.06421	0.31803
1994.13564	0.31576
1992.20708	0.31362
1990.27852	0.31114
1988.34995	0.30837
1986.42139	0.30566
1984.49282	0.30308
1982.56426	0.30060
1980.63569	0.29824
1978.70713	0.29600
1976.77856	0.29379
1974.85000	0.29150
1972.92144	0.28923
1970.99287	0.28721
1969.06431	0.28545
1967.13574	0.28365
1965.20718	0.28152
1963.27861	0.27933
1961.35005	0.27733
1959.42148	0.27538
1957.49292	0.27347
1955.56436	0.27169
1953.63579	0.27001
1951.70723	0.26824
1949.77866	0.26642
1947.85010	0.26481
1945.92153	0.26349
1943.99297	0.26236
1942.06440	0.26110
1940.13584	0.25936
1938.20728	0.25752
1936.27871	0.25597
1934.35015	0.25460
1932.42158	0.25337
1930.49302	0.25221
1928.56445	0.25112
1926.63589	0.25014
1924.70732	0.24940
1922.77876	0.24873
1920.85020	0.24780
1918.92163	0.24689
1916.99307	0.24588
1915.06450	0.24450
1913.13594	0.24331
1911.20737	0.24277
1909.27881	0.24241
1907.35024	0.24170
1905.42168	0.24073
1903.49312	0.23992
1901.56455	0.23932
1899.63599	0.23878
1897.70742	0.23838
1895.77886	0.23820
1893.85029	0.23793
1891.92173	0.23758
1889.99316	0.23756
1888.06460	0.23735
1886.13604	0.23674
1884.20747	0.23625
1882.27891	0.23591
1880.35034	0.23570
1878.42178	0.23561
1876.49321	0.23558
1874.56465	0.23550
1872.63608	0.23568
1870.70752	0.23657
1868.77896	0.23802
1866.85039	0.23839
1864.92183	0.23749
1862.99326	0.23683
1861.06470	0.23677
1859.13613	0.23707
1857.20757	0.23739
1855.27900	0.23770
1853.35044	0.23806
1851.42187	0.23867
1849.49331	0.23956
1847.56475	0.24071
1845.63618	0.24210
1843.70762	0.24334
1841.77905	0.24360
1839.85049	0.24347
1837.92192	0.24399
1835.99336	0.24483
1834.06479	0.24573
1832.13623	0.24705
1830.20767	0.24916
1828.27910	0.25094
1826.35054	0.25172
1824.42197	0.25256
1822.49341	0.25327
1820.56484	0.25402
1818.63628	0.25526
1816.70771	0.25687
1814.77915	0.25853
1812.85059	0.26054
1810.92202	0.26300
1808.99346	0.26508
1807.06489	0.26663
1805.13633	0.26830
1803.20776	0.27069
1801.27920	0.27369
1799.35063	0.27667
1797.42207	0.27901
1795.49351	0.28139
1793.56494	0.28463
1791.63638	0.28863
1789.70781	0.29149
1787.77925	0.29324
1785.85068	0.29601
1783.92212	0.29980
1781.99355	0.30394
1780.06499	0.30823
1778.13643	0.31237
1776.20786	0.31647
1774.27930	0.32155
1772.35073	0.32838
1770.42217	0.33458
1768.49360	0.33887
1766.56504	0.34317
1764.63647	0.34809
1762.70791	0.35408
1760.77935	0.36172
1758.85078	0.36871
1756.92222	0.37578
1754.99365	0.38341
1753.06509	0.39042
1751.13652	0.39936
1749.20796	0.41075
1747.27939	0.42107
1745.35083	0.42950
1743.42227	0.43856
1741.49370	0.44883
1739.56514	0.46103
1737.63657	0.47318
1735.70801	0.48415
1733.77944	0.50113
1731.85088	0.52054
1729.92231	0.53484
1727.99375	0.54942
1726.06519	0.56555
1724.13662	0.58381
1722.20806	0.60371
1720.27949	0.62224
1718.35093	0.64480
1716.42236	0.67829
1714.49380	0.70823
1712.56523	0.73130
1710.63667	0.75421
1708.70811	0.77965
1706.77954	0.80911
1704.85098	0.84415
1702.92241	0.87485
1700.99385	0.90512
1699.06528	0.95146
1697.13672	0.99414
1695.20815	1.03650
1693.27959	1.07677
1691.35103	1.10939
1689.42246	1.14838
1687.49390	1.19023
1685.56533	1.23052
1683.63677	1.29364
1681.70820	1.35902
1679.77964	1.39904
1677.85107	1.43714
1675.92251	1.48141
1673.99395	1.53747
1672.06538	1.58799
1670.13682	1.63773
1668.20825	1.70232
1666.27969	1.75291
1664.35112	1.79659
1662.42256	1.85518
1660.49399	1.92302
1658.56543	1.97319
1656.63687	2.01274
1654.70830	2.05081
1652.77974	2.11420
1650.85117	2.17202
1648.92261	2.18810
1646.99404	2.21060
1645.06548	2.23672
1643.13691	2.25508
1641.20835	2.26601
1639.27979	2.27727
1637.35122	2.28494
1635.42266	2.28339
1633.49409	2.27242
1631.56553	2.25822
1629.63696	2.24331
1627.70840	2.21686
1625.77983	2.18513
1623.85127	2.14495
1621.92271	2.09513
1619.99414	2.05027
1618.06558	2.00613
1616.13701	1.94141
1614.20845	1.87476
1612.27988	1.82501
1610.35132	1.77453
1608.42275	1.72026
1606.49419	1.66608
1604.56562	1.61636
1602.63706	1.56896
1600.70850	1.52233
1598.77993	1.47893
1596.85137	1.43852
1594.92280	1.39972
1592.99424	1.36214
1591.06567	1.32759
1589.13711	1.29536
1587.20854	1.26562
1585.27998	1.23829
1583.35142	1.21301
1581.42285	1.19022
1579.49429	1.17135
1577.56572	1.15547
1575.63716	1.13596
1573.70859	1.11795
1571.78003	1.10660
1569.85146	1.09561
1567.92290	1.08287
1565.99434	1.07300
1564.06577	1.06603
1562.13721	1.06133
1560.20864	1.05961
1558.28008	1.06056
1556.35151	1.06093
1554.42295	1.05977
1552.49438	1.05827
1550.56582	1.05555
1548.63726	1.05094
1546.70869	1.04503
1544.78013	1.03775
1542.85156	1.02865
1540.92300	1.01360
1538.99443	0.98504
1537.06587	0.96353
1535.13730	0.95022
1533.20874	0.93262
1531.28018	0.91304
1529.35161	0.89924
1527.42305	0.88695
1525.49448	0.87411
1523.56592	0.86322
1521.63735	0.85268
1519.70879	0.84119
1517.78022	0.83167
1515.85166	0.82069
1513.92310	0.80886
1511.99453	0.79902
1510.06597	0.79098
1508.13740	0.78372
1506.20884	0.77008
1504.28027	0.75691
1502.35171	0.75009
1500.42314	0.74493
1498.49458	0.73977
1496.56602	0.73305
1494.63745	0.72549
1492.70889	0.71997
1490.78032	0.71614
1488.85176	0.71152
1486.92319	0.70556
1484.99463	0.70025
1483.06606	0.69660
1481.13750	0.69405
1479.20894	0.69211
1477.28037	0.69130
1475.35181	0.69172
1473.42324	0.69243
1471.49468	0.69134
1469.56611	0.68848
1467.63755	0.68596
1465.70898	0.68445
1463.78042	0.68340
1461.85186	0.68261
1459.92329	0.68294
1457.99473	0.68445
1456.06616	0.68399
1454.13760	0.68044
1452.20903	0.67723
1450.28047	0.67466
1448.35190	0.67240
1446.42334	0.66976
1444.49478	0.66690
1442.56621	0.66437
1440.63765	0.66218
1438.70908	0.66034
1436.78052	0.65811
1434.85195	0.65481
1432.92339	0.65195
1430.99482	0.65040
1429.06626	0.64961
1427.13770	0.64910
1425.20913	0.64923
1423.28057	0.64991
1421.35200	0.65055
1419.42344	0.65120
1417.49487	0.65081
1415.56631	0.64885
1413.63774	0.64719
1411.70918	0.64658
1409.78062	0.64685
1407.85205	0.64755
1405.92349	0.64870
1403.99492	0.64971
1402.06636	0.64966
1400.13779	0.64906
1398.20923	0.64795
1396.28066	0.64575
1394.35210	0.64214
1392.42354	0.63774
1390.49497	0.63397
1388.56641	0.63079
1386.63784	0.62692
1384.70928	0.62216
1382.78071	0.61764
1380.85215	0.61381
1378.92358	0.61076
1376.99502	0.60859
1375.06646	0.60722
1373.13789	0.60615
1371.20933	0.60511
1369.28076	0.60435
1367.35220	0.60345
1365.42363	0.60217
1363.49507	0.60096
1361.56650	0.59966
1359.63794	0.59803
1357.70937	0.59650
1355.78081	0.59513
1353.85225	0.59386
1351.92368	0.59279
1349.99512	0.59193
1348.06655	0.59105
1346.13799	0.59003
1344.20942	0.58903
1342.28086	0.58835
1340.35229	0.58807
1338.42373	0.58760
1336.49517	0.58662
1334.56660	0.58557
1332.63804	0.58481
1330.70947	0.58444
1328.78091	0.58452
1326.85234	0.58498
1324.92378	0.58570
1322.99521	0.58658
1321.06665	0.58738
1319.13809	0.58790
1317.20952	0.58801
1315.28096	0.58774
1313.35239	0.58707
1311.42383	0.58606
1309.49526	0.58503
1307.56670	0.58429
1305.63813	0.58373
1303.70957	0.58298
1301.78101	0.58196
1299.85244	0.58086
1297.92388	0.57968
1295.99531	0.57836
1294.06675	0.57711
1292.13818	0.57607
1290.20962	0.57509
1288.28105	0.57403
1286.35249	0.57282
1284.42393	0.57149
1282.49536	0.57015
1280.56680	0.56884
1278.63823	0.56751
1276.70967	0.56620
1274.78110	0.56509
1272.85254	0.56435
1270.92397	0.56387
1268.99541	0.56333
1267.06685	0.56269
1265.13828	0.56204
1263.20972	0.56132
1261.28115	0.56058
1259.35259	0.55986
1257.42402	0.55915
1255.49546	0.55870
1253.56689	0.55867
1251.63833	0.55883
1249.70977	0.55889
1247.78120	0.55883
1245.85264	0.55873
1243.92407	0.55832
1241.99551	0.55737
1240.06694	0.55602
1238.13838	0.55445
1236.20981	0.55264
1234.28125	0.55067
1232.35269	0.54863
1230.42412	0.54656
1228.49556	0.54454
1226.56699	0.54281
1224.63843	0.54130
1222.70986	0.53970
1220.78130	0.53811
1218.85273	0.53671
1216.92417	0.53550
1214.99561	0.53445
1213.06704	0.53362
1211.13848	0.53297
1209.20991	0.53241
1207.28135	0.53181
1205.35278	0.53106
1203.42422	0.53015
1201.49565	0.52917
1199.56709	0.52825
1197.63853	0.52735
1195.70996	0.52644
1193.78140	0.52566
1191.85283	0.52497
1189.92427	0.52443
1187.99570	0.52415
1186.06714	0.52396
1184.13857	0.52372
1182.21001	0.52380
1180.28145	0.52457
1178.35288	0.52587
1176.42432	0.52729
1174.49575	0.52850
1172.56719	0.52930
1170.63862	0.52984
1168.71006	0.53036
1166.78149	0.53073
1164.85293	0.53091
1162.92437	0.53115
1160.99580	0.53150
1159.06724	0.53174
1157.13867	0.53160
1155.21011	0.53098
1153.28154	0.52989
1151.35298	0.52822
1149.42441	0.52601
1147.49585	0.52340
1145.56729	0.52059
1143.63872	0.51783
1141.71016	0.51523
1139.78159	0.51293
1137.85303	0.51140
1135.92446	0.51069
1133.99590	0.51031
1132.06733	0.51001
1130.13877	0.50989
1128.21021	0.50996
1126.28164	0.50980
1124.35308	0.50923
1122.42451	0.50874
1120.49595	0.50872
1118.56738	0.50899
1116.63882	0.50949
1114.71025	0.51021
1112.78169	0.51103
1110.85312	0.51187
1108.92456	0.51279
1106.99600	0.51378
1105.06743	0.51475
1103.13887	0.51559
1101.21030	0.51643
1099.28174	0.51765
1097.35317	0.51947
1095.42461	0.52206
1093.49604	0.52572
1091.56748	0.53063
1089.63892	0.53695
1087.71035	0.54460
1085.78179	0.55313
1083.85322	0.56175
1081.92466	0.56930
1079.99609	0.57468
1078.06753	0.57718
1076.13896	0.57670
1074.21040	0.57346
1072.28184	0.56774
1070.35327	0.56052
1068.42471	0.55318
1066.49614	0.54645
1064.56758	0.54030
1062.63901	0.53488
1060.71045	0.53048
1058.78188	0.52668
1056.85332	0.52313
1054.92476	0.51992
1052.99619	0.51703
1051.06763	0.51455
1049.13906	0.51290
1047.21050	0.51221
1045.28193	0.51214
1043.35337	0.51234
1041.42480	0.51260
1039.49624	0.51274
1037.56768	0.51264
1035.63911	0.51227
1033.71055	0.51157
1031.78198	0.51054
1029.85342	0.50916
1027.92485	0.50735
1025.99629	0.50538
1024.06772	0.50382
1022.13916	0.50287
1020.21060	0.50240
1018.28203	0.50227
1016.35347	0.50214
1014.42490	0.50168
1012.49634	0.50111
1010.56777	0.50070
1008.63921	0.50046
1006.71064	0.50045
1004.78208	0.50100
1002.85352	0.50248
1000.92495	0.50494
998.99639	0.50824
997.06782	0.51232
995.13926	0.51687
993.21069	0.52112
991.28213	0.52440
989.35356	0.52639
987.42500	0.52717
985.49644	0.52718
983.56787	0.52692
981.63931	0.52678
979.71074	0.52716
977.78218	0.52827
975.85361	0.52997
973.92505	0.53214
971.99648	0.53489
970.06792	0.53809
968.13936	0.54151
966.21079	0.54529
964.28223	0.54966
962.35366	0.55457
960.42510	0.55963
958.49653	0.56474
956.56797	0.57015
954.63940	0.57597
952.71084	0.58215
950.78228	0.58838
948.85371	0.59458
946.92515	0.60099
944.99658	0.60748
943.06802	0.61377
941.13945	0.61971
939.21089	0.62534
937.28232	0.63086
935.35376	0.63636
933.42520	0.64203
931.49663	0.64784
929.56807	0.65317
927.63950	0.65838
925.71094	0.66463
923.78237	0.67162
921.85381	0.67829
919.92524	0.68440
917.99668	0.69031
916.06812	0.69664
914.13955	0.70405
912.21099	0.71272
910.28242	0.72176
908.35386	0.73055
906.42529	0.73943
904.49673	0.74826
902.56816	0.75660
900.63960	0.76518
898.71104	0.77476
896.78247	0.78440
894.85391	0.79358
892.92534	0.80350
890.99678	0.81423
889.06821	0.82450
887.13965	0.83439
885.21108	0.84460
883.28252	0.85523
881.35396	0.86714
879.42539	0.88060
877.49683	0.89370
875.56826	0.90458
873.63970	0.91424
871.71113	0.92491
869.78257	0.93666
867.85400	0.94910
865.92544	0.96176
863.99687	0.97258
862.06831	0.98187
860.13975	0.99249
858.21118	1.00538
856.28262	1.01876
854.35405	1.03050
852.42549	1.04016
850.49692	1.04962
848.56836	1.06155
846.63979	1.07634
844.71123	1.09121
842.78267	1.10342
840.85410	1.11349
838.92554	1.12304
836.99697	1.13308
835.06841	1.14406
833.13984	1.15621
831.21128	1.16983
829.28271	1.18452
827.35415	1.20056
825.42559	1.21475
823.49702	1.21941
821.56846	1.21883
819.63989	1.22558
817.71133	1.23486
815.78276	1.23760
813.85420	1.24200
811.92563	1.25865
809.99707	1.28401
808.06851	1.30141
806.13994	1.30803
804.21138	1.31599
802.28281	1.32855
800.35425	1.34437
798.42568	1.36610
796.49712	1.40492
794.56855	1.47400
792.63999	1.52763
790.71143	1.47179
788.78286	1.38657
786.85430	1.36563
784.92573	1.40079
782.99717	1.46048
781.06860	1.49350
779.14004	1.45444
777.21147	1.43564
775.28291	1.51674
773.35435	1.57752
771.42578	1.46739
769.49722	1.39726
767.56865	1.46740
765.64009	1.57798
763.71152	1.59956
761.78296	1.58471
759.85439	1.47537
757.92583	1.36853
755.99727	1.41962
754.06870	1.54396
752.14014	1.42253
750.21157	1.32814
748.28301	1.38747
746.35444	1.37954
744.42588	1.23432
742.49731	1.11578
740.56875	1.01561
738.64019	0.92139
736.71162	0.84677
734.78306	0.83723
732.85449	0.94404
730.92593	1.06605
728.99736	0.95791
727.06880	0.77031
725.14023	0.63492
723.21167	0.48446
721.28311	0.31209
719.35454	0.24271
717.42598	0.31448
715.49741	0.17402
713.56885	-0.15661
711.64028	-0.27086
709.71172	-0.35087
707.78315	-0.63547
705.85459	-0.61810
703.92603	-0.05304
701.99746	0.27374
700.06890	0.75663
698.14033	4.18884
696.21177	4.17727
694.28320	4.16570
692.35464	1.23144
690.42607	0.62995
688.49751	0.60145
686.56895	4.11941
684.64038	4.10784
682.71182	1.07315
680.78325	0.47162
678.85469	0.46012
676.92612	0.69759
674.99756	0.69228
673.06899	0.40552
671.14043	0.31837
669.21187	0.35668
667.28330	0.44768
665.35474	0.56454
663.42617	0.65812
661.49761	0.72796
659.56904	0.56565
657.64048	0.32930
655.71191	0.26525
653.78335	0.33658
651.85479	0.36375
649.92622	0.32848
647.99766	0.42753
646.06909	0.52975
644.14053	0.33820
642.21196	0.19243
640.28340	0.30155
638.35483	0.81491
636.42627	3.81856
634.49771	0.77645
632.56914	0.57061
630.64058	0.58122
628.71201	0.78669
626.78345	0.94669
624.85488	0.67243
622.92632	0.35058
620.99775	0.22521
619.06919	0.28848
617.14062	0.61306
615.21206	0.97116
613.28350	0.67532
611.35493	0.42454
609.42637	0.29521
607.49780	0.26312
605.56924	0.29136
603.64067	0.36612
601.71211	0.41598
599.78354	0.38162
597.85498	0.33244
595.92642	0.29043
593.99785	0.28560
592.06929	0.44496
590.14072	1.30738
588.21216	0.65419
586.28359	0.32101
584.35503	0.23472
582.42646	0.31187
580.49790	0.60814
578.56934	0.53642
576.64077	0.31286
574.71221	0.22297
572.78364	0.20367
570.85508	0.24547
568.92651	0.31549
566.99795	0.33954
565.06938	0.31573
563.14082	0.28395
561.21226	0.25039
559.28369	0.25440
557.35513	0.27877
555.42656	0.27786
553.49800	0.28943
551.56943	0.33225
549.64087	0.36216
547.71230	0.31522
545.78374	0.23092
543.85518	0.21584
541.92661	0.24266
539.99805	0.25943
538.06948	0.28008
536.14092	0.29052
534.21235	0.26261
532.28379	0.24019
530.35522	0.25275
528.42666	0.28040
526.49810	0.30078
524.56953	0.31043
522.64097	0.31466
520.71240	0.35370
518.78384	0.40299
516.85527	0.37174
514.92671	0.30517
512.99814	0.22523
511.06958	0.14574
509.14102	0.13056
507.21245	0.21122
505.28389	0.25435
503.35532	0.17159
501.42676	0.09717
499.49819	0.09628
