3997.91411	0.06912
3995.98555	0.06942
3994.05698	0.06974
3992.12842	0.07008
3990.19985	0.07055
3988.27129	0.07107
3986.34272	0.07141
3984.41416	0.07159
3982.48560	0.07184
3980.55703	0.07231
3978.62847	0.07267
3976.69990	0.07258
3974.77134	0.07227
3972.84277	0.07226
3970.91421	0.07283
3968.98564	0.07349
3967.05708	0.07373
3965.12852	0.07356
3963.19995	0.07339
3961.27139	0.07360
3959.34282	0.07403
3957.41426	0.07416
3955.48569	0.07387
3953.55713	0.07354
3951.62856	0.07359
3949.70000	0.07408
3947.77144	0.07460
3945.84287	0.07467
3943.91431	0.07440
3941.98574	0.07419
3940.05718	0.07377
3938.12861	0.07330
3936.20005	0.07363
3934.27148	0.07433
3932.34292	0.07454
3930.41436	0.07448
3928.48579	0.07443
3926.55723	0.07428
3924.62866	0.07416
3922.70010	0.07401
3920.77153	0.07376
3918.84297	0.07349
3916.91440	0.07339
3914.98584	0.07342
3913.05728	0.07328
3911.12871	0.07290
3909.20015	0.07248
3907.27158	0.07227
3905.34302	0.07275
3903.41445	0.07403
3901.48589	0.07468
3899.55732	0.07404
3897.62876	0.07344
3895.70020	0.07310
3893.77163	0.07289
3891.84307	0.07341
3889.91450	0.07394
3887.98594	0.07337
3886.05737	0.07306
3884.12881	0.07371
3882.20024	0.07417
3880.27168	0.07395
3878.34312	0.07342
3876.41455	0.07318
3874.48599	0.07358
3872.55742	0.07422
3870.62886	0.07470
3868.70029	0.07484
3866.77173	0.07447
3864.84316	0.07475
3862.91460	0.07602
3860.98604	0.07668
3859.05747	0.07642
3857.12891	0.07631
3855.20034	0.07674
3853.27178	0.07790
3851.34321	0.07895
3849.41465	0.07849
3847.48608	0.07816
3845.55752	0.07877
3843.62896	0.08002
3841.70039	0.08138
3839.77183	0.08242
3837.84326	0.08340
3835.91470	0.08410
3833.98613	0.08396
3832.05757	0.08397
3830.12900	0.08469
3828.20044	0.08540
3826.27187	0.08597
3824.34331	0.08655
3822.41475	0.08732
3820.48618	0.08859
3818.55762	0.08933
3816.62905	0.08967
3814.70049	0.09054
3812.77192	0.09115
3810.84336	0.09136
3808.91479	0.09186
3806.98623	0.09304
3805.05767	0.09486
3803.12910	0.09675
3801.20054	0.09862
3799.27197	0.09992
3797.34341	0.10042
3795.41484	0.10112
3793.48628	0.10205
3791.55771	0.10288
3789.62915	0.10376
3787.70059	0.10490
3785.77202	0.10646
3783.84346	0.10817
3781.91489	0.10970
3779.98633	0.11131
3778.05776	0.11319
3776.12920	0.11452
3774.20063	0.11553
3772.27207	0.11696
3770.34351	0.11895
3768.41494	0.12117
3766.48638	0.12288
3764.55781	0.12440
3762.62925	0.12611
3760.70068	0.12808
3758.77212	0.13060
3756.84355	0.13315
3754.91499	0.13512
3752.98643	0.13735
3751.05786	0.14122
3749.12930	0.14567
3747.20073	0.14748
3745.27217	0.14846
3743.34360	0.15138
3741.41504	0.15523
3739.48647	0.15832
3737.55791	0.16155
3735.62935	0.16629
3733.70078	0.17258
3731.77222	0.17758
3729.84365	0.18076
3727.91509	0.18394
3725.98652	0.18891
3724.05796	0.19552
3722.12939	0.20220
3720.20083	0.20906
3718.27227	0.21648
3716.34370	0.22425
3714.41514	0.23204
3712.48657	0.24120
3710.55801	0.25406
3708.62944	0.26768
3706.70088	0.27878
3704.77231	0.28943
3702.84375	0.30196
3700.91519	0.31832
3698.98662	0.33615
3697.05806	0.35303
3695.12949	0.37118
3693.20093	0.39037
3691.27236	0.41093
3689.34380	0.43800
3687.41523	0.47241
3685.48667	0.50271
3683.55811	0.52826
3681.62954	0.55568
3679.70098	0.58691
3677.77241	0.61979
3675.84385	0.65832
3673.91528	0.70984
3671.98672	0.75220
3670.05815	0.78999
3668.12959	0.84219
3666.20103	0.89020
3664.27246	0.93018
3662.34390	0.97286
3660.41533	1.01911
3658.48677	1.06480
3656.55820	1.11301
3654.62964	1.16669
3652.70107	1.21169
3650.77251	1.24974
3648.84395	1.30253
3646.91538	1.37045
3644.98682	1.42228
3643.05825	1.46189
3641.12969	1.50138
3639.20112	1.54413
3637.27256	1.58708
3635.34399	1.62937
3633.41543	1.67185
3631.48687	1.71116
3629.55830	1.75041
3627.62974	1.80255
3625.70117	1.85337
3623.77261	1.88847
3621.84404	1.92154
3619.91548	1.95967
3617.98691	2.00552
3616.05835	2.04871
3614.12979	2.08478
3612.20122	2.12388
3610.27266	2.16346
3608.34409	2.20197
3606.41553	2.24310
3604.48696	2.28255
3602.55840	2.31811
3600.62983	2.35583
3598.70127	2.39613
3596.77271	2.43566
3594.84414	2.47607
3592.91558	2.51764
3590.98701	2.55745
3589.05845	2.59467
3587.12988	2.63650
3585.20132	2.68230
3583.27275	2.72424
3581.34419	2.76483
3579.41562	2.80635
3577.48706	2.84719
3575.55850	2.88808
3573.62993	2.93102
3571.70137	2.97242
3569.77280	3.01183
3567.84424	3.05531
3565.91567	3.10898
3563.98711	3.16041
3562.05854	3.20271
3560.12998	3.24501
3558.20142	3.28886
3556.27285	3.33260
3554.34429	3.37550
3552.41572	3.42080
3550.48716	3.46948
3548.55859	3.51681
3546.63003	3.56192
3544.70146	3.60907
3542.77290	3.65704
3540.84434	3.70317
3538.91577	3.74858
3536.98721	3.79425
3535.05864	3.84372
3533.13008	3.89510
3531.20151	3.94317
3529.27295	3.98905
3527.34438	4.03634
3525.41582	4.08264
3523.48726	4.12973
3521.55869	4.18079
3519.63013	4.22966
3517.70156	4.27579
3515.77300	4.32206
3513.84443	4.36966
3511.91587	4.41818
3509.98730	4.46533
3508.05874	4.51215
3506.13018	4.56030
3504.20161	4.60748
3502.27305	4.65689
3500.34448	4.71185
3498.41592	4.76240
3496.48735	4.80413
3494.55879	4.84487
3492.63022	4.89046
3490.70166	4.93856
3488.77310	4.98667
3486.84453	5.03670
3484.91597	5.09033
3482.98740	5.14202
3481.05884	5.18297
3479.13027	5.21775
3477.20171	5.26357
3475.27314	5.32139
3473.34458	5.37322
3471.41602	5.41447
3469.48745	5.45605
3467.55889	5.50387
3465.63032	5.56291
3463.70176	5.62663
3461.77319	5.67663
3459.84463	5.71590
3457.91606	5.75109
3455.98750	5.78512
3454.05894	5.83398
3452.13037	5.90575
3450.20181	5.98229
3448.27324	6.03787
3446.34468	6.07820
3444.41611	6.12545
3442.48755	6.18551
3440.55898	6.23759
3438.63042	6.27571
3436.70186	6.32059
3434.77329	6.36973
3432.84473	6.40993
3430.91616	6.44333
3428.98760	6.48587
3427.05903	6.55105
3425.13047	6.63097
3423.20190	6.70115
3421.27334	6.76146
3419.34478	6.81127
3417.41621	6.84990
3415.48765	6.88189
3413.55908	6.88626
3411.63052	6.89201
3409.70195	6.94501
3407.77339	7.02560
3405.84482	7.07374
3403.91626	7.08514
3401.98770	7.09874
3400.05913	7.11842
3398.13057	7.14337
3396.20200	7.19740
3394.27344	7.27168
3392.34487	7.32513
3390.41631	7.37571
3388.48774	7.42941
3386.55918	7.45659
3384.63062	7.46281
3382.70205	7.48369
3380.77349	7.50483
3378.84492	7.47665
3376.91636	7.45309
3374.98779	7.53095
3373.05923	7.66692
3371.13066	7.70002
3369.20210	7.66658
3367.27354	7.68712
3365.34497	7.75565
3363.41641	7.80857
3361.48784	7.79666
3359.55928	7.76955
3357.63071	7.80340
3355.70215	7.90154
3353.77358	7.97240
3351.84502	7.94748
3349.91646	7.85583
3347.98789	7.79217
3346.05933	7.82053
3344.13076	7.89786
3342.20220	7.92324
3340.27363	7.87327
3338.34507	7.84136
3336.41650	7.87954
3334.48794	7.96031
3332.55937	7.99503
3330.63081	7.96448
3328.70225	7.94640
3326.77368	7.93966
3324.84512	7.90289
3322.91655	7.88798
3320.98799	7.93684
3319.05942	8.01049
3317.13086	8.05940
3315.20229	8.01816
3313.27373	7.94553
3311.34517	7.96313
3309.41660	8.04871
3307.48804	8.08331
3305.55947	8.06935
3303.63091	8.04318
3301.70234	7.99384
3299.77378	8.00508
3297.84521	8.06532
3295.91665	8.08975
3293.98809	8.07972
3292.05952	8.08641
3290.13096	8.11830
3288.20239	8.16492
3286.27383	8.26033
3284.34526	8.36661
3282.41670	8.42799
3280.48813	8.42242
3278.55957	8.35000
3276.63101	8.30219
3274.70244	8.36760
3272.77388	8.38698
3270.84531	8.23351
3268.91675	8.10938
3266.98818	8.16858
3265.05962	8.41555
3263.13105	8.59124
3261.20249	8.45360
3259.27393	8.22302
3257.34536	8.11887
3255.41680	8.11867
3253.48823	8.13243
3251.55967	8.19689
3249.63110	8.29462
3247.70254	8.29200
3245.77397	8.17155
3243.84541	8.08705
3241.91685	8.14863
3239.98828	8.28697
3238.05972	8.29274
3236.13115	8.12806
3234.20259	8.01860
3232.27402	8.04120
3230.34546	8.04799
3228.41689	7.96173
3226.48833	7.90115
3224.55977	7.93327
3222.63120	8.01781
3220.70264	8.08455
3218.77407	8.08139
3216.84551	8.04340
3214.91694	8.02206
3212.98838	8.01660
3211.05981	7.98604
3209.13125	7.86933
3207.20269	7.73779
3205.27412	7.73205
3203.34556	7.85119
3201.41699	7.95104
3199.48843	7.91188
3197.55986	7.79345
3195.63130	7.68030
3193.70273	7.61060
3191.77417	7.59046
3189.84561	7.53548
3187.91704	7.45302
3185.98848	7.43458
3184.05991	7.42129
3182.13135	7.32720
3180.20278	7.22377
3178.27422	7.19698
3176.34565	7.19631
3174.41709	7.11999
3172.48853	7.01974
3170.55996	6.96778
3168.63140	6.93528
3166.70283	6.91463
3164.77427	6.89733
3162.84570	6.82608
3160.91714	6.71332
3158.98857	6.63148
3157.06001	6.57959
3155.13145	6.51590
3153.20288	6.45281
3151.27432	6.41348
3149.34575	6.37833
3147.41719	6.31707
3145.48862	6.23224
3143.56006	6.13673
3141.63149	6.04096
3139.70293	5.96858
3137.77437	5.91729
3135.84580	5.85997
3133.91724	5.79210
3131.98867	5.72116
3130.06011	5.65080
3128.13154	5.58061
3126.20298	5.50597
3124.27441	5.43068
3122.34585	5.36155
3120.41729	5.29801
3118.48872	5.23656
3116.56016	5.17135
3114.63159	5.10058
3112.70303	5.02899
3110.77446	4.95666
3108.84590	4.88514
3106.91733	4.81630
3104.98877	4.74874
3103.06021	4.68278
3101.13164	4.61520
3099.20308	4.54602
3097.27451	4.47952
3095.34595	4.41488
3093.41738	4.34959
3091.48882	4.28533
3089.56025	4.22426
3087.63169	4.16541
3085.70312	4.10448
3083.77456	4.03816
3081.84600	3.97251
3079.91743	3.91104
3077.98887	3.84907
3076.06030	3.78829
3074.13174	3.73296
3072.20317	3.67862
3070.27461	3.61999
3068.34604	3.56032
3066.41748	3.50401
3064.48892	3.44913
3062.56035	3.39216
3060.63179	3.33469
3058.70322	3.27935
3056.77466	3.22496
3054.84609	3.17017
3052.91753	3.11725
3050.98896	3.06816
3049.06040	3.01964
3047.13184	2.96930
3045.20327	2.91835
3043.27471	2.86820
3041.34614	2.81968
3039.41758	2.77149
3037.48901	2.72310
3035.56045	2.67644
3033.63188	2.63152
3031.70332	2.58592
3029.77476	2.53957
3027.84619	2.49526
3025.91763	2.45325
3023.98906	2.41161
3022.06050	2.37017
3020.13193	2.32919
3018.20337	2.28842
3016.27480	2.24786
3014.34624	2.20740
3012.41768	2.16781
3010.48911	2.12975
3008.56055	2.09283
3006.63198	2.05673
3004.70342	2.02077
3002.77485	1.98488
3000.84629	1.94974
2998.91772	1.91554
2996.98916	1.88229
2995.06060	1.84999
2993.13203	1.81864
2991.20347	1.78811
2989.27490	1.75766
2987.34634	1.72734
2985.41777	1.69810
2983.48921	1.66985
2981.56064	1.64198
2979.63208	1.61462
2977.70352	1.58798
2975.77495	1.56188
2973.84639	1.53630
2971.91782	1.51135
2969.98926	1.48675
2968.06069	1.46225
2966.13213	1.43801
2964.20356	1.41378
2962.27500	1.38951
2960.34644	1.36564
2958.41787	1.34230
2956.48931	1.31915
2954.56074	1.29561
2952.63218	1.27192
2950.70361	1.24929
2948.77505	1.22775
2946.84648	1.20626
2944.91792	1.18484
2942.98936	1.16422
2941.06079	1.14420
2939.13223	1.12434
2937.20366	1.10474
2935.27510	1.08547
2933.34653	1.06624
2931.41797	1.04696
2929.48940	1.02800
2927.56084	1.00948
2925.63228	0.99093
2923.70371	0.97249
2921.77515	0.95515
2919.84658	0.93877
2917.91802	0.92216
2915.98945	0.90523
2914.06089	0.88869
2912.13232	0.87273
2910.20376	0.85734
2908.27520	0.84223
2906.34663	0.82707
2904.41807	0.81245
2902.48950	0.79863
2900.56094	0.78485
2898.63237	0.77137
2896.70381	0.75867
2894.77524	0.74624
2892.84668	0.73385
2890.91812	0.72191
2888.98955	0.71038
2887.06099	0.69897
2885.13242	0.68790
2883.20386	0.67744
2881.27529	0.66735
2879.34673	0.65736
2877.41816	0.64759
2875.48960	0.63788
2873.56104	0.62776
2871.63247	0.61718
2869.70391	0.60642
2867.77534	0.59567
2865.84678	0.58482
2863.91821	0.57383
2861.98965	0.56287
2860.06108	0.55211
2858.13252	0.54192
2856.20396	0.53261
2854.27539	0.52382
2852.34683	0.51518
2850.41826	0.50684
2848.48970	0.49875
2846.56113	0.49056
2844.63257	0.48239
2842.70400	0.47468
2840.77544	0.46760
2838.84687	0.46093
2836.91831	0.45428
2834.98975	0.44765
2833.06118	0.44126
2831.13262	0.43517
2829.20405	0.42924
2827.27549	0.42313
2825.34692	0.41695
2823.41836	0.41106
2821.48979	0.40538
2819.56123	0.39958
2817.63267	0.39368
2815.70410	0.38802
2813.77554	0.38264
2811.84697	0.37727
2809.91841	0.37187
2807.98984	0.36641
2806.06128	0.36091
2804.13271	0.35559
2802.20415	0.35059
2800.27559	0.34580
2798.34702	0.34106
2796.41846	0.33626
2794.48989	0.33143
2792.56133	0.32671
2790.63276	0.32222
2788.70420	0.31795
2786.77563	0.31384
2784.84707	0.30975
2782.91851	0.30566
2780.98994	0.30157
2779.06138	0.29749
2777.13281	0.29355
2775.20425	0.28966
2773.27568	0.28568
2771.34712	0.28178
2769.41855	0.27821
2767.48999	0.27489
2765.56143	0.27150
2763.63286	0.26798
2761.70430	0.26443
2759.77573	0.26096
2757.84717	0.25779
2755.91860	0.25489
2753.99004	0.25190
2752.06147	0.24879
2750.13291	0.24580
2748.20435	0.24303
2746.27578	0.24030
2744.34722	0.23756
2742.41865	0.23497
2740.49009	0.23254
2738.56152	0.23011
2736.63296	0.22760
2734.70439	0.22505
2732.77583	0.22256
2730.84727	0.22017
2728.91870	0.21792
2726.99014	0.21582
2725.06157	0.21385
2723.13301	0.21179
2721.20444	0.20957
2719.27588	0.20741
2717.34731	0.20553
2715.41875	0.20374
2713.49019	0.20178
2711.56162	0.19982
2709.63306	0.19810
2707.70449	0.19653
2705.77593	0.19492
2703.84736	0.19327
2701.91880	0.19176
2699.99023	0.19035
2698.06167	0.18880
2696.13311	0.18733
2694.20454	0.18604
2692.27598	0.18464
2690.34741	0.18311
2688.41885	0.18162
2686.49028	0.18027
2684.56172	0.17904
2682.63315	0.17780
2680.70459	0.17650
2678.77603	0.17523
2676.84746	0.17420
2674.91890	0.17338
2672.99033	0.17245
2671.06177	0.17140
2669.13320	0.17034
2667.20464	0.16928
2665.27607	0.16835
2663.34751	0.16751
2661.41895	0.16658
2659.49038	0.16567
2657.56182	0.16475
2655.63325	0.16373
2653.70469	0.16300
2651.77612	0.16257
2649.84756	0.16200
2647.91899	0.16121
2645.99043	0.16046
2644.06187	0.15991
2642.13330	0.15942
2640.20474	0.15893
2638.27617	0.15849
2636.34761	0.15806
2634.41904	0.15753
2632.49048	0.15693
2630.56191	0.15637
2628.63335	0.15596
2626.70479	0.15569
2624.77622	0.15539
2622.84766	0.15496
2620.91909	0.15456
2618.99053	0.15431
2617.06196	0.15410
2615.13340	0.15390
2613.20483	0.15372
2611.27627	0.15358
2609.34771	0.15346
2607.41914	0.15331
2605.49058	0.15309
2603.56201	0.15292
2601.63345	0.15287
2599.70488	0.15290
2597.77632	0.15300
2595.84775	0.15312
2593.91919	0.15318
2591.99062	0.15321
2590.06206	0.15324
2588.13350	0.15336
2586.20493	0.15358
2584.27637	0.15374
2582.34780	0.15389
2580.41924	0.15410
2578.49067	0.15431
2576.56211	0.15460
2574.63354	0.15503
2572.70498	0.15548
2570.77642	0.15592
2568.84785	0.15636
2566.91929	0.15669
2564.99072	0.15694
2563.06216	0.15735
2561.13359	0.15786
2559.20503	0.15828
2557.27646	0.15865
2555.34790	0.15907
2553.41934	0.15952
2551.49077	0.15993
2549.56221	0.16040
2547.63364	0.16106
2545.70508	0.16170
2543.77651	0.16218
2541.84795	0.16271
2539.91938	0.16337
2537.99082	0.16405
2536.06226	0.16466
2534.13369	0.16519
2532.20513	0.16585
2530.27656	0.16673
2528.34800	0.16757
2526.41943	0.16821
2524.49087	0.16872
2522.56230	0.16920
2520.63374	0.16984
2518.70518	0.17066
2516.77661	0.17149
2514.84805	0.17235
2512.91948	0.17320
2510.99092	0.17398
2509.06235	0.17480
2507.13379	0.17563
2505.20522	0.17635
2503.27666	0.17704
2501.34810	0.17789
2499.41953	0.17881
2497.49097	0.17959
2495.56240	0.18021
2493.63384	0.18086
2491.70527	0.18170
2489.77671	0.18271
2487.84814	0.18370
2485.91958	0.18446
2483.99102	0.18516
2482.06245	0.18606
2480.13389	0.18705
2478.20532	0.18795
2476.27676	0.18872
2474.34819	0.18945
2472.41963	0.19024
2470.49106	0.19107
2468.56250	0.19192
2466.63394	0.19286
2464.70537	0.19382
2462.77681	0.19472
2460.84824	0.19566
2458.91968	0.19674
2456.99111	0.19776
2455.06255	0.19860
2453.13398	0.19946
2451.20542	0.20032
2449.27686	0.20115
2447.34829	0.20212
2445.41973	0.20329
2443.49116	0.20454
2441.56260	0.20567
2439.63403	0.20655
2437.70547	0.20726
2435.77690	0.20804
2433.84834	0.20905
2431.91978	0.21008
2429.99121	0.21103
2428.06265	0.21208
2426.13408	0.21338
2424.20552	0.21481
2422.27695	0.21600
2420.34839	0.21687
2418.41982	0.21774
2416.49126	0.21874
2414.56270	0.21980
2412.63413	0.22093
2410.70557	0.22213
2408.77700	0.22332
2406.84844	0.22445
2404.91987	0.22553
2402.99131	0.22664
2401.06274	0.22783
2399.13418	0.22905
2397.20562	0.23025
2395.27705	0.23145
2393.34849	0.23268
2391.41992	0.23392
2389.49136	0.23512
2387.56279	0.23624
2385.63423	0.23724
2383.70566	0.23828
2381.77710	0.23932
2379.84854	0.24012
2377.91997	0.24067
2375.99141	0.24127
2374.06284	0.24199
2372.13428	0.24284
2370.20571	0.24399
2368.27715	0.24542
2366.34858	0.24656
2364.42002	0.24661
2362.49146	0.24624
2360.56289	0.24735
2358.63433	0.25022
2356.70576	0.25275
2354.77720	0.25442
2352.84863	0.25685
2350.92007	0.25940
2348.99150	0.26077
2347.06294	0.26143
2345.13437	0.26227
2343.20581	0.26306
2341.27725	0.26402
2339.34868	0.26649
2337.42012	0.26923
2335.49155	0.27109
2333.56299	0.27270
2331.63442	0.27429
2329.70586	0.27563
2327.77729	0.27718
2325.84873	0.27918
2323.92017	0.28145
2321.99160	0.28376
2320.06304	0.28577
2318.13447	0.28766
2316.20591	0.28977
2314.27734	0.29193
2312.34878	0.29380
2310.42021	0.29553
2308.49165	0.29738
2306.56309	0.29942
2304.63452	0.30150
2302.70596	0.30344
2300.77739	0.30542
2298.84883	0.30748
2296.92026	0.30948
2294.99170	0.31146
2293.06313	0.31340
2291.13457	0.31531
2289.20601	0.31736
2287.27744	0.31943
2285.34888	0.32138
2283.42031	0.32334
2281.49175	0.32535
2279.56318	0.32738
2277.63462	0.32936
2275.70605	0.33135
2273.77749	0.33345
2271.84893	0.33552
2269.92036	0.33754
2267.99180	0.33964
2266.06323	0.34178
2264.13467	0.34388
2262.20610	0.34599
2260.27754	0.34814
2258.34897	0.35026
2256.42041	0.35233
2254.49185	0.35444
2252.56328	0.35666
2250.63472	0.35881
2248.70615	0.36088
2246.77759	0.36315
2244.84902	0.36556
2242.92046	0.36778
2240.99189	0.36988
2239.06333	0.37209
2237.13477	0.37441
2235.20620	0.37668
2233.27764	0.37889
2231.34907	0.38111
2229.42051	0.38326
2227.49194	0.38541
2225.56338	0.38778
2223.63481	0.39024
2221.70625	0.39245
2219.77769	0.39445
2217.84912	0.39652
2215.92056	0.39877
2213.99199	0.40108
2212.06343	0.40328
2210.13486	0.40530
2208.20630	0.40729
2206.27773	0.40927
2204.34917	0.41123
2202.42061	0.41331
2200.49204	0.41550
2198.56348	0.41759
2196.63491	0.41950
2194.70635	0.42140
2192.77778	0.42334
2190.84922	0.42516
2188.92065	0.42693
2186.99209	0.42887
2185.06353	0.43084
2183.13496	0.43259
2181.20640	0.43410
2179.27783	0.43558
2177.34927	0.43724
2175.42070	0.43900
2173.49214	0.44062
2171.56357	0.44206
2169.63501	0.44335
2167.70645	0.44450
2165.77788	0.44554
2163.84932	0.44659
2161.92075	0.44773
2159.99219	0.44886
2158.06362	0.44989
2156.13506	0.45082
2154.20649	0.45171
2152.27793	0.45261
2150.34937	0.45343
2148.42080	0.45412
2146.49224	0.45457
2144.56367	0.45482
2142.63511	0.45514
2140.70654	0.45557
2138.77798	0.45591
2136.84941	0.45605
2134.92085	0.45612
2132.99229	0.45619
2131.06372	0.45619
2129.13516	0.45602
2127.20659	0.45558
2125.27803	0.45504
2123.34946	0.45466
2121.42090	0.45440
2119.49233	0.45395
2117.56377	0.45318
2115.63521	0.45222
2113.70664	0.45133
2111.77808	0.45044
2109.84951	0.44944
2107.92095	0.44833
2105.99238	0.44710
2104.06382	0.44581
2102.13525	0.44463
2100.20669	0.44348
2098.27812	0.44215
2096.34956	0.44072
2094.42100	0.43922
2092.49243	0.43756
2090.56387	0.43575
2088.63530	0.43389
2086.70674	0.43208
2084.77817	0.43020
2082.84961	0.42820
2080.92104	0.42625
2078.99248	0.42431
2077.06392	0.42223
2075.13535	0.42008
2073.20679	0.41789
2071.27822	0.41566
2069.34966	0.41345
2067.42109	0.41120
2065.49253	0.40891
2063.56396	0.40656
2061.63540	0.40415
2059.70684	0.40158
2057.77827	0.39882
2055.84971	0.39608
2053.92114	0.39358
2051.99258	0.39112
2050.06401	0.38851
2048.13545	0.38591
2046.20688	0.38329
2044.27832	0.38054
2042.34976	0.37776
2040.42119	0.37506
2038.49263	0.37238
2036.56406	0.36962
2034.63550	0.36688
2032.70693	0.36424
2030.77837	0.36159
2028.84980	0.35879
2026.92124	0.35592
2024.99268	0.35313
2023.06411	0.35041
2021.13555	0.34763
2019.20698	0.34484
2017.27842	0.34212
2015.34985	0.33935
2013.42129	0.33654
2011.49272	0.33377
2009.56416	0.33103
2007.63560	0.32829
2005.70703	0.32562
2003.77847	0.32302
2001.84990	0.32042
1999.92134	0.31782
1997.99277	0.31522
1996.06421	0.31265
1994.13564	0.31012
1992.20708	0.30758
1990.27852	0.30508
1988.34995	0.30273
1986.42139	0.30031
1984.49282	0.29780
1982.56426	0.29542
1980.63569	0.29322
1978.70713	0.29109
1976.77856	0.28890
1974.85000	0.28671
1972.92144	0.28449
1970.99287	0.28229
1969.06431	0.28029
1967.13574	0.27843
1965.20718	0.27642
1963.27861	0.27432
1961.35005	0.27238
1959.42148	0.27056
1957.49292	0.26874
1955.56436	0.26695
1953.63579	0.26523
1951.70723	0.26354
1949.77866	0.26187
1947.85010	0.26023
1945.92153	0.25871
1943.99297	0.25727
1942.06440	0.25583
1940.13584	0.25437
1938.20728	0.25294
1936.27871	0.25160
1934.35015	0.25035
1932.42158	0.24913
1930.49302	0.24801
1928.56445	0.24700
1926.63589	0.24594
1924.70732	0.24487
1922.77876	0.24385
1920.85020	0.24283
1918.92163	0.24191
1916.99307	0.24106
1915.06450	0.24018
1913.13594	0.23944
1911.20737	0.23890
1909.27881	0.23828
1907.35024	0.23756
1905.42168	0.23691
1903.49312	0.23635
1901.56455	0.23583
1899.63599	0.23530
1897.70742	0.23480
1895.77886	0.23439
1893.85029	0.23408
1891.92173	0.23376
1889.99316	0.23346
1888.06460	0.23309
1886.13604	0.23283
1884.20747	0.23269
1882.27891	0.23249
1880.35034	0.23230
1878.42178	0.23224
1876.49321	0.23232
1874.56465	0.23240
1872.63608	0.23251
1870.70752	0.23268
1868.77896	0.23313
1866.85039	0.23348
1864.92183	0.23344
1862.99326	0.23340
1861.06470	0.23361
1859.13613	0.23408
1857.20757	0.23458
1855.27900	0.23503
1853.35044	0.23542
1851.42187	0.23591
1849.49331	0.23645
1847.56475	0.23703
1845.63618	0.23781
1843.70762	0.23884
1841.77905	0.23971
1839.85049	0.24022
1837.92192	0.24093
1835.99336	0.24183
1834.06479	0.24278
1832.13623	0.24374
1830.20767	0.24505
1828.27910	0.24652
1826.35054	0.24761
1824.42197	0.24884
1822.49341	0.25018
1820.56484	0.25158
1818.63628	0.25303
1816.70771	0.25465
1814.77915	0.25628
1812.85059	0.25799
1810.92202	0.25993
1808.99346	0.26200
1807.06489	0.26402
1805.13633	0.26588
1803.20776	0.26793
1801.27920	0.27032
1799.35063	0.27314
1797.42207	0.27573
1795.49351	0.27815
1793.56494	0.28092
1791.63638	0.28448
1789.70781	0.28795
1787.77925	0.29060
1785.85068	0.29366
1783.92212	0.29731
1781.99355	0.30128
1780.06499	0.30549
1778.13643	0.30981
1776.20786	0.31381
1774.27930	0.31802
1772.35073	0.32375
1770.42217	0.33008
1768.49360	0.33544
1766.56504	0.34052
1764.63647	0.34572
1762.70791	0.35155
1760.77935	0.35909
1758.85078	0.36616
1756.92222	0.37314
1754.99365	0.38085
1753.06509	0.38788
1751.13652	0.39603
1749.20796	0.40636
1747.27939	0.41683
1745.35083	0.42619
1743.42227	0.43605
1741.49370	0.44671
1739.56514	0.45900
1737.63657	0.47147
1735.70801	0.48261
1733.77944	0.49913
1731.85088	0.51866
1729.92231	0.53403
1727.99375	0.54963
1726.06519	0.56648
1724.13662	0.58482
1722.20806	0.60453
1720.27949	0.62267
1718.35093	0.64389
1716.42236	0.67549
1714.49380	0.70598
1712.56523	0.73085
1710.63667	0.75492
1708.70811	0.78056
1706.77954	0.80934
1704.85098	0.84389
1702.92241	0.87507
1700.99385	0.90588
1699.06528	0.95170
1697.13672	0.99415
1695.20815	1.03803
1693.27959	1.08114
1691.35103	1.11613
1689.42246	1.15634
1687.49390	1.19875
1685.56533	1.23959
1683.63677	1.30207
1681.70820	1.36690
1679.77964	1.40867
1677.85107	1.44850
1675.92251	1.49447
1673.99395	1.55160
1672.06538	1.60270
1670.13682	1.65277
1668.20825	1.71721
1666.27969	1.76969
1664.35112	1.81489
1662.42256	1.87255
1660.49399	1.93792
1658.56543	1.98839
1656.63687	2.02778
1654.70830	2.06124
1652.77974	2.11358
1650.85117	2.16950
1648.92261	2.19085
1646.99404	2.21404
1645.06548	2.24163
1643.13691	2.26091
1641.20835	2.27056
1639.27979	2.27868
1637.35122	2.28289
1635.42266	2.27994
1633.49409	2.27278
1631.56553	2.26080
1629.63696	2.24313
1627.70840	2.21296
1625.77983	2.17841
1623.85127	2.13648
1621.92271	2.08537
1619.99414	2.03948
1618.06558	1.99460
1616.13701	1.93141
1614.20845	1.86781
1612.27988	1.81940
1610.35132	1.76897
1608.42275	1.71459
1606.49419	1.66105
1604.56562	1.61118
1602.63706	1.56242
1600.70850	1.51478
1598.77993	1.47099
1596.85137	1.42999
1594.92280	1.39082
1592.99424	1.35353
1591.06567	1.31932
1589.13711	1.28727
1587.20854	1.25762
1585.27998	1.23052
1583.35142	1.20556
1581.42285	1.18272
1579.49429	1.16306
1577.56572	1.14563
1575.63716	1.12517
1573.70859	1.10768
1571.78003	1.09629
1569.85146	1.08417
1567.92290	1.07098
1565.99434	1.06187
1564.06577	1.05555
1562.13721	1.05073
1560.20864	1.04778
1558.28008	1.04674
1556.35151	1.04715
1554.42295	1.04687
1552.49438	1.04622
1550.56582	1.04434
1548.63726	1.04031
1546.70869	1.03408
1544.78013	1.02494
1542.85156	1.01299
1540.92300	0.99677
1538.99443	0.97158
1537.06587	0.95250
1535.13730	0.93959
1533.20874	0.92255
1531.28018	0.90397
1529.35161	0.89047
1527.42305	0.87793
1525.49448	0.86473
1523.56592	0.85337
1521.63735	0.84268
1519.70879	0.83182
1517.78022	0.82242
1515.85166	0.81179
1513.92310	0.80097
1511.99453	0.79167
1510.06597	0.78305
1508.13740	0.77427
1506.20884	0.76107
1504.28027	0.75028
1502.35171	0.74431
1500.42314	0.73862
1498.49458	0.73214
1496.56602	0.72499
1494.63745	0.71831
1492.70889	0.71290
1490.78032	0.70805
1488.85176	0.70285
1486.92319	0.69806
1484.99463	0.69423
1483.06606	0.69115
1481.13750	0.68854
1479.20894	0.68644
1477.28037	0.68508
1475.35181	0.68439
1473.42324	0.68422
1471.49468	0.68363
1469.56611	0.68206
1467.63755	0.68023
1465.70898	0.67868
1463.78042	0.67753
1461.85186	0.67682
1459.92329	0.67646
1457.99473	0.67626
1456.06616	0.67569
1454.13760	0.67409
1452.20903	0.67188
1450.28047	0.66948
1448.35190	0.66725
1446.42334	0.66492
1444.49478	0.66248
1442.56621	0.66015
1440.63765	0.65778
1438.70908	0.65534
1436.78052	0.65226
1434.85195	0.64868
1432.92339	0.64590
1430.99482	0.64406
1429.06626	0.64297
1427.13770	0.64252
1425.20913	0.64260
1423.28057	0.64305
1421.35200	0.64329
1419.42344	0.64317
1417.49487	0.64273
1415.56631	0.64175
1413.63774	0.64077
1411.70918	0.64029
1409.78062	0.64051
1407.85205	0.64121
1405.92349	0.64210
1403.99492	0.64282
1402.06636	0.64279
1400.13779	0.64205
1398.20923	0.64065
1396.28066	0.63854
1394.35210	0.63557
1392.42354	0.63203
1390.49497	0.62855
1388.56641	0.62504
1386.63784	0.62103
1384.70928	0.61676
1382.78071	0.61270
1380.85215	0.60892
1378.92358	0.60573
1376.99502	0.60340
1375.06646	0.60181
1373.13789	0.60069
1371.20933	0.59999
1369.28076	0.59947
1367.35220	0.59867
1365.42363	0.59746
1363.49507	0.59602
1361.56650	0.59434
1359.63794	0.59259
1357.70937	0.59112
1355.78081	0.58990
1353.85225	0.58890
1351.92368	0.58816
1349.99512	0.58741
1348.06655	0.58646
1346.13799	0.58534
1344.20942	0.58411
1342.28086	0.58295
1340.35229	0.58210
1338.42373	0.58137
1336.49517	0.58071
1334.56660	0.58035
1332.63804	0.58018
1330.70947	0.58001
1328.78091	0.57999
1326.85234	0.58026
1324.92378	0.58067
1322.99521	0.58112
1321.06665	0.58152
1319.13809	0.58177
1317.20952	0.58186
1315.28096	0.58177
1313.35239	0.58138
1311.42383	0.58071
1309.49526	0.57992
1307.56670	0.57922
1305.63813	0.57868
1303.70957	0.57816
1301.78101	0.57736
1299.85244	0.57621
1297.92388	0.57500
1295.99531	0.57396
1294.06675	0.57313
1292.13818	0.57227
1290.20962	0.57121
1288.28105	0.57008
1286.35249	0.56896
1284.42393	0.56783
1282.49536	0.56658
1280.56680	0.56523
1278.63823	0.56395
1276.70967	0.56287
1274.78110	0.56204
1272.85254	0.56137
1270.92397	0.56070
1268.99541	0.55998
1267.06685	0.55930
1265.13828	0.55859
1263.20972	0.55777
1261.28115	0.55689
1259.35259	0.55613
1257.42402	0.55553
1255.49546	0.55505
1253.56689	0.55480
1251.63833	0.55484
1249.70977	0.55489
1247.78120	0.55461
1245.85264	0.55411
1243.92407	0.55351
1241.99551	0.55276
1240.06694	0.55164
1238.13838	0.55003
1236.20981	0.54812
1234.28125	0.54614
1232.35269	0.54421
1230.42412	0.54239
1228.49556	0.54059
1226.56699	0.53875
1224.63843	0.53692
1222.70986	0.53514
1220.78130	0.53355
1218.85273	0.53235
1216.92417	0.53131
1214.99561	0.53021
1213.06704	0.52919
1211.13848	0.52848
1209.20991	0.52801
1207.28135	0.52751
1205.35278	0.52673
1203.42422	0.52578
1201.49565	0.52485
1199.56709	0.52399
1197.63853	0.52320
1195.70996	0.52241
1193.78140	0.52163
1191.85283	0.52095
1189.92427	0.52047
1187.99570	0.52009
1186.06714	0.51973
1184.13857	0.51959
1182.21001	0.51984
1180.28145	0.52055
1178.35288	0.52173
1176.42432	0.52310
1174.49575	0.52422
1172.56719	0.52499
1170.63862	0.52555
1168.71006	0.52592
1166.78149	0.52634
1164.85293	0.52699
1162.92437	0.52761
1160.99580	0.52798
1159.06724	0.52805
1157.13867	0.52780
1155.21011	0.52716
1153.28154	0.52603
1151.35298	0.52456
1149.42441	0.52268
1147.49585	0.52016
1145.56729	0.51726
1143.63872	0.51451
1141.71016	0.51226
1139.78159	0.51055
1137.85303	0.50918
1135.92446	0.50801
1133.99590	0.50713
1132.06733	0.50673
1130.13877	0.50678
1128.21021	0.50687
1126.28164	0.50662
1124.35308	0.50621
1122.42451	0.50609
1120.49595	0.50650
1118.56738	0.50714
1116.63882	0.50770
1114.71025	0.50819
1112.78169	0.50880
1110.85312	0.50961
1108.92456	0.51052
1106.99600	0.51141
1105.06743	0.51215
1103.13887	0.51283
1101.21030	0.51371
1099.28174	0.51492
1097.35317	0.51650
1095.42461	0.51895
1093.49604	0.52278
1091.56748	0.52787
1089.63892	0.53418
1087.71035	0.54192
1085.78179	0.55074
1083.85322	0.55960
1081.92466	0.56753
1079.99609	0.57341
1078.06753	0.57603
1076.13896	0.57533
1074.21040	0.57196
1072.28184	0.56649
1070.35327	0.55983
1068.42471	0.55269
1066.49614	0.54567
1064.56758	0.53943
1062.63901	0.53409
1060.71045	0.52930
1058.78188	0.52495
1056.85332	0.52107
1054.92476	0.51757
1052.99619	0.51456
1051.06763	0.51225
1049.13906	0.51063
1047.21050	0.50971
1045.28193	0.50955
1043.35337	0.50994
1041.42480	0.51046
1039.49624	0.51088
1037.56768	0.51118
1035.63911	0.51138
1033.71055	0.51106
1031.78198	0.51002
1029.85342	0.50835
1027.92485	0.50621
1025.99629	0.50409
1024.06772	0.50252
1022.13916	0.50157
1020.21060	0.50099
1018.28203	0.50056
1016.35347	0.50020
1014.42490	0.49975
1012.49634	0.49920
1010.56777	0.49872
1008.63921	0.49847
1006.71064	0.49863
1004.78208	0.49937
1002.85352	0.50086
1000.92495	0.50315
998.99639	0.50633
997.06782	0.51053
995.13926	0.51512
993.21069	0.51916
991.28213	0.52237
989.35356	0.52453
987.42500	0.52537
985.49644	0.52520
983.56787	0.52474
981.63931	0.52462
979.71074	0.52526
977.78218	0.52664
975.85361	0.52835
973.92505	0.53025
971.99648	0.53279
970.06792	0.53621
968.13936	0.54012
966.21079	0.54412
964.28223	0.54835
962.35366	0.55302
960.42510	0.55816
958.49653	0.56374
956.56797	0.56951
954.63940	0.57519
952.71084	0.58072
950.78228	0.58648
948.85371	0.59290
946.92515	0.59980
944.99658	0.60668
943.06802	0.61304
941.13945	0.61891
939.21089	0.62496
937.28232	0.63135
935.35376	0.63731
933.42520	0.64232
931.49663	0.64700
929.56807	0.65232
927.63950	0.65818
925.71094	0.66417
923.78237	0.67046
921.85381	0.67667
919.92524	0.68266
917.99668	0.68933
916.06812	0.69719
914.13955	0.70630
912.21099	0.71582
910.28242	0.72424
908.35386	0.73200
906.42529	0.74107
904.49673	0.75137
902.56816	0.76109
900.63960	0.76985
898.71104	0.77854
896.78247	0.78741
894.85391	0.79657
892.92534	0.80618
890.99678	0.81571
889.06821	0.82563
887.13965	0.83713
885.21108	0.84912
883.28252	0.86027
881.35396	0.87136
879.42539	0.88290
877.49683	0.89472
875.56826	0.90717
873.63970	0.91937
871.71113	0.92956
869.78257	0.93885
867.85400	0.95011
865.92544	0.96307
863.99687	0.97534
862.06831	0.98660
860.13975	0.99801
858.21118	1.00994
856.28262	1.02226
854.35405	1.03357
852.42549	1.04259
850.49692	1.05196
848.56836	1.06445
846.63979	1.07846
844.71123	1.09106
842.78267	1.10142
840.85410	1.11059
838.92554	1.12092
836.99697	1.13430
835.06841	1.14942
833.13984	1.16410
831.21128	1.17489
829.28271	1.17941
827.35415	1.18399
825.42559	1.19328
823.49702	1.20352
821.56846	1.21287
819.63989	1.22439
817.71133	1.23853
815.78276	1.24842
813.85420	1.25253
811.92563	1.26390
809.99707	1.27838
808.06851	1.27765
806.13994	1.28180
804.21138	1.31460
802.28281	1.34145
800.35425	1.32730
798.42568	1.30866
796.49712	1.30209
794.56855	1.30048
792.63999	1.31187
790.71143	1.32781
788.78286	1.33050
786.85430	1.33056
784.92573	1.34700
782.99717	1.34396
781.06860	1.32837
779.14004	1.32691
777.21147	1.31548
775.28291	1.31467
773.35435	1.31740
771.42578	1.28419
769.49722	1.25120
767.56865	1.24469
765.64009	1.22399
763.71152	1.19102
761.78296	1.18835
759.85439	1.21494
757.92583	1.19750
755.99727	1.10691
754.06870	1.04584
752.14014	1.05986
750.21157	1.12340
748.28301	1.14314
746.35444	1.10276
744.42588	1.06702
742.49731	1.02309
740.56875	0.98219
738.64019	0.90714
736.71162	0.80518
734.78306	0.72902
732.85449	0.66156
730.92593	0.64857
728.99736	0.74691
727.06880	0.78688
725.14023	0.59149
723.21167	0.43786
721.28311	0.39150
719.35454	0.46035
717.42598	0.60421
715.49741	0.59686
713.56885	0.44685
711.64028	0.37381
709.71172	0.41076
707.78315	0.54603
705.85459	0.62900
703.92603	0.43457
701.99746	0.27111
700.06890	0.17354
698.14033	0.06303
696.21177	0.00265
694.28320	-0.00801
692.35464	-0.02486
690.42607	-0.02870
688.49751	0.02302
686.56895	0.15648
684.64038	0.24567
682.71182	0.21530
680.78325	0.17319
678.85469	0.17430
676.92612	0.18899
674.99756	0.19151
673.06899	0.14814
671.14043	0.06125
669.21187	-0.04112
667.28330	-0.23619
665.35474	-0.47572
663.42617	-0.05432
661.49761	0.17047
659.56904	0.19358
657.64048	0.19049
655.71191	0.24124
653.78335	0.29271
651.85479	0.24048
649.92622	0.17745
647.99766	0.21462
646.06909	0.24966
644.14053	0.14830
642.21196	0.07001
640.28340	0.06454
638.35483	0.05847
636.42627	0.05581
634.49771	0.13586
632.56914	0.27151
630.64058	0.33356
628.71201	0.29148
626.78345	0.25117
624.85488	0.17415
622.92632	0.07290
620.99775	0.01322
619.06919	0.02295
617.14062	0.04791
615.21206	0.05416
613.28350	0.09003
611.35493	0.13804
609.42637	0.17101
607.49780	0.20034
605.56924	0.23295
603.64067	0.24886
601.71211	0.23530
599.78354	0.20471
597.85498	0.13979
595.92642	0.10453
593.99785	0.14222
592.06929	0.10154
590.14072	0.00982
588.21216	-0.00648
586.28359	0.01575
584.35503	0.04038
582.42646	0.11022
580.49790	0.21371
578.56934	0.27138
576.64077	0.26258
574.71221	0.23033
572.78364	0.16759
570.85508	0.07969
568.92651	0.06719
566.99795	0.12215
565.06938	0.16760
563.14082	0.12306
561.21226	0.08742
559.28369	0.13568
557.35513	0.18644
555.42656	0.16545
553.49800	0.14795
551.56943	0.17886
549.64087	0.24007
547.71230	0.29773
545.78374	0.28960
543.85518	0.18568
541.92661	0.09109
539.99805	0.07367
538.06948	0.11779
536.14092	0.10182
534.21235	0.07854
532.28379	0.11732
530.35522	0.19414
528.42666	0.23434
526.49810	0.22594
524.56953	0.21590
522.64097	0.20188
520.71240	0.16394
518.78384	0.12755
516.85527	0.10973
514.92671	0.09470
512.99814	0.08920
511.06958	0.07580
509.14102	0.01230
507.21245	0.00272
505.28389	0.14977
503.35532	0.28345
501.42676	0.26466
499.49819	0.19806
