3997.91411	0.06940
3995.98555	0.07010
3994.05698	0.07104
3992.12842	0.07176
3990.19985	0.07214
3988.27129	0.07216
3986.34272	0.07196
3984.41416	0.07191
3982.48560	0.07204
3980.55703	0.07240
3978.62847	0.07276
3976.69990	0.07288
3974.77134	0.07306
3972.84277	0.07324
3970.91421	0.07335
3968.98564	0.07358
3967.05708	0.07355
3965.12852	0.07324
3963.19995	0.07333
3961.27139	0.07385
3959.34282	0.07425
3957.41426	0.07413
3955.48569	0.07369
3953.55713	0.07350
3951.62856	0.07394
3949.70000	0.07490
3947.77144	0.07567
3945.84287	0.07588
3943.91431	0.07593
3941.98574	0.07555
3940.05718	0.07446
3938.12861	0.07369
3936.20005	0.07371
3934.27148	0.07436
3932.34292	0.07566
3930.41436	0.07679
3928.48579	0.07658
3926.55723	0.07575
3924.62866	0.07556
3922.70010	0.07535
3920.77153	0.07454
3918.84297	0.07414
3916.91440	0.07432
3914.98584	0.07423
3913.05728	0.07376
3911.12871	0.07348
3909.20015	0.07356
3907.27158	0.07417
3905.34302	0.07554
3903.41445	0.07709
3901.48589	0.07778
3899.55732	0.07755
3897.62876	0.07622
3895.70020	0.07454
3893.77163	0.07404
3891.84307	0.07461
3889.91450	0.07459
3887.98594	0.07375
3886.05737	0.07389
3884.12881	0.07523
3882.20024	0.07630
3880.27168	0.07659
3878.34312	0.07588
3876.41455	0.07524
3874.48599	0.07612
3872.55742	0.07779
3870.62886	0.07898
3868.70029	0.07942
3866.77173	0.07892
3864.84316	0.07877
3862.91460	0.07924
3860.98604	0.07878
3859.05747	0.07802
3857.12891	0.07863
3855.20034	0.08093
3853.27178	0.08408
3851.34321	0.08457
3849.41465	0.08207
3847.48608	0.08027
3845.55752	0.08001
3843.62896	0.08101
3841.70039	0.08270
3839.77183	0.08484
3837.84326	0.08698
3835.91470	0.08742
3833.98613	0.08670
3832.05757	0.08628
3830.12900	0.08620
3828.20044	0.08670
3826.27187	0.08774
3824.34331	0.08870
3822.41475	0.09040
3820.48618	0.09314
3818.55762	0.09399
3816.62905	0.09377
3814.70049	0.09373
3812.77192	0.09267
3810.84336	0.09226
3808.91479	0.09367
3806.98623	0.09605
3805.05767	0.09759
3803.12910	0.09878
3801.20054	0.10112
3799.27197	0.10255
3797.34341	0.10238
3795.41484	0.10242
3793.48628	0.10251
3791.55771	0.10264
3789.62915	0.10340
3787.70059	0.10507
3785.77202	0.10743
3783.84346	0.10956
3781.91489	0.11095
3779.98633	0.11237
3778.05776	0.11382
3776.12920	0.11484
3774.20063	0.11624
3772.27207	0.11845
3770.34351	0.12135
3768.41494	0.12397
3766.48638	0.12546
3764.55781	0.12671
3762.62925	0.12815
3760.70068	0.13028
3758.77212	0.13322
3756.84355	0.13554
3754.91499	0.13758
3752.98643	0.14106
3751.05786	0.14601
3749.12930	0.15022
3747.20073	0.15218
3745.27217	0.15431
3743.34360	0.15735
3741.41504	0.15911
3739.48647	0.16076
3737.55791	0.16459
3735.62935	0.17053
3733.70078	0.17559
3731.77222	0.17778
3729.84365	0.17898
3727.91509	0.18109
3725.98652	0.18589
3724.05796	0.19325
3722.12939	0.20086
3720.20083	0.20785
3718.27227	0.21508
3716.34370	0.22334
3714.41514	0.23209
3712.48657	0.24172
3710.55801	0.25375
3708.62944	0.26607
3706.70088	0.27607
3704.77231	0.28599
3702.84375	0.29865
3700.91519	0.31527
3698.98662	0.33297
3697.05806	0.34987
3695.12949	0.36821
3693.20093	0.38819
3691.27236	0.41069
3689.34380	0.43957
3687.41523	0.47306
3685.48667	0.50147
3683.55811	0.52673
3681.62954	0.55474
3679.70098	0.58657
3677.77241	0.62028
3675.84385	0.65961
3673.91528	0.71086
3671.98672	0.75321
3670.05815	0.79162
3668.12959	0.84250
3666.20103	0.88826
3664.27246	0.92745
3662.34390	0.97016
3660.41533	1.01654
3658.48677	1.06241
3656.55820	1.11091
3654.62964	1.16452
3652.70107	1.20954
3650.77251	1.24904
3648.84395	1.30412
3646.91538	1.37227
3644.98682	1.42195
3643.05825	1.45955
3641.12969	1.49816
3639.20112	1.54059
3637.27256	1.58356
3635.34399	1.62635
3633.41543	1.66923
3631.48687	1.70870
3629.55830	1.74928
3627.62974	1.80323
3625.70117	1.85299
3623.77261	1.88632
3621.84404	1.91871
3619.91548	1.95684
3617.98691	2.00217
3616.05835	2.04457
3614.12979	2.08127
3612.20122	2.12144
3610.27266	2.16182
3608.34409	2.20109
3606.41553	2.24151
3604.48696	2.27961
3602.55840	2.31542
3600.62983	2.35460
3598.70127	2.39573
3596.77271	2.43406
3594.84414	2.47341
3592.91558	2.51697
3590.98701	2.55957
3589.05845	2.59860
3587.12988	2.64255
3585.20132	2.68886
3583.27275	2.72769
3581.34419	2.76457
3579.41562	2.80527
3577.48706	2.84818
3575.55850	2.89042
3573.62993	2.93335
3571.70137	2.97643
3569.77280	3.01826
3567.84424	3.06173
3565.91567	3.11356
3563.98711	3.16448
3562.05854	3.20778
3560.12998	3.25129
3558.20142	3.29578
3556.27285	3.33963
3554.34429	3.38328
3552.41572	3.42940
3550.48716	3.47763
3548.55859	3.52444
3546.63003	3.57013
3544.70146	3.61830
3542.77290	3.66549
3540.84434	3.70885
3538.91577	3.75332
3536.98721	3.80124
3535.05864	3.85253
3533.13008	3.90348
3531.20151	3.95213
3529.27295	3.99948
3527.34438	4.04670
3525.41582	4.09290
3523.48726	4.13883
3521.55869	4.18736
3519.63013	4.23684
3517.70156	4.28533
3515.77300	4.33172
3513.84443	4.37892
3511.91587	4.42873
3509.98730	4.47953
3508.05874	4.53178
3506.13018	4.58192
3504.20161	4.62624
3502.27305	4.67065
3500.34448	4.71709
3498.41592	4.75956
3496.48735	4.80317
3494.55879	4.85407
3492.63022	4.90847
3490.70166	4.96371
3488.77310	5.02013
3486.84453	5.07381
3484.91597	5.11941
3482.98740	5.15974
3481.05884	5.20367
3479.13027	5.25059
3477.20171	5.29735
3475.27314	5.34710
3473.34458	5.39710
3471.41602	5.44260
3469.48745	5.48193
3467.55889	5.52012
3465.63032	5.57079
3463.70176	5.63747
3461.77319	5.70601
3459.84463	5.76675
3457.91606	5.82100
3455.98750	5.87010
3454.05894	5.90794
3452.13037	5.93870
3450.20181	5.98188
3448.27324	6.03453
3446.34468	6.08853
3444.41611	6.14643
3442.48755	6.19248
3440.55898	6.22391
3438.63042	6.26701
3436.70186	6.32165
3434.77329	6.38198
3432.84473	6.44935
3430.91616	6.50379
3428.98760	6.54599
3427.05903	6.58885
3425.13047	6.63637
3423.20190	6.69151
3421.27334	6.75696
3419.34478	6.81714
3417.41621	6.85191
3415.48765	6.86308
3413.55908	6.87171
3411.63052	6.92576
3409.70195	7.01501
3407.77339	7.05943
3405.84482	7.06164
3403.91626	7.10465
3401.98770	7.16942
3400.05913	7.19606
3398.13057	7.22644
3396.20200	7.29862
3394.27344	7.36912
3392.34487	7.39990
3390.41631	7.42928
3388.48774	7.45108
3386.55918	7.45735
3384.63062	7.50135
3382.70205	7.56716
3380.77349	7.60859
3378.84492	7.65128
3376.91636	7.68079
3374.98779	7.67954
3373.05923	7.73750
3371.13066	7.84882
3369.20210	7.90395
3367.27354	7.89964
3365.34497	7.93290
3363.41641	7.98526
3361.48784	7.96557
3359.55928	7.92564
3357.63071	7.93319
3355.70215	7.97906
3353.77358	8.02422
3351.84502	8.03735
3349.91646	7.98883
3347.98789	7.91831
3346.05933	7.87623
3344.13076	7.87801
3342.20220	7.96440
3340.27363	8.07824
3338.34507	8.09298
3336.41650	8.05199
3334.48794	8.04946
3332.55937	8.04997
3330.63081	8.07262
3328.70225	8.14753
3326.77368	8.18866
3324.84512	8.15946
3322.91655	8.14065
3320.98799	8.18264
3319.05942	8.24392
3317.13086	8.29693
3315.20229	8.32209
3313.27373	8.28641
3311.34517	8.18401
3309.41660	8.12614
3307.48804	8.18063
3305.55947	8.22657
3303.63091	8.20713
3301.70234	8.21060
3299.77378	8.24277
3297.84521	8.25984
3295.91665	8.31985
3293.98809	8.36335
3292.05952	8.34151
3290.13096	8.32435
3288.20239	8.24473
3286.27383	8.16638
3284.34526	8.22214
3282.41670	8.36079
3280.48813	8.43809
3278.55957	8.39598
3276.63101	8.31336
3274.70244	8.29420
3272.77388	8.29918
3270.84531	8.23484
3268.91675	8.17069
3266.98818	8.17537
3265.05962	8.21431
3263.13105	8.25065
3261.20249	8.30728
3259.27393	8.33972
3257.34536	8.27223
3255.41680	8.17342
3253.48823	8.11212
3251.55967	8.11401
3249.63110	8.22003
3247.70254	8.37255
3245.77397	8.41978
3243.84541	8.37765
3241.91685	8.36238
3239.98828	8.33758
3238.05972	8.23201
3236.13115	8.13152
3234.20259	8.10786
3232.27402	8.15196
3230.34546	8.19985
3228.41689	8.13813
3226.48833	8.02410
3224.55977	7.97399
3222.63120	8.00470
3220.70264	8.06165
3218.77407	8.07522
3216.84551	8.08209
3214.91694	8.10013
3212.98838	8.07518
3211.05981	7.99892
3209.13125	7.91264
3207.20269	7.89361
3205.27412	7.95569
3203.34556	7.99042
3201.41699	7.89428
3199.48843	7.72712
3197.55986	7.62587
3195.63130	7.60005
3193.70273	7.59747
3191.77417	7.63356
3189.84561	7.67012
3187.91704	7.63440
3185.98848	7.57153
3184.05991	7.53314
3182.13135	7.49958
3180.20278	7.43218
3178.27422	7.33310
3176.34565	7.26216
3174.41709	7.24063
3172.48853	7.21396
3170.55996	7.14407
3168.63140	7.04995
3166.70283	6.94831
3164.77427	6.86525
3162.84570	6.82058
3160.91714	6.77570
3158.98857	6.71498
3157.06001	6.66337
3155.13145	6.60452
3153.20288	6.51522
3151.27432	6.42137
3149.34575	6.34902
3147.41719	6.29535
3145.48862	6.25191
3143.56006	6.19649
3141.63149	6.11751
3139.70293	6.04207
3137.77437	5.97836
3135.84580	5.90721
3133.91724	5.82986
3131.98867	5.75079
3130.06011	5.66863
3128.13154	5.59068
3126.20298	5.52439
3124.27441	5.46690
3122.34585	5.40043
3120.41729	5.31717
3118.48872	5.23555
3116.56016	5.17057
3114.63159	5.11068
3112.70303	5.04445
3110.77446	4.97755
3108.84590	4.91247
3106.91733	4.84434
3104.98877	4.76897
3103.06021	4.69157
3101.13164	4.62239
3099.20308	4.56061
3097.27451	4.49699
3095.34595	4.42996
3093.41738	4.36368
3091.48882	4.29850
3089.56025	4.23546
3087.63169	4.17774
3085.70312	4.12009
3083.77456	4.05382
3081.84600	3.98616
3079.91743	3.92641
3077.98887	3.86779
3076.06030	3.80582
3074.13174	3.74644
3072.20317	3.69065
3070.27461	3.63399
3068.34604	3.57558
3066.41748	3.51709
3064.48892	3.45861
3062.56035	3.40022
3060.63179	3.34479
3058.70322	3.29318
3056.77466	3.24289
3054.84609	3.19255
3052.91753	3.14210
3050.98896	3.09139
3049.06040	3.03868
3047.13184	2.98464
3045.20327	2.93394
3043.27471	2.88653
3041.34614	2.83887
3039.41758	2.79133
3037.48901	2.74413
3035.56045	2.69646
3033.63188	2.64963
3031.70332	2.60415
3029.77476	2.55917
3027.84619	2.51536
3025.91763	2.47322
3023.98906	2.43123
3022.06050	2.38850
3020.13193	2.34577
3018.20337	2.30443
3016.27480	2.26425
3014.34624	2.22402
3012.41768	2.18431
3010.48911	2.14544
3008.56055	2.10769
3006.63198	2.07146
3004.70342	2.03611
3002.77485	2.00102
3000.84629	1.96599
2998.91772	1.93186
2996.98916	1.89957
2995.06060	1.86848
2993.13203	1.83721
2991.20347	1.80578
2989.27490	1.77536
2987.34634	1.74625
2985.41777	1.71784
2983.48921	1.68993
2981.56064	1.66285
2979.63208	1.63617
2977.70352	1.60921
2975.77495	1.58249
2973.84639	1.55687
2971.91782	1.53236
2969.98926	1.50824
2968.06069	1.48390
2966.13213	1.45950
2964.20356	1.43532
2962.27500	1.41119
2960.34644	1.38707
2958.41787	1.36308
2956.48931	1.33898
2954.56074	1.31477
2952.63218	1.29097
2950.70361	1.26799
2948.77505	1.24542
2946.84648	1.22267
2944.91792	1.20022
2942.98936	1.17888
2941.06079	1.15848
2939.13223	1.13795
2937.20366	1.11673
2935.27510	1.09512
2933.34653	1.07349
2931.41797	1.05180
2929.48940	1.03038
2927.56084	1.00970
2925.63228	0.98962
2923.70371	0.97040
2921.77515	0.95249
2919.84658	0.93567
2917.91802	0.91957
2915.98945	0.90383
2914.06089	0.88859
2912.13232	0.87403
2910.20376	0.85980
2908.27520	0.84562
2906.34663	0.83119
2904.41807	0.81664
2902.48950	0.80273
2900.56094	0.78961
2898.63237	0.77670
2896.70381	0.76401
2894.77524	0.75173
2892.84668	0.73953
2890.91812	0.72759
2888.98955	0.71645
2887.06099	0.70594
2885.13242	0.69574
2883.20386	0.68605
2881.27529	0.67684
2879.34673	0.66739
2877.41816	0.65747
2875.48960	0.64760
2873.56104	0.63750
2871.63247	0.62654
2869.70391	0.61491
2867.77534	0.60314
2865.84678	0.59131
2863.91821	0.57914
2861.98965	0.56647
2860.06108	0.55382
2858.13252	0.54177
2856.20396	0.53044
2854.27539	0.51969
2852.34683	0.50986
2850.41826	0.50163
2848.48970	0.49492
2846.56113	0.48902
2844.63257	0.48328
2842.70400	0.47742
2840.77544	0.47157
2838.84687	0.46603
2836.91831	0.46058
2834.98975	0.45484
2833.06118	0.44883
2831.13262	0.44294
2829.20405	0.43735
2827.27549	0.43176
2825.34692	0.42602
2823.41836	0.42017
2821.48979	0.41415
2819.56123	0.40816
2817.63267	0.40241
2815.70410	0.39686
2813.77554	0.39141
2811.84697	0.38587
2809.91841	0.38023
2807.98984	0.37485
2806.06128	0.36983
2804.13271	0.36473
2802.20415	0.35938
2800.27559	0.35415
2798.34702	0.34918
2796.41846	0.34436
2794.48989	0.33975
2792.56133	0.33531
2790.63276	0.33082
2788.70420	0.32629
2786.77563	0.32178
2784.84707	0.31729
2782.91851	0.31303
2780.98994	0.30894
2779.06138	0.30470
2777.13281	0.30054
2775.20425	0.29668
2773.27568	0.29283
2771.34712	0.28892
2769.41855	0.28513
2767.48999	0.28155
2765.56143	0.27819
2763.63286	0.27492
2761.70430	0.27157
2759.77573	0.26813
2757.84717	0.26472
2755.91860	0.26137
2753.99004	0.25815
2752.06147	0.25510
2750.13291	0.25225
2748.20435	0.24955
2746.27578	0.24672
2744.34722	0.24372
2742.41865	0.24075
2740.49009	0.23793
2738.56152	0.23529
2736.63296	0.23280
2734.70439	0.23033
2732.77583	0.22773
2730.84727	0.22511
2728.91870	0.22278
2726.99014	0.22067
2725.06157	0.21855
2723.13301	0.21637
2721.20444	0.21417
2719.27588	0.21211
2717.34731	0.21019
2715.41875	0.20834
2713.49019	0.20648
2711.56162	0.20458
2709.63306	0.20280
2707.70449	0.20116
2705.77593	0.19947
2703.84736	0.19769
2701.91880	0.19598
2699.99023	0.19443
2698.06167	0.19289
2696.13311	0.19131
2694.20454	0.18985
2692.27598	0.18863
2690.34741	0.18764
2688.41885	0.18654
2686.49028	0.18512
2684.56172	0.18365
2682.63315	0.18238
2680.70459	0.18123
2678.77603	0.18005
2676.84746	0.17884
2674.91890	0.17760
2672.99033	0.17643
2671.06177	0.17543
2669.13320	0.17445
2667.20464	0.17341
2665.27607	0.17242
2663.34751	0.17156
2661.41895	0.17071
2659.49038	0.16977
2657.56182	0.16881
2655.63325	0.16793
2653.70469	0.16723
2651.77612	0.16664
2649.84756	0.16601
2647.91899	0.16544
2645.99043	0.16498
2644.06187	0.16441
2642.13330	0.16366
2640.20474	0.16287
2638.27617	0.16210
2636.34761	0.16156
2634.41904	0.16138
2632.49048	0.16120
2630.56191	0.16081
2628.63335	0.16037
2626.70479	0.15994
2624.77622	0.15957
2622.84766	0.15931
2620.91909	0.15901
2618.99053	0.15853
2617.06196	0.15802
2615.13340	0.15775
2613.20483	0.15773
2611.27627	0.15775
2609.34771	0.15768
2607.41914	0.15750
2605.49058	0.15723
2603.56201	0.15690
2601.63345	0.15662
2599.70488	0.15655
2597.77632	0.15664
2595.84775	0.15681
2593.91919	0.15688
2591.99062	0.15676
2590.06206	0.15666
2588.13350	0.15684
2586.20493	0.15721
2584.27637	0.15748
2582.34780	0.15759
2580.41924	0.15776
2578.49067	0.15799
2576.56211	0.15817
2574.63354	0.15838
2572.70498	0.15877
2570.77642	0.15911
2568.84785	0.15921
2566.91929	0.15937
2564.99072	0.15982
2563.06216	0.16040
2561.13359	0.16084
2559.20503	0.16113
2557.27646	0.16141
2555.34790	0.16183
2553.41934	0.16244
2551.49077	0.16303
2549.56221	0.16354
2547.63364	0.16405
2545.70508	0.16454
2543.77651	0.16509
2541.84795	0.16575
2539.91938	0.16637
2537.99082	0.16694
2536.06226	0.16745
2534.13369	0.16797
2532.20513	0.16863
2530.27656	0.16938
2528.34800	0.17002
2526.41943	0.17060
2524.49087	0.17121
2522.56230	0.17181
2520.63374	0.17244
2518.70518	0.17327
2516.77661	0.17412
2514.84805	0.17478
2512.91948	0.17537
2510.99092	0.17600
2509.06235	0.17673
2507.13379	0.17761
2505.20522	0.17860
2503.27666	0.17957
2501.34810	0.18037
2499.41953	0.18104
2497.49097	0.18172
2495.56240	0.18245
2493.63384	0.18319
2491.70527	0.18398
2489.77671	0.18486
2487.84814	0.18570
2485.91958	0.18653
2483.99102	0.18740
2482.06245	0.18825
2480.13389	0.18912
2478.20532	0.19005
2476.27676	0.19093
2474.34819	0.19171
2472.41963	0.19244
2470.49106	0.19320
2468.56250	0.19414
2466.63394	0.19519
2464.70537	0.19622
2462.77681	0.19712
2460.84824	0.19794
2458.91968	0.19885
2456.99111	0.19979
2455.06255	0.20055
2453.13398	0.20129
2451.20542	0.20220
2449.27686	0.20330
2447.34829	0.20445
2445.41973	0.20549
2443.49116	0.20633
2441.56260	0.20704
2439.63403	0.20798
2437.70547	0.20924
2435.77690	0.21039
2433.84834	0.21126
2431.91978	0.21211
2429.99121	0.21308
2428.06265	0.21409
2426.13408	0.21511
2424.20552	0.21609
2422.27695	0.21705
2420.34839	0.21817
2418.41982	0.21954
2416.49126	0.22094
2414.56270	0.22209
2412.63413	0.22300
2410.70557	0.22401
2408.77700	0.22518
2406.84844	0.22626
2404.91987	0.22734
2402.99131	0.22863
2401.06274	0.22993
2399.13418	0.23112
2397.20562	0.23230
2395.27705	0.23342
2393.34849	0.23447
2391.41992	0.23560
2389.49136	0.23680
2387.56279	0.23780
2385.63423	0.23821
2383.70566	0.23792
2381.77710	0.23717
2379.84854	0.23598
2377.91997	0.23419
2375.99141	0.23186
2374.06284	0.22897
2372.13428	0.22504
2370.20571	0.22044
2368.27715	0.21635
2366.34858	0.21264
2364.42002	0.20869
2362.49146	0.20619
2360.56289	0.20626
2358.63433	0.20737
2356.70576	0.21023
2354.77720	0.21728
2352.84863	0.22723
2350.92007	0.23626
2348.99150	0.24172
2347.06294	0.24300
2345.13437	0.24047
2343.20581	0.23689
2341.27725	0.23627
2339.34868	0.23804
2337.42012	0.24010
2335.49155	0.24220
2333.56299	0.24466
2331.63442	0.24740
2329.70586	0.25033
2327.77729	0.25337
2325.84873	0.25669
2323.92017	0.26046
2321.99160	0.26453
2320.06304	0.26887
2318.13447	0.27339
2316.20591	0.27764
2314.27734	0.28123
2312.34878	0.28418
2310.42021	0.28704
2308.49165	0.29010
2306.56309	0.29334
2304.63452	0.29662
2302.70596	0.29960
2300.77739	0.30220
2298.84883	0.30467
2296.92026	0.30704
2294.99170	0.30928
2293.06313	0.31160
2291.13457	0.31404
2289.20601	0.31651
2287.27744	0.31907
2285.34888	0.32163
2283.42031	0.32395
2281.49175	0.32596
2279.56318	0.32786
2277.63462	0.32978
2275.70605	0.33174
2273.77749	0.33372
2271.84893	0.33570
2269.92036	0.33774
2267.99180	0.33984
2266.06323	0.34202
2264.13467	0.34430
2262.20610	0.34649
2260.27754	0.34861
2258.34897	0.35093
2256.42041	0.35332
2254.49185	0.35547
2252.56328	0.35747
2250.63472	0.35973
2248.70615	0.36213
2246.77759	0.36438
2244.84902	0.36661
2242.92046	0.36898
2240.99189	0.37140
2239.06333	0.37366
2237.13477	0.37580
2235.20620	0.37801
2233.27764	0.38026
2231.34907	0.38252
2229.42051	0.38479
2227.49194	0.38702
2225.56338	0.38916
2223.63481	0.39117
2221.70625	0.39324
2219.77769	0.39553
2217.84912	0.39786
2215.92056	0.40007
2213.99199	0.40217
2212.06343	0.40420
2210.13486	0.40626
2208.20630	0.40839
2206.27773	0.41056
2204.34917	0.41272
2202.42061	0.41485
2200.49204	0.41689
2198.56348	0.41878
2196.63491	0.42062
2194.70635	0.42252
2192.77778	0.42445
2190.84922	0.42636
2188.92065	0.42825
2186.99209	0.43005
2185.06353	0.43167
2183.13496	0.43329
2181.20640	0.43508
2179.27783	0.43680
2177.34927	0.43834
2175.42070	0.43991
2173.49214	0.44153
2171.56357	0.44299
2169.63501	0.44431
2167.70645	0.44559
2165.77788	0.44672
2163.84932	0.44774
2161.92075	0.44884
2159.99219	0.45000
2158.06362	0.45103
2156.13506	0.45196
2154.20649	0.45279
2152.27793	0.45348
2150.34937	0.45413
2148.42080	0.45473
2146.49224	0.45522
2144.56367	0.45571
2142.63511	0.45614
2140.70654	0.45633
2138.77798	0.45646
2136.84941	0.45669
2134.92085	0.45687
2132.99229	0.45678
2131.06372	0.45652
2129.13516	0.45626
2127.20659	0.45590
2125.27803	0.45545
2123.34946	0.45508
2121.42090	0.45480
2119.49233	0.45443
2117.56377	0.45381
2115.63521	0.45294
2113.70664	0.45200
2111.77808	0.45112
2109.84951	0.45020
2107.92095	0.44910
2105.99238	0.44788
2104.06382	0.44667
2102.13525	0.44540
2100.20669	0.44401
2098.27812	0.44254
2096.34956	0.44102
2094.42100	0.43941
2092.49243	0.43775
2090.56387	0.43606
2088.63530	0.43420
2086.70674	0.43223
2084.77817	0.43035
2082.84961	0.42856
2080.92104	0.42658
2078.99248	0.42447
2077.06392	0.42236
2075.13535	0.42036
2073.20679	0.41837
2071.27822	0.41616
2069.34966	0.41371
2067.42109	0.41125
2065.49253	0.40885
2063.56396	0.40624
2061.63540	0.40354
2059.70684	0.40105
2057.77827	0.39874
2055.84971	0.39628
2053.92114	0.39355
2051.99258	0.39081
2050.06401	0.38825
2048.13545	0.38574
2046.20688	0.38312
2044.27832	0.38045
2042.34976	0.37783
2040.42119	0.37513
2038.49263	0.37227
2036.56406	0.36944
2034.63550	0.36666
2032.70693	0.36385
2030.77837	0.36112
2028.84980	0.35836
2026.92124	0.35553
2024.99268	0.35277
2023.06411	0.35001
2021.13555	0.34721
2019.20698	0.34453
2017.27842	0.34194
2015.34985	0.33923
2013.42129	0.33644
2011.49272	0.33363
2009.56416	0.33089
2007.63560	0.32818
2005.70703	0.32545
2003.77847	0.32279
2001.84990	0.32016
1999.92134	0.31747
1997.99277	0.31478
1996.06421	0.31233
1994.13564	0.31013
1992.20708	0.30785
1990.27852	0.30530
1988.34995	0.30278
1986.42139	0.30032
1984.49282	0.29787
1982.56426	0.29550
1980.63569	0.29316
1978.70713	0.29078
1976.77856	0.28844
1974.85000	0.28615
1972.92144	0.28400
1970.99287	0.28202
1969.06431	0.28014
1967.13574	0.27824
1965.20718	0.27614
1963.27861	0.27401
1961.35005	0.27202
1959.42148	0.27008
1957.49292	0.26824
1955.56436	0.26655
1953.63579	0.26495
1951.70723	0.26333
1949.77866	0.26163
1947.85010	0.25999
1945.92153	0.25863
1943.99297	0.25746
1942.06440	0.25613
1940.13584	0.25453
1938.20728	0.25294
1936.27871	0.25153
1934.35015	0.25021
1932.42158	0.24897
1930.49302	0.24776
1928.56445	0.24660
1926.63589	0.24558
1924.70732	0.24485
1922.77876	0.24418
1920.85020	0.24326
1918.92163	0.24230
1916.99307	0.24130
1915.06450	0.24014
1913.13594	0.23911
1911.20737	0.23846
1909.27881	0.23803
1907.35024	0.23747
1905.42168	0.23668
1903.49312	0.23592
1901.56455	0.23535
1899.63599	0.23494
1897.70742	0.23459
1895.77886	0.23433
1893.85029	0.23414
1891.92173	0.23391
1889.99316	0.23380
1888.06460	0.23363
1886.13604	0.23334
1884.20747	0.23305
1882.27891	0.23269
1880.35034	0.23235
1878.42178	0.23219
1876.49321	0.23225
1874.56465	0.23233
1872.63608	0.23249
1870.70752	0.23298
1868.77896	0.23377
1866.85039	0.23401
1864.92183	0.23362
1862.99326	0.23348
1861.06470	0.23374
1859.13613	0.23414
1857.20757	0.23445
1855.27900	0.23485
1853.35044	0.23532
1851.42187	0.23584
1849.49331	0.23647
1847.56475	0.23736
1845.63618	0.23852
1843.70762	0.23972
1841.77905	0.24038
1839.85049	0.24070
1837.92192	0.24130
1835.99336	0.24206
1834.06479	0.24293
1832.13623	0.24408
1830.20767	0.24577
1828.27910	0.24732
1826.35054	0.24828
1824.42197	0.24937
1822.49341	0.25040
1820.56484	0.25149
1818.63628	0.25289
1816.70771	0.25452
1814.77915	0.25614
1812.85059	0.25800
1810.92202	0.26021
1808.99346	0.26231
1807.06489	0.26412
1805.13633	0.26592
1803.20776	0.26820
1801.27920	0.27093
1799.35063	0.27380
1797.42207	0.27629
1795.49351	0.27879
1793.56494	0.28181
1791.63638	0.28537
1789.70781	0.28841
1787.77925	0.29077
1785.85068	0.29387
1783.92212	0.29764
1781.99355	0.30161
1780.06499	0.30565
1778.13643	0.30977
1776.20786	0.31390
1774.27930	0.31865
1772.35073	0.32480
1770.42217	0.33089
1768.49360	0.33584
1766.56504	0.34066
1764.63647	0.34577
1762.70791	0.35165
1760.77935	0.35893
1758.85078	0.36557
1756.92222	0.37231
1754.99365	0.37970
1753.06509	0.38655
1751.13652	0.39494
1749.20796	0.40532
1747.27939	0.41526
1745.35083	0.42402
1743.42227	0.43345
1741.49370	0.44393
1739.56514	0.45636
1737.63657	0.46886
1735.70801	0.48004
1733.77944	0.49686
1731.85088	0.51648
1729.92231	0.53175
1727.99375	0.54718
1726.06519	0.56389
1724.13662	0.58232
1722.20806	0.60235
1720.27949	0.62110
1718.35093	0.64325
1716.42236	0.67540
1714.49380	0.70549
1712.56523	0.72985
1710.63667	0.75379
1708.70811	0.78004
1706.77954	0.81011
1704.85098	0.84583
1702.92241	0.87776
1700.99385	0.90975
1699.06528	0.95726
1697.13672	1.00127
1695.20815	1.04654
1693.27959	1.09046
1691.35103	1.12648
1689.42246	1.16878
1687.49390	1.21395
1685.56533	1.25794
1683.63677	1.32543
1681.70820	1.39553
1679.77964	1.44076
1677.85107	1.48361
1675.92251	1.53252
1673.99395	1.59341
1672.06538	1.64916
1670.13682	1.70509
1668.20825	1.77689
1666.27969	1.83472
1664.35112	1.88434
1662.42256	1.94870
1660.49399	2.02247
1658.56543	2.07932
1656.63687	2.12398
1654.70830	2.16516
1652.77974	2.22847
1650.85117	2.28387
1648.92261	2.30037
1646.99404	2.32264
1645.06548	2.34801
1643.13691	2.36384
1641.20835	2.37143
1639.27979	2.37821
1637.35122	2.38136
1635.42266	2.37807
1633.49409	2.36907
1631.56553	2.35444
1629.63696	2.33415
1627.70840	2.30115
1625.77983	2.26410
1623.85127	2.21704
1621.92271	2.15923
1619.99414	2.10989
1618.06558	2.06387
1616.13701	1.99784
1614.20845	1.92941
1612.27988	1.87752
1610.35132	1.82458
1608.42275	1.76753
1606.49419	1.71132
1604.56562	1.66000
1602.63706	1.61091
1600.70850	1.56320
1598.77993	1.51933
1596.85137	1.47813
1594.92280	1.43835
1592.99424	1.40040
1591.06567	1.36579
1589.13711	1.33320
1587.20854	1.30312
1585.27998	1.27608
1583.35142	1.25122
1581.42285	1.22864
1579.49429	1.20987
1577.56572	1.19391
1575.63716	1.17539
1573.70859	1.15932
1571.78003	1.14940
1569.85146	1.14037
1567.92290	1.13109
1565.99434	1.12485
1564.06577	1.12157
1562.13721	1.12044
1560.20864	1.12265
1558.28008	1.13174
1556.35151	1.13956
1554.42295	1.14326
1552.49438	1.14722
1550.56582	1.14957
1548.63726	1.14887
1546.70869	1.14465
1544.78013	1.13645
1542.85156	1.12404
1540.92300	1.10417
1538.99443	1.07153
1537.06587	1.04682
1535.13730	1.02996
1533.20874	1.00760
1531.28018	0.98339
1529.35161	0.96593
1527.42305	0.95004
1525.49448	0.93355
1523.56592	0.91943
1521.63735	0.90619
1519.70879	0.89308
1517.78022	0.88216
1515.85166	0.86899
1513.92310	0.85447
1511.99453	0.84183
1510.06597	0.83087
1508.13740	0.82047
1506.20884	0.80350
1504.28027	0.78804
1502.35171	0.77957
1500.42314	0.77259
1498.49458	0.76537
1496.56602	0.75670
1494.63745	0.74753
1492.70889	0.74059
1490.78032	0.73521
1488.85176	0.72923
1486.92319	0.72309
1484.99463	0.71820
1483.06606	0.71482
1481.13750	0.71244
1479.20894	0.71085
1477.28037	0.71047
1475.35181	0.71134
1473.42324	0.71255
1471.49468	0.71208
1469.56611	0.70983
1467.63755	0.70758
1465.70898	0.70596
1463.78042	0.70485
1461.85186	0.70424
1459.92329	0.70447
1457.99473	0.70568
1456.06616	0.70613
1454.13760	0.70380
1452.20903	0.70072
1450.28047	0.69768
1448.35190	0.69456
1446.42334	0.69104
1444.49478	0.68760
1442.56621	0.68442
1440.63765	0.68126
1438.70908	0.67828
1436.78052	0.67448
1434.85195	0.66957
1432.92339	0.66589
1430.99482	0.66385
1429.06626	0.66274
1427.13770	0.66237
1425.20913	0.66293
1423.28057	0.66410
1421.35200	0.66517
1419.42344	0.66624
1417.49487	0.66668
1415.56631	0.66585
1413.63774	0.66516
1411.70918	0.66545
1409.78062	0.66681
1407.85205	0.66885
1405.92349	0.67127
1403.99492	0.67337
1402.06636	0.67424
1400.13779	0.67404
1398.20923	0.67271
1396.28066	0.66997
1394.35210	0.66574
1392.42354	0.66056
1390.49497	0.65567
1388.56641	0.65098
1386.63784	0.64532
1384.70928	0.63896
1382.78071	0.63293
1380.85215	0.62740
1378.92358	0.62286
1376.99502	0.61968
1375.06646	0.61763
1373.13789	0.61613
1371.20933	0.61500
1369.28076	0.61416
1367.35220	0.61298
1365.42363	0.61143
1363.49507	0.60990
1361.56650	0.60818
1359.63794	0.60628
1357.70937	0.60461
1355.78081	0.60322
1353.85225	0.60208
1351.92368	0.60123
1349.99512	0.60064
1348.06655	0.60009
1346.13799	0.59935
1344.20942	0.59853
1342.28086	0.59789
1340.35229	0.59745
1338.42373	0.59676
1336.49517	0.59583
1334.56660	0.59530
1332.63804	0.59535
1330.70947	0.59576
1328.78091	0.59637
1326.85234	0.59721
1324.92378	0.59833
1322.99521	0.59958
1321.06665	0.60071
1319.13809	0.60158
1317.20952	0.60213
1315.28096	0.60236
1313.35239	0.60224
1311.42383	0.60175
1309.49526	0.60107
1307.56670	0.60049
1305.63813	0.60009
1303.70957	0.59973
1301.78101	0.59921
1299.85244	0.59841
1297.92388	0.59726
1295.99531	0.59583
1294.06675	0.59431
1292.13818	0.59292
1290.20962	0.59171
1288.28105	0.59043
1286.35249	0.58893
1284.42393	0.58738
1282.49536	0.58588
1280.56680	0.58433
1278.63823	0.58262
1276.70967	0.58097
1274.78110	0.57978
1272.85254	0.57895
1270.92397	0.57801
1268.99541	0.57698
1267.06685	0.57608
1265.13828	0.57514
1263.20972	0.57412
1261.28115	0.57314
1259.35259	0.57215
1257.42402	0.57131
1255.49546	0.57087
1253.56689	0.57088
1251.63833	0.57105
1249.70977	0.57114
1247.78120	0.57118
1245.85264	0.57117
1243.92407	0.57062
1241.99551	0.56930
1240.06694	0.56762
1238.13838	0.56582
1236.20981	0.56356
1234.28125	0.56082
1232.35269	0.55802
1230.42412	0.55559
1228.49556	0.55345
1226.56699	0.55127
1224.63843	0.54907
1222.70986	0.54714
1220.78130	0.54540
1218.85273	0.54360
1216.92417	0.54195
1214.99561	0.54072
1213.06704	0.53984
1211.13848	0.53916
1209.20991	0.53851
1207.28135	0.53770
1205.35278	0.53670
1203.42422	0.53567
1201.49565	0.53470
1199.56709	0.53383
1197.63853	0.53306
1195.70996	0.53229
1193.78140	0.53156
1191.85283	0.53107
1189.92427	0.53079
1187.99570	0.53043
1186.06714	0.53008
1184.13857	0.53018
1182.21001	0.53090
1180.28145	0.53212
1178.35288	0.53352
1176.42432	0.53500
1174.49575	0.53647
1172.56719	0.53756
1170.63862	0.53798
1168.71006	0.53799
1166.78149	0.53787
1164.85293	0.53770
1162.92437	0.53753
1160.99580	0.53738
1159.06724	0.53702
1157.13867	0.53637
1155.21011	0.53559
1153.28154	0.53447
1151.35298	0.53267
1149.42441	0.53029
1147.49585	0.52769
1145.56729	0.52506
1143.63872	0.52265
1141.71016	0.52056
1139.78159	0.51870
1137.85303	0.51731
1135.92446	0.51653
1133.99590	0.51611
1132.06733	0.51596
1130.13877	0.51586
1128.21021	0.51545
1126.28164	0.51482
1124.35308	0.51428
1122.42451	0.51380
1120.49595	0.51333
1118.56738	0.51327
1116.63882	0.51367
1114.71025	0.51401
1112.78169	0.51424
1110.85312	0.51462
1108.92456	0.51521
1106.99600	0.51613
1105.06743	0.51731
1103.13887	0.51853
1101.21030	0.51988
1099.28174	0.52157
1097.35317	0.52385
1095.42461	0.52672
1093.49604	0.53013
1091.56748	0.53440
1089.63892	0.53983
1087.71035	0.54629
1085.78179	0.55361
1083.85322	0.56139
1081.92466	0.56865
1079.99609	0.57425
1078.06753	0.57725
1076.13896	0.57714
1074.21040	0.57418
1072.28184	0.56915
1070.35327	0.56271
1068.42471	0.55556
1066.49614	0.54860
1064.56758	0.54228
1062.63901	0.53651
1060.71045	0.53120
1058.78188	0.52638
1056.85332	0.52209
1054.92476	0.51853
1052.99619	0.51572
1051.06763	0.51320
1049.13906	0.51094
1047.21050	0.50929
1045.28193	0.50806
1043.35337	0.50692
1041.42480	0.50596
1039.49624	0.50537
1037.56768	0.50493
1035.63911	0.50436
1033.71055	0.50373
1031.78198	0.50306
1029.85342	0.50196
1027.92485	0.50033
1025.99629	0.49882
1024.06772	0.49788
1022.13916	0.49732
1020.21060	0.49706
1018.28203	0.49714
1016.35347	0.49734
1014.42490	0.49753
1012.49634	0.49777
1010.56777	0.49813
1008.63921	0.49874
1006.71064	0.49954
1004.78208	0.50067
1002.85352	0.50262
1000.92495	0.50545
998.99639	0.50895
997.06782	0.51299
995.13926	0.51736
993.21069	0.52154
991.28213	0.52485
989.35356	0.52689
987.42500	0.52781
985.49644	0.52798
983.56787	0.52776
981.63931	0.52773
979.71074	0.52850
977.78218	0.53009
975.85361	0.53212
973.92505	0.53445
971.99648	0.53729
970.06792	0.54071
968.13936	0.54426
966.21079	0.54797
964.28223	0.55229
962.35366	0.55717
960.42510	0.56228
958.49653	0.56764
956.56797	0.57335
954.63940	0.57942
952.71084	0.58585
950.78228	0.59245
948.85371	0.59903
946.92515	0.60541
944.99658	0.61135
943.06802	0.61716
941.13945	0.62328
939.21089	0.62944
937.28232	0.63533
935.35376	0.64088
933.42520	0.64625
931.49663	0.65211
929.56807	0.65854
927.63950	0.66479
925.71094	0.67096
923.78237	0.67726
921.85381	0.68380
919.92524	0.69089
917.99668	0.69785
916.06812	0.70469
914.13955	0.71255
912.21099	0.72141
910.28242	0.73022
908.35386	0.73852
906.42529	0.74660
904.49673	0.75542
902.56816	0.76477
900.63960	0.77334
898.71104	0.78220
896.78247	0.79258
894.85391	0.80320
892.92534	0.81370
890.99678	0.82390
889.06821	0.83288
887.13965	0.84279
885.21108	0.85510
883.28252	0.86652
881.35396	0.87753
879.42539	0.89152
877.49683	0.90618
875.56826	0.91834
873.63970	0.92927
871.71113	0.94162
869.78257	0.95299
867.85400	0.96098
865.92544	0.97090
863.99687	0.98410
862.06831	0.99523
860.13975	1.00398
858.21118	1.01496
856.28262	1.02905
854.35405	1.04301
852.42549	1.05518
850.49692	1.06659
848.56836	1.07750
846.63979	1.08826
844.71123	1.10063
842.78267	1.11364
840.85410	1.12509
838.92554	1.13542
836.99697	1.14655
835.06841	1.15980
833.13984	1.17332
831.21128	1.18370
829.28271	1.19049
827.35415	1.19722
825.42559	1.20730
823.49702	1.21824
821.56846	1.22691
819.63989	1.23927
817.71133	1.25631
815.78276	1.27181
813.85420	1.28191
811.92563	1.28407
809.99707	1.29448
808.06851	1.32015
806.13994	1.33306
804.21138	1.33041
802.28281	1.33699
800.35425	1.35306
798.42568	1.36855
796.49712	1.37446
794.56855	1.37236
792.63999	1.38476
790.71143	1.44506
788.78286	1.56918
786.85430	1.62019
784.92573	1.53182
782.99717	1.50040
781.06860	1.51803
779.14004	1.47481
777.21147	1.42754
775.28291	1.47993
773.35435	1.70429
771.42578	2.46500
769.49722	4.61698
767.56865	1.88422
765.64009	1.52713
763.71152	1.46110
761.78296	1.53028
759.85439	1.59673
757.92583	1.79366
755.99727	2.35075
754.06870	1.95175
752.14014	1.77881
750.21157	1.72648
748.28301	1.47552
746.35444	1.38355
744.42588	1.48022
742.49731	1.48597
740.56875	1.32818
738.64019	1.09642
736.71162	0.90532
734.78306	0.88141
732.85449	1.06257
730.92593	1.35776
728.99736	0.99998
727.06880	0.68249
725.14023	0.61372
723.21167	0.66276
721.28311	0.55354
719.35454	0.42365
717.42598	0.59213
715.49741	1.21252
713.56885	0.82390
711.64028	0.59202
709.71172	0.62109
707.78315	0.75410
705.85459	0.51297
703.92603	0.29268
701.99746	0.35662
700.06890	0.57825
698.14033	0.52102
696.21177	0.50596
694.28320	0.51829
692.35464	0.31634
690.42607	0.17536
688.49751	0.15090
686.56895	0.14580
684.64038	0.12926
682.71182	0.16906
680.78325	0.17395
678.85469	0.18752
676.92612	0.23862
674.99756	0.30455
673.06899	0.30621
671.14043	0.24373
669.21187	0.20121
667.28330	0.17481
665.35474	0.18629
663.42617	0.21046
661.49761	0.18396
659.56904	0.09610
657.64048	0.03721
655.71191	0.02185
653.78335	-0.10043
651.85479	-0.11320
649.92622	0.04752
647.99766	0.29516
646.06909	0.81444
644.14053	3.86484
642.21196	0.37484
640.28340	0.13146
638.35483	0.31075
636.42627	3.81856
634.49771	3.80699
632.56914	0.48866
630.64058	0.37172
628.71201	0.32535
626.78345	0.16689
624.85488	0.10003
622.92632	0.16443
620.99775	0.36686
619.06919	1.05330
617.14062	1.20131
615.21206	0.49029
613.28350	0.37507
611.35493	0.29298
609.42637	0.22102
607.49780	0.25111
605.56924	0.34800
603.64067	0.41172
601.71211	0.36209
599.78354	0.31819
597.85498	0.33304
595.92642	0.30081
593.99785	0.21702
592.06929	0.24123
590.14072	0.37038
588.21216	0.42561
586.28359	0.30145
584.35503	0.19221
582.42646	0.16085
580.49790	0.18297
578.56934	0.23927
576.64077	0.34081
574.71221	0.43198
572.78364	0.43700
570.85508	0.48195
568.92651	0.48741
566.99795	0.36598
565.06938	0.26369
563.14082	0.22069
561.21226	0.16186
559.28369	0.07445
557.35513	0.04006
555.42656	0.14741
553.49800	0.48845
551.56943	3.30942
549.64087	0.69133
547.71230	0.37018
545.78374	0.36846
543.85518	0.40520
541.92661	0.27628
539.99805	0.14347
538.06948	0.09677
536.14092	0.14948
534.21235	0.27667
532.28379	0.34743
530.35522	0.32155
528.42666	0.24193
526.49810	0.22332
524.56953	0.24648
522.64097	0.23288
520.71240	0.21065
518.78384	0.20552
516.85527	0.18042
514.92671	0.15244
512.99814	0.16096
511.06958	0.16287
509.14102	0.16898
507.21245	0.21586
505.28389	0.23939
503.35532	0.26257
501.42676	0.34721
499.49819	0.44871
