3997.91411	0.05943
3995.98555	0.05998
3994.05698	0.06024
3992.12842	0.06030
3990.19985	0.06037
3988.27129	0.06046
3986.34272	0.06033
3984.41416	0.06001
3982.48560	0.06000
3980.55703	0.06069
3978.62847	0.06151
3976.69990	0.06187
3974.77134	0.06191
3972.84277	0.06192
3970.91421	0.06212
3968.98564	0.06248
3967.05708	0.06264
3965.12852	0.06244
3963.19995	0.06220
3961.27139	0.06231
3959.34282	0.06276
3957.41426	0.06329
3955.48569	0.06382
3953.55713	0.06423
3951.62856	0.06439
3949.70000	0.06430
3947.77144	0.06412
3945.84287	0.06408
3943.91431	0.06443
3941.98574	0.06483
3940.05718	0.06431
3938.12861	0.06337
3936.20005	0.06323
3934.27148	0.06384
3932.34292	0.06445
3930.41436	0.06459
3928.48579	0.06423
3926.55723	0.06392
3924.62866	0.06418
3922.70010	0.06452
3920.77153	0.06445
3918.84297	0.06467
3916.91440	0.06520
3914.98584	0.06469
3913.05728	0.06310
3911.12871	0.06208
3909.20015	0.06197
3907.27158	0.06234
3905.34302	0.06380
3903.41445	0.06623
3901.48589	0.06768
3899.55732	0.06751
3897.62876	0.06612
3895.70020	0.06433
3893.77163	0.06376
3891.84307	0.06481
3889.91450	0.06554
3887.98594	0.06467
3886.05737	0.06448
3884.12881	0.06576
3882.20024	0.06699
3880.27168	0.06770
3878.34312	0.06695
3876.41455	0.06516
3874.48599	0.06487
3872.55742	0.06630
3870.62886	0.06794
3868.70029	0.06885
3866.77173	0.06833
3864.84316	0.06803
3862.91460	0.06887
3860.98604	0.06898
3859.05747	0.06812
3857.12891	0.06796
3855.20034	0.06969
3853.27178	0.07362
3851.34321	0.07517
3849.41465	0.07217
3847.48608	0.06988
3845.55752	0.06961
3843.62896	0.07101
3841.70039	0.07331
3839.77183	0.07587
3837.84326	0.07842
3835.91470	0.07914
3833.98613	0.07764
3832.05757	0.07613
3830.12900	0.07573
3828.20044	0.07640
3826.27187	0.07771
3824.34331	0.07864
3822.41475	0.07962
3820.48618	0.08246
3818.55762	0.08462
3816.62905	0.08456
3814.70049	0.08425
3812.77192	0.08332
3810.84336	0.08243
3808.91479	0.08279
3806.98623	0.08476
3805.05767	0.08745
3803.12910	0.08995
3801.20054	0.09320
3799.27197	0.09514
3797.34341	0.09432
3795.41484	0.09338
3793.48628	0.09295
3791.55771	0.09318
3789.62915	0.09420
3787.70059	0.09549
3785.77202	0.09720
3783.84346	0.09917
3781.91489	0.10048
3779.98633	0.10201
3778.05776	0.10421
3776.12920	0.10533
3774.20063	0.10583
3772.27207	0.10714
3770.34351	0.10968
3768.41494	0.11278
3766.48638	0.11492
3764.55781	0.11644
3762.62925	0.11807
3760.70068	0.12057
3758.77212	0.12441
3756.84355	0.12753
3754.91499	0.12898
3752.98643	0.13138
3751.05786	0.13676
3749.12930	0.14292
3747.20073	0.14511
3745.27217	0.14639
3743.34360	0.15052
3741.41504	0.15458
3739.48647	0.15705
3737.55791	0.16092
3735.62935	0.16754
3733.70078	0.17441
3731.77222	0.17805
3729.84365	0.18016
3727.91509	0.18305
3725.98652	0.18810
3724.05796	0.19498
3722.12939	0.20148
3720.20083	0.20688
3718.27227	0.21215
3716.34370	0.21804
3714.41514	0.22465
3712.48657	0.23423
3710.55801	0.24944
3708.62944	0.26454
3706.70088	0.27470
3704.77231	0.28444
3702.84375	0.29731
3700.91519	0.31425
3698.98662	0.33165
3697.05806	0.34788
3695.12949	0.36599
3693.20093	0.38572
3691.27236	0.40711
3689.34380	0.43458
3687.41523	0.46794
3685.48667	0.49666
3683.55811	0.52127
3681.62954	0.54821
3679.70098	0.57923
3677.77241	0.61246
3675.84385	0.65222
3673.91528	0.70430
3671.98672	0.74537
3670.05815	0.78207
3668.12959	0.83324
3666.20103	0.87981
3664.27246	0.91898
3662.34390	0.96166
3660.41533	1.00788
3658.48677	1.05339
3656.55820	1.10218
3654.62964	1.15653
3652.70107	1.20196
3650.77251	1.24238
3648.84395	1.29935
3646.91538	1.36714
3644.98682	1.41449
3643.05825	1.45103
3641.12969	1.48967
3639.20112	1.53298
3637.27256	1.57728
3635.34399	1.62087
3633.41543	1.66456
3631.48687	1.70563
3629.55830	1.74741
3627.62974	1.80118
3625.70117	1.85006
3623.77261	1.88224
3621.84404	1.91286
3619.91548	1.94930
3617.98691	1.99501
3616.05835	2.03890
3614.12979	2.07545
3612.20122	2.11466
3610.27266	2.15444
3608.34409	2.19350
3606.41553	2.23506
3604.48696	2.27518
3602.55840	2.31181
3600.62983	2.35086
3598.70127	2.39283
3596.77271	2.43282
3594.84414	2.47235
3592.91558	2.51358
3590.98701	2.55212
3589.05845	2.58736
3587.12988	2.63119
3585.20132	2.68072
3583.27275	2.72127
3581.34419	2.75854
3579.41562	2.79871
3577.48706	2.83944
3575.55850	2.87949
3573.62993	2.92183
3571.70137	2.96445
3569.77280	3.00462
3567.84424	3.04667
3565.91567	3.09793
3563.98711	3.14771
3562.05854	3.19048
3560.12998	3.23542
3558.20142	3.28342
3556.27285	3.33150
3554.34429	3.37766
3552.41572	3.42417
3550.48716	3.46976
3548.55859	3.51112
3546.63003	3.55286
3544.70146	3.60149
3542.77290	3.65186
3540.84434	3.69839
3538.91577	3.74575
3536.98721	3.79516
3535.05864	3.84430
3533.13008	3.89218
3531.20151	3.94111
3529.27295	3.98914
3527.34438	4.03375
3525.41582	4.07692
3523.48726	4.12248
3521.55869	4.17482
3519.63013	4.22811
3517.70156	4.27500
3515.77300	4.31872
3513.84443	4.36439
3511.91587	4.41242
3509.98730	4.46192
3508.05874	4.51040
3506.13018	4.55558
3504.20161	4.59962
3502.27305	4.64806
3500.34448	4.70153
3498.41592	4.75532
3496.48735	4.80793
3494.55879	4.85632
3492.63022	4.89892
3490.70166	4.93829
3488.77310	4.97948
3486.84453	5.02967
3484.91597	5.08551
3482.98740	5.13657
3481.05884	5.18403
3479.13027	5.23185
3477.20171	5.28145
3475.27314	5.33106
3473.34458	5.37609
3471.41602	5.42579
3469.48745	5.48501
3467.55889	5.54043
3465.63032	5.58388
3463.70176	5.62478
3461.77319	5.67439
3459.84463	5.72491
3457.91606	5.76615
3455.98750	5.80922
3454.05894	5.86269
3452.13037	5.91989
3450.20181	5.96546
3448.27324	5.99683
3446.34468	6.03933
3444.41611	6.10783
3442.48755	6.19059
3440.55898	6.25539
3438.63042	6.28605
3436.70186	6.30689
3434.77329	6.34224
3432.84473	6.39277
3430.91616	6.45942
3428.98760	6.54306
3427.05903	6.60438
3425.13047	6.62716
3423.20190	6.65056
3421.27334	6.70534
3419.34478	6.76923
3417.41621	6.82200
3415.48765	6.86563
3413.55908	6.89011
3411.63052	6.93206
3409.70195	7.00463
3407.77339	7.05469
3405.84482	7.06317
3403.91626	7.10145
3401.98770	7.18983
3400.05913	7.23138
3398.13057	7.19616
3396.20200	7.17125
3394.27344	7.21405
3392.34487	7.27583
3390.41631	7.30373
3388.48774	7.33081
3386.55918	7.40523
3384.63062	7.49019
3382.70205	7.53227
3380.77349	7.54765
3378.84492	7.56960
3376.91636	7.61909
3374.98779	7.67179
3373.05923	7.70228
3371.13066	7.70627
3369.20210	7.69766
3367.27354	7.69177
3365.34497	7.71578
3363.41641	7.77548
3361.48784	7.82240
3359.55928	7.83498
3357.63071	7.85870
3355.70215	7.92459
3353.77358	7.96063
3351.84502	7.97266
3349.91646	8.00828
3347.98789	8.00215
3346.05933	7.94993
3344.13076	7.96460
3342.20220	8.05226
3340.27363	8.07547
3338.34507	8.02606
3336.41650	7.99240
3334.48794	7.99895
3332.55937	8.04505
3330.63081	8.12939
3328.70225	8.17108
3326.77368	8.13419
3324.84512	8.11989
3322.91655	8.15854
3320.98799	8.17712
3319.05942	8.14995
3317.13086	8.14726
3315.20229	8.12737
3313.27373	8.05674
3311.34517	8.03201
3309.41660	8.09085
3307.48804	8.14157
3305.55947	8.10495
3303.63091	8.09159
3301.70234	8.14987
3299.77378	8.17019
3297.84521	8.15314
3295.91665	8.19585
3293.98809	8.23538
3292.05952	8.19903
3290.13096	8.16941
3288.20239	8.18108
3286.27383	8.14393
3284.34526	8.02560
3282.41670	7.95927
3280.48813	8.01558
3278.55957	8.09933
3276.63101	8.07761
3274.70244	8.03031
3272.77388	8.04489
3270.84531	8.07262
3268.91675	8.14945
3266.98818	8.23381
3265.05962	8.21305
3263.13105	8.14447
3261.20249	8.13442
3259.27393	8.18555
3257.34536	8.20393
3255.41680	8.17503
3253.48823	8.13665
3251.55967	8.09563
3249.63110	8.10740
3247.70254	8.14488
3245.77397	8.14888
3243.84541	8.18268
3241.91685	8.25306
3239.98828	8.29082
3238.05972	8.24291
3236.13115	8.14233
3234.20259	8.06223
3232.27402	8.02312
3230.34546	8.04359
3228.41689	8.08691
3226.48833	8.08356
3224.55977	8.04711
3222.63120	8.00571
3220.70264	7.97721
3218.77407	8.01071
3216.84551	8.06487
3214.91694	8.03266
3212.98838	7.95929
3211.05981	7.92558
3209.13125	7.88430
3207.20269	7.82256
3205.27412	7.78836
3203.34556	7.76126
3201.41699	7.75300
3199.48843	7.77923
3197.55986	7.77959
3195.63130	7.75408
3193.70273	7.74881
3191.77417	7.73742
3189.84561	7.68081
3187.91704	7.60189
3185.98848	7.52056
3184.05991	7.43376
3182.13135	7.35426
3180.20278	7.31359
3178.27422	7.30737
3176.34565	7.26602
3174.41709	7.16955
3172.48853	7.09176
3170.55996	7.04640
3168.63140	6.97807
3166.70283	6.90022
3164.77427	6.84700
3162.84570	6.79214
3160.91714	6.72508
3158.98857	6.65532
3157.06001	6.58470
3155.13145	6.52513
3153.20288	6.46776
3151.27432	6.40282
3149.34575	6.33249
3147.41719	6.26275
3145.48862	6.20929
3143.56006	6.15579
3141.63149	6.08345
3139.70293	6.00615
3137.77437	5.93647
3135.84580	5.87060
3133.91724	5.79711
3131.98867	5.71530
3130.06011	5.63434
3128.13154	5.56337
3126.20298	5.50706
3124.27441	5.45494
3122.34585	5.38917
3120.41729	5.30906
3118.48872	5.22823
3116.56016	5.15763
3114.63159	5.09714
3112.70303	5.03245
3110.77446	4.95688
3108.84590	4.88491
3106.91733	4.82184
3104.98877	4.75834
3103.06021	4.69090
3101.13164	4.62190
3099.20308	4.55544
3097.27451	4.48842
3095.34595	4.41944
3093.41738	4.35425
3091.48882	4.29146
3089.56025	4.22830
3087.63169	4.16586
3085.70312	4.10485
3083.77456	4.04270
3081.84600	3.97891
3079.91743	3.91806
3077.98887	3.85967
3076.06030	3.79997
3074.13174	3.73977
3072.20317	3.68123
3070.27461	3.62369
3068.34604	3.56548
3066.41748	3.50852
3064.48892	3.45560
3062.56035	3.40222
3060.63179	3.34505
3058.70322	3.28886
3056.77466	3.23517
3054.84609	3.18205
3052.91753	3.12973
3050.98896	3.07765
3049.06040	3.02607
3047.13184	2.97630
3045.20327	2.92768
3043.27471	2.87961
3041.34614	2.83159
3039.41758	2.78250
3037.48901	2.73359
3035.56045	2.68700
3033.63188	2.64228
3031.70332	2.59828
3029.77476	2.55429
3027.84619	2.51000
3025.91763	2.46620
3023.98906	2.42300
3022.06050	2.38005
3020.13193	2.33823
3018.20337	2.29808
3016.27480	2.25834
3014.34624	2.21792
3012.41768	2.17777
3010.48911	2.13908
3008.56055	2.10167
3006.63198	2.06502
3004.70342	2.02901
3002.77485	1.99360
3000.84629	1.95858
2998.91772	1.92427
2996.98916	1.89111
2995.06060	1.85867
2993.13203	1.82704
2991.20347	1.79703
2989.27490	1.76817
2987.34634	1.73904
2985.41777	1.70975
2983.48921	1.68129
2981.56064	1.65383
2979.63208	1.62732
2977.70352	1.60142
2975.77495	1.57563
2973.84639	1.54999
2971.91782	1.52501
2969.98926	1.50059
2968.06069	1.47632
2966.13213	1.45269
2964.20356	1.42981
2962.27500	1.40656
2960.34644	1.38248
2958.41787	1.35858
2956.48931	1.33547
2954.56074	1.31233
2952.63218	1.28857
2950.70361	1.26482
2948.77505	1.24151
2946.84648	1.21879
2944.91792	1.19705
2942.98936	1.17593
2941.06079	1.15490
2939.13223	1.13381
2937.20366	1.11275
2935.27510	1.09241
2933.34653	1.07274
2931.41797	1.05287
2929.48940	1.03282
2927.56084	1.01292
2925.63228	0.99319
2923.70371	0.97434
2921.77515	0.95678
2919.84658	0.93967
2917.91802	0.92269
2915.98945	0.90607
2914.06089	0.88967
2912.13232	0.87341
2910.20376	0.85764
2908.27520	0.84248
2906.34663	0.82762
2904.41807	0.81318
2902.48950	0.79929
2900.56094	0.78571
2898.63237	0.77255
2896.70381	0.75978
2894.77524	0.74692
2892.84668	0.73415
2890.91812	0.72216
2888.98955	0.71103
2887.06099	0.70010
2885.13242	0.68912
2883.20386	0.67860
2881.27529	0.66895
2879.34673	0.65977
2877.41816	0.65053
2875.48960	0.64099
2873.56104	0.63088
2871.63247	0.62025
2869.70391	0.60913
2867.77534	0.59729
2865.84678	0.58512
2863.91821	0.57307
2861.98965	0.56115
2860.06108	0.54954
2858.13252	0.53867
2856.20396	0.52865
2854.27539	0.51908
2852.34683	0.50993
2850.41826	0.50159
2848.48970	0.49364
2846.56113	0.48557
2844.63257	0.47786
2842.70400	0.47097
2840.77544	0.46465
2838.84687	0.45859
2836.91831	0.45282
2834.98975	0.44723
2833.06118	0.44154
2831.13262	0.43562
2829.20405	0.42975
2827.27549	0.42409
2825.34692	0.41822
2823.41836	0.41211
2821.48979	0.40626
2819.56123	0.40052
2817.63267	0.39470
2815.70410	0.38902
2813.77554	0.38338
2811.84697	0.37765
2809.91841	0.37200
2807.98984	0.36670
2806.06128	0.36166
2804.13271	0.35650
2802.20415	0.35130
2800.27559	0.34645
2798.34702	0.34187
2796.41846	0.33709
2794.48989	0.33211
2792.56133	0.32728
2790.63276	0.32267
2788.70420	0.31819
2786.77563	0.31393
2784.84707	0.30976
2782.91851	0.30553
2780.98994	0.30135
2779.06138	0.29724
2777.13281	0.29316
2775.20425	0.28912
2773.27568	0.28516
2771.34712	0.28134
2769.41855	0.27761
2767.48999	0.27392
2765.56143	0.27047
2763.63286	0.26718
2761.70430	0.26385
2759.77573	0.26053
2757.84717	0.25725
2755.91860	0.25411
2753.99004	0.25114
2752.06147	0.24811
2750.13291	0.24507
2748.20435	0.24222
2746.27578	0.23953
2744.34722	0.23684
2742.41865	0.23408
2740.49009	0.23114
2738.56152	0.22820
2736.63296	0.22566
2734.70439	0.22343
2732.77583	0.22109
2730.84727	0.21853
2728.91870	0.21603
2726.99014	0.21375
2725.06157	0.21147
2723.13301	0.20923
2721.20444	0.20728
2719.27588	0.20540
2717.34731	0.20339
2715.41875	0.20136
2713.49019	0.19937
2711.56162	0.19733
2709.63306	0.19538
2707.70449	0.19376
2705.77593	0.19238
2703.84736	0.19093
2701.91880	0.18941
2699.99023	0.18790
2698.06167	0.18634
2696.13311	0.18478
2694.20454	0.18326
2692.27598	0.18181
2690.34741	0.18061
2688.41885	0.17950
2686.49028	0.17821
2684.56172	0.17684
2682.63315	0.17552
2680.70459	0.17431
2678.77603	0.17335
2676.84746	0.17254
2674.91890	0.17154
2672.99033	0.17028
2671.06177	0.16903
2669.13320	0.16796
2667.20464	0.16699
2665.27607	0.16603
2663.34751	0.16506
2661.41895	0.16421
2659.49038	0.16347
2657.56182	0.16265
2655.63325	0.16178
2653.70469	0.16100
2651.77612	0.16027
2649.84756	0.15963
2647.91899	0.15902
2645.99043	0.15839
2644.06187	0.15779
2642.13330	0.15726
2640.20474	0.15680
2638.27617	0.15618
2636.34761	0.15537
2634.41904	0.15481
2632.49048	0.15463
2630.56191	0.15438
2628.63335	0.15391
2626.70479	0.15344
2624.77622	0.15309
2622.84766	0.15276
2620.91909	0.15239
2618.99053	0.15208
2617.06196	0.15189
2615.13340	0.15176
2613.20483	0.15152
2611.27627	0.15121
2609.34771	0.15108
2607.41914	0.15113
2605.49058	0.15116
2603.56201	0.15116
2601.63345	0.15118
2599.70488	0.15112
2597.77632	0.15098
2595.84775	0.15092
2593.91919	0.15090
2591.99062	0.15084
2590.06206	0.15080
2588.13350	0.15082
2586.20493	0.15100
2584.27637	0.15130
2582.34780	0.15148
2580.41924	0.15152
2578.49067	0.15170
2576.56211	0.15204
2574.63354	0.15237
2572.70498	0.15271
2570.77642	0.15309
2568.84785	0.15343
2566.91929	0.15365
2564.99072	0.15389
2563.06216	0.15442
2561.13359	0.15509
2559.20503	0.15555
2557.27646	0.15590
2555.34790	0.15631
2553.41934	0.15676
2551.49077	0.15710
2549.56221	0.15744
2547.63364	0.15794
2545.70508	0.15856
2543.77651	0.15924
2541.84795	0.15996
2539.91938	0.16060
2537.99082	0.16111
2536.06226	0.16154
2534.13369	0.16208
2532.20513	0.16277
2530.27656	0.16344
2528.34800	0.16408
2526.41943	0.16485
2524.49087	0.16572
2522.56230	0.16655
2520.63374	0.16726
2518.70518	0.16791
2516.77661	0.16857
2514.84805	0.16922
2512.91948	0.16987
2510.99092	0.17055
2509.06235	0.17136
2507.13379	0.17220
2505.20522	0.17294
2503.27666	0.17361
2501.34810	0.17435
2499.41953	0.17532
2497.49097	0.17638
2495.56240	0.17722
2493.63384	0.17779
2491.70527	0.17843
2489.77671	0.17933
2487.84814	0.18040
2485.91958	0.18137
2483.99102	0.18211
2482.06245	0.18284
2480.13389	0.18373
2478.20532	0.18467
2476.27676	0.18560
2474.34819	0.18653
2472.41963	0.18730
2470.49106	0.18793
2468.56250	0.18879
2466.63394	0.18985
2464.70537	0.19073
2462.77681	0.19144
2460.84824	0.19224
2458.91968	0.19321
2456.99111	0.19432
2455.06255	0.19550
2453.13398	0.19660
2451.20542	0.19758
2449.27686	0.19856
2447.34829	0.19950
2445.41973	0.20036
2443.49116	0.20132
2441.56260	0.20230
2439.63403	0.20309
2437.70547	0.20384
2435.77690	0.20479
2433.84834	0.20594
2431.91978	0.20703
2429.99121	0.20803
2428.06265	0.20910
2426.13408	0.21022
2424.20552	0.21127
2422.27695	0.21233
2420.34839	0.21347
2418.41982	0.21459
2416.49126	0.21562
2414.56270	0.21660
2412.63413	0.21766
2410.70557	0.21893
2408.77700	0.22031
2406.84844	0.22157
2404.91987	0.22266
2402.99131	0.22366
2401.06274	0.22473
2399.13418	0.22596
2397.20562	0.22720
2395.27705	0.22835
2393.34849	0.22955
2391.41992	0.23087
2389.49136	0.23229
2387.56279	0.23402
2385.63423	0.23626
2383.70566	0.23915
2381.77710	0.24295
2379.84854	0.24774
2377.91997	0.25323
2375.99141	0.25925
2374.06284	0.26604
2372.13428	0.27369
2370.20571	0.28171
2368.27715	0.28951
2366.34858	0.29730
2364.42002	0.30523
2362.49146	0.31179
2360.56289	0.31508
2358.63433	0.31553
2356.70576	0.31451
2354.77720	0.31077
2352.84863	0.30402
2350.92007	0.29725
2348.99150	0.29353
2347.06294	0.29425
2345.13437	0.30009
2343.20581	0.30838
2341.27725	0.31314
2339.34868	0.31406
2337.42012	0.31410
2335.49155	0.31473
2333.56299	0.31578
2331.63442	0.31653
2329.70586	0.31665
2327.77729	0.31647
2325.84873	0.31594
2323.92017	0.31539
2321.99160	0.31506
2320.06304	0.31397
2318.13447	0.31211
2316.20591	0.31058
2314.27734	0.30985
2312.34878	0.30992
2310.42021	0.31054
2308.49165	0.31106
2306.56309	0.31105
2304.63452	0.31093
2302.70596	0.31125
2300.77739	0.31193
2298.84883	0.31278
2296.92026	0.31391
2294.99170	0.31510
2293.06313	0.31598
2291.13457	0.31669
2289.20601	0.31770
2287.27744	0.31900
2285.34888	0.32042
2283.42031	0.32204
2281.49175	0.32396
2279.56318	0.32603
2277.63462	0.32816
2275.70605	0.33039
2273.77749	0.33256
2271.84893	0.33460
2269.92036	0.33654
2267.99180	0.33849
2266.06323	0.34051
2264.13467	0.34253
2262.20610	0.34453
2260.27754	0.34665
2258.34897	0.34879
2256.42041	0.35083
2254.49185	0.35282
2252.56328	0.35481
2250.63472	0.35683
2248.70615	0.35891
2246.77759	0.36105
2244.84902	0.36325
2242.92046	0.36546
2240.99189	0.36758
2239.06333	0.36965
2237.13477	0.37175
2235.20620	0.37382
2233.27764	0.37583
2231.34907	0.37798
2229.42051	0.38029
2227.49194	0.38257
2225.56338	0.38476
2223.63481	0.38691
2221.70625	0.38912
2219.77769	0.39133
2217.84912	0.39342
2215.92056	0.39561
2213.99199	0.39797
2212.06343	0.40026
2210.13486	0.40235
2208.20630	0.40437
2206.27773	0.40642
2204.34917	0.40848
2202.42061	0.41052
2200.49204	0.41252
2198.56348	0.41456
2196.63491	0.41664
2194.70635	0.41871
2192.77778	0.42069
2190.84922	0.42254
2188.92065	0.42424
2186.99209	0.42593
2185.06353	0.42777
2183.13496	0.42961
2181.20640	0.43127
2179.27783	0.43281
2177.34927	0.43436
2175.42070	0.43588
2173.49214	0.43736
2171.56357	0.43881
2169.63501	0.44027
2167.70645	0.44165
2165.77788	0.44285
2163.84932	0.44397
2161.92075	0.44506
2159.99219	0.44607
2158.06362	0.44707
2156.13506	0.44803
2154.20649	0.44887
2152.27793	0.44968
2150.34937	0.45048
2148.42080	0.45116
2146.49224	0.45168
2144.56367	0.45201
2142.63511	0.45227
2140.70654	0.45254
2138.77798	0.45280
2136.84941	0.45296
2134.92085	0.45295
2132.99229	0.45276
2131.06372	0.45258
2129.13516	0.45245
2127.20659	0.45226
2125.27803	0.45197
2123.34946	0.45151
2121.42090	0.45096
2119.49233	0.45043
2117.56377	0.44981
2115.63521	0.44907
2113.70664	0.44825
2111.77808	0.44733
2109.84951	0.44633
2107.92095	0.44524
2105.99238	0.44394
2104.06382	0.44252
2102.13525	0.44125
2100.20669	0.44007
2098.27812	0.43868
2096.34956	0.43702
2094.42100	0.43531
2092.49243	0.43367
2090.56387	0.43200
2088.63530	0.43028
2086.70674	0.42845
2084.77817	0.42644
2082.84961	0.42446
2080.92104	0.42264
2078.99248	0.42078
2077.06392	0.41870
2075.13535	0.41649
2073.20679	0.41422
2071.27822	0.41183
2069.34966	0.40944
2067.42109	0.40715
2065.49253	0.40493
2063.56396	0.40260
2061.63540	0.40014
2059.70684	0.39763
2057.77827	0.39510
2055.84971	0.39265
2053.92114	0.39019
2051.99258	0.38755
2050.06401	0.38483
2048.13545	0.38220
2046.20688	0.37956
2044.27832	0.37688
2042.34976	0.37424
2040.42119	0.37153
2038.49263	0.36872
2036.56406	0.36600
2034.63550	0.36331
2032.70693	0.36055
2030.77837	0.35781
2028.84980	0.35501
2026.92124	0.35220
2024.99268	0.34946
2023.06411	0.34672
2021.13555	0.34396
2019.20698	0.34133
2017.27842	0.33867
2015.34985	0.33574
2013.42129	0.33274
2011.49272	0.32993
2009.56416	0.32734
2007.63560	0.32475
2005.70703	0.32207
2003.77847	0.31938
2001.84990	0.31681
1999.92134	0.31437
1997.99277	0.31188
1996.06421	0.30926
1994.13564	0.30681
1992.20708	0.30457
1990.27852	0.30207
1988.34995	0.29930
1986.42139	0.29662
1984.49282	0.29416
1982.56426	0.29183
1980.63569	0.28955
1978.70713	0.28731
1976.77856	0.28511
1974.85000	0.28296
1972.92144	0.28083
1970.99287	0.27877
1969.06431	0.27688
1967.13574	0.27501
1965.20718	0.27293
1963.27861	0.27086
1961.35005	0.26898
1959.42148	0.26719
1957.49292	0.26546
1955.56436	0.26372
1953.63579	0.26185
1951.70723	0.25995
1949.77866	0.25826
1947.85010	0.25683
1945.92153	0.25556
1943.99297	0.25440
1942.06440	0.25312
1940.13584	0.25145
1938.20728	0.24970
1936.27871	0.24823
1934.35015	0.24695
1932.42158	0.24578
1930.49302	0.24464
1928.56445	0.24353
1926.63589	0.24251
1924.70732	0.24178
1922.77876	0.24114
1920.85020	0.24026
1918.92163	0.23936
1916.99307	0.23836
1915.06450	0.23713
1913.13594	0.23607
1911.20737	0.23543
1909.27881	0.23497
1907.35024	0.23441
1905.42168	0.23370
1903.49312	0.23295
1901.56455	0.23230
1899.63599	0.23183
1897.70742	0.23157
1895.77886	0.23145
1893.85029	0.23127
1891.92173	0.23100
1889.99316	0.23095
1888.06460	0.23075
1886.13604	0.23020
1884.20747	0.22968
1882.27891	0.22929
1880.35034	0.22913
1878.42178	0.22921
1876.49321	0.22937
1874.56465	0.22939
1872.63608	0.22946
1870.70752	0.22991
1868.77896	0.23091
1866.85039	0.23148
1864.92183	0.23111
1862.99326	0.23076
1861.06470	0.23086
1859.13613	0.23123
1857.20757	0.23152
1855.27900	0.23181
1853.35044	0.23221
1851.42187	0.23283
1849.49331	0.23368
1847.56475	0.23475
1845.63618	0.23604
1843.70762	0.23730
1841.77905	0.23781
1839.85049	0.23792
1837.92192	0.23857
1835.99336	0.23945
1834.06479	0.24038
1832.13623	0.24165
1830.20767	0.24353
1828.27910	0.24516
1826.35054	0.24605
1824.42197	0.24711
1822.49341	0.24812
1820.56484	0.24912
1818.63628	0.25042
1816.70771	0.25207
1814.77915	0.25377
1812.85059	0.25562
1810.92202	0.25779
1808.99346	0.25993
1807.06489	0.26179
1805.13633	0.26357
1803.20776	0.26580
1801.27920	0.26854
1799.35063	0.27148
1797.42207	0.27398
1795.49351	0.27637
1793.56494	0.27933
1791.63638	0.28307
1789.70781	0.28622
1787.77925	0.28844
1785.85068	0.29143
1783.92212	0.29511
1781.99355	0.29907
1780.06499	0.30335
1778.13643	0.30772
1776.20786	0.31188
1774.27930	0.31662
1772.35073	0.32299
1770.42217	0.32925
1768.49360	0.33393
1766.56504	0.33849
1764.63647	0.34358
1762.70791	0.34964
1760.77935	0.35725
1758.85078	0.36412
1756.92222	0.37096
1754.99365	0.37848
1753.06509	0.38547
1751.13652	0.39414
1749.20796	0.40511
1747.27939	0.41551
1745.35083	0.42427
1743.42227	0.43356
1741.49370	0.44400
1739.56514	0.45632
1737.63657	0.46855
1735.70801	0.47941
1733.77944	0.49605
1731.85088	0.51567
1729.92231	0.53074
1727.99375	0.54590
1726.06519	0.56266
1724.13662	0.58137
1722.20806	0.60145
1720.27949	0.62004
1718.35093	0.64223
1716.42236	0.67475
1714.49380	0.70491
1712.56523	0.72900
1710.63667	0.75269
1708.70811	0.77867
1706.77954	0.80855
1704.85098	0.84431
1702.92241	0.87608
1700.99385	0.90788
1699.06528	0.95572
1697.13672	0.99953
1695.20815	1.04430
1693.27959	1.08834
1691.35103	1.12467
1689.42246	1.16729
1687.49390	1.21259
1685.56533	1.25665
1683.63677	1.32430
1681.70820	1.39338
1679.77964	1.43750
1677.85107	1.48004
1675.92251	1.52916
1673.99395	1.59001
1672.06538	1.64473
1670.13682	1.69942
1668.20825	1.77070
1666.27969	1.82882
1664.35112	1.87924
1662.42256	1.94402
1660.49399	2.01690
1658.56543	2.07330
1656.63687	2.11877
1654.70830	2.15942
1652.77974	2.21944
1650.85117	2.27737
1648.92261	2.29805
1646.99404	2.31841
1645.06548	2.33799
1643.13691	2.35395
1641.20835	2.36391
1639.27979	2.37041
1637.35122	2.37047
1635.42266	2.36389
1633.49409	2.35471
1631.56553	2.34195
1629.63696	2.32462
1627.70840	2.29352
1625.77983	2.25567
1623.85127	2.20936
1621.92271	2.15414
1619.99414	2.10504
1618.06558	2.05769
1616.13701	1.99026
1614.20845	1.92123
1612.27988	1.86925
1610.35132	1.81598
1608.42275	1.75870
1606.49419	1.70285
1604.56562	1.65205
1602.63706	1.60329
1600.70850	1.55588
1598.77993	1.51267
1596.85137	1.47239
1594.92280	1.43301
1592.99424	1.39456
1591.06567	1.35938
1589.13711	1.32659
1587.20854	1.29641
1585.27998	1.26947
1583.35142	1.24502
1581.42285	1.22283
1579.49429	1.20436
1577.56572	1.18869
1575.63716	1.17017
1573.70859	1.15419
1571.78003	1.14484
1569.85146	1.13652
1567.92290	1.12719
1565.99434	1.12054
1564.06577	1.11745
1562.13721	1.11650
1560.20864	1.11818
1558.28008	1.12615
1556.35151	1.13363
1554.42295	1.13759
1552.49438	1.14196
1550.56582	1.14458
1548.63726	1.14372
1546.70869	1.13930
1544.78013	1.13125
1542.85156	1.11916
1540.92300	1.09942
1538.99443	1.06701
1537.06587	1.04242
1535.13730	1.02549
1533.20874	1.00318
1531.28018	0.97918
1529.35161	0.96181
1527.42305	0.94584
1525.49448	0.92918
1523.56592	0.91498
1521.63735	0.90200
1519.70879	0.88913
1517.78022	0.87793
1515.85166	0.86443
1513.92310	0.84996
1511.99453	0.83742
1510.06597	0.82651
1508.13740	0.81643
1506.20884	0.79975
1504.28027	0.78377
1502.35171	0.77490
1500.42314	0.76793
1498.49458	0.76112
1496.56602	0.75290
1494.63745	0.74409
1492.70889	0.73749
1490.78032	0.73226
1488.85176	0.72620
1486.92319	0.72000
1484.99463	0.71508
1483.06606	0.71158
1481.13750	0.70924
1479.20894	0.70772
1477.28037	0.70717
1475.35181	0.70784
1473.42324	0.70946
1471.49468	0.70972
1469.56611	0.70753
1467.63755	0.70502
1465.70898	0.70308
1463.78042	0.70153
1461.85186	0.70081
1459.92329	0.70142
1457.99473	0.70318
1456.06616	0.70354
1454.13760	0.70039
1452.20903	0.69673
1450.28047	0.69351
1448.35190	0.69065
1446.42334	0.68759
1444.49478	0.68441
1442.56621	0.68139
1440.63765	0.67834
1438.70908	0.67520
1436.78052	0.67125
1434.85195	0.66654
1432.92339	0.66302
1430.99482	0.66100
1429.06626	0.65998
1427.13770	0.65960
1425.20913	0.66011
1423.28057	0.66142
1421.35200	0.66264
1419.42344	0.66376
1417.49487	0.66424
1415.56631	0.66331
1413.63774	0.66238
1411.70918	0.66232
1409.78062	0.66329
1407.85205	0.66512
1405.92349	0.66764
1403.99492	0.66999
1402.06636	0.67090
1400.13779	0.67062
1398.20923	0.66946
1396.28066	0.66697
1394.35210	0.66261
1392.42354	0.65723
1390.49497	0.65226
1388.56641	0.64742
1386.63784	0.64182
1384.70928	0.63582
1382.78071	0.63002
1380.85215	0.62452
1378.92358	0.61996
1376.99502	0.61681
1375.06646	0.61476
1373.13789	0.61315
1371.20933	0.61185
1369.28076	0.61086
1367.35220	0.60966
1365.42363	0.60812
1363.49507	0.60669
1361.56650	0.60522
1359.63794	0.60336
1357.70937	0.60153
1355.78081	0.60006
1353.85225	0.59896
1351.92368	0.59815
1349.99512	0.59754
1348.06655	0.59681
1346.13799	0.59580
1344.20942	0.59488
1342.28086	0.59431
1340.35229	0.59399
1338.42373	0.59360
1336.49517	0.59305
1334.56660	0.59260
1332.63804	0.59247
1330.70947	0.59275
1328.78091	0.59337
1326.85234	0.59420
1324.92378	0.59521
1322.99521	0.59643
1321.06665	0.59762
1319.13809	0.59855
1317.20952	0.59909
1315.28096	0.59913
1313.35239	0.59879
1311.42383	0.59835
1309.49526	0.59790
1307.56670	0.59745
1305.63813	0.59704
1303.70957	0.59645
1301.78101	0.59569
1299.85244	0.59482
1297.92388	0.59377
1295.99531	0.59251
1294.06675	0.59120
1292.13818	0.58992
1290.20962	0.58856
1288.28105	0.58710
1286.35249	0.58564
1284.42393	0.58421
1282.49536	0.58275
1280.56680	0.58134
1278.63823	0.57999
1276.70967	0.57870
1274.78110	0.57745
1272.85254	0.57628
1270.92397	0.57535
1268.99541	0.57447
1267.06685	0.57339
1265.13828	0.57232
1263.20972	0.57139
1261.28115	0.57035
1259.35259	0.56925
1257.42402	0.56838
1255.49546	0.56806
1253.56689	0.56823
1251.63833	0.56848
1249.70977	0.56869
1247.78120	0.56883
1245.85264	0.56869
1243.92407	0.56801
1241.99551	0.56682
1240.06694	0.56534
1238.13838	0.56339
1236.20981	0.56093
1234.28125	0.55834
1232.35269	0.55588
1230.42412	0.55357
1228.49556	0.55132
1226.56699	0.54913
1224.63843	0.54708
1222.70986	0.54516
1220.78130	0.54336
1218.85273	0.54179
1216.92417	0.54043
1214.99561	0.53918
1213.06704	0.53809
1211.13848	0.53729
1209.20991	0.53671
1207.28135	0.53620
1205.35278	0.53541
1203.42422	0.53428
1201.49565	0.53316
1199.56709	0.53228
1197.63853	0.53151
1195.70996	0.53076
1193.78140	0.53016
1191.85283	0.52966
1189.92427	0.52909
1187.99570	0.52865
1186.06714	0.52857
1184.13857	0.52875
1182.21001	0.52912
1180.28145	0.52983
1178.35288	0.53112
1176.42432	0.53279
1174.49575	0.53428
1172.56719	0.53518
1170.63862	0.53553
1168.71006	0.53554
1166.78149	0.53539
1164.85293	0.53515
1162.92437	0.53490
1160.99580	0.53457
1159.06724	0.53405
1157.13867	0.53330
1155.21011	0.53239
1153.28154	0.53140
1151.35298	0.52996
1149.42441	0.52769
1147.49585	0.52492
1145.56729	0.52212
1143.63872	0.51958
1141.71016	0.51739
1139.78159	0.51544
1137.85303	0.51374
1135.92446	0.51273
1133.99590	0.51262
1132.06733	0.51281
1130.13877	0.51255
1128.21021	0.51167
1126.28164	0.51064
1124.35308	0.50999
1122.42451	0.50966
1120.49595	0.50928
1118.56738	0.50894
1116.63882	0.50894
1114.71025	0.50918
1112.78169	0.50941
1110.85312	0.50977
1108.92456	0.51063
1106.99600	0.51184
1105.06743	0.51291
1103.13887	0.51388
1101.21030	0.51507
1099.28174	0.51670
1097.35317	0.51883
1095.42461	0.52129
1093.49604	0.52447
1091.56748	0.52919
1089.63892	0.53526
1087.71035	0.54206
1085.78179	0.54952
1083.85322	0.55715
1081.92466	0.56396
1079.99609	0.56926
1078.06753	0.57216
1076.13896	0.57197
1074.21040	0.56880
1072.28184	0.56353
1070.35327	0.55738
1068.42471	0.55084
1066.49614	0.54390
1064.56758	0.53708
1062.63901	0.53097
1060.71045	0.52572
1058.78188	0.52123
1056.85332	0.51739
1054.92476	0.51391
1052.99619	0.51064
1051.06763	0.50773
1049.13906	0.50543
1047.21050	0.50376
1045.28193	0.50247
1043.35337	0.50126
1041.42480	0.50027
1039.49624	0.49987
1037.56768	0.49970
1035.63911	0.49923
1033.71055	0.49848
1031.78198	0.49757
1029.85342	0.49647
1027.92485	0.49530
1025.99629	0.49417
1024.06772	0.49319
1022.13916	0.49279
1020.21060	0.49302
1018.28203	0.49317
1016.35347	0.49299
1014.42490	0.49293
1012.49634	0.49323
1010.56777	0.49368
1008.63921	0.49424
1006.71064	0.49521
1004.78208	0.49675
1002.85352	0.49888
1000.92495	0.50166
998.99639	0.50495
997.06782	0.50884
995.13926	0.51338
993.21069	0.51782
991.28213	0.52130
989.35356	0.52335
987.42500	0.52419
985.49644	0.52447
983.56787	0.52464
981.63931	0.52495
979.71074	0.52576
977.78218	0.52718
975.85361	0.52917
973.92505	0.53165
971.99648	0.53446
970.06792	0.53760
968.13936	0.54131
966.21079	0.54550
964.28223	0.54976
962.35366	0.55420
960.42510	0.55923
958.49653	0.56484
956.56797	0.57061
954.63940	0.57634
952.71084	0.58224
950.78228	0.58857
948.85371	0.59531
946.92515	0.60183
944.99658	0.60763
943.06802	0.61342
941.13945	0.62003
939.21089	0.62671
937.28232	0.63256
935.35376	0.63796
933.42520	0.64318
931.49663	0.64826
929.56807	0.65376
927.63950	0.65979
925.71094	0.66613
923.78237	0.67267
921.85381	0.67949
919.92524	0.68653
917.99668	0.69333
916.06812	0.70014
914.13955	0.70759
912.21099	0.71559
910.28242	0.72369
908.35386	0.73170
906.42529	0.73958
904.49673	0.74790
902.56816	0.75707
900.63960	0.76618
898.71104	0.77508
896.78247	0.78523
894.85391	0.79667
892.92534	0.80790
890.99678	0.81753
889.06821	0.82699
887.13965	0.83844
885.21108	0.85006
883.28252	0.86049
881.35396	0.87149
879.42539	0.88353
877.49683	0.89597
875.56826	0.90832
873.63970	0.92050
871.71113	0.93285
869.78257	0.94364
867.85400	0.95254
865.92544	0.96338
863.99687	0.97710
862.06831	0.99090
860.13975	1.00292
858.21118	1.01341
856.28262	1.02378
854.35405	1.03460
852.42549	1.04639
850.49692	1.05966
848.56836	1.07098
846.63979	1.07890
844.71123	1.08859
842.78267	1.10131
840.85410	1.11410
838.92554	1.12714
836.99697	1.14033
835.06841	1.15091
833.13984	1.15785
831.21128	1.16586
829.28271	1.17990
827.35415	1.19394
825.42559	1.20157
823.49702	1.21185
821.56846	1.22524
819.63989	1.22636
817.71133	1.21910
815.78276	1.22532
813.85420	1.24832
811.92563	1.26870
809.99707	1.27490
808.06851	1.27528
806.13994	1.28522
804.21138	1.31003
802.28281	1.33049
800.35425	1.31994
798.42568	1.29100
796.49712	1.27402
794.56855	1.28465
792.63999	1.32848
790.71143	1.38096
788.78286	1.39524
786.85430	1.34511
784.92573	1.28050
782.99717	1.28549
781.06860	1.38410
779.14004	1.46796
777.21147	1.39062
775.28291	1.31204
773.35435	1.30962
771.42578	1.28523
769.49722	1.24638
767.56865	1.29864
765.64009	1.39420
763.71152	1.37252
761.78296	1.25622
759.85439	1.13299
757.92583	1.07237
755.99727	1.09574
754.06870	1.16869
752.14014	1.21008
750.21157	1.15007
748.28301	1.05155
746.35444	1.03206
744.42588	1.09430
742.49731	1.10935
740.56875	1.00576
738.64019	0.86864
736.71162	0.77918
734.78306	0.74770
732.85449	0.71635
730.92593	0.65363
728.99736	0.60854
727.06880	0.65978
725.14023	0.80880
723.21167	0.85724
721.28311	0.76666
719.35454	0.70384
717.42598	0.69766
715.49741	0.71002
713.56885	0.70305
711.64028	0.71401
709.71172	0.66486
707.78315	0.58081
705.85459	0.60379
703.92603	0.74555
701.99746	0.82537
700.06890	0.76708
698.14033	0.72117
696.21177	0.64669
694.28320	0.58519
692.35464	0.60668
690.42607	0.65051
688.49751	0.63171
686.56895	0.63118
684.64038	0.69137
682.71182	0.74326
680.78325	0.71726
678.85469	0.61794
676.92612	0.56424
674.99756	0.59686
673.06899	0.65615
671.14043	0.63448
669.21187	0.56270
667.28330	0.55844
665.35474	0.61063
663.42617	0.60515
661.49761	0.53682
659.56904	0.53450
657.64048	0.62055
655.71191	0.69095
653.78335	0.66751
651.85479	0.61553
649.92622	0.57508
647.99766	0.56078
646.06909	0.58390
644.14053	0.59147
642.21196	0.53270
640.28340	0.50780
638.35483	0.52154
636.42627	0.47709
634.49771	0.43088
632.56914	0.44749
630.64058	0.49191
628.71201	0.53044
626.78345	0.55716
624.85488	0.56110
622.92632	0.57539
620.99775	0.59683
619.06919	0.56897
617.14062	0.55386
615.21206	0.58747
613.28350	0.54806
611.35493	0.46851
609.42637	0.47788
607.49780	0.54644
605.56924	0.55674
603.64067	0.53108
601.71211	0.53534
599.78354	0.54203
597.85498	0.51759
595.92642	0.48684
593.99785	0.51362
592.06929	0.58713
590.14072	0.54724
588.21216	0.44197
586.28359	0.43000
584.35503	0.51520
582.42646	0.58269
580.49790	0.55900
578.56934	0.53896
576.64077	0.53636
574.71221	0.52474
572.78364	0.51599
570.85508	0.52213
568.92651	0.53019
566.99795	0.54827
565.06938	0.54913
563.14082	0.51917
561.21226	0.51163
559.28369	0.51249
557.35513	0.49333
555.42656	0.46461
553.49800	0.43374
551.56943	0.40685
549.64087	0.39703
547.71230	0.40463
545.78374	0.43859
543.85518	0.50975
541.92661	0.54323
539.99805	0.48791
538.06948	0.44046
536.14092	0.41164
534.21235	0.37912
532.28379	0.36144
530.35522	0.35963
528.42666	0.37948
526.49810	0.40384
524.56953	0.38697
522.64097	0.38317
520.71240	0.42674
518.78384	0.45205
516.85527	0.42854
514.92671	0.42825
512.99814	0.44463
511.06958	0.40935
509.14102	0.36216
507.21245	0.35934
505.28389	0.37796
503.35532	0.37680
501.42676	0.37596
499.49819	0.39208
