3997.91411	0.05757
3995.98555	0.05791
3994.05698	0.05751
3992.12842	0.05710
3990.19985	0.05725
3988.27129	0.05770
3986.34272	0.05836
3984.41416	0.05908
3982.48560	0.05943
3980.55703	0.05945
3978.62847	0.05925
3976.69990	0.05909
3974.77134	0.05930
3972.84277	0.05966
3970.91421	0.05985
3968.98564	0.05989
3967.05708	0.05993
3965.12852	0.06010
3963.19995	0.06025
3961.27139	0.06035
3959.34282	0.06063
3957.41426	0.06095
3955.48569	0.06118
3953.55713	0.06142
3951.62856	0.06154
3949.70000	0.06164
3947.77144	0.06183
3945.84287	0.06165
3943.91431	0.06104
3941.98574	0.06055
3940.05718	0.06054
3938.12861	0.06101
3936.20005	0.06139
3934.27148	0.06125
3932.34292	0.06089
3930.41436	0.06042
3928.48579	0.05967
3926.55723	0.05919
3924.62866	0.05947
3922.70010	0.06017
3920.77153	0.06076
3918.84297	0.06108
3916.91440	0.06092
3914.98584	0.06061
3913.05728	0.06069
3911.12871	0.06074
3909.20015	0.06038
3907.27158	0.06010
3905.34302	0.06039
3903.41445	0.06098
3901.48589	0.06115
3899.55732	0.06110
3897.62876	0.06118
3895.70020	0.06098
3893.77163	0.06084
3891.84307	0.06121
3889.91450	0.06171
3887.98594	0.06192
3886.05737	0.06213
3884.12881	0.06236
3882.20024	0.06253
3880.27168	0.06280
3878.34312	0.06273
3876.41455	0.06194
3874.48599	0.06136
3872.55742	0.06168
3870.62886	0.06271
3868.70029	0.06389
3866.77173	0.06418
3864.84316	0.06386
3862.91460	0.06391
3860.98604	0.06429
3859.05747	0.06462
3857.12891	0.06466
3855.20034	0.06422
3853.27178	0.06400
3851.34321	0.06543
3849.41465	0.06669
3847.48608	0.06710
3845.55752	0.06757
3843.62896	0.06833
3841.70039	0.06910
3839.77183	0.06968
3837.84326	0.07078
3835.91470	0.07238
3833.98613	0.07299
3832.05757	0.07265
3830.12900	0.07262
3828.20044	0.07325
3826.27187	0.07401
3824.34331	0.07444
3822.41475	0.07482
3820.48618	0.07638
3818.55762	0.07822
3816.62905	0.07880
3814.70049	0.07922
3812.77192	0.07990
3810.84336	0.08051
3808.91479	0.08108
3806.98623	0.08196
3805.05767	0.08312
3803.12910	0.08425
3801.20054	0.08633
3799.27197	0.08904
3797.34341	0.09018
3795.41484	0.09061
3793.48628	0.09109
3791.55771	0.09173
3789.62915	0.09284
3787.70059	0.09416
3785.77202	0.09574
3783.84346	0.09762
3781.91489	0.09910
3779.98633	0.10051
3778.05776	0.10245
3776.12920	0.10391
3774.20063	0.10478
3772.27207	0.10597
3770.34351	0.10783
3768.41494	0.11034
3766.48638	0.11283
3764.55781	0.11488
3762.62925	0.11634
3760.70068	0.11773
3758.77212	0.12011
3756.84355	0.12304
3754.91499	0.12507
3752.98643	0.12678
3751.05786	0.12960
3749.12930	0.13330
3747.20073	0.13588
3745.27217	0.13811
3743.34360	0.14179
3741.41504	0.14532
3739.48647	0.14715
3737.55791	0.14884
3735.62935	0.15221
3733.70078	0.15735
3731.77222	0.16183
3729.84365	0.16535
3727.91509	0.16870
3725.98652	0.17346
3724.05796	0.18045
3722.12939	0.18822
3720.20083	0.19618
3718.27227	0.20479
3716.34370	0.21388
3714.41514	0.22227
3712.48657	0.23062
3710.55801	0.24178
3708.62944	0.25469
3706.70088	0.26619
3704.77231	0.27714
3702.84375	0.28946
3700.91519	0.30564
3698.98662	0.32445
3697.05806	0.34275
3695.12949	0.36155
3693.20093	0.38089
3691.27236	0.40176
3689.34380	0.42973
3687.41523	0.46530
3685.48667	0.49631
3683.55811	0.52263
3681.62954	0.55056
3679.70098	0.58147
3677.77241	0.61384
3675.84385	0.65231
3673.91528	0.70435
3671.98672	0.74723
3670.05815	0.78538
3668.12959	0.83842
3666.20103	0.88762
3664.27246	0.92890
3662.34390	0.97287
3660.41533	1.01945
3658.48677	1.06447
3656.55820	1.11244
3654.62964	1.16680
3652.70107	1.21289
3650.77251	1.25218
3648.84395	1.30487
3646.91538	1.37061
3644.98682	1.42109
3643.05825	1.46077
3641.12969	1.50061
3639.20112	1.54383
3637.27256	1.58799
3635.34399	1.63075
3633.41543	1.67150
3631.48687	1.70851
3629.55830	1.74670
3627.62974	1.79927
3625.70117	1.85073
3623.77261	1.88623
3621.84404	1.91935
3619.91548	1.95587
3617.98691	1.99942
3616.05835	2.04231
3614.12979	2.07912
3612.20122	2.11863
3610.27266	2.15851
3608.34409	2.19746
3606.41553	2.23849
3604.48696	2.27783
3602.55840	2.31387
3600.62983	2.35163
3598.70127	2.39109
3596.77271	2.42934
3594.84414	2.46888
3592.91558	2.51081
3590.98701	2.55051
3589.05845	2.58658
3587.12988	2.62945
3585.20132	2.67830
3583.27275	2.71987
3581.34419	2.75685
3579.41562	2.79571
3577.48706	2.83800
3575.55850	2.88227
3573.62993	2.92733
3571.70137	2.96983
3569.77280	3.00833
3567.84424	3.04796
3565.91567	3.09976
3563.98711	3.15447
3562.05854	3.19767
3560.12998	3.23717
3558.20142	3.28026
3556.27285	3.32553
3554.34429	3.36846
3552.41572	3.41230
3550.48716	3.45881
3548.55859	3.50390
3546.63003	3.54909
3544.70146	3.59877
3542.77290	3.64759
3540.84434	3.69245
3538.91577	3.73837
3536.98721	3.78690
3535.05864	3.83786
3533.13008	3.88694
3531.20151	3.93082
3529.27295	3.97325
3527.34438	4.02139
3525.41582	4.07247
3523.48726	4.11934
3521.55869	4.16550
3519.63013	4.21490
3517.70156	4.26662
3515.77300	4.31626
3513.84443	4.36251
3511.91587	4.40884
3509.98730	4.45735
3508.05874	4.50794
3506.13018	4.55787
3504.20161	4.60288
3502.27305	4.64662
3500.34448	4.69147
3498.41592	4.73527
3496.48735	4.78525
3494.55879	4.84087
3492.63022	4.89354
3490.70166	4.94215
3488.77310	4.98986
3486.84453	5.03927
3484.91597	5.08982
3482.98740	5.13985
3481.05884	5.18425
3479.13027	5.22178
3477.20171	5.26572
3475.27314	5.32251
3473.34458	5.38091
3471.41602	5.42797
3469.48745	5.46480
3467.55889	5.50570
3465.63032	5.55847
3463.70176	5.61924
3461.77319	5.68177
3459.84463	5.74049
3457.91606	5.79038
3455.98750	5.83201
3454.05894	5.86831
3452.13037	5.90911
3450.20181	5.96002
3448.27324	6.00806
3446.34468	6.05878
3444.41611	6.12311
3442.48755	6.18294
3440.55898	6.23404
3438.63042	6.29411
3436.70186	6.34397
3434.77329	6.37023
3432.84473	6.40903
3430.91616	6.47824
3428.98760	6.55954
3427.05903	6.62228
3425.13047	6.66570
3423.20190	6.71969
3421.27334	6.80483
3419.34478	6.88536
3417.41621	6.91187
3415.48765	6.91398
3413.55908	6.93279
3411.63052	6.96287
3409.70195	7.01267
3407.77339	7.10305
3405.84482	7.16130
3403.91626	7.15711
3401.98770	7.16579
3400.05913	7.19565
3398.13057	7.21603
3396.20200	7.26713
3394.27344	7.36280
3392.34487	7.39368
3390.41631	7.38069
3388.48774	7.44060
3386.55918	7.52662
3384.63062	7.55400
3382.70205	7.58924
3380.77349	7.68244
3378.84492	7.75317
3376.91636	7.74585
3374.98779	7.69824
3373.05923	7.68050
3371.13066	7.70679
3369.20210	7.74724
3367.27354	7.76491
3365.34497	7.78756
3363.41641	7.82928
3361.48784	7.83381
3359.55928	7.82467
3357.63071	7.84472
3355.70215	7.88632
3353.77358	7.93379
3351.84502	7.98441
3349.91646	7.99668
3347.98789	7.97711
3346.05933	7.99560
3344.13076	8.06001
3342.20220	8.10847
3340.27363	8.09030
3338.34507	8.05371
3336.41650	8.06676
3334.48794	8.12590
3332.55937	8.14267
3330.63081	8.11385
3328.70225	8.08490
3326.77368	8.10889
3324.84512	8.19539
3322.91655	8.18143
3320.98799	8.07513
3319.05942	8.03393
3317.13086	8.07663
3315.20229	8.14959
3313.27373	8.20470
3311.34517	8.20106
3309.41660	8.19431
3307.48804	8.23141
3305.55947	8.27069
3303.63091	8.31736
3301.70234	8.30674
3299.77378	8.21138
3297.84521	8.13207
3295.91665	8.08561
3293.98809	8.07349
3292.05952	8.15416
3290.13096	8.24395
3288.20239	8.23711
3286.27383	8.25260
3284.34526	8.33360
3282.41670	8.39926
3280.48813	8.42541
3278.55957	8.39737
3276.63101	8.29441
3274.70244	8.21972
3272.77388	8.23918
3270.84531	8.27056
3268.91675	8.25186
3266.98818	8.22430
3265.05962	8.27970
3263.13105	8.39248
3261.20249	8.40910
3259.27393	8.32597
3257.34536	8.26522
3255.41680	8.26180
3253.48823	8.31989
3251.55967	8.37994
3249.63110	8.33210
3247.70254	8.22731
3245.77397	8.17650
3243.84541	8.19158
3241.91685	8.21467
3239.98828	8.21340
3238.05972	8.21474
3236.13115	8.23286
3234.20259	8.21269
3232.27402	8.26492
3230.34546	8.44721
3228.41689	8.40561
3226.48833	8.19111
3224.55977	8.15166
3222.63120	8.22313
3220.70264	8.25131
3218.77407	8.23533
3216.84551	8.19036
3214.91694	8.08800
3212.98838	7.97892
3211.05981	7.97711
3209.13125	8.04273
3207.20269	8.03358
3205.27412	7.91799
3203.34556	7.78970
3201.41699	7.74136
3199.48843	7.73418
3197.55986	7.75327
3195.63130	7.82500
3193.70273	7.82208
3191.77417	7.72536
3189.84561	7.67965
3187.91704	7.66664
3185.98848	7.59507
3184.05991	7.51215
3182.13135	7.47430
3180.20278	7.44585
3178.27422	7.39724
3176.34565	7.34269
3174.41709	7.26862
3172.48853	7.16159
3170.55996	7.05379
3168.63140	6.98070
3166.70283	6.94792
3164.77427	6.91065
3162.84570	6.83700
3160.91714	6.76292
3158.98857	6.72265
3157.06001	6.69168
3155.13145	6.61957
3153.20288	6.51984
3151.27432	6.45101
3149.34575	6.40829
3147.41719	6.35266
3145.48862	6.28282
3143.56006	6.20073
3141.63149	6.11401
3139.70293	6.04249
3137.77437	5.98276
3135.84580	5.92395
3133.91724	5.85947
3131.98867	5.77606
3130.06011	5.68460
3128.13154	5.61061
3126.20298	5.54996
3124.27441	5.48281
3122.34585	5.40135
3120.41729	5.31333
3118.48872	5.22754
3116.56016	5.14920
3114.63159	5.08226
3112.70303	5.02308
3110.77446	4.96404
3108.84590	4.89970
3106.91733	4.82911
3104.98877	4.75792
3103.06021	4.68974
3101.13164	4.61945
3099.20308	4.54776
3097.27451	4.47878
3095.34595	4.41070
3093.41738	4.34354
3091.48882	4.27585
3089.56025	4.20609
3087.63169	4.13833
3085.70312	4.07411
3083.77456	4.01034
3081.84600	3.94659
3079.91743	3.88333
3077.98887	3.82098
3076.06030	3.76060
3074.13174	3.70056
3072.20317	3.63937
3070.27461	3.57749
3068.34604	3.51701
3066.41748	3.45919
3064.48892	3.40196
3062.56035	3.34432
3060.63179	3.28801
3058.70322	3.23369
3056.77466	3.17957
3054.84609	3.12415
3052.91753	3.06870
3050.98896	3.01548
3049.06040	2.96469
3047.13184	2.91498
3045.20327	2.86528
3043.27471	2.81513
3041.34614	2.76476
3039.41758	2.71545
3037.48901	2.66834
3035.56045	2.62258
3033.63188	2.57668
3031.70332	2.53077
3029.77476	2.48569
3027.84619	2.44169
3025.91763	2.39865
3023.98906	2.35656
3022.06050	2.31532
3020.13193	2.27417
3018.20337	2.23303
3016.27480	2.19295
3014.34624	2.15399
3012.41768	2.11526
3010.48911	2.07665
3008.56055	2.03860
3006.63198	2.00144
3004.70342	1.96518
3002.77485	1.92960
3000.84629	1.89485
2998.91772	1.86081
2996.98916	1.82674
2995.06060	1.79289
2993.13203	1.75981
2991.20347	1.72716
2989.27490	1.69480
2987.34634	1.66315
2985.41777	1.63234
2983.48921	1.60225
2981.56064	1.57271
2979.63208	1.54326
2977.70352	1.51368
2975.77495	1.48485
2973.84639	1.45719
2971.91782	1.42972
2969.98926	1.40221
2968.06069	1.37563
2966.13213	1.34991
2964.20356	1.32429
2962.27500	1.29866
2960.34644	1.27329
2958.41787	1.24911
2956.48931	1.22652
2954.56074	1.20438
2952.63218	1.18177
2950.70361	1.15922
2948.77505	1.13748
2946.84648	1.11628
2944.91792	1.09479
2942.98936	1.07302
2941.06079	1.05197
2939.13223	1.03190
2937.20366	1.01231
2935.27510	0.99340
2933.34653	0.97501
2931.41797	0.95608
2929.48940	0.93732
2927.56084	0.92005
2925.63228	0.90319
2923.70371	0.88616
2921.77515	0.87011
2919.84658	0.85465
2917.91802	0.83875
2915.98945	0.82260
2914.06089	0.80669
2912.13232	0.79162
2910.20376	0.77756
2908.27520	0.76370
2906.34663	0.74974
2904.41807	0.73606
2902.48950	0.72289
2900.56094	0.71013
2898.63237	0.69771
2896.70381	0.68560
2894.77524	0.67382
2892.84668	0.66208
2890.91812	0.65025
2888.98955	0.63859
2887.06099	0.62693
2885.13242	0.61530
2883.20386	0.60398
2881.27529	0.59311
2879.34673	0.58291
2877.41816	0.57285
2875.48960	0.56239
2873.56104	0.55214
2871.63247	0.54244
2869.70391	0.53295
2867.77534	0.52370
2865.84678	0.51476
2863.91821	0.50595
2861.98965	0.49718
2860.06108	0.48840
2858.13252	0.47974
2856.20396	0.47139
2854.27539	0.46338
2852.34683	0.45542
2850.41826	0.44742
2848.48970	0.43967
2846.56113	0.43242
2844.63257	0.42559
2842.70400	0.41897
2840.77544	0.41259
2838.84687	0.40651
2836.91831	0.40066
2834.98975	0.39485
2833.06118	0.38900
2831.13262	0.38323
2829.20405	0.37756
2827.27549	0.37188
2825.34692	0.36618
2823.41836	0.36055
2821.48979	0.35504
2819.56123	0.34966
2817.63267	0.34426
2815.70410	0.33882
2813.77554	0.33355
2811.84697	0.32856
2809.91841	0.32369
2807.98984	0.31880
2806.06128	0.31392
2804.13271	0.30907
2802.20415	0.30442
2800.27559	0.30000
2798.34702	0.29550
2796.41846	0.29107
2794.48989	0.28700
2792.56133	0.28304
2790.63276	0.27896
2788.70420	0.27483
2786.77563	0.27083
2784.84707	0.26710
2782.91851	0.26341
2780.98994	0.25962
2779.06138	0.25602
2777.13281	0.25260
2775.20425	0.24924
2773.27568	0.24590
2771.34712	0.24249
2769.41855	0.23912
2767.48999	0.23599
2765.56143	0.23295
2763.63286	0.23000
2761.70430	0.22719
2759.77573	0.22437
2757.84717	0.22150
2755.91860	0.21864
2753.99004	0.21586
2752.06147	0.21326
2750.13291	0.21083
2748.20435	0.20836
2746.27578	0.20583
2744.34722	0.20339
2742.41865	0.20100
2740.49009	0.19866
2738.56152	0.19640
2736.63296	0.19414
2734.70439	0.19192
2732.77583	0.18982
2730.84727	0.18780
2728.91870	0.18583
2726.99014	0.18394
2725.06157	0.18207
2723.13301	0.18026
2721.20444	0.17853
2719.27588	0.17685
2717.34731	0.17519
2715.41875	0.17344
2713.49019	0.17163
2711.56162	0.16993
2709.63306	0.16835
2707.70449	0.16688
2705.77593	0.16555
2703.84736	0.16416
2701.91880	0.16259
2699.99023	0.16110
2698.06167	0.15985
2696.13311	0.15859
2694.20454	0.15723
2692.27598	0.15600
2690.34741	0.15480
2688.41885	0.15349
2686.49028	0.15232
2684.56172	0.15134
2682.63315	0.15033
2680.70459	0.14935
2678.77603	0.14843
2676.84746	0.14749
2674.91890	0.14671
2672.99033	0.14593
2671.06177	0.14499
2669.13320	0.14403
2667.20464	0.14309
2665.27607	0.14220
2663.34751	0.14147
2661.41895	0.14082
2659.49038	0.14021
2657.56182	0.13966
2655.63325	0.13909
2653.70469	0.13853
2651.77612	0.13806
2649.84756	0.13758
2647.91899	0.13698
2645.99043	0.13630
2644.06187	0.13568
2642.13330	0.13531
2640.20474	0.13519
2638.27617	0.13507
2636.34761	0.13479
2634.41904	0.13449
2632.49048	0.13433
2630.56191	0.13421
2628.63335	0.13393
2626.70479	0.13352
2624.77622	0.13323
2622.84766	0.13307
2620.91909	0.13290
2618.99053	0.13284
2617.06196	0.13289
2615.13340	0.13287
2613.20483	0.13273
2611.27627	0.13255
2609.34771	0.13253
2607.41914	0.13272
2605.49058	0.13296
2603.56201	0.13313
2601.63345	0.13334
2599.70488	0.13351
2597.77632	0.13356
2595.84775	0.13364
2593.91919	0.13371
2591.99062	0.13379
2590.06206	0.13404
2588.13350	0.13443
2586.20493	0.13485
2584.27637	0.13521
2582.34780	0.13548
2580.41924	0.13574
2578.49067	0.13604
2576.56211	0.13645
2574.63354	0.13684
2572.70498	0.13722
2570.77642	0.13784
2568.84785	0.13857
2566.91929	0.13907
2564.99072	0.13942
2563.06216	0.13988
2561.13359	0.14054
2559.20503	0.14130
2557.27646	0.14205
2555.34790	0.14260
2553.41934	0.14298
2551.49077	0.14349
2549.56221	0.14416
2547.63364	0.14476
2545.70508	0.14528
2543.77651	0.14588
2541.84795	0.14658
2539.91938	0.14737
2537.99082	0.14817
2536.06226	0.14880
2534.13369	0.14939
2532.20513	0.15020
2530.27656	0.15115
2528.34800	0.15204
2526.41943	0.15283
2524.49087	0.15360
2522.56230	0.15443
2520.63374	0.15530
2518.70518	0.15615
2516.77661	0.15692
2514.84805	0.15780
2512.91948	0.15877
2510.99092	0.15963
2509.06235	0.16038
2507.13379	0.16121
2505.20522	0.16209
2503.27666	0.16300
2501.34810	0.16393
2499.41953	0.16480
2497.49097	0.16574
2495.56240	0.16674
2493.63384	0.16764
2491.70527	0.16860
2489.77671	0.16973
2487.84814	0.17082
2485.91958	0.17177
2483.99102	0.17272
2482.06245	0.17354
2480.13389	0.17419
2478.20532	0.17504
2476.27676	0.17614
2474.34819	0.17733
2472.41963	0.17844
2470.49106	0.17942
2468.56250	0.18031
2466.63394	0.18124
2464.70537	0.18227
2462.77681	0.18331
2460.84824	0.18426
2458.91968	0.18520
2456.99111	0.18629
2455.06255	0.18753
2453.13398	0.18875
2451.20542	0.18993
2449.27686	0.19098
2447.34829	0.19177
2445.41973	0.19256
2443.49116	0.19364
2441.56260	0.19478
2439.63403	0.19586
2437.70547	0.19703
2435.77690	0.19819
2433.84834	0.19918
2431.91978	0.20018
2429.99121	0.20127
2428.06265	0.20240
2426.13408	0.20364
2424.20552	0.20492
2422.27695	0.20611
2420.34839	0.20729
2418.41982	0.20853
2416.49126	0.20964
2414.56270	0.21065
2412.63413	0.21174
2410.70557	0.21289
2408.77700	0.21413
2406.84844	0.21544
2404.91987	0.21665
2402.99131	0.21781
2401.06274	0.21911
2399.13418	0.22045
2397.20562	0.22164
2395.27705	0.22283
2393.34849	0.22419
2391.41992	0.22552
2389.49136	0.22661
2387.56279	0.22744
2385.63423	0.22785
2383.70566	0.22747
2381.77710	0.22609
2379.84854	0.22397
2377.91997	0.22137
2375.99141	0.21800
2374.06284	0.21346
2372.13428	0.20793
2370.20571	0.20182
2368.27715	0.19549
2366.34858	0.18988
2364.42002	0.18579
2362.49146	0.18364
2360.56289	0.18286
2358.63433	0.18353
2356.70576	0.18827
2354.77720	0.19723
2352.84863	0.20826
2350.92007	0.21898
2348.99150	0.22569
2347.06294	0.22693
2345.13437	0.22333
2343.20581	0.21851
2341.27725	0.21793
2339.34868	0.22082
2337.42012	0.22350
2335.49155	0.22537
2333.56299	0.22765
2331.63442	0.23075
2329.70586	0.23418
2327.77729	0.23781
2325.84873	0.24171
2323.92017	0.24588
2321.99160	0.25078
2320.06304	0.25618
2318.13447	0.26123
2316.20591	0.26549
2314.27734	0.26900
2312.34878	0.27208
2310.42021	0.27518
2308.49165	0.27862
2306.56309	0.28240
2304.63452	0.28618
2302.70596	0.28957
2300.77739	0.29258
2298.84883	0.29542
2296.92026	0.29820
2294.99170	0.30083
2293.06313	0.30333
2291.13457	0.30596
2289.20601	0.30879
2287.27744	0.31156
2285.34888	0.31416
2283.42031	0.31660
2281.49175	0.31869
2279.56318	0.32044
2277.63462	0.32216
2275.70605	0.32407
2273.77749	0.32612
2271.84893	0.32824
2269.92036	0.33045
2267.99180	0.33271
2266.06323	0.33493
2264.13467	0.33702
2262.20610	0.33909
2260.27754	0.34135
2258.34897	0.34386
2256.42041	0.34636
2254.49185	0.34872
2252.56328	0.35099
2250.63472	0.35326
2248.70615	0.35565
2246.77759	0.35804
2244.84902	0.36029
2242.92046	0.36250
2240.99189	0.36481
2239.06333	0.36712
2237.13477	0.36935
2235.20620	0.37153
2233.27764	0.37371
2231.34907	0.37596
2229.42051	0.37826
2227.49194	0.38051
2225.56338	0.38277
2223.63481	0.38505
2221.70625	0.38727
2219.77769	0.38955
2217.84912	0.39187
2215.92056	0.39404
2213.99199	0.39612
2212.06343	0.39827
2210.13486	0.40043
2208.20630	0.40255
2206.27773	0.40467
2204.34917	0.40676
2202.42061	0.40886
2200.49204	0.41095
2198.56348	0.41295
2196.63491	0.41492
2194.70635	0.41689
2192.77778	0.41877
2190.84922	0.42064
2188.92065	0.42259
2186.99209	0.42451
2185.06353	0.42636
2183.13496	0.42815
2181.20640	0.42979
2179.27783	0.43137
2177.34927	0.43301
2175.42070	0.43471
2173.49214	0.43641
2171.56357	0.43795
2169.63501	0.43931
2167.70645	0.44066
2165.77788	0.44206
2163.84932	0.44333
2161.92075	0.44437
2159.99219	0.44532
2158.06362	0.44617
2156.13506	0.44698
2154.20649	0.44789
2152.27793	0.44880
2150.34937	0.44963
2148.42080	0.45039
2146.49224	0.45104
2144.56367	0.45153
2142.63511	0.45187
2140.70654	0.45207
2138.77798	0.45225
2136.84941	0.45246
2134.92085	0.45265
2132.99229	0.45265
2131.06372	0.45248
2129.13516	0.45228
2127.20659	0.45202
2125.27803	0.45176
2123.34946	0.45150
2121.42090	0.45110
2119.49233	0.45048
2117.56377	0.44974
2115.63521	0.44894
2113.70664	0.44803
2111.77808	0.44706
2109.84951	0.44610
2107.92095	0.44507
2105.99238	0.44393
2104.06382	0.44276
2102.13525	0.44156
2100.20669	0.44027
2098.27812	0.43894
2096.34956	0.43758
2094.42100	0.43612
2092.49243	0.43444
2090.56387	0.43261
2088.63530	0.43078
2086.70674	0.42907
2084.77817	0.42734
2082.84961	0.42545
2080.92104	0.42335
2078.99248	0.42111
2077.06392	0.41892
2075.13535	0.41684
2073.20679	0.41472
2071.27822	0.41244
2069.34966	0.41017
2067.42109	0.40798
2065.49253	0.40574
2063.56396	0.40334
2061.63540	0.40086
2059.70684	0.39835
2057.77827	0.39581
2055.84971	0.39324
2053.92114	0.39055
2051.99258	0.38785
2050.06401	0.38529
2048.13545	0.38277
2046.20688	0.38017
2044.27832	0.37750
2042.34976	0.37479
2040.42119	0.37210
2038.49263	0.36941
2036.56406	0.36670
2034.63550	0.36398
2032.70693	0.36117
2030.77837	0.35826
2028.84980	0.35531
2026.92124	0.35249
2024.99268	0.34981
2023.06411	0.34713
2021.13555	0.34437
2019.20698	0.34165
2017.27842	0.33897
2015.34985	0.33624
2013.42129	0.33350
2011.49272	0.33072
2009.56416	0.32791
2007.63560	0.32512
2005.70703	0.32238
2003.77847	0.31971
2001.84990	0.31713
1999.92134	0.31455
1997.99277	0.31193
1996.06421	0.30941
1994.13564	0.30698
1992.20708	0.30453
1990.27852	0.30195
1988.34995	0.29929
1986.42139	0.29671
1984.49282	0.29435
1982.56426	0.29213
1980.63569	0.28995
1978.70713	0.28783
1976.77856	0.28563
1974.85000	0.28335
1972.92144	0.28110
1970.99287	0.27895
1969.06431	0.27689
1967.13574	0.27491
1965.20718	0.27292
1963.27861	0.27090
1961.35005	0.26888
1959.42148	0.26691
1957.49292	0.26507
1955.56436	0.26340
1953.63579	0.26173
1951.70723	0.25999
1949.77866	0.25833
1947.85010	0.25680
1945.92153	0.25528
1943.99297	0.25369
1942.06440	0.25212
1940.13584	0.25067
1938.20728	0.24927
1936.27871	0.24791
1934.35015	0.24665
1932.42158	0.24550
1930.49302	0.24435
1928.56445	0.24323
1926.63589	0.24211
1924.70732	0.24106
1922.77876	0.24014
1920.85020	0.23936
1918.92163	0.23868
1916.99307	0.23788
1915.06450	0.23687
1913.13594	0.23590
1911.20737	0.23509
1909.27881	0.23433
1907.35024	0.23368
1905.42168	0.23306
1903.49312	0.23241
1901.56455	0.23190
1899.63599	0.23149
1897.70742	0.23108
1895.77886	0.23067
1893.85029	0.23029
1891.92173	0.22993
1889.99316	0.22975
1888.06460	0.22962
1886.13604	0.22932
1884.20747	0.22892
1882.27891	0.22864
1880.35034	0.22862
1878.42178	0.22870
1876.49321	0.22875
1874.56465	0.22875
1872.63608	0.22877
1870.70752	0.22888
1868.77896	0.22930
1866.85039	0.22978
1864.92183	0.22989
1862.99326	0.22985
1861.06470	0.23002
1859.13613	0.23049
1857.20757	0.23095
1855.27900	0.23139
1853.35044	0.23182
1851.42187	0.23232
1849.49331	0.23295
1847.56475	0.23368
1845.63618	0.23450
1843.70762	0.23550
1841.77905	0.23633
1839.85049	0.23675
1837.92192	0.23744
1835.99336	0.23839
1834.06479	0.23934
1832.13623	0.24025
1830.20767	0.24153
1828.27910	0.24308
1826.35054	0.24437
1824.42197	0.24574
1822.49341	0.24708
1820.56484	0.24836
1818.63628	0.24975
1816.70771	0.25135
1814.77915	0.25286
1812.85059	0.25453
1810.92202	0.25660
1808.99346	0.25873
1807.06489	0.26073
1805.13633	0.26271
1803.20776	0.26496
1801.27920	0.26754
1799.35063	0.27041
1797.42207	0.27288
1795.49351	0.27519
1793.56494	0.27804
1791.63638	0.28190
1789.70781	0.28551
1787.77925	0.28806
1785.85068	0.29105
1783.92212	0.29475
1781.99355	0.29879
1780.06499	0.30304
1778.13643	0.30745
1776.20786	0.31155
1774.27930	0.31579
1772.35073	0.32146
1770.42217	0.32776
1768.49360	0.33320
1766.56504	0.33851
1764.63647	0.34401
1762.70791	0.35000
1760.77935	0.35751
1758.85078	0.36459
1756.92222	0.37168
1754.99365	0.37947
1753.06509	0.38654
1751.13652	0.39482
1749.20796	0.40535
1747.27939	0.41601
1745.35083	0.42558
1743.42227	0.43562
1741.49370	0.44643
1739.56514	0.45898
1737.63657	0.47154
1735.70801	0.48239
1733.77944	0.49891
1731.85088	0.51931
1729.92231	0.53531
1727.99375	0.55107
1726.06519	0.56803
1724.13662	0.58659
1722.20806	0.60649
1720.27949	0.62472
1718.35093	0.64602
1716.42236	0.67778
1714.49380	0.70840
1712.56523	0.73327
1710.63667	0.75711
1708.70811	0.78244
1706.77954	0.81112
1704.85098	0.84543
1702.92241	0.87591
1700.99385	0.90549
1699.06528	0.94939
1697.13672	0.98969
1695.20815	1.03071
1693.27959	1.07055
1691.35103	1.10228
1689.42246	1.13814
1687.49390	1.17542
1685.56533	1.21084
1683.63677	1.26550
1681.70820	1.32281
1679.77964	1.35961
1677.85107	1.39447
1675.92251	1.43415
1673.99395	1.48242
1672.06538	1.52444
1670.13682	1.56494
1668.20825	1.61780
1666.27969	1.66042
1664.35112	1.69548
1662.42256	1.73836
1660.49399	1.78639
1658.56543	1.82430
1656.63687	1.85545
1654.70830	1.88491
1652.77974	1.93541
1650.85117	1.98560
1648.92261	2.00457
1646.99404	2.03124
1645.06548	2.06621
1643.13691	2.08924
1641.20835	2.10234
1639.27979	2.11356
1637.35122	2.12114
1635.42266	2.12521
1633.49409	2.12347
1631.56553	2.11385
1629.63696	2.10043
1627.70840	2.07760
1625.77983	2.05156
1623.85127	2.01964
1621.92271	1.97807
1619.99414	1.93859
1618.06558	1.89897
1616.13701	1.84231
1614.20845	1.78457
1612.27988	1.74058
1610.35132	1.69387
1608.42275	1.64224
1606.49419	1.59119
1604.56562	1.54428
1602.63706	1.49860
1600.70850	1.45345
1598.77993	1.41149
1596.85137	1.37163
1594.92280	1.33278
1592.99424	1.29526
1591.06567	1.26055
1589.13711	1.22749
1587.20854	1.19626
1585.27998	1.16680
1583.35142	1.13845
1581.42285	1.11208
1579.49429	1.08915
1577.56572	1.06792
1575.63716	1.04186
1573.70859	1.01875
1571.78003	1.00312
1569.85146	0.98565
1567.92290	0.96503
1565.99434	0.94810
1564.06577	0.93353
1562.13721	0.92139
1560.20864	0.91051
1558.28008	0.89036
1556.35151	0.87236
1554.42295	0.86210
1552.49438	0.85191
1550.56582	0.84165
1548.63726	0.83131
1546.70869	0.82242
1544.78013	0.81433
1542.85156	0.80589
1540.92300	0.79679
1538.99443	0.78567
1537.06587	0.77751
1535.13730	0.77168
1533.20874	0.76457
1531.28018	0.75712
1529.35161	0.75145
1527.42305	0.74597
1525.49448	0.74026
1523.56592	0.73497
1521.63735	0.72909
1519.70879	0.72265
1517.78022	0.71739
1515.85166	0.71211
1513.92310	0.70711
1511.99453	0.70328
1510.06597	0.70014
1508.13740	0.69694
1506.20884	0.69149
1504.28027	0.68641
1502.35171	0.68316
1500.42314	0.68024
1498.49458	0.67725
1496.56602	0.67383
1494.63745	0.67032
1492.70889	0.66742
1490.78032	0.66492
1488.85176	0.66202
1486.92319	0.65879
1484.99463	0.65572
1483.06606	0.65290
1481.13750	0.65009
1479.20894	0.64722
1477.28037	0.64447
1475.35181	0.64183
1473.42324	0.63931
1471.49468	0.63617
1469.56611	0.63293
1467.63755	0.63039
1465.70898	0.62820
1463.78042	0.62577
1461.85186	0.62337
1459.92329	0.62143
1457.99473	0.61936
1456.06616	0.61668
1454.13760	0.61434
1452.20903	0.61246
1450.28047	0.61065
1448.35190	0.60888
1446.42334	0.60714
1444.49478	0.60550
1442.56621	0.60388
1440.63765	0.60230
1438.70908	0.60092
1436.78052	0.59957
1434.85195	0.59811
1432.92339	0.59667
1430.99482	0.59532
1429.06626	0.59378
1427.13770	0.59209
1425.20913	0.59057
1423.28057	0.58922
1421.35200	0.58794
1419.42344	0.58653
1417.49487	0.58487
1415.56631	0.58317
1413.63774	0.58158
1411.70918	0.58005
1409.78062	0.57860
1407.85205	0.57724
1405.92349	0.57598
1403.99492	0.57478
1402.06636	0.57362
1400.13779	0.57251
1398.20923	0.57126
1396.28066	0.56995
1394.35210	0.56873
1392.42354	0.56744
1390.49497	0.56613
1388.56641	0.56498
1386.63784	0.56379
1384.70928	0.56245
1382.78071	0.56123
1380.85215	0.56023
1378.92358	0.55929
1376.99502	0.55826
1375.06646	0.55732
1373.13789	0.55641
1371.20933	0.55543
1369.28076	0.55453
1367.35220	0.55357
1365.42363	0.55248
1363.49507	0.55135
1361.56650	0.55041
1359.63794	0.54971
1357.70937	0.54896
1355.78081	0.54808
1353.85225	0.54728
1351.92368	0.54654
1349.99512	0.54581
1348.06655	0.54505
1346.13799	0.54415
1344.20942	0.54313
1342.28086	0.54219
1340.35229	0.54133
1338.42373	0.54040
1336.49517	0.53947
1334.56660	0.53873
1332.63804	0.53809
1330.70947	0.53736
1328.78091	0.53657
1326.85234	0.53578
1324.92378	0.53485
1322.99521	0.53376
1321.06665	0.53270
1319.13809	0.53179
1317.20952	0.53104
1315.28096	0.53041
1313.35239	0.52978
1311.42383	0.52906
1309.49526	0.52820
1307.56670	0.52734
1305.63813	0.52663
1303.70957	0.52604
1301.78101	0.52544
1299.85244	0.52483
1297.92388	0.52418
1295.99531	0.52345
1294.06675	0.52278
1292.13818	0.52222
1290.20962	0.52167
1288.28105	0.52110
1286.35249	0.52056
1284.42393	0.52014
1282.49536	0.51973
1280.56680	0.51929
1278.63823	0.51892
1276.70967	0.51856
1274.78110	0.51804
1272.85254	0.51746
1270.92397	0.51707
1268.99541	0.51667
1267.06685	0.51614
1265.13828	0.51561
1263.20972	0.51513
1261.28115	0.51473
1259.35259	0.51440
1257.42402	0.51408
1255.49546	0.51383
1253.56689	0.51351
1251.63833	0.51305
1249.70977	0.51269
1247.78120	0.51250
1245.85264	0.51236
1243.92407	0.51214
1241.99551	0.51174
1240.06694	0.51122
1238.13838	0.51079
1236.20981	0.51039
1234.28125	0.50985
1232.35269	0.50917
1230.42412	0.50850
1228.49556	0.50802
1226.56699	0.50763
1224.63843	0.50723
1222.70986	0.50678
1220.78130	0.50617
1218.85273	0.50551
1216.92417	0.50500
1214.99561	0.50446
1213.06704	0.50384
1211.13848	0.50326
1209.20991	0.50268
1207.28135	0.50211
1205.35278	0.50153
1203.42422	0.50093
1201.49565	0.50031
1199.56709	0.49968
1197.63853	0.49913
1195.70996	0.49865
1193.78140	0.49820
1191.85283	0.49776
1189.92427	0.49730
1187.99570	0.49689
1186.06714	0.49666
1184.13857	0.49654
1182.21001	0.49647
1180.28145	0.49658
1178.35288	0.49683
1176.42432	0.49708
1174.49575	0.49744
1172.56719	0.49788
1170.63862	0.49818
1168.71006	0.49839
1166.78149	0.49860
1164.85293	0.49872
1162.92437	0.49880
1160.99580	0.49880
1159.06724	0.49860
1157.13867	0.49806
1155.21011	0.49713
1153.28154	0.49593
1151.35298	0.49456
1149.42441	0.49299
1147.49585	0.49114
1145.56729	0.48909
1143.63872	0.48698
1141.71016	0.48473
1139.78159	0.48232
1137.85303	0.47990
1135.92446	0.47762
1133.99590	0.47555
1132.06733	0.47369
1130.13877	0.47205
1128.21021	0.47052
1126.28164	0.46916
1124.35308	0.46813
1122.42451	0.46727
1120.49595	0.46625
1118.56738	0.46527
1116.63882	0.46491
1114.71025	0.46503
1112.78169	0.46515
1110.85312	0.46527
1108.92456	0.46572
1106.99600	0.46665
1105.06743	0.46776
1103.13887	0.46905
1101.21030	0.47093
1099.28174	0.47328
1097.35317	0.47582
1095.42461	0.47894
1093.49604	0.48285
1091.56748	0.48712
1089.63892	0.49167
1087.71035	0.49675
1085.78179	0.50239
1083.85322	0.50860
1081.92466	0.51518
1079.99609	0.52110
1078.06753	0.52519
1076.13896	0.52704
1074.21040	0.52628
1072.28184	0.52257
1070.35327	0.51652
1068.42471	0.50958
1066.49614	0.50292
1064.56758	0.49663
1062.63901	0.49077
1060.71045	0.48566
1058.78188	0.48125
1056.85332	0.47733
1054.92476	0.47407
1052.99619	0.47132
1051.06763	0.46876
1049.13906	0.46665
1047.21050	0.46497
1045.28193	0.46331
1043.35337	0.46185
1041.42480	0.46102
1039.49624	0.46062
1037.56768	0.46031
1035.63911	0.46014
1033.71055	0.46008
1031.78198	0.46016
1029.85342	0.46048
1027.92485	0.46091
1025.99629	0.46144
1024.06772	0.46215
1022.13916	0.46292
1020.21060	0.46367
1018.28203	0.46470
1016.35347	0.46615
1014.42490	0.46769
1012.49634	0.46909
1010.56777	0.47052
1008.63921	0.47217
1006.71064	0.47401
1004.78208	0.47592
1002.85352	0.47815
1000.92495	0.48082
998.99639	0.48381
997.06782	0.48719
995.13926	0.49102
993.21069	0.49499
991.28213	0.49840
989.35356	0.50091
987.42500	0.50271
985.49644	0.50412
983.56787	0.50539
981.63931	0.50670
979.71074	0.50827
977.78218	0.51028
975.85361	0.51269
973.92505	0.51542
971.99648	0.51848
970.06792	0.52198
968.13936	0.52593
966.21079	0.53038
964.28223	0.53524
962.35366	0.54014
960.42510	0.54497
958.49653	0.55010
956.56797	0.55587
954.63940	0.56218
952.71084	0.56873
950.78228	0.57518
948.85371	0.58145
946.92515	0.58756
944.99658	0.59360
943.06802	0.59960
941.13945	0.60533
939.21089	0.61082
937.28232	0.61665
935.35376	0.62291
933.42520	0.62902
931.49663	0.63477
929.56807	0.64027
927.63950	0.64575
925.71094	0.65144
923.78237	0.65766
921.85381	0.66446
919.92524	0.67111
917.99668	0.67722
916.06812	0.68369
914.13955	0.69121
912.21099	0.69959
910.28242	0.70862
908.35386	0.71762
906.42529	0.72588
904.49673	0.73400
902.56816	0.74245
900.63960	0.75134
898.71104	0.76142
896.78247	0.77262
894.85391	0.78377
892.92534	0.79390
890.99678	0.80305
889.06821	0.81284
887.13965	0.82365
885.21108	0.83465
883.28252	0.84561
881.35396	0.85608
879.42539	0.86732
877.49683	0.88000
875.56826	0.89270
873.63970	0.90452
871.71113	0.91455
869.78257	0.92433
867.85400	0.93681
865.92544	0.95077
863.99687	0.96295
862.06831	0.97300
860.13975	0.98293
858.21118	0.99465
856.28262	1.00779
854.35405	1.02005
852.42549	1.02958
850.49692	1.03711
848.56836	1.04772
846.63979	1.06278
844.71123	1.07573
842.78267	1.08474
840.85410	1.09345
838.92554	1.10225
836.99697	1.11166
835.06841	1.12341
833.13984	1.13738
831.21128	1.15058
829.28271	1.16180
827.35415	1.17522
825.42559	1.18934
823.49702	1.19658
821.56846	1.20208
819.63989	1.21276
817.71133	1.22039
815.78276	1.22338
813.85420	1.22750
811.92563	1.23362
809.99707	1.24758
808.06851	1.27365
806.13994	1.30441
804.21138	1.32584
802.28281	1.32839
800.35425	1.31556
798.42568	1.30984
796.49712	1.31253
794.56855	1.29567
792.63999	1.27595
790.71143	1.29597
788.78286	1.34106
786.85430	1.35576
784.92573	1.36417
782.99717	1.37990
781.06860	1.34165
779.14004	1.29078
777.21147	1.28390
775.28291	1.29156
773.35435	1.29534
771.42578	1.31863
769.49722	1.32188
767.56865	1.28399
765.64009	1.26771
763.71152	1.27847
761.78296	1.26515
759.85439	1.26666
757.92583	1.25536
755.99727	1.14692
754.06870	1.08210
752.14014	1.15762
750.21157	1.32711
748.28301	1.30112
746.35444	1.12845
744.42588	1.01213
742.49731	0.89374
740.56875	0.79992
738.64019	0.85283
736.71162	1.00165
734.78306	0.83064
732.85449	0.54797
730.92593	0.36440
728.99736	0.17403
727.06880	-0.28442
725.14023	4.35084
723.21167	4.33927
721.28311	4.32770
719.35454	4.31613
717.42598	-0.35573
715.49741	-0.03264
713.56885	0.18815
711.64028	0.35574
709.71172	0.38131
707.78315	0.34748
705.85459	0.35490
703.92603	0.38529
701.99746	0.42666
700.06890	0.51060
698.14033	0.60691
696.21177	0.60611
694.28320	0.54119
692.35464	0.48827
690.42607	0.44240
688.49751	0.38806
686.56895	0.32880
684.64038	0.28261
682.71182	0.28879
680.78325	0.36304
678.85469	0.47518
676.92612	0.59649
674.99756	0.65623
673.06899	0.59287
671.14043	0.53010
669.21187	0.54886
667.28330	0.58016
665.35474	0.53155
663.42617	0.47810
661.49761	0.48611
659.56904	0.54835
657.64048	0.56817
655.71191	0.52889
653.78335	0.52803
651.85479	0.54344
649.92622	0.48927
647.99766	0.41946
646.06909	0.42285
644.14053	0.44786
642.21196	0.43302
640.28340	0.46574
638.35483	0.65244
636.42627	0.89437
634.49771	0.64985
632.56914	0.46472
630.64058	0.40417
628.71201	0.42254
626.78345	0.42937
624.85488	0.38562
622.92632	0.37862
620.99775	0.44455
619.06919	0.57136
617.14062	0.60988
615.21206	0.46943
613.28350	0.36177
611.35493	0.36523
609.42637	0.43724
607.49780	0.49837
605.56924	0.54931
603.64067	0.64589
601.71211	0.76958
599.78354	0.73134
597.85498	0.56524
595.92642	0.48588
593.99785	0.45783
592.06929	0.43671
590.14072	0.44068
588.21216	0.42000
586.28359	0.36367
584.35503	0.33547
582.42646	0.35708
580.49790	0.41695
578.56934	0.44570
576.64077	0.39859
574.71221	0.36291
572.78364	0.38667
570.85508	0.42601
568.92651	0.38296
566.99795	0.29831
565.06938	0.26201
563.14082	0.30300
561.21226	0.39599
559.28369	0.44961
557.35513	0.46778
555.42656	0.47427
553.49800	0.40380
551.56943	0.31476
549.64087	0.26990
547.71230	0.30149
545.78374	0.41142
543.85518	0.47156
541.92661	0.43323
539.99805	0.42336
538.06948	0.41561
536.14092	0.36010
534.21235	0.32261
532.28379	0.34847
530.35522	0.41059
528.42666	0.38789
526.49810	0.34179
524.56953	0.35664
522.64097	0.39350
520.71240	0.42868
518.78384	0.45578
516.85527	0.46965
514.92671	0.50834
512.99814	0.60456
511.06958	0.67003
509.14102	0.52788
507.21245	0.40130
505.28389	0.36509
503.35532	0.37924
501.42676	0.37248
499.49819	0.34425
