3997.91411	0.06489
3995.98555	0.06512
3994.05698	0.06543
3992.12842	0.06544
3990.19985	0.06515
3988.27129	0.06528
3986.34272	0.06592
3984.41416	0.06659
3982.48560	0.06691
3980.55703	0.06690
3978.62847	0.06696
3976.69990	0.06748
3974.77134	0.06817
3972.84277	0.06840
3970.91421	0.06816
3968.98564	0.06781
3967.05708	0.06745
3965.12852	0.06736
3963.19995	0.06789
3961.27139	0.06859
3959.34282	0.06883
3957.41426	0.06874
3955.48569	0.06888
3953.55713	0.06931
3951.62856	0.06943
3949.70000	0.06908
3947.77144	0.06879
3945.84287	0.06888
3943.91431	0.06927
3941.98574	0.06950
3940.05718	0.06903
3938.12861	0.06850
3936.20005	0.06857
3934.27148	0.06872
3932.34292	0.06862
3930.41436	0.06859
3928.48579	0.06845
3926.55723	0.06806
3924.62866	0.06798
3922.70010	0.06816
3920.77153	0.06807
3918.84297	0.06803
3916.91440	0.06848
3914.98584	0.06879
3913.05728	0.06851
3911.12871	0.06832
3909.20015	0.06831
3907.27158	0.06798
3905.34302	0.06773
3903.41445	0.06794
3901.48589	0.06804
3899.55732	0.06786
3897.62876	0.06775
3895.70020	0.06774
3893.77163	0.06783
3891.84307	0.06830
3889.91450	0.06879
3887.98594	0.06851
3886.05737	0.06838
3884.12881	0.06908
3882.20024	0.06977
3880.27168	0.06987
3878.34312	0.06932
3876.41455	0.06857
3874.48599	0.06858
3872.55742	0.06956
3870.62886	0.07061
3868.70029	0.07114
3866.77173	0.07095
3864.84316	0.07070
3862.91460	0.07109
3860.98604	0.07154
3859.05747	0.07142
3857.12891	0.07131
3855.20034	0.07211
3853.27178	0.07388
3851.34321	0.07460
3849.41465	0.07406
3847.48608	0.07402
3845.55752	0.07429
3843.62896	0.07473
3841.70039	0.07562
3839.77183	0.07685
3837.84326	0.07834
3835.91470	0.07948
3833.98613	0.07962
3832.05757	0.07934
3830.12900	0.07932
3828.20044	0.07970
3826.27187	0.08057
3824.34331	0.08157
3822.41475	0.08247
3820.48618	0.08405
3818.55762	0.08542
3816.62905	0.08583
3814.70049	0.08636
3812.77192	0.08661
3810.84336	0.08645
3808.91479	0.08677
3806.98623	0.08828
3805.05767	0.09038
3803.12910	0.09172
3801.20054	0.09316
3799.27197	0.09482
3797.34341	0.09548
3795.41484	0.09595
3793.48628	0.09673
3791.55771	0.09775
3789.62915	0.09900
3787.70059	0.10011
3785.77202	0.10132
3783.84346	0.10298
3781.91489	0.10460
3779.98633	0.10617
3778.05776	0.10810
3776.12920	0.10976
3774.20063	0.11095
3772.27207	0.11209
3770.34351	0.11368
3768.41494	0.11617
3766.48638	0.11856
3764.55781	0.12030
3762.62925	0.12188
3760.70068	0.12376
3758.77212	0.12640
3756.84355	0.12923
3754.91499	0.13119
3752.98643	0.13285
3751.05786	0.13558
3749.12930	0.14004
3747.20073	0.14349
3745.27217	0.14547
3743.34360	0.14881
3741.41504	0.15301
3739.48647	0.15611
3737.55791	0.15931
3735.62935	0.16413
3733.70078	0.17017
3731.77222	0.17478
3729.84365	0.17819
3727.91509	0.18203
3725.98652	0.18737
3724.05796	0.19391
3722.12939	0.20019
3720.20083	0.20628
3718.27227	0.21292
3716.34370	0.22033
3714.41514	0.22810
3712.48657	0.23720
3710.55801	0.25003
3708.62944	0.26459
3706.70088	0.27650
3704.77231	0.28733
3702.84375	0.30010
3700.91519	0.31663
3698.98662	0.33438
3697.05806	0.35124
3695.12949	0.36943
3693.20093	0.38868
3691.27236	0.40920
3689.34380	0.43566
3687.41523	0.46901
3685.48667	0.49937
3683.55811	0.52580
3681.62954	0.55370
3679.70098	0.58463
3677.77241	0.61668
3675.84385	0.65400
3673.91528	0.70494
3671.98672	0.74815
3670.05815	0.78638
3668.12959	0.83798
3666.20103	0.88586
3664.27246	0.92645
3662.34390	0.96971
3660.41533	1.01617
3658.48677	1.06182
3656.55820	1.10987
3654.62964	1.16328
3652.70107	1.20876
3650.77251	1.24886
3648.84395	1.30369
3646.91538	1.37044
3644.98682	1.42038
3643.05825	1.45932
3641.12969	1.49918
3639.20112	1.54312
3637.27256	1.58691
3635.34399	1.62902
3633.41543	1.67142
3631.48687	1.71125
3629.55830	1.75106
3627.62974	1.80409
3625.70117	1.85499
3623.77261	1.88913
3621.84404	1.92112
3619.91548	1.95829
3617.98691	2.00420
3616.05835	2.04790
3614.12979	2.08317
3612.20122	2.12045
3610.27266	2.15917
3608.34409	2.19876
3606.41553	2.24072
3604.48696	2.27932
3602.55840	2.31429
3600.62983	2.35325
3598.70127	2.39563
3596.77271	2.43649
3594.84414	2.47779
3592.91558	2.51874
3590.98701	2.55563
3589.05845	2.59097
3587.12988	2.63474
3585.20132	2.68381
3583.27275	2.72574
3581.34419	2.76383
3579.41562	2.80374
3577.48706	2.84479
3575.55850	2.88543
3573.62993	2.92816
3571.70137	2.97098
3569.77280	3.01183
3567.84424	3.05621
3565.91567	3.10943
3563.98711	3.15789
3562.05854	3.19835
3560.12998	3.24219
3558.20142	3.28952
3556.27285	3.33547
3554.34429	3.37837
3552.41572	3.42305
3550.48716	3.47216
3548.55859	3.52154
3546.63003	3.56710
3544.70146	3.61049
3542.77290	3.65450
3540.84434	3.69971
3538.91577	3.74660
3536.98721	3.79454
3535.05864	3.84458
3533.13008	3.89324
3531.20151	3.93642
3529.27295	3.97955
3527.34438	4.03046
3525.41582	4.08381
3523.48726	4.13253
3521.55869	4.18127
3519.63013	4.23270
3517.70156	4.28207
3515.77300	4.32739
3513.84443	4.37527
3511.91587	4.42713
3509.98730	4.48141
3508.05874	4.53584
3506.13018	4.58080
3504.20161	4.61687
3502.27305	4.65661
3500.34448	4.70393
3498.41592	4.75225
3496.48735	4.80166
3494.55879	4.85563
3492.63022	4.90935
3490.70166	4.95738
3488.77310	5.00386
3486.84453	5.05148
3484.91597	5.09813
3482.98740	5.14860
3481.05884	5.20341
3479.13027	5.24954
3477.20171	5.29010
3475.27314	5.33925
3473.34458	5.39574
3471.41602	5.45095
3469.48745	5.49620
3467.55889	5.53158
3465.63032	5.57507
3463.70176	5.63973
3461.77319	5.70594
3459.84463	5.75627
3457.91606	5.79858
3455.98750	5.84589
3454.05894	5.89926
3452.13037	5.94704
3450.20181	5.99058
3448.27324	6.03776
3446.34468	6.09467
3444.41611	6.16411
3442.48755	6.23951
3440.55898	6.30555
3438.63042	6.35841
3436.70186	6.39990
3434.77329	6.43051
3432.84473	6.46779
3430.91616	6.51460
3428.98760	6.56859
3427.05903	6.62053
3425.13047	6.65177
3423.20190	6.67810
3421.27334	6.73261
3419.34478	6.81154
3417.41621	6.88554
3415.48765	6.94872
3413.55908	7.02008
3411.63052	7.09419
3409.70195	7.12691
3407.77339	7.13124
3405.84482	7.14797
3403.91626	7.17484
3401.98770	7.19909
3400.05913	7.24789
3398.13057	7.32984
3396.20200	7.37991
3394.27344	7.37825
3392.34487	7.38724
3390.41631	7.45470
3388.48774	7.53692
3386.55918	7.57378
3384.63062	7.58049
3382.70205	7.59892
3380.77349	7.61628
3378.84492	7.63344
3376.91636	7.70055
3374.98779	7.78454
3373.05923	7.82621
3371.13066	7.81665
3369.20210	7.80833
3367.27354	7.86956
3365.34497	7.99272
3363.41641	8.08569
3361.48784	8.10680
3359.55928	8.11538
3357.63071	8.14629
3355.70215	8.18818
3353.77358	8.18200
3351.84502	8.12559
3349.91646	8.06615
3347.98789	8.04957
3346.05933	8.08052
3344.13076	8.13340
3342.20220	8.20609
3340.27363	8.28230
3338.34507	8.31601
3336.41650	8.24014
3334.48794	8.14862
3332.55937	8.13658
3330.63081	8.14297
3328.70225	8.12083
3326.77368	8.11715
3324.84512	8.12471
3322.91655	8.06985
3320.98799	8.02015
3319.05942	8.07945
3317.13086	8.22333
3315.20229	8.30449
3313.27373	8.26118
3311.34517	8.16969
3309.41660	8.11389
3307.48804	8.13484
3305.55947	8.17237
3303.63091	8.19345
3301.70234	8.23920
3299.77378	8.29513
3297.84521	8.31817
3295.91665	8.34279
3293.98809	8.35842
3292.05952	8.36178
3290.13096	8.40441
3288.20239	8.48090
3286.27383	8.52723
3284.34526	8.48889
3282.41670	8.47487
3280.48813	8.50592
3278.55957	8.45801
3276.63101	8.37544
3274.70244	8.39785
3272.77388	8.50187
3270.84531	8.57187
3268.91675	8.59984
3266.98818	8.59536
3265.05962	8.62694
3263.13105	8.66896
3261.20249	8.54272
3259.27393	8.34415
3257.34536	8.24491
3255.41680	8.23455
3253.48823	8.34149
3251.55967	8.55195
3249.63110	8.62090
3247.70254	8.55761
3245.77397	8.56547
3243.84541	8.56284
3241.91685	8.43714
3239.98828	8.29029
3238.05972	8.23991
3236.13115	8.33183
3234.20259	8.50164
3232.27402	8.57633
3230.34546	8.55792
3228.41689	8.53083
3226.48833	8.48166
3224.55977	8.47264
3222.63120	8.50056
3220.70264	8.44379
3218.77407	8.32198
3216.84551	8.19649
3214.91694	8.06724
3212.98838	7.98486
3211.05981	8.00253
3209.13125	8.09632
3207.20269	8.14142
3205.27412	8.06866
3203.34556	8.00075
3201.41699	8.00941
3199.48843	8.00665
3197.55986	7.93399
3195.63130	7.86401
3193.70273	7.81413
3191.77417	7.73560
3189.84561	7.65519
3187.91704	7.61870
3185.98848	7.62178
3184.05991	7.61967
3182.13135	7.58591
3180.20278	7.52096
3178.27422	7.43697
3176.34565	7.37895
3174.41709	7.34209
3172.48853	7.28247
3170.55996	7.20232
3168.63140	7.13974
3166.70283	7.09882
3164.77427	7.04639
3162.84570	6.97480
3160.91714	6.88400
3158.98857	6.78572
3157.06001	6.71700
3155.13145	6.66134
3153.20288	6.56609
3151.27432	6.46442
3149.34575	6.39575
3147.41719	6.32952
3145.48862	6.25477
3143.56006	6.18944
3141.63149	6.13570
3139.70293	6.08170
3137.77437	6.02397
3135.84580	5.96081
3133.91724	5.88538
3131.98867	5.80642
3130.06011	5.73000
3128.13154	5.64452
3126.20298	5.55609
3124.27441	5.48330
3122.34585	5.42031
3120.41729	5.35704
3118.48872	5.28708
3116.56016	5.20587
3114.63159	5.12847
3112.70303	5.06231
3110.77446	4.99387
3108.84590	4.91959
3106.91733	4.84592
3104.98877	4.77484
3103.06021	4.70885
3101.13164	4.64360
3099.20308	4.57262
3097.27451	4.50209
3095.34595	4.43497
3093.41738	4.36641
3091.48882	4.29909
3089.56025	4.23719
3087.63169	4.17666
3085.70312	4.11197
3083.77456	4.04442
3081.84600	3.97863
3079.91743	3.91452
3077.98887	3.85275
3076.06030	3.79415
3074.13174	3.73453
3072.20317	3.67340
3070.27461	3.61296
3068.34604	3.55236
3066.41748	3.49302
3064.48892	3.43645
3062.56035	3.38103
3060.63179	3.32697
3058.70322	3.27298
3056.77466	3.21688
3054.84609	3.16120
3052.91753	3.10769
3050.98896	3.05430
3049.06040	3.00083
3047.13184	2.94966
3045.20327	2.90089
3043.27471	2.85334
3041.34614	2.80585
3039.41758	2.75703
3037.48901	2.70800
3035.56045	2.66105
3033.63188	2.61676
3031.70332	2.57318
3029.77476	2.52769
3027.84619	2.48133
3025.91763	2.43710
3023.98906	2.39463
3022.06050	2.35201
3020.13193	2.30964
3018.20337	2.26910
3016.27480	2.23038
3014.34624	2.19207
3012.41768	2.15331
3010.48911	2.11402
3008.56055	2.07535
3006.63198	2.03830
3004.70342	2.00212
3002.77485	1.96600
3000.84629	1.93015
2998.91772	1.89526
2996.98916	1.86173
2995.06060	1.82903
2993.13203	1.79659
2991.20347	1.76477
2989.27490	1.73372
2987.34634	1.70333
2985.41777	1.67383
2983.48921	1.64468
2981.56064	1.61537
2979.63208	1.58648
2977.70352	1.55858
2975.77495	1.53152
2973.84639	1.50493
2971.91782	1.47875
2969.98926	1.45271
2968.06069	1.42660
2966.13213	1.40104
2964.20356	1.37656
2962.27500	1.35275
2960.34644	1.32903
2958.41787	1.30518
2956.48931	1.28173
2954.56074	1.25930
2952.63218	1.23695
2950.70361	1.21400
2948.77505	1.19161
2946.84648	1.17009
2944.91792	1.14882
2942.98936	1.12788
2941.06079	1.10746
2939.13223	1.08738
2937.20366	1.06790
2935.27510	1.04904
2933.34653	1.03014
2931.41797	1.01130
2929.48940	0.99278
2927.56084	0.97424
2925.63228	0.95578
2923.70371	0.93826
2921.77515	0.92217
2919.84658	0.90630
2917.91802	0.88962
2915.98945	0.87295
2914.06089	0.85691
2912.13232	0.84138
2910.20376	0.82671
2908.27520	0.81274
2906.34663	0.79855
2904.41807	0.78398
2902.48950	0.77000
2900.56094	0.75688
2898.63237	0.74398
2896.70381	0.73138
2894.77524	0.71933
2892.84668	0.70733
2890.91812	0.69521
2888.98955	0.68334
2887.06099	0.67184
2885.13242	0.66073
2883.20386	0.65018
2881.27529	0.64014
2879.34673	0.63016
2877.41816	0.62015
2875.48960	0.61023
2873.56104	0.60024
2871.63247	0.58994
2869.70391	0.57945
2867.77534	0.56899
2865.84678	0.55859
2863.91821	0.54837
2861.98965	0.53845
2860.06108	0.52864
2858.13252	0.51896
2856.20396	0.50988
2854.27539	0.50140
2852.34683	0.49312
2850.41826	0.48499
2848.48970	0.47701
2846.56113	0.46908
2844.63257	0.46136
2842.70400	0.45417
2840.77544	0.44758
2838.84687	0.44119
2836.91831	0.43483
2834.98975	0.42857
2833.06118	0.42249
2831.13262	0.41660
2829.20405	0.41066
2827.27549	0.40459
2825.34692	0.39864
2823.41836	0.39287
2821.48979	0.38710
2819.56123	0.38118
2817.63267	0.37530
2815.70410	0.36983
2813.77554	0.36468
2811.84697	0.35943
2809.91841	0.35415
2807.98984	0.34918
2806.06128	0.34424
2804.13271	0.33904
2802.20415	0.33396
2800.27559	0.32923
2798.34702	0.32472
2796.41846	0.32027
2794.48989	0.31572
2792.56133	0.31108
2790.63276	0.30653
2788.70420	0.30231
2786.77563	0.29841
2784.84707	0.29441
2782.91851	0.29024
2780.98994	0.28622
2779.06138	0.28235
2777.13281	0.27849
2775.20425	0.27469
2773.27568	0.27116
2771.34712	0.26776
2769.41855	0.26424
2767.48999	0.26071
2765.56143	0.25739
2763.63286	0.25418
2761.70430	0.25100
2759.77573	0.24804
2757.84717	0.24513
2755.91860	0.24205
2753.99004	0.23904
2752.06147	0.23618
2750.13291	0.23335
2748.20435	0.23067
2746.27578	0.22814
2744.34722	0.22562
2742.41865	0.22311
2740.49009	0.22054
2738.56152	0.21795
2736.63296	0.21557
2734.70439	0.21337
2732.77583	0.21120
2730.84727	0.20900
2728.91870	0.20679
2726.99014	0.20461
2725.06157	0.20249
2723.13301	0.20051
2721.20444	0.19870
2719.27588	0.19682
2717.34731	0.19483
2715.41875	0.19304
2713.49019	0.19140
2711.56162	0.18952
2709.63306	0.18756
2707.70449	0.18602
2705.77593	0.18474
2703.84736	0.18321
2701.91880	0.18147
2699.99023	0.17991
2698.06167	0.17860
2696.13311	0.17732
2694.20454	0.17584
2692.27598	0.17426
2690.34741	0.17295
2688.41885	0.17184
2686.49028	0.17058
2684.56172	0.16920
2682.63315	0.16792
2680.70459	0.16679
2678.77603	0.16579
2676.84746	0.16491
2674.91890	0.16402
2672.99033	0.16290
2671.06177	0.16167
2669.13320	0.16064
2667.20464	0.15981
2665.27607	0.15894
2663.34751	0.15803
2661.41895	0.15723
2659.49038	0.15648
2657.56182	0.15566
2655.63325	0.15477
2653.70469	0.15394
2651.77612	0.15334
2649.84756	0.15292
2647.91899	0.15251
2645.99043	0.15204
2644.06187	0.15136
2642.13330	0.15064
2640.20474	0.15018
2638.27617	0.14980
2636.34761	0.14933
2634.41904	0.14901
2632.49048	0.14875
2630.56191	0.14826
2628.63335	0.14772
2626.70479	0.14731
2624.77622	0.14703
2622.84766	0.14691
2620.91909	0.14682
2618.99053	0.14664
2617.06196	0.14629
2615.13340	0.14595
2613.20483	0.14581
2611.27627	0.14577
2609.34771	0.14575
2607.41914	0.14574
2605.49058	0.14568
2603.56201	0.14557
2601.63345	0.14553
2599.70488	0.14556
2597.77632	0.14570
2595.84775	0.14592
2593.91919	0.14607
2591.99062	0.14610
2590.06206	0.14606
2588.13350	0.14610
2586.20493	0.14633
2584.27637	0.14667
2582.34780	0.14698
2580.41924	0.14730
2578.49067	0.14763
2576.56211	0.14795
2574.63354	0.14825
2572.70498	0.14853
2570.77642	0.14891
2568.84785	0.14933
2566.91929	0.14965
2564.99072	0.14997
2563.06216	0.15059
2561.13359	0.15137
2559.20503	0.15194
2557.27646	0.15236
2555.34790	0.15274
2553.41934	0.15313
2551.49077	0.15358
2549.56221	0.15418
2547.63364	0.15498
2545.70508	0.15570
2543.77651	0.15621
2541.84795	0.15682
2539.91938	0.15755
2537.99082	0.15818
2536.06226	0.15865
2534.13369	0.15916
2532.20513	0.15992
2530.27656	0.16081
2528.34800	0.16162
2526.41943	0.16239
2524.49087	0.16320
2522.56230	0.16390
2520.63374	0.16453
2518.70518	0.16530
2516.77661	0.16614
2514.84805	0.16692
2512.91948	0.16764
2510.99092	0.16837
2509.06235	0.16921
2507.13379	0.17003
2505.20522	0.17076
2503.27666	0.17157
2501.34810	0.17254
2499.41953	0.17352
2497.49097	0.17439
2495.56240	0.17516
2493.63384	0.17588
2491.70527	0.17666
2489.77671	0.17763
2487.84814	0.17882
2485.91958	0.17995
2483.99102	0.18081
2482.06245	0.18156
2480.13389	0.18238
2478.20532	0.18330
2476.27676	0.18420
2474.34819	0.18504
2472.41963	0.18583
2470.49106	0.18659
2468.56250	0.18757
2466.63394	0.18868
2464.70537	0.18968
2462.77681	0.19058
2460.84824	0.19150
2458.91968	0.19243
2456.99111	0.19343
2455.06255	0.19453
2453.13398	0.19565
2451.20542	0.19671
2449.27686	0.19766
2447.34829	0.19859
2445.41973	0.19953
2443.49116	0.20044
2441.56260	0.20136
2439.63403	0.20233
2437.70547	0.20340
2435.77690	0.20454
2433.84834	0.20566
2431.91978	0.20675
2429.99121	0.20784
2428.06265	0.20886
2426.13408	0.20986
2424.20552	0.21094
2422.27695	0.21203
2420.34839	0.21316
2418.41982	0.21434
2416.49126	0.21544
2414.56270	0.21647
2412.63413	0.21760
2410.70557	0.21884
2408.77700	0.22003
2406.84844	0.22116
2404.91987	0.22233
2402.99131	0.22346
2401.06274	0.22454
2399.13418	0.22570
2397.20562	0.22703
2395.27705	0.22848
2393.34849	0.22987
2391.41992	0.23108
2389.49136	0.23221
2387.56279	0.23351
2385.63423	0.23501
2383.70566	0.23681
2381.77710	0.23905
2379.84854	0.24159
2377.91997	0.24416
2375.99141	0.24679
2374.06284	0.24965
2372.13428	0.25268
2370.20571	0.25586
2368.27715	0.25939
2366.34858	0.26317
2364.42002	0.26660
2362.49146	0.26948
2360.56289	0.27195
2358.63433	0.27362
2356.70576	0.27397
2354.77720	0.27352
2352.84863	0.27300
2350.92007	0.27215
2348.99150	0.27153
2347.06294	0.27228
2345.13437	0.27511
2343.20581	0.27895
2341.27725	0.28134
2339.34868	0.28230
2337.42012	0.28313
2335.49155	0.28480
2333.56299	0.28683
2331.63442	0.28821
2329.70586	0.28911
2327.77729	0.29027
2325.84873	0.29155
2323.92017	0.29255
2321.99160	0.29344
2320.06304	0.29449
2318.13447	0.29558
2316.20591	0.29641
2314.27734	0.29712
2312.34878	0.29808
2310.42021	0.29947
2308.49165	0.30108
2306.56309	0.30265
2304.63452	0.30397
2302.70596	0.30522
2300.77739	0.30675
2298.84883	0.30841
2296.92026	0.30990
2294.99170	0.31132
2293.06313	0.31297
2291.13457	0.31478
2289.20601	0.31651
2287.27744	0.31813
2285.34888	0.31981
2283.42031	0.32158
2281.49175	0.32343
2279.56318	0.32549
2277.63462	0.32772
2275.70605	0.32990
2273.77749	0.33196
2271.84893	0.33396
2269.92036	0.33610
2267.99180	0.33833
2266.06323	0.34049
2264.13467	0.34249
2262.20610	0.34440
2260.27754	0.34639
2258.34897	0.34848
2256.42041	0.35075
2254.49185	0.35308
2252.56328	0.35522
2250.63472	0.35726
2248.70615	0.35933
2246.77759	0.36143
2244.84902	0.36355
2242.92046	0.36571
2240.99189	0.36792
2239.06333	0.37019
2237.13477	0.37251
2235.20620	0.37474
2233.27764	0.37681
2231.34907	0.37896
2229.42051	0.38128
2227.49194	0.38365
2225.56338	0.38594
2223.63481	0.38809
2221.70625	0.39024
2219.77769	0.39243
2217.84912	0.39450
2215.92056	0.39655
2213.99199	0.39878
2212.06343	0.40103
2210.13486	0.40314
2208.20630	0.40531
2206.27773	0.40751
2204.34917	0.40959
2202.42061	0.41161
2200.49204	0.41364
2198.56348	0.41570
2196.63491	0.41776
2194.70635	0.41975
2192.77778	0.42165
2190.84922	0.42350
2188.92065	0.42530
2186.99209	0.42707
2185.06353	0.42888
2183.13496	0.43070
2181.20640	0.43249
2179.27783	0.43417
2177.34927	0.43570
2175.42070	0.43721
2173.49214	0.43877
2171.56357	0.44024
2169.63501	0.44160
2167.70645	0.44286
2165.77788	0.44404
2163.84932	0.44527
2161.92075	0.44658
2159.99219	0.44773
2158.06362	0.44865
2156.13506	0.44957
2154.20649	0.45046
2152.27793	0.45120
2150.34937	0.45199
2148.42080	0.45276
2146.49224	0.45330
2144.56367	0.45366
2142.63511	0.45397
2140.70654	0.45426
2138.77798	0.45456
2136.84941	0.45482
2134.92085	0.45488
2132.99229	0.45473
2131.06372	0.45447
2129.13516	0.45416
2127.20659	0.45386
2125.27803	0.45367
2123.34946	0.45346
2121.42090	0.45305
2119.49233	0.45237
2117.56377	0.45159
2115.63521	0.45089
2113.70664	0.45020
2111.77808	0.44932
2109.84951	0.44815
2107.92095	0.44693
2105.99238	0.44578
2104.06382	0.44457
2102.13525	0.44331
2100.20669	0.44209
2098.27812	0.44077
2096.34956	0.43924
2094.42100	0.43766
2092.49243	0.43609
2090.56387	0.43441
2088.63530	0.43255
2086.70674	0.43067
2084.77817	0.42883
2082.84961	0.42696
2080.92104	0.42499
2078.99248	0.42296
2077.06392	0.42081
2075.13535	0.41860
2073.20679	0.41641
2071.27822	0.41417
2069.34966	0.41188
2067.42109	0.40960
2065.49253	0.40736
2063.56396	0.40509
2061.63540	0.40262
2059.70684	0.39991
2057.77827	0.39725
2055.84971	0.39484
2053.92114	0.39244
2051.99258	0.38979
2050.06401	0.38705
2048.13545	0.38446
2046.20688	0.38187
2044.27832	0.37911
2042.34976	0.37632
2040.42119	0.37364
2038.49263	0.37098
2036.56406	0.36831
2034.63550	0.36561
2032.70693	0.36283
2030.77837	0.36004
2028.84980	0.35728
2026.92124	0.35454
2024.99268	0.35181
2023.06411	0.34911
2021.13555	0.34640
2019.20698	0.34369
2017.27842	0.34093
2015.34985	0.33809
2013.42129	0.33524
2011.49272	0.33241
2009.56416	0.32954
2007.63560	0.32671
2005.70703	0.32403
2003.77847	0.32143
2001.84990	0.31887
1999.92134	0.31635
1997.99277	0.31380
1996.06421	0.31125
1994.13564	0.30876
1992.20708	0.30631
1990.27852	0.30378
1988.34995	0.30124
1986.42139	0.29877
1984.49282	0.29638
1982.56426	0.29405
1980.63569	0.29173
1978.70713	0.28938
1976.77856	0.28704
1974.85000	0.28485
1972.92144	0.28281
1970.99287	0.28077
1969.06431	0.27874
1967.13574	0.27667
1965.20718	0.27450
1963.27861	0.27246
1961.35005	0.27055
1959.42148	0.26868
1957.49292	0.26694
1955.56436	0.26526
1953.63579	0.26351
1951.70723	0.26177
1949.77866	0.26013
1947.85010	0.25860
1945.92153	0.25711
1943.99297	0.25565
1942.06440	0.25421
1940.13584	0.25276
1938.20728	0.25134
1936.27871	0.24996
1934.35015	0.24870
1932.42158	0.24761
1930.49302	0.24653
1928.56445	0.24539
1926.63589	0.24428
1924.70732	0.24333
1922.77876	0.24242
1920.85020	0.24144
1918.92163	0.24050
1916.99307	0.23954
1915.06450	0.23854
1913.13594	0.23766
1911.20737	0.23695
1909.27881	0.23632
1907.35024	0.23571
1905.42168	0.23500
1903.49312	0.23427
1901.56455	0.23368
1899.63599	0.23326
1897.70742	0.23286
1895.77886	0.23248
1893.85029	0.23217
1891.92173	0.23188
1889.99316	0.23172
1888.06460	0.23158
1886.13604	0.23130
1884.20747	0.23102
1882.27891	0.23081
1880.35034	0.23068
1878.42178	0.23061
1876.49321	0.23063
1874.56465	0.23070
1872.63608	0.23081
1870.70752	0.23100
1868.77896	0.23147
1866.85039	0.23194
1864.92183	0.23202
1862.99326	0.23200
1861.06470	0.23212
1859.13613	0.23244
1857.20757	0.23278
1855.27900	0.23320
1853.35044	0.23370
1851.42187	0.23433
1849.49331	0.23503
1847.56475	0.23574
1845.63618	0.23651
1843.70762	0.23747
1841.77905	0.23824
1839.85049	0.23867
1837.92192	0.23937
1835.99336	0.24031
1834.06479	0.24136
1832.13623	0.24246
1830.20767	0.24384
1828.27910	0.24524
1826.35054	0.24628
1824.42197	0.24754
1822.49341	0.24890
1820.56484	0.25022
1818.63628	0.25160
1816.70771	0.25319
1814.77915	0.25482
1812.85059	0.25654
1810.92202	0.25848
1808.99346	0.26050
1807.06489	0.26253
1805.13633	0.26453
1803.20776	0.26680
1801.27920	0.26936
1799.35063	0.27217
1797.42207	0.27470
1795.49351	0.27711
1793.56494	0.27989
1791.63638	0.28343
1789.70781	0.28687
1787.77925	0.28948
1785.85068	0.29248
1783.92212	0.29605
1781.99355	0.29998
1780.06499	0.30427
1778.13643	0.30870
1776.20786	0.31279
1774.27930	0.31703
1772.35073	0.32275
1770.42217	0.32916
1768.49360	0.33460
1766.56504	0.33978
1764.63647	0.34509
1762.70791	0.35092
1760.77935	0.35834
1758.85078	0.36535
1756.92222	0.37245
1754.99365	0.38036
1753.06509	0.38753
1751.13652	0.39593
1749.20796	0.40664
1747.27939	0.41731
1745.35083	0.42658
1743.42227	0.43621
1741.49370	0.44678
1739.56514	0.45939
1737.63657	0.47221
1735.70801	0.48329
1733.77944	0.49948
1731.85088	0.51899
1729.92231	0.53458
1727.99375	0.55026
1726.06519	0.56709
1724.13662	0.58538
1722.20806	0.60510
1720.27949	0.62338
1718.35093	0.64473
1716.42236	0.67642
1714.49380	0.70710
1712.56523	0.73204
1710.63667	0.75605
1708.70811	0.78181
1706.77954	0.81103
1704.85098	0.84587
1702.92241	0.87692
1700.99385	0.90757
1699.06528	0.95310
1697.13672	0.99518
1695.20815	1.03847
1693.27959	1.08041
1691.35103	1.11403
1689.42246	1.15241
1687.49390	1.19259
1685.56533	1.23159
1683.63677	1.29229
1681.70820	1.35485
1679.77964	1.39461
1677.85107	1.43293
1675.92251	1.47727
1673.99395	1.53093
1672.06538	1.57808
1670.13682	1.62504
1668.20825	1.68626
1666.27969	1.73551
1664.35112	1.77625
1662.42256	1.82641
1660.49399	1.88265
1658.56543	1.92691
1656.63687	1.96326
1654.70830	1.99663
1652.77974	2.04857
1650.85117	2.09925
1648.92261	2.11933
1646.99404	2.14554
1645.06548	2.17557
1643.13691	2.19576
1641.20835	2.20904
1639.27979	2.22182
1637.35122	2.23091
1635.42266	2.23105
1633.49409	2.22085
1631.56553	2.20701
1629.63696	2.19142
1627.70840	2.16474
1625.77983	2.13250
1623.85127	2.09292
1621.92271	2.04538
1619.99414	2.00376
1618.06558	1.96408
1616.13701	1.90636
1614.20845	1.84478
1612.27988	1.79686
1610.35132	1.74749
1608.42275	1.69413
1606.49419	1.64113
1604.56562	1.59211
1602.63706	1.54512
1600.70850	1.49936
1598.77993	1.45686
1596.85137	1.41659
1594.92280	1.37747
1592.99424	1.33947
1591.06567	1.30415
1589.13711	1.27070
1587.20854	1.23929
1585.27998	1.21007
1583.35142	1.18258
1581.42285	1.15731
1579.49429	1.13570
1577.56572	1.11633
1575.63716	1.09217
1573.70859	1.07019
1571.78003	1.05577
1569.85146	1.04077
1567.92290	1.02394
1565.99434	1.01101
1564.06577	1.00071
1562.13721	0.99236
1560.20864	0.98559
1558.28008	0.97532
1556.35151	0.96645
1554.42295	0.96087
1552.49438	0.95513
1550.56582	0.94884
1548.63726	0.94149
1546.70869	0.93379
1544.78013	0.92511
1542.85156	0.91492
1540.92300	0.90213
1538.99443	0.88334
1537.06587	0.86934
1535.13730	0.85983
1533.20874	0.84758
1531.28018	0.83449
1529.35161	0.82483
1527.42305	0.81555
1525.49448	0.80576
1523.56592	0.79724
1521.63735	0.78902
1519.70879	0.78058
1517.78022	0.77352
1515.85166	0.76589
1513.92310	0.75802
1511.99453	0.75122
1510.06597	0.74514
1508.13740	0.73924
1506.20884	0.72999
1504.28027	0.72176
1502.35171	0.71711
1500.42314	0.71306
1498.49458	0.70889
1496.56602	0.70422
1494.63745	0.69929
1492.70889	0.69505
1490.78032	0.69135
1488.85176	0.68753
1486.92319	0.68408
1484.99463	0.68123
1483.06606	0.67881
1481.13750	0.67659
1479.20894	0.67459
1477.28037	0.67308
1475.35181	0.67212
1473.42324	0.67149
1471.49468	0.67008
1469.56611	0.66779
1467.63755	0.66559
1465.70898	0.66348
1463.78042	0.66129
1461.85186	0.65956
1459.92329	0.65846
1457.99473	0.65757
1456.06616	0.65597
1454.13760	0.65333
1452.20903	0.65071
1450.28047	0.64823
1448.35190	0.64585
1446.42334	0.64348
1444.49478	0.64127
1442.56621	0.63924
1440.63765	0.63723
1438.70908	0.63510
1436.78052	0.63248
1434.85195	0.62974
1432.92339	0.62763
1430.99482	0.62595
1429.06626	0.62435
1427.13770	0.62288
1425.20913	0.62179
1423.28057	0.62097
1421.35200	0.62019
1419.42344	0.61936
1417.49487	0.61796
1415.56631	0.61619
1413.63774	0.61488
1411.70918	0.61406
1409.78062	0.61353
1407.85205	0.61315
1405.92349	0.61289
1403.99492	0.61264
1402.06636	0.61193
1400.13779	0.61080
1398.20923	0.60952
1396.28066	0.60804
1394.35210	0.60583
1392.42354	0.60317
1390.49497	0.60087
1388.56641	0.59884
1386.63784	0.59651
1384.70928	0.59391
1382.78071	0.59141
1380.85215	0.58906
1378.92358	0.58723
1376.99502	0.58603
1375.06646	0.58507
1373.13789	0.58400
1371.20933	0.58287
1369.28076	0.58187
1367.35220	0.58104
1365.42363	0.58019
1363.49507	0.57914
1361.56650	0.57789
1359.63794	0.57650
1357.70937	0.57510
1355.78081	0.57384
1353.85225	0.57271
1351.92368	0.57165
1349.99512	0.57072
1348.06655	0.56980
1346.13799	0.56874
1344.20942	0.56767
1342.28086	0.56682
1340.35229	0.56613
1338.42373	0.56525
1336.49517	0.56430
1334.56660	0.56365
1332.63804	0.56322
1330.70947	0.56274
1328.78091	0.56223
1326.85234	0.56175
1324.92378	0.56135
1322.99521	0.56118
1321.06665	0.56114
1319.13809	0.56088
1317.20952	0.56026
1315.28096	0.55949
1313.35239	0.55880
1311.42383	0.55820
1309.49526	0.55757
1307.56670	0.55691
1305.63813	0.55621
1303.70957	0.55538
1301.78101	0.55454
1299.85244	0.55375
1297.92388	0.55298
1295.99531	0.55222
1294.06675	0.55150
1292.13818	0.55077
1290.20962	0.55000
1288.28105	0.54913
1286.35249	0.54821
1284.42393	0.54737
1282.49536	0.54669
1280.56680	0.54604
1278.63823	0.54515
1276.70967	0.54406
1274.78110	0.54308
1272.85254	0.54240
1270.92397	0.54190
1268.99541	0.54139
1267.06685	0.54090
1265.13828	0.54039
1263.20972	0.53978
1261.28115	0.53911
1259.35259	0.53852
1257.42402	0.53809
1255.49546	0.53781
1253.56689	0.53760
1251.63833	0.53738
1249.70977	0.53707
1247.78120	0.53676
1245.85264	0.53646
1243.92407	0.53599
1241.99551	0.53527
1240.06694	0.53439
1238.13838	0.53347
1236.20981	0.53253
1234.28125	0.53137
1232.35269	0.53003
1230.42412	0.52882
1228.49556	0.52780
1226.56699	0.52671
1224.63843	0.52540
1222.70986	0.52398
1220.78130	0.52275
1218.85273	0.52178
1216.92417	0.52091
1214.99561	0.52006
1213.06704	0.51926
1211.13848	0.51863
1209.20991	0.51819
1207.28135	0.51774
1205.35278	0.51720
1203.42422	0.51659
1201.49565	0.51583
1199.56709	0.51499
1197.63853	0.51428
1195.70996	0.51358
1193.78140	0.51279
1191.85283	0.51214
1189.92427	0.51162
1187.99570	0.51110
1186.06714	0.51065
1184.13857	0.51060
1182.21001	0.51099
1180.28145	0.51151
1178.35288	0.51221
1176.42432	0.51316
1174.49575	0.51410
1172.56719	0.51486
1170.63862	0.51558
1168.71006	0.51648
1166.78149	0.51747
1164.85293	0.51827
1162.92437	0.51905
1160.99580	0.51982
1159.06724	0.52017
1157.13867	0.51998
1155.21011	0.51946
1153.28154	0.51849
1151.35298	0.51681
1149.42441	0.51462
1147.49585	0.51229
1145.56729	0.50983
1143.63872	0.50722
1141.71016	0.50467
1139.78159	0.50246
1137.85303	0.50072
1135.92446	0.49926
1133.99590	0.49802
1132.06733	0.49698
1130.13877	0.49609
1128.21021	0.49528
1126.28164	0.49445
1124.35308	0.49371
1122.42451	0.49306
1120.49595	0.49269
1118.56738	0.49294
1116.63882	0.49371
1114.71025	0.49464
1112.78169	0.49555
1110.85312	0.49650
1108.92456	0.49753
1106.99600	0.49868
1105.06743	0.49974
1103.13887	0.50065
1101.21030	0.50163
1099.28174	0.50279
1097.35317	0.50444
1095.42461	0.50687
1093.49604	0.51033
1091.56748	0.51525
1089.63892	0.52174
1087.71035	0.52964
1085.78179	0.53866
1083.85322	0.54791
1081.92466	0.55601
1079.99609	0.56182
1078.06753	0.56456
1076.13896	0.56413
1074.21040	0.56109
1072.28184	0.55595
1070.35327	0.54927
1068.42471	0.54195
1066.49614	0.53490
1064.56758	0.52880
1062.63901	0.52367
1060.71045	0.51911
1058.78188	0.51502
1056.85332	0.51117
1054.92476	0.50761
1052.99619	0.50470
1051.06763	0.50236
1049.13906	0.50043
1047.21050	0.49920
1045.28193	0.49878
1043.35337	0.49885
1041.42480	0.49920
1039.49624	0.49979
1037.56768	0.50040
1035.63911	0.50076
1033.71055	0.50090
1031.78198	0.50052
1029.85342	0.49911
1027.92485	0.49707
1025.99629	0.49524
1024.06772	0.49395
1022.13916	0.49312
1020.21060	0.49266
1018.28203	0.49246
1016.35347	0.49241
1014.42490	0.49245
1012.49634	0.49254
1010.56777	0.49253
1008.63921	0.49231
1006.71064	0.49240
1004.78208	0.49338
1002.85352	0.49516
1000.92495	0.49758
998.99639	0.50086
997.06782	0.50504
995.13926	0.50944
993.21069	0.51338
991.28213	0.51655
989.35356	0.51849
987.42500	0.51920
985.49644	0.51934
983.56787	0.51941
981.63931	0.51976
979.71074	0.52062
977.78218	0.52196
975.85361	0.52379
973.92505	0.52607
971.99648	0.52869
970.06792	0.53170
968.13936	0.53537
966.21079	0.53971
964.28223	0.54440
962.35366	0.54935
960.42510	0.55452
958.49653	0.55978
956.56797	0.56518
954.63940	0.57090
952.71084	0.57697
950.78228	0.58331
948.85371	0.58970
946.92515	0.59598
944.99658	0.60240
943.06802	0.60891
941.13945	0.61490
939.21089	0.62029
937.28232	0.62587
935.35376	0.63160
933.42520	0.63691
931.49663	0.64251
929.56807	0.64912
927.63950	0.65579
925.71094	0.66194
923.78237	0.66832
921.85381	0.67504
919.92524	0.68163
917.99668	0.68835
916.06812	0.69566
914.13955	0.70378
912.21099	0.71248
910.28242	0.72092
908.35386	0.72878
906.42529	0.73651
904.49673	0.74403
902.56816	0.75186
900.63960	0.76115
898.71104	0.77148
896.78247	0.78203
894.85391	0.79270
892.92534	0.80312
890.99678	0.81410
889.06821	0.82635
887.13965	0.83810
885.21108	0.84855
883.28252	0.85988
881.35396	0.87246
879.42539	0.88384
877.49683	0.89373
875.56826	0.90420
873.63970	0.91500
871.71113	0.92526
869.78257	0.93726
867.85400	0.95174
865.92544	0.96548
863.99687	0.97668
862.06831	0.98628
860.13975	0.99578
858.21118	1.00712
856.28262	1.01979
854.35405	1.03140
852.42549	1.04301
850.49692	1.05540
848.56836	1.06721
846.63979	1.07891
844.71123	1.09135
842.78267	1.10502
840.85410	1.11820
838.92554	1.12824
836.99697	1.13840
835.06841	1.15156
833.13984	1.16782
831.21128	1.18383
829.28271	1.19244
827.35415	1.19682
825.42559	1.20538
823.49702	1.22091
821.56846	1.23697
819.63989	1.23928
817.71133	1.23325
815.78276	1.23827
813.85420	1.25199
811.92563	1.26321
809.99707	1.27526
808.06851	1.29144
806.13994	1.31011
804.21138	1.33592
802.28281	1.38118
800.35425	1.45009
798.42568	1.51504
796.49712	1.52465
794.56855	1.48946
792.63999	1.44041
790.71143	1.40575
788.78286	1.44471
786.85430	1.53512
784.92573	1.57490
782.99717	1.57352
781.06860	1.60524
779.14004	1.68924
777.21147	1.76708
775.28291	1.76196
773.35435	1.60044
771.42578	1.45941
769.49722	1.54521
767.56865	2.03167
765.64009	2.46068
763.71152	2.03224
761.78296	1.98553
759.85439	1.81961
757.92583	1.64028
755.99727	1.63083
754.06870	1.57167
752.14014	1.47489
750.21157	1.37585
748.28301	1.33949
746.35444	1.29472
744.42588	1.20923
742.49731	1.19120
740.56875	1.10359
738.64019	0.95612
736.71162	0.85882
734.78306	0.92039
732.85449	1.12152
730.92593	1.12502
728.99736	0.80183
727.06880	0.63323
725.14023	0.64394
723.21167	0.77173
721.28311	0.86359
719.35454	0.78220
717.42598	0.69128
715.49741	0.65424
713.56885	0.64168
711.64028	0.63195
709.71172	0.62190
707.78315	0.64680
705.85459	0.72760
703.92603	0.77950
701.99746	0.77023
700.06890	0.79324
698.14033	0.89214
696.21177	1.17961
694.28320	4.16570
692.35464	1.26660
690.42607	0.87158
688.49751	0.74090
686.56895	0.70175
684.64038	0.69728
682.71182	0.70961
680.78325	0.70913
678.85469	0.69176
676.92612	0.70794
674.99756	0.75115
673.06899	0.72116
671.14043	0.63127
669.21187	0.59338
667.28330	0.61220
665.35474	0.64209
663.42617	0.72290
661.49761	0.83743
659.56904	0.81722
657.64048	0.83439
655.71191	0.98679
653.78335	0.96287
651.85479	0.75845
649.92622	0.66279
647.99766	0.66027
646.06909	0.65128
644.14053	0.58593
642.21196	0.56590
640.28340	0.67620
638.35483	0.83237
636.42627	0.77687
634.49771	0.75960
632.56914	0.83586
630.64058	0.77837
628.71201	0.67056
626.78345	0.58787
624.85488	0.52787
622.92632	0.53766
620.99775	0.59652
619.06919	0.67303
617.14062	0.79066
615.21206	0.79149
613.28350	0.64803
611.35493	0.56912
609.42637	0.58342
607.49780	0.65727
605.56924	0.70899
603.64067	0.71094
601.71211	0.69383
599.78354	0.64820
597.85498	0.65034
595.92642	0.78880
593.99785	0.87968
592.06929	0.75264
590.14072	0.69686
588.21216	0.71532
586.28359	0.73408
584.35503	0.67095
582.42646	0.59050
580.49790	0.56751
578.56934	0.59301
576.64077	0.62496
574.71221	0.57990
572.78364	0.48686
570.85508	0.44721
568.92651	0.48008
566.99795	0.52560
565.06938	0.54506
563.14082	0.55779
561.21226	0.51881
559.28369	0.44569
557.35513	0.40599
555.42656	0.41053
553.49800	0.42773
551.56943	0.44227
549.64087	0.50916
547.71230	0.69958
545.78374	1.05141
543.85518	0.77975
541.92661	0.54584
539.99805	0.52041
538.06948	0.63206
536.14092	0.66950
534.21235	0.57797
532.28379	0.53460
530.35522	0.49333
528.42666	0.43772
526.49810	0.41455
524.56953	0.41302
522.64097	0.41520
520.71240	0.42738
518.78384	0.44990
516.85527	0.47284
514.92671	0.46086
512.99814	0.42178
511.06958	0.39083
509.14102	0.37452
507.21245	0.38086
505.28389	0.40193
503.35532	0.41198
501.42676	0.46244
499.49819	0.60406
