3997.91411	0.06321
3995.98555	0.06346
3994.05698	0.06398
3992.12842	0.06445
3990.19985	0.06468
3988.27129	0.06471
3986.34272	0.06470
3984.41416	0.06514
3982.48560	0.06577
3980.55703	0.06610
3978.62847	0.06626
3976.69990	0.06638
3974.77134	0.06629
3972.84277	0.06610
3970.91421	0.06627
3968.98564	0.06671
3967.05708	0.06700
3965.12852	0.06700
3963.19995	0.06693
3961.27139	0.06710
3959.34282	0.06711
3957.41426	0.06707
3955.48569	0.06751
3953.55713	0.06790
3951.62856	0.06795
3949.70000	0.06813
3947.77144	0.06843
3945.84287	0.06856
3943.91431	0.06857
3941.98574	0.06834
3940.05718	0.06770
3938.12861	0.06756
3936.20005	0.06818
3934.27148	0.06855
3932.34292	0.06820
3930.41436	0.06759
3928.48579	0.06726
3926.55723	0.06704
3924.62866	0.06665
3922.70010	0.06636
3920.77153	0.06645
3918.84297	0.06657
3916.91440	0.06624
3914.98584	0.06579
3913.05728	0.06581
3911.12871	0.06606
3909.20015	0.06614
3907.27158	0.06600
3905.34302	0.06569
3903.41445	0.06536
3901.48589	0.06564
3899.55732	0.06649
3897.62876	0.06696
3895.70020	0.06706
3893.77163	0.06720
3891.84307	0.06739
3889.91450	0.06739
3887.98594	0.06700
3886.05737	0.06661
3884.12881	0.06685
3882.20024	0.06758
3880.27168	0.06798
3878.34312	0.06780
3876.41455	0.06743
3874.48599	0.06727
3872.55742	0.06721
3870.62886	0.06712
3868.70029	0.06741
3866.77173	0.06774
3864.84316	0.06772
3862.91460	0.06812
3860.98604	0.06911
3859.05747	0.06970
3857.12891	0.06964
3855.20034	0.06956
3853.27178	0.07026
3851.34321	0.07149
3849.41465	0.07162
3847.48608	0.07158
3845.55752	0.07224
3843.62896	0.07325
3841.70039	0.07398
3839.77183	0.07448
3837.84326	0.07512
3835.91470	0.07569
3833.98613	0.07597
3832.05757	0.07620
3830.12900	0.07672
3828.20044	0.07755
3826.27187	0.07861
3824.34331	0.07976
3822.41475	0.08049
3820.48618	0.08122
3818.55762	0.08221
3816.62905	0.08267
3814.70049	0.08320
3812.77192	0.08446
3810.84336	0.08596
3808.91479	0.08750
3806.98623	0.08907
3805.05767	0.09006
3803.12910	0.09054
3801.20054	0.09150
3799.27197	0.09267
3797.34341	0.09349
3795.41484	0.09457
3793.48628	0.09581
3791.55771	0.09691
3789.62915	0.09812
3787.70059	0.09945
3785.77202	0.10061
3783.84346	0.10172
3781.91489	0.10311
3779.98633	0.10471
3778.05776	0.10675
3776.12920	0.10895
3774.20063	0.11059
3772.27207	0.11191
3770.34351	0.11369
3768.41494	0.11567
3766.48638	0.11704
3764.55781	0.11846
3762.62925	0.12021
3760.70068	0.12200
3758.77212	0.12424
3756.84355	0.12690
3754.91499	0.12923
3752.98643	0.13111
3751.05786	0.13313
3749.12930	0.13635
3747.20073	0.13977
3745.27217	0.14254
3743.34360	0.14596
3741.41504	0.14901
3739.48647	0.15123
3737.55791	0.15407
3735.62935	0.15798
3733.70078	0.16279
3731.77222	0.16752
3729.84365	0.17158
3727.91509	0.17549
3725.98652	0.18040
3724.05796	0.18680
3722.12939	0.19419
3720.20083	0.20205
3718.27227	0.20975
3716.34370	0.21738
3714.41514	0.22499
3712.48657	0.23338
3710.55801	0.24476
3708.62944	0.25809
3706.70088	0.27037
3704.77231	0.28233
3702.84375	0.29552
3700.91519	0.31177
3698.98662	0.32967
3697.05806	0.34715
3695.12949	0.36577
3693.20093	0.38498
3691.27236	0.40489
3689.34380	0.43079
3687.41523	0.46459
3685.48667	0.49564
3683.55811	0.52270
3681.62954	0.55132
3679.70098	0.58264
3677.77241	0.61465
3675.84385	0.65249
3673.91528	0.70463
3671.98672	0.74790
3670.05815	0.78573
3668.12959	0.83818
3666.20103	0.88720
3664.27246	0.92769
3662.34390	0.97039
3660.41533	1.01657
3658.48677	1.06204
3656.55820	1.11017
3654.62964	1.16387
3652.70107	1.20904
3650.77251	1.24775
3648.84395	1.30055
3646.91538	1.36707
3644.98682	1.41859
3643.05825	1.45867
3641.12969	1.49847
3639.20112	1.54156
3637.27256	1.58495
3635.34399	1.62732
3633.41543	1.66977
3631.48687	1.70948
3629.55830	1.74924
3627.62974	1.80091
3625.70117	1.85082
3623.77261	1.88624
3621.84404	1.92002
3619.91548	1.95741
3617.98691	2.00098
3616.05835	2.04320
3614.12979	2.07946
3612.20122	2.11854
3610.27266	2.15899
3608.34409	2.19888
3606.41553	2.24020
3604.48696	2.27958
3602.55840	2.31551
3600.62983	2.35362
3598.70127	2.39394
3596.77271	2.43234
3594.84414	2.47240
3592.91558	2.51585
3590.98701	2.55644
3589.05845	2.59288
3587.12988	2.63545
3585.20132	2.68315
3583.27275	2.72406
3581.34419	2.76099
3579.41562	2.80064
3577.48706	2.84338
3575.55850	2.88641
3573.62993	2.92945
3571.70137	2.97180
3569.77280	3.01396
3567.84424	3.05813
3565.91567	3.10864
3563.98711	3.15691
3562.05854	3.19738
3560.12998	3.23882
3558.20142	3.28427
3556.27285	3.33148
3554.34429	3.37706
3552.41572	3.42238
3550.48716	3.46774
3548.55859	3.51161
3546.63003	3.55728
3544.70146	3.60770
3542.77290	3.65763
3540.84434	3.70490
3538.91577	3.75322
3536.98721	3.80301
3535.05864	3.85325
3533.13008	3.90035
3531.20151	3.94450
3529.27295	3.98843
3527.34438	4.03382
3525.41582	4.08039
3523.48726	4.12929
3521.55869	4.18216
3519.63013	4.23356
3517.70156	4.28176
3515.77300	4.33165
3513.84443	4.38382
3511.91587	4.43202
3509.98730	4.47774
3508.05874	4.52573
3506.13018	4.57381
3504.20161	4.62155
3502.27305	4.66937
3500.34448	4.71697
3498.41592	4.76518
3496.48735	4.81527
3494.55879	4.86450
3492.63022	4.90672
3490.70166	4.94590
3488.77310	4.99053
3486.84453	5.03806
3484.91597	5.08737
3482.98740	5.14267
3481.05884	5.20162
3479.13027	5.25766
3477.20171	5.30895
3475.27314	5.35618
3473.34458	5.39697
3471.41602	5.43820
3469.48745	5.48718
3467.55889	5.53698
3465.63032	5.58444
3463.70176	5.63672
3461.77319	5.69425
3459.84463	5.74514
3457.91606	5.78609
3455.98750	5.83664
3454.05894	5.89876
3452.13037	5.95283
3450.20181	5.99856
3448.27324	6.04697
3446.34468	6.10117
3444.41611	6.15344
3442.48755	6.20918
3440.55898	6.27461
3438.63042	6.32627
3436.70186	6.35051
3434.77329	6.37933
3432.84473	6.42972
3430.91616	6.47612
3428.98760	6.51624
3427.05903	6.56770
3425.13047	6.63930
3423.20190	6.71753
3421.27334	6.77657
3419.34478	6.82410
3417.41621	6.86918
3415.48765	6.89042
3413.55908	6.92050
3411.63052	6.99353
3409.70195	7.05933
3407.77339	7.10203
3405.84482	7.13591
3403.91626	7.16677
3401.98770	7.22294
3400.05913	7.30266
3398.13057	7.35552
3396.20200	7.37039
3394.27344	7.37905
3392.34487	7.39765
3390.41631	7.44266
3388.48774	7.49939
3386.55918	7.56841
3384.63062	7.63262
3382.70205	7.65280
3380.77349	7.65114
3378.84492	7.67062
3376.91636	7.68947
3374.98779	7.66179
3373.05923	7.67520
3371.13066	7.77781
3369.20210	7.88527
3367.27354	7.93897
3365.34497	7.96379
3363.41641	7.96118
3361.48784	7.94225
3359.55928	7.97294
3357.63071	8.03752
3355.70215	8.06837
3353.77358	8.05055
3351.84502	8.03997
3349.91646	8.07095
3347.98789	8.12608
3346.05933	8.12680
3344.13076	8.05749
3342.20220	7.99361
3340.27363	7.97282
3338.34507	8.04656
3336.41650	8.17565
3334.48794	8.21489
3332.55937	8.14189
3330.63081	8.11538
3328.70225	8.20507
3326.77368	8.30084
3324.84512	8.27300
3322.91655	8.16566
3320.98799	8.13479
3319.05942	8.19504
3317.13086	8.23317
3315.20229	8.19306
3313.27373	8.18054
3311.34517	8.24359
3309.41660	8.32928
3307.48804	8.38905
3305.55947	8.34828
3303.63091	8.21324
3301.70234	8.08597
3299.77378	8.06608
3297.84521	8.11594
3295.91665	8.14900
3293.98809	8.18320
3292.05952	8.25058
3290.13096	8.31266
3288.20239	8.34571
3286.27383	8.38310
3284.34526	8.42617
3282.41670	8.49815
3280.48813	8.55005
3278.55957	8.53119
3276.63101	8.53651
3274.70244	8.55529
3272.77388	8.52730
3270.84531	8.50362
3268.91675	8.44953
3266.98818	8.37892
3265.05962	8.42646
3263.13105	8.50758
3261.20249	8.46783
3259.27393	8.40643
3257.34536	8.42731
3255.41680	8.49641
3253.48823	8.56999
3251.55967	8.56896
3249.63110	8.46576
3247.70254	8.39289
3245.77397	8.40060
3243.84541	8.44987
3241.91685	8.48385
3239.98828	8.48607
3238.05972	8.44963
3236.13115	8.36507
3234.20259	8.34370
3232.27402	8.39544
3230.34546	8.37619
3228.41689	8.31058
3226.48833	8.27479
3224.55977	8.22586
3222.63120	8.22803
3220.70264	8.31983
3218.77407	8.38318
3216.84551	8.38064
3214.91694	8.31919
3212.98838	8.18726
3211.05981	8.08745
3209.13125	8.06765
3207.20269	8.06066
3205.27412	8.02705
3203.34556	7.95509
3201.41699	7.86166
3199.48843	7.79144
3197.55986	7.77751
3195.63130	7.83333
3193.70273	7.88914
3191.77417	7.83166
3189.84561	7.67676
3187.91704	7.55452
3185.98848	7.53770
3184.05991	7.57151
3182.13135	7.54337
3180.20278	7.44595
3178.27422	7.36858
3176.34565	7.32532
3174.41709	7.27173
3172.48853	7.20512
3170.55996	7.12485
3168.63140	7.03776
3166.70283	6.97534
3164.77427	6.94876
3162.84570	6.92620
3160.91714	6.86204
3158.98857	6.77010
3157.06001	6.69952
3155.13145	6.65862
3153.20288	6.61125
3151.27432	6.53940
3149.34575	6.45966
3147.41719	6.39062
3145.48862	6.33167
3143.56006	6.25939
3141.63149	6.16658
3139.70293	6.07017
3137.77437	5.98361
3135.84580	5.90522
3133.91724	5.83277
3131.98867	5.76889
3130.06011	5.71578
3128.13154	5.66489
3126.20298	5.59508
3124.27441	5.50718
3122.34585	5.42128
3120.41729	5.34909
3118.48872	5.28451
3116.56016	5.21412
3114.63159	5.13859
3112.70303	5.06599
3110.77446	4.99353
3108.84590	4.91712
3106.91733	4.84035
3104.98877	4.76451
3103.06021	4.69532
3101.13164	4.63258
3099.20308	4.56657
3097.27451	4.49857
3095.34595	4.43091
3093.41738	4.36422
3091.48882	4.30093
3089.56025	4.23684
3087.63169	4.16999
3085.70312	4.10529
3083.77456	4.04309
3081.84600	3.98012
3079.91743	3.91809
3077.98887	3.85814
3076.06030	3.79606
3074.13174	3.73155
3072.20317	3.66922
3070.27461	3.60991
3068.34604	3.55211
3066.41748	3.49515
3064.48892	3.43785
3062.56035	3.38053
3060.63179	3.32461
3058.70322	3.26937
3056.77466	3.21475
3054.84609	3.16175
3052.91753	3.10981
3050.98896	3.05768
3049.06040	3.00452
3047.13184	2.95172
3045.20327	2.90091
3043.27471	2.85211
3041.34614	2.80467
3039.41758	2.75687
3037.48901	2.70836
3035.56045	2.66022
3033.63188	2.61313
3031.70332	2.56789
3029.77476	2.52370
3027.84619	2.47960
3025.91763	2.43652
3023.98906	2.39469
3022.06050	2.35296
3020.13193	2.31049
3018.20337	2.26858
3016.27480	2.22807
3014.34624	2.18793
3012.41768	2.14824
3010.48911	2.10941
3008.56055	2.07152
3006.63198	2.03518
3004.70342	1.99993
3002.77485	1.96450
3000.84629	1.92893
2998.91772	1.89389
2996.98916	1.85986
2995.06060	1.82741
2993.13203	1.79633
2991.20347	1.76553
2989.27490	1.73427
2987.34634	1.70313
2985.41777	1.67274
2983.48921	1.64268
2981.56064	1.61276
2979.63208	1.58364
2977.70352	1.55578
2975.77495	1.52868
2973.84639	1.50194
2971.91782	1.47563
2969.98926	1.44977
2968.06069	1.42439
2966.13213	1.39912
2964.20356	1.37387
2962.27500	1.34929
2960.34644	1.32522
2958.41787	1.30127
2956.48931	1.27761
2954.56074	1.25452
2952.63218	1.23184
2950.70361	1.20932
2948.77505	1.18715
2946.84648	1.16558
2944.91792	1.14482
2942.98936	1.12466
2941.06079	1.10447
2939.13223	1.08447
2937.20366	1.06476
2935.27510	1.04515
2933.34653	1.02622
2931.41797	1.00789
2929.48940	0.98962
2927.56084	0.97188
2925.63228	0.95462
2923.70371	0.93698
2921.77515	0.91943
2919.84658	0.90283
2917.91802	0.88668
2915.98945	0.87054
2914.06089	0.85449
2912.13232	0.83863
2910.20376	0.82323
2908.27520	0.80839
2906.34663	0.79412
2904.41807	0.78017
2902.48950	0.76629
2900.56094	0.75269
2898.63237	0.73953
2896.70381	0.72675
2894.77524	0.71417
2892.84668	0.70198
2890.91812	0.69046
2888.98955	0.67943
2887.06099	0.66844
2885.13242	0.65736
2883.20386	0.64649
2881.27529	0.63596
2879.34673	0.62564
2877.41816	0.61530
2875.48960	0.60487
2873.56104	0.59472
2871.63247	0.58514
2869.70391	0.57573
2867.77534	0.56572
2865.84678	0.55507
2863.91821	0.54458
2861.98965	0.53462
2860.06108	0.52504
2858.13252	0.51584
2856.20396	0.50697
2854.27539	0.49831
2852.34683	0.48981
2850.41826	0.48148
2848.48970	0.47334
2846.56113	0.46542
2844.63257	0.45768
2842.70400	0.45027
2840.77544	0.44340
2838.84687	0.43718
2836.91831	0.43136
2834.98975	0.42555
2833.06118	0.41969
2831.13262	0.41383
2829.20405	0.40784
2827.27549	0.40167
2825.34692	0.39555
2823.41836	0.38972
2821.48979	0.38402
2819.56123	0.37825
2817.63267	0.37260
2815.70410	0.36720
2813.77554	0.36192
2811.84697	0.35660
2809.91841	0.35115
2807.98984	0.34573
2806.06128	0.34056
2804.13271	0.33568
2802.20415	0.33087
2800.27559	0.32602
2798.34702	0.32132
2796.41846	0.31680
2794.48989	0.31242
2792.56133	0.30817
2790.63276	0.30390
2788.70420	0.29963
2786.77563	0.29544
2784.84707	0.29139
2782.91851	0.28749
2780.98994	0.28354
2779.06138	0.27952
2777.13281	0.27561
2775.20425	0.27185
2773.27568	0.26823
2771.34712	0.26489
2769.41855	0.26175
2767.48999	0.25845
2765.56143	0.25501
2763.63286	0.25175
2761.70430	0.24864
2759.77573	0.24547
2757.84717	0.24230
2755.91860	0.23945
2753.99004	0.23685
2752.06147	0.23411
2750.13291	0.23120
2748.20435	0.22839
2746.27578	0.22575
2744.34722	0.22319
2742.41865	0.22056
2740.49009	0.21795
2738.56152	0.21557
2736.63296	0.21332
2734.70439	0.21093
2732.77583	0.20854
2730.84727	0.20640
2728.91870	0.20435
2726.99014	0.20226
2725.06157	0.20020
2723.13301	0.19814
2721.20444	0.19614
2719.27588	0.19424
2717.34731	0.19233
2715.41875	0.19048
2713.49019	0.18884
2711.56162	0.18735
2709.63306	0.18580
2707.70449	0.18420
2705.77593	0.18253
2703.84736	0.18077
2701.91880	0.17917
2699.99023	0.17778
2698.06167	0.17640
2696.13311	0.17494
2694.20454	0.17349
2692.27598	0.17215
2690.34741	0.17090
2688.41885	0.16955
2686.49028	0.16820
2684.56172	0.16708
2682.63315	0.16610
2680.70459	0.16512
2678.77603	0.16414
2676.84746	0.16305
2674.91890	0.16190
2672.99033	0.16086
2671.06177	0.15991
2669.13320	0.15886
2667.20464	0.15775
2665.27607	0.15680
2663.34751	0.15598
2661.41895	0.15505
2659.49038	0.15414
2657.56182	0.15354
2655.63325	0.15309
2653.70469	0.15256
2651.77612	0.15185
2649.84756	0.15105
2647.91899	0.15035
2645.99043	0.14977
2644.06187	0.14923
2642.13330	0.14876
2640.20474	0.14823
2638.27617	0.14760
2636.34761	0.14719
2634.41904	0.14691
2632.49048	0.14655
2630.56191	0.14624
2628.63335	0.14593
2626.70479	0.14541
2624.77622	0.14491
2622.84766	0.14472
2620.91909	0.14469
2618.99053	0.14464
2617.06196	0.14455
2615.13340	0.14446
2613.20483	0.14437
2611.27627	0.14427
2609.34771	0.14417
2607.41914	0.14412
2605.49058	0.14416
2603.56201	0.14422
2601.63345	0.14423
2599.70488	0.14423
2597.77632	0.14432
2595.84775	0.14438
2593.91919	0.14435
2591.99062	0.14438
2590.06206	0.14459
2588.13350	0.14487
2586.20493	0.14503
2584.27637	0.14509
2582.34780	0.14538
2580.41924	0.14590
2578.49067	0.14627
2576.56211	0.14644
2574.63354	0.14664
2572.70498	0.14694
2570.77642	0.14733
2568.84785	0.14783
2566.91929	0.14842
2564.99072	0.14891
2563.06216	0.14926
2561.13359	0.14971
2559.20503	0.15033
2557.27646	0.15104
2555.34790	0.15162
2553.41934	0.15207
2551.49077	0.15259
2549.56221	0.15317
2547.63364	0.15365
2545.70508	0.15420
2543.77651	0.15495
2541.84795	0.15571
2539.91938	0.15638
2537.99082	0.15698
2536.06226	0.15750
2534.13369	0.15809
2532.20513	0.15875
2530.27656	0.15936
2528.34800	0.16002
2526.41943	0.16084
2524.49087	0.16175
2522.56230	0.16268
2520.63374	0.16359
2518.70518	0.16446
2516.77661	0.16528
2514.84805	0.16610
2512.91948	0.16699
2510.99092	0.16783
2509.06235	0.16848
2507.13379	0.16911
2505.20522	0.16991
2503.27666	0.17074
2501.34810	0.17146
2499.41953	0.17220
2497.49097	0.17301
2495.56240	0.17387
2493.63384	0.17480
2491.70527	0.17582
2489.77671	0.17690
2487.84814	0.17792
2485.91958	0.17884
2483.99102	0.17971
2482.06245	0.18049
2480.13389	0.18120
2478.20532	0.18200
2476.27676	0.18295
2474.34819	0.18396
2472.41963	0.18496
2470.49106	0.18595
2468.56250	0.18686
2466.63394	0.18781
2464.70537	0.18875
2462.77681	0.18955
2460.84824	0.19040
2458.91968	0.19141
2456.99111	0.19241
2455.06255	0.19335
2453.13398	0.19435
2451.20542	0.19545
2449.27686	0.19648
2447.34829	0.19745
2445.41973	0.19854
2443.49116	0.19959
2441.56260	0.20050
2439.63403	0.20154
2437.70547	0.20265
2435.77690	0.20361
2433.84834	0.20454
2431.91978	0.20564
2429.99121	0.20683
2428.06265	0.20791
2426.13408	0.20898
2424.20552	0.21013
2422.27695	0.21119
2420.34839	0.21224
2418.41982	0.21347
2416.49126	0.21470
2414.56270	0.21588
2412.63413	0.21709
2410.70557	0.21820
2408.77700	0.21918
2406.84844	0.22027
2404.91987	0.22152
2402.99131	0.22278
2401.06274	0.22403
2399.13418	0.22531
2397.20562	0.22661
2395.27705	0.22785
2393.34849	0.22897
2391.41992	0.23008
2389.49136	0.23126
2387.56279	0.23241
2385.63423	0.23331
2383.70566	0.23374
2381.77710	0.23373
2379.84854	0.23341
2377.91997	0.23281
2375.99141	0.23203
2374.06284	0.23124
2372.13428	0.23024
2370.20571	0.22832
2368.27715	0.22584
2366.34858	0.22425
2364.42002	0.22329
2362.49146	0.22210
2360.56289	0.22109
2358.63433	0.22185
2356.70576	0.22608
2354.77720	0.23206
2352.84863	0.23778
2350.92007	0.24307
2348.99150	0.24685
2347.06294	0.24828
2345.13437	0.24770
2343.20581	0.24676
2341.27725	0.24743
2339.34868	0.24926
2337.42012	0.25128
2335.49155	0.25372
2333.56299	0.25633
2331.63442	0.25845
2329.70586	0.26018
2327.77729	0.26212
2325.84873	0.26475
2323.92017	0.26792
2321.99160	0.27095
2320.06304	0.27377
2318.13447	0.27695
2316.20591	0.28035
2314.27734	0.28327
2312.34878	0.28538
2310.42021	0.28739
2308.49165	0.28989
2306.56309	0.29269
2304.63452	0.29551
2302.70596	0.29810
2300.77739	0.30037
2298.84883	0.30248
2296.92026	0.30462
2294.99170	0.30689
2293.06313	0.30926
2291.13457	0.31156
2289.20601	0.31382
2287.27744	0.31619
2285.34888	0.31852
2283.42031	0.32063
2281.49175	0.32257
2279.56318	0.32452
2277.63462	0.32656
2275.70605	0.32852
2273.77749	0.33039
2271.84893	0.33238
2269.92036	0.33446
2267.99180	0.33653
2266.06323	0.33863
2264.13467	0.34078
2262.20610	0.34304
2260.27754	0.34528
2258.34897	0.34742
2256.42041	0.34957
2254.49185	0.35183
2252.56328	0.35411
2250.63472	0.35630
2248.70615	0.35850
2246.77759	0.36076
2244.84902	0.36301
2242.92046	0.36523
2240.99189	0.36747
2239.06333	0.36970
2237.13477	0.37204
2235.20620	0.37439
2233.27764	0.37653
2231.34907	0.37855
2229.42051	0.38074
2227.49194	0.38308
2225.56338	0.38546
2223.63481	0.38780
2221.70625	0.39001
2219.77769	0.39215
2217.84912	0.39435
2215.92056	0.39658
2213.99199	0.39885
2212.06343	0.40111
2210.13486	0.40322
2208.20630	0.40528
2206.27773	0.40748
2204.34917	0.40970
2202.42061	0.41177
2200.49204	0.41376
2198.56348	0.41578
2196.63491	0.41774
2194.70635	0.41961
2192.77778	0.42154
2190.84922	0.42355
2188.92065	0.42541
2186.99209	0.42719
2185.06353	0.42904
2183.13496	0.43084
2181.20640	0.43242
2179.27783	0.43399
2177.34927	0.43564
2175.42070	0.43718
2173.49214	0.43858
2171.56357	0.43996
2169.63501	0.44136
2167.70645	0.44273
2165.77788	0.44397
2163.84932	0.44503
2161.92075	0.44606
2159.99219	0.44726
2158.06362	0.44843
2156.13506	0.44936
2154.20649	0.45022
2152.27793	0.45116
2150.34937	0.45196
2148.42080	0.45249
2146.49224	0.45297
2144.56367	0.45346
2142.63511	0.45383
2140.70654	0.45406
2138.77798	0.45431
2136.84941	0.45451
2134.92085	0.45460
2132.99229	0.45465
2131.06372	0.45468
2129.13516	0.45461
2127.20659	0.45430
2125.27803	0.45382
2123.34946	0.45330
2121.42090	0.45270
2119.49233	0.45200
2117.56377	0.45128
2115.63521	0.45060
2113.70664	0.44996
2111.77808	0.44919
2109.84951	0.44820
2107.92095	0.44709
2105.99238	0.44598
2104.06382	0.44490
2102.13525	0.44370
2100.20669	0.44234
2098.27812	0.44081
2096.34956	0.43912
2094.42100	0.43743
2092.49243	0.43581
2090.56387	0.43412
2088.63530	0.43231
2086.70674	0.43044
2084.77817	0.42860
2082.84961	0.42685
2080.92104	0.42504
2078.99248	0.42306
2077.06392	0.42096
2075.13535	0.41875
2073.20679	0.41653
2071.27822	0.41433
2069.34966	0.41208
2067.42109	0.40975
2065.49253	0.40741
2063.56396	0.40502
2061.63540	0.40254
2059.70684	0.40001
2057.77827	0.39750
2055.84971	0.39495
2053.92114	0.39240
2051.99258	0.38986
2050.06401	0.38720
2048.13545	0.38449
2046.20688	0.38173
2044.27832	0.37894
2042.34976	0.37621
2040.42119	0.37352
2038.49263	0.37084
2036.56406	0.36819
2034.63550	0.36552
2032.70693	0.36277
2030.77837	0.35996
2028.84980	0.35719
2026.92124	0.35448
2024.99268	0.35171
2023.06411	0.34890
2021.13555	0.34614
2019.20698	0.34342
2017.27842	0.34061
2015.34985	0.33770
2013.42129	0.33495
2011.49272	0.33227
2009.56416	0.32955
2007.63560	0.32688
2005.70703	0.32429
2003.77847	0.32162
2001.84990	0.31890
1999.92134	0.31631
1997.99277	0.31377
1996.06421	0.31120
1994.13564	0.30866
1992.20708	0.30617
1990.27852	0.30367
1988.34995	0.30122
1986.42139	0.29883
1984.49282	0.29643
1982.56426	0.29401
1980.63569	0.29161
1978.70713	0.28939
1976.77856	0.28726
1974.85000	0.28506
1972.92144	0.28282
1970.99287	0.28065
1969.06431	0.27858
1967.13574	0.27660
1965.20718	0.27463
1963.27861	0.27273
1961.35005	0.27090
1959.42148	0.26908
1957.49292	0.26724
1955.56436	0.26539
1953.63579	0.26357
1951.70723	0.26177
1949.77866	0.26012
1947.85010	0.25860
1945.92153	0.25711
1943.99297	0.25562
1942.06440	0.25406
1940.13584	0.25249
1938.20728	0.25112
1936.27871	0.24984
1934.35015	0.24851
1932.42158	0.24728
1930.49302	0.24622
1928.56445	0.24515
1926.63589	0.24401
1924.70732	0.24297
1922.77876	0.24199
1920.85020	0.24102
1918.92163	0.24015
1916.99307	0.23932
1915.06450	0.23848
1913.13594	0.23764
1911.20737	0.23684
1909.27881	0.23607
1907.35024	0.23538
1905.42168	0.23473
1903.49312	0.23415
1901.56455	0.23366
1899.63599	0.23320
1897.70742	0.23274
1895.77886	0.23232
1893.85029	0.23212
1891.92173	0.23199
1889.99316	0.23180
1888.06460	0.23144
1886.13604	0.23104
1884.20747	0.23077
1882.27891	0.23062
1880.35034	0.23056
1878.42178	0.23053
1876.49321	0.23052
1874.56465	0.23052
1872.63608	0.23058
1870.70752	0.23069
1868.77896	0.23103
1866.85039	0.23138
1864.92183	0.23155
1862.99326	0.23174
1861.06470	0.23201
1859.13613	0.23244
1857.20757	0.23291
1855.27900	0.23335
1853.35044	0.23369
1851.42187	0.23409
1849.49331	0.23463
1847.56475	0.23531
1845.63618	0.23600
1843.70762	0.23681
1841.77905	0.23767
1839.85049	0.23829
1837.92192	0.23914
1835.99336	0.24013
1834.06479	0.24102
1832.13623	0.24184
1830.20767	0.24307
1828.27910	0.24467
1826.35054	0.24598
1824.42197	0.24731
1822.49341	0.24865
1820.56484	0.24994
1818.63628	0.25133
1816.70771	0.25298
1814.77915	0.25462
1812.85059	0.25631
1810.92202	0.25826
1808.99346	0.26035
1807.06489	0.26238
1805.13633	0.26424
1803.20776	0.26626
1801.27920	0.26863
1799.35063	0.27144
1797.42207	0.27405
1795.49351	0.27644
1793.56494	0.27907
1791.63638	0.28255
1789.70781	0.28626
1787.77925	0.28917
1785.85068	0.29230
1783.92212	0.29589
1781.99355	0.29979
1780.06499	0.30397
1778.13643	0.30833
1776.20786	0.31237
1774.27930	0.31648
1772.35073	0.32215
1770.42217	0.32878
1768.49360	0.33454
1766.56504	0.33986
1764.63647	0.34508
1762.70791	0.35072
1760.77935	0.35808
1758.85078	0.36522
1756.92222	0.37237
1754.99365	0.38019
1753.06509	0.38716
1751.13652	0.39505
1749.20796	0.40526
1747.27939	0.41597
1745.35083	0.42552
1743.42227	0.43536
1741.49370	0.44610
1739.56514	0.45876
1737.63657	0.47138
1735.70801	0.48220
1733.77944	0.49834
1731.85088	0.51823
1729.92231	0.53430
1727.99375	0.55048
1726.06519	0.56762
1724.13662	0.58597
1722.20806	0.60570
1720.27949	0.62393
1718.35093	0.64504
1716.42236	0.67653
1714.49380	0.70727
1712.56523	0.73240
1710.63667	0.75655
1708.70811	0.78211
1706.77954	0.81069
1704.85098	0.84494
1702.92241	0.87600
1700.99385	0.90665
1699.06528	0.95190
1697.13672	0.99387
1695.20815	1.03686
1693.27959	1.07841
1691.35103	1.11177
1689.42246	1.14996
1687.49390	1.18994
1685.56533	1.22792
1683.63677	1.28593
1681.70820	1.34709
1679.77964	1.38737
1677.85107	1.42574
1675.92251	1.46931
1673.99395	1.52261
1672.06538	1.56988
1670.13682	1.61561
1668.20825	1.67416
1666.27969	1.72190
1664.35112	1.76246
1662.42256	1.81231
1660.49399	1.86780
1658.56543	1.91148
1656.63687	1.94703
1654.70830	1.98019
1652.77974	2.03335
1650.85117	2.08388
1648.92261	2.10277
1646.99404	2.12774
1645.06548	2.15757
1643.13691	2.17784
1641.20835	2.19099
1639.27979	2.20448
1637.35122	2.21463
1635.42266	2.21448
1633.49409	2.20477
1631.56553	2.19206
1629.63696	2.17547
1627.70840	2.14833
1625.77983	2.11957
1623.85127	2.08389
1621.92271	2.03749
1619.99414	1.99501
1618.06558	1.95232
1616.13701	1.89180
1614.20845	1.83186
1612.27988	1.78633
1610.35132	1.73771
1608.42275	1.68450
1606.49419	1.63248
1604.56562	1.58466
1602.63706	1.53797
1600.70850	1.49194
1598.77993	1.44923
1596.85137	1.40893
1594.92280	1.37020
1592.99424	1.33302
1591.06567	1.29867
1589.13711	1.26632
1587.20854	1.23591
1585.27998	1.20725
1583.35142	1.18021
1581.42285	1.15531
1579.49429	1.13369
1577.56572	1.11429
1575.63716	1.09078
1573.70859	1.06977
1571.78003	1.05570
1569.85146	1.04050
1567.92290	1.02338
1565.99434	1.01022
1564.06577	0.99943
1562.13721	0.99038
1560.20864	0.98272
1558.28008	0.97079
1556.35151	0.96058
1554.42295	0.95441
1552.49438	0.94827
1550.56582	0.94156
1548.63726	0.93370
1546.70869	0.92559
1544.78013	0.91665
1542.85156	0.90599
1540.92300	0.89218
1538.99443	0.87366
1537.06587	0.86124
1535.13730	0.85263
1533.20874	0.84077
1531.28018	0.82801
1529.35161	0.81859
1527.42305	0.80943
1525.49448	0.79991
1523.56592	0.79192
1521.63735	0.78410
1519.70879	0.77568
1517.78022	0.76844
1515.85166	0.76077
1513.92310	0.75309
1511.99453	0.74638
1510.06597	0.74013
1508.13740	0.73400
1506.20884	0.72536
1504.28027	0.71817
1502.35171	0.71385
1500.42314	0.70981
1498.49458	0.70550
1496.56602	0.70047
1494.63745	0.69539
1492.70889	0.69145
1490.78032	0.68805
1488.85176	0.68426
1486.92319	0.68058
1484.99463	0.67729
1483.06606	0.67441
1481.13750	0.67200
1479.20894	0.67000
1477.28037	0.66825
1475.35181	0.66665
1473.42324	0.66513
1471.49468	0.66329
1469.56611	0.66141
1467.63755	0.65960
1465.70898	0.65778
1463.78042	0.65604
1461.85186	0.65468
1459.92329	0.65376
1457.99473	0.65280
1456.06616	0.65090
1454.13760	0.64839
1452.20903	0.64615
1450.28047	0.64405
1448.35190	0.64197
1446.42334	0.63965
1444.49478	0.63735
1442.56621	0.63520
1440.63765	0.63302
1438.70908	0.63092
1436.78052	0.62881
1434.85195	0.62664
1432.92339	0.62474
1430.99482	0.62318
1429.06626	0.62192
1427.13770	0.62096
1425.20913	0.62014
1423.28057	0.61941
1421.35200	0.61881
1419.42344	0.61809
1417.49487	0.61703
1415.56631	0.61585
1413.63774	0.61473
1411.70918	0.61364
1409.78062	0.61272
1407.85205	0.61202
1405.92349	0.61146
1403.99492	0.61087
1402.06636	0.61002
1400.13779	0.60884
1398.20923	0.60731
1396.28066	0.60553
1394.35210	0.60343
1392.42354	0.60124
1390.49497	0.59914
1388.56641	0.59695
1386.63784	0.59461
1384.70928	0.59224
1382.78071	0.58998
1380.85215	0.58782
1378.92358	0.58582
1376.99502	0.58409
1375.06646	0.58291
1373.13789	0.58215
1371.20933	0.58145
1369.28076	0.58077
1367.35220	0.57987
1365.42363	0.57862
1363.49507	0.57735
1361.56650	0.57630
1359.63794	0.57527
1357.70937	0.57420
1355.78081	0.57311
1353.85225	0.57199
1351.92368	0.57083
1349.99512	0.56969
1348.06655	0.56860
1346.13799	0.56761
1344.20942	0.56676
1342.28086	0.56593
1340.35229	0.56500
1338.42373	0.56399
1336.49517	0.56317
1334.56660	0.56253
1332.63804	0.56189
1330.70947	0.56128
1328.78091	0.56082
1326.85234	0.56054
1324.92378	0.56038
1322.99521	0.56021
1321.06665	0.55989
1319.13809	0.55953
1317.20952	0.55926
1315.28096	0.55890
1313.35239	0.55819
1311.42383	0.55735
1309.49526	0.55663
1307.56670	0.55592
1305.63813	0.55510
1303.70957	0.55428
1301.78101	0.55347
1299.85244	0.55255
1297.92388	0.55161
1295.99531	0.55074
1294.06675	0.54985
1292.13818	0.54888
1290.20962	0.54793
1288.28105	0.54718
1286.35249	0.54659
1284.42393	0.54595
1282.49536	0.54511
1280.56680	0.54421
1278.63823	0.54343
1276.70967	0.54263
1274.78110	0.54176
1272.85254	0.54102
1270.92397	0.54051
1268.99541	0.54008
1267.06685	0.53953
1265.13828	0.53889
1263.20972	0.53836
1261.28115	0.53794
1259.35259	0.53743
1257.42402	0.53686
1255.49546	0.53642
1253.56689	0.53621
1251.63833	0.53611
1249.70977	0.53591
1247.78120	0.53554
1245.85264	0.53508
1243.92407	0.53454
1241.99551	0.53387
1240.06694	0.53302
1238.13838	0.53204
1236.20981	0.53094
1234.28125	0.52978
1232.35269	0.52856
1230.42412	0.52726
1228.49556	0.52609
1226.56699	0.52508
1224.63843	0.52403
1222.70986	0.52288
1220.78130	0.52177
1218.85273	0.52074
1216.92417	0.51980
1214.99561	0.51907
1213.06704	0.51840
1211.13848	0.51769
1209.20991	0.51699
1207.28135	0.51634
1205.35278	0.51569
1203.42422	0.51507
1201.49565	0.51449
1199.56709	0.51384
1197.63853	0.51297
1195.70996	0.51204
1193.78140	0.51138
1191.85283	0.51094
1189.92427	0.51051
1187.99570	0.51013
1186.06714	0.50987
1184.13857	0.50975
1182.21001	0.50986
1180.28145	0.51032
1178.35288	0.51102
1176.42432	0.51175
1174.49575	0.51241
1172.56719	0.51306
1170.63862	0.51371
1168.71006	0.51430
1166.78149	0.51489
1164.85293	0.51554
1162.92437	0.51619
1160.99580	0.51656
1159.06724	0.51655
1157.13867	0.51641
1155.21011	0.51614
1153.28154	0.51548
1151.35298	0.51418
1149.42441	0.51215
1147.49585	0.50960
1145.56729	0.50691
1143.63872	0.50441
1141.71016	0.50226
1139.78159	0.50045
1137.85303	0.49891
1135.92446	0.49762
1133.99590	0.49664
1132.06733	0.49595
1130.13877	0.49543
1128.21021	0.49484
1126.28164	0.49408
1124.35308	0.49342
1122.42451	0.49298
1120.49595	0.49263
1118.56738	0.49240
1116.63882	0.49253
1114.71025	0.49298
1112.78169	0.49353
1110.85312	0.49422
1108.92456	0.49502
1106.99600	0.49583
1105.06743	0.49677
1103.13887	0.49771
1101.21030	0.49850
1099.28174	0.49948
1097.35317	0.50115
1095.42461	0.50384
1093.49604	0.50781
1091.56748	0.51310
1089.63892	0.51935
1087.71035	0.52643
1085.78179	0.53448
1083.85322	0.54319
1081.92466	0.55133
1079.99609	0.55730
1078.06753	0.56013
1076.13896	0.55986
1074.21040	0.55691
1072.28184	0.55170
1070.35327	0.54496
1068.42471	0.53783
1066.49614	0.53102
1064.56758	0.52468
1062.63901	0.51901
1060.71045	0.51418
1058.78188	0.51011
1056.85332	0.50647
1054.92476	0.50311
1052.99619	0.50014
1051.06763	0.49780
1049.13906	0.49647
1047.21050	0.49593
1045.28193	0.49569
1043.35337	0.49584
1041.42480	0.49645
1039.49624	0.49712
1037.56768	0.49743
1035.63911	0.49720
1033.71055	0.49646
1031.78198	0.49534
1029.85342	0.49405
1027.92485	0.49287
1025.99629	0.49177
1024.06772	0.49074
1022.13916	0.48998
1020.21060	0.48960
1018.28203	0.48948
1016.35347	0.48947
1014.42490	0.48948
1012.49634	0.48940
1010.56777	0.48936
1008.63921	0.48965
1006.71064	0.49029
1004.78208	0.49120
1002.85352	0.49277
1000.92495	0.49533
998.99639	0.49874
997.06782	0.50272
995.13926	0.50695
993.21069	0.51093
991.28213	0.51418
989.35356	0.51640
987.42500	0.51746
985.49644	0.51754
983.56787	0.51733
981.63931	0.51757
979.71074	0.51841
977.78218	0.51994
975.85361	0.52217
973.92505	0.52483
971.99648	0.52780
970.06792	0.53115
968.13936	0.53493
966.21079	0.53917
964.28223	0.54370
962.35366	0.54819
960.42510	0.55300
958.49653	0.55871
956.56797	0.56482
954.63940	0.57065
952.71084	0.57653
950.78228	0.58289
948.85371	0.58935
946.92515	0.59567
944.99658	0.60219
943.06802	0.60865
941.13945	0.61441
939.21089	0.61964
937.28232	0.62506
935.35376	0.63104
933.42520	0.63729
931.49663	0.64327
929.56807	0.64869
927.63950	0.65424
925.71094	0.66056
923.78237	0.66717
921.85381	0.67365
919.92524	0.68047
917.99668	0.68826
916.06812	0.69655
914.13955	0.70418
912.21099	0.71122
910.28242	0.71872
908.35386	0.72713
906.42529	0.73568
904.49673	0.74468
902.56816	0.75512
900.63960	0.76590
898.71104	0.77514
896.78247	0.78258
894.85391	0.79020
892.92534	0.80030
890.99678	0.81189
889.06821	0.82319
887.13965	0.83534
885.21108	0.84781
883.28252	0.85865
881.35396	0.86886
879.42539	0.87972
877.49683	0.89128
875.56826	0.90297
873.63970	0.91464
871.71113	0.92631
869.78257	0.93806
867.85400	0.95084
865.92544	0.96345
863.99687	0.97440
862.06831	0.98425
860.13975	0.99413
858.21118	1.00586
856.28262	1.01958
854.35405	1.03365
852.42549	1.04668
850.49692	1.05871
848.56836	1.07081
846.63979	1.08279
844.71123	1.09320
842.78267	1.10280
840.85410	1.11465
838.92554	1.12772
836.99697	1.14090
835.06841	1.15658
833.13984	1.17112
831.21128	1.17871
829.28271	1.18541
827.35415	1.19683
825.42559	1.20842
823.49702	1.21834
821.56846	1.22988
819.63989	1.24837
817.71133	1.26907
815.78276	1.28412
813.85420	1.29144
811.92563	1.28722
809.99707	1.28713
808.06851	1.30432
806.13994	1.32750
804.21138	1.34531
802.28281	1.34893
800.35425	1.34444
798.42568	1.35979
796.49712	1.39601
794.56855	1.43137
792.63999	1.44325
790.71143	1.41929
788.78286	1.40820
786.85430	1.42372
784.92573	1.42320
782.99717	1.40890
781.06860	1.43763
779.14004	1.58610
777.21147	1.82186
775.28291	1.74914
773.35435	1.57256
771.42578	1.52209
769.49722	1.51319
767.56865	1.47502
765.64009	1.38763
763.71152	1.35072
761.78296	1.40529
759.85439	1.43511
757.92583	1.33140
755.99727	1.23313
754.06870	1.28516
752.14014	1.49144
750.21157	1.47297
748.28301	1.21918
746.35444	1.07707
744.42588	1.01582
742.49731	0.95235
740.56875	0.86218
738.64019	0.78749
736.71162	0.74455
734.78306	0.70276
732.85449	0.65262
730.92593	0.55765
728.99736	0.37309
727.06880	0.24162
725.14023	0.24630
723.21167	0.26008
721.28311	0.11339
719.35454	0.00569
717.42598	0.03524
715.49741	0.17045
713.56885	0.54409
711.64028	0.81229
709.71172	0.52765
707.78315	0.34739
705.85459	0.37083
703.92603	0.41343
701.99746	0.35284
700.06890	0.32393
698.14033	0.44360
696.21177	0.80023
694.28320	1.19152
692.35464	0.74826
690.42607	0.62204
688.49751	0.67212
686.56895	0.63486
684.64038	0.49328
682.71182	0.44531
680.78325	0.53737
678.85469	0.69806
676.92612	0.61384
674.99756	0.39929
673.06899	0.30917
671.14043	0.33574
669.21187	0.41664
667.28330	0.48786
665.35474	0.54278
663.42617	0.63414
661.49761	0.75873
659.56904	0.70991
657.64048	0.53455
655.71191	0.41781
653.78335	0.35308
651.85479	0.30790
649.92622	0.29527
647.99766	0.39144
646.06909	0.53528
644.14053	0.41905
642.21196	0.25360
640.28340	0.26736
638.35483	0.42623
636.42627	0.58383
634.49771	0.58208
632.56914	0.45686
630.64058	0.33554
628.71201	0.31879
626.78345	0.37037
624.85488	0.35861
622.92632	0.38285
620.99775	0.53130
619.06919	0.50497
617.14062	0.38283
615.21206	0.36574
613.28350	0.44426
611.35493	0.45692
609.42637	0.40559
607.49780	0.40879
605.56924	0.48476
603.64067	0.74656
601.71211	1.41503
599.78354	0.65123
597.85498	0.48439
595.92642	0.59526
593.99785	0.94443
592.06929	0.69048
590.14072	0.50548
588.21216	0.61284
586.28359	0.75412
584.35503	0.45586
582.42646	0.29671
580.49790	0.29532
578.56934	0.37298
576.64077	0.40747
574.71221	0.43795
572.78364	0.58084
570.85508	0.73042
568.92651	0.54010
566.99795	0.36920
565.06938	0.30435
563.14082	0.29921
561.21226	0.30656
559.28369	0.30035
557.35513	0.27537
555.42656	0.24275
553.49800	0.22927
551.56943	0.23217
549.64087	0.23104
547.71230	0.24001
545.78374	0.25555
543.85518	0.28107
541.92661	0.31822
539.99805	0.29756
538.06948	0.26363
536.14092	0.30362
534.21235	0.42822
532.28379	0.62867
530.35522	0.55415
528.42666	0.33167
526.49810	0.25567
524.56953	0.26959
522.64097	0.27667
520.71240	0.26286
518.78384	0.25914
516.85527	0.23491
514.92671	0.19975
512.99814	0.21502
511.06958	0.29489
509.14102	0.38903
507.21245	0.44742
505.28389	0.41908
503.35532	0.33780
501.42676	0.30896
499.49819	0.32695
