3997.91411	0.07015
3995.98555	0.07066
3994.05698	0.07133
3992.12842	0.07225
3990.19985	0.07307
3988.27129	0.07343
3986.34272	0.07361
3984.41416	0.07381
3982.48560	0.07394
3980.55703	0.07412
3978.62847	0.07426
3976.69990	0.07426
3974.77134	0.07437
3972.84277	0.07485
3970.91421	0.07531
3968.98564	0.07535
3967.05708	0.07521
3965.12852	0.07522
3963.19995	0.07552
3961.27139	0.07586
3959.34282	0.07587
3957.41426	0.07580
3955.48569	0.07586
3953.55713	0.07572
3951.62856	0.07569
3949.70000	0.07640
3947.77144	0.07730
3945.84287	0.07722
3943.91431	0.07672
3941.98574	0.07655
3940.05718	0.07625
3938.12861	0.07579
3936.20005	0.07559
3934.27148	0.07578
3932.34292	0.07650
3930.41436	0.07754
3928.48579	0.07782
3926.55723	0.07729
3924.62866	0.07705
3922.70010	0.07700
3920.77153	0.07645
3918.84297	0.07621
3916.91440	0.07667
3914.98584	0.07653
3913.05728	0.07555
3911.12871	0.07482
3909.20015	0.07478
3907.27158	0.07548
3905.34302	0.07729
3903.41445	0.07992
3901.48589	0.08146
3899.55732	0.08088
3897.62876	0.07906
3895.70020	0.07703
3893.77163	0.07600
3891.84307	0.07655
3889.91450	0.07731
3887.98594	0.07711
3886.05737	0.07759
3884.12881	0.07881
3882.20024	0.07942
3880.27168	0.07961
3878.34312	0.07872
3876.41455	0.07751
3874.48599	0.07810
3872.55742	0.07982
3870.62886	0.08104
3868.70029	0.08134
3866.77173	0.08074
3864.84316	0.08116
3862.91460	0.08251
3860.98604	0.08208
3859.05747	0.08054
3857.12891	0.08019
3855.20034	0.08202
3853.27178	0.08637
3851.34321	0.08862
3849.41465	0.08553
3847.48608	0.08278
3845.55752	0.08254
3843.62896	0.08440
3841.70039	0.08671
3839.77183	0.08857
3837.84326	0.09027
3835.91470	0.09075
3833.98613	0.09005
3832.05757	0.08960
3830.12900	0.08944
3828.20044	0.08941
3826.27187	0.08995
3824.34331	0.09084
3822.41475	0.09225
3820.48618	0.09473
3818.55762	0.09596
3816.62905	0.09627
3814.70049	0.09700
3812.77192	0.09651
3810.84336	0.09565
3808.91479	0.09617
3806.98623	0.09840
3805.05767	0.10092
3803.12910	0.10313
3801.20054	0.10618
3799.27197	0.10742
3797.34341	0.10640
3795.41484	0.10615
3793.48628	0.10627
3791.55771	0.10636
3789.62915	0.10679
3787.70059	0.10749
3785.77202	0.10895
3783.84346	0.11117
3781.91489	0.11310
3779.98633	0.11508
3778.05776	0.11726
3776.12920	0.11802
3774.20063	0.11810
3772.27207	0.11937
3770.34351	0.12230
3768.41494	0.12572
3766.48638	0.12785
3764.55781	0.12909
3762.62925	0.13028
3760.70068	0.13230
3758.77212	0.13571
3756.84355	0.13909
3754.91499	0.14154
3752.98643	0.14489
3751.05786	0.15084
3749.12930	0.15643
3747.20073	0.15762
3745.27217	0.15822
3743.34360	0.16074
3741.41504	0.16320
3739.48647	0.16495
3737.55791	0.16799
3735.62935	0.17403
3733.70078	0.18145
3731.77222	0.18571
3729.84365	0.18726
3727.91509	0.18900
3725.98652	0.19361
3724.05796	0.20114
3722.12939	0.20863
3720.20083	0.21519
3718.27227	0.22170
3716.34370	0.22865
3714.41514	0.23635
3712.48657	0.24667
3710.55801	0.26131
3708.62944	0.27513
3706.70088	0.28485
3704.77231	0.29439
3702.84375	0.30668
3700.91519	0.32327
3698.98662	0.34100
3697.05806	0.35755
3695.12949	0.37575
3693.20093	0.39576
3691.27236	0.41813
3689.34380	0.44721
3687.41523	0.48148
3685.48667	0.51019
3683.55811	0.53499
3681.62954	0.56265
3679.70098	0.59468
3677.77241	0.62849
3675.84385	0.66798
3673.91528	0.72028
3671.98672	0.76277
3670.05815	0.80110
3668.12959	0.85308
3666.20103	0.89888
3664.27246	0.93722
3662.34390	0.97981
3660.41533	1.02650
3658.48677	1.07261
3656.55820	1.12200
3654.62964	1.17729
3652.70107	1.22352
3650.77251	1.26393
3648.84395	1.32029
3646.91538	1.38790
3644.98682	1.43530
3643.05825	1.47182
3641.12969	1.51088
3639.20112	1.55478
3637.27256	1.59884
3635.34399	1.64132
3633.41543	1.68349
3631.48687	1.72356
3629.55830	1.76573
3627.62974	1.81989
3625.70117	1.86812
3623.77261	1.90061
3621.84404	1.93304
3619.91548	1.97183
3617.98691	2.01872
3616.05835	2.06233
3614.12979	2.09869
3612.20122	2.13772
3610.27266	2.17667
3608.34409	2.21544
3606.41553	2.25689
3604.48696	2.29511
3602.55840	2.32969
3600.62983	2.36789
3598.70127	2.40865
3596.77271	2.44803
3594.84414	2.48989
3592.91558	2.53421
3590.98701	2.57391
3589.05845	2.60899
3587.12988	2.65128
3585.20132	2.69893
3583.27275	2.73954
3581.34419	2.77730
3579.41562	2.81786
3577.48706	2.86044
3575.55850	2.90251
3573.62993	2.94416
3571.70137	2.98507
3569.77280	3.02640
3567.84424	3.07240
3565.91567	3.12756
3563.98711	3.17840
3562.05854	3.21925
3560.12998	3.26018
3558.20142	3.30276
3556.27285	3.34611
3554.34429	3.38925
3552.41572	3.43335
3550.48716	3.47929
3548.55859	3.52642
3546.63003	3.57490
3544.70146	3.62400
3542.77290	3.67133
3540.84434	3.71752
3538.91577	3.76312
3536.98721	3.80898
3535.05864	3.85791
3533.13008	3.90748
3531.20151	3.95776
3529.27295	4.00909
3527.34438	4.05946
3525.41582	4.10704
3523.48726	4.15136
3521.55869	4.19610
3519.63013	4.24303
3517.70156	4.29067
3515.77300	4.33705
3513.84443	4.38385
3511.91587	4.43292
3509.98730	4.48340
3508.05874	4.53235
3506.13018	4.57942
3504.20161	4.62823
3502.27305	4.68042
3500.34448	4.73311
3498.41592	4.78072
3496.48735	4.82350
3494.55879	4.86815
3492.63022	4.92037
3490.70166	4.97573
3488.77310	5.02567
3486.84453	5.07484
3484.91597	5.13164
3482.98740	5.18364
3481.05884	5.22149
3479.13027	5.26186
3477.20171	5.31316
3475.27314	5.36528
3473.34458	5.41358
3471.41602	5.46029
3469.48745	5.51057
3467.55889	5.56466
3465.63032	5.61271
3463.70176	5.65739
3461.77319	5.71035
3459.84463	5.76376
3457.91606	5.80235
3455.98750	5.84044
3454.05894	5.89550
3452.13037	5.95848
3450.20181	6.01451
3448.27324	6.05782
3446.34468	6.10164
3444.41611	6.15738
3442.48755	6.22286
3440.55898	6.28829
3438.63042	6.33557
3436.70186	6.36267
3434.77329	6.40079
3432.84473	6.47141
3430.91616	6.55266
3428.98760	6.60639
3427.05903	6.62667
3425.13047	6.66223
3423.20190	6.72756
3421.27334	6.78125
3419.34478	6.80811
3417.41621	6.84949
3415.48765	6.91906
3413.55908	6.98245
3411.63052	7.04139
3409.70195	7.09862
3407.77339	7.15109
3405.84482	7.21197
3403.91626	7.27248
3401.98770	7.30844
3400.05913	7.32587
3398.13057	7.33956
3396.20200	7.38324
3394.27344	7.46982
3392.34487	7.52794
3390.41631	7.55305
3388.48774	7.58463
3386.55918	7.59804
3384.63062	7.57478
3382.70205	7.57007
3380.77349	7.60385
3378.84492	7.66361
3376.91636	7.75963
3374.98779	7.85062
3373.05923	7.90848
3371.13066	7.90500
3369.20210	7.90313
3367.27354	7.98194
3365.34497	8.05424
3363.41641	8.04420
3361.48784	8.02891
3359.55928	8.06471
3357.63071	8.10866
3355.70215	8.11040
3353.77358	8.04017
3351.84502	7.96164
3349.91646	7.94578
3347.98789	8.03336
3346.05933	8.16294
3344.13076	8.21270
3342.20220	8.22629
3340.27363	8.23234
3338.34507	8.23852
3336.41650	8.23321
3334.48794	8.15354
3332.55937	8.07573
3330.63081	8.11544
3328.70225	8.22466
3326.77368	8.31158
3324.84512	8.36734
3322.91655	8.43231
3320.98799	8.53760
3319.05942	8.51975
3317.13086	8.34749
3315.20229	8.23460
3313.27373	8.27989
3311.34517	8.42945
3309.41660	8.51669
3307.48804	8.44402
3305.55947	8.32001
3303.63091	8.26068
3301.70234	8.29573
3299.77378	8.38684
3297.84521	8.42598
3295.91665	8.45452
3293.98809	8.52540
3292.05952	8.55417
3290.13096	8.58052
3288.20239	8.64771
3286.27383	8.61276
3284.34526	8.44871
3282.41670	8.33701
3280.48813	8.35684
3278.55957	8.45448
3276.63101	8.50244
3274.70244	8.48056
3272.77388	8.45513
3270.84531	8.44748
3268.91675	8.50852
3266.98818	8.57367
3265.05962	8.51487
3263.13105	8.49674
3261.20249	8.66416
3259.27393	8.74610
3257.34536	8.63705
3255.41680	8.54108
3253.48823	8.45064
3251.55967	8.42626
3249.63110	8.49184
3247.70254	8.49981
3245.77397	8.47905
3243.84541	8.47694
3241.91685	8.38854
3239.98828	8.30934
3238.05972	8.28371
3236.13115	8.21824
3234.20259	8.16870
3232.27402	8.19861
3230.34546	8.26718
3228.41689	8.29513
3226.48833	8.30188
3224.55977	8.34444
3222.63120	8.37616
3220.70264	8.33699
3218.77407	8.24682
3216.84551	8.16718
3214.91694	8.14537
3212.98838	8.16677
3211.05981	8.14280
3209.13125	8.08876
3207.20269	8.06710
3205.27412	8.01182
3203.34556	7.92732
3201.41699	7.91863
3199.48843	7.96616
3197.55986	7.93999
3195.63130	7.85291
3193.70273	7.82239
3191.77417	7.79897
3189.84561	7.70759
3187.91704	7.61977
3185.98848	7.59982
3184.05991	7.63624
3182.13135	7.67926
3180.20278	7.65633
3178.27422	7.51695
3176.34565	7.34928
3174.41709	7.24951
3172.48853	7.19545
3170.55996	7.15822
3168.63140	7.12232
3166.70283	7.05925
3164.77427	6.99094
3162.84570	6.94020
3160.91714	6.88739
3158.98857	6.82690
3157.06001	6.76613
3155.13145	6.70378
3153.20288	6.61187
3151.27432	6.49162
3149.34575	6.39456
3147.41719	6.32884
3145.48862	6.27245
3143.56006	6.22083
3141.63149	6.16209
3139.70293	6.08342
3137.77437	6.00081
3135.84580	5.93175
3133.91724	5.87274
3131.98867	5.80591
3130.06011	5.72244
3128.13154	5.63763
3126.20298	5.55909
3124.27441	5.48008
3122.34585	5.40144
3120.41729	5.33034
3118.48872	5.26086
3116.56016	5.18547
3114.63159	5.11533
3112.70303	5.05572
3110.77446	4.99249
3108.84590	4.91880
3106.91733	4.84358
3104.98877	4.77405
3103.06021	4.71059
3101.13164	4.64472
3099.20308	4.57177
3097.27451	4.50092
3095.34595	4.43503
3093.41738	4.36909
3091.48882	4.30321
3089.56025	4.23959
3087.63169	4.17664
3085.70312	4.11089
3083.77456	4.04307
3081.84600	3.97699
3079.91743	3.91359
3077.98887	3.85311
3076.06030	3.79556
3074.13174	3.73722
3072.20317	3.67649
3070.27461	3.61784
3068.34604	3.56310
3066.41748	3.50687
3064.48892	3.44661
3062.56035	3.38650
3060.63179	3.32918
3058.70322	3.27399
3056.77466	3.22038
3054.84609	3.16683
3052.91753	3.11313
3050.98896	3.06204
3049.06040	3.01252
3047.13184	2.96162
3045.20327	2.91039
3043.27471	2.86036
3041.34614	2.81182
3039.41758	2.76423
3037.48901	2.71626
3035.56045	2.66867
3033.63188	2.62310
3031.70332	2.57857
3029.77476	2.53362
3027.84619	2.48878
3025.91763	2.44566
3023.98906	2.40434
3022.06050	2.36271
3020.13193	2.32016
3018.20337	2.27840
3016.27480	2.23815
3014.34624	2.19858
3012.41768	2.15951
3010.48911	2.12112
3008.56055	2.08327
3006.63198	2.04682
3004.70342	2.01171
3002.77485	1.97654
3000.84629	1.94130
2998.91772	1.90689
2996.98916	1.87323
2995.06060	1.84004
2993.13203	1.80802
2991.20347	1.77704
2989.27490	1.74636
2987.34634	1.71619
2985.41777	1.68653
2983.48921	1.65736
2981.56064	1.62893
2979.63208	1.60113
2977.70352	1.57372
2975.77495	1.54692
2973.84639	1.52071
2971.91782	1.49468
2969.98926	1.46901
2968.06069	1.44398
2966.13213	1.41965
2964.20356	1.39578
2962.27500	1.37189
2960.34644	1.34790
2958.41787	1.32372
2956.48931	1.29935
2954.56074	1.27533
2952.63218	1.25204
2950.70361	1.22929
2948.77505	1.20699
2946.84648	1.18528
2944.91792	1.16402
2942.98936	1.14318
2941.06079	1.12269
2939.13223	1.10197
2937.20366	1.08141
2935.27510	1.06185
2933.34653	1.04257
2931.41797	1.02318
2929.48940	1.00436
2927.56084	0.98607
2925.63228	0.96810
2923.70371	0.95070
2921.77515	0.93352
2919.84658	0.91612
2917.91802	0.89906
2915.98945	0.88290
2914.06089	0.86728
2912.13232	0.85164
2910.20376	0.83622
2908.27520	0.82130
2906.34663	0.80640
2904.41807	0.79185
2902.48950	0.77824
2900.56094	0.76491
2898.63237	0.75148
2896.70381	0.73847
2894.77524	0.72604
2892.84668	0.71395
2890.91812	0.70210
2888.98955	0.69049
2887.06099	0.67906
2885.13242	0.66798
2883.20386	0.65742
2881.27529	0.64735
2879.34673	0.63765
2877.41816	0.62792
2875.48960	0.61779
2873.56104	0.60766
2871.63247	0.59767
2869.70391	0.58736
2867.77534	0.57671
2865.84678	0.56599
2863.91821	0.55517
2861.98965	0.54419
2860.06108	0.53350
2858.13252	0.52370
2856.20396	0.51488
2854.27539	0.50635
2852.34683	0.49784
2850.41826	0.48977
2848.48970	0.48210
2846.56113	0.47458
2844.63257	0.46716
2842.70400	0.45986
2840.77544	0.45312
2838.84687	0.44698
2836.91831	0.44099
2834.98975	0.43487
2833.06118	0.42856
2831.13262	0.42232
2829.20405	0.41657
2827.27549	0.41103
2825.34692	0.40517
2823.41836	0.39924
2821.48979	0.39360
2819.56123	0.38804
2817.63267	0.38222
2815.70410	0.37636
2813.77554	0.37093
2811.84697	0.36591
2809.91841	0.36080
2807.98984	0.35542
2806.06128	0.35000
2804.13271	0.34483
2802.20415	0.33999
2800.27559	0.33532
2798.34702	0.33064
2796.41846	0.32596
2794.48989	0.32142
2792.56133	0.31710
2790.63276	0.31284
2788.70420	0.30850
2786.77563	0.30417
2784.84707	0.30005
2782.91851	0.29610
2780.98994	0.29213
2779.06138	0.28819
2777.13281	0.28449
2775.20425	0.28089
2773.27568	0.27708
2771.34712	0.27333
2769.41855	0.26991
2767.48999	0.26666
2765.56143	0.26338
2763.63286	0.26002
2761.70430	0.25664
2759.77573	0.25338
2757.84717	0.25033
2755.91860	0.24740
2753.99004	0.24444
2752.06147	0.24146
2750.13291	0.23848
2748.20435	0.23556
2746.27578	0.23284
2744.34722	0.23021
2742.41865	0.22763
2740.49009	0.22527
2738.56152	0.22297
2736.63296	0.22050
2734.70439	0.21813
2732.77583	0.21587
2730.84727	0.21352
2728.91870	0.21130
2726.99014	0.20935
2725.06157	0.20743
2723.13301	0.20537
2721.20444	0.20318
2719.27588	0.20101
2717.34731	0.19902
2715.41875	0.19726
2713.49019	0.19547
2711.56162	0.19365
2709.63306	0.19209
2707.70449	0.19068
2705.77593	0.18916
2703.84736	0.18754
2701.91880	0.18596
2699.99023	0.18449
2698.06167	0.18307
2696.13311	0.18168
2694.20454	0.18040
2692.27598	0.17911
2690.34741	0.17766
2688.41885	0.17615
2686.49028	0.17482
2684.56172	0.17369
2682.63315	0.17274
2680.70459	0.17175
2678.77603	0.17054
2676.84746	0.16951
2674.91890	0.16882
2672.99033	0.16794
2671.06177	0.16679
2669.13320	0.16569
2667.20464	0.16474
2665.27607	0.16389
2663.34751	0.16306
2661.41895	0.16216
2659.49038	0.16136
2657.56182	0.16064
2655.63325	0.15988
2653.70469	0.15931
2651.77612	0.15882
2649.84756	0.15818
2647.91899	0.15749
2645.99043	0.15685
2644.06187	0.15623
2642.13330	0.15567
2640.20474	0.15528
2638.27617	0.15492
2636.34761	0.15446
2634.41904	0.15404
2632.49048	0.15379
2630.56191	0.15351
2628.63335	0.15308
2626.70479	0.15267
2624.77622	0.15239
2622.84766	0.15215
2620.91909	0.15182
2618.99053	0.15144
2617.06196	0.15116
2615.13340	0.15098
2613.20483	0.15084
2611.27627	0.15077
2609.34771	0.15075
2607.41914	0.15070
2605.49058	0.15062
2603.56201	0.15065
2601.63345	0.15072
2599.70488	0.15072
2597.77632	0.15078
2595.84775	0.15088
2593.91919	0.15098
2591.99062	0.15109
2590.06206	0.15119
2588.13350	0.15129
2586.20493	0.15154
2584.27637	0.15187
2582.34780	0.15217
2580.41924	0.15248
2578.49067	0.15277
2576.56211	0.15300
2574.63354	0.15324
2572.70498	0.15359
2570.77642	0.15423
2568.84785	0.15489
2566.91929	0.15521
2564.99072	0.15540
2563.06216	0.15580
2561.13359	0.15626
2559.20503	0.15663
2557.27646	0.15694
2555.34790	0.15732
2553.41934	0.15779
2551.49077	0.15833
2549.56221	0.15905
2547.63364	0.15981
2545.70508	0.16037
2543.77651	0.16083
2541.84795	0.16146
2539.91938	0.16221
2537.99082	0.16283
2536.06226	0.16332
2534.13369	0.16388
2532.20513	0.16457
2530.27656	0.16536
2528.34800	0.16625
2526.41943	0.16721
2524.49087	0.16809
2522.56230	0.16875
2520.63374	0.16930
2518.70518	0.16998
2516.77661	0.17076
2514.84805	0.17158
2512.91948	0.17243
2510.99092	0.17324
2509.06235	0.17406
2507.13379	0.17496
2505.20522	0.17575
2503.27666	0.17634
2501.34810	0.17690
2499.41953	0.17767
2497.49097	0.17866
2495.56240	0.17968
2493.63384	0.18061
2491.70527	0.18147
2489.77671	0.18240
2487.84814	0.18332
2485.91958	0.18416
2483.99102	0.18506
2482.06245	0.18605
2480.13389	0.18690
2478.20532	0.18770
2476.27676	0.18855
2474.34819	0.18940
2472.41963	0.19027
2470.49106	0.19119
2468.56250	0.19212
2466.63394	0.19299
2464.70537	0.19385
2462.77681	0.19481
2460.84824	0.19584
2458.91968	0.19687
2456.99111	0.19791
2455.06255	0.19888
2453.13398	0.19978
2451.20542	0.20065
2449.27686	0.20156
2447.34829	0.20259
2445.41973	0.20374
2443.49116	0.20492
2441.56260	0.20601
2439.63403	0.20700
2437.70547	0.20786
2435.77690	0.20867
2433.84834	0.20960
2431.91978	0.21065
2429.99121	0.21176
2428.06265	0.21286
2426.13408	0.21399
2424.20552	0.21527
2422.27695	0.21654
2420.34839	0.21764
2418.41982	0.21875
2416.49126	0.21986
2414.56270	0.22087
2412.63413	0.22191
2410.70557	0.22305
2408.77700	0.22420
2406.84844	0.22539
2404.91987	0.22656
2402.99131	0.22765
2401.06274	0.22871
2399.13418	0.22984
2397.20562	0.23106
2395.27705	0.23229
2393.34849	0.23354
2391.41992	0.23497
2389.49136	0.23650
2387.56279	0.23785
2385.63423	0.23896
2383.70566	0.23996
2381.77710	0.24092
2379.84854	0.24176
2377.91997	0.24246
2375.99141	0.24326
2374.06284	0.24440
2372.13428	0.24567
2370.20571	0.24670
2368.27715	0.24780
2366.34858	0.24983
2364.42002	0.25234
2362.49146	0.25420
2360.56289	0.25536
2358.63433	0.25606
2356.70576	0.25686
2354.77720	0.25868
2352.84863	0.26124
2350.92007	0.26316
2348.99150	0.26401
2347.06294	0.26457
2345.13437	0.26594
2343.20581	0.26795
2341.27725	0.26899
2339.34868	0.27010
2337.42012	0.27230
2335.49155	0.27464
2333.56299	0.27662
2331.63442	0.27834
2329.70586	0.27978
2327.77729	0.28123
2325.84873	0.28289
2323.92017	0.28477
2321.99160	0.28666
2320.06304	0.28840
2318.13447	0.29031
2316.20591	0.29225
2314.27734	0.29412
2312.34878	0.29616
2310.42021	0.29826
2308.49165	0.30021
2306.56309	0.30217
2304.63452	0.30414
2302.70596	0.30595
2300.77739	0.30768
2298.84883	0.30959
2296.92026	0.31174
2294.99170	0.31392
2293.06313	0.31588
2291.13457	0.31770
2289.20601	0.31957
2287.27744	0.32143
2285.34888	0.32332
2283.42031	0.32542
2281.49175	0.32760
2279.56318	0.32960
2277.63462	0.33143
2275.70605	0.33332
2273.77749	0.33541
2271.84893	0.33764
2269.92036	0.33987
2267.99180	0.34206
2266.06323	0.34421
2264.13467	0.34637
2262.20610	0.34855
2260.27754	0.35065
2258.34897	0.35270
2256.42041	0.35485
2254.49185	0.35715
2252.56328	0.35940
2250.63472	0.36155
2248.70615	0.36368
2246.77759	0.36586
2244.84902	0.36808
2242.92046	0.37024
2240.99189	0.37238
2239.06333	0.37466
2237.13477	0.37707
2235.20620	0.37929
2233.27764	0.38135
2231.34907	0.38355
2229.42051	0.38586
2227.49194	0.38815
2225.56338	0.39041
2223.63481	0.39266
2221.70625	0.39482
2219.77769	0.39693
2217.84912	0.39910
2215.92056	0.40134
2213.99199	0.40364
2212.06343	0.40589
2210.13486	0.40795
2208.20630	0.40988
2206.27773	0.41185
2204.34917	0.41391
2202.42061	0.41605
2200.49204	0.41823
2198.56348	0.42027
2196.63491	0.42213
2194.70635	0.42399
2192.77778	0.42585
2190.84922	0.42766
2188.92065	0.42948
2186.99209	0.43144
2185.06353	0.43338
2183.13496	0.43510
2181.20640	0.43670
2179.27783	0.43822
2177.34927	0.43974
2175.42070	0.44131
2173.49214	0.44283
2171.56357	0.44424
2169.63501	0.44559
2167.70645	0.44687
2165.77788	0.44808
2163.84932	0.44928
2161.92075	0.45048
2159.99219	0.45155
2158.06362	0.45245
2156.13506	0.45332
2154.20649	0.45420
2152.27793	0.45505
2150.34937	0.45586
2148.42080	0.45665
2146.49224	0.45732
2144.56367	0.45777
2142.63511	0.45808
2140.70654	0.45831
2138.77798	0.45851
2136.84941	0.45863
2134.92085	0.45871
2132.99229	0.45889
2131.06372	0.45897
2129.13516	0.45879
2127.20659	0.45839
2125.27803	0.45790
2123.34946	0.45745
2121.42090	0.45703
2119.49233	0.45646
2117.56377	0.45572
2115.63521	0.45495
2113.70664	0.45419
2111.77808	0.45336
2109.84951	0.45238
2107.92095	0.45125
2105.99238	0.45004
2104.06382	0.44892
2102.13525	0.44781
2100.20669	0.44652
2098.27812	0.44496
2096.34956	0.44327
2094.42100	0.44158
2092.49243	0.43989
2090.56387	0.43830
2088.63530	0.43669
2086.70674	0.43484
2084.77817	0.43290
2082.84961	0.43111
2080.92104	0.42930
2078.99248	0.42720
2077.06392	0.42488
2075.13535	0.42257
2073.20679	0.42041
2071.27822	0.41830
2069.34966	0.41614
2067.42109	0.41387
2065.49253	0.41156
2063.56396	0.40922
2061.63540	0.40674
2059.70684	0.40408
2057.77827	0.40143
2055.84971	0.39884
2053.92114	0.39621
2051.99258	0.39360
2050.06401	0.39107
2048.13545	0.38857
2046.20688	0.38596
2044.27832	0.38324
2042.34976	0.38052
2040.42119	0.37782
2038.49263	0.37512
2036.56406	0.37240
2034.63550	0.36965
2032.70693	0.36693
2030.77837	0.36419
2028.84980	0.36133
2026.92124	0.35844
2024.99268	0.35564
2023.06411	0.35291
2021.13555	0.35011
2019.20698	0.34742
2017.27842	0.34487
2015.34985	0.34213
2013.42129	0.33922
2011.49272	0.33636
2009.56416	0.33357
2007.63560	0.33081
2005.70703	0.32812
2003.77847	0.32547
2001.84990	0.32284
1999.92134	0.32027
1997.99277	0.31779
1996.06421	0.31533
1994.13564	0.31298
1992.20708	0.31063
1990.27852	0.30800
1988.34995	0.30529
1986.42139	0.30266
1984.49282	0.30013
1982.56426	0.29780
1980.63569	0.29562
1978.70713	0.29345
1976.77856	0.29117
1974.85000	0.28893
1972.92144	0.28679
1970.99287	0.28471
1969.06431	0.28277
1967.13574	0.28094
1965.20718	0.27889
1963.27861	0.27671
1961.35005	0.27466
1959.42148	0.27275
1957.49292	0.27101
1955.56436	0.26938
1953.63579	0.26764
1951.70723	0.26579
1949.77866	0.26409
1947.85010	0.26255
1945.92153	0.26117
1943.99297	0.25993
1942.06440	0.25862
1940.13584	0.25704
1938.20728	0.25542
1936.27871	0.25399
1934.35015	0.25270
1932.42158	0.25144
1930.49302	0.25021
1928.56445	0.24913
1926.63589	0.24814
1924.70732	0.24731
1922.77876	0.24647
1920.85020	0.24540
1918.92163	0.24449
1916.99307	0.24379
1915.06450	0.24291
1913.13594	0.24197
1911.20737	0.24131
1909.27881	0.24076
1907.35024	0.24008
1905.42168	0.23930
1903.49312	0.23860
1901.56455	0.23799
1899.63599	0.23749
1897.70742	0.23708
1895.77886	0.23670
1893.85029	0.23630
1891.92173	0.23597
1889.99316	0.23593
1888.06460	0.23580
1886.13604	0.23539
1884.20747	0.23503
1882.27891	0.23480
1880.35034	0.23471
1878.42178	0.23470
1876.49321	0.23464
1874.56465	0.23457
1872.63608	0.23476
1870.70752	0.23543
1868.77896	0.23649
1866.85039	0.23681
1864.92183	0.23627
1862.99326	0.23597
1861.06470	0.23614
1859.13613	0.23650
1857.20757	0.23684
1855.27900	0.23724
1853.35044	0.23768
1851.42187	0.23824
1849.49331	0.23903
1847.56475	0.24004
1845.63618	0.24115
1843.70762	0.24214
1841.77905	0.24256
1839.85049	0.24269
1837.92192	0.24338
1835.99336	0.24438
1834.06479	0.24537
1832.13623	0.24654
1830.20767	0.24829
1828.27910	0.24989
1826.35054	0.25082
1824.42197	0.25197
1822.49341	0.25308
1820.56484	0.25407
1818.63628	0.25532
1816.70771	0.25698
1814.77915	0.25869
1812.85059	0.26057
1810.92202	0.26280
1808.99346	0.26488
1807.06489	0.26665
1805.13633	0.26848
1803.20776	0.27090
1801.27920	0.27375
1799.35063	0.27671
1797.42207	0.27920
1795.49351	0.28160
1793.56494	0.28456
1791.63638	0.28831
1789.70781	0.29149
1787.77925	0.29367
1785.85068	0.29657
1783.92212	0.30031
1781.99355	0.30443
1780.06499	0.30869
1778.13643	0.31290
1776.20786	0.31700
1774.27930	0.32183
1772.35073	0.32832
1770.42217	0.33463
1768.49360	0.33938
1766.56504	0.34403
1764.63647	0.34917
1762.70791	0.35520
1760.77935	0.36285
1758.85078	0.36993
1756.92222	0.37706
1754.99365	0.38477
1753.06509	0.39185
1751.13652	0.40056
1749.20796	0.41144
1747.27939	0.42182
1745.35083	0.43092
1743.42227	0.44062
1741.49370	0.45126
1739.56514	0.46383
1737.63657	0.47651
1735.70801	0.48775
1733.77944	0.50466
1731.85088	0.52422
1729.92231	0.53911
1727.99375	0.55421
1726.06519	0.57072
1724.13662	0.58911
1722.20806	0.60903
1720.27949	0.62748
1718.35093	0.64966
1716.42236	0.68241
1714.49380	0.71261
1712.56523	0.73669
1710.63667	0.76029
1708.70811	0.78601
1706.77954	0.81554
1704.85098	0.85075
1702.92241	0.88189
1700.99385	0.91277
1699.06528	0.95921
1697.13672	1.00196
1695.20815	1.04533
1693.27959	1.08703
1691.35103	1.12063
1689.42246	1.16002
1687.49390	1.20218
1685.56533	1.24349
1683.63677	1.30708
1681.70820	1.37189
1679.77964	1.41255
1677.85107	1.45145
1675.92251	1.49681
1673.99395	1.55269
1672.06538	1.60197
1670.13682	1.65087
1668.20825	1.71430
1666.27969	1.76508
1664.35112	1.80872
1662.42256	1.86488
1660.49399	1.92808
1658.56543	1.97640
1656.63687	2.01515
1654.70830	2.05245
1652.77974	2.11262
1650.85117	2.16687
1648.92261	2.18510
1646.99404	2.20872
1645.06548	2.23372
1643.13691	2.24969
1641.20835	2.25994
1639.27979	2.27006
1637.35122	2.27644
1635.42266	2.27546
1633.49409	2.26672
1631.56553	2.25359
1629.63696	2.23760
1627.70840	2.20947
1625.77983	2.17600
1623.85127	2.13618
1621.92271	2.08702
1619.99414	2.04136
1618.06558	1.99723
1616.13701	1.93580
1614.20845	1.87240
1612.27988	1.82319
1610.35132	1.77208
1608.42275	1.71700
1606.49419	1.66276
1604.56562	1.61329
1602.63706	1.56613
1600.70850	1.51987
1598.77993	1.47665
1596.85137	1.43574
1594.92280	1.39632
1592.99424	1.35823
1591.06567	1.32284
1589.13711	1.28987
1587.20854	1.25960
1585.27998	1.23154
1583.35142	1.20498
1581.42285	1.18075
1579.49429	1.16059
1577.56572	1.14299
1575.63716	1.12137
1573.70859	1.10199
1571.78003	1.08976
1569.85146	1.07752
1567.92290	1.06331
1565.99434	1.05218
1564.06577	1.04411
1562.13721	1.03870
1560.20864	1.03655
1558.28008	1.03482
1556.35151	1.03079
1554.42295	1.02733
1552.49438	1.02438
1550.56582	1.02059
1548.63726	1.01514
1546.70869	1.00861
1544.78013	1.00066
1542.85156	0.99068
1540.92300	0.97629
1538.99443	0.95252
1537.06587	0.93394
1535.13730	0.92149
1533.20874	0.90553
1531.28018	0.88817
1529.35161	0.87568
1527.42305	0.86426
1525.49448	0.85227
1523.56592	0.84221
1521.63735	0.83307
1519.70879	0.82305
1517.78022	0.81390
1515.85166	0.80350
1513.92310	0.79276
1511.99453	0.78387
1510.06597	0.77648
1508.13740	0.77011
1506.20884	0.75913
1504.28027	0.74733
1502.35171	0.74041
1500.42314	0.73514
1498.49458	0.73004
1496.56602	0.72380
1494.63745	0.71693
1492.70889	0.71164
1490.78032	0.70762
1488.85176	0.70323
1486.92319	0.69841
1484.99463	0.69412
1483.06606	0.69079
1481.13750	0.68822
1479.20894	0.68614
1477.28037	0.68470
1475.35181	0.68406
1473.42324	0.68395
1471.49468	0.68270
1469.56611	0.67992
1467.63755	0.67734
1465.70898	0.67563
1463.78042	0.67409
1461.85186	0.67248
1459.92329	0.67182
1457.99473	0.67245
1456.06616	0.67220
1454.13760	0.66915
1452.20903	0.66574
1450.28047	0.66279
1448.35190	0.66023
1446.42334	0.65751
1444.49478	0.65471
1442.56621	0.65205
1440.63765	0.64950
1438.70908	0.64740
1436.78052	0.64517
1434.85195	0.64208
1432.92339	0.63916
1430.99482	0.63712
1429.06626	0.63577
1427.13770	0.63489
1425.20913	0.63454
1423.28057	0.63466
1421.35200	0.63489
1419.42344	0.63511
1417.49487	0.63455
1415.56631	0.63278
1413.63774	0.63119
1411.70918	0.63054
1409.78062	0.63063
1407.85205	0.63111
1405.92349	0.63207
1403.99492	0.63295
1402.06636	0.63301
1400.13779	0.63259
1398.20923	0.63150
1396.28066	0.62933
1394.35210	0.62615
1392.42354	0.62246
1390.49497	0.61908
1388.56641	0.61597
1386.63784	0.61243
1384.70928	0.60843
1382.78071	0.60463
1380.85215	0.60115
1378.92358	0.59812
1376.99502	0.59582
1375.06646	0.59425
1373.13789	0.59289
1371.20933	0.59154
1369.28076	0.59046
1367.35220	0.58931
1365.42363	0.58802
1363.49507	0.58694
1361.56650	0.58574
1359.63794	0.58409
1357.70937	0.58258
1355.78081	0.58139
1353.85225	0.58042
1351.92368	0.57971
1349.99512	0.57921
1348.06655	0.57860
1346.13799	0.57776
1344.20942	0.57697
1342.28086	0.57638
1340.35229	0.57585
1338.42373	0.57507
1336.49517	0.57408
1334.56660	0.57333
1332.63804	0.57295
1330.70947	0.57273
1328.78091	0.57256
1326.85234	0.57254
1324.92378	0.57273
1322.99521	0.57302
1321.06665	0.57325
1319.13809	0.57346
1317.20952	0.57363
1315.28096	0.57355
1313.35239	0.57307
1311.42383	0.57219
1309.49526	0.57112
1307.56670	0.57025
1305.63813	0.56976
1303.70957	0.56951
1301.78101	0.56923
1299.85244	0.56867
1297.92388	0.56784
1295.99531	0.56692
1294.06675	0.56593
1292.13818	0.56478
1290.20962	0.56351
1288.28105	0.56243
1286.35249	0.56148
1284.42393	0.56048
1282.49536	0.55947
1280.56680	0.55843
1278.63823	0.55735
1276.70967	0.55641
1274.78110	0.55569
1272.85254	0.55505
1270.92397	0.55437
1268.99541	0.55363
1267.06685	0.55286
1265.13828	0.55207
1263.20972	0.55141
1261.28115	0.55092
1259.35259	0.55031
1257.42402	0.54951
1255.49546	0.54894
1253.56689	0.54894
1251.63833	0.54927
1249.70977	0.54953
1247.78120	0.54945
1245.85264	0.54906
1243.92407	0.54847
1241.99551	0.54769
1240.06694	0.54663
1238.13838	0.54525
1236.20981	0.54359
1234.28125	0.54188
1232.35269	0.54032
1230.42412	0.53882
1228.49556	0.53728
1226.56699	0.53580
1224.63843	0.53437
1222.70986	0.53286
1220.78130	0.53147
1218.85273	0.53043
1216.92417	0.52958
1214.99561	0.52878
1213.06704	0.52798
1211.13848	0.52716
1209.20991	0.52635
1207.28135	0.52567
1205.35278	0.52493
1203.42422	0.52399
1201.49565	0.52314
1199.56709	0.52245
1197.63853	0.52173
1195.70996	0.52111
1193.78140	0.52067
1191.85283	0.52023
1189.92427	0.51973
1187.99570	0.51932
1186.06714	0.51909
1184.13857	0.51901
1182.21001	0.51925
1180.28145	0.51988
1178.35288	0.52076
1176.42432	0.52179
1174.49575	0.52283
1172.56719	0.52343
1170.63862	0.52353
1168.71006	0.52355
1166.78149	0.52361
1164.85293	0.52352
1162.92437	0.52333
1160.99580	0.52315
1159.06724	0.52281
1157.13867	0.52215
1155.21011	0.52114
1153.28154	0.51981
1151.35298	0.51819
1149.42441	0.51631
1147.49585	0.51420
1145.56729	0.51190
1143.63872	0.50970
1141.71016	0.50781
1139.78159	0.50602
1137.85303	0.50421
1135.92446	0.50257
1133.99590	0.50117
1132.06733	0.50003
1130.13877	0.49903
1128.21021	0.49796
1126.28164	0.49697
1124.35308	0.49616
1122.42451	0.49550
1120.49595	0.49521
1118.56738	0.49530
1116.63882	0.49528
1114.71025	0.49503
1112.78169	0.49497
1110.85312	0.49527
1108.92456	0.49586
1106.99600	0.49680
1105.06743	0.49800
1103.13887	0.49936
1101.21030	0.50086
1099.28174	0.50269
1097.35317	0.50506
1095.42461	0.50804
1093.49604	0.51162
1091.56748	0.51581
1089.63892	0.52075
1087.71035	0.52660
1085.78179	0.53327
1083.85322	0.54029
1081.92466	0.54697
1079.99609	0.55237
1078.06753	0.55567
1076.13896	0.55653
1074.21040	0.55476
1072.28184	0.55051
1070.35327	0.54448
1068.42471	0.53746
1066.49614	0.53048
1064.56758	0.52430
1062.63901	0.51882
1060.71045	0.51376
1058.78188	0.50901
1056.85332	0.50448
1054.92476	0.50040
1052.99619	0.49722
1051.06763	0.49488
1049.13906	0.49308
1047.21050	0.49164
1045.28193	0.49033
1043.35337	0.48904
1041.42480	0.48794
1039.49624	0.48709
1037.56768	0.48647
1035.63911	0.48611
1033.71055	0.48591
1031.78198	0.48556
1029.85342	0.48501
1027.92485	0.48443
1025.99629	0.48393
1024.06772	0.48358
1022.13916	0.48351
1020.21060	0.48388
1018.28203	0.48468
1016.35347	0.48552
1014.42490	0.48621
1012.49634	0.48684
1010.56777	0.48754
1008.63921	0.48857
1006.71064	0.49009
1004.78208	0.49194
1002.85352	0.49404
1000.92495	0.49656
998.99639	0.49966
997.06782	0.50333
995.13926	0.50745
993.21069	0.51161
991.28213	0.51529
989.35356	0.51811
987.42500	0.51969
985.49644	0.52023
983.56787	0.52059
981.63931	0.52127
979.71074	0.52226
977.78218	0.52373
975.85361	0.52592
973.92505	0.52879
971.99648	0.53207
970.06792	0.53552
968.13936	0.53917
966.21079	0.54318
964.28223	0.54754
962.35366	0.55226
960.42510	0.55749
958.49653	0.56331
956.56797	0.56954
954.63940	0.57581
952.71084	0.58191
950.78228	0.58797
948.85371	0.59426
946.92515	0.60088
944.99658	0.60729
943.06802	0.61336
941.13945	0.61954
939.21089	0.62556
937.28232	0.63131
935.35376	0.63726
933.42520	0.64312
931.49663	0.64888
929.56807	0.65512
927.63950	0.66157
925.71094	0.66771
923.78237	0.67353
921.85381	0.67970
919.92524	0.68678
917.99668	0.69377
916.06812	0.70003
914.13955	0.70717
912.21099	0.71569
910.28242	0.72417
908.35386	0.73283
906.42529	0.74247
904.49673	0.75185
902.56816	0.75999
900.63960	0.76810
898.71104	0.77752
896.78247	0.78831
894.85391	0.79932
892.92534	0.80951
890.99678	0.81934
889.06821	0.83007
887.13965	0.84240
885.21108	0.85521
883.28252	0.86705
881.35396	0.87820
879.42539	0.88969
877.49683	0.90246
875.56826	0.91645
873.63970	0.92910
871.71113	0.93944
869.78257	0.94944
867.85400	0.95980
865.92544	0.97023
863.99687	0.98148
862.06831	0.99485
860.13975	1.00816
858.21118	1.01877
856.28262	1.02893
854.35405	1.04093
852.42549	1.05498
850.49692	1.06995
848.56836	1.08268
846.63979	1.09144
844.71123	1.10108
842.78267	1.11599
840.85410	1.13151
838.92554	1.14275
836.99697	1.15198
835.06841	1.16334
833.13984	1.17643
831.21128	1.18702
829.28271	1.19493
827.35415	1.20421
825.42559	1.21963
823.49702	1.23994
821.56846	1.25613
819.63989	1.26686
817.71133	1.27775
815.78276	1.29374
813.85420	1.31278
811.92563	1.31960
809.99707	1.31210
808.06851	1.30552
806.13994	1.31215
804.21138	1.34388
802.28281	1.39273
800.35425	1.42641
798.42568	1.44340
796.49712	1.47514
794.56855	1.53157
792.63999	1.57429
790.71143	1.57205
788.78286	1.55513
786.85430	1.56918
784.92573	1.64436
782.99717	1.66623
781.06860	1.54944
779.14004	1.53285
777.21147	1.70401
775.28291	1.93251
773.35435	1.89173
771.42578	1.75709
769.49722	1.72474
767.56865	1.80375
765.64009	1.78421
763.71152	1.58999
761.78296	1.43041
759.85439	1.39401
757.92583	1.54142
755.99727	1.83783
754.06870	1.74338
752.14014	1.41360
750.21157	1.20366
748.28301	1.07572
746.35444	0.99131
744.42588	0.95856
742.49731	0.96103
740.56875	0.91599
738.64019	0.85190
736.71162	0.80601
734.78306	0.75448
732.85449	0.74650
730.92593	0.78632
728.99736	0.68663
727.06880	0.54201
725.14023	0.51083
723.21167	0.57756
721.28311	0.57967
719.35454	0.43837
717.42598	0.31528
715.49741	0.20660
713.56885	0.13953
711.64028	0.20853
709.71172	0.37274
707.78315	0.46362
705.85459	0.39801
703.92603	0.29044
701.99746	0.20994
700.06890	0.24077
698.14033	0.28381
696.21177	0.23987
694.28320	0.19894
692.35464	0.19076
690.42607	0.23751
688.49751	0.29598
686.56895	0.34775
684.64038	0.29379
682.71182	0.21968
680.78325	0.25774
678.85469	0.38195
676.92612	0.41907
674.99756	0.26759
673.06899	0.08198
671.14043	0.00566
669.21187	-0.00634
667.28330	-0.06829
665.35474	-0.19816
663.42617	0.01593
661.49761	0.06712
659.56904	0.10553
657.64048	0.19355
655.71191	0.26561
653.78335	0.26103
651.85479	0.21153
649.92622	0.16558
647.99766	0.16382
646.06909	0.21970
644.14053	0.23128
642.21196	0.10667
640.28340	0.02734
638.35483	0.08564
636.42627	0.22431
634.49771	0.45078
632.56914	0.59941
630.64058	0.46912
628.71201	0.41831
626.78345	0.53777
624.85488	0.58090
622.92632	0.46600
620.99775	0.43210
619.06919	0.25637
617.14062	0.07348
615.21206	0.02110
613.28350	0.03270
611.35493	0.04215
609.42637	0.10842
607.49780	0.18887
605.56924	0.23723
603.64067	0.32565
601.71211	0.51019
599.78354	0.53665
597.85498	0.47555
595.92642	0.38800
593.99785	0.25551
592.06929	0.23614
590.14072	0.22145
588.21216	0.19249
586.28359	0.17552
584.35503	0.13342
582.42646	0.16244
580.49790	0.29937
578.56934	0.43284
576.64077	0.40286
574.71221	0.25477
572.78364	0.14896
570.85508	0.10374
568.92651	0.09561
566.99795	0.05475
565.06938	-0.02373
563.14082	-0.06005
561.21226	-0.00652
559.28369	0.06181
557.35513	0.08452
555.42656	0.07652
553.49800	0.08678
551.56943	0.12984
549.64087	0.22388
547.71230	0.35927
545.78374	0.43773
543.85518	0.44612
541.92661	0.38564
539.99805	0.23597
538.06948	0.23810
536.14092	0.50709
534.21235	0.63067
532.28379	0.35296
530.35522	0.25570
528.42666	0.28110
526.49810	0.28470
524.56953	0.20547
522.64097	0.14013
520.71240	0.13679
518.78384	0.17844
516.85527	0.15294
514.92671	0.05687
512.99814	0.01352
511.06958	0.01607
509.14102	-0.00544
507.21245	-0.01027
505.28389	0.07819
503.35532	0.15395
501.42676	0.17002
499.49819	0.14049
