3997.91411	0.06599
3995.98555	0.06651
3994.05698	0.06646
3992.12842	0.06616
3990.19985	0.06638
3988.27129	0.06675
3986.34272	0.06680
3984.41416	0.06692
3982.48560	0.06722
3980.55703	0.06774
3978.62847	0.06860
3976.69990	0.06947
3974.77134	0.07019
3972.84277	0.07042
3970.91421	0.06979
3968.98564	0.06935
3967.05708	0.06984
3965.12852	0.07027
3963.19995	0.07017
3961.27139	0.07014
3959.34282	0.07048
3957.41426	0.07088
3955.48569	0.07104
3953.55713	0.07088
3951.62856	0.07073
3949.70000	0.07084
3947.77144	0.07079
3945.84287	0.07048
3943.91431	0.07031
3941.98574	0.07052
3940.05718	0.07055
3938.12861	0.07000
3936.20005	0.06952
3934.27148	0.06937
3932.34292	0.06941
3930.41436	0.06990
3928.48579	0.07052
3926.55723	0.07059
3924.62866	0.07038
3922.70010	0.07014
3920.77153	0.06970
3918.84297	0.06948
3916.91440	0.07002
3914.98584	0.07054
3913.05728	0.07002
3911.12871	0.06907
3909.20015	0.06841
3907.27158	0.06831
3905.34302	0.06874
3903.41445	0.06967
3901.48589	0.07096
3899.55732	0.07162
3897.62876	0.07099
3895.70020	0.06992
3893.77163	0.06939
3891.84307	0.06972
3889.91450	0.07027
3887.98594	0.06995
3886.05737	0.06976
3884.12881	0.07058
3882.20024	0.07132
3880.27168	0.07165
3878.34312	0.07149
3876.41455	0.07059
3874.48599	0.07029
3872.55742	0.07128
3870.62886	0.07256
3868.70029	0.07326
3866.77173	0.07324
3864.84316	0.07329
3862.91460	0.07367
3860.98604	0.07356
3859.05747	0.07303
3857.12891	0.07273
3855.20034	0.07322
3853.27178	0.07538
3851.34321	0.07767
3849.41465	0.07719
3847.48608	0.07610
3845.55752	0.07562
3843.62896	0.07572
3841.70039	0.07642
3839.77183	0.07806
3837.84326	0.08011
3835.91470	0.08091
3833.98613	0.08058
3832.05757	0.08040
3830.12900	0.08070
3828.20044	0.08117
3826.27187	0.08173
3824.34331	0.08242
3822.41475	0.08354
3820.48618	0.08555
3818.55762	0.08671
3816.62905	0.08681
3814.70049	0.08763
3812.77192	0.08815
3810.84336	0.08805
3808.91479	0.08871
3806.98623	0.09069
3805.05767	0.09237
3803.12910	0.09282
3801.20054	0.09429
3799.27197	0.09650
3797.34341	0.09737
3795.41484	0.09809
3793.48628	0.09883
3791.55771	0.09946
3789.62915	0.10058
3787.70059	0.10196
3785.77202	0.10316
3783.84346	0.10434
3781.91489	0.10561
3779.98633	0.10715
3778.05776	0.10916
3776.12920	0.11084
3774.20063	0.11203
3772.27207	0.11331
3770.34351	0.11514
3768.41494	0.11760
3766.48638	0.12003
3764.55781	0.12237
3762.62925	0.12435
3760.70068	0.12597
3758.77212	0.12809
3756.84355	0.13069
3754.91499	0.13282
3752.98643	0.13503
3751.05786	0.13868
3749.12930	0.14275
3747.20073	0.14493
3745.27217	0.14739
3743.34360	0.15139
3741.41504	0.15402
3739.48647	0.15557
3737.55791	0.15851
3735.62935	0.16365
3733.70078	0.16969
3731.77222	0.17426
3729.84365	0.17791
3727.91509	0.18180
3725.98652	0.18697
3724.05796	0.19363
3722.12939	0.20087
3720.20083	0.20810
3718.27227	0.21487
3716.34370	0.22166
3714.41514	0.22908
3712.48657	0.23823
3710.55801	0.25091
3708.62944	0.26454
3706.70088	0.27550
3704.77231	0.28596
3702.84375	0.29872
3700.91519	0.31546
3698.98662	0.33356
3697.05806	0.35062
3695.12949	0.36885
3693.20093	0.38829
3691.27236	0.40909
3689.34380	0.43568
3687.41523	0.46884
3685.48667	0.49846
3683.55811	0.52405
3681.62954	0.55178
3679.70098	0.58313
3677.77241	0.61545
3675.84385	0.65319
3673.91528	0.70504
3671.98672	0.74799
3670.05815	0.78575
3668.12959	0.83805
3666.20103	0.88599
3664.27246	0.92559
3662.34390	0.96804
3660.41533	1.01386
3658.48677	1.05888
3656.55820	1.10722
3654.62964	1.16146
3652.70107	1.20676
3650.77251	1.24597
3648.84395	1.30030
3646.91538	1.36799
3644.98682	1.41913
3643.05825	1.45802
3641.12969	1.49676
3639.20112	1.53956
3637.27256	1.58333
3635.34399	1.62566
3633.41543	1.66740
3631.48687	1.70736
3629.55830	1.74903
3627.62974	1.80262
3625.70117	1.85208
3623.77261	1.88570
3621.84404	1.91733
3619.91548	1.95373
3617.98691	1.99959
3616.05835	2.04519
3614.12979	2.08330
3612.20122	2.12239
3610.27266	2.16093
3608.34409	2.19998
3606.41553	2.24277
3604.48696	2.28219
3602.55840	2.31601
3600.62983	2.35269
3598.70127	2.39414
3596.77271	2.43472
3594.84414	2.47499
3592.91558	2.51681
3590.98701	2.55623
3589.05845	2.59272
3587.12988	2.63640
3585.20132	2.68540
3583.27275	2.72771
3581.34419	2.76644
3579.41562	2.80710
3577.48706	2.84993
3575.55850	2.89304
3573.62993	2.93685
3571.70137	2.97910
3569.77280	3.01835
3567.84424	3.06038
3565.91567	3.11309
3563.98711	3.16363
3562.05854	3.20440
3560.12998	3.24571
3558.20142	3.28998
3556.27285	3.33348
3554.34429	3.37543
3552.41572	3.42117
3550.48716	3.46872
3548.55859	3.51378
3546.63003	3.56034
3544.70146	3.61090
3542.77290	3.66123
3540.84434	3.70959
3538.91577	3.75744
3536.98721	3.80602
3535.05864	3.85605
3533.13008	3.90313
3531.20151	3.94867
3529.27295	3.99557
3527.34438	4.04362
3525.41582	4.09225
3523.48726	4.14044
3521.55869	4.19012
3519.63013	4.23873
3517.70156	4.28407
3515.77300	4.32870
3513.84443	4.37425
3511.91587	4.41945
3509.98730	4.46389
3508.05874	4.51008
3506.13018	4.56070
3504.20161	4.61205
3502.27305	4.65945
3500.34448	4.70570
3498.41592	4.75249
3496.48735	4.79933
3494.55879	4.84740
3492.63022	4.89752
3490.70166	4.94847
3488.77310	4.99606
3486.84453	5.04265
3484.91597	5.09137
3482.98740	5.13665
3481.05884	5.18227
3479.13027	5.23378
3477.20171	5.28645
3475.27314	5.33584
3473.34458	5.38154
3471.41602	5.42819
3469.48745	5.47576
3467.55889	5.52120
3465.63032	5.57062
3463.70176	5.62779
3461.77319	5.68395
3459.84463	5.73717
3457.91606	5.78680
3455.98750	5.82643
3454.05894	5.86218
3452.13037	5.91509
3450.20181	5.98261
3448.27324	6.03087
3446.34468	6.06294
3444.41611	6.10274
3442.48755	6.14923
3440.55898	6.19833
3438.63042	6.25099
3436.70186	6.30323
3434.77329	6.35607
3432.84473	6.41685
3430.91616	6.47562
3428.98760	6.52048
3427.05903	6.56155
3425.13047	6.61008
3423.20190	6.64444
3421.27334	6.66965
3419.34478	6.72044
3417.41621	6.78980
3415.48765	6.84596
3413.55908	6.87573
3411.63052	6.90193
3409.70195	6.94765
3407.77339	7.01041
3405.84482	7.06998
3403.91626	7.12423
3401.98770	7.17448
3400.05913	7.20201
3398.13057	7.18649
3396.20200	7.16411
3394.27344	7.18074
3392.34487	7.22486
3390.41631	7.32279
3388.48774	7.43838
3386.55918	7.48055
3384.63062	7.48454
3382.70205	7.50726
3380.77349	7.52942
3378.84492	7.52842
3376.91636	7.53312
3374.98779	7.57360
3373.05923	7.62750
3371.13066	7.65598
3369.20210	7.69805
3367.27354	7.73032
3365.34497	7.70149
3363.41641	7.66887
3361.48784	7.67508
3359.55928	7.73645
3357.63071	7.81837
3355.70215	7.84607
3353.77358	7.84588
3351.84502	7.89813
3349.91646	7.94023
3347.98789	7.93188
3346.05933	7.92509
3344.13076	7.91436
3342.20220	7.92122
3340.27363	7.95630
3338.34507	7.99512
3336.41650	8.02777
3334.48794	8.03453
3332.55937	7.97453
3330.63081	7.92103
3328.70225	7.93367
3326.77368	7.93985
3324.84512	7.95466
3322.91655	8.02544
3320.98799	8.06472
3319.05942	8.02720
3317.13086	8.01096
3315.20229	8.02680
3313.27373	8.03947
3311.34517	8.08514
3309.41660	8.14584
3307.48804	8.13678
3305.55947	8.06345
3303.63091	8.01789
3301.70234	8.05130
3299.77378	8.11050
3297.84521	8.07406
3295.91665	8.00246
3293.98809	8.00069
3292.05952	8.06357
3290.13096	8.14555
3288.20239	8.13482
3286.27383	8.04560
3284.34526	8.00371
3282.41670	8.03566
3280.48813	8.11143
3278.55957	8.17969
3276.63101	8.13980
3274.70244	8.07652
3272.77388	8.16237
3270.84531	8.28620
3268.91675	8.24948
3266.98818	8.14553
3265.05962	8.11134
3263.13105	8.13213
3261.20249	8.17550
3259.27393	8.24138
3257.34536	8.29583
3255.41680	8.28806
3253.48823	8.25676
3251.55967	8.23346
3249.63110	8.17981
3247.70254	8.13021
3245.77397	8.10142
3243.84541	8.04705
3241.91685	8.00070
3239.98828	8.01671
3238.05972	8.04577
3236.13115	8.02369
3234.20259	8.00139
3232.27402	8.02793
3230.34546	8.04742
3228.41689	8.06377
3226.48833	8.12601
3224.55977	8.15584
3222.63120	8.12082
3220.70264	8.05238
3218.77407	7.94412
3216.84551	7.84779
3214.91694	7.80356
3212.98838	7.79931
3211.05981	7.82286
3209.13125	7.83981
3207.20269	7.81519
3205.27412	7.77313
3203.34556	7.72495
3201.41699	7.65760
3199.48843	7.62356
3197.55986	7.64922
3195.63130	7.65650
3193.70273	7.59146
3191.77417	7.49900
3189.84561	7.44035
3187.91704	7.42234
3185.98848	7.42316
3184.05991	7.41612
3182.13135	7.37366
3180.20278	7.31795
3178.27422	7.27442
3176.34565	7.22279
3174.41709	7.14633
3172.48853	7.06441
3170.55996	6.99736
3168.63140	6.93632
3166.70283	6.87026
3164.77427	6.81319
3162.84570	6.75889
3160.91714	6.69706
3158.98857	6.65008
3157.06001	6.61325
3155.13145	6.56500
3153.20288	6.49332
3151.27432	6.41022
3149.34575	6.33662
3147.41719	6.26533
3145.48862	6.19833
3143.56006	6.13826
3141.63149	6.07577
3139.70293	6.01112
3137.77437	5.94409
3135.84580	5.87128
3133.91724	5.79576
3131.98867	5.71764
3130.06011	5.63999
3128.13154	5.56935
3126.20298	5.49512
3124.27441	5.41585
3122.34585	5.34722
3120.41729	5.28903
3118.48872	5.22553
3116.56016	5.15352
3114.63159	5.08417
3112.70303	5.01851
3110.77446	4.95018
3108.84590	4.88105
3106.91733	4.81483
3104.98877	4.74864
3103.06021	4.68008
3101.13164	4.60937
3099.20308	4.53956
3097.27451	4.47675
3095.34595	4.41764
3093.41738	4.35244
3091.48882	4.28303
3089.56025	4.21777
3087.63169	4.15689
3085.70312	4.09676
3083.77456	4.03543
3081.84600	3.97300
3079.91743	3.91312
3077.98887	3.85648
3076.06030	3.79813
3074.13174	3.73809
3072.20317	3.67937
3070.27461	3.62196
3068.34604	3.56612
3066.41748	3.51016
3064.48892	3.45255
3062.56035	3.39496
3060.63179	3.33949
3058.70322	3.28689
3056.77466	3.23454
3054.84609	3.18060
3052.91753	3.12818
3050.98896	3.07910
3049.06040	3.03009
3047.13184	2.97872
3045.20327	2.92722
3043.27471	2.87818
3041.34614	2.83116
3039.41758	2.78460
3037.48901	2.73761
3035.56045	2.69042
3033.63188	2.64392
3031.70332	2.59838
3029.77476	2.55391
3027.84619	2.51065
3025.91763	2.46761
3023.98906	2.42462
3022.06050	2.38286
3020.13193	2.34151
3018.20337	2.29952
3016.27480	2.25808
3014.34624	2.21828
3012.41768	2.17987
3010.48911	2.14181
3008.56055	2.10389
3006.63198	2.06690
3004.70342	2.03082
3002.77485	1.99555
3000.84629	1.96123
2998.91772	1.92758
2996.98916	1.89498
2995.06060	1.86359
2993.13203	1.83233
2991.20347	1.80106
2989.27490	1.77073
2987.34634	1.74184
2985.41777	1.71403
2983.48921	1.68676
2981.56064	1.65981
2979.63208	1.63338
2977.70352	1.60776
2975.77495	1.58265
2973.84639	1.55738
2971.91782	1.53223
2969.98926	1.50819
2968.06069	1.48476
2966.13213	1.46124
2964.20356	1.43805
2962.27500	1.41511
2960.34644	1.39195
2958.41787	1.36824
2956.48931	1.34402
2954.56074	1.32000
2952.63218	1.29660
2950.70361	1.27358
2948.77505	1.25054
2946.84648	1.22763
2944.91792	1.20555
2942.98936	1.18460
2941.06079	1.16473
2939.13223	1.14551
2937.20366	1.12611
2935.27510	1.10658
2933.34653	1.08735
2931.41797	1.06760
2929.48940	1.04692
2927.56084	1.02670
2925.63228	1.00803
2923.70371	0.98998
2921.77515	0.97191
2919.84658	0.95421
2917.91802	0.93669
2915.98945	0.91934
2914.06089	0.90256
2912.13232	0.88643
2910.20376	0.87078
2908.27520	0.85521
2906.34663	0.83970
2904.41807	0.82454
2902.48950	0.80995
2900.56094	0.79606
2898.63237	0.78241
2896.70381	0.76864
2894.77524	0.75524
2892.84668	0.74246
2890.91812	0.73017
2888.98955	0.71842
2887.06099	0.70725
2885.13242	0.69665
2883.20386	0.68678
2881.27529	0.67762
2879.34673	0.66833
2877.41816	0.65849
2875.48960	0.64873
2873.56104	0.63913
2871.63247	0.62912
2869.70391	0.61827
2867.77534	0.60647
2865.84678	0.59412
2863.91821	0.58199
2861.98965	0.57051
2860.06108	0.55960
2858.13252	0.54926
2856.20396	0.53934
2854.27539	0.52972
2852.34683	0.52050
2850.41826	0.51169
2848.48970	0.50323
2846.56113	0.49506
2844.63257	0.48704
2842.70400	0.47936
2840.77544	0.47232
2838.84687	0.46596
2836.91831	0.46008
2834.98975	0.45430
2833.06118	0.44828
2831.13262	0.44195
2829.20405	0.43558
2827.27549	0.42944
2825.34692	0.42350
2823.41836	0.41752
2821.48979	0.41145
2819.56123	0.40544
2817.63267	0.39970
2815.70410	0.39411
2813.77554	0.38855
2811.84697	0.38314
2809.91841	0.37773
2807.98984	0.37221
2806.06128	0.36681
2804.13271	0.36157
2802.20415	0.35647
2800.27559	0.35146
2798.34702	0.34645
2796.41846	0.34157
2794.48989	0.33687
2792.56133	0.33215
2790.63276	0.32746
2788.70420	0.32294
2786.77563	0.31868
2784.84707	0.31463
2782.91851	0.31035
2780.98994	0.30588
2779.06138	0.30166
2777.13281	0.29760
2775.20425	0.29359
2773.27568	0.28977
2771.34712	0.28606
2769.41855	0.28244
2767.48999	0.27904
2765.56143	0.27558
2763.63286	0.27185
2761.70430	0.26819
2759.77573	0.26480
2757.84717	0.26153
2755.91860	0.25834
2753.99004	0.25522
2752.06147	0.25216
2750.13291	0.24928
2748.20435	0.24659
2746.27578	0.24383
2744.34722	0.24084
2742.41865	0.23777
2740.49009	0.23483
2738.56152	0.23225
2736.63296	0.22998
2734.70439	0.22772
2732.77583	0.22534
2730.84727	0.22296
2728.91870	0.22061
2726.99014	0.21825
2725.06157	0.21590
2723.13301	0.21365
2721.20444	0.21159
2719.27588	0.20959
2717.34731	0.20752
2715.41875	0.20544
2713.49019	0.20347
2711.56162	0.20169
2709.63306	0.20000
2707.70449	0.19817
2705.77593	0.19631
2703.84736	0.19466
2701.91880	0.19316
2699.99023	0.19167
2698.06167	0.19025
2696.13311	0.18896
2694.20454	0.18766
2692.27598	0.18626
2690.34741	0.18492
2688.41885	0.18358
2686.49028	0.18207
2684.56172	0.18065
2682.63315	0.17955
2680.70459	0.17853
2678.77603	0.17736
2676.84746	0.17616
2674.91890	0.17507
2672.99033	0.17403
2671.06177	0.17295
2669.13320	0.17183
2667.20464	0.17074
2665.27607	0.16970
2663.34751	0.16883
2661.41895	0.16810
2659.49038	0.16732
2657.56182	0.16656
2655.63325	0.16579
2653.70469	0.16494
2651.77612	0.16419
2649.84756	0.16350
2647.91899	0.16270
2645.99043	0.16196
2644.06187	0.16144
2642.13330	0.16097
2640.20474	0.16040
2638.27617	0.15977
2636.34761	0.15913
2634.41904	0.15854
2632.49048	0.15811
2630.56191	0.15770
2628.63335	0.15731
2626.70479	0.15702
2624.77622	0.15673
2622.84766	0.15639
2620.91909	0.15605
2618.99053	0.15578
2617.06196	0.15553
2615.13340	0.15523
2613.20483	0.15503
2611.27627	0.15497
2609.34771	0.15495
2607.41914	0.15488
2605.49058	0.15466
2603.56201	0.15438
2601.63345	0.15424
2599.70488	0.15417
2597.77632	0.15412
2595.84775	0.15410
2593.91919	0.15413
2591.99062	0.15430
2590.06206	0.15452
2588.13350	0.15477
2586.20493	0.15498
2584.27637	0.15511
2582.34780	0.15522
2580.41924	0.15525
2578.49067	0.15531
2576.56211	0.15562
2574.63354	0.15601
2572.70498	0.15630
2570.77642	0.15652
2568.84785	0.15673
2566.91929	0.15698
2564.99072	0.15732
2563.06216	0.15774
2561.13359	0.15810
2559.20503	0.15835
2557.27646	0.15878
2555.34790	0.15953
2553.41934	0.16029
2551.49077	0.16080
2549.56221	0.16114
2547.63364	0.16148
2545.70508	0.16195
2543.77651	0.16248
2541.84795	0.16297
2539.91938	0.16355
2537.99082	0.16423
2536.06226	0.16486
2534.13369	0.16538
2532.20513	0.16588
2530.27656	0.16654
2528.34800	0.16730
2526.41943	0.16796
2524.49087	0.16849
2522.56230	0.16901
2520.63374	0.16969
2518.70518	0.17051
2516.77661	0.17140
2514.84805	0.17228
2512.91948	0.17298
2510.99092	0.17352
2509.06235	0.17409
2507.13379	0.17488
2505.20522	0.17588
2503.27666	0.17678
2501.34810	0.17751
2499.41953	0.17823
2497.49097	0.17898
2495.56240	0.17975
2493.63384	0.18061
2491.70527	0.18149
2489.77671	0.18229
2487.84814	0.18311
2485.91958	0.18398
2483.99102	0.18479
2482.06245	0.18566
2480.13389	0.18658
2478.20532	0.18737
2476.27676	0.18803
2474.34819	0.18866
2472.41963	0.18943
2470.49106	0.19045
2468.56250	0.19155
2466.63394	0.19246
2464.70537	0.19330
2462.77681	0.19422
2460.84824	0.19515
2458.91968	0.19602
2456.99111	0.19693
2455.06255	0.19797
2453.13398	0.19904
2451.20542	0.19998
2449.27686	0.20081
2447.34829	0.20169
2445.41973	0.20258
2443.49116	0.20342
2441.56260	0.20430
2439.63403	0.20527
2437.70547	0.20629
2435.77690	0.20735
2433.84834	0.20837
2431.91978	0.20925
2429.99121	0.21015
2428.06265	0.21121
2426.13408	0.21239
2424.20552	0.21362
2422.27695	0.21471
2420.34839	0.21565
2418.41982	0.21671
2416.49126	0.21797
2414.56270	0.21914
2412.63413	0.22015
2410.70557	0.22118
2408.77700	0.22237
2406.84844	0.22360
2404.91987	0.22473
2402.99131	0.22582
2401.06274	0.22701
2399.13418	0.22823
2397.20562	0.22938
2395.27705	0.23045
2393.34849	0.23154
2391.41992	0.23280
2389.49136	0.23417
2387.56279	0.23544
2385.63423	0.23662
2383.70566	0.23779
2381.77710	0.23889
2379.84854	0.24000
2377.91997	0.24121
2375.99141	0.24256
2374.06284	0.24386
2372.13428	0.24476
2370.20571	0.24572
2368.27715	0.24734
2366.34858	0.24950
2364.42002	0.25106
2362.49146	0.25147
2360.56289	0.25254
2358.63433	0.25479
2356.70576	0.25719
2354.77720	0.25937
2352.84863	0.26087
2350.92007	0.26201
2348.99150	0.26304
2347.06294	0.26399
2345.13437	0.26531
2343.20581	0.26700
2341.27725	0.26858
2339.34868	0.27032
2337.42012	0.27225
2335.49155	0.27397
2333.56299	0.27527
2331.63442	0.27675
2329.70586	0.27856
2327.77729	0.28018
2325.84873	0.28183
2323.92017	0.28374
2321.99160	0.28571
2320.06304	0.28753
2318.13447	0.28919
2316.20591	0.29071
2314.27734	0.29231
2312.34878	0.29423
2310.42021	0.29630
2308.49165	0.29828
2306.56309	0.30018
2304.63452	0.30198
2302.70596	0.30371
2300.77739	0.30542
2298.84883	0.30711
2296.92026	0.30895
2294.99170	0.31094
2293.06313	0.31297
2291.13457	0.31493
2289.20601	0.31680
2287.27744	0.31860
2285.34888	0.32041
2283.42031	0.32231
2281.49175	0.32429
2279.56318	0.32634
2277.63462	0.32838
2275.70605	0.33040
2273.77749	0.33246
2271.84893	0.33447
2269.92036	0.33634
2267.99180	0.33832
2266.06323	0.34062
2264.13467	0.34292
2262.20610	0.34499
2260.27754	0.34697
2258.34897	0.34908
2256.42041	0.35135
2254.49185	0.35359
2252.56328	0.35567
2250.63472	0.35772
2248.70615	0.35983
2246.77759	0.36207
2244.84902	0.36447
2242.92046	0.36681
2240.99189	0.36899
2239.06333	0.37113
2237.13477	0.37329
2235.20620	0.37543
2233.27764	0.37762
2231.34907	0.37986
2229.42051	0.38209
2227.49194	0.38429
2225.56338	0.38652
2223.63481	0.38877
2221.70625	0.39102
2219.77769	0.39325
2217.84912	0.39538
2215.92056	0.39745
2213.99199	0.39956
2212.06343	0.40167
2210.13486	0.40383
2208.20630	0.40596
2206.27773	0.40794
2204.34917	0.40996
2202.42061	0.41221
2200.49204	0.41446
2198.56348	0.41651
2196.63491	0.41839
2194.70635	0.42015
2192.77778	0.42197
2190.84922	0.42399
2188.92065	0.42590
2186.99209	0.42753
2185.06353	0.42912
2183.13496	0.43075
2181.20640	0.43232
2179.27783	0.43397
2177.34927	0.43568
2175.42070	0.43729
2173.49214	0.43887
2171.56357	0.44036
2169.63501	0.44161
2167.70645	0.44277
2165.77788	0.44395
2163.84932	0.44518
2161.92075	0.44641
2159.99219	0.44750
2158.06362	0.44849
2156.13506	0.44941
2154.20649	0.45027
2152.27793	0.45111
2150.34937	0.45183
2148.42080	0.45238
2146.49224	0.45275
2144.56367	0.45301
2142.63511	0.45342
2140.70654	0.45391
2138.77798	0.45416
2136.84941	0.45424
2134.92085	0.45430
2132.99229	0.45428
2131.06372	0.45415
2129.13516	0.45394
2127.20659	0.45374
2125.27803	0.45354
2123.34946	0.45318
2121.42090	0.45269
2119.49233	0.45217
2117.56377	0.45154
2115.63521	0.45066
2113.70664	0.44961
2111.77808	0.44870
2109.84951	0.44789
2107.92095	0.44687
2105.99238	0.44561
2104.06382	0.44435
2102.13525	0.44311
2100.20669	0.44177
2098.27812	0.44029
2096.34956	0.43874
2094.42100	0.43715
2092.49243	0.43554
2090.56387	0.43396
2088.63530	0.43231
2086.70674	0.43045
2084.77817	0.42842
2082.84961	0.42633
2080.92104	0.42421
2078.99248	0.42216
2077.06392	0.42013
2075.13535	0.41800
2073.20679	0.41575
2071.27822	0.41345
2069.34966	0.41121
2067.42109	0.40894
2065.49253	0.40661
2063.56396	0.40418
2061.63540	0.40166
2059.70684	0.39921
2057.77827	0.39683
2055.84971	0.39436
2053.92114	0.39180
2051.99258	0.38920
2050.06401	0.38656
2048.13545	0.38388
2046.20688	0.38121
2044.27832	0.37864
2042.34976	0.37600
2040.42119	0.37320
2038.49263	0.37046
2036.56406	0.36780
2034.63550	0.36510
2032.70693	0.36233
2030.77837	0.35959
2028.84980	0.35681
2026.92124	0.35399
2024.99268	0.35114
2023.06411	0.34828
2021.13555	0.34550
2019.20698	0.34286
2017.27842	0.34018
2015.34985	0.33731
2013.42129	0.33449
2011.49272	0.33186
2009.56416	0.32923
2007.63560	0.32650
2005.70703	0.32377
2003.77847	0.32111
2001.84990	0.31849
1999.92134	0.31593
1997.99277	0.31338
1996.06421	0.31086
1994.13564	0.30841
1992.20708	0.30592
1990.27852	0.30329
1988.34995	0.30074
1986.42139	0.29838
1984.49282	0.29609
1982.56426	0.29374
1980.63569	0.29131
1978.70713	0.28899
1976.77856	0.28684
1974.85000	0.28470
1972.92144	0.28251
1970.99287	0.28041
1969.06431	0.27839
1967.13574	0.27639
1965.20718	0.27439
1963.27861	0.27247
1961.35005	0.27063
1959.42148	0.26878
1957.49292	0.26699
1955.56436	0.26523
1953.63579	0.26351
1951.70723	0.26182
1949.77866	0.26015
1947.85010	0.25851
1945.92153	0.25695
1943.99297	0.25552
1942.06440	0.25414
1940.13584	0.25263
1938.20728	0.25111
1936.27871	0.24970
1934.35015	0.24842
1932.42158	0.24724
1930.49302	0.24610
1928.56445	0.24498
1926.63589	0.24389
1924.70732	0.24296
1922.77876	0.24216
1920.85020	0.24129
1918.92163	0.24032
1916.99307	0.23935
1915.06450	0.23848
1913.13594	0.23774
1911.20737	0.23707
1909.27881	0.23643
1907.35024	0.23579
1905.42168	0.23511
1903.49312	0.23444
1901.56455	0.23389
1899.63599	0.23345
1897.70742	0.23302
1895.77886	0.23260
1893.85029	0.23228
1891.92173	0.23194
1889.99316	0.23170
1888.06460	0.23146
1886.13604	0.23120
1884.20747	0.23102
1882.27891	0.23086
1880.35034	0.23068
1878.42178	0.23060
1876.49321	0.23064
1874.56465	0.23063
1872.63608	0.23069
1870.70752	0.23096
1868.77896	0.23154
1866.85039	0.23191
1864.92183	0.23180
1862.99326	0.23180
1861.06470	0.23208
1859.13613	0.23247
1857.20757	0.23274
1855.27900	0.23306
1853.35044	0.23347
1851.42187	0.23406
1849.49331	0.23477
1847.56475	0.23551
1845.63618	0.23628
1843.70762	0.23722
1841.77905	0.23804
1839.85049	0.23852
1837.92192	0.23923
1835.99336	0.24021
1834.06479	0.24126
1832.13623	0.24225
1830.20767	0.24356
1828.27910	0.24505
1826.35054	0.24613
1824.42197	0.24737
1822.49341	0.24870
1820.56484	0.24994
1818.63628	0.25122
1816.70771	0.25276
1814.77915	0.25438
1812.85059	0.25614
1810.92202	0.25822
1808.99346	0.26040
1807.06489	0.26244
1805.13633	0.26432
1803.20776	0.26639
1801.27920	0.26883
1799.35063	0.27173
1797.42207	0.27435
1795.49351	0.27668
1793.56494	0.27930
1791.63638	0.28285
1789.70781	0.28644
1787.77925	0.28918
1785.85068	0.29231
1783.92212	0.29592
1781.99355	0.29974
1780.06499	0.30381
1778.13643	0.30805
1776.20786	0.31198
1774.27930	0.31609
1772.35073	0.32175
1770.42217	0.32818
1768.49360	0.33371
1766.56504	0.33892
1764.63647	0.34409
1762.70791	0.34976
1760.77935	0.35718
1758.85078	0.36423
1756.92222	0.37123
1754.99365	0.37889
1753.06509	0.38578
1751.13652	0.39396
1749.20796	0.40450
1747.27939	0.41503
1745.35083	0.42420
1743.42227	0.43381
1741.49370	0.44440
1739.56514	0.45684
1737.63657	0.46927
1735.70801	0.47999
1733.77944	0.49607
1731.85088	0.51582
1729.92231	0.53164
1727.99375	0.54725
1726.06519	0.56377
1724.13662	0.58184
1722.20806	0.60161
1720.27949	0.61995
1718.35093	0.64127
1716.42236	0.67287
1714.49380	0.70341
1712.56523	0.72835
1710.63667	0.75252
1708.70811	0.77851
1706.77954	0.80788
1704.85098	0.84304
1702.92241	0.87467
1700.99385	0.90610
1699.06528	0.95316
1697.13672	0.99725
1695.20815	1.04333
1693.27959	1.08849
1691.35103	1.12499
1689.42246	1.16732
1687.49390	1.21253
1685.56533	1.25617
1683.63677	1.32284
1681.70820	1.39291
1679.77964	1.43859
1677.85107	1.48177
1675.92251	1.53072
1673.99395	1.59134
1672.06538	1.64679
1670.13682	1.70240
1668.20825	1.77455
1666.27969	1.83376
1664.35112	1.88427
1662.42256	1.94863
1660.49399	2.02288
1658.56543	2.08124
1656.63687	2.12621
1654.70830	2.16326
1652.77974	2.21963
1650.85117	2.27843
1648.92261	2.29997
1646.99404	2.32227
1645.06548	2.34477
1643.13691	2.35996
1641.20835	2.36804
1639.27979	2.37480
1637.35122	2.37742
1635.42266	2.37435
1633.49409	2.36563
1631.56553	2.35041
1629.63696	2.33082
1627.70840	2.29876
1625.77983	2.26097
1623.85127	2.21391
1621.92271	2.15794
1619.99414	2.10962
1618.06558	2.06230
1616.13701	1.99493
1614.20845	1.92787
1612.27988	1.87732
1610.35132	1.82444
1608.42275	1.76771
1606.49419	1.71274
1604.56562	1.66168
1602.63706	1.61169
1600.70850	1.56348
1598.77993	1.51963
1596.85137	1.47838
1594.92280	1.43845
1592.99424	1.40026
1591.06567	1.36552
1589.13711	1.33317
1587.20854	1.30330
1585.27998	1.27602
1583.35142	1.25092
1581.42285	1.22845
1579.49429	1.20973
1577.56572	1.19370
1575.63716	1.17529
1573.70859	1.15930
1571.78003	1.14919
1569.85146	1.13987
1567.92290	1.13090
1565.99434	1.12558
1564.06577	1.12304
1562.13721	1.12180
1560.20864	1.12237
1558.28008	1.12899
1556.35151	1.13759
1554.42295	1.14250
1552.49438	1.14705
1550.56582	1.15006
1548.63726	1.15001
1546.70869	1.14575
1544.78013	1.13668
1542.85156	1.12307
1540.92300	1.10249
1538.99443	1.07075
1537.06587	1.04719
1535.13730	1.03060
1533.20874	1.00814
1531.28018	0.98398
1529.35161	0.96642
1527.42305	0.95001
1525.49448	0.93301
1523.56592	0.91851
1521.63735	0.90494
1519.70879	0.89178
1517.78022	0.88071
1515.85166	0.86739
1513.92310	0.85314
1511.99453	0.84053
1510.06597	0.82911
1508.13740	0.81800
1506.20884	0.80102
1504.28027	0.78643
1502.35171	0.77828
1500.42314	0.77112
1498.49458	0.76351
1496.56602	0.75467
1494.63745	0.74590
1492.70889	0.73917
1490.78032	0.73332
1488.85176	0.72688
1486.92319	0.72130
1484.99463	0.71721
1483.06606	0.71408
1481.13750	0.71157
1479.20894	0.70988
1477.28037	0.70935
1475.35181	0.70981
1473.42324	0.71080
1471.49468	0.71132
1469.56611	0.71041
1467.63755	0.70855
1465.70898	0.70655
1463.78042	0.70510
1461.85186	0.70462
1459.92329	0.70471
1457.99473	0.70501
1456.06616	0.70483
1454.13760	0.70296
1452.20903	0.70015
1450.28047	0.69714
1448.35190	0.69419
1446.42334	0.69101
1444.49478	0.68789
1442.56621	0.68498
1440.63765	0.68193
1438.70908	0.67855
1436.78052	0.67412
1434.85195	0.66913
1432.92339	0.66553
1430.99482	0.66342
1429.06626	0.66254
1427.13770	0.66257
1425.20913	0.66318
1423.28057	0.66424
1421.35200	0.66522
1419.42344	0.66602
1417.49487	0.66638
1415.56631	0.66566
1413.63774	0.66491
1411.70918	0.66509
1409.78062	0.66642
1407.85205	0.66852
1405.92349	0.67093
1403.99492	0.67300
1402.06636	0.67389
1400.13779	0.67355
1398.20923	0.67203
1396.28066	0.66920
1394.35210	0.66496
1392.42354	0.66002
1390.49497	0.65528
1388.56641	0.65035
1386.63784	0.64453
1384.70928	0.63847
1382.78071	0.63295
1380.85215	0.62771
1378.92358	0.62299
1376.99502	0.61934
1375.06646	0.61686
1373.13789	0.61514
1371.20933	0.61407
1369.28076	0.61345
1367.35220	0.61244
1365.42363	0.61077
1363.49507	0.60904
1361.56650	0.60748
1359.63794	0.60585
1357.70937	0.60423
1355.78081	0.60286
1353.85225	0.60177
1351.92368	0.60089
1349.99512	0.60024
1348.06655	0.59961
1346.13799	0.59867
1344.20942	0.59760
1342.28086	0.59677
1340.35229	0.59635
1338.42373	0.59599
1336.49517	0.59544
1334.56660	0.59495
1332.63804	0.59481
1330.70947	0.59520
1328.78091	0.59593
1326.85234	0.59681
1324.92378	0.59785
1322.99521	0.59903
1321.06665	0.60010
1319.13809	0.60089
1317.20952	0.60137
1315.28096	0.60148
1313.35239	0.60132
1311.42383	0.60112
1309.49526	0.60080
1307.56670	0.60018
1305.63813	0.59949
1303.70957	0.59897
1301.78101	0.59848
1299.85244	0.59777
1297.92388	0.59682
1295.99531	0.59576
1294.06675	0.59456
1292.13818	0.59322
1290.20962	0.59186
1288.28105	0.59043
1286.35249	0.58874
1284.42393	0.58694
1282.49536	0.58541
1280.56680	0.58414
1278.63823	0.58276
1276.70967	0.58119
1274.78110	0.57973
1272.85254	0.57864
1270.92397	0.57786
1268.99541	0.57719
1267.06685	0.57642
1265.13828	0.57539
1263.20972	0.57425
1261.28115	0.57328
1259.35259	0.57241
1257.42402	0.57151
1255.49546	0.57098
1253.56689	0.57104
1251.63833	0.57134
1249.70977	0.57163
1247.78120	0.57170
1245.85264	0.57132
1243.92407	0.57052
1241.99551	0.56937
1240.06694	0.56787
1238.13838	0.56600
1236.20981	0.56359
1234.28125	0.56080
1232.35269	0.55804
1230.42412	0.55549
1228.49556	0.55317
1226.56699	0.55095
1224.63843	0.54877
1222.70986	0.54680
1220.78130	0.54512
1218.85273	0.54356
1216.92417	0.54208
1214.99561	0.54072
1213.06704	0.53960
1211.13848	0.53879
1209.20991	0.53812
1207.28135	0.53747
1205.35278	0.53674
1203.42422	0.53582
1201.49565	0.53476
1199.56709	0.53376
1197.63853	0.53287
1195.70996	0.53215
1193.78140	0.53158
1191.85283	0.53105
1189.92427	0.53058
1187.99570	0.53027
1186.06714	0.53018
1184.13857	0.53034
1182.21001	0.53080
1180.28145	0.53164
1178.35288	0.53295
1176.42432	0.53475
1174.49575	0.53651
1172.56719	0.53752
1170.63862	0.53785
1168.71006	0.53792
1166.78149	0.53792
1164.85293	0.53784
1162.92437	0.53764
1160.99580	0.53727
1159.06724	0.53665
1157.13867	0.53582
1155.21011	0.53493
1153.28154	0.53372
1151.35298	0.53201
1149.42441	0.52991
1147.49585	0.52734
1145.56729	0.52435
1143.63872	0.52155
1141.71016	0.51931
1139.78159	0.51763
1137.85303	0.51640
1135.92446	0.51560
1133.99590	0.51510
1132.06733	0.51476
1130.13877	0.51450
1128.21021	0.51406
1126.28164	0.51336
1124.35308	0.51270
1122.42451	0.51229
1120.49595	0.51207
1118.56738	0.51188
1116.63882	0.51187
1114.71025	0.51211
1112.78169	0.51245
1110.85312	0.51292
1108.92456	0.51358
1106.99600	0.51447
1105.06743	0.51563
1103.13887	0.51688
1101.21030	0.51810
1099.28174	0.51939
1097.35317	0.52111
1095.42461	0.52365
1093.49604	0.52717
1091.56748	0.53176
1089.63892	0.53758
1087.71035	0.54443
1085.78179	0.55182
1083.85322	0.55937
1081.92466	0.56623
1079.99609	0.57121
1078.06753	0.57380
1076.13896	0.57392
1074.21040	0.57146
1072.28184	0.56648
1070.35327	0.55970
1068.42471	0.55224
1066.49614	0.54488
1064.56758	0.53813
1062.63901	0.53221
1060.71045	0.52722
1058.78188	0.52311
1056.85332	0.51934
1054.92476	0.51551
1052.99619	0.51213
1051.06763	0.50950
1049.13906	0.50733
1047.21050	0.50569
1045.28193	0.50477
1043.35337	0.50426
1041.42480	0.50363
1039.49624	0.50278
1037.56768	0.50195
1035.63911	0.50136
1033.71055	0.50092
1031.78198	0.50030
1029.85342	0.49928
1027.92485	0.49797
1025.99629	0.49678
1024.06772	0.49602
1022.13916	0.49559
1020.21060	0.49519
1018.28203	0.49496
1016.35347	0.49508
1014.42490	0.49532
1012.49634	0.49554
1010.56777	0.49582
1008.63921	0.49611
1006.71064	0.49659
1004.78208	0.49775
1002.85352	0.49982
1000.92495	0.50256
998.99639	0.50590
997.06782	0.50987
995.13926	0.51426
993.21069	0.51870
991.28213	0.52246
989.35356	0.52488
987.42500	0.52604
985.49644	0.52636
983.56787	0.52636
981.63931	0.52661
979.71074	0.52740
977.78218	0.52877
975.85361	0.53060
973.92505	0.53291
971.99648	0.53572
970.06792	0.53893
968.13936	0.54264
966.21079	0.54692
964.28223	0.55141
962.35366	0.55588
960.42510	0.56057
958.49653	0.56577
956.56797	0.57161
954.63940	0.57790
952.71084	0.58427
950.78228	0.59053
948.85371	0.59697
946.92515	0.60370
944.99658	0.61031
943.06802	0.61662
941.13945	0.62269
939.21089	0.62849
937.28232	0.63425
935.35376	0.64043
933.42520	0.64681
931.49663	0.65224
929.56807	0.65660
927.63950	0.66152
925.71094	0.66785
923.78237	0.67417
921.85381	0.68006
919.92524	0.68682
917.99668	0.69426
916.06812	0.70186
914.13955	0.71016
912.21099	0.71840
910.28242	0.72573
908.35386	0.73334
906.42529	0.74206
904.49673	0.75134
902.56816	0.76104
900.63960	0.77085
898.71104	0.77919
896.78247	0.78607
894.85391	0.79469
892.92534	0.80650
890.99678	0.81903
889.06821	0.82976
887.13965	0.83941
885.21108	0.85031
883.28252	0.86286
881.35396	0.87576
879.42539	0.88704
877.49683	0.89683
875.56826	0.90774
873.63970	0.92003
871.71113	0.93176
869.78257	0.94256
867.85400	0.95440
865.92544	0.96759
863.99687	0.97935
862.06831	0.98847
860.13975	0.99782
858.21118	1.00993
856.28262	1.02399
854.35405	1.03816
852.42549	1.05046
850.49692	1.06046
848.56836	1.06970
846.63979	1.07877
844.71123	1.08840
842.78267	1.10028
840.85410	1.11387
838.92554	1.12550
836.99697	1.13355
835.06841	1.14085
833.13984	1.15277
831.21128	1.16841
829.28271	1.18151
827.35415	1.19313
825.42559	1.20147
823.49702	1.20294
821.56846	1.20573
819.63989	1.21238
817.71133	1.21753
815.78276	1.22627
813.85420	1.23911
811.92563	1.24767
809.99707	1.25368
808.06851	1.26475
806.13994	1.27942
804.21138	1.28370
802.28281	1.28139
800.35425	1.28047
798.42568	1.27887
796.49712	1.28318
794.56855	1.28387
792.63999	1.28598
790.71143	1.32236
788.78286	1.39690
786.85430	1.43588
784.92573	1.35887
782.99717	1.25710
781.06860	1.20841
779.14004	1.19675
777.21147	1.19185
775.28291	1.18387
773.35435	1.16136
771.42578	1.11461
769.49722	1.05665
767.56865	1.01672
765.64009	0.98053
763.71152	0.92877
761.78296	0.90218
759.85439	0.93492
757.92583	0.99005
755.99727	0.95539
754.06870	0.86455
752.14014	0.79927
750.21157	0.75953
748.28301	0.75055
746.35444	0.74556
744.42588	0.70735
742.49731	0.64517
740.56875	0.57027
738.64019	0.49248
736.71162	0.43111
734.78306	0.39998
732.85449	0.37102
730.92593	0.31099
728.99736	0.24388
727.06880	0.18771
725.14023	0.12886
723.21167	0.07866
721.28311	0.03786
719.35454	-0.00253
717.42598	-0.02885
715.49741	-0.06209
713.56885	-0.11069
711.64028	-0.12328
709.71172	-0.09319
707.78315	-0.06979
705.85459	-0.09324
703.92603	-0.19857
701.99746	-0.32617
700.06890	-0.29477
698.14033	-0.21413
696.21177	-0.19185
694.28320	-0.22982
692.35464	-0.27392
690.42607	-0.24107
688.49751	-0.20437
686.56895	-0.24571
684.64038	-0.29516
682.71182	-0.26805
680.78325	-0.21420
678.85469	-0.15800
676.92612	-0.12527
674.99756	-0.16392
673.06899	-0.20440
671.14043	-0.17631
669.21187	-0.14981
667.28330	-0.14732
665.35474	-0.12875
663.42617	-0.10827
661.49761	-0.13645
659.56904	-0.20962
657.64048	-0.26829
655.71191	-0.28445
653.78335	-0.29469
651.85479	-0.30189
649.92622	-0.22979
647.99766	-0.15942
646.06909	-0.14701
644.14053	-0.14958
642.21196	-0.16737
640.28340	-0.23241
638.35483	-0.31475
636.42627	-0.31473
634.49771	-0.23072
632.56914	-0.18439
630.64058	-0.18166
628.71201	-0.15358
626.78345	-0.11403
624.85488	-0.10623
622.92632	-0.13545
620.99775	-0.18198
619.06919	-0.21248
617.14062	-0.21155
615.21206	-0.20177
613.28350	-0.19755
611.35493	-0.18493
609.42637	-0.14447
607.49780	-0.09818
605.56924	-0.10153
603.64067	-0.15418
601.71211	-0.19246
599.78354	-0.18812
597.85498	-0.17305
595.92642	-0.17903
593.99785	-0.18354
592.06929	-0.15337
590.14072	-0.13427
588.21216	-0.15410
586.28359	-0.16626
584.35503	-0.15952
582.42646	-0.14723
580.49790	-0.11380
578.56934	-0.09359
576.64077	-0.12641
574.71221	-0.15590
572.78364	-0.12832
570.85508	-0.09155
568.92651	-0.13060
566.99795	-0.21358
565.06938	-0.22163
563.14082	-0.20537
561.21226	-0.19057
559.28369	-0.15195
557.35513	-0.13962
555.42656	-0.15749
553.49800	-0.14728
551.56943	-0.11384
549.64087	-0.09359
547.71230	-0.10462
545.78374	-0.13295
543.85518	-0.13609
541.92661	-0.11960
539.99805	-0.11728
538.06948	-0.11273
536.14092	-0.11584
534.21235	-0.14369
532.28379	-0.15997
530.35522	-0.13334
528.42666	-0.10426
526.49810	-0.11104
524.56953	-0.11904
522.64097	-0.10597
520.71240	-0.10974
518.78384	-0.12347
516.85527	-0.09434
514.92671	-0.05276
512.99814	-0.06677
511.06958	-0.11651
509.14102	-0.14191
507.21245	-0.13575
505.28389	-0.14183
503.35532	-0.16809
501.42676	-0.16332
499.49819	-0.12914
