3997.91411	0.07759
3995.98555	0.07764
3994.05698	0.07725
3992.12842	0.07669
3990.19985	0.07686
3988.27129	0.07754
3986.34272	0.07812
3984.41416	0.07859
3982.48560	0.07891
3980.55703	0.07919
3978.62847	0.07956
3976.69990	0.08003
3974.77134	0.08056
3972.84277	0.08071
3970.91421	0.08047
3968.98564	0.08064
3967.05708	0.08120
3965.12852	0.08141
3963.19995	0.08120
3961.27139	0.08105
3959.34282	0.08121
3957.41426	0.08140
3955.48569	0.08145
3953.55713	0.08123
3951.62856	0.08108
3949.70000	0.08125
3947.77144	0.08133
3945.84287	0.08133
3943.91431	0.08152
3941.98574	0.08173
3940.05718	0.08145
3938.12861	0.08072
3936.20005	0.08024
3934.27148	0.08021
3932.34292	0.08046
3930.41436	0.08097
3928.48579	0.08127
3926.55723	0.08104
3924.62866	0.08101
3922.70010	0.08109
3920.77153	0.08054
3918.84297	0.07999
3916.91440	0.08017
3914.98584	0.08035
3913.05728	0.07969
3911.12871	0.07887
3909.20015	0.07867
3907.27158	0.07901
3905.34302	0.07980
3903.41445	0.08107
3901.48589	0.08217
3899.55732	0.08217
3897.62876	0.08130
3895.70020	0.08059
3893.77163	0.08054
3891.84307	0.08128
3889.91450	0.08204
3887.98594	0.08164
3886.05737	0.08113
3884.12881	0.08130
3882.20024	0.08131
3880.27168	0.08137
3878.34312	0.08157
3876.41455	0.08131
3874.48599	0.08144
3872.55742	0.08235
3870.62886	0.08312
3868.70029	0.08324
3866.77173	0.08305
3864.84316	0.08354
3862.91460	0.08428
3860.98604	0.08382
3859.05747	0.08298
3857.12891	0.08307
3855.20034	0.08443
3853.27178	0.08717
3851.34321	0.08916
3849.41465	0.08815
3847.48608	0.08666
3845.55752	0.08617
3843.62896	0.08687
3841.70039	0.08823
3839.77183	0.08991
3837.84326	0.09181
3835.91470	0.09268
3833.98613	0.09209
3832.05757	0.09149
3830.12900	0.09152
3828.20044	0.09179
3826.27187	0.09211
3824.34331	0.09262
3822.41475	0.09387
3820.48618	0.09614
3818.55762	0.09769
3816.62905	0.09856
3814.70049	0.09956
3812.77192	0.09942
3810.84336	0.09899
3808.91479	0.09972
3806.98623	0.10162
3805.05767	0.10308
3803.12910	0.10374
3801.20054	0.10562
3799.27197	0.10775
3797.34341	0.10809
3795.41484	0.10812
3793.48628	0.10862
3791.55771	0.10944
3789.62915	0.11051
3787.70059	0.11180
3785.77202	0.11328
3783.84346	0.11464
3781.91489	0.11584
3779.98633	0.11753
3778.05776	0.11957
3776.12920	0.12069
3774.20063	0.12151
3772.27207	0.12312
3770.34351	0.12562
3768.41494	0.12845
3766.48638	0.13070
3764.55781	0.13240
3762.62925	0.13380
3760.70068	0.13534
3758.77212	0.13792
3756.84355	0.14113
3754.91499	0.14364
3752.98643	0.14611
3751.05786	0.15015
3749.12930	0.15460
3747.20073	0.15641
3745.27217	0.15791
3743.34360	0.16146
3741.41504	0.16495
3739.48647	0.16771
3737.55791	0.17163
3735.62935	0.17754
3733.70078	0.18406
3731.77222	0.18882
3729.84365	0.19274
3727.91509	0.19704
3725.98652	0.20248
3724.05796	0.20886
3722.12939	0.21515
3720.20083	0.22103
3718.27227	0.22681
3716.34370	0.23324
3714.41514	0.24051
3712.48657	0.24981
3710.55801	0.26347
3708.62944	0.27800
3706.70088	0.28908
3704.77231	0.29959
3702.84375	0.31227
3700.91519	0.32831
3698.98662	0.34584
3697.05806	0.36325
3695.12949	0.38190
3693.20093	0.40111
3691.27236	0.42169
3689.34380	0.44870
3687.41523	0.48189
3685.48667	0.51062
3683.55811	0.53546
3681.62954	0.56261
3679.70098	0.59359
3677.77241	0.62638
3675.84385	0.66510
3673.91528	0.71703
3671.98672	0.75977
3670.05815	0.79733
3668.12959	0.84838
3666.20103	0.89562
3664.27246	0.93563
3662.34390	0.97859
3660.41533	1.02492
3658.48677	1.07038
3656.55820	1.11847
3654.62964	1.17198
3652.70107	1.21737
3650.77251	1.25772
3648.84395	1.31287
3646.91538	1.37896
3644.98682	1.42835
3643.05825	1.46745
3641.12969	1.50744
3639.20112	1.55119
3637.27256	1.59515
3635.34399	1.63836
3633.41543	1.68216
3631.48687	1.72285
3629.55830	1.76306
3627.62974	1.81625
3625.70117	1.86755
3623.77261	1.90249
3621.84404	1.93483
3619.91548	1.97114
3617.98691	2.01515
3616.05835	2.05809
3614.12979	2.09468
3612.20122	2.13369
3610.27266	2.17317
3608.34409	2.21355
3606.41553	2.25718
3604.48696	2.29709
3602.55840	2.33183
3600.62983	2.36874
3598.70127	2.40861
3596.77271	2.44824
3594.84414	2.48963
3592.91558	2.53331
3590.98701	2.57426
3589.05845	2.61099
3587.12988	2.65377
3585.20132	2.70180
3583.27275	2.74280
3581.34419	2.77992
3579.41562	2.81958
3577.48706	2.86269
3575.55850	2.90646
3573.62993	2.94897
3571.70137	2.98994
3569.77280	3.03113
3567.84424	3.07372
3565.91567	3.12232
3563.98711	3.17274
3562.05854	3.21850
3560.12998	3.26181
3558.20142	3.30352
3556.27285	3.34649
3554.34429	3.39164
3552.41572	3.43999
3550.48716	3.49043
3548.55859	3.53871
3546.63003	3.58415
3544.70146	3.62995
3542.77290	3.67743
3540.84434	3.72541
3538.91577	3.77134
3536.98721	3.81514
3535.05864	3.86387
3533.13008	3.91562
3531.20151	3.96324
3529.27295	4.00837
3527.34438	4.05684
3525.41582	4.10763
3523.48726	4.15748
3521.55869	4.20790
3519.63013	4.25717
3517.70156	4.30525
3515.77300	4.35332
3513.84443	4.40044
3511.91587	4.44745
3509.98730	4.49619
3508.05874	4.54597
3506.13018	4.59354
3504.20161	4.63576
3502.27305	4.67583
3500.34448	4.72140
3498.41592	4.77157
3496.48735	4.82085
3494.55879	4.86996
3492.63022	4.92296
3490.70166	4.97726
3488.77310	5.02675
3486.84453	5.07135
3484.91597	5.12045
3482.98740	5.17672
3481.05884	5.23075
3479.13027	5.27838
3477.20171	5.32224
3475.27314	5.36603
3473.34458	5.41229
3471.41602	5.45730
3469.48745	5.50028
3467.55889	5.55012
3465.63032	5.60765
3463.70176	5.66784
3461.77319	5.73215
3459.84463	5.79477
3457.91606	5.84493
3455.98750	5.89148
3454.05894	5.93854
3452.13037	5.97676
3450.20181	6.01316
3448.27324	6.05531
3446.34468	6.10053
3444.41611	6.14511
3442.48755	6.18862
3440.55898	6.23339
3438.63042	6.28937
3436.70186	6.35464
3434.77329	6.41540
3432.84473	6.47415
3430.91616	6.53732
3428.98760	6.59325
3427.05903	6.63719
3425.13047	6.69107
3423.20190	6.74487
3421.27334	6.78954
3419.34478	6.82930
3417.41621	6.85745
3415.48765	6.89142
3413.55908	6.94918
3411.63052	7.03349
3409.70195	7.11209
3407.77339	7.15269
3405.84482	7.16888
3403.91626	7.19731
3401.98770	7.21399
3400.05913	7.21355
3398.13057	7.26307
3396.20200	7.35260
3394.27344	7.43710
3392.34487	7.50897
3390.41631	7.57056
3388.48774	7.61604
3386.55918	7.65007
3384.63062	7.67370
3382.70205	7.69569
3380.77349	7.71305
3378.84492	7.71711
3376.91636	7.76061
3374.98779	7.81104
3373.05923	7.80922
3371.13066	7.82726
3369.20210	7.90807
3367.27354	7.95551
3365.34497	7.94598
3363.41641	7.96374
3361.48784	7.99767
3359.55928	8.00932
3357.63071	8.00800
3355.70215	8.00826
3353.77358	7.99890
3351.84502	8.01686
3349.91646	8.08233
3347.98789	8.14077
3346.05933	8.17789
3344.13076	8.20837
3342.20220	8.24021
3340.27363	8.28746
3338.34507	8.30699
3336.41650	8.24883
3334.48794	8.20564
3332.55937	8.23818
3330.63081	8.29861
3328.70225	8.31736
3326.77368	8.30125
3324.84512	8.32382
3322.91655	8.37487
3320.98799	8.40953
3319.05942	8.39032
3317.13086	8.33276
3315.20229	8.29150
3313.27373	8.28574
3311.34517	8.30096
3309.41660	8.31150
3307.48804	8.30977
3305.55947	8.28567
3303.63091	8.26597
3301.70234	8.28465
3299.77378	8.30998
3297.84521	8.36376
3295.91665	8.45966
3293.98809	8.51447
3292.05952	8.57769
3290.13096	8.63910
3288.20239	8.56798
3286.27383	8.41954
3284.34526	8.33849
3282.41670	8.38518
3280.48813	8.46818
3278.55957	8.52357
3276.63101	8.57045
3274.70244	8.58246
3272.77388	8.53589
3270.84531	8.49837
3268.91675	8.49177
3266.98818	8.49863
3265.05962	8.55791
3263.13105	8.57215
3261.20249	8.50375
3259.27393	8.48587
3257.34536	8.56176
3255.41680	8.63815
3253.48823	8.59207
3251.55967	8.48223
3249.63110	8.48379
3247.70254	8.60948
3245.77397	8.62280
3243.84541	8.47723
3241.91685	8.37162
3239.98828	8.35238
3238.05972	8.40390
3236.13115	8.46696
3234.20259	8.46146
3232.27402	8.41978
3230.34546	8.37663
3228.41689	8.30401
3226.48833	8.21882
3224.55977	8.22828
3222.63120	8.35656
3220.70264	8.46187
3218.77407	8.45879
3216.84551	8.39923
3214.91694	8.35385
3212.98838	8.29995
3211.05981	8.21117
3209.13125	8.14620
3207.20269	8.08548
3205.27412	8.01248
3203.34556	7.96654
3201.41699	7.95008
3199.48843	7.93480
3197.55986	7.88482
3195.63130	7.78821
3193.70273	7.68012
3191.77417	7.62753
3189.84561	7.65387
3187.91704	7.68744
3185.98848	7.65774
3184.05991	7.59327
3182.13135	7.54646
3180.20278	7.49856
3178.27422	7.40811
3176.34565	7.33663
3174.41709	7.30943
3172.48853	7.24059
3170.55996	7.14647
3168.63140	7.09032
3166.70283	7.04643
3164.77427	6.99791
3162.84570	6.94867
3160.91714	6.87624
3158.98857	6.77878
3157.06001	6.69441
3155.13145	6.63942
3153.20288	6.57499
3151.27432	6.48417
3149.34575	6.39413
3147.41719	6.32644
3145.48862	6.27799
3143.56006	6.21698
3141.63149	6.13513
3139.70293	6.05667
3137.77437	5.99296
3135.84580	5.93024
3133.91724	5.85023
3131.98867	5.76778
3130.06011	5.70283
3128.13154	5.64177
3126.20298	5.57530
3124.27441	5.50639
3122.34585	5.43074
3120.41729	5.35177
3118.48872	5.27406
3116.56016	5.19832
3114.63159	5.12399
3112.70303	5.05041
3110.77446	4.98219
3108.84590	4.91874
3106.91733	4.85514
3104.98877	4.78830
3103.06021	4.71647
3101.13164	4.64145
3099.20308	4.56917
3097.27451	4.50287
3095.34595	4.43910
3093.41738	4.37291
3091.48882	4.30412
3089.56025	4.23909
3087.63169	4.17920
3085.70312	4.11960
3083.77456	4.06172
3081.84600	4.00494
3079.91743	3.94192
3077.98887	3.87601
3076.06030	3.81509
3074.13174	3.75702
3072.20317	3.69901
3070.27461	3.64172
3068.34604	3.58546
3066.41748	3.52973
3064.48892	3.47432
3062.56035	3.42010
3060.63179	3.36718
3058.70322	3.31400
3056.77466	3.25898
3054.84609	3.20355
3052.91753	3.15031
3050.98896	3.09798
3049.06040	3.04460
3047.13184	2.99226
3045.20327	2.94295
3043.27471	2.89464
3041.34614	2.84548
3039.41758	2.79722
3037.48901	2.75109
3035.56045	2.70513
3033.63188	2.65835
3031.70332	2.61186
3029.77476	2.56679
3027.84619	2.52334
3025.91763	2.48043
3023.98906	2.43778
3022.06050	2.39572
3020.13193	2.35379
3018.20337	2.31235
3016.27480	2.27214
3014.34624	2.23287
3012.41768	2.19410
3010.48911	2.15593
3008.56055	2.11839
3006.63198	2.08118
3004.70342	2.04461
3002.77485	2.00896
3000.84629	1.97412
2998.91772	1.94063
2996.98916	1.90845
2995.06060	1.87645
2993.13203	1.84466
2991.20347	1.81383
2989.27490	1.78395
2987.34634	1.75490
2985.41777	1.72638
2983.48921	1.69862
2981.56064	1.67194
2979.63208	1.64564
2977.70352	1.61937
2975.77495	1.59391
2973.84639	1.56920
2971.91782	1.54470
2969.98926	1.52044
2968.06069	1.49653
2966.13213	1.47318
2964.20356	1.45055
2962.27500	1.42834
2960.34644	1.40572
2958.41787	1.38216
2956.48931	1.35816
2954.56074	1.33453
2952.63218	1.31130
2950.70361	1.28811
2948.77505	1.26534
2946.84648	1.24310
2944.91792	1.22131
2942.98936	1.20053
2941.06079	1.18077
2939.13223	1.16118
2937.20366	1.14136
2935.27510	1.12175
2933.34653	1.10245
2931.41797	1.08303
2929.48940	1.06333
2927.56084	1.04370
2925.63228	1.02472
2923.70371	1.00670
2921.77515	0.98900
2919.84658	0.97088
2917.91802	0.95269
2915.98945	0.93531
2914.06089	0.91844
2912.13232	0.90168
2910.20376	0.88559
2908.27520	0.87005
2906.34663	0.85448
2904.41807	0.83900
2902.48950	0.82396
2900.56094	0.80973
2898.63237	0.79615
2896.70381	0.78286
2894.77524	0.76989
2892.84668	0.75716
2890.91812	0.74469
2888.98955	0.73287
2887.06099	0.72179
2885.13242	0.71117
2883.20386	0.70095
2881.27529	0.69117
2879.34673	0.68173
2877.41816	0.67231
2875.48960	0.66273
2873.56104	0.65288
2871.63247	0.64249
2869.70391	0.63158
2867.77534	0.62011
2865.84678	0.60799
2863.91821	0.59582
2861.98965	0.58423
2860.06108	0.57313
2858.13252	0.56250
2856.20396	0.55243
2854.27539	0.54276
2852.34683	0.53345
2850.41826	0.52452
2848.48970	0.51592
2846.56113	0.50754
2844.63257	0.49942
2842.70400	0.49187
2840.77544	0.48488
2838.84687	0.47820
2836.91831	0.47182
2834.98975	0.46564
2833.06118	0.45923
2831.13262	0.45269
2829.20405	0.44643
2827.27549	0.44043
2825.34692	0.43450
2823.41836	0.42851
2821.48979	0.42235
2819.56123	0.41614
2817.63267	0.41024
2815.70410	0.40456
2813.77554	0.39886
2811.84697	0.39330
2809.91841	0.38793
2807.98984	0.38263
2806.06128	0.37739
2804.13271	0.37210
2802.20415	0.36672
2800.27559	0.36139
2798.34702	0.35622
2796.41846	0.35136
2794.48989	0.34677
2792.56133	0.34212
2790.63276	0.33743
2788.70420	0.33281
2786.77563	0.32838
2784.84707	0.32415
2782.91851	0.31991
2780.98994	0.31566
2779.06138	0.31149
2777.13281	0.30734
2775.20425	0.30338
2773.27568	0.29973
2771.34712	0.29607
2769.41855	0.29223
2767.48999	0.28854
2765.56143	0.28505
2763.63286	0.28149
2761.70430	0.27786
2759.77573	0.27443
2757.84717	0.27131
2755.91860	0.26833
2753.99004	0.26521
2752.06147	0.26192
2750.13291	0.25874
2748.20435	0.25575
2746.27578	0.25284
2744.34722	0.25000
2742.41865	0.24713
2740.49009	0.24428
2738.56152	0.24170
2736.63296	0.23935
2734.70439	0.23696
2732.77583	0.23446
2730.84727	0.23191
2728.91870	0.22931
2726.99014	0.22693
2725.06157	0.22487
2723.13301	0.22281
2721.20444	0.22065
2719.27588	0.21843
2717.34731	0.21620
2715.41875	0.21406
2713.49019	0.21203
2711.56162	0.21018
2709.63306	0.20855
2707.70449	0.20693
2705.77593	0.20515
2703.84736	0.20342
2701.91880	0.20181
2699.99023	0.20026
2698.06167	0.19876
2696.13311	0.19739
2694.20454	0.19604
2692.27598	0.19452
2690.34741	0.19303
2688.41885	0.19177
2686.49028	0.19061
2684.56172	0.18937
2682.63315	0.18806
2680.70459	0.18681
2678.77603	0.18565
2676.84746	0.18448
2674.91890	0.18329
2672.99033	0.18212
2671.06177	0.18111
2669.13320	0.18012
2667.20464	0.17901
2665.27607	0.17793
2663.34751	0.17709
2661.41895	0.17637
2659.49038	0.17546
2657.56182	0.17444
2655.63325	0.17354
2653.70469	0.17282
2651.77612	0.17223
2649.84756	0.17151
2647.91899	0.17061
2645.99043	0.16981
2644.06187	0.16918
2642.13330	0.16857
2640.20474	0.16802
2638.27617	0.16762
2636.34761	0.16723
2634.41904	0.16659
2632.49048	0.16585
2630.56191	0.16529
2628.63335	0.16499
2626.70479	0.16477
2624.77622	0.16439
2622.84766	0.16393
2620.91909	0.16362
2618.99053	0.16338
2617.06196	0.16313
2615.13340	0.16290
2613.20483	0.16271
2611.27627	0.16242
2609.34771	0.16214
2607.41914	0.16207
2605.49058	0.16194
2603.56201	0.16167
2601.63345	0.16153
2599.70488	0.16157
2597.77632	0.16162
2595.84775	0.16155
2593.91919	0.16150
2591.99062	0.16164
2590.06206	0.16182
2588.13350	0.16198
2586.20493	0.16214
2584.27637	0.16231
2582.34780	0.16254
2580.41924	0.16273
2578.49067	0.16288
2576.56211	0.16307
2574.63354	0.16330
2572.70498	0.16352
2570.77642	0.16377
2568.84785	0.16403
2566.91929	0.16427
2564.99072	0.16455
2563.06216	0.16487
2561.13359	0.16518
2559.20503	0.16558
2557.27646	0.16612
2555.34790	0.16670
2553.41934	0.16726
2551.49077	0.16775
2549.56221	0.16821
2547.63364	0.16871
2545.70508	0.16925
2543.77651	0.16969
2541.84795	0.17006
2539.91938	0.17059
2537.99082	0.17131
2536.06226	0.17198
2534.13369	0.17246
2532.20513	0.17287
2530.27656	0.17341
2528.34800	0.17410
2526.41943	0.17479
2524.49087	0.17536
2522.56230	0.17592
2520.63374	0.17658
2518.70518	0.17732
2516.77661	0.17816
2514.84805	0.17903
2512.91948	0.17978
2510.99092	0.18048
2509.06235	0.18122
2507.13379	0.18195
2505.20522	0.18263
2503.27666	0.18331
2501.34810	0.18406
2499.41953	0.18501
2497.49097	0.18608
2495.56240	0.18702
2493.63384	0.18782
2491.70527	0.18853
2489.77671	0.18918
2487.84814	0.18987
2485.91958	0.19069
2483.99102	0.19162
2482.06245	0.19247
2480.13389	0.19316
2478.20532	0.19383
2476.27676	0.19460
2474.34819	0.19538
2472.41963	0.19621
2470.49106	0.19717
2468.56250	0.19816
2466.63394	0.19903
2464.70537	0.19983
2462.77681	0.20071
2460.84824	0.20161
2458.91968	0.20239
2456.99111	0.20318
2455.06255	0.20418
2453.13398	0.20529
2451.20542	0.20631
2449.27686	0.20722
2447.34829	0.20805
2445.41973	0.20890
2443.49116	0.20979
2441.56260	0.21072
2439.63403	0.21170
2437.70547	0.21264
2435.77690	0.21362
2433.84834	0.21469
2431.91978	0.21569
2429.99121	0.21654
2428.06265	0.21735
2426.13408	0.21836
2424.20552	0.21949
2422.27695	0.22054
2420.34839	0.22156
2418.41982	0.22275
2416.49126	0.22400
2414.56270	0.22515
2412.63413	0.22626
2410.70557	0.22729
2408.77700	0.22831
2406.84844	0.22935
2404.91987	0.23042
2402.99131	0.23165
2401.06274	0.23303
2399.13418	0.23431
2397.20562	0.23543
2395.27705	0.23649
2393.34849	0.23755
2391.41992	0.23878
2389.49136	0.24024
2387.56279	0.24182
2385.63423	0.24381
2383.70566	0.24662
2381.77710	0.25025
2379.84854	0.25452
2377.91997	0.25941
2375.99141	0.26499
2374.06284	0.27107
2372.13428	0.27766
2370.20571	0.28523
2368.27715	0.29359
2366.34858	0.30259
2364.42002	0.31146
2362.49146	0.31771
2360.56289	0.32110
2358.63433	0.32239
2356.70576	0.32062
2354.77720	0.31557
2352.84863	0.30865
2350.92007	0.30218
2348.99150	0.29856
2347.06294	0.29929
2345.13437	0.30523
2343.20581	0.31387
2341.27725	0.31936
2339.34868	0.32102
2337.42012	0.32114
2335.49155	0.32091
2333.56299	0.32089
2331.63442	0.32138
2329.70586	0.32159
2327.77729	0.32113
2325.84873	0.32026
2323.92017	0.31924
2321.99160	0.31862
2320.06304	0.31818
2318.13447	0.31711
2316.20591	0.31580
2314.27734	0.31522
2312.34878	0.31541
2310.42021	0.31571
2308.49165	0.31584
2306.56309	0.31591
2304.63452	0.31608
2302.70596	0.31666
2300.77739	0.31757
2298.84883	0.31852
2296.92026	0.31960
2294.99170	0.32088
2293.06313	0.32224
2291.13457	0.32352
2289.20601	0.32477
2287.27744	0.32604
2285.34888	0.32734
2283.42031	0.32886
2281.49175	0.33077
2279.56318	0.33293
2277.63462	0.33501
2275.70605	0.33701
2273.77749	0.33906
2271.84893	0.34105
2269.92036	0.34290
2267.99180	0.34480
2266.06323	0.34690
2264.13467	0.34913
2262.20610	0.35130
2260.27754	0.35337
2258.34897	0.35537
2256.42041	0.35734
2254.49185	0.35944
2252.56328	0.36162
2250.63472	0.36369
2248.70615	0.36558
2246.77759	0.36752
2244.84902	0.36977
2242.92046	0.37210
2240.99189	0.37426
2239.06333	0.37628
2237.13477	0.37829
2235.20620	0.38045
2233.27764	0.38275
2231.34907	0.38501
2229.42051	0.38714
2227.49194	0.38935
2225.56338	0.39165
2223.63481	0.39375
2221.70625	0.39577
2219.77769	0.39795
2217.84912	0.40020
2215.92056	0.40243
2213.99199	0.40465
2212.06343	0.40674
2210.13486	0.40873
2208.20630	0.41074
2206.27773	0.41278
2204.34917	0.41487
2202.42061	0.41705
2200.49204	0.41925
2198.56348	0.42129
2196.63491	0.42318
2194.70635	0.42510
2192.77778	0.42703
2190.84922	0.42895
2188.92065	0.43086
2186.99209	0.43268
2185.06353	0.43435
2183.13496	0.43589
2181.20640	0.43750
2179.27783	0.43917
2177.34927	0.44080
2175.42070	0.44237
2173.49214	0.44390
2171.56357	0.44536
2169.63501	0.44662
2167.70645	0.44771
2165.77788	0.44883
2163.84932	0.45004
2161.92075	0.45123
2159.99219	0.45233
2158.06362	0.45338
2156.13506	0.45442
2154.20649	0.45539
2152.27793	0.45623
2150.34937	0.45687
2148.42080	0.45741
2146.49224	0.45793
2144.56367	0.45840
2142.63511	0.45887
2140.70654	0.45924
2138.77798	0.45938
2136.84941	0.45935
2134.92085	0.45928
2132.99229	0.45923
2131.06372	0.45929
2129.13516	0.45926
2127.20659	0.45898
2125.27803	0.45856
2123.34946	0.45811
2121.42090	0.45763
2119.49233	0.45702
2117.56377	0.45628
2115.63521	0.45549
2113.70664	0.45468
2111.77808	0.45383
2109.84951	0.45292
2107.92095	0.45185
2105.99238	0.45061
2104.06382	0.44933
2102.13525	0.44804
2100.20669	0.44671
2098.27812	0.44527
2096.34956	0.44379
2094.42100	0.44226
2092.49243	0.44066
2090.56387	0.43903
2088.63530	0.43726
2086.70674	0.43535
2084.77817	0.43345
2082.84961	0.43156
2080.92104	0.42948
2078.99248	0.42731
2077.06392	0.42518
2075.13535	0.42301
2073.20679	0.42079
2071.27822	0.41852
2069.34966	0.41626
2067.42109	0.41397
2065.49253	0.41163
2063.56396	0.40919
2061.63540	0.40671
2059.70684	0.40428
2057.77827	0.40189
2055.84971	0.39945
2053.92114	0.39687
2051.99258	0.39413
2050.06401	0.39134
2048.13545	0.38862
2046.20688	0.38601
2044.27832	0.38349
2042.34976	0.38095
2040.42119	0.37830
2038.49263	0.37558
2036.56406	0.37276
2034.63550	0.36996
2032.70693	0.36720
2030.77837	0.36438
2028.84980	0.36150
2026.92124	0.35868
2024.99268	0.35592
2023.06411	0.35317
2021.13555	0.35046
2019.20698	0.34785
2017.27842	0.34516
2015.34985	0.34219
2013.42129	0.33925
2011.49272	0.33652
2009.56416	0.33387
2007.63560	0.33124
2005.70703	0.32866
2003.77847	0.32604
2001.84990	0.32331
1999.92134	0.32062
1997.99277	0.31808
1996.06421	0.31563
1994.13564	0.31310
1992.20708	0.31053
1990.27852	0.30799
1988.34995	0.30555
1986.42139	0.30316
1984.49282	0.30077
1982.56426	0.29838
1980.63569	0.29593
1978.70713	0.29359
1976.77856	0.29153
1974.85000	0.28960
1972.92144	0.28754
1970.99287	0.28540
1969.06431	0.28334
1967.13574	0.28131
1965.20718	0.27922
1963.27861	0.27715
1961.35005	0.27516
1959.42148	0.27326
1957.49292	0.27149
1955.56436	0.26980
1953.63579	0.26812
1951.70723	0.26645
1949.77866	0.26479
1947.85010	0.26318
1945.92153	0.26170
1943.99297	0.26032
1942.06440	0.25883
1940.13584	0.25721
1938.20728	0.25572
1936.27871	0.25435
1934.35015	0.25299
1932.42158	0.25172
1930.49302	0.25054
1928.56445	0.24948
1926.63589	0.24851
1924.70732	0.24765
1922.77876	0.24685
1920.85020	0.24589
1918.92163	0.24486
1916.99307	0.24384
1915.06450	0.24293
1913.13594	0.24217
1911.20737	0.24150
1909.27881	0.24084
1907.35024	0.24020
1905.42168	0.23956
1903.49312	0.23892
1901.56455	0.23834
1899.63599	0.23784
1897.70742	0.23738
1895.77886	0.23697
1893.85029	0.23662
1891.92173	0.23629
1889.99316	0.23618
1888.06460	0.23610
1886.13604	0.23583
1884.20747	0.23554
1882.27891	0.23534
1880.35034	0.23519
1878.42178	0.23510
1876.49321	0.23510
1874.56465	0.23510
1872.63608	0.23517
1870.70752	0.23545
1868.77896	0.23604
1866.85039	0.23638
1864.92183	0.23621
1862.99326	0.23612
1861.06470	0.23635
1859.13613	0.23679
1857.20757	0.23717
1855.27900	0.23756
1853.35044	0.23797
1851.42187	0.23847
1849.49331	0.23907
1847.56475	0.23978
1845.63618	0.24057
1843.70762	0.24147
1841.77905	0.24228
1839.85049	0.24283
1837.92192	0.24359
1835.99336	0.24456
1834.06479	0.24555
1832.13623	0.24656
1830.20767	0.24797
1828.27910	0.24939
1826.35054	0.25033
1824.42197	0.25153
1822.49341	0.25286
1820.56484	0.25409
1818.63628	0.25538
1816.70771	0.25697
1814.77915	0.25865
1812.85059	0.26043
1810.92202	0.26246
1808.99346	0.26454
1807.06489	0.26644
1805.13633	0.26821
1803.20776	0.27032
1801.27920	0.27284
1799.35063	0.27568
1797.42207	0.27827
1795.49351	0.28073
1793.56494	0.28360
1791.63638	0.28723
1789.70781	0.29064
1787.77925	0.29319
1785.85068	0.29623
1783.92212	0.29988
1781.99355	0.30378
1780.06499	0.30788
1778.13643	0.31206
1776.20786	0.31600
1774.27930	0.32029
1772.35073	0.32609
1770.42217	0.33233
1768.49360	0.33757
1766.56504	0.34258
1764.63647	0.34774
1762.70791	0.35357
1760.77935	0.36117
1758.85078	0.36830
1756.92222	0.37535
1754.99365	0.38303
1753.06509	0.38995
1751.13652	0.39809
1749.20796	0.40852
1747.27939	0.41907
1745.35083	0.42832
1743.42227	0.43796
1741.49370	0.44865
1739.56514	0.46122
1737.63657	0.47363
1735.70801	0.48450
1733.77944	0.50098
1731.85088	0.52063
1729.92231	0.53584
1727.99375	0.55114
1726.06519	0.56789
1724.13662	0.58625
1722.20806	0.60595
1720.27949	0.62421
1718.35093	0.64580
1716.42236	0.67738
1714.49380	0.70731
1712.56523	0.73201
1710.63667	0.75623
1708.70811	0.78220
1706.77954	0.81150
1704.85098	0.84644
1702.92241	0.87795
1700.99385	0.90984
1699.06528	0.95736
1697.13672	1.00089
1695.20815	1.04601
1693.27959	1.09066
1691.35103	1.12709
1689.42246	1.16922
1687.49390	1.21396
1685.56533	1.25746
1683.63677	1.32424
1681.70820	1.39349
1679.77964	1.43763
1677.85107	1.47906
1675.92251	1.52720
1673.99395	1.58821
1672.06538	1.64359
1670.13682	1.69827
1668.20825	1.76901
1666.27969	1.82697
1664.35112	1.87719
1662.42256	1.94245
1660.49399	2.01781
1658.56543	2.07689
1656.63687	2.12411
1654.70830	2.16857
1652.77974	2.23402
1650.85117	2.28517
1648.92261	2.29769
1646.99404	2.31770
1645.06548	2.34247
1643.13691	2.35911
1641.20835	2.36758
1639.27979	2.37480
1637.35122	2.37768
1635.42266	2.37179
1633.49409	2.35774
1631.56553	2.34012
1629.63696	2.31897
1627.70840	2.28554
1625.77983	2.24846
1623.85127	2.20372
1621.92271	2.14854
1619.99414	2.09950
1618.06558	2.05313
1616.13701	1.98671
1614.20845	1.91787
1612.27988	1.86555
1610.35132	1.81161
1608.42275	1.75364
1606.49419	1.69707
1604.56562	1.64502
1602.63706	1.59434
1600.70850	1.54485
1598.77993	1.50051
1596.85137	1.46020
1594.92280	1.42080
1592.99424	1.38212
1591.06567	1.34734
1589.13711	1.31615
1587.20854	1.28788
1585.27998	1.26185
1583.35142	1.23793
1581.42285	1.21670
1579.49429	1.19876
1577.56572	1.18310
1575.63716	1.16520
1573.70859	1.14992
1571.78003	1.14066
1569.85146	1.13261
1567.92290	1.12450
1565.99434	1.11893
1564.06577	1.11588
1562.13721	1.11468
1560.20864	1.11667
1558.28008	1.12638
1556.35151	1.13551
1554.42295	1.13994
1552.49438	1.14444
1550.56582	1.14720
1548.63726	1.14686
1546.70869	1.14293
1544.78013	1.13492
1542.85156	1.12291
1540.92300	1.10382
1538.99443	1.07167
1537.06587	1.04658
1535.13730	1.02931
1533.20874	1.00705
1531.28018	0.98317
1529.35161	0.96546
1527.42305	0.94897
1525.49448	0.93205
1523.56592	0.91766
1521.63735	0.90453
1519.70879	0.89159
1517.78022	0.88044
1515.85166	0.86728
1513.92310	0.85301
1511.99453	0.84023
1510.06597	0.82885
1508.13740	0.81855
1506.20884	0.80266
1504.28027	0.78721
1502.35171	0.77804
1500.42314	0.77043
1498.49458	0.76263
1496.56602	0.75379
1494.63745	0.74504
1492.70889	0.73807
1490.78032	0.73189
1488.85176	0.72501
1486.92319	0.71866
1484.99463	0.71361
1483.06606	0.70963
1481.13750	0.70654
1479.20894	0.70464
1477.28037	0.70409
1475.35181	0.70452
1473.42324	0.70556
1471.49468	0.70587
1469.56611	0.70436
1467.63755	0.70230
1465.70898	0.70069
1463.78042	0.69972
1461.85186	0.69956
1459.92329	0.70020
1457.99473	0.70141
1456.06616	0.70202
1454.13760	0.70039
1452.20903	0.69792
1450.28047	0.69542
1448.35190	0.69295
1446.42334	0.69021
1444.49478	0.68736
1442.56621	0.68464
1440.63765	0.68199
1438.70908	0.67920
1436.78052	0.67537
1434.85195	0.67090
1432.92339	0.66762
1430.99482	0.66556
1429.06626	0.66458
1427.13770	0.66454
1425.20913	0.66520
1423.28057	0.66636
1421.35200	0.66735
1419.42344	0.66795
1417.49487	0.66803
1415.56631	0.66741
1413.63774	0.66692
1411.70918	0.66726
1409.78062	0.66872
1407.85205	0.67097
1405.92349	0.67343
1403.99492	0.67546
1402.06636	0.67630
1400.13779	0.67608
1398.20923	0.67481
1396.28066	0.67210
1394.35210	0.66781
1392.42354	0.66281
1390.49497	0.65801
1388.56641	0.65308
1386.63784	0.64750
1384.70928	0.64177
1382.78071	0.63633
1380.85215	0.63105
1378.92358	0.62642
1376.99502	0.62296
1375.06646	0.62069
1373.13789	0.61923
1371.20933	0.61823
1369.28076	0.61737
1367.35220	0.61618
1365.42363	0.61461
1363.49507	0.61300
1361.56650	0.61131
1359.63794	0.60944
1357.70937	0.60776
1355.78081	0.60631
1353.85225	0.60502
1351.92368	0.60414
1349.99512	0.60364
1348.06655	0.60306
1346.13799	0.60212
1344.20942	0.60110
1342.28086	0.60021
1340.35229	0.59956
1338.42373	0.59914
1336.49517	0.59871
1334.56660	0.59826
1332.63804	0.59812
1330.70947	0.59844
1328.78091	0.59912
1326.85234	0.60008
1324.92378	0.60115
1322.99521	0.60217
1321.06665	0.60307
1319.13809	0.60397
1317.20952	0.60475
1315.28096	0.60509
1313.35239	0.60492
1311.42383	0.60443
1309.49526	0.60383
1307.56670	0.60330
1305.63813	0.60283
1303.70957	0.60230
1301.78101	0.60176
1299.85244	0.60108
1297.92388	0.59996
1295.99531	0.59863
1294.06675	0.59746
1292.13818	0.59628
1290.20962	0.59484
1288.28105	0.59317
1286.35249	0.59155
1284.42393	0.59018
1282.49536	0.58891
1280.56680	0.58749
1278.63823	0.58587
1276.70967	0.58429
1274.78110	0.58301
1272.85254	0.58203
1270.92397	0.58118
1268.99541	0.58039
1267.06685	0.57965
1265.13828	0.57878
1263.20972	0.57783
1261.28115	0.57695
1259.35259	0.57610
1257.42402	0.57521
1255.49546	0.57446
1253.56689	0.57415
1251.63833	0.57428
1249.70977	0.57457
1247.78120	0.57471
1245.85264	0.57438
1243.92407	0.57350
1241.99551	0.57228
1240.06694	0.57079
1238.13838	0.56890
1236.20981	0.56659
1234.28125	0.56396
1232.35269	0.56127
1230.42412	0.55864
1228.49556	0.55610
1226.56699	0.55374
1224.63843	0.55157
1222.70986	0.54954
1220.78130	0.54768
1218.85273	0.54589
1216.92417	0.54433
1214.99561	0.54317
1213.06704	0.54226
1211.13848	0.54154
1209.20991	0.54092
1207.28135	0.54020
1205.35278	0.53923
1203.42422	0.53802
1201.49565	0.53676
1199.56709	0.53574
1197.63853	0.53501
1195.70996	0.53424
1193.78140	0.53339
1191.85283	0.53282
1189.92427	0.53254
1187.99570	0.53215
1186.06714	0.53176
1184.13857	0.53179
1182.21001	0.53225
1180.28145	0.53297
1178.35288	0.53406
1176.42432	0.53563
1174.49575	0.53724
1172.56719	0.53825
1170.63862	0.53860
1168.71006	0.53868
1166.78149	0.53866
1164.85293	0.53856
1162.92437	0.53844
1160.99580	0.53819
1159.06724	0.53786
1157.13867	0.53756
1155.21011	0.53702
1153.28154	0.53589
1151.35298	0.53423
1149.42441	0.53217
1147.49585	0.52968
1145.56729	0.52694
1143.63872	0.52435
1141.71016	0.52219
1139.78159	0.52048
1137.85303	0.51917
1135.92446	0.51834
1133.99590	0.51809
1132.06733	0.51821
1130.13877	0.51828
1128.21021	0.51800
1126.28164	0.51746
1124.35308	0.51706
1122.42451	0.51694
1120.49595	0.51692
1118.56738	0.51713
1116.63882	0.51774
1114.71025	0.51847
1112.78169	0.51904
1110.85312	0.51963
1108.92456	0.52053
1106.99600	0.52168
1105.06743	0.52277
1103.13887	0.52358
1101.21030	0.52432
1099.28174	0.52555
1097.35317	0.52756
1095.42461	0.53011
1093.49604	0.53334
1091.56748	0.53781
1089.63892	0.54385
1087.71035	0.55145
1085.78179	0.55986
1083.85322	0.56807
1081.92466	0.57557
1079.99609	0.58140
1078.06753	0.58418
1076.13896	0.58355
1074.21040	0.58018
1072.28184	0.57478
1070.35327	0.56812
1068.42471	0.56073
1066.49614	0.55315
1064.56758	0.54626
1062.63901	0.54048
1060.71045	0.53566
1058.78188	0.53155
1056.85332	0.52783
1054.92476	0.52418
1052.99619	0.52083
1051.06763	0.51821
1049.13906	0.51649
1047.21050	0.51539
1045.28193	0.51461
1043.35337	0.51402
1041.42480	0.51358
1039.49624	0.51327
1037.56768	0.51310
1035.63911	0.51300
1033.71055	0.51264
1031.78198	0.51175
1029.85342	0.51035
1027.92485	0.50862
1025.99629	0.50681
1024.06772	0.50527
1022.13916	0.50437
1020.21060	0.50403
1018.28203	0.50395
1016.35347	0.50376
1014.42490	0.50334
1012.49634	0.50291
1010.56777	0.50258
1008.63921	0.50241
1006.71064	0.50270
1004.78208	0.50363
1002.85352	0.50524
1000.92495	0.50768
998.99639	0.51103
997.06782	0.51510
995.13926	0.51954
993.21069	0.52384
991.28213	0.52733
989.35356	0.52960
987.42500	0.53058
985.49644	0.53051
983.56787	0.53018
981.63931	0.53034
979.71074	0.53107
977.78218	0.53226
975.85361	0.53393
973.92505	0.53623
971.99648	0.53925
970.06792	0.54277
968.13936	0.54647
966.21079	0.55032
964.28223	0.55451
962.35366	0.55897
960.42510	0.56382
958.49653	0.56936
956.56797	0.57525
954.63940	0.58124
952.71084	0.58746
950.78228	0.59373
948.85371	0.60001
946.92515	0.60651
944.99658	0.61311
943.06802	0.61963
941.13945	0.62613
939.21089	0.63239
937.28232	0.63825
935.35376	0.64388
933.42520	0.64933
931.49663	0.65478
929.56807	0.66070
927.63950	0.66734
925.71094	0.67418
923.78237	0.68047
921.85381	0.68634
919.92524	0.69251
917.99668	0.69976
916.06812	0.70786
914.13955	0.71588
912.21099	0.72397
910.28242	0.73270
908.35386	0.74198
906.42529	0.75101
904.49673	0.75880
902.56816	0.76657
900.63960	0.77608
898.71104	0.78712
896.78247	0.79883
894.85391	0.81019
892.92534	0.82034
890.99678	0.82944
889.06821	0.83869
887.13965	0.84944
885.21108	0.86095
883.28252	0.87232
881.35396	0.88507
879.42539	0.89818
877.49683	0.90855
875.56826	0.91839
873.63970	0.93073
871.71113	0.94362
869.78257	0.95475
867.85400	0.96500
865.92544	0.97633
863.99687	0.98925
862.06831	1.00284
860.13975	1.01544
858.21118	1.02615
856.28262	1.03641
854.35405	1.04767
852.42549	1.05905
850.49692	1.07089
848.56836	1.08361
846.63979	1.09712
844.71123	1.11229
842.78267	1.12560
840.85410	1.13524
838.92554	1.14471
836.99697	1.15562
835.06841	1.16904
833.13984	1.18402
831.21128	1.19977
829.28271	1.21939
827.35415	1.23686
825.42559	1.24399
823.49702	1.25320
821.56846	1.27118
819.63989	1.28325
817.71133	1.28880
815.78276	1.29823
813.85420	1.30473
811.92563	1.30824
809.99707	1.31637
808.06851	1.32521
806.13994	1.34543
804.21138	1.38207
802.28281	1.41215
800.35425	1.43707
798.42568	1.49159
796.49712	1.57903
794.56855	1.67188
792.63999	1.73604
790.71143	1.69891
788.78286	1.62723
786.85430	1.60392
784.92573	1.62408
782.99717	1.62054
781.06860	1.61312
779.14004	1.70450
777.21147	1.98595
775.28291	2.30565
773.35435	2.01897
771.42578	1.81648
769.49722	1.64877
767.56865	1.64898
765.64009	1.59663
763.71152	1.43207
761.78296	1.39067
759.85439	1.44657
757.92583	1.47892
755.99727	1.44399
754.06870	1.40249
752.14014	1.35191
750.21157	1.21409
748.28301	1.05233
746.35444	0.97786
744.42588	1.00732
742.49731	1.10364
740.56875	1.06910
738.64019	0.93088
736.71162	0.90565
734.78306	0.97906
732.85449	1.05292
730.92593	0.98363
728.99736	0.71351
727.06880	0.52626
725.14023	0.45521
723.21167	0.45436
721.28311	0.54158
719.35454	0.65807
717.42598	0.53736
715.49741	0.35902
713.56885	0.24888
711.64028	0.25887
709.71172	0.32187
707.78315	0.26509
705.85459	0.14204
703.92603	0.00654
701.99746	-0.07656
700.06890	0.05512
698.14033	0.19698
696.21177	0.18991
694.28320	0.09004
692.35464	-0.00543
690.42607	0.00830
688.49751	0.05055
686.56895	0.08610
684.64038	0.15723
682.71182	0.21152
680.78325	0.21289
678.85469	0.15602
676.92612	0.10605
674.99756	0.10731
673.06899	0.15329
671.14043	0.21376
669.21187	0.23441
667.28330	0.23058
665.35474	0.22259
663.42617	0.18182
661.49761	0.11878
659.56904	0.10589
657.64048	0.12591
655.71191	0.10645
653.78335	0.09819
651.85479	0.11912
649.92622	0.17451
647.99766	0.24638
646.06909	0.22587
644.14053	0.12775
642.21196	0.09783
640.28340	0.11957
638.35483	0.08712
636.42627	0.03475
634.49771	0.07851
632.56914	0.14130
630.64058	0.17823
628.71201	0.23354
626.78345	0.27402
624.85488	0.24130
622.92632	0.28263
620.99775	0.60036
619.06919	3.71442
617.14062	0.44287
615.21206	0.18779
613.28350	0.12541
611.35493	0.18900
609.42637	0.25307
607.49780	0.22475
605.56924	0.18317
603.64067	0.11309
601.71211	0.03322
599.78354	0.03195
597.85498	0.08949
595.92642	0.14139
593.99785	0.19502
592.06929	0.24107
590.14072	0.23019
588.21216	0.17655
586.28359	0.12559
584.35503	0.12780
582.42646	0.15862
580.49790	0.17938
578.56934	0.20641
576.64077	0.21784
574.71221	0.19216
572.78364	0.19281
570.85508	0.20854
568.92651	0.15290
566.99795	0.02991
565.06938	-0.02110
563.14082	-0.00837
561.21226	0.03592
559.28369	0.09782
557.35513	0.14120
555.42656	0.16224
553.49800	0.16848
551.56943	0.18337
549.64087	0.18614
547.71230	0.13567
545.78374	0.06593
543.85518	0.04456
541.92661	0.08079
539.99805	0.11159
538.06948	0.13431
536.14092	0.15496
534.21235	0.12127
532.28379	0.06743
530.35522	0.07818
528.42666	0.14034
526.49810	0.18906
524.56953	0.21275
522.64097	0.25042
520.71240	0.25607
518.78384	0.19255
516.85527	0.16860
514.92671	0.26149
512.99814	0.45799
511.06958	0.36753
509.14102	0.16292
507.21245	0.07457
505.28389	0.02242
503.35532	-0.00649
501.42676	0.00399
499.49819	0.03071
