3997.91411	0.05898
3995.98555	0.05958
3994.05698	0.06030
3992.12842	0.06071
3990.19985	0.06101
3988.27129	0.06142
3986.34272	0.06186
3984.41416	0.06218
3982.48560	0.06257
3980.55703	0.06294
3978.62847	0.06283
3976.69990	0.06247
3974.77134	0.06239
3972.84277	0.06249
3970.91421	0.06256
3968.98564	0.06271
3967.05708	0.06297
3965.12852	0.06327
3963.19995	0.06351
3961.27139	0.06375
3959.34282	0.06413
3957.41426	0.06436
3955.48569	0.06424
3953.55713	0.06398
3951.62856	0.06407
3949.70000	0.06466
3947.77144	0.06512
3945.84287	0.06498
3943.91431	0.06453
3941.98574	0.06415
3940.05718	0.06396
3938.12861	0.06409
3936.20005	0.06445
3934.27148	0.06475
3932.34292	0.06485
3930.41436	0.06461
3928.48579	0.06413
3926.55723	0.06378
3924.62866	0.06385
3922.70010	0.06422
3920.77153	0.06443
3918.84297	0.06460
3916.91440	0.06475
3914.98584	0.06428
3913.05728	0.06328
3911.12871	0.06263
3909.20015	0.06256
3907.27158	0.06309
3905.34302	0.06441
3903.41445	0.06591
3901.48589	0.06642
3899.55732	0.06602
3897.62876	0.06511
3895.70020	0.06441
3893.77163	0.06471
3891.84307	0.06557
3889.91450	0.06576
3887.98594	0.06529
3886.05737	0.06545
3884.12881	0.06616
3882.20024	0.06636
3880.27168	0.06606
3878.34312	0.06535
3876.41455	0.06485
3874.48599	0.06556
3872.55742	0.06704
3870.62886	0.06830
3868.70029	0.06892
3866.77173	0.06845
3864.84316	0.06784
3862.91460	0.06784
3860.98604	0.06801
3859.05747	0.06810
3857.12891	0.06822
3855.20034	0.06879
3853.27178	0.07068
3851.34321	0.07257
3849.41465	0.07182
3847.48608	0.07043
3845.55752	0.06989
3843.62896	0.07069
3841.70039	0.07250
3839.77183	0.07478
3837.84326	0.07749
3835.91470	0.07844
3833.98613	0.07681
3832.05757	0.07535
3830.12900	0.07548
3828.20044	0.07638
3826.27187	0.07719
3824.34331	0.07789
3822.41475	0.07906
3820.48618	0.08146
3818.55762	0.08343
3816.62905	0.08393
3814.70049	0.08388
3812.77192	0.08319
3810.84336	0.08284
3808.91479	0.08385
3806.98623	0.08622
3805.05767	0.08840
3803.12910	0.08931
3801.20054	0.09082
3799.27197	0.09292
3797.34341	0.09373
3795.41484	0.09382
3793.48628	0.09372
3791.55771	0.09404
3789.62915	0.09512
3787.70059	0.09653
3785.77202	0.09818
3783.84346	0.09994
3781.91489	0.10148
3779.98633	0.10331
3778.05776	0.10537
3776.12920	0.10657
3774.20063	0.10745
3772.27207	0.10890
3770.34351	0.11098
3768.41494	0.11323
3766.48638	0.11503
3764.55781	0.11681
3762.62925	0.11864
3760.70068	0.12038
3758.77212	0.12279
3756.84355	0.12574
3754.91499	0.12800
3752.98643	0.12993
3751.05786	0.13320
3749.12930	0.13795
3747.20073	0.14128
3745.27217	0.14381
3743.34360	0.14775
3741.41504	0.15163
3739.48647	0.15462
3737.55791	0.15831
3735.62935	0.16393
3733.70078	0.17083
3731.77222	0.17585
3729.84365	0.17909
3727.91509	0.18274
3725.98652	0.18842
3724.05796	0.19537
3722.12939	0.20155
3720.20083	0.20734
3718.27227	0.21341
3716.34370	0.21979
3714.41514	0.22670
3712.48657	0.23600
3710.55801	0.24992
3708.62944	0.26460
3706.70088	0.27588
3704.77231	0.28616
3702.84375	0.29848
3700.91519	0.31498
3698.98662	0.33298
3697.05806	0.34997
3695.12949	0.36822
3693.20093	0.38792
3691.27236	0.40935
3689.34380	0.43648
3687.41523	0.46941
3685.48667	0.49882
3683.55811	0.52446
3681.62954	0.55172
3679.70098	0.58245
3677.77241	0.61521
3675.84385	0.65416
3673.91528	0.70619
3671.98672	0.74858
3670.05815	0.78592
3668.12959	0.83750
3666.20103	0.88511
3664.27246	0.92485
3662.34390	0.96742
3660.41533	1.01346
3658.48677	1.05900
3656.55820	1.10752
3654.62964	1.16163
3652.70107	1.20755
3650.77251	1.24719
3648.84395	1.30063
3646.91538	1.36715
3644.98682	1.41736
3643.05825	1.45595
3641.12969	1.49567
3639.20112	1.53992
3637.27256	1.58428
3635.34399	1.62674
3633.41543	1.66917
3631.48687	1.70969
3629.55830	1.75086
3627.62974	1.80364
3625.70117	1.85301
3623.77261	1.88667
3621.84404	1.91815
3619.91548	1.95414
3617.98691	1.99883
3616.05835	2.04190
3614.12979	2.07776
3612.20122	2.11639
3610.27266	2.15495
3608.34409	2.19339
3606.41553	2.23586
3604.48696	2.27600
3602.55840	2.31161
3600.62983	2.34960
3598.70127	2.38961
3596.77271	2.42759
3594.84414	2.46691
3592.91558	2.50878
3590.98701	2.54774
3589.05845	2.58298
3587.12988	2.62577
3585.20132	2.67463
3583.27275	2.71594
3581.34419	2.75274
3579.41562	2.79086
3577.48706	2.83120
3575.55850	2.87310
3573.62993	2.91624
3571.70137	2.95858
3569.77280	3.00013
3567.84424	3.04310
3565.91567	3.09458
3563.98711	3.14814
3562.05854	3.19045
3560.12998	3.22744
3558.20142	3.26805
3556.27285	3.31343
3554.34429	3.35866
3552.41572	3.40451
3550.48716	3.45278
3548.55859	3.50011
3546.63003	3.54545
3544.70146	3.59200
3542.77290	3.63916
3540.84434	3.68686
3538.91577	3.73593
3536.98721	3.78329
3535.05864	3.83060
3533.13008	3.87830
3531.20151	3.92584
3529.27295	3.97524
3527.34438	4.02617
3525.41582	4.07507
3523.48726	4.12033
3521.55869	4.16507
3519.63013	4.21174
3517.70156	4.25951
3515.77300	4.30574
3513.84443	4.35150
3511.91587	4.39884
3509.98730	4.44828
3508.05874	4.49793
3506.13018	4.54488
3504.20161	4.59292
3502.27305	4.64487
3500.34448	4.69398
3498.41592	4.73879
3496.48735	4.78656
3494.55879	4.83819
3492.63022	4.89039
3490.70166	4.93958
3488.77310	4.98332
3486.84453	5.02573
3484.91597	5.07023
3482.98740	5.11511
3481.05884	5.16226
3479.13027	5.21343
3477.20171	5.26671
3475.27314	5.32128
3473.34458	5.37697
3471.41602	5.42521
3469.48745	5.46223
3467.55889	5.50706
3465.63032	5.56604
3463.70176	5.62129
3461.77319	5.66526
3459.84463	5.71476
3457.91606	5.77654
3455.98750	5.83425
3454.05894	5.88267
3452.13037	5.93051
3450.20181	5.98232
3448.27324	6.03235
3446.34468	6.07574
3444.41611	6.12158
3442.48755	6.17651
3440.55898	6.22950
3438.63042	6.27476
3436.70186	6.30371
3434.77329	6.32438
3432.84473	6.36984
3430.91616	6.43948
3428.98760	6.51127
3427.05903	6.57520
3425.13047	6.63369
3423.20190	6.68068
3421.27334	6.72423
3419.34478	6.77748
3417.41621	6.83396
3415.48765	6.89039
3413.55908	6.93814
3411.63052	6.98308
3409.70195	7.03163
3407.77339	7.07408
3405.84482	7.09594
3403.91626	7.10175
3401.98770	7.11869
3400.05913	7.16923
3398.13057	7.23483
3396.20200	7.27621
3394.27344	7.29574
3392.34487	7.31623
3390.41631	7.36620
3388.48774	7.44936
3386.55918	7.52669
3384.63062	7.56334
3382.70205	7.59040
3380.77349	7.61574
3378.84492	7.62220
3376.91636	7.63387
3374.98779	7.66411
3373.05923	7.73830
3371.13066	7.79933
3369.20210	7.76903
3367.27354	7.71195
3365.34497	7.72805
3363.41641	7.79496
3361.48784	7.82835
3359.55928	7.85020
3357.63071	7.90452
3355.70215	7.97866
3353.77358	8.02211
3351.84502	8.02356
3349.91646	8.01596
3347.98789	8.04789
3346.05933	8.09131
3344.13076	8.05211
3342.20220	7.98251
3340.27363	7.97782
3338.34507	8.01198
3336.41650	8.02511
3334.48794	8.04147
3332.55937	8.07645
3330.63081	8.12380
3328.70225	8.15075
3326.77368	8.14272
3324.84512	8.12746
3322.91655	8.10138
3320.98799	8.10406
3319.05942	8.11669
3317.13086	8.09563
3315.20229	8.09313
3313.27373	8.13284
3311.34517	8.14285
3309.41660	8.11286
3307.48804	8.11966
3305.55947	8.18928
3303.63091	8.24993
3301.70234	8.18467
3299.77378	8.06812
3297.84521	8.04130
3295.91665	8.10032
3293.98809	8.16157
3292.05952	8.18287
3290.13096	8.16466
3288.20239	8.14398
3286.27383	8.17884
3284.34526	8.26191
3282.41670	8.33748
3280.48813	8.33630
3278.55957	8.30381
3276.63101	8.32332
3274.70244	8.34507
3272.77388	8.30098
3270.84531	8.23789
3268.91675	8.16800
3266.98818	8.08356
3265.05962	8.09349
3263.13105	8.21882
3261.20249	8.34094
3259.27393	8.40399
3257.34536	8.44570
3255.41680	8.41817
3253.48823	8.31670
3251.55967	8.25141
3249.63110	8.24553
3247.70254	8.29352
3245.77397	8.32848
3243.84541	8.24353
3241.91685	8.09185
3239.98828	8.01816
3238.05972	8.08963
3236.13115	8.20834
3234.20259	8.20731
3232.27402	8.13491
3230.34546	8.14853
3228.41689	8.21187
3226.48833	8.21643
3224.55977	8.18206
3222.63120	8.13207
3220.70264	8.10222
3218.77407	8.11349
3216.84551	8.10444
3214.91694	8.06670
3212.98838	7.99657
3211.05981	7.88684
3209.13125	7.80232
3207.20269	7.80777
3205.27412	7.89608
3203.34556	7.96039
3201.41699	7.94790
3199.48843	7.91078
3197.55986	7.83458
3195.63130	7.72353
3193.70273	7.67265
3191.77417	7.67298
3189.84561	7.63549
3187.91704	7.56285
3185.98848	7.49363
3184.05991	7.44513
3182.13135	7.40577
3180.20278	7.34960
3178.27422	7.29138
3176.34565	7.24563
3174.41709	7.20019
3172.48853	7.15811
3170.55996	7.10299
3168.63140	7.01931
3166.70283	6.95194
3164.77427	6.91244
3162.84570	6.86457
3160.91714	6.80226
3158.98857	6.72438
3157.06001	6.63918
3155.13145	6.57505
3153.20288	6.52055
3151.27432	6.45791
3149.34575	6.39148
3147.41719	6.31974
3145.48862	6.24935
3143.56006	6.18425
3141.63149	6.11987
3139.70293	6.05045
3137.77437	5.97223
3135.84580	5.89030
3133.91724	5.81205
3131.98867	5.74091
3130.06011	5.67548
3128.13154	5.61081
3126.20298	5.54020
3124.27441	5.46275
3122.34585	5.38538
3120.41729	5.31345
3118.48872	5.24296
3116.56016	5.16815
3114.63159	5.09342
3112.70303	5.02484
3110.77446	4.95808
3108.84590	4.88908
3106.91733	4.81867
3104.98877	4.74703
3103.06021	4.67596
3101.13164	4.60288
3099.20308	4.53004
3097.27451	4.46518
3095.34595	4.40334
3093.41738	4.33880
3091.48882	4.27330
3089.56025	4.20644
3087.63169	4.13783
3085.70312	4.07012
3083.77456	4.00510
3081.84600	3.94201
3079.91743	3.88054
3077.98887	3.82292
3076.06030	3.76833
3074.13174	3.71112
3072.20317	3.64934
3070.27461	3.58636
3068.34604	3.52549
3066.41748	3.46757
3064.48892	3.41109
3062.56035	3.35423
3060.63179	3.29845
3058.70322	3.24485
3056.77466	3.19178
3054.84609	3.13859
3052.91753	3.08561
3050.98896	3.03248
3049.06040	2.97896
3047.13184	2.92642
3045.20327	2.87595
3043.27471	2.82726
3041.34614	2.77969
3039.41758	2.73157
3037.48901	2.68281
3035.56045	2.63520
3033.63188	2.58914
3031.70332	2.54438
3029.77476	2.50039
3027.84619	2.45616
3025.91763	2.41187
3023.98906	2.36842
3022.06050	2.32637
3020.13193	2.28568
3018.20337	2.24546
3016.27480	2.20484
3014.34624	2.16486
3012.41768	2.12677
3010.48911	2.08948
3008.56055	2.05214
3006.63198	2.01572
3004.70342	1.98029
3002.77485	1.94495
3000.84629	1.90993
2998.91772	1.87549
2996.98916	1.84136
2995.06060	1.80793
2993.13203	1.77555
2991.20347	1.74360
2989.27490	1.71179
2987.34634	1.68095
2985.41777	1.65131
2983.48921	1.62199
2981.56064	1.59250
2979.63208	1.56328
2977.70352	1.53502
2975.77495	1.50784
2973.84639	1.48118
2971.91782	1.45447
2969.98926	1.42752
2968.06069	1.40077
2966.13213	1.37502
2964.20356	1.35028
2962.27500	1.32605
2960.34644	1.30231
2958.41787	1.27870
2956.48931	1.25522
2954.56074	1.23222
2952.63218	1.20921
2950.70361	1.18624
2948.77505	1.16409
2946.84648	1.14263
2944.91792	1.12117
2942.98936	1.09994
2941.06079	1.07975
2939.13223	1.06057
2937.20366	1.04134
2935.27510	1.02176
2933.34653	1.00271
2931.41797	0.98446
2929.48940	0.96637
2927.56084	0.94837
2925.63228	0.93098
2923.70371	0.91430
2921.77515	0.89778
2919.84658	0.88107
2917.91802	0.86433
2915.98945	0.84779
2914.06089	0.83153
2912.13232	0.81572
2910.20376	0.80060
2908.27520	0.78588
2906.34663	0.77136
2904.41807	0.75731
2902.48950	0.74392
2900.56094	0.73097
2898.63237	0.71818
2896.70381	0.70561
2894.77524	0.69335
2892.84668	0.68141
2890.91812	0.66952
2888.98955	0.65766
2887.06099	0.64644
2885.13242	0.63598
2883.20386	0.62557
2881.27529	0.61486
2879.34673	0.60394
2877.41816	0.59327
2875.48960	0.58327
2873.56104	0.57356
2871.63247	0.56369
2869.70391	0.55390
2867.77534	0.54443
2865.84678	0.53489
2863.91821	0.52501
2861.98965	0.51518
2860.06108	0.50586
2858.13252	0.49718
2856.20396	0.48894
2854.27539	0.48079
2852.34683	0.47273
2850.41826	0.46486
2848.48970	0.45695
2846.56113	0.44887
2844.63257	0.44121
2842.70400	0.43441
2840.77544	0.42798
2838.84687	0.42165
2836.91831	0.41552
2834.98975	0.40943
2833.06118	0.40338
2831.13262	0.39729
2829.20405	0.39126
2827.27549	0.38552
2825.34692	0.38003
2823.41836	0.37454
2821.48979	0.36891
2819.56123	0.36314
2817.63267	0.35743
2815.70410	0.35202
2813.77554	0.34681
2811.84697	0.34164
2809.91841	0.33660
2807.98984	0.33171
2806.06128	0.32692
2804.13271	0.32224
2802.20415	0.31767
2800.27559	0.31320
2798.34702	0.30869
2796.41846	0.30414
2794.48989	0.29957
2792.56133	0.29502
2790.63276	0.29083
2788.70420	0.28699
2786.77563	0.28300
2784.84707	0.27891
2782.91851	0.27495
2780.98994	0.27113
2779.06138	0.26750
2777.13281	0.26398
2775.20425	0.26053
2773.27568	0.25725
2771.34712	0.25401
2769.41855	0.25059
2767.48999	0.24712
2765.56143	0.24386
2763.63286	0.24092
2761.70430	0.23803
2759.77573	0.23487
2757.84717	0.23160
2755.91860	0.22850
2753.99004	0.22569
2752.06147	0.22308
2750.13291	0.22047
2748.20435	0.21779
2746.27578	0.21512
2744.34722	0.21249
2742.41865	0.21001
2740.49009	0.20785
2738.56152	0.20566
2736.63296	0.20330
2734.70439	0.20111
2732.77583	0.19905
2730.84727	0.19685
2728.91870	0.19458
2726.99014	0.19240
2725.06157	0.19032
2723.13301	0.18834
2721.20444	0.18646
2719.27588	0.18462
2717.34731	0.18282
2715.41875	0.18109
2713.49019	0.17933
2711.56162	0.17760
2709.63306	0.17599
2707.70449	0.17454
2705.77593	0.17318
2703.84736	0.17170
2701.91880	0.17020
2699.99023	0.16879
2698.06167	0.16743
2696.13311	0.16618
2694.20454	0.16497
2692.27598	0.16376
2690.34741	0.16256
2688.41885	0.16129
2686.49028	0.15995
2684.56172	0.15866
2682.63315	0.15743
2680.70459	0.15634
2678.77603	0.15555
2676.84746	0.15482
2674.91890	0.15388
2672.99033	0.15277
2671.06177	0.15177
2669.13320	0.15102
2667.20464	0.15038
2665.27607	0.14963
2663.34751	0.14877
2661.41895	0.14798
2659.49038	0.14731
2657.56182	0.14672
2655.63325	0.14621
2653.70469	0.14555
2651.77612	0.14468
2649.84756	0.14399
2647.91899	0.14351
2645.99043	0.14308
2644.06187	0.14263
2642.13330	0.14203
2640.20474	0.14150
2638.27617	0.14130
2636.34761	0.14116
2634.41904	0.14094
2632.49048	0.14078
2630.56191	0.14056
2628.63335	0.14013
2626.70479	0.13961
2624.77622	0.13922
2622.84766	0.13901
2620.91909	0.13884
2618.99053	0.13865
2617.06196	0.13841
2615.13340	0.13826
2613.20483	0.13832
2611.27627	0.13841
2609.34771	0.13838
2607.41914	0.13834
2605.49058	0.13837
2603.56201	0.13844
2601.63345	0.13844
2599.70488	0.13854
2597.77632	0.13876
2595.84775	0.13882
2593.91919	0.13882
2591.99062	0.13906
2590.06206	0.13939
2588.13350	0.13961
2586.20493	0.13978
2584.27637	0.14002
2582.34780	0.14037
2580.41924	0.14078
2578.49067	0.14110
2576.56211	0.14132
2574.63354	0.14164
2572.70498	0.14215
2570.77642	0.14270
2568.84785	0.14307
2566.91929	0.14336
2564.99072	0.14381
2563.06216	0.14439
2561.13359	0.14498
2559.20503	0.14559
2557.27646	0.14619
2555.34790	0.14668
2553.41934	0.14713
2551.49077	0.14762
2549.56221	0.14809
2547.63364	0.14862
2545.70508	0.14937
2543.77651	0.15012
2541.84795	0.15083
2539.91938	0.15167
2537.99082	0.15248
2536.06226	0.15313
2534.13369	0.15376
2532.20513	0.15441
2530.27656	0.15502
2528.34800	0.15570
2526.41943	0.15654
2524.49087	0.15743
2522.56230	0.15827
2520.63374	0.15907
2518.70518	0.15984
2516.77661	0.16067
2514.84805	0.16158
2512.91948	0.16230
2510.99092	0.16295
2509.06235	0.16385
2507.13379	0.16489
2505.20522	0.16584
2503.27666	0.16670
2501.34810	0.16755
2499.41953	0.16834
2497.49097	0.16920
2495.56240	0.17024
2493.63384	0.17121
2491.70527	0.17199
2489.77671	0.17286
2487.84814	0.17384
2485.91958	0.17482
2483.99102	0.17578
2482.06245	0.17662
2480.13389	0.17748
2478.20532	0.17852
2476.27676	0.17948
2474.34819	0.18031
2472.41963	0.18122
2470.49106	0.18217
2468.56250	0.18304
2466.63394	0.18392
2464.70537	0.18494
2462.77681	0.18604
2460.84824	0.18704
2458.91968	0.18795
2456.99111	0.18901
2455.06255	0.19017
2453.13398	0.19107
2451.20542	0.19186
2449.27686	0.19284
2447.34829	0.19392
2445.41973	0.19498
2443.49116	0.19611
2441.56260	0.19725
2439.63403	0.19832
2437.70547	0.19936
2435.77690	0.20041
2433.84834	0.20148
2431.91978	0.20260
2429.99121	0.20376
2428.06265	0.20478
2426.13408	0.20572
2424.20552	0.20672
2422.27695	0.20784
2420.34839	0.20907
2418.41982	0.21030
2416.49126	0.21154
2414.56270	0.21288
2412.63413	0.21421
2410.70557	0.21534
2408.77700	0.21633
2406.84844	0.21739
2404.91987	0.21862
2402.99131	0.21997
2401.06274	0.22129
2399.13418	0.22250
2397.20562	0.22366
2395.27705	0.22489
2393.34849	0.22613
2391.41992	0.22738
2389.49136	0.22869
2387.56279	0.23026
2385.63423	0.23233
2383.70566	0.23528
2381.77710	0.23916
2379.84854	0.24358
2377.91997	0.24820
2375.99141	0.25315
2374.06284	0.25890
2372.13428	0.26580
2370.20571	0.27349
2368.27715	0.28114
2366.34858	0.28845
2364.42002	0.29510
2362.49146	0.30050
2360.56289	0.30399
2358.63433	0.30540
2356.70576	0.30469
2354.77720	0.30101
2352.84863	0.29529
2350.92007	0.28978
2348.99150	0.28693
2347.06294	0.28827
2345.13437	0.29425
2343.20581	0.30160
2341.27725	0.30506
2339.34868	0.30565
2337.42012	0.30646
2335.49155	0.30782
2333.56299	0.30857
2331.63442	0.30893
2329.70586	0.30932
2327.77729	0.30932
2325.84873	0.30866
2323.92017	0.30773
2321.99160	0.30706
2320.06304	0.30640
2318.13447	0.30557
2316.20591	0.30498
2314.27734	0.30491
2312.34878	0.30520
2310.42021	0.30561
2308.49165	0.30599
2306.56309	0.30628
2304.63452	0.30654
2302.70596	0.30714
2300.77739	0.30810
2298.84883	0.30907
2296.92026	0.31017
2294.99170	0.31151
2293.06313	0.31282
2291.13457	0.31404
2289.20601	0.31527
2287.27744	0.31651
2285.34888	0.31783
2283.42031	0.31931
2281.49175	0.32100
2279.56318	0.32303
2277.63462	0.32540
2275.70605	0.32775
2273.77749	0.32989
2271.84893	0.33199
2269.92036	0.33413
2267.99180	0.33619
2266.06323	0.33819
2264.13467	0.34022
2262.20610	0.34231
2260.27754	0.34432
2258.34897	0.34620
2256.42041	0.34822
2254.49185	0.35037
2252.56328	0.35246
2250.63472	0.35446
2248.70615	0.35651
2246.77759	0.35865
2244.84902	0.36087
2242.92046	0.36308
2240.99189	0.36526
2239.06333	0.36738
2237.13477	0.36956
2235.20620	0.37191
2233.27764	0.37425
2231.34907	0.37638
2229.42051	0.37844
2227.49194	0.38060
2225.56338	0.38284
2223.63481	0.38515
2221.70625	0.38748
2219.77769	0.38976
2217.84912	0.39188
2215.92056	0.39393
2213.99199	0.39612
2212.06343	0.39841
2210.13486	0.40057
2208.20630	0.40250
2206.27773	0.40429
2204.34917	0.40629
2202.42061	0.40861
2200.49204	0.41093
2198.56348	0.41304
2196.63491	0.41493
2194.70635	0.41670
2192.77778	0.41856
2190.84922	0.42064
2188.92065	0.42276
2186.99209	0.42466
2185.06353	0.42634
2183.13496	0.42799
2181.20640	0.42962
2179.27783	0.43119
2177.34927	0.43271
2175.42070	0.43416
2173.49214	0.43567
2171.56357	0.43717
2169.63501	0.43852
2167.70645	0.43977
2165.77788	0.44104
2163.84932	0.44231
2161.92075	0.44352
2159.99219	0.44470
2158.06362	0.44580
2156.13506	0.44674
2154.20649	0.44761
2152.27793	0.44834
2150.34937	0.44891
2148.42080	0.44954
2146.49224	0.45024
2144.56367	0.45085
2142.63511	0.45131
2140.70654	0.45156
2138.77798	0.45172
2136.84941	0.45192
2134.92085	0.45204
2132.99229	0.45193
2131.06372	0.45171
2129.13516	0.45145
2127.20659	0.45121
2125.27803	0.45103
2123.34946	0.45074
2121.42090	0.45028
2119.49233	0.44971
2117.56377	0.44905
2115.63521	0.44833
2113.70664	0.44745
2111.77808	0.44650
2109.84951	0.44559
2107.92095	0.44461
2105.99238	0.44339
2104.06382	0.44203
2102.13525	0.44062
2100.20669	0.43925
2098.27812	0.43792
2096.34956	0.43663
2094.42100	0.43516
2092.49243	0.43338
2090.56387	0.43153
2088.63530	0.42970
2086.70674	0.42788
2084.77817	0.42615
2082.84961	0.42440
2080.92104	0.42247
2078.99248	0.42049
2077.06392	0.41845
2075.13535	0.41620
2073.20679	0.41385
2071.27822	0.41161
2069.34966	0.40942
2067.42109	0.40712
2065.49253	0.40481
2063.56396	0.40248
2061.63540	0.40003
2059.70684	0.39748
2057.77827	0.39502
2055.84971	0.39265
2053.92114	0.39015
2051.99258	0.38753
2050.06401	0.38490
2048.13545	0.38226
2046.20688	0.37956
2044.27832	0.37684
2042.34976	0.37404
2040.42119	0.37117
2038.49263	0.36839
2036.56406	0.36577
2034.63550	0.36319
2032.70693	0.36052
2030.77837	0.35775
2028.84980	0.35492
2026.92124	0.35212
2024.99268	0.34933
2023.06411	0.34652
2021.13555	0.34371
2019.20698	0.34101
2017.27842	0.33832
2015.34985	0.33553
2013.42129	0.33278
2011.49272	0.33009
2009.56416	0.32732
2007.63560	0.32458
2005.70703	0.32201
2003.77847	0.31949
2001.84990	0.31691
1999.92134	0.31428
1997.99277	0.31162
1996.06421	0.30904
1994.13564	0.30661
1992.20708	0.30423
1990.27852	0.30161
1988.34995	0.29887
1986.42139	0.29632
1984.49282	0.29395
1982.56426	0.29168
1980.63569	0.28939
1978.70713	0.28707
1976.77856	0.28477
1974.85000	0.28253
1972.92144	0.28038
1970.99287	0.27833
1969.06431	0.27633
1967.13574	0.27430
1965.20718	0.27224
1963.27861	0.27025
1961.35005	0.26840
1959.42148	0.26653
1957.49292	0.26463
1955.56436	0.26282
1953.63579	0.26110
1951.70723	0.25943
1949.77866	0.25782
1947.85010	0.25626
1945.92153	0.25477
1943.99297	0.25345
1942.06440	0.25208
1940.13584	0.25040
1938.20728	0.24875
1936.27871	0.24736
1934.35015	0.24619
1932.42158	0.24512
1930.49302	0.24401
1928.56445	0.24286
1926.63589	0.24171
1924.70732	0.24071
1922.77876	0.23990
1920.85020	0.23906
1918.92163	0.23822
1916.99307	0.23735
1915.06450	0.23634
1913.13594	0.23541
1911.20737	0.23481
1909.27881	0.23428
1907.35024	0.23359
1905.42168	0.23277
1903.49312	0.23205
1901.56455	0.23149
1899.63599	0.23100
1897.70742	0.23061
1895.77886	0.23033
1893.85029	0.23014
1891.92173	0.22993
1889.99316	0.22975
1888.06460	0.22948
1886.13604	0.22909
1884.20747	0.22870
1882.27891	0.22844
1880.35034	0.22836
1878.42178	0.22827
1876.49321	0.22813
1874.56465	0.22801
1872.63608	0.22817
1870.70752	0.22873
1868.77896	0.22959
1866.85039	0.22996
1864.92183	0.22972
1862.99326	0.22960
1861.06470	0.22980
1859.13613	0.23020
1857.20757	0.23057
1855.27900	0.23097
1853.35044	0.23142
1851.42187	0.23203
1849.49331	0.23280
1847.56475	0.23362
1845.63618	0.23450
1843.70762	0.23548
1841.77905	0.23613
1839.85049	0.23642
1837.92192	0.23715
1835.99336	0.23821
1834.06479	0.23924
1832.13623	0.24023
1830.20767	0.24166
1828.27910	0.24315
1826.35054	0.24415
1824.42197	0.24537
1822.49341	0.24670
1820.56484	0.24802
1818.63628	0.24940
1816.70771	0.25096
1814.77915	0.25257
1812.85059	0.25439
1810.92202	0.25648
1808.99346	0.25851
1807.06489	0.26041
1805.13633	0.26234
1803.20776	0.26459
1801.27920	0.26719
1799.35063	0.27003
1797.42207	0.27256
1795.49351	0.27499
1793.56494	0.27792
1791.63638	0.28167
1789.70781	0.28508
1787.77925	0.28751
1785.85068	0.29049
1783.92212	0.29422
1781.99355	0.29834
1780.06499	0.30261
1778.13643	0.30681
1776.20786	0.31079
1774.27930	0.31522
1772.35073	0.32117
1770.42217	0.32751
1768.49360	0.33290
1766.56504	0.33809
1764.63647	0.34338
1762.70791	0.34927
1760.77935	0.35681
1758.85078	0.36396
1756.92222	0.37114
1754.99365	0.37895
1753.06509	0.38612
1751.13652	0.39480
1749.20796	0.40585
1747.27939	0.41675
1745.35083	0.42612
1743.42227	0.43574
1741.49370	0.44624
1739.56514	0.45860
1737.63657	0.47099
1735.70801	0.48192
1733.77944	0.49838
1731.85088	0.51787
1729.92231	0.53318
1727.99375	0.54876
1726.06519	0.56555
1724.13662	0.58390
1722.20806	0.60386
1720.27949	0.62251
1718.35093	0.64444
1716.42236	0.67650
1714.49380	0.70678
1712.56523	0.73141
1710.63667	0.75537
1708.70811	0.78108
1706.77954	0.81023
1704.85098	0.84496
1702.92241	0.87585
1700.99385	0.90618
1699.06528	0.95141
1697.13672	0.99340
1695.20815	1.03617
1693.27959	1.07738
1691.35103	1.11077
1689.42246	1.14935
1687.49390	1.18945
1685.56533	1.22738
1683.63677	1.28587
1681.70820	1.34700
1679.77964	1.38642
1677.85107	1.42367
1675.92251	1.46596
1673.99395	1.51821
1672.06538	1.56502
1670.13682	1.61096
1668.20825	1.67034
1666.27969	1.71741
1664.35112	1.75550
1662.42256	1.80296
1660.49399	1.85707
1658.56543	1.89986
1656.63687	1.93495
1654.70830	1.96818
1652.77974	2.02096
1650.85117	2.06990
1648.92261	2.08835
1646.99404	2.11394
1645.06548	2.14541
1643.13691	2.16760
1641.20835	2.18103
1639.27979	2.19184
1637.35122	2.19848
1635.42266	2.19991
1633.49409	2.19532
1631.56553	2.18395
1629.63696	2.16828
1627.70840	2.14343
1625.77983	2.11578
1623.85127	2.07963
1621.92271	2.03364
1619.99414	1.99341
1618.06558	1.95339
1616.13701	1.89361
1614.20845	1.83236
1612.27988	1.78664
1610.35132	1.73917
1608.42275	1.68697
1606.49419	1.63532
1604.56562	1.58796
1602.63706	1.54171
1600.70850	1.49600
1598.77993	1.45403
1596.85137	1.41446
1594.92280	1.37542
1592.99424	1.33726
1591.06567	1.30226
1589.13711	1.26929
1587.20854	1.23793
1585.27998	1.20840
1583.35142	1.18061
1581.42285	1.15505
1579.49429	1.13291
1577.56572	1.11255
1575.63716	1.08702
1573.70859	1.06413
1571.78003	1.04923
1569.85146	1.03323
1567.92290	1.01451
1565.99434	0.99942
1564.06577	0.98687
1562.13721	0.97673
1560.20864	0.96844
1558.28008	0.95491
1556.35151	0.94267
1554.42295	0.93482
1552.49438	0.92688
1550.56582	0.91886
1548.63726	0.91004
1546.70869	0.90127
1544.78013	0.89232
1542.85156	0.88251
1540.92300	0.87090
1538.99443	0.85438
1537.06587	0.84182
1535.13730	0.83357
1533.20874	0.82326
1531.28018	0.81159
1529.35161	0.80276
1527.42305	0.79482
1525.49448	0.78673
1523.56592	0.77958
1521.63735	0.77238
1519.70879	0.76451
1517.78022	0.75761
1515.85166	0.75020
1513.92310	0.74294
1511.99453	0.73697
1510.06597	0.73175
1508.13740	0.72703
1506.20884	0.71942
1504.28027	0.71180
1502.35171	0.70733
1500.42314	0.70365
1498.49458	0.69979
1496.56602	0.69523
1494.63745	0.69055
1492.70889	0.68687
1490.78032	0.68394
1488.85176	0.68085
1486.92319	0.67746
1484.99463	0.67432
1483.06606	0.67179
1481.13750	0.66971
1479.20894	0.66774
1477.28037	0.66600
1475.35181	0.66465
1473.42324	0.66344
1471.49468	0.66106
1469.56611	0.65795
1467.63755	0.65528
1465.70898	0.65296
1463.78042	0.65065
1461.85186	0.64865
1459.92329	0.64731
1457.99473	0.64615
1456.06616	0.64365
1454.13760	0.64042
1452.20903	0.63773
1450.28047	0.63516
1448.35190	0.63247
1446.42334	0.62966
1444.49478	0.62706
1442.56621	0.62471
1440.63765	0.62245
1438.70908	0.62046
1436.78052	0.61839
1434.85195	0.61604
1432.92339	0.61401
1430.99482	0.61243
1429.06626	0.61101
1427.13770	0.60970
1425.20913	0.60865
1423.28057	0.60785
1421.35200	0.60715
1419.42344	0.60642
1417.49487	0.60539
1415.56631	0.60398
1413.63774	0.60259
1411.70918	0.60140
1409.78062	0.60034
1407.85205	0.59943
1405.92349	0.59873
1403.99492	0.59799
1402.06636	0.59696
1400.13779	0.59587
1398.20923	0.59457
1396.28066	0.59299
1394.35210	0.59117
1392.42354	0.58904
1390.49497	0.58688
1388.56641	0.58485
1386.63784	0.58271
1384.70928	0.58031
1382.78071	0.57801
1380.85215	0.57598
1378.92358	0.57426
1376.99502	0.57285
1375.06646	0.57163
1373.13789	0.57033
1371.20933	0.56912
1369.28076	0.56823
1367.35220	0.56737
1365.42363	0.56628
1363.49507	0.56518
1361.56650	0.56415
1359.63794	0.56305
1357.70937	0.56194
1355.78081	0.56091
1353.85225	0.55989
1351.92368	0.55902
1349.99512	0.55838
1348.06655	0.55766
1346.13799	0.55667
1344.20942	0.55570
1342.28086	0.55498
1340.35229	0.55443
1338.42373	0.55370
1336.49517	0.55263
1334.56660	0.55165
1332.63804	0.55098
1330.70947	0.55050
1328.78091	0.55017
1326.85234	0.54987
1324.92378	0.54941
1322.99521	0.54893
1321.06665	0.54855
1319.13809	0.54822
1317.20952	0.54773
1315.28096	0.54709
1313.35239	0.54647
1311.42383	0.54578
1309.49526	0.54490
1307.56670	0.54407
1305.63813	0.54348
1303.70957	0.54289
1301.78101	0.54206
1299.85244	0.54120
1297.92388	0.54048
1295.99531	0.53966
1294.06675	0.53867
1292.13818	0.53773
1290.20962	0.53701
1288.28105	0.53647
1286.35249	0.53596
1284.42393	0.53539
1282.49536	0.53462
1280.56680	0.53375
1278.63823	0.53304
1276.70967	0.53243
1274.78110	0.53181
1272.85254	0.53139
1270.92397	0.53108
1268.99541	0.53059
1267.06685	0.52992
1265.13828	0.52920
1263.20972	0.52857
1261.28115	0.52813
1259.35259	0.52771
1257.42402	0.52719
1255.49546	0.52685
1253.56689	0.52671
1251.63833	0.52651
1249.70977	0.52627
1247.78120	0.52604
1245.85264	0.52574
1243.92407	0.52536
1241.99551	0.52489
1240.06694	0.52415
1238.13838	0.52324
1236.20981	0.52242
1234.28125	0.52176
1232.35269	0.52092
1230.42412	0.51976
1228.49556	0.51869
1226.56699	0.51784
1224.63843	0.51691
1222.70986	0.51595
1220.78130	0.51511
1218.85273	0.51442
1216.92417	0.51383
1214.99561	0.51315
1213.06704	0.51238
1211.13848	0.51178
1209.20991	0.51129
1207.28135	0.51062
1205.35278	0.50990
1203.42422	0.50934
1201.49565	0.50882
1199.56709	0.50822
1197.63853	0.50764
1195.70996	0.50715
1193.78140	0.50670
1191.85283	0.50631
1189.92427	0.50603
1187.99570	0.50587
1186.06714	0.50576
1184.13857	0.50563
1182.21001	0.50563
1180.28145	0.50583
1178.35288	0.50618
1176.42432	0.50671
1174.49575	0.50743
1172.56719	0.50813
1170.63862	0.50875
1168.71006	0.50929
1166.78149	0.50959
1164.85293	0.50957
1162.92437	0.50944
1160.99580	0.50929
1159.06724	0.50899
1157.13867	0.50845
1155.21011	0.50767
1153.28154	0.50651
1151.35298	0.50497
1149.42441	0.50322
1147.49585	0.50129
1145.56729	0.49908
1143.63872	0.49676
1141.71016	0.49459
1139.78159	0.49251
1137.85303	0.49031
1135.92446	0.48812
1133.99590	0.48632
1132.06733	0.48483
1130.13877	0.48330
1128.21021	0.48190
1126.28164	0.48081
1124.35308	0.47970
1122.42451	0.47848
1120.49595	0.47748
1118.56738	0.47683
1116.63882	0.47650
1114.71025	0.47635
1112.78169	0.47615
1110.85312	0.47600
1108.92456	0.47623
1106.99600	0.47695
1105.06743	0.47814
1103.13887	0.47989
1101.21030	0.48200
1099.28174	0.48411
1097.35317	0.48629
1095.42461	0.48892
1093.49604	0.49241
1091.56748	0.49683
1089.63892	0.50186
1087.71035	0.50743
1085.78179	0.51351
1083.85322	0.51990
1081.92466	0.52607
1079.99609	0.53128
1078.06753	0.53487
1076.13896	0.53615
1074.21040	0.53468
1072.28184	0.53078
1070.35327	0.52523
1068.42471	0.51892
1066.49614	0.51247
1064.56758	0.50632
1062.63901	0.50057
1060.71045	0.49520
1058.78188	0.49035
1056.85332	0.48620
1054.92476	0.48278
1052.99619	0.47981
1051.06763	0.47716
1049.13906	0.47501
1047.21050	0.47335
1045.28193	0.47189
1043.35337	0.47050
1041.42480	0.46929
1039.49624	0.46835
1037.56768	0.46770
1035.63911	0.46728
1033.71055	0.46697
1031.78198	0.46668
1029.85342	0.46666
1027.92485	0.46711
1025.99629	0.46768
1024.06772	0.46806
1022.13916	0.46845
1020.21060	0.46915
1018.28203	0.47011
1016.35347	0.47129
1014.42490	0.47252
1012.49634	0.47353
1010.56777	0.47450
1008.63921	0.47592
1006.71064	0.47788
1004.78208	0.48006
1002.85352	0.48226
1000.92495	0.48470
998.99639	0.48770
997.06782	0.49121
995.13926	0.49502
993.21069	0.49902
991.28213	0.50273
989.35356	0.50552
987.42500	0.50741
985.49644	0.50871
983.56787	0.50959
981.63931	0.51035
979.71074	0.51155
977.78218	0.51347
975.85361	0.51594
973.92505	0.51875
971.99648	0.52193
970.06792	0.52554
968.13936	0.52955
966.21079	0.53394
964.28223	0.53856
962.35366	0.54333
960.42510	0.54830
958.49653	0.55344
956.56797	0.55881
954.63940	0.56484
952.71084	0.57162
950.78228	0.57856
948.85371	0.58512
946.92515	0.59124
944.99658	0.59709
943.06802	0.60302
941.13945	0.60915
939.21089	0.61514
937.28232	0.62079
935.35376	0.62626
933.42520	0.63174
931.49663	0.63732
929.56807	0.64310
927.63950	0.64908
925.71094	0.65540
923.78237	0.66236
921.85381	0.66922
919.92524	0.67508
917.99668	0.68069
916.06812	0.68731
914.13955	0.69511
912.21099	0.70349
910.28242	0.71182
908.35386	0.72004
906.42529	0.72870
904.49673	0.73829
902.56816	0.74827
900.63960	0.75750
898.71104	0.76569
896.78247	0.77359
894.85391	0.78276
892.92534	0.79415
890.99678	0.80600
889.06821	0.81600
887.13965	0.82514
885.21108	0.83596
883.28252	0.84829
881.35396	0.86059
879.42539	0.87299
877.49683	0.88601
875.56826	0.89878
873.63970	0.90988
871.71113	0.92010
869.78257	0.93186
867.85400	0.94409
865.92544	0.95453
863.99687	0.96482
862.06831	0.97719
860.13975	0.99014
858.21118	1.00105
856.28262	1.01084
854.35405	1.02204
852.42549	1.03461
850.49692	1.04727
848.56836	1.05927
846.63979	1.07152
844.71123	1.08442
842.78267	1.09659
840.85410	1.10714
838.92554	1.11571
836.99697	1.12546
835.06841	1.13857
833.13984	1.15081
831.21128	1.16043
829.28271	1.16899
827.35415	1.17539
825.42559	1.18059
823.49702	1.19016
821.56846	1.20660
819.63989	1.22198
817.71133	1.22961
815.78276	1.23990
813.85420	1.25846
811.92563	1.27393
809.99707	1.27929
808.06851	1.28306
806.13994	1.29081
804.21138	1.29592
802.28281	1.29880
800.35425	1.29955
798.42568	1.29562
796.49712	1.28970
794.56855	1.29173
792.63999	1.30599
790.71143	1.31866
788.78286	1.34069
786.85430	1.39945
784.92573	1.46417
782.99717	1.45001
781.06860	1.39831
779.14004	1.37622
777.21147	1.37177
775.28291	1.36447
773.35435	1.35380
771.42578	1.33747
769.49722	1.28555
767.56865	1.24163
765.64009	1.26953
763.71152	1.37017
761.78296	1.49318
759.85439	1.47151
757.92583	1.26834
755.99727	1.12472
754.06870	1.12399
752.14014	1.23884
750.21157	1.31825
748.28301	1.25182
746.35444	1.22614
744.42588	1.27741
742.49731	1.34919
740.56875	1.34753
738.64019	1.05775
736.71162	0.78028
734.78306	0.68387
732.85449	0.86763
730.92593	4.38556
728.99736	4.37398
727.06880	4.36241
725.14023	0.28310
723.21167	-0.28202
721.28311	-0.40210
719.35454	-0.35501
717.42598	-0.25227
715.49741	-0.11618
713.56885	0.06235
711.64028	0.22618
709.71172	0.32053
707.78315	0.36747
705.85459	0.36761
703.92603	0.36364
701.99746	0.50186
700.06890	0.66570
698.14033	0.55325
696.21177	0.43591
694.28320	0.45865
692.35464	0.60198
690.42607	0.74102
688.49751	0.56764
686.56895	0.37099
684.64038	0.31991
682.71182	0.37901
680.78325	0.44633
678.85469	0.50355
676.92612	0.58971
674.99756	0.67624
673.06899	0.57674
671.14043	0.39740
669.21187	0.28967
667.28330	0.26947
665.35474	0.34908
663.42617	0.49598
661.49761	0.63390
659.56904	0.63489
657.64048	0.50803
655.71191	0.47900
653.78335	0.60394
651.85479	0.60802
649.92622	0.50030
647.99766	0.52883
646.06909	0.54339
644.14053	0.48217
642.21196	0.48877
640.28340	0.54322
638.35483	0.65104
636.42627	0.75755
634.49771	0.58718
632.56914	0.43827
630.64058	0.40198
628.71201	0.48805
626.78345	0.73144
624.85488	1.01664
622.92632	0.72271
620.99775	0.51628
619.06919	0.48272
617.14062	0.53245
615.21206	0.57704
613.28350	0.52710
611.35493	0.41117
609.42637	0.35174
607.49780	0.34082
605.56924	0.36028
603.64067	0.43749
601.71211	0.50365
599.78354	0.45509
597.85498	0.40740
595.92642	0.39550
593.99785	0.38700
592.06929	0.39226
590.14072	0.39918
588.21216	0.41192
586.28359	0.44969
584.35503	0.45343
582.42646	0.36863
580.49790	0.31210
578.56934	0.33840
576.64077	0.40787
574.71221	0.48577
572.78364	0.59377
570.85508	0.66878
568.92651	0.53751
566.99795	0.41255
565.06938	0.36735
563.14082	0.38524
561.21226	0.39149
559.28369	0.33875
557.35513	0.31296
555.42656	0.31998
553.49800	0.32823
551.56943	0.35952
549.64087	0.43444
547.71230	0.45849
545.78374	0.39219
543.85518	0.31595
541.92661	0.25847
539.99805	0.25463
538.06948	0.25768
536.14092	0.23161
534.21235	0.22597
532.28379	0.25322
530.35522	0.26967
528.42666	0.26523
526.49810	0.25523
524.56953	0.27085
522.64097	0.34120
520.71240	0.39103
518.78384	0.36278
516.85527	0.37868
514.92671	0.45994
512.99814	0.48584
511.06958	0.47646
509.14102	0.51272
507.21245	0.51445
505.28389	0.37308
503.35532	0.26231
501.42676	0.23825
499.49819	0.26802
