3997.91411	0.06094
3995.98555	0.06137
3994.05698	0.06165
3992.12842	0.06196
3990.19985	0.06238
3988.27129	0.06276
3986.34272	0.06320
3984.41416	0.06359
3982.48560	0.06338
3980.55703	0.06285
3978.62847	0.06282
3976.69990	0.06329
3974.77134	0.06374
3972.84277	0.06405
3970.91421	0.06415
3968.98564	0.06385
3967.05708	0.06350
3965.12852	0.06354
3963.19995	0.06378
3961.27139	0.06386
3959.34282	0.06397
3957.41426	0.06436
3955.48569	0.06474
3953.55713	0.06467
3951.62856	0.06444
3949.70000	0.06497
3947.77144	0.06589
3945.84287	0.06592
3943.91431	0.06520
3941.98574	0.06462
3940.05718	0.06456
3938.12861	0.06497
3936.20005	0.06517
3934.27148	0.06477
3932.34292	0.06431
3930.41436	0.06418
3928.48579	0.06406
3926.55723	0.06379
3924.62866	0.06364
3922.70010	0.06391
3920.77153	0.06439
3918.84297	0.06458
3916.91440	0.06424
3914.98584	0.06387
3913.05728	0.06394
3911.12871	0.06399
3909.20015	0.06389
3907.27158	0.06409
3905.34302	0.06449
3903.41445	0.06423
3901.48589	0.06297
3899.55732	0.06229
3897.62876	0.06298
3895.70020	0.06381
3893.77163	0.06415
3891.84307	0.06415
3889.91450	0.06400
3887.98594	0.06398
3886.05737	0.06407
3884.12881	0.06418
3882.20024	0.06427
3880.27168	0.06442
3878.34312	0.06453
3876.41455	0.06418
3874.48599	0.06367
3872.55742	0.06378
3870.62886	0.06451
3868.70029	0.06507
3866.77173	0.06509
3864.84316	0.06515
3862.91460	0.06582
3860.98604	0.06679
3859.05747	0.06752
3857.12891	0.06770
3855.20034	0.06714
3853.27178	0.06611
3851.34321	0.06649
3849.41465	0.06820
3847.48608	0.06948
3845.55752	0.07020
3843.62896	0.07062
3841.70039	0.07083
3839.77183	0.07087
3837.84326	0.07136
3835.91470	0.07258
3833.98613	0.07363
3832.05757	0.07402
3830.12900	0.07428
3828.20044	0.07483
3826.27187	0.07544
3824.34331	0.07588
3822.41475	0.07634
3820.48618	0.07747
3818.55762	0.07891
3816.62905	0.07980
3814.70049	0.08073
3812.77192	0.08178
3810.84336	0.08258
3808.91479	0.08332
3806.98623	0.08410
3805.05767	0.08490
3803.12910	0.08567
3801.20054	0.08713
3799.27197	0.08967
3797.34341	0.09153
3795.41484	0.09278
3793.48628	0.09394
3791.55771	0.09481
3789.62915	0.09585
3787.70059	0.09730
3785.77202	0.09895
3783.84346	0.10047
3781.91489	0.10140
3779.98633	0.10242
3778.05776	0.10432
3776.12920	0.10608
3774.20063	0.10736
3772.27207	0.10874
3770.34351	0.11039
3768.41494	0.11242
3766.48638	0.11445
3764.55781	0.11629
3762.62925	0.11800
3760.70068	0.11973
3758.77212	0.12194
3756.84355	0.12454
3754.91499	0.12650
3752.98643	0.12738
3751.05786	0.12825
3749.12930	0.13162
3747.20073	0.13596
3745.27217	0.13904
3743.34360	0.14248
3741.41504	0.14577
3739.48647	0.14770
3737.55791	0.14935
3735.62935	0.15188
3733.70078	0.15611
3731.77222	0.16109
3729.84365	0.16544
3727.91509	0.16927
3725.98652	0.17416
3724.05796	0.18081
3722.12939	0.18830
3720.20083	0.19659
3718.27227	0.20561
3716.34370	0.21457
3714.41514	0.22249
3712.48657	0.23024
3710.55801	0.24085
3708.62944	0.25429
3706.70088	0.26683
3704.77231	0.27848
3702.84375	0.29135
3700.91519	0.30757
3698.98662	0.32573
3697.05806	0.34363
3695.12949	0.36232
3693.20093	0.38119
3691.27236	0.40092
3689.34380	0.42726
3687.41523	0.46220
3685.48667	0.49446
3683.55811	0.52199
3681.62954	0.55023
3679.70098	0.58109
3677.77241	0.61326
3675.84385	0.65097
3673.91528	0.70243
3671.98672	0.74586
3670.05815	0.78440
3668.12959	0.83758
3666.20103	0.88732
3664.27246	0.92818
3662.34390	0.97078
3660.41533	1.01688
3658.48677	1.06251
3656.55820	1.11076
3654.62964	1.16483
3652.70107	1.21041
3650.77251	1.24901
3648.84395	1.30157
3646.91538	1.36846
3644.98682	1.41964
3643.05825	1.45907
3641.12969	1.49899
3639.20112	1.54272
3637.27256	1.58625
3635.34399	1.62758
3633.41543	1.66809
3631.48687	1.70605
3629.55830	1.74491
3627.62974	1.79782
3625.70117	1.84912
3623.77261	1.88349
3621.84404	1.91618
3619.91548	1.95468
3617.98691	2.00121
3616.05835	2.04474
3614.12979	2.08033
3612.20122	2.11864
3610.27266	2.15810
3608.34409	2.19671
3606.41553	2.23761
3604.48696	2.27732
3602.55840	2.31272
3600.62983	2.34970
3598.70127	2.39086
3596.77271	2.43178
3594.84414	2.47222
3592.91558	2.51353
3590.98701	2.55158
3589.05845	2.58604
3587.12988	2.62933
3585.20132	2.67983
3583.27275	2.72183
3581.34419	2.75923
3579.41562	2.79951
3577.48706	2.84151
3575.55850	2.88293
3573.62993	2.92625
3571.70137	2.96941
3569.77280	3.01059
3567.84424	3.05315
3565.91567	3.10193
3563.98711	3.15009
3562.05854	3.19292
3560.12998	3.23541
3558.20142	3.27918
3556.27285	3.32442
3554.34429	3.36925
3552.41572	3.41493
3550.48716	3.46282
3548.55859	3.50897
3546.63003	3.55049
3544.70146	3.59262
3542.77290	3.63913
3540.84434	3.68770
3538.91577	3.73783
3536.98721	3.78878
3535.05864	3.83988
3533.13008	3.88747
3531.20151	3.93202
3529.27295	3.98006
3527.34438	4.03195
3525.41582	4.07910
3523.48726	4.12361
3521.55869	4.17449
3519.63013	4.22587
3517.70156	4.27093
3515.77300	4.31449
3513.84443	4.36355
3511.91587	4.41403
3509.98730	4.45941
3508.05874	4.50594
3506.13018	4.55943
3504.20161	4.61144
3502.27305	4.65821
3500.34448	4.70596
3498.41592	4.75529
3496.48735	4.80639
3494.55879	4.85965
3492.63022	4.90897
3490.70166	4.95133
3488.77310	4.99286
3486.84453	5.03925
3484.91597	5.08928
3482.98740	5.13432
3481.05884	5.17392
3479.13027	5.22391
3477.20171	5.28368
3475.27314	5.33196
3473.34458	5.37197
3471.41602	5.42292
3469.48745	5.47642
3467.55889	5.51968
3465.63032	5.56235
3463.70176	5.61391
3461.77319	5.67056
3459.84463	5.73094
3457.91606	5.78674
3455.98750	5.83015
3454.05894	5.87096
3452.13037	5.91550
3450.20181	5.95911
3448.27324	6.00392
3446.34468	6.07445
3444.41611	6.16170
3442.48755	6.21788
3440.55898	6.24030
3438.63042	6.26073
3436.70186	6.29903
3434.77329	6.35819
3432.84473	6.42651
3430.91616	6.49440
3428.98760	6.56130
3427.05903	6.61927
3425.13047	6.66776
3423.20190	6.70533
3421.27334	6.74500
3419.34478	6.81000
3417.41621	6.88909
3415.48765	6.94358
3413.55908	6.95669
3411.63052	6.95162
3409.70195	6.95245
3407.77339	6.98696
3405.84482	7.06945
3403.91626	7.18353
3401.98770	7.26496
3400.05913	7.28050
3398.13057	7.28619
3396.20200	7.33549
3394.27344	7.43050
3392.34487	7.49255
3390.41631	7.48655
3388.48774	7.48083
3386.55918	7.53205
3384.63062	7.59474
3382.70205	7.61175
3380.77349	7.63065
3378.84492	7.67668
3376.91636	7.70219
3374.98779	7.67027
3373.05923	7.65000
3371.13066	7.72251
3369.20210	7.84036
3367.27354	7.87784
3365.34497	7.85788
3363.41641	7.87357
3361.48784	7.90240
3359.55928	7.91101
3357.63071	7.91797
3355.70215	7.93994
3353.77358	7.98722
3351.84502	8.06140
3349.91646	8.10087
3347.98789	8.12775
3346.05933	8.17018
3344.13076	8.20706
3342.20220	8.26710
3340.27363	8.26893
3338.34507	8.16911
3336.41650	8.07956
3334.48794	8.09738
3332.55937	8.17664
3330.63081	8.20574
3328.70225	8.20024
3326.77368	8.21205
3324.84512	8.20079
3322.91655	8.16391
3320.98799	8.17038
3319.05942	8.19474
3317.13086	8.19228
3315.20229	8.17616
3313.27373	8.19048
3311.34517	8.26327
3309.41660	8.34403
3307.48804	8.30638
3305.55947	8.18018
3303.63091	8.13383
3301.70234	8.15374
3299.77378	8.13231
3297.84521	8.09218
3295.91665	8.10878
3293.98809	8.15329
3292.05952	8.23785
3290.13096	8.35111
3288.20239	8.36772
3286.27383	8.33818
3284.34526	8.34386
3282.41670	8.32506
3280.48813	8.24583
3278.55957	8.16459
3276.63101	8.14043
3274.70244	8.23602
3272.77388	8.39651
3270.84531	8.38317
3268.91675	8.23160
3266.98818	8.19010
3265.05962	8.27400
3263.13105	8.37600
3261.20249	8.44146
3259.27393	8.40510
3257.34536	8.33602
3255.41680	8.32384
3253.48823	8.31356
3251.55967	8.27407
3249.63110	8.24998
3247.70254	8.27482
3245.77397	8.30442
3243.84541	8.25574
3241.91685	8.15492
3239.98828	8.15946
3238.05972	8.29948
3236.13115	8.43221
3234.20259	8.43845
3232.27402	8.38031
3230.34546	8.37201
3228.41689	8.39089
3226.48833	8.41761
3224.55977	8.38710
3222.63120	8.24676
3220.70264	8.14510
3218.77407	8.16758
3216.84551	8.22286
3214.91694	8.19895
3212.98838	8.11398
3211.05981	8.01556
3209.13125	7.93160
3207.20269	7.92931
3205.27412	8.00541
3203.34556	8.04216
3201.41699	7.99906
3199.48843	7.91426
3197.55986	7.80462
3195.63130	7.72962
3193.70273	7.72959
3191.77417	7.78063
3189.84561	7.81463
3187.91704	7.73857
3185.98848	7.59243
3184.05991	7.49034
3182.13135	7.43167
3180.20278	7.38507
3178.27422	7.35336
3176.34565	7.31943
3174.41709	7.27455
3172.48853	7.22543
3170.55996	7.16465
3168.63140	7.08751
3166.70283	7.00135
3164.77427	6.93157
3162.84570	6.88455
3160.91714	6.82556
3158.98857	6.74916
3157.06001	6.68290
3155.13145	6.61957
3153.20288	6.54208
3151.27432	6.46381
3149.34575	6.38911
3147.41719	6.31665
3145.48862	6.24776
3143.56006	6.17824
3141.63149	6.11168
3139.70293	6.04210
3137.77437	5.96623
3135.84580	5.89006
3133.91724	5.81440
3131.98867	5.74340
3130.06011	5.68153
3128.13154	5.62103
3126.20298	5.55418
3124.27441	5.48641
3122.34585	5.42159
3120.41729	5.35980
3118.48872	5.29022
3116.56016	5.20395
3114.63159	5.11735
3112.70303	5.04166
3110.77446	4.97060
3108.84590	4.89991
3106.91733	4.82996
3104.98877	4.76069
3103.06021	4.68796
3101.13164	4.61191
3099.20308	4.54428
3097.27451	4.48698
3095.34595	4.42660
3093.41738	4.35711
3091.48882	4.28537
3089.56025	4.21642
3087.63169	4.14950
3085.70312	4.08520
3083.77456	4.02061
3081.84600	3.95304
3079.91743	3.88767
3077.98887	3.82771
3076.06030	3.76958
3074.13174	3.70994
3072.20317	3.64969
3070.27461	3.58973
3068.34604	3.52980
3066.41748	3.47082
3064.48892	3.41371
3062.56035	3.35812
3060.63179	3.30330
3058.70322	3.24907
3056.77466	3.19519
3054.84609	3.14133
3052.91753	3.08838
3050.98896	3.03594
3049.06040	2.98244
3047.13184	2.92975
3045.20327	2.87996
3043.27471	2.83151
3041.34614	2.78268
3039.41758	2.73435
3037.48901	2.68738
3035.56045	2.64071
3033.63188	2.59412
3031.70332	2.54831
3029.77476	2.50325
3027.84619	2.45947
3025.91763	2.41663
3023.98906	2.37399
3022.06050	2.33200
3020.13193	2.29057
3018.20337	2.24991
3016.27480	2.21033
3014.34624	2.17122
3012.41768	2.13267
3010.48911	2.09481
3008.56055	2.05725
3006.63198	2.01968
3004.70342	1.98258
3002.77485	1.94676
3000.84629	1.91175
2998.91772	1.87717
2996.98916	1.84377
2995.06060	1.81159
2993.13203	1.77963
2991.20347	1.74750
2989.27490	1.71585
2987.34634	1.68477
2985.41777	1.65386
2983.48921	1.62358
2981.56064	1.59430
2979.63208	1.56572
2977.70352	1.53739
2975.77495	1.50939
2973.84639	1.48201
2971.91782	1.45510
2969.98926	1.42837
2968.06069	1.40190
2966.13213	1.37602
2964.20356	1.35107
2962.27500	1.32694
2960.34644	1.30293
2958.41787	1.27869
2956.48931	1.25477
2954.56074	1.23162
2952.63218	1.20913
2950.70361	1.18703
2948.77505	1.16539
2946.84648	1.14427
2944.91792	1.12302
2942.98936	1.10129
2941.06079	1.07994
2939.13223	1.05957
2937.20366	1.03967
2935.27510	1.02018
2933.34653	1.00155
2931.41797	0.98336
2929.48940	0.96540
2927.56084	0.94793
2925.63228	0.93054
2923.70371	0.91320
2921.77515	0.89625
2919.84658	0.87960
2917.91802	0.86322
2915.98945	0.84717
2914.06089	0.83139
2912.13232	0.81592
2910.20376	0.80115
2908.27520	0.78722
2906.34663	0.77353
2904.41807	0.75973
2902.48950	0.74624
2900.56094	0.73308
2898.63237	0.72000
2896.70381	0.70731
2894.77524	0.69515
2892.84668	0.68303
2890.91812	0.67084
2888.98955	0.65914
2887.06099	0.64785
2885.13242	0.63660
2883.20386	0.62569
2881.27529	0.61531
2879.34673	0.60539
2877.41816	0.59565
2875.48960	0.58562
2873.56104	0.57528
2871.63247	0.56491
2869.70391	0.55483
2867.77534	0.54522
2865.84678	0.53573
2863.91821	0.52606
2861.98965	0.51646
2860.06108	0.50729
2858.13252	0.49855
2856.20396	0.48992
2854.27539	0.48141
2852.34683	0.47307
2850.41826	0.46474
2848.48970	0.45676
2846.56113	0.44956
2844.63257	0.44285
2842.70400	0.43616
2840.77544	0.42949
2838.84687	0.42320
2836.91831	0.41729
2834.98975	0.41151
2833.06118	0.40575
2831.13262	0.39984
2829.20405	0.39391
2827.27549	0.38822
2825.34692	0.38261
2823.41836	0.37693
2821.48979	0.37127
2819.56123	0.36563
2817.63267	0.36000
2815.70410	0.35452
2813.77554	0.34918
2811.84697	0.34387
2809.91841	0.33868
2807.98984	0.33370
2806.06128	0.32888
2804.13271	0.32407
2802.20415	0.31940
2800.27559	0.31497
2798.34702	0.31048
2796.41846	0.30599
2794.48989	0.30168
2792.56133	0.29726
2790.63276	0.29278
2788.70420	0.28860
2786.77563	0.28467
2784.84707	0.28076
2782.91851	0.27682
2780.98994	0.27308
2779.06138	0.26957
2777.13281	0.26605
2775.20425	0.26244
2773.27568	0.25878
2771.34712	0.25508
2769.41855	0.25159
2767.48999	0.24852
2765.56143	0.24557
2763.63286	0.24244
2761.70430	0.23936
2759.77573	0.23637
2757.84717	0.23336
2755.91860	0.23045
2753.99004	0.22773
2752.06147	0.22509
2750.13291	0.22239
2748.20435	0.21974
2746.27578	0.21729
2744.34722	0.21490
2742.41865	0.21250
2740.49009	0.21010
2738.56152	0.20770
2736.63296	0.20535
2734.70439	0.20309
2732.77583	0.20082
2730.84727	0.19854
2728.91870	0.19637
2726.99014	0.19434
2725.06157	0.19253
2723.13301	0.19086
2721.20444	0.18913
2719.27588	0.18731
2717.34731	0.18546
2715.41875	0.18357
2713.49019	0.18168
2711.56162	0.17989
2709.63306	0.17831
2707.70449	0.17692
2705.77593	0.17555
2703.84736	0.17405
2701.91880	0.17242
2699.99023	0.17092
2698.06167	0.16967
2696.13311	0.16842
2694.20454	0.16708
2692.27598	0.16583
2690.34741	0.16457
2688.41885	0.16320
2686.49028	0.16199
2684.56172	0.16103
2682.63315	0.16013
2680.70459	0.15915
2678.77603	0.15805
2676.84746	0.15692
2674.91890	0.15594
2672.99033	0.15501
2671.06177	0.15407
2669.13320	0.15322
2667.20464	0.15230
2665.27607	0.15127
2663.34751	0.15033
2661.41895	0.14959
2659.49038	0.14906
2657.56182	0.14863
2655.63325	0.14803
2653.70469	0.14733
2651.77612	0.14678
2649.84756	0.14624
2647.91899	0.14555
2645.99043	0.14480
2644.06187	0.14424
2642.13330	0.14392
2640.20474	0.14368
2638.27617	0.14343
2636.34761	0.14307
2634.41904	0.14264
2632.49048	0.14225
2630.56191	0.14199
2628.63335	0.14175
2626.70479	0.14139
2624.77622	0.14102
2622.84766	0.14076
2620.91909	0.14057
2618.99053	0.14047
2617.06196	0.14032
2615.13340	0.14013
2613.20483	0.14007
2611.27627	0.13999
2609.34771	0.13994
2607.41914	0.14017
2605.49058	0.14040
2603.56201	0.14038
2601.63345	0.14034
2599.70488	0.14044
2597.77632	0.14055
2595.84775	0.14059
2593.91919	0.14064
2591.99062	0.14082
2590.06206	0.14124
2588.13350	0.14180
2586.20493	0.14216
2584.27637	0.14224
2582.34780	0.14237
2580.41924	0.14269
2578.49067	0.14299
2576.56211	0.14325
2574.63354	0.14349
2572.70498	0.14374
2570.77642	0.14420
2568.84785	0.14482
2566.91929	0.14535
2564.99072	0.14576
2563.06216	0.14619
2561.13359	0.14672
2559.20503	0.14729
2557.27646	0.14789
2555.34790	0.14846
2553.41934	0.14898
2551.49077	0.14957
2549.56221	0.15019
2547.63364	0.15072
2545.70508	0.15123
2543.77651	0.15187
2541.84795	0.15268
2539.91938	0.15348
2537.99082	0.15410
2536.06226	0.15460
2534.13369	0.15518
2532.20513	0.15596
2530.27656	0.15687
2528.34800	0.15774
2526.41943	0.15851
2524.49087	0.15923
2522.56230	0.15993
2520.63374	0.16068
2518.70518	0.16157
2516.77661	0.16249
2514.84805	0.16334
2512.91948	0.16413
2510.99092	0.16487
2509.06235	0.16563
2507.13379	0.16650
2505.20522	0.16744
2503.27666	0.16847
2501.34810	0.16947
2499.41953	0.17026
2497.49097	0.17101
2495.56240	0.17189
2493.63384	0.17283
2491.70527	0.17381
2489.77671	0.17477
2487.84814	0.17562
2485.91958	0.17652
2483.99102	0.17756
2482.06245	0.17848
2480.13389	0.17919
2478.20532	0.18000
2476.27676	0.18109
2474.34819	0.18223
2472.41963	0.18321
2470.49106	0.18407
2468.56250	0.18504
2466.63394	0.18613
2464.70537	0.18717
2462.77681	0.18811
2460.84824	0.18895
2458.91968	0.18979
2456.99111	0.19076
2455.06255	0.19185
2453.13398	0.19293
2451.20542	0.19407
2449.27686	0.19524
2447.34829	0.19622
2445.41973	0.19705
2443.49116	0.19798
2441.56260	0.19903
2439.63403	0.20012
2437.70547	0.20119
2435.77690	0.20221
2433.84834	0.20321
2431.91978	0.20429
2429.99121	0.20539
2428.06265	0.20645
2426.13408	0.20754
2424.20552	0.20866
2422.27695	0.20977
2420.34839	0.21098
2418.41982	0.21223
2416.49126	0.21330
2414.56270	0.21425
2412.63413	0.21528
2410.70557	0.21646
2408.77700	0.21777
2406.84844	0.21911
2404.91987	0.22035
2402.99131	0.22147
2401.06274	0.22268
2399.13418	0.22404
2397.20562	0.22533
2395.27705	0.22661
2393.34849	0.22799
2391.41992	0.22931
2389.49136	0.23038
2387.56279	0.23115
2385.63423	0.23140
2383.70566	0.23085
2381.77710	0.22940
2379.84854	0.22709
2377.91997	0.22394
2375.99141	0.21997
2374.06284	0.21538
2372.13428	0.21001
2370.20571	0.20333
2368.27715	0.19593
2366.34858	0.18967
2364.42002	0.18523
2362.49146	0.18325
2360.56289	0.18378
2358.63433	0.18549
2356.70576	0.18934
2354.77720	0.19678
2352.84863	0.20800
2350.92007	0.21998
2348.99150	0.22714
2347.06294	0.22775
2345.13437	0.22296
2343.20581	0.21708
2341.27725	0.21633
2339.34868	0.22030
2337.42012	0.22441
2335.49155	0.22673
2333.56299	0.22857
2331.63442	0.23102
2329.70586	0.23405
2327.77729	0.23774
2325.84873	0.24203
2323.92017	0.24688
2321.99160	0.25225
2320.06304	0.25754
2318.13447	0.26235
2316.20591	0.26674
2314.27734	0.27062
2312.34878	0.27399
2310.42021	0.27737
2308.49165	0.28111
2306.56309	0.28504
2304.63452	0.28880
2302.70596	0.29219
2300.77739	0.29523
2298.84883	0.29796
2296.92026	0.30072
2294.99170	0.30359
2293.06313	0.30629
2291.13457	0.30886
2289.20601	0.31155
2287.27744	0.31436
2285.34888	0.31711
2283.42031	0.31954
2281.49175	0.32152
2279.56318	0.32320
2277.63462	0.32495
2275.70605	0.32692
2273.77749	0.32895
2271.84893	0.33095
2269.92036	0.33301
2267.99180	0.33527
2266.06323	0.33760
2264.13467	0.33979
2262.20610	0.34194
2260.27754	0.34428
2258.34897	0.34674
2256.42041	0.34908
2254.49185	0.35122
2252.56328	0.35338
2250.63472	0.35579
2248.70615	0.35824
2246.77759	0.36054
2244.84902	0.36277
2242.92046	0.36503
2240.99189	0.36739
2239.06333	0.36976
2237.13477	0.37205
2235.20620	0.37422
2233.27764	0.37625
2231.34907	0.37835
2229.42051	0.38074
2227.49194	0.38321
2225.56338	0.38563
2223.63481	0.38796
2221.70625	0.39010
2219.77769	0.39219
2217.84912	0.39435
2215.92056	0.39655
2213.99199	0.39869
2212.06343	0.40078
2210.13486	0.40294
2208.20630	0.40522
2206.27773	0.40741
2204.34917	0.40934
2202.42061	0.41117
2200.49204	0.41315
2198.56348	0.41527
2196.63491	0.41727
2194.70635	0.41914
2192.77778	0.42105
2190.84922	0.42301
2188.92065	0.42497
2186.99209	0.42696
2185.06353	0.42884
2183.13496	0.43047
2181.20640	0.43206
2179.27783	0.43383
2177.34927	0.43571
2175.42070	0.43748
2173.49214	0.43903
2171.56357	0.44031
2169.63501	0.44147
2167.70645	0.44272
2165.77788	0.44406
2163.84932	0.44530
2161.92075	0.44637
2159.99219	0.44744
2158.06362	0.44855
2156.13506	0.44957
2154.20649	0.45045
2152.27793	0.45126
2150.34937	0.45196
2148.42080	0.45252
2146.49224	0.45306
2144.56367	0.45353
2142.63511	0.45388
2140.70654	0.45422
2138.77798	0.45454
2136.84941	0.45476
2134.92085	0.45492
2132.99229	0.45494
2131.06372	0.45483
2129.13516	0.45457
2127.20659	0.45416
2125.27803	0.45378
2123.34946	0.45347
2121.42090	0.45310
2119.49233	0.45254
2117.56377	0.45189
2115.63521	0.45113
2113.70664	0.45023
2111.77808	0.44925
2109.84951	0.44820
2107.92095	0.44712
2105.99238	0.44605
2104.06382	0.44495
2102.13525	0.44369
2100.20669	0.44227
2098.27812	0.44081
2096.34956	0.43938
2094.42100	0.43788
2092.49243	0.43626
2090.56387	0.43463
2088.63530	0.43297
2086.70674	0.43122
2084.77817	0.42933
2082.84961	0.42733
2080.92104	0.42523
2078.99248	0.42315
2077.06392	0.42115
2075.13535	0.41903
2073.20679	0.41672
2071.27822	0.41446
2069.34966	0.41236
2067.42109	0.41016
2065.49253	0.40776
2063.56396	0.40526
2061.63540	0.40277
2059.70684	0.40037
2057.77827	0.39800
2055.84971	0.39548
2053.92114	0.39273
2051.99258	0.38999
2050.06401	0.38740
2048.13545	0.38485
2046.20688	0.38223
2044.27832	0.37958
2042.34976	0.37693
2040.42119	0.37423
2038.49263	0.37137
2036.56406	0.36848
2034.63550	0.36576
2032.70693	0.36314
2030.77837	0.36045
2028.84980	0.35763
2026.92124	0.35480
2024.99268	0.35205
2023.06411	0.34936
2021.13555	0.34664
2019.20698	0.34387
2017.27842	0.34108
2015.34985	0.33827
2013.42129	0.33553
2011.49272	0.33279
2009.56416	0.33004
2007.63560	0.32732
2005.70703	0.32461
2003.77847	0.32196
2001.84990	0.31937
1999.92134	0.31664
1997.99277	0.31391
1996.06421	0.31140
1994.13564	0.30893
1992.20708	0.30632
1990.27852	0.30371
1988.34995	0.30125
1986.42139	0.29888
1984.49282	0.29660
1982.56426	0.29440
1980.63569	0.29219
1978.70713	0.28987
1976.77856	0.28743
1974.85000	0.28510
1972.92144	0.28298
1970.99287	0.28091
1969.06431	0.27879
1967.13574	0.27668
1965.20718	0.27470
1963.27861	0.27283
1961.35005	0.27088
1959.42148	0.26891
1957.49292	0.26711
1955.56436	0.26548
1953.63579	0.26387
1951.70723	0.26215
1949.77866	0.26037
1947.85010	0.25867
1945.92153	0.25721
1943.99297	0.25586
1942.06440	0.25438
1940.13584	0.25282
1938.20728	0.25135
1936.27871	0.25001
1934.35015	0.24871
1932.42158	0.24744
1930.49302	0.24626
1928.56445	0.24519
1926.63589	0.24416
1924.70732	0.24322
1922.77876	0.24224
1920.85020	0.24121
1918.92163	0.24027
1916.99307	0.23940
1915.06450	0.23855
1913.13594	0.23774
1911.20737	0.23702
1909.27881	0.23626
1907.35024	0.23556
1905.42168	0.23494
1903.49312	0.23438
1901.56455	0.23396
1899.63599	0.23360
1897.70742	0.23317
1895.77886	0.23265
1893.85029	0.23220
1891.92173	0.23180
1889.99316	0.23151
1888.06460	0.23124
1886.13604	0.23096
1884.20747	0.23081
1882.27891	0.23079
1880.35034	0.23080
1878.42178	0.23077
1876.49321	0.23075
1874.56465	0.23080
1872.63608	0.23087
1870.70752	0.23084
1868.77896	0.23098
1866.85039	0.23139
1864.92183	0.23167
1862.99326	0.23177
1861.06470	0.23195
1859.13613	0.23238
1857.20757	0.23281
1855.27900	0.23325
1853.35044	0.23375
1851.42187	0.23432
1849.49331	0.23487
1847.56475	0.23539
1845.63618	0.23595
1843.70762	0.23684
1841.77905	0.23784
1839.85049	0.23841
1837.92192	0.23909
1835.99336	0.24006
1834.06479	0.24111
1832.13623	0.24200
1830.20767	0.24306
1828.27910	0.24440
1826.35054	0.24575
1824.42197	0.24728
1822.49341	0.24874
1820.56484	0.25006
1818.63628	0.25139
1816.70771	0.25295
1814.77915	0.25453
1812.85059	0.25620
1810.92202	0.25817
1808.99346	0.26027
1807.06489	0.26232
1805.13633	0.26430
1803.20776	0.26649
1801.27920	0.26888
1799.35063	0.27162
1797.42207	0.27421
1795.49351	0.27661
1793.56494	0.27928
1791.63638	0.28290
1789.70781	0.28664
1787.77925	0.28943
1785.85068	0.29253
1783.92212	0.29625
1781.99355	0.30021
1780.06499	0.30436
1778.13643	0.30880
1776.20786	0.31294
1774.27930	0.31704
1772.35073	0.32242
1770.42217	0.32870
1768.49360	0.33440
1766.56504	0.33984
1764.63647	0.34531
1762.70791	0.35112
1760.77935	0.35848
1758.85078	0.36562
1756.92222	0.37281
1754.99365	0.38060
1753.06509	0.38754
1751.13652	0.39551
1749.20796	0.40566
1747.27939	0.41632
1745.35083	0.42605
1743.42227	0.43605
1741.49370	0.44675
1739.56514	0.45932
1737.63657	0.47200
1735.70801	0.48283
1733.77944	0.49879
1731.85088	0.51861
1729.92231	0.53470
1727.99375	0.55080
1726.06519	0.56786
1724.13662	0.58642
1722.20806	0.60648
1720.27949	0.62471
1718.35093	0.64563
1716.42236	0.67726
1714.49380	0.70840
1712.56523	0.73374
1710.63667	0.75782
1708.70811	0.78328
1706.77954	0.81206
1704.85098	0.84665
1702.92241	0.87750
1700.99385	0.90724
1699.06528	0.95147
1697.13672	0.99294
1695.20815	1.03601
1693.27959	1.07777
1691.35103	1.11094
1689.42246	1.14844
1687.49390	1.18739
1685.56533	1.22462
1683.63677	1.28254
1681.70820	1.34344
1679.77964	1.38271
1677.85107	1.41975
1675.92251	1.46183
1673.99395	1.51398
1672.06538	1.56088
1670.13682	1.60604
1668.20825	1.66303
1666.27969	1.70865
1664.35112	1.74631
1662.42256	1.79275
1660.49399	1.84607
1658.56543	1.88775
1656.63687	1.91999
1654.70830	1.94964
1652.77974	2.00186
1650.85117	2.05513
1648.92261	2.07674
1646.99404	2.10439
1645.06548	2.13523
1643.13691	2.15562
1641.20835	2.16934
1639.27979	2.18215
1637.35122	2.19026
1635.42266	2.19258
1633.49409	2.19016
1631.56553	2.18073
1629.63696	2.16649
1627.70840	2.14202
1625.77983	2.11298
1623.85127	2.07579
1621.92271	2.02945
1619.99414	1.98786
1618.06558	1.94710
1616.13701	1.88879
1614.20845	1.82939
1612.27988	1.78448
1610.35132	1.73760
1608.42275	1.68609
1606.49419	1.63459
1604.56562	1.58705
1602.63706	1.54113
1600.70850	1.49575
1598.77993	1.45317
1596.85137	1.41264
1594.92280	1.37319
1592.99424	1.33507
1591.06567	1.30015
1589.13711	1.26727
1587.20854	1.23602
1585.27998	1.20644
1583.35142	1.17846
1581.42285	1.15254
1579.49429	1.12970
1577.56572	1.10839
1575.63716	1.08219
1573.70859	1.05929
1571.78003	1.04409
1569.85146	1.02726
1567.92290	1.00818
1565.99434	0.99362
1564.06577	0.98147
1562.13721	0.97091
1560.20864	0.96135
1558.28008	0.94544
1556.35151	0.93222
1554.42295	0.92449
1552.49438	0.91639
1550.56582	0.90782
1548.63726	0.89874
1546.70869	0.89023
1544.78013	0.88119
1542.85156	0.87071
1540.92300	0.85828
1538.99443	0.84266
1537.06587	0.83234
1535.13730	0.82511
1533.20874	0.81500
1531.28018	0.80405
1529.35161	0.79601
1527.42305	0.78813
1525.49448	0.77965
1523.56592	0.77216
1521.63735	0.76476
1519.70879	0.75763
1517.78022	0.75203
1515.85166	0.74568
1513.92310	0.73904
1511.99453	0.73338
1510.06597	0.72818
1508.13740	0.72297
1506.20884	0.71537
1504.28027	0.70911
1502.35171	0.70548
1500.42314	0.70204
1498.49458	0.69830
1496.56602	0.69402
1494.63745	0.68983
1492.70889	0.68641
1490.78032	0.68333
1488.85176	0.67996
1486.92319	0.67689
1484.99463	0.67433
1483.06606	0.67199
1481.13750	0.66971
1479.20894	0.66761
1477.28037	0.66584
1475.35181	0.66408
1473.42324	0.66206
1471.49468	0.65964
1469.56611	0.65737
1467.63755	0.65524
1465.70898	0.65302
1463.78042	0.65079
1461.85186	0.64882
1459.92329	0.64705
1457.99473	0.64506
1456.06616	0.64251
1454.13760	0.63980
1452.20903	0.63719
1450.28047	0.63460
1448.35190	0.63209
1446.42334	0.62967
1444.49478	0.62762
1442.56621	0.62565
1440.63765	0.62337
1438.70908	0.62098
1436.78052	0.61852
1434.85195	0.61632
1432.92339	0.61452
1430.99482	0.61284
1429.06626	0.61144
1427.13770	0.61038
1425.20913	0.60929
1423.28057	0.60814
1421.35200	0.60710
1419.42344	0.60604
1417.49487	0.60476
1415.56631	0.60334
1413.63774	0.60200
1411.70918	0.60076
1409.78062	0.59968
1407.85205	0.59882
1405.92349	0.59808
1403.99492	0.59727
1402.06636	0.59622
1400.13779	0.59480
1398.20923	0.59307
1396.28066	0.59135
1394.35210	0.58964
1392.42354	0.58788
1390.49497	0.58607
1388.56641	0.58416
1386.63784	0.58209
1384.70928	0.58009
1382.78071	0.57827
1380.85215	0.57653
1378.92358	0.57490
1376.99502	0.57341
1375.06646	0.57212
1373.13789	0.57116
1371.20933	0.57052
1369.28076	0.56977
1367.35220	0.56871
1365.42363	0.56756
1363.49507	0.56640
1361.56650	0.56523
1359.63794	0.56412
1357.70937	0.56311
1355.78081	0.56213
1353.85225	0.56122
1351.92368	0.56038
1349.99512	0.55951
1348.06655	0.55859
1346.13799	0.55770
1344.20942	0.55682
1342.28086	0.55594
1340.35229	0.55508
1338.42373	0.55421
1336.49517	0.55338
1334.56660	0.55266
1332.63804	0.55197
1330.70947	0.55133
1328.78091	0.55083
1326.85234	0.55045
1324.92378	0.55003
1322.99521	0.54944
1321.06665	0.54877
1319.13809	0.54827
1317.20952	0.54784
1315.28096	0.54727
1313.35239	0.54669
1311.42383	0.54614
1309.49526	0.54550
1307.56670	0.54478
1305.63813	0.54401
1303.70957	0.54317
1301.78101	0.54232
1299.85244	0.54143
1297.92388	0.54048
1295.99531	0.53965
1294.06675	0.53893
1292.13818	0.53813
1290.20962	0.53722
1288.28105	0.53648
1286.35249	0.53595
1284.42393	0.53541
1282.49536	0.53479
1280.56680	0.53416
1278.63823	0.53354
1276.70967	0.53303
1274.78110	0.53257
1272.85254	0.53195
1270.92397	0.53114
1268.99541	0.53045
1267.06685	0.52996
1265.13828	0.52947
1263.20972	0.52901
1261.28115	0.52869
1259.35259	0.52836
1257.42402	0.52785
1255.49546	0.52728
1253.56689	0.52693
1251.63833	0.52691
1249.70977	0.52698
1247.78120	0.52684
1245.85264	0.52654
1243.92407	0.52616
1241.99551	0.52561
1240.06694	0.52486
1238.13838	0.52417
1236.20981	0.52350
1234.28125	0.52248
1232.35269	0.52125
1230.42412	0.52032
1228.49556	0.51972
1226.56699	0.51905
1224.63843	0.51807
1222.70986	0.51710
1220.78130	0.51636
1218.85273	0.51568
1216.92417	0.51489
1214.99561	0.51401
1213.06704	0.51311
1211.13848	0.51245
1209.20991	0.51204
1207.28135	0.51156
1205.35278	0.51087
1203.42422	0.51014
1201.49565	0.50952
1199.56709	0.50888
1197.63853	0.50814
1195.70996	0.50746
1193.78140	0.50699
1191.85283	0.50669
1189.92427	0.50654
1187.99570	0.50634
1186.06714	0.50612
1184.13857	0.50606
1182.21001	0.50613
1180.28145	0.50635
1178.35288	0.50699
1176.42432	0.50788
1174.49575	0.50852
1172.56719	0.50884
1170.63862	0.50914
1168.71006	0.50957
1166.78149	0.51011
1164.85293	0.51054
1162.92437	0.51070
1160.99580	0.51071
1159.06724	0.51057
1157.13867	0.51014
1155.21011	0.50931
1153.28154	0.50802
1151.35298	0.50640
1149.42441	0.50466
1147.49585	0.50269
1145.56729	0.50027
1143.63872	0.49766
1141.71016	0.49526
1139.78159	0.49308
1137.85303	0.49108
1135.92446	0.48933
1133.99590	0.48771
1132.06733	0.48618
1130.13877	0.48485
1128.21021	0.48355
1126.28164	0.48211
1124.35308	0.48074
1122.42451	0.47966
1120.49595	0.47883
1118.56738	0.47831
1116.63882	0.47805
1114.71025	0.47778
1112.78169	0.47763
1110.85312	0.47783
1108.92456	0.47851
1106.99600	0.47965
1105.06743	0.48079
1103.13887	0.48191
1101.21030	0.48359
1099.28174	0.48595
1097.35317	0.48862
1095.42461	0.49144
1093.49604	0.49462
1091.56748	0.49870
1089.63892	0.50392
1087.71035	0.50983
1085.78179	0.51618
1083.85322	0.52300
1081.92466	0.52964
1079.99609	0.53503
1078.06753	0.53847
1076.13896	0.53953
1074.21040	0.53785
1072.28184	0.53382
1070.35327	0.52824
1068.42471	0.52152
1066.49614	0.51449
1064.56758	0.50821
1062.63901	0.50259
1060.71045	0.49732
1058.78188	0.49265
1056.85332	0.48883
1054.92476	0.48582
1052.99619	0.48328
1051.06763	0.48093
1049.13906	0.47896
1047.21050	0.47747
1045.28193	0.47632
1043.35337	0.47532
1041.42480	0.47437
1039.49624	0.47352
1037.56768	0.47300
1035.63911	0.47288
1033.71055	0.47286
1031.78198	0.47268
1029.85342	0.47243
1027.92485	0.47243
1025.99629	0.47269
1024.06772	0.47292
1022.13916	0.47296
1020.21060	0.47319
1018.28203	0.47393
1016.35347	0.47495
1014.42490	0.47595
1012.49634	0.47697
1010.56777	0.47811
1008.63921	0.47934
1006.71064	0.48077
1004.78208	0.48256
1002.85352	0.48472
1000.92495	0.48729
998.99639	0.49045
997.06782	0.49435
995.13926	0.49849
993.21069	0.50222
991.28213	0.50523
989.35356	0.50747
987.42500	0.50899
985.49644	0.50991
983.56787	0.51061
981.63931	0.51168
979.71074	0.51338
977.78218	0.51557
975.85361	0.51798
973.92505	0.52060
971.99648	0.52374
970.06792	0.52738
968.13936	0.53136
966.21079	0.53556
964.28223	0.53993
962.35366	0.54475
960.42510	0.55013
958.49653	0.55571
956.56797	0.56137
954.63940	0.56730
952.71084	0.57365
950.78228	0.58026
948.85371	0.58647
946.92515	0.59220
944.99658	0.59808
943.06802	0.60396
941.13945	0.60954
939.21089	0.61534
937.28232	0.62140
935.35376	0.62717
933.42520	0.63288
931.49663	0.63894
929.56807	0.64496
927.63950	0.65063
925.71094	0.65634
923.78237	0.66245
921.85381	0.66914
919.92524	0.67637
917.99668	0.68330
916.06812	0.68961
914.13955	0.69703
912.21099	0.70616
910.28242	0.71521
908.35386	0.72356
906.42529	0.73174
904.49673	0.73981
902.56816	0.74834
900.63960	0.75748
898.71104	0.76706
896.78247	0.77821
894.85391	0.79030
892.92534	0.80063
890.99678	0.81018
889.06821	0.82085
887.13965	0.83146
885.21108	0.84132
883.28252	0.85142
881.35396	0.86310
879.42539	0.87643
877.49683	0.88911
875.56826	0.90016
873.63970	0.91154
871.71113	0.92359
869.78257	0.93440
867.85400	0.94442
865.92544	0.95582
863.99687	0.96832
862.06831	0.98104
860.13975	0.99414
858.21118	1.00593
856.28262	1.01602
854.35405	1.02751
852.42549	1.04057
850.49692	1.05280
848.56836	1.06365
846.63979	1.07423
844.71123	1.08494
842.78267	1.09576
840.85410	1.10836
838.92554	1.12260
836.99697	1.13710
835.06841	1.15120
833.13984	1.16174
831.21128	1.16774
829.28271	1.17508
827.35415	1.18586
825.42559	1.19468
823.49702	1.20457
821.56846	1.22098
819.63989	1.23814
817.71133	1.25181
815.78276	1.26537
813.85420	1.27921
811.92563	1.29334
809.99707	1.30898
808.06851	1.32118
806.13994	1.32786
804.21138	1.33398
802.28281	1.34705
800.35425	1.36029
798.42568	1.35646
796.49712	1.34087
794.56855	1.32914
792.63999	1.29164
790.71143	1.21312
788.78286	1.15099
786.85430	1.13103
784.92573	1.10506
782.99717	1.06489
781.06860	1.03685
779.14004	1.02158
777.21147	0.99691
775.28291	0.96693
773.35435	0.95082
771.42578	0.94251
769.49722	0.91109
767.56865	0.86388
765.64009	0.83119
763.71152	0.81010
761.78296	0.79390
759.85439	0.77247
757.92583	0.74074
755.99727	0.71971
754.06870	0.69826
752.14014	0.65583
750.21157	0.61465
748.28301	0.57046
746.35444	0.50383
744.42588	0.44992
742.49731	0.42430
740.56875	0.38445
738.64019	0.31649
736.71162	0.23160
734.78306	0.12077
732.85449	-0.00713
730.92593	-0.14362
728.99736	-0.33348
727.06880	-0.74665
725.14023	4.35084
723.21167	4.33927
721.28311	4.32770
719.35454	4.31613
717.42598	-0.72513
715.49741	-0.36608
713.56885	-0.14174
711.64028	0.00137
709.71172	0.04505
707.78315	0.03135
705.85459	0.01637
703.92603	0.02636
701.99746	0.05262
700.06890	0.07186
698.14033	0.08606
696.21177	0.09649
694.28320	0.09605
692.35464	0.08888
690.42607	0.09278
688.49751	0.09562
686.56895	0.08400
684.64038	0.07505
682.71182	0.07109
680.78325	0.06617
678.85469	0.06575
676.92612	0.08055
674.99756	0.09841
673.06899	0.08414
671.14043	0.04350
669.21187	0.02388
667.28330	0.02780
665.35474	0.02740
663.42617	0.02529
661.49761	0.03369
659.56904	0.04393
657.64048	0.05191
655.71191	0.07568
653.78335	0.09354
651.85479	0.07602
649.92622	0.04575
647.99766	0.03415
646.06909	0.04214
644.14053	0.04569
642.21196	0.03509
640.28340	0.02659
638.35483	0.02585
636.42627	0.04694
634.49771	0.09282
632.56914	0.10485
630.64058	0.06747
628.71201	0.03054
626.78345	0.02255
624.85488	0.03175
622.92632	0.03190
620.99775	0.03162
619.06919	0.05666
617.14062	0.08840
615.21206	0.09936
613.28350	0.09030
611.35493	0.07555
609.42637	0.06634
607.49780	0.05531
605.56924	0.05452
603.64067	0.06634
601.71211	0.05821
599.78354	0.03618
597.85498	0.03194
595.92642	0.04843
593.99785	0.06908
592.06929	0.08029
590.14072	0.08649
588.21216	0.09455
586.28359	0.09371
584.35503	0.07700
582.42646	0.06574
580.49790	0.06249
578.56934	0.04689
576.64077	0.03288
574.71221	0.03520
572.78364	0.05063
570.85508	0.05797
568.92651	0.04482
566.99795	0.04537
565.06938	0.06787
563.14082	0.07153
561.21226	0.05096
559.28369	0.03437
557.35513	0.03590
555.42656	0.04623
553.49800	0.05535
551.56943	0.05875
549.64087	0.03754
547.71230	0.00700
545.78374	0.00834
543.85518	0.03637
541.92661	0.05847
539.99805	0.05319
538.06948	0.03258
536.14092	0.03112
534.21235	0.04610
532.28379	0.06411
530.35522	0.08778
528.42666	0.09556
526.49810	0.08272
524.56953	0.07151
522.64097	0.06980
520.71240	0.08211
518.78384	0.09883
516.85527	0.09506
514.92671	0.07024
512.99814	0.04498
511.06958	0.03269
509.14102	0.03386
507.21245	0.03952
505.28389	0.05033
503.35532	0.06771
501.42676	0.08667
499.49819	0.09228
