3997.91411	0.06468
3995.98555	0.06523
3994.05698	0.06567
3992.12842	0.06591
3990.19985	0.06612
3988.27129	0.06657
3986.34272	0.06699
3984.41416	0.06706
3982.48560	0.06703
3980.55703	0.06738
3978.62847	0.06793
3976.69990	0.06813
3974.77134	0.06794
3972.84277	0.06778
3970.91421	0.06804
3968.98564	0.06844
3967.05708	0.06855
3965.12852	0.06847
3963.19995	0.06862
3961.27139	0.06906
3959.34282	0.06938
3957.41426	0.06939
3955.48569	0.06921
3953.55713	0.06879
3951.62856	0.06874
3949.70000	0.06949
3947.77144	0.07006
3945.84287	0.07002
3943.91431	0.07009
3941.98574	0.07021
3940.05718	0.06968
3938.12861	0.06901
3936.20005	0.06895
3934.27148	0.06920
3932.34292	0.06932
3930.41436	0.06936
3928.48579	0.06941
3926.55723	0.06935
3924.62866	0.06930
3922.70010	0.06919
3920.77153	0.06876
3918.84297	0.06832
3916.91440	0.06825
3914.98584	0.06835
3913.05728	0.06858
3911.12871	0.06864
3909.20015	0.06817
3907.27158	0.06760
3905.34302	0.06754
3903.41445	0.06802
3901.48589	0.06825
3899.55732	0.06786
3897.62876	0.06750
3895.70020	0.06743
3893.77163	0.06756
3891.84307	0.06784
3889.91450	0.06822
3887.98594	0.06852
3886.05737	0.06864
3884.12881	0.06843
3882.20024	0.06807
3880.27168	0.06807
3878.34312	0.06831
3876.41455	0.06851
3874.48599	0.06891
3872.55742	0.06966
3870.62886	0.07045
3868.70029	0.07101
3866.77173	0.07096
3864.84316	0.07045
3862.91460	0.06994
3860.98604	0.07003
3859.05747	0.07074
3857.12891	0.07122
3855.20034	0.07088
3853.27178	0.07065
3851.34321	0.07232
3849.41465	0.07373
3847.48608	0.07403
3845.55752	0.07421
3843.62896	0.07477
3841.70039	0.07559
3839.77183	0.07589
3837.84326	0.07592
3835.91470	0.07676
3833.98613	0.07777
3832.05757	0.07825
3830.12900	0.07862
3828.20044	0.07915
3826.27187	0.08002
3824.34331	0.08088
3822.41475	0.08148
3820.48618	0.08270
3818.55762	0.08393
3816.62905	0.08437
3814.70049	0.08531
3812.77192	0.08665
3810.84336	0.08741
3808.91479	0.08767
3806.98623	0.08821
3805.05767	0.08965
3803.12910	0.09124
3801.20054	0.09267
3799.27197	0.09396
3797.34341	0.09499
3795.41484	0.09628
3793.48628	0.09733
3791.55771	0.09806
3789.62915	0.09902
3787.70059	0.10003
3785.77202	0.10119
3783.84346	0.10289
3781.91489	0.10460
3779.98633	0.10588
3778.05776	0.10748
3776.12920	0.10953
3774.20063	0.11135
3772.27207	0.11286
3770.34351	0.11430
3768.41494	0.11623
3766.48638	0.11873
3764.55781	0.12094
3762.62925	0.12223
3760.70068	0.12358
3758.77212	0.12597
3756.84355	0.12819
3754.91499	0.12940
3752.98643	0.13084
3751.05786	0.13361
3749.12930	0.13772
3747.20073	0.14075
3745.27217	0.14258
3743.34360	0.14589
3741.41504	0.14992
3739.48647	0.15268
3737.55791	0.15548
3735.62935	0.15930
3733.70078	0.16390
3731.77222	0.16880
3729.84365	0.17334
3727.91509	0.17722
3725.98652	0.18191
3724.05796	0.18801
3722.12939	0.19497
3720.20083	0.20302
3718.27227	0.21146
3716.34370	0.21966
3714.41514	0.22750
3712.48657	0.23594
3710.55801	0.24714
3708.62944	0.26029
3706.70088	0.27229
3704.77231	0.28351
3702.84375	0.29650
3700.91519	0.31388
3698.98662	0.33284
3697.05806	0.35003
3695.12949	0.36771
3693.20093	0.38642
3691.27236	0.40687
3689.34380	0.43374
3687.41523	0.46767
3685.48667	0.49875
3683.55811	0.52569
3681.62954	0.55334
3679.70098	0.58369
3677.77241	0.61566
3675.84385	0.65356
3673.91528	0.70505
3671.98672	0.74831
3670.05815	0.78671
3668.12959	0.83869
3666.20103	0.88649
3664.27246	0.92651
3662.34390	0.96951
3660.41533	1.01628
3658.48677	1.06242
3656.55820	1.11129
3654.62964	1.16583
3652.70107	1.21170
3650.77251	1.25057
3648.84395	1.30280
3646.91538	1.36861
3644.98682	1.41972
3643.05825	1.45965
3641.12969	1.49974
3639.20112	1.54303
3637.27256	1.58622
3635.34399	1.62856
3633.41543	1.67113
3631.48687	1.71050
3629.55830	1.74956
3627.62974	1.80097
3625.70117	1.85101
3623.77261	1.88602
3621.84404	1.91900
3619.91548	1.95619
3617.98691	2.00128
3616.05835	2.04575
3614.12979	2.08323
3612.20122	2.12142
3610.27266	2.15959
3608.34409	2.19938
3606.41553	2.24307
3604.48696	2.28310
3602.55840	2.31697
3600.62983	2.35266
3598.70127	2.39340
3596.77271	2.43538
3594.84414	2.47719
3592.91558	2.51835
3590.98701	2.55621
3589.05845	2.59120
3587.12988	2.63386
3585.20132	2.68388
3583.27275	2.72715
3581.34419	2.76504
3579.41562	2.80525
3577.48706	2.84910
3575.55850	2.89321
3573.62993	2.93672
3571.70137	2.97786
3569.77280	3.01692
3567.84424	3.05959
3565.91567	3.11312
3563.98711	3.16443
3562.05854	3.20443
3560.12998	3.24462
3558.20142	3.29035
3556.27285	3.33844
3554.34429	3.38278
3552.41572	3.42488
3550.48716	3.46847
3548.55859	3.51208
3546.63003	3.55652
3544.70146	3.60731
3542.77290	3.66084
3540.84434	3.70915
3538.91577	3.75359
3536.98721	3.79777
3535.05864	3.84511
3533.13008	3.89408
3531.20151	3.94179
3529.27295	3.98882
3527.34438	4.03793
3525.41582	4.08591
3523.48726	4.13208
3521.55869	4.18541
3519.63013	4.24179
3517.70156	4.29130
3515.77300	4.33366
3513.84443	4.37450
3511.91587	4.41976
3509.98730	4.47136
3508.05874	4.52737
3506.13018	4.58103
3504.20161	4.62552
3502.27305	4.66677
3500.34448	4.71689
3498.41592	4.77216
3496.48735	4.82155
3494.55879	4.86458
3492.63022	4.90839
3490.70166	4.95691
3488.77310	5.01057
3486.84453	5.06734
3484.91597	5.12129
3482.98740	5.16546
3481.05884	5.19882
3479.13027	5.23487
3477.20171	5.29026
3475.27314	5.35767
3473.34458	5.41718
3471.41602	5.46061
3469.48745	5.49673
3467.55889	5.54212
3465.63032	5.59585
3463.70176	5.65192
3461.77319	5.71142
3459.84463	5.76328
3457.91606	5.79928
3455.98750	5.83638
3454.05894	5.88801
3452.13037	5.94778
3450.20181	6.00785
3448.27324	6.06746
3446.34468	6.12356
3444.41611	6.15695
3442.48755	6.17996
3440.55898	6.22687
3438.63042	6.29294
3436.70186	6.34698
3434.77329	6.38522
3432.84473	6.43216
3430.91616	6.49212
3428.98760	6.54910
3427.05903	6.59850
3425.13047	6.65640
3423.20190	6.71508
3421.27334	6.76093
3419.34478	6.80305
3417.41621	6.84680
3415.48765	6.89516
3413.55908	6.95996
3411.63052	7.03195
3409.70195	7.08270
3407.77339	7.14191
3405.84482	7.21472
3403.91626	7.26247
3401.98770	7.28928
3400.05913	7.31812
3398.13057	7.32893
3396.20200	7.30876
3394.27344	7.31834
3392.34487	7.36364
3390.41631	7.41700
3388.48774	7.49714
3386.55918	7.59044
3384.63062	7.64127
3382.70205	7.67483
3380.77349	7.73496
3378.84492	7.78522
3376.91636	7.78307
3374.98779	7.73752
3373.05923	7.71290
3371.13066	7.73853
3369.20210	7.82550
3367.27354	7.93747
3365.34497	8.01227
3363.41641	8.02170
3361.48784	7.94257
3359.55928	7.86430
3357.63071	7.88370
3355.70215	7.98308
3353.77358	8.07654
3351.84502	8.08627
3349.91646	8.02810
3347.98789	8.01517
3346.05933	8.04913
3344.13076	8.08749
3342.20220	8.15325
3340.27363	8.17611
3338.34507	8.13417
3336.41650	8.10596
3334.48794	8.12511
3332.55937	8.15819
3330.63081	8.16361
3328.70225	8.14664
3326.77368	8.19457
3324.84512	8.27106
3322.91655	8.23872
3320.98799	8.23158
3319.05942	8.32705
3317.13086	8.41848
3315.20229	8.46719
3313.27373	8.46378
3311.34517	8.37216
3309.41660	8.24681
3307.48804	8.19502
3305.55947	8.23958
3303.63091	8.28975
3301.70234	8.24219
3299.77378	8.15559
3297.84521	8.13114
3295.91665	8.20362
3293.98809	8.31580
3292.05952	8.36478
3290.13096	8.32228
3288.20239	8.26796
3286.27383	8.28654
3284.34526	8.34338
3282.41670	8.38389
3280.48813	8.39545
3278.55957	8.42385
3276.63101	8.49659
3274.70244	8.52856
3272.77388	8.48402
3270.84531	8.47548
3268.91675	8.53991
3266.98818	8.60211
3265.05962	8.62236
3263.13105	8.56705
3261.20249	8.49661
3259.27393	8.46370
3257.34536	8.45043
3255.41680	8.42292
3253.48823	8.36576
3251.55967	8.36699
3249.63110	8.44003
3247.70254	8.51413
3245.77397	8.51980
3243.84541	8.47943
3241.91685	8.49352
3239.98828	8.48479
3238.05972	8.39055
3236.13115	8.33763
3234.20259	8.32142
3232.27402	8.26186
3230.34546	8.23506
3228.41689	8.34340
3226.48833	8.54906
3224.55977	8.57855
3222.63120	8.34568
3220.70264	8.18543
3218.77407	8.19319
3216.84551	8.19500
3214.91694	8.13055
3212.98838	8.06183
3211.05981	8.03143
3209.13125	8.04331
3207.20269	8.01928
3205.27412	7.96603
3203.34556	7.96168
3201.41699	7.98200
3199.48843	7.95855
3197.55986	7.85938
3195.63130	7.76038
3193.70273	7.70623
3191.77417	7.62757
3189.84561	7.54985
3187.91704	7.52602
3185.98848	7.51921
3184.05991	7.49788
3182.13135	7.46498
3180.20278	7.43646
3178.27422	7.40861
3176.34565	7.36958
3174.41709	7.30931
3172.48853	7.22517
3170.55996	7.15520
3168.63140	7.13376
3166.70283	7.12296
3164.77427	7.04838
3162.84570	6.92336
3160.91714	6.82420
3158.98857	6.76659
3157.06001	6.71678
3155.13145	6.66187
3153.20288	6.59426
3151.27432	6.50342
3149.34575	6.40092
3147.41719	6.30308
3145.48862	6.22166
3143.56006	6.16573
3141.63149	6.11701
3139.70293	6.04936
3137.77437	5.97372
3135.84580	5.90147
3133.91724	5.83079
3131.98867	5.76309
3130.06011	5.69643
3128.13154	5.62195
3126.20298	5.53713
3124.27441	5.45905
3122.34585	5.39068
3120.41729	5.31793
3118.48872	5.24138
3116.56016	5.17347
3114.63159	5.11237
3112.70303	5.04506
3110.77446	4.97380
3108.84590	4.90261
3106.91733	4.82657
3104.98877	4.75081
3103.06021	4.68572
3101.13164	4.62368
3099.20308	4.55504
3097.27451	4.48568
3095.34595	4.41726
3093.41738	4.34944
3091.48882	4.28729
3089.56025	4.22715
3087.63169	4.16225
3085.70312	4.09612
3083.77456	4.03161
3081.84600	3.96676
3079.91743	3.90317
3077.98887	3.84292
3076.06030	3.78387
3074.13174	3.72327
3072.20317	3.66302
3070.27461	3.60558
3068.34604	3.54886
3066.41748	3.49222
3064.48892	3.43783
3062.56035	3.38409
3060.63179	3.32888
3058.70322	3.27359
3056.77466	3.21851
3054.84609	3.16341
3052.91753	3.10970
3050.98896	3.05747
3049.06040	3.00616
3047.13184	2.95590
3045.20327	2.90608
3043.27471	2.85666
3041.34614	2.80818
3039.41758	2.75999
3037.48901	2.71150
3035.56045	2.66401
3033.63188	2.61868
3031.70332	2.57403
3029.77476	2.52896
3027.84619	2.48436
3025.91763	2.44062
3023.98906	2.39743
3022.06050	2.35511
3020.13193	2.31422
3018.20337	2.27427
3016.27480	2.23430
3014.34624	2.19428
3012.41768	2.15483
3010.48911	2.11619
3008.56055	2.07849
3006.63198	2.04200
3004.70342	2.00642
3002.77485	1.97119
3000.84629	1.93622
2998.91772	1.90171
2996.98916	1.86804
2995.06060	1.83539
2993.13203	1.80354
2991.20347	1.77241
2989.27490	1.74179
2987.34634	1.71156
2985.41777	1.68202
2983.48921	1.65325
2981.56064	1.62510
2979.63208	1.59727
2977.70352	1.56959
2975.77495	1.54239
2973.84639	1.51572
2971.91782	1.48965
2969.98926	1.46438
2968.06069	1.43991
2966.13213	1.41609
2964.20356	1.39220
2962.27500	1.36766
2960.34644	1.34327
2958.41787	1.31968
2956.48931	1.29644
2954.56074	1.27324
2952.63218	1.25001
2950.70361	1.22695
2948.77505	1.20450
2946.84648	1.18282
2944.91792	1.16188
2942.98936	1.14124
2941.06079	1.12080
2939.13223	1.10098
2937.20366	1.08186
2935.27510	1.06312
2933.34653	1.04412
2931.41797	1.02445
2929.48940	1.00437
2927.56084	0.98495
2925.63228	0.96690
2923.70371	0.94961
2921.77515	0.93245
2919.84658	0.91538
2917.91802	0.89817
2915.98945	0.88084
2914.06089	0.86465
2912.13232	0.84993
2910.20376	0.83522
2908.27520	0.82014
2906.34663	0.80526
2904.41807	0.79066
2902.48950	0.77653
2900.56094	0.76304
2898.63237	0.74997
2896.70381	0.73697
2894.77524	0.72400
2892.84668	0.71148
2890.91812	0.69975
2888.98955	0.68861
2887.06099	0.67765
2885.13242	0.66696
2883.20386	0.65669
2881.27529	0.64648
2879.34673	0.63628
2877.41816	0.62651
2875.48960	0.61694
2873.56104	0.60704
2871.63247	0.59673
2869.70391	0.58600
2867.77534	0.57506
2865.84678	0.56424
2863.91821	0.55347
2861.98965	0.54262
2860.06108	0.53232
2858.13252	0.52297
2856.20396	0.51405
2854.27539	0.50542
2852.34683	0.49720
2850.41826	0.48891
2848.48970	0.48040
2846.56113	0.47222
2844.63257	0.46471
2842.70400	0.45785
2840.77544	0.45136
2838.84687	0.44490
2836.91831	0.43856
2834.98975	0.43252
2833.06118	0.42673
2831.13262	0.42096
2829.20405	0.41502
2827.27549	0.40893
2825.34692	0.40285
2823.41836	0.39683
2821.48979	0.39096
2819.56123	0.38540
2817.63267	0.37994
2815.70410	0.37441
2813.77554	0.36891
2811.84697	0.36344
2809.91841	0.35808
2807.98984	0.35294
2806.06128	0.34795
2804.13271	0.34312
2802.20415	0.33832
2800.27559	0.33328
2798.34702	0.32819
2796.41846	0.32347
2794.48989	0.31904
2792.56133	0.31480
2790.63276	0.31064
2788.70420	0.30638
2786.77563	0.30202
2784.84707	0.29765
2782.91851	0.29352
2780.98994	0.28960
2779.06138	0.28565
2777.13281	0.28175
2775.20425	0.27801
2773.27568	0.27446
2771.34712	0.27110
2769.41855	0.26777
2767.48999	0.26434
2765.56143	0.26092
2763.63286	0.25759
2761.70430	0.25425
2759.77573	0.25096
2757.84717	0.24789
2755.91860	0.24501
2753.99004	0.24207
2752.06147	0.23914
2750.13291	0.23637
2748.20435	0.23352
2746.27578	0.23051
2744.34722	0.22775
2742.41865	0.22543
2740.49009	0.22321
2738.56152	0.22080
2736.63296	0.21825
2734.70439	0.21570
2732.77583	0.21315
2730.84727	0.21075
2728.91870	0.20863
2726.99014	0.20662
2725.06157	0.20454
2723.13301	0.20256
2721.20444	0.20075
2719.27588	0.19882
2717.34731	0.19673
2715.41875	0.19474
2713.49019	0.19293
2711.56162	0.19125
2709.63306	0.18957
2707.70449	0.18791
2705.77593	0.18635
2703.84736	0.18491
2701.91880	0.18348
2699.99023	0.18199
2698.06167	0.18046
2696.13311	0.17890
2694.20454	0.17741
2692.27598	0.17613
2690.34741	0.17491
2688.41885	0.17365
2686.49028	0.17244
2684.56172	0.17124
2682.63315	0.16993
2680.70459	0.16866
2678.77603	0.16768
2676.84746	0.16684
2674.91890	0.16589
2672.99033	0.16487
2671.06177	0.16385
2669.13320	0.16282
2667.20464	0.16184
2665.27607	0.16097
2663.34751	0.16013
2661.41895	0.15923
2659.49038	0.15828
2657.56182	0.15754
2655.63325	0.15693
2653.70469	0.15627
2651.77612	0.15564
2649.84756	0.15502
2647.91899	0.15436
2645.99043	0.15372
2644.06187	0.15318
2642.13330	0.15271
2640.20474	0.15218
2638.27617	0.15158
2636.34761	0.15105
2634.41904	0.15076
2632.49048	0.15069
2630.56191	0.15044
2628.63335	0.14996
2626.70479	0.14950
2624.77622	0.14902
2622.84766	0.14862
2620.91909	0.14842
2618.99053	0.14830
2617.06196	0.14816
2615.13340	0.14797
2613.20483	0.14768
2611.27627	0.14744
2609.34771	0.14732
2607.41914	0.14720
2605.49058	0.14712
2603.56201	0.14721
2601.63345	0.14728
2599.70488	0.14726
2597.77632	0.14744
2595.84775	0.14776
2593.91919	0.14788
2591.99062	0.14774
2590.06206	0.14760
2588.13350	0.14761
2586.20493	0.14778
2584.27637	0.14807
2582.34780	0.14828
2580.41924	0.14844
2578.49067	0.14876
2576.56211	0.14925
2574.63354	0.14973
2572.70498	0.15012
2570.77642	0.15047
2568.84785	0.15087
2566.91929	0.15138
2564.99072	0.15184
2563.06216	0.15210
2561.13359	0.15238
2559.20503	0.15292
2557.27646	0.15345
2555.34790	0.15391
2553.41934	0.15459
2551.49077	0.15527
2549.56221	0.15570
2547.63364	0.15612
2545.70508	0.15671
2543.77651	0.15734
2541.84795	0.15790
2539.91938	0.15846
2537.99082	0.15909
2536.06226	0.15971
2534.13369	0.16033
2532.20513	0.16108
2530.27656	0.16180
2528.34800	0.16237
2526.41943	0.16299
2524.49087	0.16375
2522.56230	0.16453
2520.63374	0.16538
2518.70518	0.16633
2516.77661	0.16727
2514.84805	0.16813
2512.91948	0.16885
2510.99092	0.16953
2509.06235	0.17026
2507.13379	0.17097
2505.20522	0.17168
2503.27666	0.17253
2501.34810	0.17351
2499.41953	0.17448
2497.49097	0.17531
2495.56240	0.17614
2493.63384	0.17704
2491.70527	0.17787
2489.77671	0.17853
2487.84814	0.17921
2485.91958	0.18009
2483.99102	0.18104
2482.06245	0.18193
2480.13389	0.18292
2478.20532	0.18399
2476.27676	0.18493
2474.34819	0.18581
2472.41963	0.18674
2470.49106	0.18762
2468.56250	0.18849
2466.63394	0.18940
2464.70537	0.19034
2462.77681	0.19121
2460.84824	0.19211
2458.91968	0.19319
2456.99111	0.19431
2455.06255	0.19532
2453.13398	0.19626
2451.20542	0.19715
2449.27686	0.19816
2447.34829	0.19919
2445.41973	0.20005
2443.49116	0.20085
2441.56260	0.20181
2439.63403	0.20289
2437.70547	0.20396
2435.77690	0.20499
2433.84834	0.20601
2431.91978	0.20705
2429.99121	0.20810
2428.06265	0.20913
2426.13408	0.21018
2424.20552	0.21133
2422.27695	0.21239
2420.34839	0.21334
2418.41982	0.21440
2416.49126	0.21561
2414.56270	0.21682
2412.63413	0.21793
2410.70557	0.21908
2408.77700	0.22035
2406.84844	0.22148
2404.91987	0.22249
2402.99131	0.22369
2401.06274	0.22510
2399.13418	0.22642
2397.20562	0.22749
2395.27705	0.22865
2393.34849	0.23000
2391.41992	0.23128
2389.49136	0.23245
2387.56279	0.23353
2385.63423	0.23441
2383.70566	0.23493
2381.77710	0.23491
2379.84854	0.23450
2377.91997	0.23411
2375.99141	0.23364
2374.06284	0.23243
2372.13428	0.23044
2370.20571	0.22844
2368.27715	0.22660
2366.34858	0.22495
2364.42002	0.22410
2362.49146	0.22373
2360.56289	0.22348
2358.63433	0.22479
2356.70576	0.22865
2354.77720	0.23336
2352.84863	0.23852
2350.92007	0.24419
2348.99150	0.24795
2347.06294	0.24867
2345.13437	0.24730
2343.20581	0.24602
2341.27725	0.24674
2339.34868	0.24893
2337.42012	0.25147
2335.49155	0.25404
2333.56299	0.25640
2331.63442	0.25855
2329.70586	0.26078
2327.77729	0.26330
2325.84873	0.26587
2323.92017	0.26820
2321.99160	0.27070
2320.06304	0.27376
2318.13447	0.27712
2316.20591	0.28031
2314.27734	0.28318
2312.34878	0.28577
2310.42021	0.28818
2308.49165	0.29047
2306.56309	0.29295
2304.63452	0.29566
2302.70596	0.29823
2300.77739	0.30063
2298.84883	0.30290
2296.92026	0.30508
2294.99170	0.30734
2293.06313	0.30968
2291.13457	0.31198
2289.20601	0.31424
2287.27744	0.31651
2285.34888	0.31876
2283.42031	0.32092
2281.49175	0.32286
2279.56318	0.32467
2277.63462	0.32656
2275.70605	0.32864
2273.77749	0.33075
2271.84893	0.33274
2269.92036	0.33471
2267.99180	0.33680
2266.06323	0.33904
2264.13467	0.34125
2262.20610	0.34330
2260.27754	0.34539
2258.34897	0.34765
2256.42041	0.34990
2254.49185	0.35203
2252.56328	0.35418
2250.63472	0.35651
2248.70615	0.35900
2246.77759	0.36135
2244.84902	0.36345
2242.92046	0.36562
2240.99189	0.36793
2239.06333	0.37015
2237.13477	0.37231
2235.20620	0.37443
2233.27764	0.37651
2231.34907	0.37875
2229.42051	0.38107
2227.49194	0.38333
2225.56338	0.38558
2223.63481	0.38786
2221.70625	0.39014
2219.77769	0.39224
2217.84912	0.39420
2215.92056	0.39634
2213.99199	0.39862
2212.06343	0.40092
2210.13486	0.40318
2208.20630	0.40531
2206.27773	0.40730
2204.34917	0.40927
2202.42061	0.41132
2200.49204	0.41343
2198.56348	0.41542
2196.63491	0.41728
2194.70635	0.41915
2192.77778	0.42102
2190.84922	0.42299
2188.92065	0.42502
2186.99209	0.42691
2185.06353	0.42866
2183.13496	0.43031
2181.20640	0.43193
2179.27783	0.43367
2177.34927	0.43545
2175.42070	0.43694
2173.49214	0.43824
2171.56357	0.43967
2169.63501	0.44117
2167.70645	0.44251
2165.77788	0.44371
2163.84932	0.44487
2161.92075	0.44604
2159.99219	0.44720
2158.06362	0.44823
2156.13506	0.44912
2154.20649	0.44989
2152.27793	0.45060
2150.34937	0.45135
2148.42080	0.45216
2146.49224	0.45287
2144.56367	0.45331
2142.63511	0.45364
2140.70654	0.45396
2138.77798	0.45415
2136.84941	0.45419
2134.92085	0.45423
2132.99229	0.45425
2131.06372	0.45416
2129.13516	0.45398
2127.20659	0.45376
2125.27803	0.45349
2123.34946	0.45302
2121.42090	0.45240
2119.49233	0.45181
2117.56377	0.45120
2115.63521	0.45045
2113.70664	0.44962
2111.77808	0.44877
2109.84951	0.44788
2107.92095	0.44692
2105.99238	0.44584
2104.06382	0.44459
2102.13525	0.44316
2100.20669	0.44167
2098.27812	0.44023
2096.34956	0.43875
2094.42100	0.43717
2092.49243	0.43552
2090.56387	0.43381
2088.63530	0.43204
2086.70674	0.43018
2084.77817	0.42824
2082.84961	0.42637
2080.92104	0.42448
2078.99248	0.42258
2077.06392	0.42074
2075.13535	0.41872
2073.20679	0.41643
2071.27822	0.41401
2069.34966	0.41166
2067.42109	0.40933
2065.49253	0.40690
2063.56396	0.40440
2061.63540	0.40199
2059.70684	0.39964
2057.77827	0.39721
2055.84971	0.39474
2053.92114	0.39221
2051.99258	0.38957
2050.06401	0.38691
2048.13545	0.38428
2046.20688	0.38156
2044.27832	0.37881
2042.34976	0.37615
2040.42119	0.37353
2038.49263	0.37084
2036.56406	0.36811
2034.63550	0.36541
2032.70693	0.36266
2030.77837	0.35985
2028.84980	0.35703
2026.92124	0.35426
2024.99268	0.35154
2023.06411	0.34880
2021.13555	0.34605
2019.20698	0.34336
2017.27842	0.34063
2015.34985	0.33777
2013.42129	0.33492
2011.49272	0.33215
2009.56416	0.32943
2007.63560	0.32667
2005.70703	0.32395
2003.77847	0.32143
2001.84990	0.31896
1999.92134	0.31633
1997.99277	0.31364
1996.06421	0.31108
1994.13564	0.30862
1992.20708	0.30614
1990.27852	0.30362
1988.34995	0.30117
1986.42139	0.29876
1984.49282	0.29635
1982.56426	0.29402
1980.63569	0.29176
1978.70713	0.28950
1976.77856	0.28725
1974.85000	0.28504
1972.92144	0.28279
1970.99287	0.28063
1969.06431	0.27861
1967.13574	0.27660
1965.20718	0.27455
1963.27861	0.27257
1961.35005	0.27066
1959.42148	0.26882
1957.49292	0.26709
1955.56436	0.26535
1953.63579	0.26352
1951.70723	0.26175
1949.77866	0.26010
1947.85010	0.25848
1945.92153	0.25694
1943.99297	0.25550
1942.06440	0.25400
1940.13584	0.25243
1938.20728	0.25100
1936.27871	0.24975
1934.35015	0.24852
1932.42158	0.24731
1930.49302	0.24612
1928.56445	0.24491
1926.63589	0.24378
1924.70732	0.24294
1922.77876	0.24222
1920.85020	0.24129
1918.92163	0.24032
1916.99307	0.23945
1915.06450	0.23860
1913.13594	0.23772
1911.20737	0.23693
1909.27881	0.23624
1907.35024	0.23562
1905.42168	0.23497
1903.49312	0.23432
1901.56455	0.23375
1899.63599	0.23329
1897.70742	0.23295
1895.77886	0.23254
1893.85029	0.23205
1891.92173	0.23160
1889.99316	0.23134
1888.06460	0.23118
1886.13604	0.23102
1884.20747	0.23080
1882.27891	0.23059
1880.35034	0.23046
1878.42178	0.23035
1876.49321	0.23038
1874.56465	0.23052
1872.63608	0.23062
1870.70752	0.23064
1868.77896	0.23089
1866.85039	0.23122
1864.92183	0.23134
1862.99326	0.23148
1861.06470	0.23174
1859.13613	0.23208
1857.20757	0.23243
1855.27900	0.23292
1853.35044	0.23348
1851.42187	0.23406
1849.49331	0.23463
1847.56475	0.23518
1845.63618	0.23575
1843.70762	0.23653
1841.77905	0.23744
1839.85049	0.23818
1837.92192	0.23907
1835.99336	0.24010
1834.06479	0.24105
1832.13623	0.24185
1830.20767	0.24305
1828.27910	0.24462
1826.35054	0.24590
1824.42197	0.24721
1822.49341	0.24850
1820.56484	0.24969
1818.63628	0.25097
1816.70771	0.25262
1814.77915	0.25432
1812.85059	0.25596
1810.92202	0.25784
1808.99346	0.25996
1807.06489	0.26200
1805.13633	0.26392
1803.20776	0.26603
1801.27920	0.26838
1799.35063	0.27113
1797.42207	0.27382
1795.49351	0.27630
1793.56494	0.27889
1791.63638	0.28231
1789.70781	0.28599
1787.77925	0.28893
1785.85068	0.29221
1783.92212	0.29596
1781.99355	0.29981
1780.06499	0.30377
1778.13643	0.30803
1776.20786	0.31218
1774.27930	0.31647
1772.35073	0.32208
1770.42217	0.32837
1768.49360	0.33382
1766.56504	0.33897
1764.63647	0.34425
1762.70791	0.35008
1760.77935	0.35750
1758.85078	0.36455
1756.92222	0.37167
1754.99365	0.37951
1753.06509	0.38645
1751.13652	0.39443
1749.20796	0.40471
1747.27939	0.41525
1745.35083	0.42469
1743.42227	0.43462
1741.49370	0.44539
1739.56514	0.45796
1737.63657	0.47058
1735.70801	0.48147
1733.77944	0.49752
1731.85088	0.51699
1729.92231	0.53270
1727.99375	0.54867
1726.06519	0.56577
1724.13662	0.58422
1722.20806	0.60400
1720.27949	0.62219
1718.35093	0.64333
1716.42236	0.67468
1714.49380	0.70523
1712.56523	0.73038
1710.63667	0.75463
1708.70811	0.78049
1706.77954	0.80965
1704.85098	0.84456
1702.92241	0.87593
1700.99385	0.90672
1699.06528	0.95242
1697.13672	0.99531
1695.20815	1.03994
1693.27959	1.08326
1691.35103	1.11781
1689.42246	1.15707
1687.49390	1.19829
1685.56533	1.23827
1683.63677	1.30077
1681.70820	1.36653
1679.77964	1.40883
1677.85107	1.44867
1675.92251	1.49432
1673.99395	1.55081
1672.06538	1.60116
1670.13682	1.65030
1668.20825	1.71425
1666.27969	1.76677
1664.35112	1.81143
1662.42256	1.86734
1660.49399	1.92916
1658.56543	1.97641
1656.63687	2.01440
1654.70830	2.04943
1652.77974	2.10709
1650.85117	2.16409
1648.92261	2.18464
1646.99404	2.20845
1645.06548	2.23422
1643.13691	2.25179
1641.20835	2.26260
1639.27979	2.27208
1637.35122	2.27811
1635.42266	2.27916
1633.49409	2.27218
1631.56553	2.25787
1629.63696	2.24012
1627.70840	2.21159
1625.77983	2.17863
1623.85127	2.13831
1621.92271	2.08898
1619.99414	2.04430
1618.06558	1.99997
1616.13701	1.93714
1614.20845	1.87358
1612.27988	1.82495
1610.35132	1.77440
1608.42275	1.72054
1606.49419	1.66812
1604.56562	1.61927
1602.63706	1.57143
1600.70850	1.52481
1598.77993	1.48181
1596.85137	1.44100
1594.92280	1.40113
1592.99424	1.36283
1591.06567	1.32808
1589.13711	1.29522
1587.20854	1.26394
1585.27998	1.23495
1583.35142	1.20819
1581.42285	1.18376
1579.49429	1.16266
1577.56572	1.14356
1575.63716	1.12075
1573.70859	1.10091
1571.78003	1.08789
1569.85146	1.07426
1567.92290	1.05932
1565.99434	1.04824
1564.06577	1.03985
1562.13721	1.03346
1560.20864	1.02910
1558.28008	1.02403
1556.35151	1.01993
1554.42295	1.01725
1552.49438	1.01470
1550.56582	1.01130
1548.63726	1.00579
1546.70869	0.99855
1544.78013	0.98945
1542.85156	0.97797
1540.92300	0.96189
1538.99443	0.93881
1537.06587	0.92283
1535.13730	0.91182
1533.20874	0.89664
1531.28018	0.88014
1529.35161	0.86799
1527.42305	0.85636
1525.49448	0.84409
1523.56592	0.83344
1521.63735	0.82348
1519.70879	0.81390
1517.78022	0.80576
1515.85166	0.79631
1513.92310	0.78654
1511.99453	0.77796
1510.06597	0.76993
1508.13740	0.76195
1506.20884	0.75017
1504.28027	0.74045
1502.35171	0.73522
1500.42314	0.73039
1498.49458	0.72483
1496.56602	0.71856
1494.63745	0.71287
1492.70889	0.70836
1490.78032	0.70400
1488.85176	0.69905
1486.92319	0.69480
1484.99463	0.69157
1483.06606	0.68900
1481.13750	0.68689
1479.20894	0.68518
1477.28037	0.68394
1475.35181	0.68314
1473.42324	0.68275
1471.49468	0.68166
1469.56611	0.67956
1467.63755	0.67746
1465.70898	0.67556
1463.78042	0.67381
1461.85186	0.67247
1459.92329	0.67153
1457.99473	0.67062
1456.06616	0.66918
1454.13760	0.66696
1452.20903	0.66435
1450.28047	0.66150
1448.35190	0.65885
1446.42334	0.65641
1444.49478	0.65381
1442.56621	0.65103
1440.63765	0.64841
1438.70908	0.64599
1436.78052	0.64298
1434.85195	0.63958
1432.92339	0.63697
1430.99482	0.63513
1429.06626	0.63382
1427.13770	0.63286
1425.20913	0.63223
1423.28057	0.63192
1421.35200	0.63163
1419.42344	0.63112
1417.49487	0.63042
1415.56631	0.62954
1413.63774	0.62873
1411.70918	0.62819
1409.78062	0.62808
1407.85205	0.62838
1405.92349	0.62898
1403.99492	0.62948
1402.06636	0.62925
1400.13779	0.62835
1398.20923	0.62676
1396.28066	0.62440
1394.35210	0.62148
1392.42354	0.61860
1390.49497	0.61595
1388.56641	0.61291
1386.63784	0.60910
1384.70928	0.60533
1382.78071	0.60195
1380.85215	0.59864
1378.92358	0.59569
1376.99502	0.59345
1375.06646	0.59188
1373.13789	0.59070
1371.20933	0.58976
1369.28076	0.58889
1367.35220	0.58781
1365.42363	0.58651
1363.49507	0.58517
1361.56650	0.58387
1359.63794	0.58252
1357.70937	0.58122
1355.78081	0.58001
1353.85225	0.57893
1351.92368	0.57801
1349.99512	0.57718
1348.06655	0.57640
1346.13799	0.57562
1344.20942	0.57479
1342.28086	0.57401
1340.35229	0.57332
1338.42373	0.57258
1336.49517	0.57192
1334.56660	0.57145
1332.63804	0.57109
1330.70947	0.57080
1328.78091	0.57059
1326.85234	0.57060
1324.92378	0.57074
1322.99521	0.57095
1321.06665	0.57118
1319.13809	0.57130
1317.20952	0.57116
1315.28096	0.57084
1313.35239	0.57032
1311.42383	0.56961
1309.49526	0.56902
1307.56670	0.56856
1305.63813	0.56797
1303.70957	0.56729
1301.78101	0.56668
1299.85244	0.56597
1297.92388	0.56503
1295.99531	0.56395
1294.06675	0.56295
1292.13818	0.56204
1290.20962	0.56101
1288.28105	0.55997
1286.35249	0.55901
1284.42393	0.55806
1282.49536	0.55694
1280.56680	0.55577
1278.63823	0.55479
1276.70967	0.55382
1274.78110	0.55277
1272.85254	0.55200
1270.92397	0.55150
1268.99541	0.55099
1267.06685	0.55045
1265.13828	0.54987
1263.20972	0.54914
1261.28115	0.54833
1259.35259	0.54772
1257.42402	0.54731
1255.49546	0.54694
1253.56689	0.54665
1251.63833	0.54646
1249.70977	0.54627
1247.78120	0.54614
1245.85264	0.54599
1243.92407	0.54556
1241.99551	0.54475
1240.06694	0.54365
1238.13838	0.54242
1236.20981	0.54099
1234.28125	0.53935
1232.35269	0.53773
1230.42412	0.53616
1228.49556	0.53452
1226.56699	0.53291
1224.63843	0.53151
1222.70986	0.53023
1220.78130	0.52894
1218.85273	0.52773
1216.92417	0.52666
1214.99561	0.52574
1213.06704	0.52505
1211.13848	0.52457
1209.20991	0.52399
1207.28135	0.52320
1205.35278	0.52235
1203.42422	0.52158
1201.49565	0.52088
1199.56709	0.52011
1197.63853	0.51919
1195.70996	0.51837
1193.78140	0.51780
1191.85283	0.51725
1189.92427	0.51674
1187.99570	0.51656
1186.06714	0.51677
1184.13857	0.51707
1182.21001	0.51721
1180.28145	0.51747
1178.35288	0.51828
1176.42432	0.51957
1174.49575	0.52087
1172.56719	0.52174
1170.63862	0.52208
1168.71006	0.52223
1166.78149	0.52248
1164.85293	0.52274
1162.92437	0.52289
1160.99580	0.52299
1159.06724	0.52297
1157.13867	0.52268
1155.21011	0.52198
1153.28154	0.52085
1151.35298	0.51928
1149.42441	0.51730
1147.49585	0.51505
1145.56729	0.51255
1143.63872	0.50992
1141.71016	0.50748
1139.78159	0.50543
1137.85303	0.50375
1135.92446	0.50239
1133.99590	0.50137
1132.06733	0.50056
1130.13877	0.49967
1128.21021	0.49861
1126.28164	0.49752
1124.35308	0.49657
1122.42451	0.49607
1120.49595	0.49609
1118.56738	0.49616
1116.63882	0.49600
1114.71025	0.49594
1112.78169	0.49634
1110.85312	0.49701
1108.92456	0.49752
1106.99600	0.49816
1105.06743	0.49929
1103.13887	0.50050
1101.21030	0.50173
1099.28174	0.50352
1097.35317	0.50606
1095.42461	0.50916
1093.49604	0.51275
1091.56748	0.51704
1089.63892	0.52226
1087.71035	0.52860
1085.78179	0.53614
1083.85322	0.54415
1081.92466	0.55127
1079.99609	0.55669
1078.06753	0.55982
1076.13896	0.56000
1074.21040	0.55739
1072.28184	0.55278
1070.35327	0.54674
1068.42471	0.53983
1066.49614	0.53290
1064.56758	0.52650
1062.63901	0.52073
1060.71045	0.51557
1058.78188	0.51095
1056.85332	0.50687
1054.92476	0.50351
1052.99619	0.50072
1051.06763	0.49812
1049.13906	0.49589
1047.21050	0.49432
1045.28193	0.49332
1043.35337	0.49284
1041.42480	0.49258
1039.49624	0.49213
1037.56768	0.49173
1035.63911	0.49167
1033.71055	0.49167
1031.78198	0.49118
1029.85342	0.49005
1027.92485	0.48888
1025.99629	0.48825
1024.06772	0.48797
1022.13916	0.48776
1020.21060	0.48758
1018.28203	0.48771
1016.35347	0.48828
1014.42490	0.48873
1012.49634	0.48881
1010.56777	0.48898
1008.63921	0.48962
1006.71064	0.49063
1004.78208	0.49195
1002.85352	0.49389
1000.92495	0.49661
998.99639	0.49984
997.06782	0.50355
995.13926	0.50781
993.21069	0.51204
991.28213	0.51531
989.35356	0.51738
987.42500	0.51854
985.49644	0.51902
983.56787	0.51924
981.63931	0.51979
979.71074	0.52071
977.78218	0.52203
975.85361	0.52416
973.92505	0.52697
971.99648	0.53022
970.06792	0.53388
968.13936	0.53771
966.21079	0.54163
964.28223	0.54579
962.35366	0.55039
960.42510	0.55545
958.49653	0.56076
956.56797	0.56637
954.63940	0.57246
952.71084	0.57890
950.78228	0.58555
948.85371	0.59210
946.92515	0.59845
944.99658	0.60477
943.06802	0.61082
941.13945	0.61662
939.21089	0.62252
937.28232	0.62823
935.35376	0.63367
933.42520	0.63919
931.49663	0.64472
929.56807	0.65023
927.63950	0.65600
925.71094	0.66216
923.78237	0.66883
921.85381	0.67601
919.92524	0.68321
917.99668	0.69024
916.06812	0.69761
914.13955	0.70558
912.21099	0.71350
910.28242	0.72132
908.35386	0.73005
906.42529	0.73943
904.49673	0.74843
902.56816	0.75721
900.63960	0.76604
898.71104	0.77547
896.78247	0.78573
894.85391	0.79556
892.92534	0.80516
890.99678	0.81624
889.06821	0.82802
887.13965	0.83913
885.21108	0.85082
883.28252	0.86325
881.35396	0.87508
879.42539	0.88595
877.49683	0.89565
875.56826	0.90502
873.63970	0.91523
871.71113	0.92719
869.78257	0.94122
867.85400	0.95504
865.92544	0.96688
863.99687	0.97828
862.06831	0.99059
860.13975	1.00223
858.21118	1.01221
856.28262	1.02226
854.35405	1.03376
852.42549	1.04594
850.49692	1.05720
848.56836	1.06625
846.63979	1.07422
844.71123	1.08448
842.78267	1.09839
840.85410	1.11528
838.92554	1.13191
836.99697	1.14516
835.06841	1.15766
833.13984	1.17140
831.21128	1.18211
829.28271	1.19018
827.35415	1.20172
825.42559	1.21660
823.49702	1.23170
821.56846	1.24228
819.63989	1.24904
817.71133	1.25681
815.78276	1.26561
813.85420	1.27665
811.92563	1.28390
809.99707	1.28541
808.06851	1.28914
806.13994	1.30114
804.21138	1.32587
802.28281	1.34849
800.35425	1.35198
798.42568	1.35875
796.49712	1.38535
794.56855	1.43454
792.63999	1.50994
790.71143	1.53662
788.78286	1.49357
786.85430	1.49352
784.92573	1.54244
782.99717	1.53269
781.06860	1.46763
779.14004	1.43508
777.21147	1.44711
775.28291	1.50189
773.35435	1.57340
771.42578	1.61722
769.49722	1.57627
767.56865	1.53584
765.64009	1.71686
763.71152	4.58227
761.78296	2.70174
759.85439	1.71150
757.92583	1.57745
755.99727	1.41074
754.06870	1.27669
752.14014	1.30514
750.21157	1.33763
748.28301	1.27696
746.35444	1.24728
744.42588	1.22128
742.49731	1.15313
740.56875	1.04435
738.64019	1.03070
736.71162	1.14723
734.78306	1.17601
732.85449	0.89178
730.92593	0.60517
728.99736	0.39989
727.06880	0.32554
725.14023	0.33175
723.21167	0.30292
721.28311	0.16687
719.35454	-0.09536
717.42598	-0.44801
715.49741	-0.39938
713.56885	-0.08565
711.64028	0.16929
709.71172	0.25686
707.78315	0.20027
705.85459	0.14122
703.92603	0.14015
701.99746	0.37324
700.06890	0.59765
698.14033	0.51401
696.21177	0.47812
694.28320	0.46724
692.35464	0.54461
690.42607	0.80630
688.49751	0.99140
686.56895	0.86554
684.64038	0.77074
682.71182	0.60476
680.78325	0.50768
678.85469	0.62162
676.92612	0.81503
674.99756	0.45541
673.06899	0.35609
671.14043	0.46592
669.21187	0.53371
667.28330	0.42132
665.35474	0.35184
663.42617	0.36969
661.49761	0.42083
659.56904	0.42031
657.64048	0.34621
655.71191	0.28467
653.78335	0.27146
651.85479	0.28001
649.92622	0.31032
647.99766	0.38155
646.06909	0.48565
644.14053	0.57052
642.21196	0.72395
640.28340	1.01613
638.35483	0.72833
636.42627	0.59267
634.49771	0.53295
632.56914	0.40539
630.64058	0.36673
628.71201	0.40166
626.78345	0.43977
624.85488	0.49083
622.92632	0.44696
620.99775	0.35489
619.06919	0.33816
617.14062	0.38241
615.21206	0.43212
613.28350	0.42434
611.35493	0.34200
609.42637	0.28727
607.49780	0.28982
605.56924	0.28419
603.64067	0.26398
601.71211	0.28537
599.78354	0.35633
597.85498	0.40856
595.92642	0.42414
593.99785	0.50848
592.06929	0.71998
590.14072	0.99067
588.21216	0.92022
586.28359	0.62197
584.35503	0.42349
582.42646	0.35064
580.49790	0.36527
578.56934	0.37869
576.64077	0.38871
574.71221	0.36938
572.78364	0.30828
570.85508	0.30964
568.92651	0.39043
566.99795	0.50424
565.06938	0.60472
563.14082	0.46466
561.21226	0.25941
559.28369	0.17184
557.35513	0.20084
555.42656	0.35663
553.49800	0.55853
551.56943	0.50741
549.64087	0.37031
547.71230	0.30970
545.78374	0.35159
543.85518	0.44864
541.92661	0.46861
539.99805	0.34628
538.06948	0.26195
536.14092	0.31435
534.21235	0.52627
532.28379	0.68848
530.35522	0.49679
528.42666	0.42940
526.49810	0.43318
524.56953	0.39486
522.64097	0.31405
520.71240	0.25485
518.78384	0.22087
516.85527	0.18614
514.92671	0.18457
512.99814	0.24649
511.06958	0.32059
509.14102	0.33511
507.21245	0.27996
505.28389	0.22896
503.35532	0.23288
501.42676	0.30497
499.49819	0.39651
