3997.91411	0.06351
3995.98555	0.06384
3994.05698	0.06451
3992.12842	0.06518
3990.19985	0.06561
3988.27129	0.06594
3986.34272	0.06615
3984.41416	0.06607
3982.48560	0.06591
3980.55703	0.06616
3978.62847	0.06661
3976.69990	0.06685
3974.77134	0.06714
3972.84277	0.06740
3970.91421	0.06740
3968.98564	0.06733
3967.05708	0.06752
3965.12852	0.06803
3963.19995	0.06871
3961.27139	0.06927
3959.34282	0.06927
3957.41426	0.06869
3955.48569	0.06826
3953.55713	0.06829
3951.62856	0.06874
3949.70000	0.06962
3947.77144	0.07026
3945.84287	0.06993
3943.91431	0.06947
3941.98574	0.06944
3940.05718	0.06923
3938.12861	0.06900
3936.20005	0.06905
3934.27148	0.06915
3932.34292	0.06967
3930.41436	0.07065
3928.48579	0.07084
3926.55723	0.07010
3924.62866	0.06964
3922.70010	0.06954
3920.77153	0.06930
3918.84297	0.06941
3916.91440	0.06978
3914.98584	0.06945
3913.05728	0.06846
3911.12871	0.06761
3909.20015	0.06733
3907.27158	0.06765
3905.34302	0.06875
3903.41445	0.07078
3901.48589	0.07229
3899.55732	0.07213
3897.62876	0.07082
3895.70020	0.06907
3893.77163	0.06804
3891.84307	0.06851
3889.91450	0.06923
3887.98594	0.06880
3886.05737	0.06887
3884.12881	0.07018
3882.20024	0.07129
3880.27168	0.07171
3878.34312	0.07109
3876.41455	0.07026
3874.48599	0.07058
3872.55742	0.07144
3870.62886	0.07231
3868.70029	0.07272
3866.77173	0.07199
3864.84316	0.07216
3862.91460	0.07361
3860.98604	0.07379
3859.05747	0.07291
3857.12891	0.07291
3855.20034	0.07474
3853.27178	0.07858
3851.34321	0.08015
3849.41465	0.07722
3847.48608	0.07504
3845.55752	0.07521
3843.62896	0.07704
3841.70039	0.07904
3839.77183	0.08045
3837.84326	0.08145
3835.91470	0.08171
3833.98613	0.08149
3832.05757	0.08160
3830.12900	0.08201
3828.20044	0.08229
3826.27187	0.08259
3824.34331	0.08310
3822.41475	0.08433
3820.48618	0.08676
3818.55762	0.08803
3816.62905	0.08787
3814.70049	0.08820
3812.77192	0.08831
3810.84336	0.08809
3808.91479	0.08859
3806.98623	0.09044
3805.05767	0.09280
3803.12910	0.09481
3801.20054	0.09721
3799.27197	0.09856
3797.34341	0.09837
3795.41484	0.09850
3793.48628	0.09878
3791.55771	0.09922
3789.62915	0.10012
3787.70059	0.10109
3785.77202	0.10233
3783.84346	0.10402
3781.91489	0.10575
3779.98633	0.10768
3778.05776	0.10983
3776.12920	0.11111
3774.20063	0.11178
3772.27207	0.11301
3770.34351	0.11531
3768.41494	0.11790
3766.48638	0.11966
3764.55781	0.12107
3762.62925	0.12252
3760.70068	0.12464
3758.77212	0.12791
3756.84355	0.13107
3754.91499	0.13334
3752.98643	0.13626
3751.05786	0.14129
3749.12930	0.14622
3747.20073	0.14771
3745.27217	0.14865
3743.34360	0.15107
3741.41504	0.15390
3739.48647	0.15659
3737.55791	0.15994
3735.62935	0.16509
3733.70078	0.17164
3731.77222	0.17621
3729.84365	0.17844
3727.91509	0.18085
3725.98652	0.18561
3724.05796	0.19239
3722.12939	0.19932
3720.20083	0.20654
3718.27227	0.21421
3716.34370	0.22179
3714.41514	0.22939
3712.48657	0.23915
3710.55801	0.25318
3708.62944	0.26682
3706.70088	0.27691
3704.77231	0.28704
3702.84375	0.29970
3700.91519	0.31618
3698.98662	0.33378
3697.05806	0.35043
3695.12949	0.36869
3693.20093	0.38873
3691.27236	0.41084
3689.34380	0.43920
3687.41523	0.47305
3685.48667	0.50183
3683.55811	0.52674
3681.62954	0.55437
3679.70098	0.58596
3677.77241	0.61910
3675.84385	0.65831
3673.91528	0.71109
3671.98672	0.75371
3670.05815	0.79138
3668.12959	0.84335
3666.20103	0.89017
3664.27246	0.92899
3662.34390	0.97132
3660.41533	1.01787
3658.48677	1.06404
3656.55820	1.11266
3654.62964	1.16676
3652.70107	1.21269
3650.77251	1.25306
3648.84395	1.30915
3646.91538	1.37723
3644.98682	1.42546
3643.05825	1.46195
3641.12969	1.50056
3639.20112	1.54446
3637.27256	1.58890
3635.34399	1.63125
3633.41543	1.67290
3631.48687	1.71236
3629.55830	1.75328
3627.62974	1.80742
3625.70117	1.85753
3623.77261	1.89127
3621.84404	1.92381
3619.91548	1.96100
3617.98691	2.00595
3616.05835	2.04934
3614.12979	2.08593
3612.20122	2.12511
3610.27266	2.16422
3608.34409	2.20269
3606.41553	2.24470
3604.48696	2.28451
3602.55840	2.31896
3600.62983	2.35531
3598.70127	2.39583
3596.77271	2.43712
3594.84414	2.47948
3592.91558	2.52148
3590.98701	2.55923
3589.05845	2.59487
3587.12988	2.63944
3585.20132	2.68857
3583.27275	2.72821
3581.34419	2.76419
3579.41562	2.80352
3577.48706	2.84558
3575.55850	2.88837
3573.62993	2.93203
3571.70137	2.97416
3569.77280	3.01323
3567.84424	3.05357
3565.91567	3.10615
3563.98711	3.16099
3562.05854	3.20545
3560.12998	3.24791
3558.20142	3.29099
3556.27285	3.33411
3554.34429	3.37698
3552.41572	3.41972
3550.48716	3.46300
3548.55859	3.50863
3546.63003	3.55708
3544.70146	3.60791
3542.77290	3.65902
3540.84434	3.70839
3538.91577	3.75520
3536.98721	3.80009
3535.05864	3.84800
3533.13008	3.89678
3531.20151	3.94300
3529.27295	3.98866
3527.34438	4.03431
3525.41582	4.07857
3523.48726	4.12384
3521.55869	4.17178
3519.63013	4.21699
3517.70156	4.26137
3515.77300	4.31280
3513.84443	4.36836
3511.91587	4.41917
3509.98730	4.46829
3508.05874	4.51884
3506.13018	4.56555
3504.20161	4.60949
3502.27305	4.65256
3500.34448	4.69639
3498.41592	4.74302
3496.48735	4.79049
3494.55879	4.83865
3492.63022	4.88623
3490.70166	4.93620
3488.77310	4.99237
3486.84453	5.04271
3484.91597	5.08482
3482.98740	5.13043
3481.05884	5.17764
3479.13027	5.22475
3477.20171	5.27929
3475.27314	5.33900
3473.34458	5.39463
3471.41602	5.44159
3469.48745	5.48357
3467.55889	5.52850
3465.63032	5.57668
3463.70176	5.62396
3461.77319	5.66757
3459.84463	5.71442
3457.91606	5.76898
3455.98750	5.82271
3454.05894	5.86930
3452.13037	5.91543
3450.20181	5.96712
3448.27324	6.01452
3446.34468	6.06430
3444.41611	6.12686
3442.48755	6.18889
3440.55898	6.23949
3438.63042	6.27426
3436.70186	6.29188
3434.77329	6.31657
3432.84473	6.37071
3430.91616	6.44200
3428.98760	6.51156
3427.05903	6.56507
3425.13047	6.60783
3423.20190	6.65092
3421.27334	6.69827
3419.34478	6.74596
3417.41621	6.78909
3415.48765	6.82436
3413.55908	6.85523
3411.63052	6.89933
3409.70195	6.95329
3407.77339	7.02399
3405.84482	7.09679
3403.91626	7.13690
3401.98770	7.14945
3400.05913	7.16025
3398.13057	7.19714
3396.20200	7.26885
3394.27344	7.34275
3392.34487	7.37285
3390.41631	7.38743
3388.48774	7.42890
3386.55918	7.49893
3384.63062	7.56065
3382.70205	7.57996
3380.77349	7.57840
3378.84492	7.60051
3376.91636	7.64574
3374.98779	7.65123
3373.05923	7.62603
3371.13066	7.60289
3369.20210	7.59590
3367.27354	7.64258
3365.34497	7.75185
3363.41641	7.85470
3361.48784	7.89388
3359.55928	7.89955
3357.63071	7.88851
3355.70215	7.83479
3353.77358	7.74704
3351.84502	7.74292
3349.91646	7.82660
3347.98789	7.87798
3346.05933	7.89257
3344.13076	7.94323
3342.20220	8.01698
3340.27363	8.02644
3338.34507	7.98436
3336.41650	7.97392
3334.48794	8.04151
3332.55937	8.08749
3330.63081	8.03049
3328.70225	7.98312
3326.77368	8.01899
3324.84512	8.11829
3322.91655	8.20643
3320.98799	8.22271
3319.05942	8.17764
3317.13086	8.11418
3315.20229	8.08012
3313.27373	8.09964
3311.34517	8.10552
3309.41660	8.06373
3307.48804	8.03870
3305.55947	8.04443
3303.63091	8.05755
3301.70234	8.07147
3299.77378	8.07357
3297.84521	8.04611
3295.91665	8.04199
3293.98809	8.08042
3292.05952	8.11275
3290.13096	8.10938
3288.20239	8.10232
3286.27383	8.11941
3284.34526	8.09723
3282.41670	8.08280
3280.48813	8.15726
3278.55957	8.23012
3276.63101	8.19520
3274.70244	8.14410
3272.77388	8.18226
3270.84531	8.26334
3268.91675	8.29865
3266.98818	8.25891
3265.05962	8.19720
3263.13105	8.15413
3261.20249	8.13708
3259.27393	8.12603
3257.34536	8.08571
3255.41680	8.02134
3253.48823	7.97389
3251.55967	7.98556
3249.63110	8.05254
3247.70254	8.07644
3245.77397	7.98800
3243.84541	7.89778
3241.91685	7.88304
3239.98828	7.94536
3238.05972	8.04494
3236.13115	8.08585
3234.20259	8.12016
3232.27402	8.22860
3230.34546	8.31342
3228.41689	8.26915
3226.48833	8.13078
3224.55977	8.01180
3222.63120	7.99291
3220.70264	8.03427
3218.77407	8.03705
3216.84551	7.97620
3214.91694	7.87453
3212.98838	7.77531
3211.05981	7.74971
3209.13125	7.81917
3207.20269	7.92224
3205.27412	7.96540
3203.34556	7.92755
3201.41699	7.87222
3199.48843	7.84008
3197.55986	7.81380
3195.63130	7.76729
3193.70273	7.71242
3191.77417	7.63711
3189.84561	7.53876
3187.91704	7.48972
3185.98848	7.48318
3184.05991	7.43803
3182.13135	7.35835
3180.20278	7.26934
3178.27422	7.18868
3176.34565	7.14178
3174.41709	7.11202
3172.48853	7.09424
3170.55996	7.07509
3168.63140	7.01210
3166.70283	6.90896
3164.77427	6.81661
3162.84570	6.77201
3160.91714	6.74947
3158.98857	6.71602
3157.06001	6.67027
3155.13145	6.59937
3153.20288	6.50962
3151.27432	6.43650
3149.34575	6.37343
3147.41719	6.29667
3145.48862	6.21739
3143.56006	6.14803
3141.63149	6.08907
3139.70293	6.03259
3137.77437	5.97013
3135.84580	5.90381
3133.91724	5.83402
3131.98867	5.75791
3130.06011	5.68719
3128.13154	5.62615
3126.20298	5.56123
3124.27441	5.48963
3122.34585	5.40982
3120.41729	5.32624
3118.48872	5.25355
3116.56016	5.18798
3114.63159	5.11466
3112.70303	5.03539
3110.77446	4.96196
3108.84590	4.89501
3106.91733	4.82674
3104.98877	4.75420
3103.06021	4.68063
3101.13164	4.60857
3099.20308	4.54046
3097.27451	4.47581
3095.34595	4.41308
3093.41738	4.35132
3091.48882	4.28519
3089.56025	4.21717
3087.63169	4.15434
3085.70312	4.09320
3083.77456	4.02994
3081.84600	3.96729
3079.91743	3.90542
3077.98887	3.84282
3076.06030	3.78152
3074.13174	3.72337
3072.20317	3.66652
3070.27461	3.60890
3068.34604	3.55096
3066.41748	3.49225
3064.48892	3.43322
3062.56035	3.37670
3060.63179	3.32206
3058.70322	3.26695
3056.77466	3.21194
3054.84609	3.15725
3052.91753	3.10327
3050.98896	3.05120
3049.06040	2.99998
3047.13184	2.94884
3045.20327	2.89856
3043.27471	2.84949
3041.34614	2.80116
3039.41758	2.75382
3037.48901	2.70789
3035.56045	2.66235
3033.63188	2.61648
3031.70332	2.57087
3029.77476	2.52618
3027.84619	2.48210
3025.91763	2.43850
3023.98906	2.39627
3022.06050	2.35527
3020.13193	2.31399
3018.20337	2.27197
3016.27480	2.23055
3014.34624	2.19066
3012.41768	2.15165
3010.48911	2.11307
3008.56055	2.07561
3006.63198	2.03926
3004.70342	2.00358
3002.77485	1.96848
3000.84629	1.93380
2998.91772	1.89969
2996.98916	1.86634
2995.06060	1.83385
2993.13203	1.80208
2991.20347	1.77060
2989.27490	1.73935
2987.34634	1.70877
2985.41777	1.67938
2983.48921	1.65075
2981.56064	1.62237
2979.63208	1.59423
2977.70352	1.56624
2975.77495	1.53902
2973.84639	1.51277
2971.91782	1.48677
2969.98926	1.46115
2968.06069	1.43613
2966.13213	1.41156
2964.20356	1.38729
2962.27500	1.36308
2960.34644	1.33923
2958.41787	1.31574
2956.48931	1.29218
2954.56074	1.26860
2952.63218	1.24522
2950.70361	1.22219
2948.77505	1.19989
2946.84648	1.17852
2944.91792	1.15740
2942.98936	1.13596
2941.06079	1.11501
2939.13223	1.09516
2937.20366	1.07579
2935.27510	1.05615
2933.34653	1.03647
2931.41797	1.01714
2929.48940	0.99790
2927.56084	0.97905
2925.63228	0.96133
2923.70371	0.94434
2921.77515	0.92733
2919.84658	0.91031
2917.91802	0.89370
2915.98945	0.87762
2914.06089	0.86184
2912.13232	0.84622
2910.20376	0.83088
2908.27520	0.81576
2906.34663	0.80093
2904.41807	0.78677
2902.48950	0.77307
2900.56094	0.75955
2898.63237	0.74674
2896.70381	0.73447
2894.77524	0.72196
2892.84668	0.70946
2890.91812	0.69761
2888.98955	0.68633
2887.06099	0.67525
2885.13242	0.66442
2883.20386	0.65392
2881.27529	0.64357
2879.34673	0.63341
2877.41816	0.62356
2875.48960	0.61369
2873.56104	0.60336
2871.63247	0.59260
2869.70391	0.58189
2867.77534	0.57146
2865.84678	0.56101
2863.91821	0.55038
2861.98965	0.53975
2860.06108	0.52947
2858.13252	0.51987
2856.20396	0.51082
2854.27539	0.50213
2852.34683	0.49385
2850.41826	0.48588
2848.48970	0.47773
2846.56113	0.46945
2844.63257	0.46194
2842.70400	0.45537
2840.77544	0.44911
2838.84687	0.44275
2836.91831	0.43645
2834.98975	0.43049
2833.06118	0.42469
2831.13262	0.41872
2829.20405	0.41272
2827.27549	0.40677
2825.34692	0.40074
2823.41836	0.39467
2821.48979	0.38877
2819.56123	0.38304
2817.63267	0.37734
2815.70410	0.37178
2813.77554	0.36655
2811.84697	0.36152
2809.91841	0.35637
2807.98984	0.35104
2806.06128	0.34571
2804.13271	0.34055
2802.20415	0.33567
2800.27559	0.33108
2798.34702	0.32661
2796.41846	0.32218
2794.48989	0.31775
2792.56133	0.31320
2790.63276	0.30864
2788.70420	0.30428
2786.77563	0.30002
2784.84707	0.29581
2782.91851	0.29171
2780.98994	0.28764
2779.06138	0.28376
2777.13281	0.28027
2775.20425	0.27675
2773.27568	0.27294
2771.34712	0.26924
2769.41855	0.26585
2767.48999	0.26261
2765.56143	0.25931
2763.63286	0.25588
2761.70430	0.25248
2759.77573	0.24919
2757.84717	0.24612
2755.91860	0.24330
2753.99004	0.24053
2752.06147	0.23767
2750.13291	0.23466
2748.20435	0.23166
2746.27578	0.22879
2744.34722	0.22590
2742.41865	0.22322
2740.49009	0.22095
2738.56152	0.21874
2736.63296	0.21626
2734.70439	0.21377
2732.77583	0.21148
2730.84727	0.20924
2728.91870	0.20705
2726.99014	0.20502
2725.06157	0.20302
2723.13301	0.20089
2721.20444	0.19865
2719.27588	0.19665
2717.34731	0.19495
2715.41875	0.19332
2713.49019	0.19153
2711.56162	0.18960
2709.63306	0.18785
2707.70449	0.18632
2705.77593	0.18474
2703.84736	0.18308
2701.91880	0.18156
2699.99023	0.18020
2698.06167	0.17888
2696.13311	0.17767
2694.20454	0.17655
2692.27598	0.17530
2690.34741	0.17394
2688.41885	0.17257
2686.49028	0.17123
2684.56172	0.16996
2682.63315	0.16878
2680.70459	0.16760
2678.77603	0.16631
2676.84746	0.16512
2674.91890	0.16426
2672.99033	0.16354
2671.06177	0.16275
2669.13320	0.16181
2667.20464	0.16074
2665.27607	0.15973
2663.34751	0.15890
2661.41895	0.15806
2659.49038	0.15725
2657.56182	0.15657
2655.63325	0.15588
2653.70469	0.15517
2651.77612	0.15450
2649.84756	0.15389
2647.91899	0.15333
2645.99043	0.15269
2644.06187	0.15206
2642.13330	0.15161
2640.20474	0.15126
2638.27617	0.15082
2636.34761	0.15031
2634.41904	0.14983
2632.49048	0.14940
2630.56191	0.14900
2628.63335	0.14864
2626.70479	0.14829
2624.77622	0.14790
2622.84766	0.14762
2620.91909	0.14745
2618.99053	0.14717
2617.06196	0.14685
2615.13340	0.14665
2613.20483	0.14650
2611.27627	0.14636
2609.34771	0.14627
2607.41914	0.14626
2605.49058	0.14631
2603.56201	0.14630
2601.63345	0.14624
2599.70488	0.14637
2597.77632	0.14671
2595.84775	0.14687
2593.91919	0.14675
2591.99062	0.14676
2590.06206	0.14697
2588.13350	0.14711
2586.20493	0.14722
2584.27637	0.14741
2582.34780	0.14770
2580.41924	0.14805
2578.49067	0.14823
2576.56211	0.14836
2574.63354	0.14873
2572.70498	0.14921
2570.77642	0.14969
2568.84785	0.15016
2566.91929	0.15057
2564.99072	0.15093
2563.06216	0.15135
2561.13359	0.15183
2559.20503	0.15236
2557.27646	0.15288
2555.34790	0.15336
2553.41934	0.15379
2551.49077	0.15424
2549.56221	0.15487
2547.63364	0.15558
2545.70508	0.15612
2543.77651	0.15662
2541.84795	0.15734
2539.91938	0.15820
2537.99082	0.15891
2536.06226	0.15935
2534.13369	0.15975
2532.20513	0.16039
2530.27656	0.16120
2528.34800	0.16205
2526.41943	0.16290
2524.49087	0.16365
2522.56230	0.16414
2520.63374	0.16472
2518.70518	0.16567
2516.77661	0.16672
2514.84805	0.16767
2512.91948	0.16854
2510.99092	0.16937
2509.06235	0.17023
2507.13379	0.17099
2505.20522	0.17154
2503.27666	0.17213
2501.34810	0.17296
2499.41953	0.17386
2497.49097	0.17461
2495.56240	0.17534
2493.63384	0.17622
2491.70527	0.17711
2489.77671	0.17800
2487.84814	0.17896
2485.91958	0.17985
2483.99102	0.18070
2482.06245	0.18170
2480.13389	0.18276
2478.20532	0.18374
2476.27676	0.18454
2474.34819	0.18523
2472.41963	0.18607
2470.49106	0.18716
2468.56250	0.18824
2466.63394	0.18906
2464.70537	0.18974
2462.77681	0.19056
2460.84824	0.19158
2458.91968	0.19271
2456.99111	0.19378
2455.06255	0.19478
2453.13398	0.19584
2451.20542	0.19690
2449.27686	0.19786
2447.34829	0.19876
2445.41973	0.19973
2443.49116	0.20085
2441.56260	0.20202
2439.63403	0.20305
2437.70547	0.20395
2435.77690	0.20486
2433.84834	0.20586
2431.91978	0.20688
2429.99121	0.20794
2428.06265	0.20902
2426.13408	0.21019
2424.20552	0.21142
2422.27695	0.21260
2420.34839	0.21367
2418.41982	0.21470
2416.49126	0.21575
2414.56270	0.21682
2412.63413	0.21798
2410.70557	0.21921
2408.77700	0.22033
2406.84844	0.22139
2404.91987	0.22249
2402.99131	0.22363
2401.06274	0.22487
2399.13418	0.22612
2397.20562	0.22735
2395.27705	0.22857
2393.34849	0.22986
2391.41992	0.23122
2389.49136	0.23251
2387.56279	0.23363
2385.63423	0.23457
2383.70566	0.23539
2381.77710	0.23610
2379.84854	0.23653
2377.91997	0.23656
2375.99141	0.23642
2374.06284	0.23629
2372.13428	0.23608
2370.20571	0.23583
2368.27715	0.23613
2366.34858	0.23742
2364.42002	0.23851
2362.49146	0.23826
2360.56289	0.23844
2358.63433	0.24064
2356.70576	0.24334
2354.77720	0.24541
2352.84863	0.24812
2350.92007	0.25162
2348.99150	0.25420
2347.06294	0.25538
2345.13437	0.25593
2343.20581	0.25621
2341.27725	0.25651
2339.34868	0.25832
2337.42012	0.26128
2335.49155	0.26365
2333.56299	0.26505
2331.63442	0.26625
2329.70586	0.26773
2327.77729	0.26982
2325.84873	0.27228
2323.92017	0.27464
2321.99160	0.27698
2320.06304	0.27959
2318.13447	0.28246
2316.20591	0.28519
2314.27734	0.28754
2312.34878	0.28976
2310.42021	0.29206
2308.49165	0.29430
2306.56309	0.29654
2304.63452	0.29880
2302.70596	0.30082
2300.77739	0.30258
2298.84883	0.30442
2296.92026	0.30646
2294.99170	0.30862
2293.06313	0.31094
2291.13457	0.31334
2289.20601	0.31546
2287.27744	0.31729
2285.34888	0.31923
2283.42031	0.32145
2281.49175	0.32370
2279.56318	0.32577
2277.63462	0.32765
2275.70605	0.32952
2273.77749	0.33154
2271.84893	0.33364
2269.92036	0.33573
2267.99180	0.33783
2266.06323	0.33996
2264.13467	0.34216
2262.20610	0.34447
2260.27754	0.34681
2258.34897	0.34899
2256.42041	0.35099
2254.49185	0.35298
2252.56328	0.35511
2250.63472	0.35736
2248.70615	0.35962
2246.77759	0.36188
2244.84902	0.36416
2242.92046	0.36642
2240.99189	0.36866
2239.06333	0.37088
2237.13477	0.37306
2235.20620	0.37518
2233.27764	0.37735
2231.34907	0.37958
2229.42051	0.38176
2227.49194	0.38404
2225.56338	0.38646
2223.63481	0.38878
2221.70625	0.39084
2219.77769	0.39292
2217.84912	0.39524
2215.92056	0.39759
2213.99199	0.39974
2212.06343	0.40174
2210.13486	0.40380
2208.20630	0.40592
2206.27773	0.40798
2204.34917	0.40999
2202.42061	0.41208
2200.49204	0.41417
2198.56348	0.41617
2196.63491	0.41813
2194.70635	0.42016
2192.77778	0.42218
2190.84922	0.42402
2188.92065	0.42577
2186.99209	0.42767
2185.06353	0.42962
2183.13496	0.43142
2181.20640	0.43314
2179.27783	0.43480
2177.34927	0.43640
2175.42070	0.43805
2173.49214	0.43966
2171.56357	0.44107
2169.63501	0.44232
2167.70645	0.44340
2165.77788	0.44439
2163.84932	0.44554
2161.92075	0.44688
2159.99219	0.44812
2158.06362	0.44909
2156.13506	0.44995
2154.20649	0.45088
2152.27793	0.45171
2150.34937	0.45234
2148.42080	0.45294
2146.49224	0.45352
2144.56367	0.45396
2142.63511	0.45438
2140.70654	0.45480
2138.77798	0.45512
2136.84941	0.45526
2134.92085	0.45529
2132.99229	0.45528
2131.06372	0.45523
2129.13516	0.45509
2127.20659	0.45486
2125.27803	0.45449
2123.34946	0.45395
2121.42090	0.45337
2119.49233	0.45273
2117.56377	0.45203
2115.63521	0.45138
2113.70664	0.45073
2111.77808	0.44985
2109.84951	0.44875
2107.92095	0.44758
2105.99238	0.44635
2104.06382	0.44512
2102.13525	0.44391
2100.20669	0.44252
2098.27812	0.44096
2096.34956	0.43944
2094.42100	0.43796
2092.49243	0.43646
2090.56387	0.43489
2088.63530	0.43313
2086.70674	0.43129
2084.77817	0.42944
2082.84961	0.42756
2080.92104	0.42563
2078.99248	0.42356
2077.06392	0.42135
2075.13535	0.41918
2073.20679	0.41705
2071.27822	0.41483
2069.34966	0.41255
2067.42109	0.41025
2065.49253	0.40791
2063.56396	0.40547
2061.63540	0.40296
2059.70684	0.40041
2057.77827	0.39785
2055.84971	0.39534
2053.92114	0.39287
2051.99258	0.39041
2050.06401	0.38793
2048.13545	0.38534
2046.20688	0.38258
2044.27832	0.37977
2042.34976	0.37696
2040.42119	0.37419
2038.49263	0.37145
2036.56406	0.36873
2034.63550	0.36605
2032.70693	0.36334
2030.77837	0.36058
2028.84980	0.35778
2026.92124	0.35497
2024.99268	0.35218
2023.06411	0.34949
2021.13555	0.34677
2019.20698	0.34399
2017.27842	0.34126
2015.34985	0.33851
2013.42129	0.33574
2011.49272	0.33303
2009.56416	0.33035
2007.63560	0.32767
2005.70703	0.32497
2003.77847	0.32216
2001.84990	0.31938
1999.92134	0.31681
1997.99277	0.31428
1996.06421	0.31168
1994.13564	0.30925
1992.20708	0.30697
1990.27852	0.30452
1988.34995	0.30191
1986.42139	0.29930
1984.49282	0.29678
1982.56426	0.29445
1980.63569	0.29223
1978.70713	0.29004
1976.77856	0.28785
1974.85000	0.28571
1972.92144	0.28362
1970.99287	0.28148
1969.06431	0.27943
1967.13574	0.27758
1965.20718	0.27555
1963.27861	0.27338
1961.35005	0.27137
1959.42148	0.26952
1957.49292	0.26778
1955.56436	0.26613
1953.63579	0.26441
1951.70723	0.26260
1949.77866	0.26095
1947.85010	0.25948
1945.92153	0.25812
1943.99297	0.25680
1942.06440	0.25531
1940.13584	0.25365
1938.20728	0.25209
1936.27871	0.25072
1934.35015	0.24945
1932.42158	0.24825
1930.49302	0.24712
1928.56445	0.24604
1926.63589	0.24501
1924.70732	0.24417
1922.77876	0.24335
1920.85020	0.24236
1918.92163	0.24142
1916.99307	0.24056
1915.06450	0.23958
1913.13594	0.23865
1911.20737	0.23800
1909.27881	0.23744
1907.35024	0.23676
1905.42168	0.23602
1903.49312	0.23538
1901.56455	0.23489
1899.63599	0.23446
1897.70742	0.23407
1895.77886	0.23370
1893.85029	0.23334
1891.92173	0.23302
1889.99316	0.23289
1888.06460	0.23263
1886.13604	0.23216
1884.20747	0.23177
1882.27891	0.23152
1880.35034	0.23146
1878.42178	0.23152
1876.49321	0.23162
1874.56465	0.23165
1872.63608	0.23179
1870.70752	0.23229
1868.77896	0.23314
1866.85039	0.23341
1864.92183	0.23303
1862.99326	0.23284
1861.06470	0.23297
1859.13613	0.23339
1857.20757	0.23393
1855.27900	0.23442
1853.35044	0.23479
1851.42187	0.23523
1849.49331	0.23586
1847.56475	0.23671
1845.63618	0.23772
1843.70762	0.23875
1841.77905	0.23940
1839.85049	0.23977
1837.92192	0.24048
1835.99336	0.24134
1834.06479	0.24226
1832.13623	0.24345
1830.20767	0.24516
1828.27910	0.24669
1826.35054	0.24767
1824.42197	0.24895
1822.49341	0.25019
1820.56484	0.25129
1818.63628	0.25259
1816.70771	0.25416
1814.77915	0.25569
1812.85059	0.25741
1810.92202	0.25952
1808.99346	0.26161
1807.06489	0.26350
1805.13633	0.26533
1803.20776	0.26750
1801.27920	0.27010
1799.35063	0.27304
1797.42207	0.27570
1795.49351	0.27831
1793.56494	0.28141
1791.63638	0.28517
1789.70781	0.28832
1787.77925	0.29064
1785.85068	0.29372
1783.92212	0.29749
1781.99355	0.30150
1780.06499	0.30572
1778.13643	0.31001
1776.20786	0.31410
1774.27930	0.31870
1772.35073	0.32491
1770.42217	0.33127
1768.49360	0.33631
1766.56504	0.34113
1764.63647	0.34627
1762.70791	0.35221
1760.77935	0.35974
1758.85078	0.36670
1756.92222	0.37373
1754.99365	0.38140
1753.06509	0.38840
1751.13652	0.39686
1749.20796	0.40759
1747.27939	0.41811
1745.35083	0.42733
1743.42227	0.43707
1741.49370	0.44776
1739.56514	0.46038
1737.63657	0.47306
1735.70801	0.48421
1733.77944	0.50085
1731.85088	0.52038
1729.92231	0.53564
1727.99375	0.55124
1726.06519	0.56805
1724.13662	0.58624
1722.20806	0.60574
1720.27949	0.62390
1718.35093	0.64574
1716.42236	0.67825
1714.49380	0.70871
1712.56523	0.73317
1710.63667	0.75701
1708.70811	0.78259
1706.77954	0.81164
1704.85098	0.84669
1702.92241	0.87815
1700.99385	0.90889
1699.06528	0.95445
1697.13672	0.99684
1695.20815	1.04052
1693.27959	1.08280
1691.35103	1.11687
1689.42246	1.15621
1687.49390	1.19791
1685.56533	1.23859
1683.63677	1.30054
1681.70820	1.36365
1679.77964	1.40423
1677.85107	1.44361
1675.92251	1.48890
1673.99395	1.54392
1672.06538	1.59242
1670.13682	1.64085
1668.20825	1.70500
1666.27969	1.75712
1664.35112	1.80011
1662.42256	1.85344
1660.49399	1.91446
1658.56543	1.96258
1656.63687	2.00037
1654.70830	2.03331
1652.77974	2.08598
1650.85117	2.13964
1648.92261	2.16041
1646.99404	2.18613
1645.06548	2.21571
1643.13691	2.23500
1641.20835	2.24547
1639.27979	2.25420
1637.35122	2.25867
1635.42266	2.25648
1633.49409	2.24962
1631.56553	2.23823
1629.63696	2.22210
1627.70840	2.19419
1625.77983	2.16155
1623.85127	2.12146
1621.92271	2.07303
1619.99414	2.02912
1618.06558	1.98504
1616.13701	1.92262
1614.20845	1.85991
1612.27988	1.81186
1610.35132	1.76151
1608.42275	1.70770
1606.49419	1.65503
1604.56562	1.60609
1602.63706	1.55858
1600.70850	1.51201
1598.77993	1.46910
1596.85137	1.42904
1594.92280	1.39025
1592.99424	1.35251
1591.06567	1.31772
1589.13711	1.28508
1587.20854	1.25462
1585.27998	1.22662
1583.35142	1.20062
1581.42285	1.17665
1579.49429	1.15604
1577.56572	1.13768
1575.63716	1.11558
1573.70859	1.09623
1571.78003	1.08374
1569.85146	1.07071
1567.92290	1.05622
1565.99434	1.04551
1564.06577	1.03734
1562.13721	1.03114
1560.20864	1.02735
1558.28008	1.02260
1556.35151	1.01762
1554.42295	1.01422
1552.49438	1.01089
1550.56582	1.00677
1548.63726	1.00094
1546.70869	0.99389
1544.78013	0.98559
1542.85156	0.97556
1540.92300	0.96145
1538.99443	0.93822
1537.06587	0.92009
1535.13730	0.90792
1533.20874	0.89239
1531.28018	0.87590
1529.35161	0.86411
1527.42305	0.85325
1525.49448	0.84201
1523.56592	0.83226
1521.63735	0.82259
1519.70879	0.81259
1517.78022	0.80444
1515.85166	0.79529
1513.92310	0.78535
1511.99453	0.77661
1510.06597	0.76894
1508.13740	0.76185
1506.20884	0.75074
1504.28027	0.74048
1502.35171	0.73460
1500.42314	0.72958
1498.49458	0.72425
1496.56602	0.71794
1494.63745	0.71163
1492.70889	0.70687
1490.78032	0.70305
1488.85176	0.69868
1486.92319	0.69400
1484.99463	0.68999
1483.06606	0.68684
1481.13750	0.68427
1479.20894	0.68222
1477.28037	0.68086
1475.35181	0.68003
1473.42324	0.67952
1471.49468	0.67840
1469.56611	0.67637
1467.63755	0.67412
1465.70898	0.67203
1463.78042	0.67016
1461.85186	0.66861
1459.92329	0.66773
1457.99473	0.66768
1456.06616	0.66714
1454.13760	0.66461
1452.20903	0.66170
1450.28047	0.65905
1448.35190	0.65672
1446.42334	0.65416
1444.49478	0.65148
1442.56621	0.64913
1440.63765	0.64688
1438.70908	0.64466
1436.78052	0.64206
1434.85195	0.63892
1432.92339	0.63630
1430.99482	0.63461
1429.06626	0.63343
1427.13770	0.63260
1425.20913	0.63225
1423.28057	0.63219
1421.35200	0.63211
1419.42344	0.63205
1417.49487	0.63142
1415.56631	0.62993
1413.63774	0.62862
1411.70918	0.62787
1409.78062	0.62761
1407.85205	0.62772
1405.92349	0.62824
1403.99492	0.62880
1402.06636	0.62867
1400.13779	0.62795
1398.20923	0.62669
1396.28066	0.62461
1394.35210	0.62154
1392.42354	0.61806
1390.49497	0.61500
1388.56641	0.61219
1386.63784	0.60895
1384.70928	0.60536
1382.78071	0.60199
1380.85215	0.59882
1378.92358	0.59585
1376.99502	0.59357
1375.06646	0.59226
1373.13789	0.59130
1371.20933	0.59037
1369.28076	0.58960
1367.35220	0.58858
1365.42363	0.58727
1363.49507	0.58596
1361.56650	0.58454
1359.63794	0.58298
1357.70937	0.58160
1355.78081	0.58043
1353.85225	0.57936
1351.92368	0.57834
1349.99512	0.57744
1348.06655	0.57667
1346.13799	0.57586
1344.20942	0.57497
1342.28086	0.57419
1340.35229	0.57354
1338.42373	0.57288
1336.49517	0.57214
1334.56660	0.57145
1332.63804	0.57094
1330.70947	0.57060
1328.78091	0.57048
1326.85234	0.57058
1324.92378	0.57079
1322.99521	0.57101
1321.06665	0.57120
1319.13809	0.57122
1317.20952	0.57097
1315.28096	0.57058
1313.35239	0.57009
1311.42383	0.56939
1309.49526	0.56856
1307.56670	0.56790
1305.63813	0.56737
1303.70957	0.56677
1301.78101	0.56608
1299.85244	0.56523
1297.92388	0.56425
1295.99531	0.56327
1294.06675	0.56234
1292.13818	0.56128
1290.20962	0.56015
1288.28105	0.55915
1286.35249	0.55831
1284.42393	0.55749
1282.49536	0.55646
1280.56680	0.55529
1278.63823	0.55420
1276.70967	0.55316
1274.78110	0.55225
1272.85254	0.55168
1270.92397	0.55121
1268.99541	0.55053
1267.06685	0.54980
1265.13828	0.54912
1263.20972	0.54834
1261.28115	0.54757
1259.35259	0.54705
1257.42402	0.54674
1255.49546	0.54644
1253.56689	0.54621
1251.63833	0.54617
1249.70977	0.54621
1247.78120	0.54606
1245.85264	0.54558
1243.92407	0.54494
1241.99551	0.54427
1240.06694	0.54335
1238.13838	0.54197
1236.20981	0.54034
1234.28125	0.53879
1232.35269	0.53726
1230.42412	0.53572
1228.49556	0.53431
1226.56699	0.53295
1224.63843	0.53152
1222.70986	0.53017
1220.78130	0.52906
1218.85273	0.52803
1216.92417	0.52687
1214.99561	0.52571
1213.06704	0.52473
1211.13848	0.52406
1209.20991	0.52359
1207.28135	0.52300
1205.35278	0.52211
1203.42422	0.52109
1201.49565	0.52016
1199.56709	0.51945
1197.63853	0.51877
1195.70996	0.51805
1193.78140	0.51753
1191.85283	0.51725
1189.92427	0.51695
1187.99570	0.51649
1186.06714	0.51606
1184.13857	0.51595
1182.21001	0.51627
1180.28145	0.51682
1178.35288	0.51760
1176.42432	0.51853
1174.49575	0.51938
1172.56719	0.52007
1170.63862	0.52052
1168.71006	0.52088
1166.78149	0.52142
1164.85293	0.52183
1162.92437	0.52178
1160.99580	0.52149
1159.06724	0.52121
1157.13867	0.52073
1155.21011	0.51985
1153.28154	0.51872
1151.35298	0.51743
1149.42441	0.51580
1147.49585	0.51370
1145.56729	0.51114
1143.63872	0.50846
1141.71016	0.50623
1139.78159	0.50446
1137.85303	0.50288
1135.92446	0.50152
1133.99590	0.50041
1132.06733	0.49957
1130.13877	0.49895
1128.21021	0.49824
1126.28164	0.49743
1124.35308	0.49667
1122.42451	0.49595
1120.49595	0.49544
1118.56738	0.49541
1116.63882	0.49574
1114.71025	0.49596
1112.78169	0.49603
1110.85312	0.49633
1108.92456	0.49705
1106.99600	0.49795
1105.06743	0.49885
1103.13887	0.49981
1101.21030	0.50101
1099.28174	0.50273
1097.35317	0.50524
1095.42461	0.50842
1093.49604	0.51201
1091.56748	0.51637
1089.63892	0.52186
1087.71035	0.52841
1085.78179	0.53591
1083.85322	0.54385
1081.92466	0.55108
1079.99609	0.55652
1078.06753	0.55944
1076.13896	0.55952
1074.21040	0.55696
1072.28184	0.55223
1070.35327	0.54595
1068.42471	0.53895
1066.49614	0.53193
1064.56758	0.52540
1062.63901	0.51966
1060.71045	0.51467
1058.78188	0.51034
1056.85332	0.50637
1054.92476	0.50265
1052.99619	0.49953
1051.06763	0.49726
1049.13906	0.49569
1047.21050	0.49466
1045.28193	0.49413
1043.35337	0.49385
1041.42480	0.49346
1039.49624	0.49294
1037.56768	0.49245
1035.63911	0.49200
1033.71055	0.49136
1031.78198	0.49054
1029.85342	0.48981
1027.92485	0.48909
1025.99629	0.48822
1024.06772	0.48741
1022.13916	0.48702
1020.21060	0.48724
1018.28203	0.48773
1016.35347	0.48811
1014.42490	0.48838
1012.49634	0.48861
1010.56777	0.48882
1008.63921	0.48928
1006.71064	0.49032
1004.78208	0.49183
1002.85352	0.49391
1000.92495	0.49653
998.99639	0.49947
997.06782	0.50306
995.13926	0.50737
993.21069	0.51159
991.28213	0.51498
989.35356	0.51741
987.42500	0.51881
985.49644	0.51919
983.56787	0.51927
981.63931	0.51976
979.71074	0.52066
977.78218	0.52209
975.85361	0.52425
973.92505	0.52685
971.99648	0.52981
970.06792	0.53310
968.13936	0.53670
966.21079	0.54092
964.28223	0.54572
962.35366	0.55058
960.42510	0.55559
958.49653	0.56105
956.56797	0.56669
954.63940	0.57253
952.71084	0.57879
950.78228	0.58519
948.85371	0.59158
946.92515	0.59807
944.99658	0.60451
943.06802	0.61086
941.13945	0.61722
939.21089	0.62341
937.28232	0.62915
935.35376	0.63446
933.42520	0.63968
931.49663	0.64530
929.56807	0.65148
927.63950	0.65763
925.71094	0.66340
923.78237	0.66936
921.85381	0.67573
919.92524	0.68218
917.99668	0.68867
916.06812	0.69574
914.13955	0.70366
912.21099	0.71172
910.28242	0.71970
908.35386	0.72810
906.42529	0.73721
904.49673	0.74658
902.56816	0.75550
900.63960	0.76445
898.71104	0.77391
896.78247	0.78367
894.85391	0.79362
892.92534	0.80382
890.99678	0.81453
889.06821	0.82560
887.13965	0.83649
885.21108	0.84698
883.28252	0.85763
881.35396	0.86988
879.42539	0.88410
877.49683	0.89785
875.56826	0.90850
873.63970	0.91698
871.71113	0.92638
869.78257	0.93754
867.85400	0.95012
865.92544	0.96402
863.99687	0.97666
862.06831	0.98682
860.13975	0.99756
858.21118	1.00920
856.28262	1.02055
854.35405	1.03284
852.42549	1.04480
850.49692	1.05526
848.56836	1.06521
846.63979	1.07458
844.71123	1.08436
842.78267	1.09676
840.85410	1.11218
838.92554	1.12695
836.99697	1.13657
835.06841	1.14340
833.13984	1.15328
831.21128	1.16549
829.28271	1.17691
827.35415	1.18513
825.42559	1.18838
823.49702	1.19479
821.56846	1.20862
819.63989	1.21845
817.71133	1.22399
815.78276	1.24038
813.85420	1.26167
811.92563	1.27329
809.99707	1.28476
808.06851	1.30303
806.13994	1.31478
804.21138	1.31347
802.28281	1.31650
800.35425	1.32982
798.42568	1.34093
796.49712	1.33531
794.56855	1.31137
792.63999	1.30647
790.71143	1.34540
788.78286	1.37237
786.85430	1.33414
784.92573	1.30083
782.99717	1.29321
781.06860	1.27905
779.14004	1.28121
777.21147	1.31273
775.28291	1.32105
773.35435	1.26759
771.42578	1.19548
769.49722	1.17428
767.56865	1.23344
765.64009	1.29776
763.71152	1.27201
761.78296	1.19862
759.85439	1.16493
757.92583	1.20866
755.99727	1.25122
754.06870	1.21364
752.14014	1.15296
750.21157	1.13098
748.28301	1.12381
746.35444	1.11173
744.42588	1.13767
742.49731	1.14045
740.56875	1.08764
738.64019	1.06683
736.71162	1.01161
734.78306	0.90714
732.85449	0.84768
730.92593	0.81197
728.99736	0.77223
727.06880	0.70707
725.14023	0.60220
723.21167	0.48813
721.28311	0.39978
719.35454	0.39649
717.42598	0.37861
715.49741	0.26615
713.56885	0.19323
711.64028	0.20594
709.71172	0.22843
707.78315	0.24617
705.85459	0.27071
703.92603	0.18083
701.99746	0.03380
700.06890	-0.02939
698.14033	-0.03285
696.21177	-0.02004
694.28320	0.01640
692.35464	0.10744
690.42607	0.23068
688.49751	0.15803
686.56895	0.07613
684.64038	0.16535
682.71182	0.34234
680.78325	0.61518
678.85469	0.80875
676.92612	0.64264
674.99756	0.48725
673.06899	0.30097
671.14043	0.12350
669.21187	0.01645
667.28330	-0.20274
665.35474	-0.56483
663.42617	-0.26415
661.49761	-0.07621
659.56904	0.00887
657.64048	0.13782
655.71191	0.26094
653.78335	0.28711
651.85479	0.28121
649.92622	0.25453
647.99766	0.18915
646.06909	0.15058
644.14053	0.16548
642.21196	0.10755
640.28340	0.01620
638.35483	0.07744
636.42627	0.18769
634.49771	0.20521
632.56914	0.23027
630.64058	0.27435
628.71201	0.28724
626.78345	0.25278
624.85488	0.18358
622.92632	0.14673
620.99775	0.25089
619.06919	0.52376
617.14062	0.37097
615.21206	0.15243
613.28350	0.07149
611.35493	0.09313
609.42637	0.19416
607.49780	0.26289
605.56924	0.24209
603.64067	0.23094
601.71211	0.28369
599.78354	0.26837
597.85498	0.16690
595.92642	0.07389
593.99785	0.02432
592.06929	0.01389
590.14072	-0.00235
588.21216	0.01588
586.28359	0.07691
584.35503	0.11455
582.42646	0.13889
580.49790	0.20414
578.56934	0.29629
576.64077	0.38863
574.71221	0.42856
572.78364	0.36936
570.85508	0.30469
568.92651	0.32369
566.99795	0.33191
565.06938	0.25250
563.14082	0.14757
561.21226	0.10988
559.28369	0.11867
557.35513	0.11469
555.42656	0.10828
553.49800	0.15800
551.56943	0.23743
549.64087	0.24071
547.71230	0.20944
545.78374	0.19201
543.85518	0.13721
541.92661	0.05114
539.99805	-0.02130
538.06948	-0.01812
536.14092	0.07604
534.21235	0.19684
532.28379	0.32671
530.35522	0.49246
528.42666	0.31924
526.49810	0.15080
524.56953	0.11806
522.64097	0.16194
520.71240	0.21861
518.78384	0.17421
516.85527	0.07875
514.92671	0.03861
512.99814	0.03657
511.06958	0.02796
509.14102	0.04441
507.21245	0.12355
505.28389	0.16424
503.35532	0.16995
501.42676	0.17034
499.49819	0.16755
