3997.91411	0.07556
3995.98555	0.07641
3994.05698	0.07747
3992.12842	0.07800
3990.19985	0.07822
3988.27129	0.07843
3986.34272	0.07860
3984.41416	0.07893
3982.48560	0.07916
3980.55703	0.07885
3978.62847	0.07858
3976.69990	0.07890
3974.77134	0.07932
3972.84277	0.07946
3970.91421	0.07954
3968.98564	0.07962
3967.05708	0.07978
3965.12852	0.08007
3963.19995	0.08046
3961.27139	0.08095
3959.34282	0.08128
3957.41426	0.08128
3955.48569	0.08102
3953.55713	0.08066
3951.62856	0.08048
3949.70000	0.08061
3947.77144	0.08085
3945.84287	0.08099
3943.91431	0.08098
3941.98574	0.08096
3940.05718	0.08089
3938.12861	0.08065
3936.20005	0.08052
3934.27148	0.08055
3932.34292	0.08059
3930.41436	0.08071
3928.48579	0.08086
3926.55723	0.08094
3924.62866	0.08108
3922.70010	0.08095
3920.77153	0.08031
3918.84297	0.07975
3916.91440	0.07958
3914.98584	0.07938
3913.05728	0.07926
3911.12871	0.07957
3909.20015	0.07966
3907.27158	0.07926
3905.34302	0.07932
3903.41445	0.08039
3901.48589	0.08150
3899.55732	0.08151
3897.62876	0.08054
3895.70020	0.07966
3893.77163	0.07942
3891.84307	0.07953
3889.91450	0.07936
3887.98594	0.07889
3886.05737	0.07889
3884.12881	0.07941
3882.20024	0.07950
3880.27168	0.07920
3878.34312	0.07924
3876.41455	0.07964
3874.48599	0.08030
3872.55742	0.08117
3870.62886	0.08179
3868.70029	0.08193
3866.77173	0.08147
3864.84316	0.08125
3862.91460	0.08193
3860.98604	0.08257
3859.05747	0.08272
3857.12891	0.08295
3855.20034	0.08356
3853.27178	0.08480
3851.34321	0.08553
3849.41465	0.08505
3847.48608	0.08485
3845.55752	0.08521
3843.62896	0.08600
3841.70039	0.08684
3839.77183	0.08783
3837.84326	0.08918
3835.91470	0.08998
3833.98613	0.09030
3832.05757	0.09062
3830.12900	0.09083
3828.20044	0.09118
3826.27187	0.09188
3824.34331	0.09262
3822.41475	0.09345
3820.48618	0.09484
3818.55762	0.09579
3816.62905	0.09653
3814.70049	0.09792
3812.77192	0.09840
3810.84336	0.09815
3808.91479	0.09851
3806.98623	0.10001
3805.05767	0.10200
3803.12910	0.10321
3801.20054	0.10414
3799.27197	0.10523
3797.34341	0.10620
3795.41484	0.10726
3793.48628	0.10810
3791.55771	0.10889
3789.62915	0.10997
3787.70059	0.11096
3785.77202	0.11182
3783.84346	0.11311
3781.91489	0.11494
3779.98633	0.11704
3778.05776	0.11913
3776.12920	0.12043
3774.20063	0.12134
3772.27207	0.12281
3770.34351	0.12502
3768.41494	0.12750
3766.48638	0.12925
3764.55781	0.13055
3762.62925	0.13204
3760.70068	0.13404
3758.77212	0.13680
3756.84355	0.13958
3754.91499	0.14171
3752.98643	0.14395
3751.05786	0.14731
3749.12930	0.15152
3747.20073	0.15447
3745.27217	0.15700
3743.34360	0.16058
3741.41504	0.16353
3739.48647	0.16591
3737.55791	0.16936
3735.62935	0.17429
3733.70078	0.17998
3731.77222	0.18513
3729.84365	0.18958
3727.91509	0.19347
3725.98652	0.19816
3724.05796	0.20451
3722.12939	0.21128
3720.20083	0.21778
3718.27227	0.22437
3716.34370	0.23126
3714.41514	0.23839
3712.48657	0.24735
3710.55801	0.26047
3708.62944	0.27469
3706.70088	0.28648
3704.77231	0.29751
3702.84375	0.31009
3700.91519	0.32664
3698.98662	0.34477
3697.05806	0.36139
3695.12949	0.37903
3693.20093	0.39800
3691.27236	0.41843
3689.34380	0.44520
3687.41523	0.47889
3685.48667	0.50870
3683.55811	0.53438
3681.62954	0.56203
3679.70098	0.59334
3677.77241	0.62626
3675.84385	0.66486
3673.91528	0.71616
3671.98672	0.75779
3670.05815	0.79472
3668.12959	0.84671
3666.20103	0.89531
3664.27246	0.93560
3662.34390	0.97838
3660.41533	1.02463
3658.48677	1.07000
3656.55820	1.11785
3654.62964	1.17155
3652.70107	1.21735
3650.77251	1.25709
3648.84395	1.31172
3646.91538	1.37904
3644.98682	1.42865
3643.05825	1.46710
3641.12969	1.50644
3639.20112	1.54926
3637.27256	1.59252
3635.34399	1.63566
3633.41543	1.67927
3631.48687	1.71920
3629.55830	1.75862
3627.62974	1.81165
3625.70117	1.86304
3623.77261	1.89749
3621.84404	1.92927
3619.91548	1.96495
3617.98691	2.00843
3616.05835	2.05213
3614.12979	2.09024
3612.20122	2.12983
3610.27266	2.16863
3608.34409	2.20775
3606.41553	2.25020
3604.48696	2.28962
3602.55840	2.32398
3600.62983	2.36063
3598.70127	2.40139
3596.77271	2.44202
3594.84414	2.48287
3592.91558	2.52451
3590.98701	2.56337
3589.05845	2.59906
3587.12988	2.64143
3585.20132	2.68897
3583.27275	2.72992
3581.34419	2.76816
3579.41562	2.80990
3577.48706	2.85399
3575.55850	2.89705
3573.62993	2.94048
3571.70137	2.98235
3569.77280	3.02046
3567.84424	3.06168
3565.91567	3.11562
3563.98711	3.16746
3562.05854	3.20745
3560.12998	3.24848
3558.20142	3.29488
3556.27285	3.34141
3554.34429	3.38429
3552.41572	3.42847
3550.48716	3.47542
3548.55859	3.52227
3546.63003	3.57082
3544.70146	3.62249
3542.77290	3.67158
3540.84434	3.71532
3538.91577	3.75774
3536.98721	3.80047
3535.05864	3.84703
3533.13008	3.89856
3531.20151	3.94986
3529.27295	3.99945
3527.34438	4.05079
3525.41582	4.10042
3523.48726	4.14572
3521.55869	4.18935
3519.63013	4.23477
3517.70156	4.28699
3515.77300	4.33878
3513.84443	4.38299
3511.91587	4.42810
3509.98730	4.48226
3508.05874	4.53918
3506.13018	4.58612
3504.20161	4.62377
3502.27305	4.66493
3500.34448	4.71167
3498.41592	4.75935
3496.48735	4.81265
3494.55879	4.86680
3492.63022	4.91488
3490.70166	4.96221
3488.77310	5.01096
3486.84453	5.06182
3484.91597	5.11746
3482.98740	5.17266
3481.05884	5.22058
3479.13027	5.26333
3477.20171	5.30887
3475.27314	5.35974
3473.34458	5.40777
3471.41602	5.44867
3469.48745	5.49453
3467.55889	5.55369
3465.63032	5.61288
3463.70176	5.66297
3461.77319	5.71808
3459.84463	5.77789
3457.91606	5.82310
3455.98750	5.86607
3454.05894	5.92486
3452.13037	5.99009
3450.20181	6.04403
3448.27324	6.08103
3446.34468	6.12422
3444.41611	6.18786
3442.48755	6.25518
3440.55898	6.31020
3438.63042	6.35826
3436.70186	6.41246
3434.77329	6.47696
3432.84473	6.53313
3430.91616	6.56535
3428.98760	6.58998
3427.05903	6.61901
3425.13047	6.66839
3423.20190	6.73284
3421.27334	6.79605
3419.34478	6.86456
3417.41621	6.93605
3415.48765	6.99409
3413.55908	7.02646
3411.63052	7.05306
3409.70195	7.09022
3407.77339	7.12846
3405.84482	7.17311
3403.91626	7.25408
3401.98770	7.33839
3400.05913	7.37541
3398.13057	7.39498
3396.20200	7.42128
3394.27344	7.45354
3392.34487	7.49985
3390.41631	7.55847
3388.48774	7.60724
3386.55918	7.63786
3384.63062	7.63182
3382.70205	7.62493
3380.77349	7.66967
3378.84492	7.77800
3376.91636	7.92878
3374.98779	7.98223
3373.05923	7.91927
3371.13066	7.88863
3369.20210	7.93548
3367.27354	7.98493
3365.34497	8.01563
3363.41641	8.07213
3361.48784	8.12223
3359.55928	8.09858
3357.63071	8.01982
3355.70215	7.98968
3353.77358	8.01279
3351.84502	8.03921
3349.91646	8.11440
3347.98789	8.27186
3346.05933	8.35996
3344.13076	8.29253
3342.20220	8.21065
3340.27363	8.17264
3338.34507	8.14880
3336.41650	8.12149
3334.48794	8.12099
3332.55937	8.13737
3330.63081	8.17548
3328.70225	8.25332
3326.77368	8.29674
3324.84512	8.25926
3322.91655	8.23500
3320.98799	8.29353
3319.05942	8.36300
3317.13086	8.44087
3315.20229	8.51397
3313.27373	8.46434
3311.34517	8.37477
3309.41660	8.45027
3307.48804	8.67861
3305.55947	8.79521
3303.63091	8.64452
3301.70234	8.48883
3299.77378	8.57747
3297.84521	8.67814
3295.91665	8.52527
3293.98809	8.37094
3292.05952	8.39866
3290.13096	8.53854
3288.20239	8.65738
3286.27383	8.74929
3284.34526	8.74725
3282.41670	8.55683
3280.48813	8.34655
3278.55957	8.28075
3276.63101	8.34118
3274.70244	8.45191
3272.77388	8.51863
3270.84531	8.51400
3268.91675	8.53248
3266.98818	8.58232
3265.05962	8.56138
3263.13105	8.43750
3261.20249	8.37959
3259.27393	8.50463
3257.34536	8.67467
3255.41680	8.64468
3253.48823	8.53961
3251.55967	8.58243
3249.63110	8.63871
3247.70254	8.62649
3245.77397	8.70126
3243.84541	8.79189
3241.91685	8.79612
3239.98828	8.81986
3238.05972	8.72401
3236.13115	8.46704
3234.20259	8.31515
3232.27402	8.34044
3230.34546	8.43576
3228.41689	8.45426
3226.48833	8.36428
3224.55977	8.27598
3222.63120	8.26945
3220.70264	8.33830
3218.77407	8.44776
3216.84551	8.54575
3214.91694	8.55075
3212.98838	8.43752
3211.05981	8.27236
3209.13125	8.17279
3207.20269	8.19381
3205.27412	8.20256
3203.34556	8.09440
3201.41699	7.99386
3199.48843	7.98138
3197.55986	7.98426
3195.63130	7.89123
3193.70273	7.76052
3191.77417	7.70590
3189.84561	7.70416
3187.91704	7.72931
3185.98848	7.78287
3184.05991	7.79560
3182.13135	7.71984
3180.20278	7.62458
3178.27422	7.56844
3176.34565	7.50913
3174.41709	7.38925
3172.48853	7.25238
3170.55996	7.17345
3168.63140	7.13945
3166.70283	7.09769
3164.77427	7.04976
3162.84570	7.00725
3160.91714	6.94281
3158.98857	6.84283
3157.06001	6.74770
3155.13145	6.68658
3153.20288	6.62383
3151.27432	6.53528
3149.34575	6.44528
3147.41719	6.37526
3145.48862	6.32144
3143.56006	6.27015
3141.63149	6.21579
3139.70293	6.14299
3137.77437	6.05178
3135.84580	5.96388
3133.91724	5.88769
3131.98867	5.81629
3130.06011	5.73980
3128.13154	5.66110
3126.20298	5.58028
3124.27441	5.49395
3122.34585	5.41320
3120.41729	5.34462
3118.48872	5.27996
3116.56016	5.21474
3114.63159	5.14835
3112.70303	5.07670
3110.77446	4.99850
3108.84590	4.91959
3106.91733	4.84861
3104.98877	4.78534
3103.06021	4.72348
3101.13164	4.65973
3099.20308	4.59195
3097.27451	4.52032
3095.34595	4.44910
3093.41738	4.38328
3091.48882	4.32285
3089.56025	4.25926
3087.63169	4.18886
3085.70312	4.11989
3083.77456	4.05599
3081.84600	3.99369
3079.91743	3.93039
3077.98887	3.86777
3076.06030	3.80877
3074.13174	3.75162
3072.20317	3.69349
3070.27461	3.63420
3068.34604	3.57489
3066.41748	3.51482
3064.48892	3.45412
3062.56035	3.39656
3060.63179	3.34313
3058.70322	3.29050
3056.77466	3.23580
3054.84609	3.17969
3052.91753	3.12567
3050.98896	3.07467
3049.06040	3.02305
3047.13184	2.96974
3045.20327	2.91839
3043.27471	2.86977
3041.34614	2.82163
3039.41758	2.77397
3037.48901	2.72650
3035.56045	2.67847
3033.63188	2.63165
3031.70332	2.58693
3029.77476	2.54345
3027.84619	2.50056
3025.91763	2.45735
3023.98906	2.41409
3022.06050	2.37155
3020.13193	2.32961
3018.20337	2.28838
3016.27480	2.24782
3014.34624	2.20741
3012.41768	2.16747
3010.48911	2.12871
3008.56055	2.09099
3006.63198	2.05451
3004.70342	2.01945
3002.77485	1.98415
3000.84629	1.94813
2998.91772	1.91313
2996.98916	1.87971
2995.06060	1.84713
2993.13203	1.81498
2991.20347	1.78340
2989.27490	1.75256
2987.34634	1.72249
2985.41777	1.69309
2983.48921	1.66409
2981.56064	1.63554
2979.63208	1.60758
2977.70352	1.58018
2975.77495	1.55344
2973.84639	1.52722
2971.91782	1.50151
2969.98926	1.47639
2968.06069	1.45196
2966.13213	1.42805
2964.20356	1.40362
2962.27500	1.37843
2960.34644	1.35381
2958.41787	1.33025
2956.48931	1.30670
2954.56074	1.28295
2952.63218	1.25984
2950.70361	1.23748
2948.77505	1.21568
2946.84648	1.19427
2944.91792	1.17284
2942.98936	1.15144
2941.06079	1.13065
2939.13223	1.11094
2937.20366	1.09188
2935.27510	1.07303
2933.34653	1.05457
2931.41797	1.03644
2929.48940	1.01803
2927.56084	0.99896
2925.63228	0.98018
2923.70371	0.96275
2921.77515	0.94549
2919.84658	0.92761
2917.91802	0.91044
2915.98945	0.89437
2914.06089	0.87836
2912.13232	0.86237
2910.20376	0.84658
2908.27520	0.83080
2906.34663	0.81547
2904.41807	0.80106
2902.48950	0.78756
2900.56094	0.77436
2898.63237	0.76113
2896.70381	0.74813
2894.77524	0.73508
2892.84668	0.72189
2890.91812	0.70931
2888.98955	0.69751
2887.06099	0.68617
2885.13242	0.67544
2883.20386	0.66524
2881.27529	0.65527
2879.34673	0.64556
2877.41816	0.63603
2875.48960	0.62622
2873.56104	0.61582
2871.63247	0.60520
2869.70391	0.59468
2867.77534	0.58386
2865.84678	0.57291
2863.91821	0.56261
2861.98965	0.55262
2860.06108	0.54267
2858.13252	0.53311
2856.20396	0.52378
2854.27539	0.51488
2852.34683	0.50674
2850.41826	0.49864
2848.48970	0.49015
2846.56113	0.48187
2844.63257	0.47412
2842.70400	0.46687
2840.77544	0.46015
2838.84687	0.45392
2836.91831	0.44788
2834.98975	0.44179
2833.06118	0.43559
2831.13262	0.42917
2829.20405	0.42279
2827.27549	0.41675
2825.34692	0.41079
2823.41836	0.40483
2821.48979	0.39884
2819.56123	0.39287
2817.63267	0.38726
2815.70410	0.38196
2813.77554	0.37677
2811.84697	0.37164
2809.91841	0.36631
2807.98984	0.36081
2806.06128	0.35554
2804.13271	0.35057
2802.20415	0.34559
2800.27559	0.34052
2798.34702	0.33565
2796.41846	0.33115
2794.48989	0.32676
2792.56133	0.32229
2790.63276	0.31778
2788.70420	0.31330
2786.77563	0.30896
2784.84707	0.30482
2782.91851	0.30078
2780.98994	0.29683
2779.06138	0.29308
2777.13281	0.28947
2775.20425	0.28581
2773.27568	0.28211
2771.34712	0.27845
2769.41855	0.27492
2767.48999	0.27146
2765.56143	0.26807
2763.63286	0.26476
2761.70430	0.26159
2759.77573	0.25846
2757.84717	0.25518
2755.91860	0.25189
2753.99004	0.24885
2752.06147	0.24603
2750.13291	0.24321
2748.20435	0.24046
2746.27578	0.23789
2744.34722	0.23530
2742.41865	0.23264
2740.49009	0.23002
2738.56152	0.22751
2736.63296	0.22526
2734.70439	0.22306
2732.77583	0.22064
2730.84727	0.21820
2728.91870	0.21596
2726.99014	0.21374
2725.06157	0.21149
2723.13301	0.20937
2721.20444	0.20739
2719.27588	0.20542
2717.34731	0.20336
2715.41875	0.20136
2713.49019	0.19976
2711.56162	0.19838
2709.63306	0.19688
2707.70449	0.19517
2705.77593	0.19342
2703.84736	0.19181
2701.91880	0.19026
2699.99023	0.18868
2698.06167	0.18730
2696.13311	0.18618
2694.20454	0.18491
2692.27598	0.18342
2690.34741	0.18195
2688.41885	0.18065
2686.49028	0.17949
2684.56172	0.17828
2682.63315	0.17700
2680.70459	0.17585
2678.77603	0.17488
2676.84746	0.17375
2674.91890	0.17244
2672.99033	0.17130
2671.06177	0.17046
2669.13320	0.16972
2667.20464	0.16885
2665.27607	0.16790
2663.34751	0.16696
2661.41895	0.16604
2659.49038	0.16525
2657.56182	0.16462
2655.63325	0.16392
2653.70469	0.16318
2651.77612	0.16259
2649.84756	0.16201
2647.91899	0.16137
2645.99043	0.16079
2644.06187	0.16027
2642.13330	0.15967
2640.20474	0.15903
2638.27617	0.15837
2636.34761	0.15767
2634.41904	0.15709
2632.49048	0.15678
2630.56191	0.15653
2628.63335	0.15617
2626.70479	0.15580
2624.77622	0.15548
2622.84766	0.15526
2620.91909	0.15514
2618.99053	0.15491
2617.06196	0.15457
2615.13340	0.15442
2613.20483	0.15443
2611.27627	0.15437
2609.34771	0.15427
2607.41914	0.15429
2605.49058	0.15435
2603.56201	0.15425
2601.63345	0.15407
2599.70488	0.15394
2597.77632	0.15392
2595.84775	0.15401
2593.91919	0.15426
2591.99062	0.15457
2590.06206	0.15477
2588.13350	0.15480
2586.20493	0.15474
2584.27637	0.15475
2582.34780	0.15503
2580.41924	0.15556
2578.49067	0.15602
2576.56211	0.15624
2574.63354	0.15642
2572.70498	0.15681
2570.77642	0.15733
2568.84785	0.15771
2566.91929	0.15794
2564.99072	0.15827
2563.06216	0.15881
2561.13359	0.15932
2559.20503	0.15965
2557.27646	0.15996
2555.34790	0.16043
2553.41934	0.16100
2551.49077	0.16153
2549.56221	0.16196
2547.63364	0.16242
2545.70508	0.16301
2543.77651	0.16376
2541.84795	0.16466
2539.91938	0.16549
2537.99082	0.16600
2536.06226	0.16642
2534.13369	0.16697
2532.20513	0.16752
2530.27656	0.16821
2528.34800	0.16902
2526.41943	0.16967
2524.49087	0.17034
2522.56230	0.17129
2520.63374	0.17227
2518.70518	0.17304
2516.77661	0.17379
2514.84805	0.17460
2512.91948	0.17536
2510.99092	0.17603
2509.06235	0.17666
2507.13379	0.17741
2505.20522	0.17831
2503.27666	0.17921
2501.34810	0.18007
2499.41953	0.18094
2497.49097	0.18176
2495.56240	0.18246
2493.63384	0.18315
2491.70527	0.18403
2489.77671	0.18504
2487.84814	0.18599
2485.91958	0.18687
2483.99102	0.18775
2482.06245	0.18864
2480.13389	0.18958
2478.20532	0.19051
2476.27676	0.19133
2474.34819	0.19215
2472.41963	0.19304
2470.49106	0.19401
2468.56250	0.19492
2466.63394	0.19579
2464.70537	0.19670
2462.77681	0.19765
2460.84824	0.19860
2458.91968	0.19959
2456.99111	0.20057
2455.06255	0.20145
2453.13398	0.20232
2451.20542	0.20330
2449.27686	0.20430
2447.34829	0.20528
2445.41973	0.20629
2443.49116	0.20736
2441.56260	0.20833
2439.63403	0.20926
2437.70547	0.21032
2435.77690	0.21150
2433.84834	0.21264
2431.91978	0.21358
2429.99121	0.21439
2428.06265	0.21526
2426.13408	0.21628
2424.20552	0.21743
2422.27695	0.21868
2420.34839	0.21991
2418.41982	0.22101
2416.49126	0.22213
2414.56270	0.22325
2412.63413	0.22433
2410.70557	0.22541
2408.77700	0.22651
2406.84844	0.22769
2404.91987	0.22896
2402.99131	0.23015
2401.06274	0.23125
2399.13418	0.23243
2397.20562	0.23368
2395.27705	0.23482
2393.34849	0.23598
2391.41992	0.23731
2389.49136	0.23874
2387.56279	0.24027
2385.63423	0.24211
2383.70566	0.24436
2381.77710	0.24702
2379.84854	0.25004
2377.91997	0.25353
2375.99141	0.25748
2374.06284	0.26208
2372.13428	0.26770
2370.20571	0.27363
2368.27715	0.27847
2366.34858	0.28252
2364.42002	0.28687
2362.49146	0.29032
2360.56289	0.29153
2358.63433	0.29260
2356.70576	0.29415
2354.77720	0.29354
2352.84863	0.29071
2350.92007	0.28738
2348.99150	0.28565
2347.06294	0.28661
2345.13437	0.29009
2343.20581	0.29419
2341.27725	0.29719
2339.34868	0.29960
2337.42012	0.30134
2335.49155	0.30244
2333.56299	0.30350
2331.63442	0.30485
2329.70586	0.30606
2327.77729	0.30672
2325.84873	0.30688
2323.92017	0.30684
2321.99160	0.30708
2320.06304	0.30759
2318.13447	0.30794
2316.20591	0.30803
2314.27734	0.30820
2312.34878	0.30893
2310.42021	0.31013
2308.49165	0.31116
2306.56309	0.31185
2304.63452	0.31268
2302.70596	0.31384
2300.77739	0.31523
2298.84883	0.31661
2296.92026	0.31781
2294.99170	0.31894
2293.06313	0.32019
2291.13457	0.32166
2289.20601	0.32329
2287.27744	0.32494
2285.34888	0.32661
2283.42031	0.32842
2281.49175	0.33035
2279.56318	0.33236
2277.63462	0.33441
2275.70605	0.33657
2273.77749	0.33880
2271.84893	0.34093
2269.92036	0.34289
2267.99180	0.34486
2266.06323	0.34687
2264.13467	0.34883
2262.20610	0.35081
2260.27754	0.35285
2258.34897	0.35494
2256.42041	0.35706
2254.49185	0.35914
2252.56328	0.36122
2250.63472	0.36349
2248.70615	0.36579
2246.77759	0.36792
2244.84902	0.36997
2242.92046	0.37195
2240.99189	0.37392
2239.06333	0.37596
2237.13477	0.37811
2235.20620	0.38043
2233.27764	0.38286
2231.34907	0.38516
2229.42051	0.38735
2227.49194	0.38960
2225.56338	0.39178
2223.63481	0.39392
2221.70625	0.39618
2219.77769	0.39839
2217.84912	0.40050
2215.92056	0.40268
2213.99199	0.40491
2212.06343	0.40711
2210.13486	0.40923
2208.20630	0.41129
2206.27773	0.41334
2204.34917	0.41541
2202.42061	0.41753
2200.49204	0.41973
2198.56348	0.42189
2196.63491	0.42384
2194.70635	0.42571
2192.77778	0.42763
2190.84922	0.42954
2188.92065	0.43142
2186.99209	0.43323
2185.06353	0.43489
2183.13496	0.43647
2181.20640	0.43812
2179.27783	0.43986
2177.34927	0.44154
2175.42070	0.44304
2173.49214	0.44443
2171.56357	0.44578
2169.63501	0.44714
2167.70645	0.44850
2165.77788	0.44981
2163.84932	0.45105
2161.92075	0.45222
2159.99219	0.45336
2158.06362	0.45436
2156.13506	0.45519
2154.20649	0.45594
2152.27793	0.45675
2150.34937	0.45762
2148.42080	0.45832
2146.49224	0.45870
2144.56367	0.45902
2142.63511	0.45939
2140.70654	0.45968
2138.77798	0.45995
2136.84941	0.46011
2134.92085	0.46006
2132.99229	0.45993
2131.06372	0.45990
2129.13516	0.45993
2127.20659	0.45977
2125.27803	0.45937
2123.34946	0.45887
2121.42090	0.45838
2119.49233	0.45790
2117.56377	0.45731
2115.63521	0.45637
2113.70664	0.45529
2111.77808	0.45435
2109.84951	0.45347
2107.92095	0.45247
2105.99238	0.45131
2104.06382	0.45002
2102.13525	0.44869
2100.20669	0.44742
2098.27812	0.44605
2096.34956	0.44452
2094.42100	0.44288
2092.49243	0.44115
2090.56387	0.43941
2088.63530	0.43770
2086.70674	0.43591
2084.77817	0.43395
2082.84961	0.43192
2080.92104	0.42996
2078.99248	0.42803
2077.06392	0.42606
2075.13535	0.42392
2073.20679	0.42161
2071.27822	0.41928
2069.34966	0.41694
2067.42109	0.41457
2065.49253	0.41230
2063.56396	0.40994
2061.63540	0.40744
2059.70684	0.40493
2057.77827	0.40239
2055.84971	0.39983
2053.92114	0.39734
2051.99258	0.39487
2050.06401	0.39222
2048.13545	0.38939
2046.20688	0.38654
2044.27832	0.38377
2042.34976	0.38102
2040.42119	0.37840
2038.49263	0.37586
2036.56406	0.37314
2034.63550	0.37033
2032.70693	0.36759
2030.77837	0.36481
2028.84980	0.36194
2026.92124	0.35911
2024.99268	0.35627
2023.06411	0.35343
2021.13555	0.35069
2019.20698	0.34801
2017.27842	0.34529
2015.34985	0.34246
2013.42129	0.33966
2011.49272	0.33694
2009.56416	0.33429
2007.63560	0.33162
2005.70703	0.32891
2003.77847	0.32618
2001.84990	0.32349
1999.92134	0.32083
1997.99277	0.31820
1996.06421	0.31564
1994.13564	0.31321
1992.20708	0.31084
1990.27852	0.30841
1988.34995	0.30607
1986.42139	0.30377
1984.49282	0.30142
1982.56426	0.29901
1980.63569	0.29657
1978.70713	0.29418
1976.77856	0.29180
1974.85000	0.28946
1972.92144	0.28726
1970.99287	0.28528
1969.06431	0.28341
1967.13574	0.28144
1965.20718	0.27938
1963.27861	0.27736
1961.35005	0.27535
1959.42148	0.27336
1957.49292	0.27150
1955.56436	0.26979
1953.63579	0.26815
1951.70723	0.26652
1949.77866	0.26494
1947.85010	0.26338
1945.92153	0.26184
1943.99297	0.26038
1942.06440	0.25888
1940.13584	0.25732
1938.20728	0.25584
1936.27871	0.25451
1934.35015	0.25331
1932.42158	0.25217
1930.49302	0.25099
1928.56445	0.24980
1926.63589	0.24872
1924.70732	0.24789
1922.77876	0.24710
1920.85020	0.24616
1918.92163	0.24518
1916.99307	0.24422
1915.06450	0.24324
1913.13594	0.24232
1911.20737	0.24157
1909.27881	0.24093
1907.35024	0.24030
1905.42168	0.23965
1903.49312	0.23899
1901.56455	0.23841
1899.63599	0.23797
1897.70742	0.23759
1895.77886	0.23720
1893.85029	0.23684
1891.92173	0.23649
1889.99316	0.23632
1888.06460	0.23616
1886.13604	0.23587
1884.20747	0.23560
1882.27891	0.23541
1880.35034	0.23526
1878.42178	0.23515
1876.49321	0.23518
1874.56465	0.23522
1872.63608	0.23525
1870.70752	0.23544
1868.77896	0.23593
1866.85039	0.23624
1864.92183	0.23618
1862.99326	0.23623
1861.06470	0.23655
1859.13613	0.23708
1857.20757	0.23750
1855.27900	0.23784
1853.35044	0.23823
1851.42187	0.23878
1849.49331	0.23938
1847.56475	0.24003
1845.63618	0.24080
1843.70762	0.24173
1841.77905	0.24256
1839.85049	0.24312
1837.92192	0.24388
1835.99336	0.24477
1834.06479	0.24572
1832.13623	0.24680
1830.20767	0.24821
1828.27910	0.24957
1826.35054	0.25052
1824.42197	0.25170
1822.49341	0.25299
1820.56484	0.25433
1818.63628	0.25579
1816.70771	0.25741
1814.77915	0.25894
1812.85059	0.26050
1810.92202	0.26247
1808.99346	0.26472
1807.06489	0.26689
1805.13633	0.26887
1803.20776	0.27106
1801.27920	0.27358
1799.35063	0.27636
1797.42207	0.27887
1795.49351	0.28121
1793.56494	0.28386
1791.63638	0.28734
1789.70781	0.29090
1787.77925	0.29370
1785.85068	0.29690
1783.92212	0.30059
1781.99355	0.30445
1780.06499	0.30850
1778.13643	0.31276
1776.20786	0.31684
1774.27930	0.32111
1772.35073	0.32674
1770.42217	0.33303
1768.49360	0.33856
1766.56504	0.34379
1764.63647	0.34901
1762.70791	0.35483
1760.77935	0.36235
1758.85078	0.36941
1756.92222	0.37649
1754.99365	0.38431
1753.06509	0.39139
1751.13652	0.39967
1749.20796	0.41027
1747.27939	0.42098
1745.35083	0.43024
1743.42227	0.43973
1741.49370	0.45027
1739.56514	0.46304
1737.63657	0.47577
1735.70801	0.48640
1733.77944	0.50239
1731.85088	0.52231
1729.92231	0.53828
1727.99375	0.55419
1726.06519	0.57108
1724.13662	0.58936
1722.20806	0.60919
1720.27949	0.62765
1718.35093	0.64917
1716.42236	0.68068
1714.49380	0.71089
1712.56523	0.73571
1710.63667	0.75972
1708.70811	0.78545
1706.77954	0.81478
1704.85098	0.84991
1702.92241	0.88118
1700.99385	0.91187
1699.06528	0.95748
1697.13672	0.99990
1695.20815	1.04397
1693.27959	1.08698
1691.35103	1.12180
1689.42246	1.16177
1687.49390	1.20353
1685.56533	1.24391
1683.63677	1.30633
1681.70820	1.37069
1679.77964	1.41203
1677.85107	1.45160
1675.92251	1.49695
1673.99395	1.55302
1672.06538	1.60329
1670.13682	1.65296
1668.20825	1.71711
1666.27969	1.76877
1664.35112	1.81225
1662.42256	1.86709
1660.49399	1.92908
1658.56543	1.97702
1656.63687	2.01532
1654.70830	2.05154
1652.77974	2.11042
1650.85117	2.16443
1648.92261	2.18269
1646.99404	2.20646
1645.06548	2.23295
1643.13691	2.25080
1641.20835	2.26228
1639.27979	2.27266
1637.35122	2.27843
1635.42266	2.27684
1633.49409	2.26914
1631.56553	2.25750
1629.63696	2.24204
1627.70840	2.21382
1625.77983	2.17967
1623.85127	2.13837
1621.92271	2.09009
1619.99414	2.04750
1618.06558	2.00399
1616.13701	1.93927
1614.20845	1.87335
1612.27988	1.82454
1610.35132	1.77493
1608.42275	1.72147
1606.49419	1.66849
1604.56562	1.61958
1602.63706	1.57263
1600.70850	1.52650
1598.77993	1.48319
1596.85137	1.44206
1594.92280	1.40213
1592.99424	1.36362
1591.06567	1.32843
1589.13711	1.29558
1587.20854	1.26495
1585.27998	1.23623
1583.35142	1.20875
1581.42285	1.18340
1579.49429	1.16194
1577.56572	1.14300
1575.63716	1.12043
1573.70859	1.10065
1571.78003	1.08764
1569.85146	1.07398
1567.92290	1.05905
1565.99434	1.04815
1564.06577	1.04001
1562.13721	1.03397
1560.20864	1.03054
1558.28008	1.02722
1556.35151	1.02307
1554.42295	1.01944
1552.49438	1.01624
1550.56582	1.01244
1548.63726	1.00687
1546.70869	1.00014
1544.78013	0.99180
1542.85156	0.98115
1540.92300	0.96620
1538.99443	0.94331
1537.06587	0.92606
1535.13730	0.91405
1533.20874	0.89856
1531.28018	0.88231
1529.35161	0.87026
1527.42305	0.85849
1525.49448	0.84648
1523.56592	0.83663
1521.63735	0.82732
1519.70879	0.81763
1517.78022	0.80903
1515.85166	0.79937
1513.92310	0.78970
1511.99453	0.78141
1510.06597	0.77377
1508.13740	0.76634
1506.20884	0.75509
1504.28027	0.74493
1502.35171	0.73910
1500.42314	0.73410
1498.49458	0.72881
1496.56602	0.72275
1494.63745	0.71682
1492.70889	0.71220
1490.78032	0.70819
1488.85176	0.70365
1486.92319	0.69935
1484.99463	0.69603
1483.06606	0.69344
1481.13750	0.69116
1479.20894	0.68925
1477.28037	0.68811
1475.35181	0.68764
1473.42324	0.68749
1471.49468	0.68655
1469.56611	0.68453
1467.63755	0.68234
1465.70898	0.68030
1463.78042	0.67842
1461.85186	0.67715
1459.92329	0.67666
1457.99473	0.67622
1456.06616	0.67430
1454.13760	0.67125
1452.20903	0.66841
1450.28047	0.66571
1448.35190	0.66307
1446.42334	0.66042
1444.49478	0.65798
1442.56621	0.65563
1440.63765	0.65309
1438.70908	0.65046
1436.78052	0.64740
1434.85195	0.64397
1432.92339	0.64113
1430.99482	0.63908
1429.06626	0.63757
1427.13770	0.63641
1425.20913	0.63562
1423.28057	0.63538
1421.35200	0.63545
1419.42344	0.63536
1417.49487	0.63455
1415.56631	0.63313
1413.63774	0.63191
1411.70918	0.63128
1409.78062	0.63135
1407.85205	0.63183
1405.92349	0.63236
1403.99492	0.63270
1402.06636	0.63258
1400.13779	0.63192
1398.20923	0.63049
1396.28066	0.62825
1394.35210	0.62538
1392.42354	0.62230
1390.49497	0.61929
1388.56641	0.61608
1386.63784	0.61245
1384.70928	0.60883
1382.78071	0.60549
1380.85215	0.60227
1378.92358	0.59945
1376.99502	0.59730
1375.06646	0.59573
1373.13789	0.59454
1371.20933	0.59359
1369.28076	0.59267
1367.35220	0.59154
1365.42363	0.59024
1363.49507	0.58892
1361.56650	0.58763
1359.63794	0.58626
1357.70937	0.58486
1355.78081	0.58355
1353.85225	0.58245
1351.92368	0.58159
1349.99512	0.58087
1348.06655	0.58011
1346.13799	0.57926
1344.20942	0.57838
1342.28086	0.57755
1340.35229	0.57686
1338.42373	0.57612
1336.49517	0.57524
1334.56660	0.57444
1332.63804	0.57389
1330.70947	0.57356
1328.78091	0.57348
1326.85234	0.57364
1324.92378	0.57393
1322.99521	0.57431
1321.06665	0.57456
1319.13809	0.57452
1317.20952	0.57427
1315.28096	0.57404
1313.35239	0.57358
1311.42383	0.57273
1309.49526	0.57185
1307.56670	0.57118
1305.63813	0.57064
1303.70957	0.57009
1301.78101	0.56951
1299.85244	0.56887
1297.92388	0.56813
1295.99531	0.56718
1294.06675	0.56616
1292.13818	0.56535
1290.20962	0.56453
1288.28105	0.56344
1286.35249	0.56225
1284.42393	0.56119
1282.49536	0.56018
1280.56680	0.55918
1278.63823	0.55822
1276.70967	0.55731
1274.78110	0.55636
1272.85254	0.55539
1270.92397	0.55465
1268.99541	0.55417
1267.06685	0.55364
1265.13828	0.55295
1263.20972	0.55227
1261.28115	0.55162
1259.35259	0.55097
1257.42402	0.55045
1255.49546	0.55016
1253.56689	0.54997
1251.63833	0.54980
1249.70977	0.54960
1247.78120	0.54925
1245.85264	0.54885
1243.92407	0.54847
1241.99551	0.54786
1240.06694	0.54687
1238.13838	0.54561
1236.20981	0.54419
1234.28125	0.54249
1232.35269	0.54060
1230.42412	0.53884
1228.49556	0.53736
1226.56699	0.53598
1224.63843	0.53464
1222.70986	0.53331
1220.78130	0.53213
1218.85273	0.53112
1216.92417	0.53008
1214.99561	0.52896
1213.06704	0.52795
1211.13848	0.52719
1209.20991	0.52658
1207.28135	0.52598
1205.35278	0.52536
1203.42422	0.52474
1201.49565	0.52406
1199.56709	0.52325
1197.63853	0.52237
1195.70996	0.52171
1193.78140	0.52127
1191.85283	0.52092
1189.92427	0.52061
1187.99570	0.52022
1186.06714	0.51975
1184.13857	0.51951
1182.21001	0.51971
1180.28145	0.52037
1178.35288	0.52138
1176.42432	0.52249
1174.49575	0.52353
1172.56719	0.52440
1170.63862	0.52504
1168.71006	0.52547
1166.78149	0.52576
1164.85293	0.52598
1162.92437	0.52608
1160.99580	0.52607
1159.06724	0.52596
1157.13867	0.52562
1155.21011	0.52499
1153.28154	0.52398
1151.35298	0.52242
1149.42441	0.52030
1147.49585	0.51782
1145.56729	0.51524
1143.63872	0.51261
1141.71016	0.51004
1139.78159	0.50791
1137.85303	0.50632
1135.92446	0.50497
1133.99590	0.50374
1132.06733	0.50274
1130.13877	0.50198
1128.21021	0.50114
1126.28164	0.50006
1124.35308	0.49916
1122.42451	0.49872
1120.49595	0.49852
1118.56738	0.49842
1116.63882	0.49855
1114.71025	0.49883
1112.78169	0.49909
1110.85312	0.49942
1108.92456	0.50011
1106.99600	0.50131
1105.06743	0.50271
1103.13887	0.50399
1101.21030	0.50517
1099.28174	0.50653
1097.35317	0.50842
1095.42461	0.51094
1093.49604	0.51421
1091.56748	0.51854
1089.63892	0.52426
1087.71035	0.53130
1085.78179	0.53918
1083.85322	0.54717
1081.92466	0.55429
1079.99609	0.55989
1078.06753	0.56345
1076.13896	0.56414
1074.21040	0.56149
1072.28184	0.55615
1070.35327	0.54962
1068.42471	0.54287
1066.49614	0.53588
1064.56758	0.52910
1062.63901	0.52337
1060.71045	0.51863
1058.78188	0.51450
1056.85332	0.51072
1054.92476	0.50695
1052.99619	0.50345
1051.06763	0.50074
1049.13906	0.49884
1047.21050	0.49756
1045.28193	0.49680
1043.35337	0.49647
1041.42480	0.49635
1039.49624	0.49621
1037.56768	0.49607
1035.63911	0.49592
1033.71055	0.49550
1031.78198	0.49480
1029.85342	0.49405
1027.92485	0.49308
1025.99629	0.49186
1024.06772	0.49095
1022.13916	0.49067
1020.21060	0.49069
1018.28203	0.49086
1016.35347	0.49120
1014.42490	0.49147
1012.49634	0.49160
1010.56777	0.49189
1008.63921	0.49246
1006.71064	0.49338
1004.78208	0.49473
1002.85352	0.49656
1000.92495	0.49898
998.99639	0.50212
997.06782	0.50598
995.13926	0.51021
993.21069	0.51432
991.28213	0.51782
989.35356	0.52028
987.42500	0.52155
985.49644	0.52200
983.56787	0.52230
981.63931	0.52290
979.71074	0.52398
977.78218	0.52557
975.85361	0.52758
973.92505	0.52999
971.99648	0.53287
970.06792	0.53623
968.13936	0.54007
966.21079	0.54431
964.28223	0.54884
962.35366	0.55359
960.42510	0.55853
958.49653	0.56389
956.56797	0.56974
954.63940	0.57584
952.71084	0.58202
950.78228	0.58824
948.85371	0.59460
946.92515	0.60128
944.99658	0.60808
943.06802	0.61439
941.13945	0.62032
939.21089	0.62619
937.28232	0.63192
935.35376	0.63763
933.42520	0.64332
931.49663	0.64894
929.56807	0.65491
927.63950	0.66150
925.71094	0.66793
923.78237	0.67344
921.85381	0.67909
919.92524	0.68636
917.99668	0.69471
916.06812	0.70256
914.13955	0.70966
912.21099	0.71708
910.28242	0.72542
908.35386	0.73427
906.42529	0.74319
904.49673	0.75232
902.56816	0.76198
900.63960	0.77201
898.71104	0.78161
896.78247	0.79077
894.85391	0.80068
892.92534	0.81151
890.99678	0.82250
889.06821	0.83329
887.13965	0.84294
885.21108	0.85264
883.28252	0.86519
881.35396	0.87883
879.42539	0.89097
877.49683	0.90252
875.56826	0.91402
873.63970	0.92465
871.71113	0.93474
869.78257	0.94605
867.85400	0.95838
865.92544	0.96885
863.99687	0.97845
862.06831	0.99118
860.13975	1.00554
858.21118	1.01778
856.28262	1.02939
854.35405	1.04267
852.42549	1.05685
850.49692	1.07112
848.56836	1.08353
846.63979	1.09340
844.71123	1.10384
842.78267	1.11651
840.85410	1.13201
838.92554	1.14666
836.99697	1.15562
835.06841	1.16455
833.13984	1.17988
831.21128	1.19767
829.28271	1.21096
827.35415	1.22258
825.42559	1.23990
823.49702	1.26003
821.56846	1.27876
819.63989	1.29494
817.71133	1.30549
815.78276	1.31360
813.85420	1.32493
811.92563	1.34362
809.99707	1.36275
808.06851	1.37531
806.13994	1.39231
804.21138	1.40809
802.28281	1.41389
800.35425	1.42727
798.42568	1.46960
796.49712	1.53018
794.56855	1.55338
792.63999	1.57492
790.71143	1.70712
788.78286	1.93424
786.85430	1.95827
784.92573	1.88991
782.99717	2.29719
781.06860	4.68641
779.14004	4.67484
777.21147	2.29832
775.28291	1.84092
773.35435	1.69347
771.42578	1.81193
769.49722	2.00030
767.56865	1.83892
765.64009	1.71119
763.71152	1.51847
761.78296	1.39626
759.85439	1.35289
757.92583	1.30421
755.99727	1.23078
754.06870	1.13197
752.14014	1.06830
750.21157	1.05827
748.28301	1.06209
746.35444	1.05695
744.42588	1.09347
742.49731	1.12763
740.56875	1.02618
738.64019	0.87361
736.71162	0.75477
734.78306	0.67436
732.85449	0.59296
730.92593	0.49543
728.99736	0.42098
727.06880	0.40247
725.14023	0.42087
723.21167	0.40165
721.28311	0.31465
719.35454	0.22551
717.42598	0.17762
715.49741	0.13724
713.56885	0.08734
711.64028	-0.00457
709.71172	-0.07843
707.78315	0.00472
705.85459	0.11679
703.92603	0.14803
701.99746	-0.00715
700.06890	-0.31549
698.14033	-0.41896
696.21177	-0.17609
694.28320	0.00233
692.35464	0.03665
690.42607	-0.00250
688.49751	0.09463
686.56895	0.24991
684.64038	0.20716
682.71182	0.06001
680.78325	-0.02931
678.85469	-0.01867
676.92612	-0.03007
674.99756	-0.10471
673.06899	-0.14908
671.14043	-0.11093
669.21187	-0.01475
667.28330	0.07454
665.35474	0.10433
663.42617	-0.00476
661.49761	-0.10474
659.56904	-0.13379
657.64048	-0.08435
655.71191	0.02133
653.78335	0.04464
651.85479	-0.11535
649.92622	-0.27793
647.99766	-0.20692
646.06909	-0.11241
644.14053	-0.08669
642.21196	-0.07260
640.28340	-0.02193
638.35483	-0.00155
636.42627	-0.03124
634.49771	-0.06729
632.56914	-0.11066
630.64058	-0.16051
628.71201	-0.18824
626.78345	-0.12680
624.85488	0.00530
622.92632	0.07406
620.99775	0.02575
619.06919	-0.06614
617.14062	-0.07056
615.21206	-0.04730
613.28350	-0.05200
611.35493	-0.02987
609.42637	0.04187
607.49780	0.10346
605.56924	0.09620
603.64067	0.07451
601.71211	0.14297
599.78354	0.29086
597.85498	0.31509
595.92642	0.20726
593.99785	0.13980
592.06929	0.05539
590.14072	-0.01554
588.21216	-0.03586
586.28359	-0.07705
584.35503	-0.12291
582.42646	-0.09175
580.49790	0.03441
578.56934	0.12914
576.64077	0.16689
574.71221	0.19495
572.78364	0.22388
570.85508	0.15906
568.92651	-0.00885
566.99795	-0.15277
565.06938	-0.18700
563.14082	-0.14519
561.21226	-0.07726
559.28369	-0.00829
557.35513	0.03603
555.42656	0.08676
553.49800	0.13579
551.56943	0.10506
549.64087	-0.00014
547.71230	-0.06979
545.78374	-0.01553
543.85518	0.05242
541.92661	0.09166
539.99805	0.13138
538.06948	0.19002
536.14092	0.23837
534.21235	0.17760
532.28379	0.05826
530.35522	-0.01176
528.42666	-0.03046
526.49810	-0.01774
524.56953	0.02661
522.64097	0.05908
520.71240	0.06396
518.78384	0.06752
516.85527	0.05259
514.92671	0.03008
512.99814	0.06087
511.06958	0.11555
509.14102	0.14854
507.21245	0.15377
505.28389	0.10888
503.35532	0.02921
501.42676	-0.01390
499.49819	0.03794
