3997.91411	0.05966
3995.98555	0.05948
3994.05698	0.05947
3992.12842	0.05954
3990.19985	0.05993
3988.27129	0.06065
3986.34272	0.06087
3984.41416	0.06056
3982.48560	0.06052
3980.55703	0.06088
3978.62847	0.06127
3976.69990	0.06175
3974.77134	0.06237
3972.84277	0.06285
3970.91421	0.06313
3968.98564	0.06336
3967.05708	0.06333
3965.12852	0.06294
3963.19995	0.06293
3961.27139	0.06353
3959.34282	0.06392
3957.41426	0.06383
3955.48569	0.06376
3953.55713	0.06405
3951.62856	0.06446
3949.70000	0.06469
3947.77144	0.06490
3945.84287	0.06514
3943.91431	0.06533
3941.98574	0.06532
3940.05718	0.06479
3938.12861	0.06419
3936.20005	0.06429
3934.27148	0.06479
3932.34292	0.06498
3930.41436	0.06477
3928.48579	0.06411
3926.55723	0.06344
3924.62866	0.06358
3922.70010	0.06404
3920.77153	0.06411
3918.84297	0.06435
3916.91440	0.06478
3914.98584	0.06448
3913.05728	0.06344
3911.12871	0.06271
3909.20015	0.06258
3907.27158	0.06260
3905.34302	0.06303
3903.41445	0.06427
3901.48589	0.06549
3899.55732	0.06575
3897.62876	0.06522
3895.70020	0.06453
3893.77163	0.06432
3891.84307	0.06478
3889.91450	0.06485
3887.98594	0.06404
3886.05737	0.06404
3884.12881	0.06513
3882.20024	0.06591
3880.27168	0.06632
3878.34312	0.06592
3876.41455	0.06469
3874.48599	0.06454
3872.55742	0.06594
3870.62886	0.06743
3868.70029	0.06799
3866.77173	0.06738
3864.84316	0.06706
3862.91460	0.06787
3860.98604	0.06838
3859.05747	0.06791
3857.12891	0.06753
3855.20034	0.06831
3853.27178	0.07086
3851.34321	0.07281
3849.41465	0.07176
3847.48608	0.07046
3845.55752	0.07008
3843.62896	0.07068
3841.70039	0.07229
3839.77183	0.07455
3837.84326	0.07656
3835.91470	0.07705
3833.98613	0.07627
3832.05757	0.07563
3830.12900	0.07571
3828.20044	0.07621
3826.27187	0.07697
3824.34331	0.07763
3822.41475	0.07830
3820.48618	0.08017
3818.55762	0.08206
3816.62905	0.08289
3814.70049	0.08361
3812.77192	0.08335
3810.84336	0.08259
3808.91479	0.08283
3806.98623	0.08493
3805.05767	0.08761
3803.12910	0.08912
3801.20054	0.09105
3799.27197	0.09306
3797.34341	0.09324
3795.41484	0.09289
3793.48628	0.09274
3791.55771	0.09312
3789.62915	0.09419
3787.70059	0.09551
3785.77202	0.09713
3783.84346	0.09908
3781.91489	0.10080
3779.98633	0.10258
3778.05776	0.10451
3776.12920	0.10560
3774.20063	0.10634
3772.27207	0.10767
3770.34351	0.10991
3768.41494	0.11278
3766.48638	0.11496
3764.55781	0.11653
3762.62925	0.11805
3760.70068	0.12014
3758.77212	0.12342
3756.84355	0.12652
3754.91499	0.12817
3752.98643	0.12979
3751.05786	0.13360
3749.12930	0.13948
3747.20073	0.14268
3745.27217	0.14419
3743.34360	0.14825
3741.41504	0.15304
3739.48647	0.15593
3737.55791	0.15926
3735.62935	0.16515
3733.70078	0.17200
3731.77222	0.17607
3729.84365	0.17883
3727.91509	0.18228
3725.98652	0.18739
3724.05796	0.19407
3722.12939	0.20070
3720.20083	0.20654
3718.27227	0.21211
3716.34370	0.21824
3714.41514	0.22510
3712.48657	0.23433
3710.55801	0.24847
3708.62944	0.26343
3706.70088	0.27469
3704.77231	0.28508
3702.84375	0.29775
3700.91519	0.31460
3698.98662	0.33284
3697.05806	0.34984
3695.12949	0.36781
3693.20093	0.38702
3691.27236	0.40768
3689.34380	0.43417
3687.41523	0.46731
3685.48667	0.49683
3683.55811	0.52238
3681.62954	0.55003
3679.70098	0.58129
3677.77241	0.61401
3675.84385	0.65238
3673.91528	0.70381
3671.98672	0.74615
3670.05815	0.78371
3668.12959	0.83519
3666.20103	0.88256
3664.27246	0.92233
3662.34390	0.96510
3660.41533	1.01138
3658.48677	1.05688
3656.55820	1.10543
3654.62964	1.15983
3652.70107	1.20530
3650.77251	1.24466
3648.84395	1.29949
3646.91538	1.36704
3644.98682	1.41664
3643.05825	1.45473
3641.12969	1.49403
3639.20112	1.53762
3637.27256	1.58156
3635.34399	1.62416
3633.41543	1.66676
3631.48687	1.70710
3629.55830	1.74853
3627.62974	1.80267
3625.70117	1.85255
3623.77261	1.88556
3621.84404	1.91679
3619.91548	1.95324
3617.98691	1.99871
3616.05835	2.04256
3614.12979	2.07804
3612.20122	2.11545
3610.27266	2.15410
3608.34409	2.19299
3606.41553	2.23507
3604.48696	2.27544
3602.55840	2.31174
3600.62983	2.35035
3598.70127	2.39174
3596.77271	2.43217
3594.84414	2.47321
3592.91558	2.51443
3590.98701	2.55168
3589.05845	2.58574
3587.12988	2.62718
3585.20132	2.67545
3583.27275	2.71823
3581.34419	2.75664
3579.41562	2.79547
3577.48706	2.83604
3575.55850	2.87857
3573.62993	2.92370
3571.70137	2.96788
3569.77280	3.00856
3567.84424	3.05110
3565.91567	3.10350
3563.98711	3.15182
3562.05854	3.18933
3560.12998	3.22927
3558.20142	3.27527
3556.27285	3.32292
3554.34429	3.36739
3552.41572	3.41229
3550.48716	3.46017
3548.55859	3.50734
3546.63003	3.55445
3544.70146	3.60341
3542.77290	3.64928
3540.84434	3.69084
3538.91577	3.73253
3536.98721	3.77658
3535.05864	3.82588
3533.13008	3.87755
3531.20151	3.92658
3529.27295	3.97237
3527.34438	4.02024
3525.41582	4.07335
3523.48726	4.12491
3521.55869	4.17169
3519.63013	4.21786
3517.70156	4.26662
3515.77300	4.31357
3513.84443	4.35797
3511.91587	4.40977
3509.98730	4.47024
3508.05874	4.52266
3506.13018	4.55904
3504.20161	4.59651
3502.27305	4.64840
3500.34448	4.70256
3498.41592	4.74872
3496.48735	4.79519
3494.55879	4.84499
3492.63022	4.89237
3490.70166	4.93616
3488.77310	4.98122
3486.84453	5.02762
3484.91597	5.07540
3482.98740	5.12657
3481.05884	5.17544
3479.13027	5.22134
3477.20171	5.27264
3475.27314	5.32534
3473.34458	5.37323
3471.41602	5.42048
3469.48745	5.46477
3467.55889	5.50703
3465.63032	5.55769
3463.70176	5.61361
3461.77319	5.66024
3459.84463	5.70691
3457.91606	5.76739
3455.98750	5.82562
3454.05894	5.86813
3452.13037	5.90405
3450.20181	5.94557
3448.27324	5.99217
3446.34468	6.04151
3444.41611	6.09409
3442.48755	6.14422
3440.55898	6.19000
3438.63042	6.24051
3436.70186	6.29200
3434.77329	6.33722
3432.84473	6.37883
3430.91616	6.41904
3428.98760	6.46932
3427.05903	6.53160
3425.13047	6.59576
3423.20190	6.64814
3421.27334	6.69158
3419.34478	6.74989
3417.41621	6.82465
3415.48765	6.88697
3413.55908	6.92402
3411.63052	6.94159
3409.70195	6.95431
3407.77339	6.99885
3405.84482	7.07196
3403.91626	7.15112
3401.98770	7.22012
3400.05913	7.27034
3398.13057	7.30115
3396.20200	7.31111
3394.27344	7.33114
3392.34487	7.36443
3390.41631	7.39132
3388.48774	7.40932
3386.55918	7.45865
3384.63062	7.55545
3382.70205	7.64523
3380.77349	7.67333
3378.84492	7.63670
3376.91636	7.60406
3374.98779	7.61808
3373.05923	7.64658
3371.13066	7.65768
3369.20210	7.69439
3367.27354	7.78040
3365.34497	7.86904
3363.41641	7.93012
3361.48784	7.98361
3359.55928	8.01896
3357.63071	8.00749
3355.70215	7.99303
3353.77358	7.97438
3351.84502	7.93158
3349.91646	7.90358
3347.98789	7.91196
3346.05933	7.91866
3344.13076	7.91377
3342.20220	7.92278
3340.27363	7.96691
3338.34507	8.04561
3336.41650	8.08345
3334.48794	8.07452
3332.55937	8.08587
3330.63081	8.12219
3328.70225	8.08382
3326.77368	8.00488
3324.84512	8.05748
3322.91655	8.17601
3320.98799	8.17437
3319.05942	8.12842
3317.13086	8.14689
3315.20229	8.14748
3313.27373	8.12163
3311.34517	8.09939
3309.41660	8.07482
3307.48804	8.06644
3305.55947	8.08616
3303.63091	8.17200
3301.70234	8.26657
3299.77378	8.26498
3297.84521	8.15628
3295.91665	8.05651
3293.98809	8.07356
3292.05952	8.18107
3290.13096	8.28124
3288.20239	8.29133
3286.27383	8.22203
3284.34526	8.14428
3282.41670	8.11203
3280.48813	8.11273
3278.55957	8.11736
3276.63101	8.12904
3274.70244	8.19706
3272.77388	8.32959
3270.84531	8.39532
3268.91675	8.31995
3266.98818	8.21244
3265.05962	8.15395
3263.13105	8.13574
3261.20249	8.20527
3259.27393	8.34257
3257.34536	8.35073
3255.41680	8.19978
3253.48823	8.10601
3251.55967	8.14193
3249.63110	8.17207
3247.70254	8.17737
3245.77397	8.27775
3243.84541	8.43274
3241.91685	8.46743
3239.98828	8.39713
3238.05972	8.34854
3236.13115	8.31151
3234.20259	8.26722
3232.27402	8.24967
3230.34546	8.23690
3228.41689	8.23979
3226.48833	8.28256
3224.55977	8.26815
3222.63120	8.22131
3220.70264	8.19836
3218.77407	8.13276
3216.84551	8.08866
3214.91694	8.05980
3212.98838	7.98961
3211.05981	7.99654
3209.13125	8.08055
3207.20269	8.08871
3205.27412	7.95490
3203.34556	7.80411
3201.41699	7.75701
3199.48843	7.71882
3197.55986	7.62719
3195.63130	7.59914
3193.70273	7.62473
3191.77417	7.59608
3189.84561	7.56366
3187.91704	7.58065
3185.98848	7.58322
3184.05991	7.53923
3182.13135	7.47724
3180.20278	7.42897
3178.27422	7.37472
3176.34565	7.29422
3174.41709	7.21608
3172.48853	7.14803
3170.55996	7.08279
3168.63140	7.02129
3166.70283	6.95344
3164.77427	6.87916
3162.84570	6.82407
3160.91714	6.79623
3158.98857	6.75592
3157.06001	6.67219
3155.13145	6.56973
3153.20288	6.47328
3151.27432	6.39041
3149.34575	6.32208
3147.41719	6.27087
3145.48862	6.23865
3143.56006	6.19827
3141.63149	6.12630
3139.70293	6.03709
3137.77437	5.95555
3135.84580	5.88151
3133.91724	5.80778
3131.98867	5.73847
3130.06011	5.66657
3128.13154	5.58692
3126.20298	5.51215
3124.27441	5.44498
3122.34585	5.37013
3120.41729	5.29148
3118.48872	5.22113
3116.56016	5.15458
3114.63159	5.08860
3112.70303	5.01963
3110.77446	4.94348
3108.84590	4.86662
3106.91733	4.79640
3104.98877	4.73169
3103.06021	4.66852
3101.13164	4.60322
3099.20308	4.53549
3097.27451	4.46930
3095.34595	4.40546
3093.41738	4.34066
3091.48882	4.27229
3089.56025	4.20140
3087.63169	4.13430
3085.70312	4.07458
3083.77456	4.01610
3081.84600	3.95417
3079.91743	3.89061
3077.98887	3.82795
3076.06030	3.76778
3074.13174	3.71049
3072.20317	3.65462
3070.27461	3.59730
3068.34604	3.53852
3066.41748	3.47973
3064.48892	3.42150
3062.56035	3.36497
3060.63179	3.31089
3058.70322	3.25752
3056.77466	3.20261
3054.84609	3.14737
3052.91753	3.09410
3050.98896	3.04291
3049.06040	2.99219
3047.13184	2.94117
3045.20327	2.89118
3043.27471	2.84259
3041.34614	2.79422
3039.41758	2.74595
3037.48901	2.69876
3035.56045	2.65284
3033.63188	2.60799
3031.70332	2.56386
3029.77476	2.51943
3027.84619	2.47529
3025.91763	2.43205
3023.98906	2.38872
3022.06050	2.34578
3020.13193	2.30420
3018.20337	2.26335
3016.27480	2.22283
3014.34624	2.18335
3012.41768	2.14516
3010.48911	2.10751
3008.56055	2.06999
3006.63198	2.03295
3004.70342	1.99680
3002.77485	1.96149
3000.84629	1.92656
2998.91772	1.89205
2996.98916	1.85825
2995.06060	1.82515
2993.13203	1.79323
2991.20347	1.76270
2989.27490	1.73281
2987.34634	1.70313
2985.41777	1.67354
2983.48921	1.64417
2981.56064	1.61561
2979.63208	1.58800
2977.70352	1.56110
2975.77495	1.53489
2973.84639	1.50907
2971.91782	1.48346
2969.98926	1.45829
2968.06069	1.43343
2966.13213	1.40903
2964.20356	1.38536
2962.27500	1.36217
2960.34644	1.33910
2958.41787	1.31575
2956.48931	1.29211
2954.56074	1.26864
2952.63218	1.24542
2950.70361	1.22261
2948.77505	1.20030
2946.84648	1.17839
2944.91792	1.15716
2942.98936	1.13678
2941.06079	1.11693
2939.13223	1.09723
2937.20366	1.07771
2935.27510	1.05875
2933.34653	1.04077
2931.41797	1.02344
2929.48940	1.00555
2927.56084	0.98736
2925.63228	0.96960
2923.70371	0.95181
2921.77515	0.93386
2919.84658	0.91623
2917.91802	0.89903
2915.98945	0.88208
2914.06089	0.86527
2912.13232	0.84866
2910.20376	0.83263
2908.27520	0.81738
2906.34663	0.80268
2904.41807	0.78816
2902.48950	0.77406
2900.56094	0.76063
2898.63237	0.74728
2896.70381	0.73400
2894.77524	0.72146
2892.84668	0.70939
2890.91812	0.69728
2888.98955	0.68534
2887.06099	0.67372
2885.13242	0.66239
2883.20386	0.65181
2881.27529	0.64200
2879.34673	0.63226
2877.41816	0.62231
2875.48960	0.61242
2873.56104	0.60266
2871.63247	0.59276
2869.70391	0.58245
2867.77534	0.57181
2865.84678	0.56111
2863.91821	0.55047
2861.98965	0.54010
2860.06108	0.53027
2858.13252	0.52095
2856.20396	0.51225
2854.27539	0.50421
2852.34683	0.49618
2850.41826	0.48761
2848.48970	0.47876
2846.56113	0.47016
2844.63257	0.46214
2842.70400	0.45485
2840.77544	0.44807
2838.84687	0.44140
2836.91831	0.43496
2834.98975	0.42881
2833.06118	0.42253
2831.13262	0.41633
2829.20405	0.41050
2827.27549	0.40467
2825.34692	0.39870
2823.41836	0.39284
2821.48979	0.38727
2819.56123	0.38174
2817.63267	0.37601
2815.70410	0.37034
2813.77554	0.36485
2811.84697	0.35935
2809.91841	0.35396
2807.98984	0.34896
2806.06128	0.34412
2804.13271	0.33910
2802.20415	0.33405
2800.27559	0.32925
2798.34702	0.32463
2796.41846	0.32008
2794.48989	0.31549
2792.56133	0.31086
2790.63276	0.30635
2788.70420	0.30218
2786.77563	0.29827
2784.84707	0.29420
2782.91851	0.28991
2780.98994	0.28569
2779.06138	0.28179
2777.13281	0.27818
2775.20425	0.27458
2773.27568	0.27085
2771.34712	0.26715
2769.41855	0.26352
2767.48999	0.25997
2765.56143	0.25662
2763.63286	0.25346
2761.70430	0.25033
2759.77573	0.24722
2757.84717	0.24417
2755.91860	0.24116
2753.99004	0.23824
2752.06147	0.23527
2750.13291	0.23226
2748.20435	0.22960
2746.27578	0.22722
2744.34722	0.22470
2742.41865	0.22209
2740.49009	0.21949
2738.56152	0.21695
2736.63296	0.21449
2734.70439	0.21206
2732.77583	0.20966
2730.84727	0.20745
2728.91870	0.20534
2726.99014	0.20320
2725.06157	0.20106
2723.13301	0.19897
2721.20444	0.19702
2719.27588	0.19518
2717.34731	0.19330
2715.41875	0.19155
2713.49019	0.18996
2711.56162	0.18817
2709.63306	0.18617
2707.70449	0.18447
2705.77593	0.18307
2703.84736	0.18155
2701.91880	0.17999
2699.99023	0.17858
2698.06167	0.17713
2696.13311	0.17563
2694.20454	0.17421
2692.27598	0.17288
2690.34741	0.17168
2688.41885	0.17050
2686.49028	0.16915
2684.56172	0.16773
2682.63315	0.16655
2680.70459	0.16562
2678.77603	0.16471
2676.84746	0.16380
2674.91890	0.16287
2672.99033	0.16176
2671.06177	0.16054
2669.13320	0.15946
2667.20464	0.15857
2665.27607	0.15765
2663.34751	0.15670
2661.41895	0.15600
2659.49038	0.15541
2657.56182	0.15456
2655.63325	0.15354
2653.70469	0.15273
2651.77612	0.15231
2649.84756	0.15199
2647.91899	0.15140
2645.99043	0.15069
2644.06187	0.15004
2642.13330	0.14947
2640.20474	0.14897
2638.27617	0.14842
2636.34761	0.14783
2634.41904	0.14746
2632.49048	0.14730
2630.56191	0.14703
2628.63335	0.14668
2626.70479	0.14639
2624.77622	0.14608
2622.84766	0.14574
2620.91909	0.14543
2618.99053	0.14515
2617.06196	0.14493
2615.13340	0.14483
2613.20483	0.14472
2611.27627	0.14460
2609.34771	0.14453
2607.41914	0.14443
2605.49058	0.14435
2603.56201	0.14434
2601.63345	0.14443
2599.70488	0.14450
2597.77632	0.14445
2595.84775	0.14443
2593.91919	0.14445
2591.99062	0.14449
2590.06206	0.14461
2588.13350	0.14484
2586.20493	0.14513
2584.27637	0.14544
2582.34780	0.14574
2580.41924	0.14598
2578.49067	0.14617
2576.56211	0.14636
2574.63354	0.14659
2572.70498	0.14698
2570.77642	0.14744
2568.84785	0.14770
2566.91929	0.14792
2564.99072	0.14842
2563.06216	0.14914
2561.13359	0.14979
2559.20503	0.15031
2557.27646	0.15079
2555.34790	0.15122
2553.41934	0.15166
2551.49077	0.15215
2549.56221	0.15262
2547.63364	0.15315
2545.70508	0.15374
2543.77651	0.15428
2541.84795	0.15494
2539.91938	0.15577
2537.99082	0.15643
2536.06226	0.15689
2534.13369	0.15754
2532.20513	0.15843
2530.27656	0.15925
2528.34800	0.15995
2526.41943	0.16059
2524.49087	0.16128
2522.56230	0.16203
2520.63374	0.16274
2518.70518	0.16345
2516.77661	0.16414
2514.84805	0.16478
2512.91948	0.16552
2510.99092	0.16646
2509.06235	0.16746
2507.13379	0.16833
2505.20522	0.16906
2503.27666	0.16976
2501.34810	0.17055
2499.41953	0.17144
2497.49097	0.17234
2495.56240	0.17321
2493.63384	0.17404
2491.70527	0.17496
2489.77671	0.17597
2487.84814	0.17693
2485.91958	0.17777
2483.99102	0.17852
2482.06245	0.17929
2480.13389	0.18015
2478.20532	0.18103
2476.27676	0.18192
2474.34819	0.18289
2472.41963	0.18383
2470.49106	0.18457
2468.56250	0.18540
2466.63394	0.18643
2464.70537	0.18745
2462.77681	0.18841
2460.84824	0.18939
2458.91968	0.19037
2456.99111	0.19133
2455.06255	0.19236
2453.13398	0.19352
2451.20542	0.19469
2449.27686	0.19569
2447.34829	0.19653
2445.41973	0.19732
2443.49116	0.19811
2441.56260	0.19899
2439.63403	0.20004
2437.70547	0.20114
2435.77690	0.20228
2433.84834	0.20345
2431.91978	0.20450
2429.99121	0.20551
2428.06265	0.20653
2426.13408	0.20755
2424.20552	0.20857
2422.27695	0.20965
2420.34839	0.21079
2418.41982	0.21200
2416.49126	0.21319
2414.56270	0.21424
2412.63413	0.21532
2410.70557	0.21655
2408.77700	0.21787
2406.84844	0.21914
2404.91987	0.22029
2402.99131	0.22133
2401.06274	0.22238
2399.13418	0.22359
2397.20562	0.22501
2395.27705	0.22644
2393.34849	0.22777
2391.41992	0.22901
2389.49136	0.23024
2387.56279	0.23179
2385.63423	0.23388
2383.70566	0.23662
2381.77710	0.24023
2379.84854	0.24470
2377.91997	0.24972
2375.99141	0.25520
2374.06284	0.26125
2372.13428	0.26788
2370.20571	0.27489
2368.27715	0.28204
2366.34858	0.28949
2364.42002	0.29645
2362.49146	0.30135
2360.56289	0.30422
2358.63433	0.30557
2356.70576	0.30517
2354.77720	0.30209
2352.84863	0.29665
2350.92007	0.29106
2348.99150	0.28787
2347.06294	0.28858
2345.13437	0.29390
2343.20581	0.30120
2341.27725	0.30531
2339.34868	0.30635
2337.42012	0.30684
2335.49155	0.30785
2333.56299	0.30879
2331.63442	0.30917
2329.70586	0.30899
2327.77729	0.30872
2325.84873	0.30873
2323.92017	0.30882
2321.99160	0.30871
2320.06304	0.30798
2318.13447	0.30673
2316.20591	0.30575
2314.27734	0.30561
2312.34878	0.30615
2310.42021	0.30682
2308.49165	0.30724
2306.56309	0.30747
2304.63452	0.30770
2302.70596	0.30831
2300.77739	0.30933
2298.84883	0.31030
2296.92026	0.31121
2294.99170	0.31230
2293.06313	0.31355
2291.13457	0.31476
2289.20601	0.31590
2287.27744	0.31719
2285.34888	0.31868
2283.42031	0.32020
2281.49175	0.32178
2279.56318	0.32374
2277.63462	0.32607
2275.70605	0.32842
2273.77749	0.33061
2271.84893	0.33277
2269.92036	0.33489
2267.99180	0.33690
2266.06323	0.33887
2264.13467	0.34081
2262.20610	0.34273
2260.27754	0.34477
2258.34897	0.34684
2256.42041	0.34888
2254.49185	0.35101
2252.56328	0.35310
2250.63472	0.35503
2248.70615	0.35693
2246.77759	0.35901
2244.84902	0.36127
2242.92046	0.36351
2240.99189	0.36575
2239.06333	0.36801
2237.13477	0.37020
2235.20620	0.37231
2233.27764	0.37437
2231.34907	0.37655
2229.42051	0.37892
2227.49194	0.38127
2225.56338	0.38346
2223.63481	0.38559
2221.70625	0.38774
2219.77769	0.38984
2217.84912	0.39171
2215.92056	0.39367
2213.99199	0.39602
2212.06343	0.39847
2210.13486	0.40069
2208.20630	0.40276
2206.27773	0.40483
2204.34917	0.40700
2202.42061	0.40923
2200.49204	0.41137
2198.56348	0.41330
2196.63491	0.41515
2194.70635	0.41703
2192.77778	0.41891
2190.84922	0.42085
2188.92065	0.42281
2186.99209	0.42466
2185.06353	0.42642
2183.13496	0.42812
2181.20640	0.42977
2179.27783	0.43141
2177.34927	0.43310
2175.42070	0.43473
2173.49214	0.43613
2171.56357	0.43740
2169.63501	0.43879
2167.70645	0.44018
2165.77788	0.44140
2163.84932	0.44264
2161.92075	0.44398
2159.99219	0.44524
2158.06362	0.44624
2156.13506	0.44703
2154.20649	0.44780
2152.27793	0.44862
2150.34937	0.44940
2148.42080	0.45010
2146.49224	0.45069
2144.56367	0.45107
2142.63511	0.45128
2140.70654	0.45151
2138.77798	0.45182
2136.84941	0.45202
2134.92085	0.45203
2132.99229	0.45197
2131.06372	0.45196
2129.13516	0.45187
2127.20659	0.45161
2125.27803	0.45128
2123.34946	0.45091
2121.42090	0.45048
2119.49233	0.44991
2117.56377	0.44916
2115.63521	0.44832
2113.70664	0.44747
2111.77808	0.44653
2109.84951	0.44552
2107.92095	0.44456
2105.99238	0.44348
2104.06382	0.44214
2102.13525	0.44078
2100.20669	0.43955
2098.27812	0.43828
2096.34956	0.43684
2094.42100	0.43529
2092.49243	0.43368
2090.56387	0.43194
2088.63530	0.43009
2086.70674	0.42824
2084.77817	0.42644
2082.84961	0.42463
2080.92104	0.42268
2078.99248	0.42067
2077.06392	0.41854
2075.13535	0.41626
2073.20679	0.41403
2071.27822	0.41184
2069.34966	0.40956
2067.42109	0.40727
2065.49253	0.40507
2063.56396	0.40275
2061.63540	0.40022
2059.70684	0.39753
2057.77827	0.39492
2055.84971	0.39251
2053.92114	0.39015
2051.99258	0.38768
2050.06401	0.38513
2048.13545	0.38254
2046.20688	0.37988
2044.27832	0.37712
2042.34976	0.37432
2040.42119	0.37157
2038.49263	0.36889
2036.56406	0.36625
2034.63550	0.36354
2032.70693	0.36077
2030.77837	0.35807
2028.84980	0.35535
2026.92124	0.35259
2024.99268	0.34982
2023.06411	0.34704
2021.13555	0.34429
2019.20698	0.34161
2017.27842	0.33894
2015.34985	0.33612
2013.42129	0.33323
2011.49272	0.33046
2009.56416	0.32777
2007.63560	0.32508
2005.70703	0.32245
2003.77847	0.31979
2001.84990	0.31715
1999.92134	0.31466
1997.99277	0.31224
1996.06421	0.30967
1994.13564	0.30711
1992.20708	0.30471
1990.27852	0.30216
1988.34995	0.29949
1986.42139	0.29701
1984.49282	0.29467
1982.56426	0.29229
1980.63569	0.28990
1978.70713	0.28763
1976.77856	0.28544
1974.85000	0.28328
1972.92144	0.28119
1970.99287	0.27920
1969.06431	0.27729
1967.13574	0.27531
1965.20718	0.27313
1963.27861	0.27103
1961.35005	0.26913
1959.42148	0.26724
1957.49292	0.26543
1955.56436	0.26368
1953.63579	0.26190
1951.70723	0.26012
1949.77866	0.25845
1947.85010	0.25695
1945.92153	0.25566
1943.99297	0.25444
1942.06440	0.25305
1940.13584	0.25140
1938.20728	0.24986
1936.27871	0.24851
1934.35015	0.24723
1932.42158	0.24601
1930.49302	0.24483
1928.56445	0.24373
1926.63589	0.24271
1924.70732	0.24183
1922.77876	0.24099
1920.85020	0.24004
1918.92163	0.23914
1916.99307	0.23828
1915.06450	0.23733
1913.13594	0.23645
1911.20737	0.23573
1909.27881	0.23504
1907.35024	0.23433
1905.42168	0.23363
1903.49312	0.23299
1901.56455	0.23241
1899.63599	0.23193
1897.70742	0.23158
1895.77886	0.23132
1893.85029	0.23107
1891.92173	0.23078
1889.99316	0.23056
1888.06460	0.23022
1886.13604	0.22980
1884.20747	0.22954
1882.27891	0.22938
1880.35034	0.22930
1878.42178	0.22928
1876.49321	0.22932
1874.56465	0.22935
1872.63608	0.22945
1870.70752	0.22974
1868.77896	0.23040
1866.85039	0.23087
1864.92183	0.23074
1862.99326	0.23061
1861.06470	0.23073
1859.13613	0.23102
1857.20757	0.23137
1855.27900	0.23187
1853.35044	0.23240
1851.42187	0.23300
1849.49331	0.23369
1847.56475	0.23448
1845.63618	0.23550
1843.70762	0.23663
1841.77905	0.23727
1839.85049	0.23752
1837.92192	0.23818
1835.99336	0.23910
1834.06479	0.24013
1832.13623	0.24137
1830.20767	0.24300
1828.27910	0.24445
1826.35054	0.24536
1824.42197	0.24650
1822.49341	0.24768
1820.56484	0.24883
1818.63628	0.25015
1816.70771	0.25179
1814.77915	0.25347
1812.85059	0.25532
1810.92202	0.25750
1808.99346	0.25963
1807.06489	0.26147
1805.13633	0.26327
1803.20776	0.26553
1801.27920	0.26825
1799.35063	0.27112
1797.42207	0.27354
1795.49351	0.27590
1793.56494	0.27878
1791.63638	0.28241
1789.70781	0.28567
1787.77925	0.28812
1785.85068	0.29126
1783.92212	0.29507
1781.99355	0.29911
1780.06499	0.30330
1778.13643	0.30759
1776.20786	0.31169
1774.27930	0.31616
1772.35073	0.32211
1770.42217	0.32835
1768.49360	0.33345
1766.56504	0.33840
1764.63647	0.34364
1762.70791	0.34953
1760.77935	0.35702
1758.85078	0.36415
1756.92222	0.37139
1754.99365	0.37929
1753.06509	0.38655
1751.13652	0.39523
1749.20796	0.40601
1747.27939	0.41640
1745.35083	0.42537
1743.42227	0.43489
1741.49370	0.44546
1739.56514	0.45790
1737.63657	0.47022
1735.70801	0.48096
1733.77944	0.49731
1731.85088	0.51697
1729.92231	0.53233
1727.99375	0.54773
1726.06519	0.56446
1724.13662	0.58282
1722.20806	0.60260
1720.27949	0.62106
1718.35093	0.64293
1716.42236	0.67500
1714.49380	0.70530
1712.56523	0.72996
1710.63667	0.75393
1708.70811	0.77962
1706.77954	0.80878
1704.85098	0.84390
1702.92241	0.87552
1700.99385	0.90680
1699.06528	0.95304
1697.13672	0.99569
1695.20815	1.03933
1693.27959	1.08148
1691.35103	1.11574
1689.42246	1.15568
1687.49390	1.19775
1685.56533	1.23822
1683.63677	1.30087
1681.70820	1.36588
1679.77964	1.40730
1677.85107	1.44672
1675.92251	1.49224
1673.99395	1.54870
1672.06538	1.59948
1670.13682	1.64963
1668.20825	1.71375
1666.27969	1.76501
1664.35112	1.80775
1662.42256	1.86194
1660.49399	1.92502
1658.56543	1.97434
1656.63687	2.01221
1654.70830	2.04641
1652.77974	2.10243
1650.85117	2.15616
1648.92261	2.17527
1646.99404	2.19845
1645.06548	2.22447
1643.13691	2.24318
1641.20835	2.25494
1639.27979	2.26459
1637.35122	2.26917
1635.42266	2.26711
1633.49409	2.25992
1631.56553	2.24807
1629.63696	2.23262
1627.70840	2.20617
1625.77983	2.17439
1623.85127	2.13285
1621.92271	2.08113
1619.99414	2.03585
1618.06558	1.99294
1616.13701	1.93183
1614.20845	1.86811
1612.27988	1.81938
1610.35132	1.76951
1608.42275	1.71531
1606.49419	1.66106
1604.56562	1.61089
1602.63706	1.56317
1600.70850	1.51715
1598.77993	1.47455
1596.85137	1.43404
1594.92280	1.39448
1592.99424	1.35612
1591.06567	1.32095
1589.13711	1.28794
1587.20854	1.25700
1585.27998	1.22831
1583.35142	1.20126
1581.42285	1.17636
1579.49429	1.15536
1577.56572	1.13701
1575.63716	1.11484
1573.70859	1.09492
1571.78003	1.08182
1569.85146	1.06851
1567.92290	1.05400
1565.99434	1.04320
1564.06577	1.03495
1562.13721	1.02870
1560.20864	1.02476
1558.28008	1.02032
1556.35151	1.01652
1554.42295	1.01395
1552.49438	1.01114
1550.56582	1.00744
1548.63726	1.00204
1546.70869	0.99531
1544.78013	0.98691
1542.85156	0.97595
1540.92300	0.96060
1538.99443	0.93822
1537.06587	0.92125
1535.13730	0.90913
1533.20874	0.89359
1531.28018	0.87731
1529.35161	0.86544
1527.42305	0.85415
1525.49448	0.84238
1523.56592	0.83232
1521.63735	0.82259
1519.70879	0.81262
1517.78022	0.80416
1515.85166	0.79431
1513.92310	0.78394
1511.99453	0.77529
1510.06597	0.76790
1508.13740	0.76086
1506.20884	0.74936
1504.28027	0.73899
1502.35171	0.73324
1500.42314	0.72842
1498.49458	0.72346
1496.56602	0.71766
1494.63745	0.71167
1492.70889	0.70693
1490.78032	0.70298
1488.85176	0.69852
1486.92319	0.69395
1484.99463	0.69024
1483.06606	0.68751
1481.13750	0.68536
1479.20894	0.68355
1477.28037	0.68236
1475.35181	0.68187
1473.42324	0.68180
1471.49468	0.68088
1469.56611	0.67884
1467.63755	0.67666
1465.70898	0.67463
1463.78042	0.67279
1461.85186	0.67155
1459.92329	0.67092
1457.99473	0.67048
1456.06616	0.66898
1454.13760	0.66605
1452.20903	0.66316
1450.28047	0.66060
1448.35190	0.65812
1446.42334	0.65533
1444.49478	0.65255
1442.56621	0.64990
1440.63765	0.64729
1438.70908	0.64491
1436.78052	0.64208
1434.85195	0.63865
1432.92339	0.63588
1430.99482	0.63399
1429.06626	0.63251
1427.13770	0.63125
1425.20913	0.63051
1423.28057	0.63035
1421.35200	0.63028
1419.42344	0.63009
1417.49487	0.62933
1415.56631	0.62784
1413.63774	0.62652
1411.70918	0.62581
1409.78062	0.62576
1407.85205	0.62618
1405.92349	0.62690
1403.99492	0.62752
1402.06636	0.62737
1400.13779	0.62657
1398.20923	0.62527
1396.28066	0.62336
1394.35210	0.62057
1392.42354	0.61721
1390.49497	0.61408
1388.56641	0.61114
1386.63784	0.60774
1384.70928	0.60401
1382.78071	0.60052
1380.85215	0.59730
1378.92358	0.59455
1376.99502	0.59261
1375.06646	0.59135
1373.13789	0.59011
1371.20933	0.58875
1369.28076	0.58764
1367.35220	0.58659
1365.42363	0.58534
1363.49507	0.58404
1361.56650	0.58268
1359.63794	0.58121
1357.70937	0.57993
1355.78081	0.57880
1353.85225	0.57766
1351.92368	0.57664
1349.99512	0.57593
1348.06655	0.57524
1346.13799	0.57427
1344.20942	0.57326
1342.28086	0.57256
1340.35229	0.57207
1338.42373	0.57137
1336.49517	0.57048
1334.56660	0.56965
1332.63804	0.56909
1330.70947	0.56892
1328.78091	0.56893
1326.85234	0.56895
1324.92378	0.56902
1322.99521	0.56916
1321.06665	0.56930
1319.13809	0.56938
1317.20952	0.56920
1315.28096	0.56876
1313.35239	0.56825
1311.42383	0.56775
1309.49526	0.56718
1307.56670	0.56667
1305.63813	0.56615
1303.70957	0.56545
1301.78101	0.56472
1299.85244	0.56400
1297.92388	0.56313
1295.99531	0.56211
1294.06675	0.56110
1292.13818	0.56017
1290.20962	0.55919
1288.28105	0.55808
1286.35249	0.55697
1284.42393	0.55605
1282.49536	0.55522
1280.56680	0.55432
1278.63823	0.55337
1276.70967	0.55238
1274.78110	0.55142
1272.85254	0.55068
1270.92397	0.55012
1268.99541	0.54952
1267.06685	0.54887
1265.13828	0.54810
1263.20972	0.54723
1261.28115	0.54639
1259.35259	0.54568
1257.42402	0.54517
1255.49546	0.54495
1253.56689	0.54495
1251.63833	0.54512
1249.70977	0.54530
1247.78120	0.54520
1245.85264	0.54469
1243.92407	0.54396
1241.99551	0.54321
1240.06694	0.54242
1238.13838	0.54132
1236.20981	0.53981
1234.28125	0.53809
1232.35269	0.53637
1230.42412	0.53481
1228.49556	0.53337
1226.56699	0.53189
1224.63843	0.53037
1222.70986	0.52897
1220.78130	0.52774
1218.85273	0.52670
1216.92417	0.52581
1214.99561	0.52502
1213.06704	0.52431
1211.13848	0.52371
1209.20991	0.52313
1207.28135	0.52245
1205.35278	0.52166
1203.42422	0.52085
1201.49565	0.52008
1199.56709	0.51946
1197.63853	0.51894
1195.70996	0.51832
1193.78140	0.51758
1191.85283	0.51689
1189.92427	0.51626
1187.99570	0.51578
1186.06714	0.51572
1184.13857	0.51589
1182.21001	0.51604
1180.28145	0.51648
1178.35288	0.51748
1176.42432	0.51876
1174.49575	0.51984
1172.56719	0.52066
1170.63862	0.52137
1168.71006	0.52184
1166.78149	0.52207
1164.85293	0.52228
1162.92437	0.52257
1160.99580	0.52274
1159.06724	0.52255
1157.13867	0.52197
1155.21011	0.52109
1153.28154	0.51999
1151.35298	0.51851
1149.42441	0.51648
1147.49585	0.51413
1145.56729	0.51169
1143.63872	0.50920
1141.71016	0.50688
1139.78159	0.50486
1137.85303	0.50291
1135.92446	0.50101
1133.99590	0.49950
1132.06733	0.49857
1130.13877	0.49790
1128.21021	0.49697
1126.28164	0.49578
1124.35308	0.49480
1122.42451	0.49422
1120.49595	0.49387
1118.56738	0.49370
1116.63882	0.49393
1114.71025	0.49440
1112.78169	0.49480
1110.85312	0.49535
1108.92456	0.49641
1106.99600	0.49778
1105.06743	0.49901
1103.13887	0.50002
1101.21030	0.50105
1099.28174	0.50245
1097.35317	0.50458
1095.42461	0.50746
1093.49604	0.51107
1091.56748	0.51575
1089.63892	0.52154
1087.71035	0.52824
1085.78179	0.53575
1083.85322	0.54366
1081.92466	0.55097
1079.99609	0.55661
1078.06753	0.55981
1076.13896	0.56005
1074.21040	0.55726
1072.28184	0.55217
1070.35327	0.54559
1068.42471	0.53826
1066.49614	0.53121
1064.56758	0.52506
1062.63901	0.51968
1060.71045	0.51488
1058.78188	0.51046
1056.85332	0.50644
1054.92476	0.50300
1052.99619	0.50004
1051.06763	0.49735
1049.13906	0.49516
1047.21050	0.49365
1045.28193	0.49253
1043.35337	0.49172
1041.42480	0.49146
1039.49624	0.49176
1037.56768	0.49225
1035.63911	0.49243
1033.71055	0.49200
1031.78198	0.49123
1029.85342	0.49044
1027.92485	0.48946
1025.99629	0.48840
1024.06772	0.48768
1022.13916	0.48728
1020.21060	0.48707
1018.28203	0.48720
1016.35347	0.48758
1014.42490	0.48777
1012.49634	0.48787
1010.56777	0.48834
1008.63921	0.48901
1006.71064	0.48967
1004.78208	0.49077
1002.85352	0.49270
1000.92495	0.49538
998.99639	0.49870
997.06782	0.50264
995.13926	0.50696
993.21069	0.51113
991.28213	0.51462
989.35356	0.51681
987.42500	0.51765
985.49644	0.51795
983.56787	0.51836
981.63931	0.51891
979.71074	0.51971
977.78218	0.52107
975.85361	0.52321
973.92505	0.52606
971.99648	0.52917
970.06792	0.53225
968.13936	0.53563
966.21079	0.53958
964.28223	0.54425
962.35366	0.54959
960.42510	0.55499
958.49653	0.56020
956.56797	0.56570
954.63940	0.57175
952.71084	0.57800
950.78228	0.58409
948.85371	0.59012
946.92515	0.59629
944.99658	0.60286
943.06802	0.60946
941.13945	0.61536
939.21089	0.62102
937.28232	0.62724
935.35376	0.63353
933.42520	0.63943
931.49663	0.64466
929.56807	0.64926
927.63950	0.65472
925.71094	0.66148
923.78237	0.66812
921.85381	0.67458
919.92524	0.68164
917.99668	0.68890
916.06812	0.69568
914.13955	0.70252
912.21099	0.71041
910.28242	0.71884
908.35386	0.72716
906.42529	0.73589
904.49673	0.74495
902.56816	0.75380
900.63960	0.76286
898.71104	0.77222
896.78247	0.78170
894.85391	0.79199
892.92534	0.80345
890.99678	0.81534
889.06821	0.82595
887.13965	0.83508
885.21108	0.84473
883.28252	0.85604
881.35396	0.86844
879.42539	0.88074
877.49683	0.89209
875.56826	0.90277
873.63970	0.91297
871.71113	0.92385
869.78257	0.93746
867.85400	0.95159
865.92544	0.96288
863.99687	0.97319
862.06831	0.98405
860.13975	0.99458
858.21118	1.00588
856.28262	1.01902
854.35405	1.03174
852.42549	1.04087
850.49692	1.04919
848.56836	1.06168
846.63979	1.07608
844.71123	1.08871
842.78267	1.10197
840.85410	1.11624
838.92554	1.12562
836.99697	1.13126
835.06841	1.14147
833.13984	1.15654
831.21128	1.17127
829.28271	1.18285
827.35415	1.19136
825.42559	1.20339
823.49702	1.22211
821.56846	1.23736
819.63989	1.24392
817.71133	1.24844
815.78276	1.25895
813.85420	1.27505
811.92563	1.28903
809.99707	1.29410
808.06851	1.28523
806.13994	1.27258
804.21138	1.27153
802.28281	1.28873
800.35425	1.31546
798.42568	1.34515
796.49712	1.40689
794.56855	1.48042
792.63999	1.46395
790.71143	1.40700
788.78286	1.38657
786.85430	1.38257
784.92573	1.38649
782.99717	1.39789
781.06860	1.41990
779.14004	1.47761
777.21147	1.59982
775.28291	1.69871
773.35435	1.55283
771.42578	1.42838
769.49722	1.47720
767.56865	1.55568
765.64009	1.42181
763.71152	1.31048
761.78296	1.26246
759.85439	1.26358
757.92583	1.33502
755.99727	1.34706
754.06870	1.25680
752.14014	1.23057
750.21157	1.30636
748.28301	1.31499
746.35444	1.17474
744.42588	1.09680
742.49731	1.10690
740.56875	1.04543
738.64019	0.97131
736.71162	1.12252
734.78306	1.35070
732.85449	0.88191
730.92593	0.70081
728.99736	0.81755
727.06880	1.04782
725.14023	0.93200
723.21167	0.79060
721.28311	0.75198
719.35454	0.76302
717.42598	0.83404
715.49741	0.88426
713.56885	0.83875
711.64028	0.73104
709.71172	0.63567
707.78315	0.64089
705.85459	0.72060
703.92603	0.74487
701.99746	0.73445
700.06890	0.75997
698.14033	0.80366
696.21177	0.89130
694.28320	0.92278
692.35464	0.72441
690.42607	0.58250
688.49751	0.58319
686.56895	0.64725
684.64038	0.65756
682.71182	0.66142
680.78325	0.69454
678.85469	0.75643
676.92612	0.80652
674.99756	0.74405
673.06899	0.68199
671.14043	0.67849
669.21187	0.70379
667.28330	0.77216
665.35474	0.83295
663.42617	0.69750
661.49761	0.54683
659.56904	0.52032
657.64048	0.62414
655.71191	0.84306
653.78335	0.89614
651.85479	0.75647
649.92622	0.71720
647.99766	0.73001
646.06909	0.72579
644.14053	0.69773
642.21196	0.66588
640.28340	0.65576
638.35483	0.68419
636.42627	0.71223
634.49771	0.68693
632.56914	0.65585
630.64058	0.62613
628.71201	0.60879
626.78345	0.62701
624.85488	0.63518
622.92632	0.63915
620.99775	0.65625
619.06919	0.64200
617.14062	0.61833
615.21206	0.60384
613.28350	0.57888
611.35493	0.54940
609.42637	0.54953
607.49780	0.58878
605.56924	0.61523
603.64067	0.62296
601.71211	0.66322
599.78354	0.65090
597.85498	0.57762
595.92642	0.55261
593.99785	0.57429
592.06929	0.61508
590.14072	0.63571
588.21216	0.64227
586.28359	0.76467
584.35503	1.15810
582.42646	1.07109
580.49790	0.77109
578.56934	0.64397
576.64077	0.58210
574.71221	0.64458
572.78364	0.80894
570.85508	0.67215
568.92651	0.51342
566.99795	0.45837
565.06938	0.44912
563.14082	0.48430
561.21226	0.52113
559.28369	0.48446
557.35513	0.45401
555.42656	0.47596
553.49800	0.49908
551.56943	0.49373
549.64087	0.51456
547.71230	0.59966
545.78374	0.72139
543.85518	0.73161
541.92661	0.61916
539.99805	0.51159
538.06948	0.41926
536.14092	0.39710
534.21235	0.46294
532.28379	0.50090
530.35522	0.46803
528.42666	0.48524
526.49810	0.56699
524.56953	0.64503
522.64097	0.63998
520.71240	0.59574
518.78384	0.61643
516.85527	0.69484
514.92671	0.66981
512.99814	0.61323
511.06958	0.66875
509.14102	0.78460
507.21245	0.67668
505.28389	0.57535
503.35532	0.60201
501.42676	0.59113
499.49819	0.48552
