3997.91411	0.07612
3995.98555	0.07623
3994.05698	0.07658
3992.12842	0.07713
3990.19985	0.07754
3988.27129	0.07794
3986.34272	0.07840
3984.41416	0.07863
3982.48560	0.07844
3980.55703	0.07812
3978.62847	0.07813
3976.69990	0.07840
3974.77134	0.07871
3972.84277	0.07895
3970.91421	0.07892
3968.98564	0.07893
3967.05708	0.07917
3965.12852	0.07931
3963.19995	0.07941
3961.27139	0.07966
3959.34282	0.07981
3957.41426	0.07980
3955.48569	0.07996
3953.55713	0.08029
3951.62856	0.08042
3949.70000	0.08038
3947.77144	0.08035
3945.84287	0.08026
3943.91431	0.08039
3941.98574	0.08088
3940.05718	0.08099
3938.12861	0.08054
3936.20005	0.08001
3934.27148	0.07982
3932.34292	0.08000
3930.41436	0.08011
3928.48579	0.07985
3926.55723	0.07946
3924.62866	0.07941
3922.70010	0.07960
3920.77153	0.07958
3918.84297	0.07951
3916.91440	0.07983
3914.98584	0.08020
3913.05728	0.07974
3911.12871	0.07895
3909.20015	0.07861
3907.27158	0.07870
3905.34302	0.07917
3903.41445	0.07941
3901.48589	0.07861
3899.55732	0.07797
3897.62876	0.07811
3895.70020	0.07838
3893.77163	0.07857
3891.84307	0.07871
3889.91450	0.07881
3887.98594	0.07880
3886.05737	0.07882
3884.12881	0.07917
3882.20024	0.07931
3880.27168	0.07907
3878.34312	0.07891
3876.41455	0.07888
3874.48599	0.07917
3872.55742	0.07965
3870.62886	0.08015
3868.70029	0.08113
3866.77173	0.08165
3864.84316	0.08156
3862.91460	0.08193
3860.98604	0.08221
3859.05747	0.08210
3857.12891	0.08222
3855.20034	0.08283
3853.27178	0.08431
3851.34321	0.08563
3849.41465	0.08536
3847.48608	0.08487
3845.55752	0.08467
3843.62896	0.08481
3841.70039	0.08532
3839.77183	0.08628
3837.84326	0.08779
3835.91470	0.08867
3833.98613	0.08848
3832.05757	0.08855
3830.12900	0.08939
3828.20044	0.09031
3826.27187	0.09104
3824.34331	0.09164
3822.41475	0.09231
3820.48618	0.09369
3818.55762	0.09487
3816.62905	0.09537
3814.70049	0.09625
3812.77192	0.09704
3810.84336	0.09750
3808.91479	0.09795
3806.98623	0.09887
3805.05767	0.10051
3803.12910	0.10211
3801.20054	0.10390
3799.27197	0.10532
3797.34341	0.10574
3795.41484	0.10633
3793.48628	0.10711
3791.55771	0.10798
3789.62915	0.10921
3787.70059	0.11053
3785.77202	0.11201
3783.84346	0.11377
3781.91489	0.11533
3779.98633	0.11664
3778.05776	0.11808
3776.12920	0.11939
3774.20063	0.12074
3772.27207	0.12226
3770.34351	0.12393
3768.41494	0.12598
3766.48638	0.12815
3764.55781	0.13021
3762.62925	0.13205
3760.70068	0.13399
3758.77212	0.13645
3756.84355	0.13881
3754.91499	0.14062
3752.98643	0.14294
3751.05786	0.14683
3749.12930	0.15119
3747.20073	0.15335
3745.27217	0.15499
3743.34360	0.15818
3741.41504	0.16132
3739.48647	0.16355
3737.55791	0.16621
3735.62935	0.17035
3733.70078	0.17597
3731.77222	0.18101
3729.84365	0.18503
3727.91509	0.18881
3725.98652	0.19361
3724.05796	0.19990
3722.12939	0.20673
3720.20083	0.21384
3718.27227	0.22137
3716.34370	0.22906
3714.41514	0.23638
3712.48657	0.24489
3710.55801	0.25762
3708.62944	0.27223
3706.70088	0.28414
3704.77231	0.29493
3702.84375	0.30735
3700.91519	0.32354
3698.98662	0.34149
3697.05806	0.35851
3695.12949	0.37626
3693.20093	0.39505
3691.27236	0.41561
3689.34380	0.44273
3687.41523	0.47711
3685.48667	0.50794
3683.55811	0.53413
3681.62954	0.56143
3679.70098	0.59193
3677.77241	0.62425
3675.84385	0.66277
3673.91528	0.71482
3671.98672	0.75738
3670.05815	0.79469
3668.12959	0.84661
3666.20103	0.89504
3664.27246	0.93550
3662.34390	0.97852
3660.41533	1.02471
3658.48677	1.06992
3656.55820	1.11784
3654.62964	1.17192
3652.70107	1.21798
3650.77251	1.25725
3648.84395	1.31011
3646.91538	1.37633
3644.98682	1.42722
3643.05825	1.46687
3641.12969	1.50647
3639.20112	1.54967
3637.27256	1.59348
3635.34399	1.63607
3633.41543	1.67879
3631.48687	1.71890
3629.55830	1.75870
3627.62974	1.81076
3625.70117	1.86067
3623.77261	1.89534
3621.84404	1.92880
3619.91548	1.96649
3617.98691	2.01073
3616.05835	2.05417
3614.12979	2.09327
3612.20122	2.13430
3610.27266	2.17273
3608.34409	2.20989
3606.41553	2.24988
3604.48696	2.28791
3602.55840	2.32279
3600.62983	2.36076
3598.70127	2.40207
3596.77271	2.44194
3594.84414	2.48121
3592.91558	2.52189
3590.98701	2.56128
3589.05845	2.59794
3587.12988	2.64175
3585.20132	2.69229
3583.27275	2.73638
3581.34419	2.77546
3579.41562	2.81419
3577.48706	2.85386
3575.55850	2.89559
3573.62993	2.93986
3571.70137	2.98255
3569.77280	3.02276
3567.84424	3.06533
3565.91567	3.11678
3563.98711	3.16868
3562.05854	3.21339
3560.12998	3.25647
3558.20142	3.29926
3556.27285	3.34195
3554.34429	3.38591
3552.41572	3.43434
3550.48716	3.48562
3548.55859	3.53327
3546.63003	3.57555
3544.70146	3.61853
3542.77290	3.66552
3540.84434	3.71288
3538.91577	3.75952
3536.98721	3.80663
3535.05864	3.85604
3533.13008	3.90545
3531.20151	3.95429
3529.27295	4.00455
3527.34438	4.05621
3525.41582	4.10497
3523.48726	4.14944
3521.55869	4.19669
3519.63013	4.24871
3517.70156	4.29972
3515.77300	4.34396
3513.84443	4.38571
3511.91587	4.43537
3509.98730	4.49292
3508.05874	4.54696
3506.13018	4.59212
3504.20161	4.63542
3502.27305	4.68324
3500.34448	4.73051
3498.41592	4.77227
3496.48735	4.81642
3494.55879	4.86559
3492.63022	4.91411
3490.70166	4.96235
3488.77310	5.01351
3486.84453	5.06554
3484.91597	5.11396
3482.98740	5.15930
3481.05884	5.20640
3479.13027	5.25430
3477.20171	5.30158
3475.27314	5.34994
3473.34458	5.39876
3471.41602	5.44951
3469.48745	5.49757
3467.55889	5.53797
3465.63032	5.58283
3463.70176	5.64267
3461.77319	5.70697
3459.84463	5.76148
3457.91606	5.80525
3455.98750	5.85157
3454.05894	5.90481
3452.13037	5.95773
3450.20181	6.01188
3448.27324	6.06304
3446.34468	6.10171
3444.41611	6.13736
3442.48755	6.19220
3440.55898	6.26213
3438.63042	6.33036
3436.70186	6.38374
3434.77329	6.41983
3432.84473	6.46259
3430.91616	6.52639
3428.98760	6.59645
3427.05903	6.63709
3425.13047	6.65073
3423.20190	6.68405
3421.27334	6.73992
3419.34478	6.77821
3417.41621	6.82156
3415.48765	6.90008
3413.55908	6.97658
3411.63052	7.04154
3409.70195	7.10551
3407.77339	7.16180
3405.84482	7.20077
3403.91626	7.21495
3401.98770	7.21602
3400.05913	7.25859
3398.13057	7.35604
3396.20200	7.44123
3394.27344	7.50066
3392.34487	7.55356
3390.41631	7.57483
3388.48774	7.54828
3386.55918	7.50351
3384.63062	7.48149
3382.70205	7.51946
3380.77349	7.58038
3378.84492	7.60135
3376.91636	7.62628
3374.98779	7.70979
3373.05923	7.80471
3371.13066	7.82053
3369.20210	7.81864
3367.27354	7.89359
3365.34497	8.00720
3363.41641	8.04011
3361.48784	7.99200
3359.55928	7.96874
3357.63071	8.00072
3355.70215	8.03498
3353.77358	7.96906
3351.84502	7.87763
3349.91646	7.87713
3347.98789	7.98682
3346.05933	8.16282
3344.13076	8.28210
3342.20220	8.28053
3340.27363	8.20842
3338.34507	8.14236
3336.41650	8.07400
3334.48794	8.02258
3332.55937	8.05835
3330.63081	8.20525
3328.70225	8.35903
3326.77368	8.34371
3324.84512	8.27341
3322.91655	8.33987
3320.98799	8.43160
3319.05942	8.39518
3317.13086	8.35090
3315.20229	8.33904
3313.27373	8.34575
3311.34517	8.35941
3309.41660	8.34301
3307.48804	8.38105
3305.55947	8.44643
3303.63091	8.40636
3301.70234	8.32042
3299.77378	8.30111
3297.84521	8.34058
3295.91665	8.44311
3293.98809	8.53834
3292.05952	8.45748
3290.13096	8.33511
3288.20239	8.42268
3286.27383	8.59125
3284.34526	8.47555
3282.41670	8.27100
3280.48813	8.26629
3278.55957	8.41046
3276.63101	8.50966
3274.70244	8.46032
3272.77388	8.36149
3270.84531	8.32432
3268.91675	8.40469
3266.98818	8.58431
3265.05962	8.71147
3263.13105	8.68806
3261.20249	8.66142
3259.27393	8.72558
3257.34536	8.75050
3255.41680	8.63421
3253.48823	8.47956
3251.55967	8.36857
3249.63110	8.33175
3247.70254	8.37168
3245.77397	8.43836
3243.84541	8.45442
3241.91685	8.40480
3239.98828	8.41629
3238.05972	8.47538
3236.13115	8.48219
3234.20259	8.52999
3232.27402	8.64937
3230.34546	8.64510
3228.41689	8.46234
3226.48833	8.32969
3224.55977	8.33629
3222.63120	8.37836
3220.70264	8.34509
3218.77407	8.28127
3216.84551	8.26779
3214.91694	8.22488
3212.98838	8.13586
3211.05981	8.11595
3209.13125	8.15289
3207.20269	8.13531
3205.27412	8.02776
3203.34556	7.94227
3201.41699	7.98134
3199.48843	8.04812
3197.55986	8.02545
3195.63130	7.96466
3193.70273	7.90671
3191.77417	7.84312
3189.84561	7.78486
3187.91704	7.74842
3185.98848	7.69046
3184.05991	7.55746
3182.13135	7.43236
3180.20278	7.40580
3178.27422	7.39849
3176.34565	7.31883
3174.41709	7.24091
3172.48853	7.20983
3170.55996	7.13855
3168.63140	7.01771
3166.70283	6.95406
3164.77427	6.94818
3162.84570	6.90211
3160.91714	6.81294
3158.98857	6.75000
3157.06001	6.70996
3155.13145	6.65003
3153.20288	6.56669
3151.27432	6.48647
3149.34575	6.42016
3147.41719	6.35357
3145.48862	6.27699
3143.56006	6.19327
3141.63149	6.11160
3139.70293	6.03723
3137.77437	5.97763
3135.84580	5.93121
3133.91724	5.87330
3131.98867	5.79412
3130.06011	5.70561
3128.13154	5.61653
3126.20298	5.53508
3124.27441	5.46502
3122.34585	5.39972
3120.41729	5.33204
3118.48872	5.25719
3116.56016	5.17483
3114.63159	5.09324
3112.70303	5.02261
3110.77446	4.96322
3108.84590	4.90440
3106.91733	4.83691
3104.98877	4.76545
3103.06021	4.69780
3101.13164	4.63008
3099.20308	4.56138
3097.27451	4.49552
3095.34595	4.42993
3093.41738	4.36263
3091.48882	4.29586
3089.56025	4.23094
3087.63169	4.16753
3085.70312	4.10540
3083.77456	4.04403
3081.84600	3.98347
3079.91743	3.92272
3077.98887	3.86098
3076.06030	3.79941
3074.13174	3.73879
3072.20317	3.67918
3070.27461	3.61990
3068.34604	3.56167
3066.41748	3.50580
3064.48892	3.45188
3062.56035	3.39781
3060.63179	3.34205
3058.70322	3.28688
3056.77466	3.23355
3054.84609	3.17987
3052.91753	3.12603
3050.98896	3.07353
3049.06040	3.02182
3047.13184	2.97081
3045.20327	2.92114
3043.27471	2.87353
3041.34614	2.82765
3039.41758	2.78136
3037.48901	2.73411
3035.56045	2.68749
3033.63188	2.64214
3031.70332	2.59710
3029.77476	2.55198
3027.84619	2.50763
3025.91763	2.46403
3023.98906	2.42078
3022.06050	2.37807
3020.13193	2.33607
3018.20337	2.29539
3016.27480	2.25578
3014.34624	2.21610
3012.41768	2.17676
3010.48911	2.13861
3008.56055	2.10115
3006.63198	2.06441
3004.70342	2.02857
3002.77485	1.99258
3000.84629	1.95686
2998.91772	1.92289
2996.98916	1.89047
2995.06060	1.85863
2993.13203	1.82704
2991.20347	1.79602
2989.27490	1.76587
2987.34634	1.73662
2985.41777	1.70807
2983.48921	1.68003
2981.56064	1.65217
2979.63208	1.62453
2977.70352	1.59796
2975.77495	1.57280
2973.84639	1.54835
2971.91782	1.52387
2969.98926	1.49938
2968.06069	1.47526
2966.13213	1.45124
2964.20356	1.42725
2962.27500	1.40352
2960.34644	1.38000
2958.41787	1.35653
2956.48931	1.33285
2954.56074	1.30887
2952.63218	1.28496
2950.70361	1.26185
2948.77505	1.23960
2946.84648	1.21760
2944.91792	1.19600
2942.98936	1.17495
2941.06079	1.15414
2939.13223	1.13386
2937.20366	1.11434
2935.27510	1.09530
2933.34653	1.07626
2931.41797	1.05677
2929.48940	1.03715
2927.56084	1.01799
2925.63228	0.99929
2923.70371	0.98088
2921.77515	0.96317
2919.84658	0.94650
2917.91802	0.93042
2915.98945	0.91434
2914.06089	0.89819
2912.13232	0.88199
2910.20376	0.86555
2908.27520	0.84932
2906.34663	0.83423
2904.41807	0.82004
2902.48950	0.80569
2900.56094	0.79128
2898.63237	0.77773
2896.70381	0.76499
2894.77524	0.75242
2892.84668	0.73983
2890.91812	0.72719
2888.98955	0.71511
2887.06099	0.70434
2885.13242	0.69425
2883.20386	0.68398
2881.27529	0.67379
2879.34673	0.66398
2877.41816	0.65440
2875.48960	0.64482
2873.56104	0.63493
2871.63247	0.62443
2869.70391	0.61340
2867.77534	0.60222
2865.84678	0.59078
2863.91821	0.57915
2861.98965	0.56794
2860.06108	0.55713
2858.13252	0.54644
2856.20396	0.53632
2854.27539	0.52713
2852.34683	0.51856
2850.41826	0.51019
2848.48970	0.50191
2846.56113	0.49398
2844.63257	0.48650
2842.70400	0.47931
2840.77544	0.47243
2838.84687	0.46594
2836.91831	0.45967
2834.98975	0.45334
2833.06118	0.44695
2831.13262	0.44058
2829.20405	0.43448
2827.27549	0.42877
2825.34692	0.42315
2823.41836	0.41726
2821.48979	0.41102
2819.56123	0.40482
2817.63267	0.39894
2815.70410	0.39324
2813.77554	0.38778
2811.84697	0.38266
2809.91841	0.37753
2807.98984	0.37210
2806.06128	0.36659
2804.13271	0.36146
2802.20415	0.35683
2800.27559	0.35212
2798.34702	0.34709
2796.41846	0.34210
2794.48989	0.33729
2792.56133	0.33255
2790.63276	0.32797
2788.70420	0.32369
2786.77563	0.31950
2784.84707	0.31512
2782.91851	0.31070
2780.98994	0.30658
2779.06138	0.30285
2777.13281	0.29915
2775.20425	0.29526
2773.27568	0.29128
2771.34712	0.28737
2769.41855	0.28366
2767.48999	0.28010
2765.56143	0.27659
2763.63286	0.27318
2761.70430	0.26996
2759.77573	0.26691
2757.84717	0.26389
2755.91860	0.26083
2753.99004	0.25767
2752.06147	0.25445
2750.13291	0.25144
2748.20435	0.24874
2746.27578	0.24605
2744.34722	0.24330
2742.41865	0.24054
2740.49009	0.23774
2738.56152	0.23510
2736.63296	0.23277
2734.70439	0.23045
2732.77583	0.22795
2730.84727	0.22550
2728.91870	0.22326
2726.99014	0.22112
2725.06157	0.21892
2723.13301	0.21667
2721.20444	0.21449
2719.27588	0.21236
2717.34731	0.21030
2715.41875	0.20838
2713.49019	0.20659
2711.56162	0.20486
2709.63306	0.20318
2707.70449	0.20140
2705.77593	0.19948
2703.84736	0.19767
2701.91880	0.19619
2699.99023	0.19498
2698.06167	0.19363
2696.13311	0.19196
2694.20454	0.19036
2692.27598	0.18901
2690.34741	0.18771
2688.41885	0.18640
2686.49028	0.18516
2684.56172	0.18406
2682.63315	0.18309
2680.70459	0.18202
2678.77603	0.18075
2676.84746	0.17951
2674.91890	0.17833
2672.99033	0.17710
2671.06177	0.17594
2669.13320	0.17496
2667.20464	0.17408
2665.27607	0.17313
2663.34751	0.17215
2661.41895	0.17129
2659.49038	0.17061
2657.56182	0.16997
2655.63325	0.16919
2653.70469	0.16827
2651.77612	0.16737
2649.84756	0.16665
2647.91899	0.16619
2645.99043	0.16583
2644.06187	0.16531
2642.13330	0.16462
2640.20474	0.16400
2638.27617	0.16354
2636.34761	0.16308
2634.41904	0.16251
2632.49048	0.16190
2630.56191	0.16148
2628.63335	0.16120
2626.70479	0.16077
2624.77622	0.16022
2622.84766	0.15990
2620.91909	0.15983
2618.99053	0.15973
2617.06196	0.15948
2615.13340	0.15927
2613.20483	0.15910
2611.27627	0.15892
2609.34771	0.15869
2607.41914	0.15841
2605.49058	0.15816
2603.56201	0.15797
2601.63345	0.15791
2599.70488	0.15802
2597.77632	0.15816
2595.84775	0.15823
2593.91919	0.15827
2591.99062	0.15834
2590.06206	0.15831
2588.13350	0.15824
2586.20493	0.15829
2584.27637	0.15850
2582.34780	0.15874
2580.41924	0.15898
2578.49067	0.15942
2576.56211	0.16005
2574.63354	0.16053
2572.70498	0.16076
2570.77642	0.16088
2568.84785	0.16103
2566.91929	0.16133
2564.99072	0.16171
2563.06216	0.16199
2561.13359	0.16230
2559.20503	0.16285
2557.27646	0.16351
2555.34790	0.16400
2553.41934	0.16431
2551.49077	0.16461
2549.56221	0.16497
2547.63364	0.16553
2545.70508	0.16625
2543.77651	0.16694
2541.84795	0.16758
2539.91938	0.16821
2537.99082	0.16879
2536.06226	0.16936
2534.13369	0.16996
2532.20513	0.17061
2530.27656	0.17130
2528.34800	0.17192
2526.41943	0.17252
2524.49087	0.17320
2522.56230	0.17396
2520.63374	0.17476
2518.70518	0.17558
2516.77661	0.17631
2514.84805	0.17696
2512.91948	0.17761
2510.99092	0.17829
2509.06235	0.17899
2507.13379	0.17980
2505.20522	0.18068
2503.27666	0.18143
2501.34810	0.18205
2499.41953	0.18272
2497.49097	0.18349
2495.56240	0.18436
2493.63384	0.18537
2491.70527	0.18635
2489.77671	0.18717
2487.84814	0.18797
2485.91958	0.18875
2483.99102	0.18949
2482.06245	0.19028
2480.13389	0.19115
2478.20532	0.19208
2476.27676	0.19305
2474.34819	0.19393
2472.41963	0.19474
2470.49106	0.19563
2468.56250	0.19657
2466.63394	0.19746
2464.70537	0.19829
2462.77681	0.19907
2460.84824	0.19999
2458.91968	0.20099
2456.99111	0.20190
2455.06255	0.20274
2453.13398	0.20361
2451.20542	0.20452
2449.27686	0.20536
2447.34829	0.20615
2445.41973	0.20708
2443.49116	0.20812
2441.56260	0.20916
2439.63403	0.21027
2437.70547	0.21147
2435.77690	0.21260
2433.84834	0.21349
2431.91978	0.21432
2429.99121	0.21531
2428.06265	0.21640
2426.13408	0.21740
2424.20552	0.21840
2422.27695	0.21952
2420.34839	0.22062
2418.41982	0.22160
2416.49126	0.22258
2414.56270	0.22366
2412.63413	0.22491
2410.70557	0.22624
2408.77700	0.22748
2406.84844	0.22858
2404.91987	0.22961
2402.99131	0.23072
2401.06274	0.23189
2399.13418	0.23306
2397.20562	0.23427
2395.27705	0.23553
2393.34849	0.23681
2391.41992	0.23810
2389.49136	0.23934
2387.56279	0.24042
2385.63423	0.24135
2383.70566	0.24213
2381.77710	0.24275
2379.84854	0.24322
2377.91997	0.24368
2375.99141	0.24425
2374.06284	0.24487
2372.13428	0.24552
2370.20571	0.24605
2368.27715	0.24621
2366.34858	0.24636
2364.42002	0.24641
2362.49146	0.24600
2360.56289	0.24660
2358.63433	0.24820
2356.70576	0.25023
2354.77720	0.25390
2352.84863	0.25829
2350.92007	0.26158
2348.99150	0.26332
2347.06294	0.26392
2345.13437	0.26399
2343.20581	0.26425
2341.27725	0.26565
2339.34868	0.26814
2337.42012	0.27031
2335.49155	0.27201
2333.56299	0.27366
2331.63442	0.27542
2329.70586	0.27739
2327.77729	0.27937
2325.84873	0.28123
2323.92017	0.28321
2321.99160	0.28534
2320.06304	0.28763
2318.13447	0.29004
2316.20591	0.29221
2314.27734	0.29436
2312.34878	0.29678
2310.42021	0.29903
2308.49165	0.30098
2306.56309	0.30294
2304.63452	0.30492
2302.70596	0.30676
2300.77739	0.30850
2298.84883	0.31037
2296.92026	0.31247
2294.99170	0.31465
2293.06313	0.31680
2291.13457	0.31887
2289.20601	0.32077
2287.27744	0.32272
2285.34888	0.32486
2283.42031	0.32689
2281.49175	0.32871
2279.56318	0.33056
2277.63462	0.33256
2275.70605	0.33464
2273.77749	0.33671
2271.84893	0.33887
2269.92036	0.34106
2267.99180	0.34312
2266.06323	0.34520
2264.13467	0.34735
2262.20610	0.34947
2260.27754	0.35156
2258.34897	0.35365
2256.42041	0.35580
2254.49185	0.35809
2252.56328	0.36046
2250.63472	0.36271
2248.70615	0.36481
2246.77759	0.36684
2244.84902	0.36890
2242.92046	0.37107
2240.99189	0.37329
2239.06333	0.37547
2237.13477	0.37760
2235.20620	0.37975
2233.27764	0.38201
2231.34907	0.38438
2229.42051	0.38673
2227.49194	0.38890
2225.56338	0.39100
2223.63481	0.39323
2221.70625	0.39550
2219.77769	0.39771
2217.84912	0.39990
2215.92056	0.40204
2213.99199	0.40408
2212.06343	0.40609
2210.13486	0.40814
2208.20630	0.41029
2206.27773	0.41249
2204.34917	0.41471
2202.42061	0.41680
2200.49204	0.41871
2198.56348	0.42059
2196.63491	0.42253
2194.70635	0.42447
2192.77778	0.42636
2190.84922	0.42821
2188.92065	0.43001
2186.99209	0.43181
2185.06353	0.43358
2183.13496	0.43530
2181.20640	0.43706
2179.27783	0.43878
2177.34927	0.44029
2175.42070	0.44173
2173.49214	0.44327
2171.56357	0.44475
2169.63501	0.44613
2167.70645	0.44745
2165.77788	0.44853
2163.84932	0.44943
2161.92075	0.45044
2159.99219	0.45159
2158.06362	0.45276
2156.13506	0.45387
2154.20649	0.45483
2152.27793	0.45562
2150.34937	0.45629
2148.42080	0.45682
2146.49224	0.45723
2144.56367	0.45761
2142.63511	0.45803
2140.70654	0.45845
2138.77798	0.45877
2136.84941	0.45894
2134.92085	0.45903
2132.99229	0.45907
2131.06372	0.45895
2129.13516	0.45871
2127.20659	0.45843
2125.27803	0.45806
2123.34946	0.45756
2121.42090	0.45697
2119.49233	0.45632
2117.56377	0.45568
2115.63521	0.45496
2113.70664	0.45422
2111.77808	0.45347
2109.84951	0.45257
2107.92095	0.45153
2105.99238	0.45041
2104.06382	0.44916
2102.13525	0.44774
2100.20669	0.44621
2098.27812	0.44463
2096.34956	0.44321
2094.42100	0.44184
2092.49243	0.44031
2090.56387	0.43867
2088.63530	0.43687
2086.70674	0.43501
2084.77817	0.43317
2082.84961	0.43122
2080.92104	0.42917
2078.99248	0.42717
2077.06392	0.42519
2075.13535	0.42306
2073.20679	0.42077
2071.27822	0.41844
2069.34966	0.41612
2067.42109	0.41376
2065.49253	0.41138
2063.56396	0.40895
2061.63540	0.40652
2059.70684	0.40407
2057.77827	0.40156
2055.84971	0.39897
2053.92114	0.39635
2051.99258	0.39373
2050.06401	0.39112
2048.13545	0.38863
2046.20688	0.38619
2044.27832	0.38360
2042.34976	0.38080
2040.42119	0.37794
2038.49263	0.37512
2036.56406	0.37237
2034.63550	0.36962
2032.70693	0.36682
2030.77837	0.36409
2028.84980	0.36136
2026.92124	0.35853
2024.99268	0.35569
2023.06411	0.35291
2021.13555	0.35011
2019.20698	0.34732
2017.27842	0.34465
2015.34985	0.34203
2013.42129	0.33927
2011.49272	0.33646
2009.56416	0.33379
2007.63560	0.33118
2005.70703	0.32856
2003.77847	0.32594
2001.84990	0.32325
1999.92134	0.32057
1997.99277	0.31802
1996.06421	0.31560
1994.13564	0.31316
1992.20708	0.31059
1990.27852	0.30793
1988.34995	0.30538
1986.42139	0.30295
1984.49282	0.30057
1982.56426	0.29817
1980.63569	0.29572
1978.70713	0.29344
1976.77856	0.29135
1974.85000	0.28926
1972.92144	0.28710
1970.99287	0.28501
1969.06431	0.28298
1967.13574	0.28091
1965.20718	0.27884
1963.27861	0.27698
1961.35005	0.27523
1959.42148	0.27333
1957.49292	0.27136
1955.56436	0.26944
1953.63579	0.26760
1951.70723	0.26590
1949.77866	0.26439
1947.85010	0.26294
1945.92153	0.26144
1943.99297	0.25991
1942.06440	0.25839
1940.13584	0.25692
1938.20728	0.25559
1936.27871	0.25433
1934.35015	0.25304
1932.42158	0.25181
1930.49302	0.25062
1928.56445	0.24942
1926.63589	0.24828
1924.70732	0.24731
1922.77876	0.24640
1920.85020	0.24544
1918.92163	0.24454
1916.99307	0.24374
1915.06450	0.24295
1913.13594	0.24208
1911.20737	0.24128
1909.27881	0.24062
1907.35024	0.24004
1905.42168	0.23935
1903.49312	0.23869
1901.56455	0.23822
1899.63599	0.23778
1897.70742	0.23728
1895.77886	0.23677
1893.85029	0.23633
1891.92173	0.23599
1889.99316	0.23582
1888.06460	0.23572
1886.13604	0.23556
1884.20747	0.23533
1882.27891	0.23515
1880.35034	0.23512
1878.42178	0.23506
1876.49321	0.23496
1874.56465	0.23501
1872.63608	0.23523
1870.70752	0.23538
1868.77896	0.23560
1866.85039	0.23582
1864.92183	0.23592
1862.99326	0.23608
1861.06470	0.23625
1859.13613	0.23653
1857.20757	0.23700
1855.27900	0.23756
1853.35044	0.23801
1851.42187	0.23849
1849.49331	0.23903
1847.56475	0.23959
1845.63618	0.24026
1843.70762	0.24118
1841.77905	0.24213
1839.85049	0.24280
1837.92192	0.24356
1835.99336	0.24438
1834.06479	0.24521
1832.13623	0.24605
1830.20767	0.24726
1828.27910	0.24881
1826.35054	0.25012
1824.42197	0.25150
1822.49341	0.25288
1820.56484	0.25421
1818.63628	0.25556
1816.70771	0.25705
1814.77915	0.25851
1812.85059	0.26010
1810.92202	0.26208
1808.99346	0.26427
1807.06489	0.26636
1805.13633	0.26830
1803.20776	0.27034
1801.27920	0.27259
1799.35063	0.27527
1797.42207	0.27786
1795.49351	0.28034
1793.56494	0.28318
1791.63638	0.28682
1789.70781	0.29033
1787.77925	0.29293
1785.85068	0.29592
1783.92212	0.29952
1781.99355	0.30343
1780.06499	0.30760
1778.13643	0.31198
1776.20786	0.31607
1774.27930	0.32018
1772.35073	0.32566
1770.42217	0.33194
1768.49360	0.33750
1766.56504	0.34276
1764.63647	0.34802
1762.70791	0.35374
1760.77935	0.36106
1758.85078	0.36800
1756.92222	0.37505
1754.99365	0.38289
1753.06509	0.38995
1751.13652	0.39805
1749.20796	0.40833
1747.27939	0.41881
1745.35083	0.42819
1743.42227	0.43802
1741.49370	0.44866
1739.56514	0.46105
1737.63657	0.47342
1735.70801	0.48407
1733.77944	0.50008
1731.85088	0.51974
1729.92231	0.53550
1727.99375	0.55130
1726.06519	0.56814
1724.13662	0.58634
1722.20806	0.60597
1720.27949	0.62410
1718.35093	0.64532
1716.42236	0.67704
1714.49380	0.70752
1712.56523	0.73209
1710.63667	0.75591
1708.70811	0.78169
1706.77954	0.81087
1704.85098	0.84580
1702.92241	0.87732
1700.99385	0.90864
1699.06528	0.95540
1697.13672	0.99901
1695.20815	1.04400
1693.27959	1.08729
1691.35103	1.12207
1689.42246	1.16261
1687.49390	1.20575
1685.56533	1.24750
1683.63677	1.31209
1681.70820	1.37945
1679.77964	1.42267
1677.85107	1.46368
1675.92251	1.51066
1673.99395	1.56881
1672.06538	1.62132
1670.13682	1.67417
1668.20825	1.74278
1666.27969	1.79792
1664.35112	1.84503
1662.42256	1.90584
1660.49399	1.97591
1658.56543	2.03097
1656.63687	2.07424
1654.70830	2.11153
1652.77974	2.16930
1650.85117	2.22734
1648.92261	2.24861
1646.99404	2.27205
1645.06548	2.29638
1643.13691	2.31327
1641.20835	2.32180
1639.27979	2.32806
1637.35122	2.33097
1635.42266	2.32589
1633.49409	2.31277
1631.56553	2.29711
1629.63696	2.27905
1627.70840	2.24832
1625.77983	2.21130
1623.85127	2.16588
1621.92271	2.11246
1619.99414	2.06663
1618.06558	2.02198
1616.13701	1.95690
1614.20845	1.89074
1612.27988	1.84074
1610.35132	1.78849
1608.42275	1.73176
1606.49419	1.67608
1604.56562	1.62504
1602.63706	1.57590
1600.70850	1.52821
1598.77993	1.48459
1596.85137	1.44392
1594.92280	1.40460
1592.99424	1.36630
1591.06567	1.33121
1589.13711	1.29914
1587.20854	1.26999
1585.27998	1.24330
1583.35142	1.21860
1581.42285	1.19668
1579.49429	1.17855
1577.56572	1.16253
1575.63716	1.14321
1573.70859	1.12644
1571.78003	1.11581
1569.85146	1.10532
1567.92290	1.09465
1565.99434	1.08760
1564.06577	1.08287
1562.13721	1.07970
1560.20864	1.07916
1558.28008	1.08321
1556.35151	1.08752
1554.42295	1.08922
1552.49438	1.09099
1550.56582	1.09155
1548.63726	1.08940
1546.70869	1.08444
1544.78013	1.07636
1542.85156	1.06494
1540.92300	1.04676
1538.99443	1.01681
1537.06587	0.99539
1535.13730	0.98123
1533.20874	0.96177
1531.28018	0.94067
1529.35161	0.92550
1527.42305	0.91116
1525.49448	0.89606
1523.56592	0.88345
1521.63735	0.87213
1519.70879	0.86053
1517.78022	0.85001
1515.85166	0.83774
1513.92310	0.82505
1511.99453	0.81391
1510.06597	0.80365
1508.13740	0.79365
1506.20884	0.77882
1504.28027	0.76624
1502.35171	0.75929
1500.42314	0.75321
1498.49458	0.74648
1496.56602	0.73832
1494.63745	0.73026
1492.70889	0.72409
1490.78032	0.71860
1488.85176	0.71224
1486.92319	0.70640
1484.99463	0.70201
1483.06606	0.69846
1481.13750	0.69548
1479.20894	0.69335
1477.28037	0.69216
1475.35181	0.69167
1473.42324	0.69187
1471.49468	0.69165
1469.56611	0.69003
1467.63755	0.68799
1465.70898	0.68638
1463.78042	0.68522
1461.85186	0.68444
1459.92329	0.68447
1457.99473	0.68552
1456.06616	0.68588
1454.13760	0.68367
1452.20903	0.68089
1450.28047	0.67823
1448.35190	0.67587
1446.42334	0.67345
1444.49478	0.67085
1442.56621	0.66831
1440.63765	0.66570
1438.70908	0.66290
1436.78052	0.65948
1434.85195	0.65574
1432.92339	0.65287
1430.99482	0.65096
1429.06626	0.64986
1427.13770	0.64951
1425.20913	0.64978
1423.28057	0.65049
1421.35200	0.65106
1419.42344	0.65130
1417.49487	0.65121
1415.56631	0.65060
1413.63774	0.65008
1411.70918	0.65011
1409.78062	0.65084
1407.85205	0.65212
1405.92349	0.65369
1403.99492	0.65514
1402.06636	0.65572
1400.13779	0.65529
1398.20923	0.65379
1396.28066	0.65120
1394.35210	0.64765
1392.42354	0.64372
1390.49497	0.63989
1388.56641	0.63571
1386.63784	0.63073
1384.70928	0.62561
1382.78071	0.62084
1380.85215	0.61624
1378.92358	0.61215
1376.99502	0.60902
1375.06646	0.60700
1373.13789	0.60579
1371.20933	0.60493
1369.28076	0.60407
1367.35220	0.60302
1365.42363	0.60163
1363.49507	0.60003
1361.56650	0.59849
1359.63794	0.59699
1357.70937	0.59548
1355.78081	0.59409
1353.85225	0.59291
1351.92368	0.59195
1349.99512	0.59123
1348.06655	0.59077
1346.13799	0.59017
1344.20942	0.58929
1342.28086	0.58841
1340.35229	0.58767
1338.42373	0.58689
1336.49517	0.58617
1334.56660	0.58578
1332.63804	0.58583
1330.70947	0.58613
1328.78091	0.58650
1326.85234	0.58704
1324.92378	0.58779
1322.99521	0.58853
1321.06665	0.58911
1319.13809	0.58960
1317.20952	0.58999
1315.28096	0.59009
1313.35239	0.58975
1311.42383	0.58921
1309.49526	0.58881
1307.56670	0.58853
1305.63813	0.58805
1303.70957	0.58734
1301.78101	0.58663
1299.85244	0.58594
1297.92388	0.58511
1295.99531	0.58402
1294.06675	0.58271
1292.13818	0.58136
1290.20962	0.58013
1288.28105	0.57904
1286.35249	0.57800
1284.42393	0.57692
1282.49536	0.57564
1280.56680	0.57410
1278.63823	0.57253
1276.70967	0.57104
1274.78110	0.56966
1272.85254	0.56862
1270.92397	0.56796
1268.99541	0.56743
1267.06685	0.56678
1265.13828	0.56598
1263.20972	0.56516
1261.28115	0.56431
1259.35259	0.56349
1257.42402	0.56289
1255.49546	0.56252
1253.56689	0.56233
1251.63833	0.56220
1249.70977	0.56210
1247.78120	0.56202
1245.85264	0.56176
1243.92407	0.56115
1241.99551	0.56018
1240.06694	0.55880
1238.13838	0.55710
1236.20981	0.55529
1234.28125	0.55324
1232.35269	0.55089
1230.42412	0.54862
1228.49556	0.54664
1226.56699	0.54471
1224.63843	0.54286
1222.70986	0.54126
1220.78130	0.53979
1218.85273	0.53830
1216.92417	0.53680
1214.99561	0.53545
1213.06704	0.53439
1211.13848	0.53360
1209.20991	0.53291
1207.28135	0.53221
1205.35278	0.53140
1203.42422	0.53049
1201.49565	0.52948
1199.56709	0.52849
1197.63853	0.52764
1195.70996	0.52692
1193.78140	0.52628
1191.85283	0.52572
1189.92427	0.52522
1187.99570	0.52479
1186.06714	0.52453
1184.13857	0.52453
1182.21001	0.52482
1180.28145	0.52558
1178.35288	0.52685
1176.42432	0.52833
1174.49575	0.52958
1172.56719	0.53044
1170.63862	0.53085
1168.71006	0.53085
1166.78149	0.53067
1164.85293	0.53050
1162.92437	0.53034
1160.99580	0.53011
1159.06724	0.52976
1157.13867	0.52925
1155.21011	0.52853
1153.28154	0.52754
1151.35298	0.52609
1149.42441	0.52398
1147.49585	0.52142
1145.56729	0.51889
1143.63872	0.51665
1141.71016	0.51454
1139.78159	0.51248
1137.85303	0.51086
1135.92446	0.51001
1133.99590	0.50962
1132.06733	0.50921
1130.13877	0.50863
1128.21021	0.50805
1126.28164	0.50756
1124.35308	0.50707
1122.42451	0.50666
1120.49595	0.50639
1118.56738	0.50622
1116.63882	0.50629
1114.71025	0.50676
1112.78169	0.50744
1110.85312	0.50799
1108.92456	0.50849
1106.99600	0.50922
1105.06743	0.51027
1103.13887	0.51158
1101.21030	0.51303
1099.28174	0.51471
1097.35317	0.51689
1095.42461	0.51964
1093.49604	0.52317
1091.56748	0.52778
1089.63892	0.53331
1087.71035	0.53978
1085.78179	0.54716
1083.85322	0.55473
1081.92466	0.56169
1079.99609	0.56742
1078.06753	0.57078
1076.13896	0.57091
1074.21040	0.56814
1072.28184	0.56321
1070.35327	0.55694
1068.42471	0.55008
1066.49614	0.54302
1064.56758	0.53630
1062.63901	0.53053
1060.71045	0.52574
1058.78188	0.52136
1056.85332	0.51709
1054.92476	0.51324
1052.99619	0.51018
1051.06763	0.50786
1049.13906	0.50600
1047.21050	0.50434
1045.28193	0.50283
1043.35337	0.50165
1041.42480	0.50091
1039.49624	0.50051
1037.56768	0.50031
1035.63911	0.50005
1033.71055	0.49954
1031.78198	0.49885
1029.85342	0.49793
1027.92485	0.49688
1025.99629	0.49608
1024.06772	0.49543
1022.13916	0.49479
1020.21060	0.49460
1018.28203	0.49475
1016.35347	0.49475
1014.42490	0.49461
1012.49634	0.49463
1010.56777	0.49506
1008.63921	0.49595
1006.71064	0.49698
1004.78208	0.49814
1002.85352	0.49979
1000.92495	0.50219
998.99639	0.50544
997.06782	0.50949
995.13926	0.51396
993.21069	0.51825
991.28213	0.52164
989.35356	0.52366
987.42500	0.52452
985.49644	0.52487
983.56787	0.52527
981.63931	0.52592
979.71074	0.52676
977.78218	0.52807
975.85361	0.53004
973.92505	0.53239
971.99648	0.53509
970.06792	0.53832
968.13936	0.54204
966.21079	0.54614
964.28223	0.55070
962.35366	0.55558
960.42510	0.56053
958.49653	0.56567
956.56797	0.57134
954.63940	0.57757
952.71084	0.58396
950.78228	0.59021
948.85371	0.59656
946.92515	0.60336
944.99658	0.61025
943.06802	0.61663
941.13945	0.62257
939.21089	0.62826
937.28232	0.63396
935.35376	0.63959
933.42520	0.64486
931.49663	0.65066
929.56807	0.65730
927.63950	0.66383
925.71094	0.67018
923.78237	0.67664
921.85381	0.68290
919.92524	0.68899
917.99668	0.69539
916.06812	0.70250
914.13955	0.71043
912.21099	0.71894
910.28242	0.72774
908.35386	0.73647
906.42529	0.74512
904.49673	0.75389
902.56816	0.76281
900.63960	0.77244
898.71104	0.78208
896.78247	0.79028
894.85391	0.79916
892.92534	0.81086
890.99678	0.82323
889.06821	0.83489
887.13965	0.84661
885.21108	0.85789
883.28252	0.86886
881.35396	0.88041
879.42539	0.89162
877.49683	0.90160
875.56826	0.91203
873.63970	0.92375
871.71113	0.93582
869.78257	0.94897
867.85400	0.96295
865.92544	0.97512
863.99687	0.98528
862.06831	0.99545
860.13975	1.00676
858.21118	1.01849
856.28262	1.02801
854.35405	1.03671
852.42549	1.04929
850.49692	1.06552
848.56836	1.08143
846.63979	1.09396
844.71123	1.10447
842.78267	1.11751
840.85410	1.13257
838.92554	1.14497
836.99697	1.15494
835.06841	1.16407
833.13984	1.17374
831.21128	1.18813
829.28271	1.20657
827.35415	1.22773
825.42559	1.24990
823.49702	1.26475
821.56846	1.27397
819.63989	1.28686
817.71133	1.30603
815.78276	1.32722
813.85420	1.33090
811.92563	1.31360
809.99707	1.30885
808.06851	1.32739
806.13994	1.36132
804.21138	1.42912
802.28281	1.50700
800.35425	1.50567
798.42568	1.45825
796.49712	1.43613
794.56855	1.45664
792.63999	1.50183
790.71143	1.50456
788.78286	1.52405
786.85430	1.68733
784.92573	1.92345
782.99717	1.84175
781.06860	1.71717
779.14004	1.71626
777.21147	1.82626
775.28291	1.89206
773.35435	1.77117
771.42578	1.88796
769.49722	4.61698
767.56865	4.60541
765.64009	4.59384
763.71152	4.58227
761.78296	4.57070
759.85439	4.55913
757.92583	1.72276
755.99727	1.45287
754.06870	1.32005
752.14014	1.23498
750.21157	1.28939
748.28301	1.45455
746.35444	1.30291
744.42588	1.06535
742.49731	0.96723
740.56875	0.91642
738.64019	0.88829
736.71162	0.92750
734.78306	0.99093
732.85449	0.97687
730.92593	1.01229
728.99736	1.04809
727.06880	0.60357
725.14023	0.31277
723.21167	0.24807
721.28311	0.32819
719.35454	0.39561
717.42598	0.35170
715.49741	0.27107
713.56885	0.20149
711.64028	0.12503
709.71172	0.04906
707.78315	-0.07580
705.85459	-0.07560
703.92603	4.22356
701.99746	-0.38089
700.06890	-0.08479
698.14033	0.07732
696.21177	0.33024
694.28320	0.38782
692.35464	0.27959
690.42607	0.26568
688.49751	0.25885
686.56895	0.16884
684.64038	0.08085
682.71182	0.08313
680.78325	0.15406
678.85469	0.17433
676.92612	0.11488
674.99756	0.11314
673.06899	0.19685
671.14043	0.23246
669.21187	0.18220
667.28330	0.07606
665.35474	0.04159
663.42617	0.15365
661.49761	0.26653
659.56904	0.10862
657.64048	-0.03258
655.71191	-0.04425
653.78335	0.03198
651.85479	0.08094
649.92622	0.09616
647.99766	0.15137
646.06909	0.24749
644.14053	0.30265
642.21196	0.17778
640.28340	0.04876
638.35483	0.01270
636.42627	-0.00537
634.49771	0.02764
632.56914	0.08593
630.64058	0.16963
628.71201	0.28641
626.78345	0.25688
624.85488	0.16621
622.92632	0.09837
620.99775	0.03913
619.06919	0.04240
617.14062	0.14963
615.21206	0.28581
613.28350	0.35843
611.35493	0.36071
609.42637	0.29628
607.49780	0.23895
605.56924	0.15642
603.64067	0.04037
601.71211	0.01551
599.78354	0.07129
597.85498	0.07970
595.92642	0.07768
593.99785	0.14108
592.06929	0.22435
590.14072	0.16709
588.21216	0.09208
586.28359	0.07333
584.35503	0.06025
582.42646	0.06825
580.49790	0.13433
578.56934	0.15611
576.64077	0.09087
574.71221	0.05837
572.78364	0.13939
570.85508	0.21303
568.92651	0.25896
566.99795	0.28625
565.06938	0.15083
563.14082	0.00300
561.21226	0.00251
559.28369	0.07645
557.35513	0.12903
555.42656	0.16417
553.49800	0.18409
551.56943	0.11735
549.64087	0.04913
547.71230	0.05233
545.78374	0.04674
543.85518	0.00210
541.92661	-0.01065
539.99805	0.07293
538.06948	0.26964
536.14092	0.64627
534.21235	0.75188
532.28379	0.42897
530.35522	0.29643
528.42666	0.27453
526.49810	0.22656
524.56953	0.07605
522.64097	0.01457
520.71240	0.10409
518.78384	0.20643
516.85527	0.20646
514.92671	0.12488
512.99814	0.07234
511.06958	0.04964
509.14102	0.04186
507.21245	0.07094
505.28389	0.09649
503.35532	0.08082
501.42676	0.07888
499.49819	0.07968
