3997.91411	0.06906
3995.98555	0.06926
3994.05698	0.07030
3992.12842	0.07121
3990.19985	0.07153
3988.27129	0.07121
3986.34272	0.07045
3984.41416	0.07002
3982.48560	0.07000
3980.55703	0.07020
3978.62847	0.07080
3976.69990	0.07187
3974.77134	0.07306
3972.84277	0.07361
3970.91421	0.07350
3968.98564	0.07336
3967.05708	0.07334
3965.12852	0.07354
3963.19995	0.07402
3961.27139	0.07451
3959.34282	0.07462
3957.41426	0.07447
3955.48569	0.07439
3953.55713	0.07442
3951.62856	0.07506
3949.70000	0.07670
3947.77144	0.07784
3945.84287	0.07743
3943.91431	0.07730
3941.98574	0.07772
3940.05718	0.07674
3938.12861	0.07512
3936.20005	0.07460
3934.27148	0.07541
3932.34292	0.07716
3930.41436	0.07849
3928.48579	0.07806
3926.55723	0.07732
3924.62866	0.07784
3922.70010	0.07806
3920.77153	0.07725
3918.84297	0.07737
3916.91440	0.07820
3914.98584	0.07720
3913.05728	0.07472
3911.12871	0.07310
3909.20015	0.07291
3907.27158	0.07457
3905.34302	0.07893
3903.41445	0.08455
3901.48589	0.08736
3899.55732	0.08603
3897.62876	0.08202
3895.70020	0.07785
3893.77163	0.07672
3891.84307	0.07879
3889.91450	0.07982
3887.98594	0.07877
3886.05737	0.07974
3884.12881	0.08210
3882.20024	0.08292
3880.27168	0.08299
3878.34312	0.08115
3876.41455	0.07846
3874.48599	0.07906
3872.55742	0.08285
3870.62886	0.08686
3868.70029	0.08824
3866.77173	0.08662
3864.84316	0.08666
3862.91460	0.08812
3860.98604	0.08638
3859.05747	0.08361
3857.12891	0.08395
3855.20034	0.08817
3853.27178	0.09559
3851.34321	0.09771
3849.41465	0.09074
3847.48608	0.08438
3845.55752	0.08225
3843.62896	0.08445
3841.70039	0.08909
3839.77183	0.09443
3837.84326	0.09897
3835.91470	0.09872
3833.98613	0.09494
3832.05757	0.09227
3830.12900	0.09098
3828.20044	0.09056
3826.27187	0.09161
3824.34331	0.09370
3822.41475	0.09748
3820.48618	0.10320
3818.55762	0.10456
3816.62905	0.10219
3814.70049	0.09979
3812.77192	0.09628
3810.84336	0.09403
3808.91479	0.09529
3806.98623	0.09946
3805.05767	0.10320
3803.12910	0.10596
3801.20054	0.11016
3799.27197	0.11165
3797.34341	0.10945
3795.41484	0.10760
3793.48628	0.10552
3791.55771	0.10376
3789.62915	0.10365
3787.70059	0.10507
3785.77202	0.10782
3783.84346	0.11068
3781.91489	0.11253
3779.98633	0.11445
3778.05776	0.11601
3776.12920	0.11560
3774.20063	0.11533
3772.27207	0.11744
3770.34351	0.12201
3768.41494	0.12650
3766.48638	0.12843
3764.55781	0.12904
3762.62925	0.12952
3760.70068	0.13181
3758.77212	0.13686
3756.84355	0.14115
3754.91499	0.14329
3752.98643	0.14758
3751.05786	0.15661
3749.12930	0.16410
3747.20073	0.16441
3745.27217	0.16498
3743.34360	0.16806
3741.41504	0.16953
3739.48647	0.17134
3737.55791	0.17727
3735.62935	0.18769
3733.70078	0.19657
3731.77222	0.19710
3729.84365	0.19486
3727.91509	0.19625
3725.98652	0.20215
3724.05796	0.20954
3722.12939	0.21508
3720.20083	0.21879
3718.27227	0.22210
3716.34370	0.22648
3714.41514	0.23331
3712.48657	0.24517
3710.55801	0.26231
3708.62944	0.27539
3706.70088	0.28182
3704.77231	0.28909
3702.84375	0.30103
3700.91519	0.31744
3698.98662	0.33374
3697.05806	0.34867
3695.12949	0.36553
3693.20093	0.38484
3691.27236	0.40790
3689.34380	0.43747
3687.41523	0.46804
3685.48667	0.49092
3683.55811	0.51157
3681.62954	0.53669
3679.70098	0.56746
3677.77241	0.60157
3675.84385	0.64227
3673.91528	0.69266
3671.98672	0.73123
3670.05815	0.76639
3668.12959	0.81260
3666.20103	0.85225
3664.27246	0.88667
3662.34390	0.92598
3660.41533	0.96969
3658.48677	1.01391
3656.55820	1.06162
3654.62964	1.11369
3652.70107	1.15801
3650.77251	1.20054
3648.84395	1.25888
3646.91538	1.32067
3644.98682	1.36042
3643.05825	1.39178
3641.12969	1.42659
3639.20112	1.46681
3637.27256	1.50874
3635.34399	1.55057
3633.41543	1.59277
3631.48687	1.63307
3629.55830	1.67566
3627.62974	1.72825
3625.70117	1.77092
3623.77261	1.79879
3621.84404	1.82927
3619.91548	1.86699
3617.98691	1.91116
3616.05835	1.95187
3614.12979	1.98668
3612.20122	2.02319
3610.27266	2.05933
3608.34409	2.09666
3606.41553	2.13600
3604.48696	2.17065
3602.55840	2.20180
3600.62983	2.23697
3598.70127	2.27551
3596.77271	2.31351
3594.84414	2.35306
3592.91558	2.39288
3590.98701	2.42871
3589.05845	2.46370
3587.12988	2.50636
3585.20132	2.55008
3583.27275	2.58546
3581.34419	2.61979
3579.41562	2.65818
3577.48706	2.69833
3575.55850	2.73740
3573.62993	2.77672
3571.70137	2.81577
3569.77280	2.85530
3567.84424	2.90095
3565.91567	2.95488
3563.98711	3.00020
3562.05854	3.03459
3560.12998	3.07111
3558.20142	3.11128
3556.27285	3.15242
3554.34429	3.19399
3552.41572	3.23720
3550.48716	3.28015
3548.55859	3.32299
3546.63003	3.36974
3544.70146	3.41835
3542.77290	3.46136
3540.84434	3.50171
3538.91577	3.54504
3536.98721	3.59032
3535.05864	3.63752
3533.13008	3.68398
3531.20151	3.72869
3529.27295	3.77479
3527.34438	3.82398
3525.41582	3.87125
3523.48726	3.91255
3521.55869	3.95371
3519.63013	3.99825
3517.70156	4.04370
3515.77300	4.08718
3513.84443	4.12892
3511.91587	4.17152
3509.98730	4.21651
3508.05874	4.26199
3506.13018	4.30702
3504.20161	4.35454
3502.27305	4.40466
3500.34448	4.45114
3498.41592	4.49054
3496.48735	4.52856
3494.55879	4.57059
3492.63022	4.61891
3490.70166	4.67254
3488.77310	4.72278
3486.84453	4.76527
3484.91597	4.80639
3482.98740	4.84902
3481.05884	4.89450
3479.13027	4.94311
3477.20171	4.98644
3475.27314	5.02306
3473.34458	5.06983
3471.41602	5.12931
3469.48745	5.17806
3467.55889	5.21276
3465.63032	5.25353
3463.70176	5.30857
3461.77319	5.36499
3459.84463	5.41250
3457.91606	5.45372
3455.98750	5.48987
3454.05894	5.52614
3452.13037	5.57189
3450.20181	5.61839
3448.27324	5.66105
3446.34468	5.71441
3444.41611	5.77000
3442.48755	5.81406
3440.55898	5.84983
3438.63042	5.89217
3436.70186	5.94352
3434.77329	5.98955
3432.84473	6.03548
3430.91616	6.07990
3428.98760	6.11956
3427.05903	6.16920
3425.13047	6.22585
3423.20190	6.26737
3421.27334	6.30461
3419.34478	6.35726
3417.41621	6.41584
3415.48765	6.47119
3413.55908	6.52247
3411.63052	6.56025
3409.70195	6.58621
3407.77339	6.63646
3405.84482	6.69132
3403.91626	6.71170
3401.98770	6.72251
3400.05913	6.75667
3398.13057	6.82128
3396.20200	6.88961
3394.27344	6.93074
3392.34487	6.94193
3390.41631	6.96143
3388.48774	7.01004
3386.55918	7.05475
3384.63062	7.07083
3382.70205	7.09364
3380.77349	7.13680
3378.84492	7.17076
3376.91636	7.19882
3374.98779	7.23295
3373.05923	7.27192
3371.13066	7.29543
3369.20210	7.31437
3367.27354	7.33501
3365.34497	7.33986
3363.41641	7.34068
3361.48784	7.33524
3359.55928	7.31562
3357.63071	7.30407
3355.70215	7.31204
3353.77358	7.34488
3351.84502	7.44355
3349.91646	7.56861
3347.98789	7.62818
3346.05933	7.61330
3344.13076	7.57254
3342.20220	7.52953
3340.27363	7.48268
3338.34507	7.46242
3336.41650	7.46704
3334.48794	7.49528
3332.55937	7.55514
3330.63081	7.62110
3328.70225	7.65151
3326.77368	7.65062
3324.84512	7.64715
3322.91655	7.61682
3320.98799	7.58648
3319.05942	7.63344
3317.13086	7.71100
3315.20229	7.68180
3313.27373	7.62702
3311.34517	7.66194
3309.41660	7.73072
3307.48804	7.76950
3305.55947	7.76291
3303.63091	7.71414
3301.70234	7.68670
3299.77378	7.75114
3297.84521	7.80738
3295.91665	7.75555
3293.98809	7.67404
3292.05952	7.65652
3290.13096	7.69159
3288.20239	7.69346
3286.27383	7.67336
3284.34526	7.66836
3282.41670	7.66738
3280.48813	7.67134
3278.55957	7.68717
3276.63101	7.71680
3274.70244	7.78706
3272.77388	7.87904
3270.84531	7.92805
3268.91675	7.95201
3266.98818	7.97026
3265.05962	7.97133
3263.13105	7.95627
3261.20249	7.92975
3259.27393	7.86056
3257.34536	7.73673
3255.41680	7.63388
3253.48823	7.62882
3251.55967	7.69630
3249.63110	7.72235
3247.70254	7.70109
3245.77397	7.71587
3243.84541	7.73286
3241.91685	7.69098
3239.98828	7.65173
3238.05972	7.66493
3236.13115	7.71005
3234.20259	7.75638
3232.27402	7.79435
3230.34546	7.84581
3228.41689	7.89210
3226.48833	7.85713
3224.55977	7.76005
3222.63120	7.69376
3220.70264	7.64235
3218.77407	7.55780
3216.84551	7.49081
3214.91694	7.48076
3212.98838	7.48169
3211.05981	7.48379
3209.13125	7.49731
3207.20269	7.46406
3205.27412	7.42012
3203.34556	7.42815
3201.41699	7.42326
3199.48843	7.37546
3197.55986	7.32158
3195.63130	7.26799
3193.70273	7.20739
3191.77417	7.12052
3189.84561	7.04677
3187.91704	7.04102
3185.98848	7.05467
3184.05991	7.03257
3182.13135	6.99421
3180.20278	6.94714
3178.27422	6.89020
3176.34565	6.85077
3174.41709	6.82981
3172.48853	6.78820
3170.55996	6.69895
3168.63140	6.59449
3166.70283	6.51873
3164.77427	6.46454
3162.84570	6.41871
3160.91714	6.37861
3158.98857	6.32713
3157.06001	6.25945
3155.13145	6.18908
3153.20288	6.11936
3151.27432	6.05558
3149.34575	6.00273
3147.41719	5.94853
3145.48862	5.88915
3143.56006	5.83528
3141.63149	5.77467
3139.70293	5.69415
3137.77437	5.62003
3135.84580	5.55864
3133.91724	5.49041
3131.98867	5.42078
3130.06011	5.35628
3128.13154	5.29156
3126.20298	5.22739
3124.27441	5.16389
3122.34585	5.09713
3120.41729	5.03025
3118.48872	4.96478
3116.56016	4.89387
3114.63159	4.81954
3112.70303	4.75367
3110.77446	4.69442
3108.84590	4.63212
3106.91733	4.56820
3104.98877	4.50677
3103.06021	4.44769
3101.13164	4.38686
3099.20308	4.32364
3097.27451	4.26115
3095.34595	4.19892
3093.41738	4.13715
3091.48882	4.07600
3089.56025	4.01428
3087.63169	3.95360
3085.70312	3.89614
3083.77456	3.83982
3081.84600	3.78321
3079.91743	3.72628
3077.98887	3.66930
3076.06030	3.61568
3074.13174	3.56408
3072.20317	3.51034
3070.27461	3.45581
3068.34604	3.40141
3066.41748	3.34659
3064.48892	3.29374
3062.56035	3.24307
3060.63179	3.19293
3058.70322	3.14377
3056.77466	3.09428
3054.84609	3.04279
3052.91753	2.99079
3050.98896	2.94034
3049.06040	2.89255
3047.13184	2.84702
3045.20327	2.80171
3043.27471	2.75631
3041.34614	2.71119
3039.41758	2.66535
3037.48901	2.61993
3035.56045	2.57677
3033.63188	2.53444
3031.70332	2.49139
3029.77476	2.44856
3027.84619	2.40733
3025.91763	2.36745
3023.98906	2.32738
3022.06050	2.28688
3020.13193	2.24668
3018.20337	2.20725
3016.27480	2.16894
3014.34624	2.13165
3012.41768	2.09522
3010.48911	2.05917
3008.56055	2.02374
3006.63198	1.98982
3004.70342	1.95680
3002.77485	1.92404
3000.84629	1.89158
2998.91772	1.85913
2996.98916	1.82700
2995.06060	1.79622
2993.13203	1.76700
2991.20347	1.73836
2989.27490	1.70955
2987.34634	1.68114
2985.41777	1.65398
2983.48921	1.62770
2981.56064	1.60160
2979.63208	1.57592
2977.70352	1.55099
2975.77495	1.52671
2973.84639	1.50288
2971.91782	1.47970
2969.98926	1.45752
2968.06069	1.43557
2966.13213	1.41328
2964.20356	1.39149
2962.27500	1.37005
2960.34644	1.34772
2958.41787	1.32502
2956.48931	1.30316
2954.56074	1.28170
2952.63218	1.25978
2950.70361	1.23751
2948.77505	1.21554
2946.84648	1.19423
2944.91792	1.17352
2942.98936	1.15358
2941.06079	1.13473
2939.13223	1.11701
2937.20366	1.10012
2935.27510	1.08356
2933.34653	1.06692
2931.41797	1.04999
2929.48940	1.03273
2927.56084	1.01539
2925.63228	0.99776
2923.70371	0.97905
2921.77515	0.95904
2919.84658	0.93868
2917.91802	0.91896
2915.98945	0.90019
2914.06089	0.88304
2912.13232	0.86788
2910.20376	0.85349
2908.27520	0.83905
2906.34663	0.82465
2904.41807	0.81004
2902.48950	0.79532
2900.56094	0.78133
2898.63237	0.76826
2896.70381	0.75552
2894.77524	0.74270
2892.84668	0.72991
2890.91812	0.71763
2888.98955	0.70624
2887.06099	0.69547
2885.13242	0.68487
2883.20386	0.67436
2881.27529	0.66446
2879.34673	0.65537
2877.41816	0.64656
2875.48960	0.63749
2873.56104	0.62823
2871.63247	0.61872
2869.70391	0.60844
2867.77534	0.59725
2865.84678	0.58581
2863.91821	0.57487
2861.98965	0.56457
2860.06108	0.55479
2858.13252	0.54553
2856.20396	0.53661
2854.27539	0.52754
2852.34683	0.51753
2850.41826	0.50655
2848.48970	0.49601
2846.56113	0.48731
2844.63257	0.48027
2842.70400	0.47385
2840.77544	0.46730
2838.84687	0.46056
2836.91831	0.45412
2834.98975	0.44798
2833.06118	0.44183
2831.13262	0.43568
2829.20405	0.42955
2827.27549	0.42349
2825.34692	0.41756
2823.41836	0.41158
2821.48979	0.40550
2819.56123	0.39946
2817.63267	0.39364
2815.70410	0.38821
2813.77554	0.38292
2811.84697	0.37745
2809.91841	0.37203
2807.98984	0.36687
2806.06128	0.36189
2804.13271	0.35693
2802.20415	0.35195
2800.27559	0.34691
2798.34702	0.34187
2796.41846	0.33707
2794.48989	0.33266
2792.56133	0.32836
2790.63276	0.32384
2788.70420	0.31932
2786.77563	0.31499
2784.84707	0.31078
2782.91851	0.30671
2780.98994	0.30275
2779.06138	0.29888
2777.13281	0.29512
2775.20425	0.29137
2773.27568	0.28752
2771.34712	0.28369
2769.41855	0.28002
2767.48999	0.27662
2765.56143	0.27347
2763.63286	0.27041
2761.70430	0.26730
2759.77573	0.26412
2757.84717	0.26083
2755.91860	0.25751
2753.99004	0.25442
2752.06147	0.25159
2750.13291	0.24885
2748.20435	0.24608
2746.27578	0.24320
2744.34722	0.24033
2742.41865	0.23763
2740.49009	0.23505
2738.56152	0.23251
2736.63296	0.22994
2734.70439	0.22740
2732.77583	0.22513
2730.84727	0.22302
2728.91870	0.22084
2726.99014	0.21858
2725.06157	0.21632
2723.13301	0.21423
2721.20444	0.21233
2719.27588	0.21038
2717.34731	0.20833
2715.41875	0.20632
2713.49019	0.20438
2711.56162	0.20248
2709.63306	0.20077
2707.70449	0.19917
2705.77593	0.19756
2703.84736	0.19603
2701.91880	0.19452
2699.99023	0.19303
2698.06167	0.19170
2696.13311	0.19044
2694.20454	0.18910
2692.27598	0.18764
2690.34741	0.18607
2688.41885	0.18475
2686.49028	0.18373
2684.56172	0.18265
2682.63315	0.18144
2680.70459	0.18017
2678.77603	0.17881
2676.84746	0.17749
2674.91890	0.17646
2672.99033	0.17566
2671.06177	0.17479
2669.13320	0.17382
2667.20464	0.17286
2665.27607	0.17189
2663.34751	0.17095
2661.41895	0.17016
2659.49038	0.16945
2657.56182	0.16856
2655.63325	0.16757
2653.70469	0.16680
2651.77612	0.16610
2649.84756	0.16531
2647.91899	0.16475
2645.99043	0.16436
2644.06187	0.16380
2642.13330	0.16308
2640.20474	0.16247
2638.27617	0.16205
2636.34761	0.16166
2634.41904	0.16120
2632.49048	0.16066
2630.56191	0.16009
2628.63335	0.15958
2626.70479	0.15919
2624.77622	0.15885
2622.84766	0.15841
2620.91909	0.15800
2618.99053	0.15781
2617.06196	0.15777
2615.13340	0.15776
2613.20483	0.15764
2611.27627	0.15726
2609.34771	0.15698
2607.41914	0.15694
2605.49058	0.15687
2603.56201	0.15669
2601.63345	0.15658
2599.70488	0.15658
2597.77632	0.15656
2595.84775	0.15656
2593.91919	0.15665
2591.99062	0.15681
2590.06206	0.15689
2588.13350	0.15695
2586.20493	0.15707
2584.27637	0.15723
2582.34780	0.15742
2580.41924	0.15765
2578.49067	0.15782
2576.56211	0.15794
2574.63354	0.15817
2572.70498	0.15855
2570.77642	0.15898
2568.84785	0.15927
2566.91929	0.15947
2564.99072	0.15979
2563.06216	0.16014
2561.13359	0.16044
2559.20503	0.16092
2557.27646	0.16146
2555.34790	0.16181
2553.41934	0.16220
2551.49077	0.16275
2549.56221	0.16336
2547.63364	0.16390
2545.70508	0.16441
2543.77651	0.16495
2541.84795	0.16547
2539.91938	0.16596
2537.99082	0.16643
2536.06226	0.16691
2534.13369	0.16753
2532.20513	0.16831
2530.27656	0.16908
2528.34800	0.16968
2526.41943	0.17017
2524.49087	0.17070
2522.56230	0.17136
2520.63374	0.17222
2518.70518	0.17305
2516.77661	0.17373
2514.84805	0.17444
2512.91948	0.17517
2510.99092	0.17585
2509.06235	0.17649
2507.13379	0.17716
2505.20522	0.17798
2503.27666	0.17887
2501.34810	0.17962
2499.41953	0.18022
2497.49097	0.18084
2495.56240	0.18158
2493.63384	0.18247
2491.70527	0.18341
2489.77671	0.18430
2487.84814	0.18516
2485.91958	0.18601
2483.99102	0.18678
2482.06245	0.18744
2480.13389	0.18809
2478.20532	0.18884
2476.27676	0.18964
2474.34819	0.19039
2472.41963	0.19117
2470.49106	0.19203
2468.56250	0.19293
2466.63394	0.19377
2464.70537	0.19454
2462.77681	0.19536
2460.84824	0.19630
2458.91968	0.19725
2456.99111	0.19817
2455.06255	0.19906
2453.13398	0.19999
2451.20542	0.20087
2449.27686	0.20163
2447.34829	0.20239
2445.41973	0.20326
2443.49116	0.20425
2441.56260	0.20536
2439.63403	0.20639
2437.70547	0.20727
2435.77690	0.20817
2433.84834	0.20910
2431.91978	0.21001
2429.99121	0.21107
2428.06265	0.21218
2426.13408	0.21317
2424.20552	0.21408
2422.27695	0.21508
2420.34839	0.21621
2418.41982	0.21733
2416.49126	0.21833
2414.56270	0.21923
2412.63413	0.22027
2410.70557	0.22143
2408.77700	0.22251
2406.84844	0.22357
2404.91987	0.22467
2402.99131	0.22577
2401.06274	0.22690
2399.13418	0.22806
2397.20562	0.22922
2395.27705	0.23037
2393.34849	0.23150
2391.41992	0.23270
2389.49136	0.23420
2387.56279	0.23617
2385.63423	0.23880
2383.70566	0.24241
2381.77710	0.24722
2379.84854	0.25324
2377.91997	0.26021
2375.99141	0.26798
2374.06284	0.27655
2372.13428	0.28610
2370.20571	0.29715
2368.27715	0.30934
2366.34858	0.32084
2364.42002	0.33087
2362.49146	0.33954
2360.56289	0.34489
2358.63433	0.34508
2356.70576	0.34061
2354.77720	0.33285
2352.84863	0.32350
2350.92007	0.31393
2348.99150	0.30779
2347.06294	0.30817
2345.13437	0.31574
2343.20581	0.32601
2341.27725	0.33140
2339.34868	0.33229
2337.42012	0.33244
2335.49155	0.33287
2333.56299	0.33294
2331.63442	0.33274
2329.70586	0.33224
2327.77729	0.33122
2325.84873	0.32985
2323.92017	0.32830
2321.99160	0.32644
2320.06304	0.32395
2318.13447	0.32097
2316.20591	0.31837
2314.27734	0.31707
2312.34878	0.31680
2310.42021	0.31650
2308.49165	0.31565
2306.56309	0.31455
2304.63452	0.31366
2302.70596	0.31337
2300.77739	0.31370
2298.84883	0.31424
2296.92026	0.31482
2294.99170	0.31542
2293.06313	0.31598
2291.13457	0.31660
2289.20601	0.31737
2287.27744	0.31817
2285.34888	0.31897
2283.42031	0.32009
2281.49175	0.32178
2279.56318	0.32385
2277.63462	0.32596
2275.70605	0.32806
2273.77749	0.33027
2271.84893	0.33243
2269.92036	0.33442
2267.99180	0.33630
2266.06323	0.33821
2264.13467	0.34016
2262.20610	0.34209
2260.27754	0.34395
2258.34897	0.34573
2256.42041	0.34751
2254.49185	0.34938
2252.56328	0.35128
2250.63472	0.35322
2248.70615	0.35522
2246.77759	0.35723
2244.84902	0.35919
2242.92046	0.36105
2240.99189	0.36291
2239.06333	0.36494
2237.13477	0.36705
2235.20620	0.36908
2233.27764	0.37117
2231.34907	0.37341
2229.42051	0.37557
2227.49194	0.37758
2225.56338	0.37964
2223.63481	0.38179
2221.70625	0.38392
2219.77769	0.38604
2217.84912	0.38815
2215.92056	0.39018
2213.99199	0.39220
2212.06343	0.39430
2210.13486	0.39636
2208.20630	0.39826
2206.27773	0.40010
2204.34917	0.40197
2202.42061	0.40387
2200.49204	0.40572
2198.56348	0.40760
2196.63491	0.40955
2194.70635	0.41145
2192.77778	0.41325
2190.84922	0.41501
2188.92065	0.41679
2186.99209	0.41856
2185.06353	0.42031
2183.13496	0.42200
2181.20640	0.42357
2179.27783	0.42506
2177.34927	0.42658
2175.42070	0.42803
2173.49214	0.42942
2171.56357	0.43089
2169.63501	0.43228
2167.70645	0.43340
2165.77788	0.43443
2163.84932	0.43555
2161.92075	0.43665
2159.99219	0.43758
2158.06362	0.43838
2156.13506	0.43920
2154.20649	0.44001
2152.27793	0.44073
2150.34937	0.44147
2148.42080	0.44221
2146.49224	0.44279
2144.56367	0.44322
2142.63511	0.44362
2140.70654	0.44395
2138.77798	0.44411
2136.84941	0.44413
2134.92085	0.44413
2132.99229	0.44409
2131.06372	0.44397
2129.13516	0.44378
2127.20659	0.44348
2125.27803	0.44310
2123.34946	0.44262
2121.42090	0.44204
2119.49233	0.44136
2117.56377	0.44062
2115.63521	0.43988
2113.70664	0.43922
2111.77808	0.43850
2109.84951	0.43759
2107.92095	0.43662
2105.99238	0.43557
2104.06382	0.43435
2102.13525	0.43305
2100.20669	0.43177
2098.27812	0.43042
2096.34956	0.42895
2094.42100	0.42743
2092.49243	0.42587
2090.56387	0.42427
2088.63530	0.42256
2086.70674	0.42072
2084.77817	0.41887
2082.84961	0.41706
2080.92104	0.41516
2078.99248	0.41317
2077.06392	0.41116
2075.13535	0.40913
2073.20679	0.40707
2071.27822	0.40492
2069.34966	0.40270
2067.42109	0.40054
2065.49253	0.39835
2063.56396	0.39589
2061.63540	0.39335
2059.70684	0.39085
2057.77827	0.38833
2055.84971	0.38589
2053.92114	0.38356
2051.99258	0.38113
2050.06401	0.37849
2048.13545	0.37581
2046.20688	0.37332
2044.27832	0.37103
2042.34976	0.36866
2040.42119	0.36602
2038.49263	0.36323
2036.56406	0.36053
2034.63550	0.35787
2032.70693	0.35515
2030.77837	0.35253
2028.84980	0.35001
2026.92124	0.34742
2024.99268	0.34468
2023.06411	0.34187
2021.13555	0.33923
2019.20698	0.33690
2017.27842	0.33458
2015.34985	0.33181
2013.42129	0.32886
2011.49272	0.32612
2009.56416	0.32359
2007.63560	0.32100
2005.70703	0.31832
2003.77847	0.31573
2001.84990	0.31324
1999.92134	0.31074
1997.99277	0.30824
1996.06421	0.30587
1994.13564	0.30390
1992.20708	0.30210
1990.27852	0.29978
1988.34995	0.29703
1986.42139	0.29437
1984.49282	0.29189
1982.56426	0.28952
1980.63569	0.28720
1978.70713	0.28497
1976.77856	0.28286
1974.85000	0.28079
1972.92144	0.27874
1970.99287	0.27677
1969.06431	0.27515
1967.13574	0.27372
1965.20718	0.27181
1963.27861	0.26949
1961.35005	0.26735
1959.42148	0.26547
1957.49292	0.26373
1955.56436	0.26208
1953.63579	0.26038
1951.70723	0.25866
1949.77866	0.25713
1947.85010	0.25590
1945.92153	0.25490
1943.99297	0.25408
1942.06440	0.25301
1940.13584	0.25108
1938.20728	0.24897
1936.27871	0.24741
1934.35015	0.24616
1932.42158	0.24501
1930.49302	0.24388
1928.56445	0.24274
1926.63589	0.24181
1924.70732	0.24146
1922.77876	0.24122
1920.85020	0.24037
1918.92163	0.23950
1916.99307	0.23864
1915.06450	0.23722
1913.13594	0.23601
1911.20737	0.23560
1909.27881	0.23536
1907.35024	0.23458
1905.42168	0.23348
1903.49312	0.23264
1901.56455	0.23205
1899.63599	0.23150
1897.70742	0.23123
1895.77886	0.23126
1893.85029	0.23112
1891.92173	0.23088
1889.99316	0.23108
1888.06460	0.23090
1886.13604	0.23010
1884.20747	0.22950
1882.27891	0.22915
1880.35034	0.22892
1878.42178	0.22882
1876.49321	0.22881
1874.56465	0.22889
1872.63608	0.22943
1870.70752	0.23090
1868.77896	0.23286
1866.85039	0.23295
1864.92183	0.23131
1862.99326	0.23027
1861.06470	0.23021
1859.13613	0.23056
1857.20757	0.23086
1855.27900	0.23117
1853.35044	0.23154
1851.42187	0.23212
1849.49331	0.23306
1847.56475	0.23449
1845.63618	0.23643
1843.70762	0.23806
1841.77905	0.23790
1839.85049	0.23713
1837.92192	0.23747
1835.99336	0.23835
1834.06479	0.23927
1832.13623	0.24093
1830.20767	0.24364
1828.27910	0.24549
1826.35054	0.24590
1824.42197	0.24641
1822.49341	0.24674
1820.56484	0.24717
1818.63628	0.24829
1816.70771	0.24984
1814.77915	0.25146
1812.85059	0.25358
1810.92202	0.25616
1808.99346	0.25812
1807.06489	0.25945
1805.13633	0.26106
1803.20776	0.26363
1801.27920	0.26695
1799.35063	0.26997
1797.42207	0.27207
1795.49351	0.27440
1793.56494	0.27793
1791.63638	0.28205
1789.70781	0.28423
1787.77925	0.28521
1785.85068	0.28770
1783.92212	0.29142
1781.99355	0.29550
1780.06499	0.29968
1778.13643	0.30355
1776.20786	0.30751
1774.27930	0.31289
1772.35073	0.32011
1770.42217	0.32600
1768.49360	0.32947
1766.56504	0.33299
1764.63647	0.33752
1762.70791	0.34359
1760.77935	0.35116
1758.85078	0.35778
1756.92222	0.36448
1754.99365	0.37172
1753.06509	0.37880
1751.13652	0.38847
1749.20796	0.40043
1747.27939	0.41041
1745.35083	0.41805
1743.42227	0.42632
1741.49370	0.43607
1739.56514	0.44775
1737.63657	0.45928
1735.70801	0.47000
1733.77944	0.48665
1731.85088	0.50460
1729.92231	0.51734
1727.99375	0.53041
1726.06519	0.54531
1724.13662	0.56264
1722.20806	0.58179
1720.27949	0.60025
1718.35093	0.62318
1716.42236	0.65524
1714.49380	0.68236
1712.56523	0.70326
1710.63667	0.72459
1708.70811	0.74893
1706.77954	0.77790
1704.85098	0.81226
1702.92241	0.84212
1700.99385	0.87231
1699.06528	0.91783
1697.13672	0.95864
1695.20815	0.99873
1693.27959	1.03774
1691.35103	1.07033
1689.42246	1.10923
1687.49390	1.15082
1685.56533	1.19188
1683.63677	1.25437
1681.70820	1.31662
1679.77964	1.35536
1677.85107	1.39350
1675.92251	1.43889
1673.99395	1.49478
1672.06538	1.54435
1670.13682	1.59351
1668.20825	1.65635
1666.27969	1.70750
1664.35112	1.75323
1662.42256	1.81203
1660.49399	1.87773
1658.56543	1.92851
1656.63687	1.97052
1654.70830	2.01112
1652.77974	2.07117
1650.85117	2.12054
1648.92261	2.13633
1646.99404	2.15973
1645.06548	2.18251
1643.13691	2.19493
1641.20835	2.19953
1639.27979	2.20373
1637.35122	2.20586
1635.42266	2.20184
1633.49409	2.19122
1631.56553	2.17672
1629.63696	2.15943
1627.70840	2.13159
1625.77983	2.10069
1623.85127	2.06220
1621.92271	2.01244
1619.99414	1.96713
1618.06558	1.92497
1616.13701	1.86518
1614.20845	1.80187
1612.27988	1.75322
1610.35132	1.70390
1608.42275	1.65100
1606.49419	1.59880
1604.56562	1.55080
1602.63706	1.50506
1600.70850	1.46098
1598.77993	1.42057
1596.85137	1.38292
1594.92280	1.34674
1592.99424	1.31159
1591.06567	1.27916
1589.13711	1.24918
1587.20854	1.22171
1585.27998	1.19668
1583.35142	1.17389
1581.42285	1.15361
1579.49429	1.13705
1577.56572	1.12351
1575.63716	1.10702
1573.70859	1.09087
1571.78003	1.08052
1569.85146	1.07179
1567.92290	1.06229
1565.99434	1.05500
1564.06577	1.05047
1562.13721	1.04846
1560.20864	1.05119
1558.28008	1.05933
1556.35151	1.06169
1554.42295	1.06088
1552.49438	1.06142
1550.56582	1.06151
1548.63726	1.05923
1546.70869	1.05448
1544.78013	1.04809
1542.85156	1.04013
1540.92300	1.02628
1538.99443	0.99692
1537.06587	0.97174
1535.13730	0.95629
1533.20874	0.93781
1531.28018	0.91678
1529.35161	0.90118
1527.42305	0.88788
1525.49448	0.87459
1523.56592	0.86359
1521.63735	0.85337
1519.70879	0.84153
1517.78022	0.83081
1515.85166	0.81838
1513.92310	0.80500
1511.99453	0.79428
1510.06597	0.78643
1508.13740	0.78027
1506.20884	0.76630
1504.28027	0.74924
1502.35171	0.73969
1500.42314	0.73335
1498.49458	0.72766
1496.56602	0.72022
1494.63745	0.71135
1492.70889	0.70500
1490.78032	0.70140
1488.85176	0.69696
1486.92319	0.68998
1484.99463	0.68349
1483.06606	0.67915
1481.13750	0.67637
1479.20894	0.67450
1477.28037	0.67386
1475.35181	0.67477
1473.42324	0.67654
1471.49468	0.67623
1469.56611	0.67329
1467.63755	0.67098
1465.70898	0.67022
1463.78042	0.66952
1461.85186	0.66872
1459.92329	0.66985
1457.99473	0.67328
1456.06616	0.67414
1454.13760	0.66992
1452.20903	0.66584
1450.28047	0.66286
1448.35190	0.66034
1446.42334	0.65712
1444.49478	0.65363
1442.56621	0.65084
1440.63765	0.64856
1438.70908	0.64679
1436.78052	0.64463
1434.85195	0.64069
1432.92339	0.63703
1430.99482	0.63505
1429.06626	0.63392
1427.13770	0.63322
1425.20913	0.63372
1423.28057	0.63518
1421.35200	0.63668
1419.42344	0.63823
1417.49487	0.63836
1415.56631	0.63636
1413.63774	0.63464
1411.70918	0.63420
1409.78062	0.63477
1407.85205	0.63594
1405.92349	0.63783
1403.99492	0.63960
1402.06636	0.64020
1400.13779	0.64028
1398.20923	0.63957
1396.28066	0.63718
1394.35210	0.63302
1392.42354	0.62774
1390.49497	0.62315
1388.56641	0.61962
1386.63784	0.61551
1384.70928	0.61011
1382.78071	0.60491
1380.85215	0.60049
1378.92358	0.59689
1376.99502	0.59454
1375.06646	0.59336
1373.13789	0.59204
1371.20933	0.59040
1369.28076	0.58933
1367.35220	0.58829
1365.42363	0.58701
1363.49507	0.58621
1361.56650	0.58506
1359.63794	0.58280
1357.70937	0.58060
1355.78081	0.57896
1353.85225	0.57766
1351.92368	0.57673
1349.99512	0.57617
1348.06655	0.57546
1346.13799	0.57444
1344.20942	0.57363
1342.28086	0.57345
1340.35229	0.57371
1338.42373	0.57333
1336.49517	0.57204
1334.56660	0.57082
1332.63804	0.57011
1330.70947	0.57003
1328.78091	0.57054
1326.85234	0.57134
1324.92378	0.57221
1322.99521	0.57309
1321.06665	0.57400
1319.13809	0.57486
1317.20952	0.57537
1315.28096	0.57548
1313.35239	0.57532
1311.42383	0.57466
1309.49526	0.57361
1307.56670	0.57264
1305.63813	0.57194
1303.70957	0.57134
1301.78101	0.57059
1299.85244	0.56961
1297.92388	0.56862
1295.99531	0.56754
1294.06675	0.56618
1292.13818	0.56474
1290.20962	0.56354
1288.28105	0.56252
1286.35249	0.56138
1284.42393	0.56003
1282.49536	0.55868
1280.56680	0.55730
1278.63823	0.55580
1276.70967	0.55437
1274.78110	0.55315
1272.85254	0.55224
1270.92397	0.55157
1268.99541	0.55093
1267.06685	0.55027
1265.13828	0.54951
1263.20972	0.54871
1261.28115	0.54794
1259.35259	0.54718
1257.42402	0.54650
1255.49546	0.54601
1253.56689	0.54566
1251.63833	0.54547
1249.70977	0.54546
1247.78120	0.54548
1245.85264	0.54519
1243.92407	0.54452
1241.99551	0.54361
1240.06694	0.54226
1238.13838	0.54037
1236.20981	0.53822
1234.28125	0.53599
1232.35269	0.53374
1230.42412	0.53155
1228.49556	0.52955
1226.56699	0.52770
1224.63843	0.52587
1222.70986	0.52400
1220.78130	0.52223
1218.85273	0.52070
1216.92417	0.51939
1214.99561	0.51828
1213.06704	0.51735
1211.13848	0.51656
1209.20991	0.51584
1207.28135	0.51512
1205.35278	0.51432
1203.42422	0.51335
1201.49565	0.51232
1199.56709	0.51149
1197.63853	0.51086
1195.70996	0.51024
1193.78140	0.50939
1191.85283	0.50845
1189.92427	0.50779
1187.99570	0.50751
1186.06714	0.50740
1184.13857	0.50737
1182.21001	0.50772
1180.28145	0.50870
1178.35288	0.51018
1176.42432	0.51179
1174.49575	0.51314
1172.56719	0.51407
1170.63862	0.51462
1168.71006	0.51489
1166.78149	0.51492
1164.85293	0.51495
1162.92437	0.51505
1160.99580	0.51491
1159.06724	0.51456
1157.13867	0.51412
1155.21011	0.51336
1153.28154	0.51221
1151.35298	0.51075
1149.42441	0.50877
1147.49585	0.50620
1145.56729	0.50337
1143.63872	0.50064
1141.71016	0.49836
1139.78159	0.49674
1137.85303	0.49565
1135.92446	0.49498
1133.99590	0.49463
1132.06733	0.49460
1130.13877	0.49474
1128.21021	0.49462
1126.28164	0.49425
1124.35308	0.49396
1122.42451	0.49372
1120.49595	0.49347
1118.56738	0.49354
1116.63882	0.49388
1114.71025	0.49407
1112.78169	0.49427
1110.85312	0.49489
1108.92456	0.49576
1106.99600	0.49665
1105.06743	0.49767
1103.13887	0.49868
1101.21030	0.49964
1099.28174	0.50085
1097.35317	0.50260
1095.42461	0.50505
1093.49604	0.50851
1091.56748	0.51316
1089.63892	0.51888
1087.71035	0.52553
1085.78179	0.53293
1083.85322	0.54057
1081.92466	0.54742
1079.99609	0.55256
1078.06753	0.55534
1076.13896	0.55534
1074.21040	0.55241
1072.28184	0.54720
1070.35327	0.54082
1068.42471	0.53387
1066.49614	0.52700
1064.56758	0.52084
1062.63901	0.51542
1060.71045	0.51072
1058.78188	0.50665
1056.85332	0.50305
1054.92476	0.49991
1052.99619	0.49714
1051.06763	0.49476
1049.13906	0.49284
1047.21050	0.49147
1045.28193	0.49089
1043.35337	0.49084
1041.42480	0.49075
1039.49624	0.49052
1037.56768	0.49036
1035.63911	0.49016
1033.71055	0.48965
1031.78198	0.48864
1029.85342	0.48707
1027.92485	0.48527
1025.99629	0.48378
1024.06772	0.48287
1022.13916	0.48242
1020.21060	0.48212
1018.28203	0.48175
1016.35347	0.48129
1014.42490	0.48095
1012.49634	0.48077
1010.56777	0.48062
1008.63921	0.48063
1006.71064	0.48114
1004.78208	0.48225
1002.85352	0.48379
1000.92495	0.48592
998.99639	0.48907
997.06782	0.49307
995.13926	0.49725
993.21069	0.50107
991.28213	0.50415
989.35356	0.50605
987.42500	0.50677
985.49644	0.50686
983.56787	0.50690
981.63931	0.50712
979.71074	0.50764
977.78218	0.50870
975.85361	0.51048
973.92505	0.51277
971.99648	0.51536
970.06792	0.51837
968.13936	0.52181
966.21079	0.52546
964.28223	0.52943
962.35366	0.53403
960.42510	0.53902
958.49653	0.54399
956.56797	0.54925
954.63940	0.55501
952.71084	0.56090
950.78228	0.56667
948.85371	0.57256
946.92515	0.57869
944.99658	0.58473
943.06802	0.59051
941.13945	0.59629
939.21089	0.60200
937.28232	0.60736
935.35376	0.61253
933.42520	0.61796
931.49663	0.62356
929.56807	0.62888
927.63950	0.63416
925.71094	0.64000
923.78237	0.64638
921.85381	0.65282
919.92524	0.65923
917.99668	0.66599
916.06812	0.67331
914.13955	0.68068
912.21099	0.68759
910.28242	0.69455
908.35386	0.70226
906.42529	0.71050
904.49673	0.71892
902.56816	0.72735
900.63960	0.73571
898.71104	0.74458
896.78247	0.75472
894.85391	0.76537
892.92534	0.77564
890.99678	0.78543
889.06821	0.79477
887.13965	0.80498
885.21108	0.81670
883.28252	0.82836
881.35396	0.83846
879.42539	0.84741
877.49683	0.85706
875.56826	0.86868
873.63970	0.88132
871.71113	0.89349
869.78257	0.90484
867.85400	0.91479
865.92544	0.92410
863.99687	0.93450
862.06831	0.94580
860.13975	0.95786
858.21118	0.97002
856.28262	0.98008
854.35405	0.98892
852.42549	0.99961
850.49692	1.01226
848.56836	1.02615
846.63979	1.04019
844.71123	1.05078
842.78267	1.05754
840.85410	1.06427
838.92554	1.07288
836.99697	1.08369
835.06841	1.09470
833.13984	1.10533
831.21128	1.12017
829.28271	1.13612
827.35415	1.14543
825.42559	1.15250
823.49702	1.16237
821.56846	1.17230
819.63989	1.18356
817.71133	1.19628
815.78276	1.20769
813.85420	1.21996
811.92563	1.23390
809.99707	1.25159
808.06851	1.26988
806.13994	1.27857
804.21138	1.28266
802.28281	1.29044
800.35425	1.30290
798.42568	1.31897
796.49712	1.32902
794.56855	1.34063
792.63999	1.36524
790.71143	1.38098
788.78286	1.37914
786.85430	1.37624
784.92573	1.37086
782.99717	1.37218
781.06860	1.42020
779.14004	1.47771
777.21147	1.44536
775.28291	1.39167
773.35435	1.35933
771.42578	1.33432
769.49722	1.36264
767.56865	1.45163
765.64009	1.54324
763.71152	1.64442
761.78296	1.61338
759.85439	1.41909
757.92583	1.30440
755.99727	1.28331
754.06870	1.33758
752.14014	1.47619
750.21157	1.53650
748.28301	1.33270
746.35444	1.17822
744.42588	1.15306
742.49731	1.25698
740.56875	1.52211
738.64019	2.02429
736.71162	1.62202
734.78306	1.12621
732.85449	0.97839
730.92593	1.03607
728.99736	0.98594
727.06880	0.76335
725.14023	0.55029
723.21167	0.42657
721.28311	0.44211
719.35454	0.50589
717.42598	0.44162
715.49741	0.29984
713.56885	0.27701
711.64028	0.39284
709.71172	0.61135
707.78315	0.63659
705.85459	0.63850
703.92603	0.74513
701.99746	0.71527
700.06890	0.86771
698.14033	0.99149
696.21177	0.43869
694.28320	0.21093
692.35464	0.12770
690.42607	0.17944
688.49751	0.21551
686.56895	0.12641
684.64038	0.13089
682.71182	0.34363
680.78325	4.08470
678.85469	4.07313
676.92612	0.48556
674.99756	0.37814
673.06899	0.52725
671.14043	1.16857
669.21187	1.09850
667.28330	0.54270
665.35474	0.35694
663.42617	0.46153
661.49761	3.96899
659.56904	1.17121
657.64048	0.67786
655.71191	0.51734
653.78335	0.41416
651.85479	0.41159
649.92622	0.45196
647.99766	0.42517
646.06909	0.34205
644.14053	0.31173
642.21196	0.37353
640.28340	0.50223
638.35483	0.52214
636.42627	0.33326
634.49771	0.22589
632.56914	0.20279
630.64058	0.21442
628.71201	0.25316
626.78345	0.34553
624.85488	0.47641
622.92632	0.49281
620.99775	0.38626
619.06919	0.36587
617.14062	0.34380
615.21206	0.31946
613.28350	0.30468
611.35493	0.27735
609.42637	0.27641
607.49780	0.31353
605.56924	0.32310
603.64067	0.29957
601.71211	0.26623
599.78354	0.24986
597.85498	0.22560
595.92642	0.19154
593.99785	0.19532
592.06929	0.29423
590.14072	0.43723
588.21216	0.38366
586.28359	0.21803
584.35503	0.09392
582.42646	0.07904
580.49790	0.16067
578.56934	0.21985
576.64077	0.22218
574.71221	0.25086
572.78364	0.28530
570.85508	0.31494
568.92651	0.29916
566.99795	0.25121
565.06938	0.21790
563.14082	0.18527
561.21226	0.15848
559.28369	0.14104
557.35513	0.13495
555.42656	0.16033
553.49800	0.18836
551.56943	0.20427
549.64087	0.22783
547.71230	0.19137
545.78374	0.14268
543.85518	0.14909
541.92661	0.15379
539.99805	0.17501
538.06948	0.25357
536.14092	0.30041
534.21235	0.27365
532.28379	0.26869
530.35522	0.30034
528.42666	0.29702
526.49810	0.20061
524.56953	0.12488
522.64097	0.13526
520.71240	0.16302
518.78384	0.19832
516.85527	0.26293
514.92671	0.26279
512.99814	0.23396
511.06958	0.28933
509.14102	0.43406
507.21245	0.57219
505.28389	0.48905
503.35532	0.39497
501.42676	0.35729
499.49819	0.25233
