3997.91411	0.06227
3995.98555	0.06270
3994.05698	0.06384
3992.12842	0.06488
3990.19985	0.06544
3988.27129	0.06521
3986.34272	0.06433
3984.41416	0.06413
3982.48560	0.06473
3980.55703	0.06505
3978.62847	0.06523
3976.69990	0.06599
3974.77134	0.06701
3972.84277	0.06764
3970.91421	0.06780
3968.98564	0.06782
3967.05708	0.06778
3965.12852	0.06783
3963.19995	0.06836
3961.27139	0.06899
3959.34282	0.06907
3957.41426	0.06882
3955.48569	0.06874
3953.55713	0.06913
3951.62856	0.07048
3949.70000	0.07261
3947.77144	0.07373
3945.84287	0.07309
3943.91431	0.07310
3941.98574	0.07389
3940.05718	0.07246
3938.12861	0.06989
3936.20005	0.06918
3934.27148	0.07081
3932.34292	0.07380
3930.41436	0.07571
3928.48579	0.07489
3926.55723	0.07388
3924.62866	0.07497
3922.70010	0.07565
3920.77153	0.07439
3918.84297	0.07413
3916.91440	0.07497
3914.98584	0.07343
3913.05728	0.06986
3911.12871	0.06763
3909.20015	0.06775
3907.27158	0.07063
3905.34302	0.07724
3903.41445	0.08562
3901.48589	0.09008
3899.55732	0.08837
3897.62876	0.08230
3895.70020	0.07595
3893.77163	0.07431
3891.84307	0.07759
3889.91450	0.07923
3887.98594	0.07738
3886.05737	0.07854
3884.12881	0.08214
3882.20024	0.08357
3880.27168	0.08364
3878.34312	0.08081
3876.41455	0.07726
3874.48599	0.07894
3872.55742	0.08473
3870.62886	0.09002
3868.70029	0.09139
3866.77173	0.08872
3864.84316	0.08862
3862.91460	0.09047
3860.98604	0.08741
3859.05747	0.08298
3857.12891	0.08360
3855.20034	0.09029
3853.27178	0.10129
3851.34321	0.10359
3849.41465	0.09313
3847.48608	0.08447
3845.55752	0.08225
3843.62896	0.08609
3841.70039	0.09317
3839.77183	0.10068
3837.84326	0.10609
3835.91470	0.10507
3833.98613	0.09971
3832.05757	0.09544
3830.12900	0.09287
3828.20044	0.09180
3826.27187	0.09296
3824.34331	0.09577
3822.41475	0.10150
3820.48618	0.10995
3818.55762	0.11161
3816.62905	0.10783
3814.70049	0.10373
3812.77192	0.09785
3810.84336	0.09407
3808.91479	0.09572
3806.98623	0.10206
3805.05767	0.10785
3803.12910	0.11191
3801.20054	0.11750
3799.27197	0.11876
3797.34341	0.11489
3795.41484	0.11121
3793.48628	0.10721
3791.55771	0.10452
3789.62915	0.10459
3787.70059	0.10661
3785.77202	0.11040
3783.84346	0.11411
3781.91489	0.11574
3779.98633	0.11784
3778.05776	0.12001
3776.12920	0.11888
3774.20063	0.11764
3772.27207	0.12001
3770.34351	0.12595
3768.41494	0.13188
3766.48638	0.13448
3764.55781	0.13501
3762.62925	0.13491
3760.70068	0.13730
3758.77212	0.14372
3756.84355	0.14916
3754.91499	0.15177
3752.98643	0.15763
3751.05786	0.17021
3749.12930	0.18056
3747.20073	0.18081
3745.27217	0.18135
3743.34360	0.18460
3741.41504	0.18499
3739.48647	0.18628
3737.55791	0.19369
3735.62935	0.20758
3733.70078	0.21846
3731.77222	0.21707
3729.84365	0.21246
3727.91509	0.21310
3725.98652	0.21985
3724.05796	0.22840
3722.12939	0.23424
3720.20083	0.23738
3718.27227	0.23928
3716.34370	0.24240
3714.41514	0.24971
3712.48657	0.26482
3710.55801	0.28634
3708.62944	0.30007
3706.70088	0.30469
3704.77231	0.31163
3702.84375	0.32503
3700.91519	0.34333
3698.98662	0.36055
3697.05806	0.37604
3695.12949	0.39438
3693.20093	0.41634
3691.27236	0.44334
3689.34380	0.47736
3687.41523	0.50960
3685.48667	0.53128
3683.55811	0.55159
3681.62954	0.57836
3679.70098	0.61267
3677.77241	0.65189
3675.84385	0.69899
3673.91528	0.75460
3671.98672	0.79431
3670.05815	0.83163
3668.12959	0.88177
3666.20103	0.92231
3664.27246	0.95701
3662.34390	0.99875
3660.41533	1.04627
3658.48677	1.09458
3656.55820	1.14713
3654.62964	1.20419
3652.70107	1.25225
3650.77251	1.29980
3648.84395	1.36753
3646.91538	1.43637
3644.98682	1.47500
3643.05825	1.50495
3641.12969	1.54135
3639.20112	1.58491
3637.27256	1.63012
3635.34399	1.67538
3633.41543	1.72185
3631.48687	1.76691
3629.55830	1.81535
3627.62974	1.87430
3625.70117	1.91949
3623.77261	1.94796
3621.84404	1.98043
3619.91548	2.02224
3617.98691	2.07176
3616.05835	2.11451
3614.12979	2.14840
3612.20122	2.18566
3610.27266	2.22499
3608.34409	2.26648
3606.41553	2.30882
3604.48696	2.34479
3602.55840	2.37809
3600.62983	2.41683
3598.70127	2.45915
3596.77271	2.50128
3594.84414	2.54521
3592.91558	2.58789
3590.98701	2.62450
3589.05845	2.66101
3587.12988	2.70857
3585.20132	2.75657
3583.27275	2.79253
3581.34419	2.82694
3579.41562	2.86717
3577.48706	2.91181
3575.55850	2.95615
3573.62993	2.99928
3571.70137	3.04085
3569.77280	3.08260
3567.84424	3.12984
3565.91567	3.18547
3563.98711	3.23448
3562.05854	3.27282
3560.12998	3.31248
3558.20142	3.35655
3556.27285	3.40161
3554.34429	3.44521
3552.41572	3.49232
3550.48716	3.54293
3548.55859	3.59137
3546.63003	3.63967
3544.70146	3.69054
3542.77290	3.73780
3540.84434	3.77995
3538.91577	3.82295
3536.98721	3.86961
3535.05864	3.92045
3533.13008	3.97175
3531.20151	4.02197
3529.27295	4.07119
3527.34438	4.12031
3525.41582	4.17134
3523.48726	4.22340
3521.55869	4.27412
3519.63013	4.32229
3517.70156	4.37057
3515.77300	4.41997
3513.84443	4.46659
3511.91587	4.50943
3509.98730	4.55792
3508.05874	4.61300
3506.13018	4.66563
3504.20161	4.71528
3502.27305	4.76299
3500.34448	4.80803
3498.41592	4.85240
3496.48735	4.89967
3494.55879	4.95178
3492.63022	5.00743
3490.70166	5.05924
3488.77310	5.10553
3486.84453	5.15658
3484.91597	5.20948
3482.98740	5.25375
3481.05884	5.29839
3479.13027	5.35008
3477.20171	5.40294
3475.27314	5.45547
3473.34458	5.51081
3471.41602	5.56604
3469.48745	5.61129
3467.55889	5.65258
3465.63032	5.70106
3463.70176	5.76048
3461.77319	5.82030
3459.84463	5.85649
3457.91606	5.88846
3455.98750	5.94719
3454.05894	6.01009
3452.13037	6.06631
3450.20181	6.12152
3448.27324	6.16195
3446.34468	6.20257
3444.41611	6.26054
3442.48755	6.32406
3440.55898	6.37378
3438.63042	6.41394
3436.70186	6.45857
3434.77329	6.50791
3432.84473	6.56362
3430.91616	6.61850
3428.98760	6.66907
3427.05903	6.72313
3425.13047	6.78492
3423.20190	6.82419
3421.27334	6.84779
3419.34478	6.90772
3417.41621	6.98405
3415.48765	7.03337
3413.55908	7.07246
3411.63052	7.12236
3409.70195	7.17152
3407.77339	7.23616
3405.84482	7.31206
3403.91626	7.35457
3401.98770	7.34699
3400.05913	7.34397
3398.13057	7.40313
3396.20200	7.47620
3394.27344	7.49510
3392.34487	7.48127
3390.41631	7.49480
3388.48774	7.54807
3386.55918	7.63836
3384.63062	7.72212
3382.70205	7.75713
3380.77349	7.76726
3378.84492	7.78124
3376.91636	7.86522
3374.98779	8.00342
3373.05923	8.05902
3371.13066	7.98618
3369.20210	7.92493
3367.27354	7.98819
3365.34497	8.13850
3363.41641	8.22221
3361.48784	8.17099
3359.55928	8.12042
3357.63071	8.13152
3355.70215	8.11308
3353.77358	8.07039
3351.84502	8.14151
3349.91646	8.33000
3347.98789	8.51464
3346.05933	8.53016
3344.13076	8.39578
3342.20220	8.31465
3340.27363	8.30833
3338.34507	8.32970
3336.41650	8.40296
3334.48794	8.50580
3332.55937	8.46974
3330.63081	8.37173
3328.70225	8.37475
3326.77368	8.37884
3324.84512	8.34498
3322.91655	8.30887
3320.98799	8.25846
3319.05942	8.24289
3317.13086	8.34882
3315.20229	8.52776
3313.27373	8.58043
3311.34517	8.48182
3309.41660	8.41953
3307.48804	8.42492
3305.55947	8.38227
3303.63091	8.30585
3301.70234	8.28955
3299.77378	8.32494
3297.84521	8.35907
3295.91665	8.40455
3293.98809	8.48551
3292.05952	8.60250
3290.13096	8.62843
3288.20239	8.55070
3286.27383	8.55125
3284.34526	8.64848
3282.41670	8.79995
3280.48813	8.89582
3278.55957	8.84908
3276.63101	8.68940
3274.70244	8.50179
3272.77388	8.46976
3270.84531	8.57245
3268.91675	8.56658
3266.98818	8.47188
3265.05962	8.41957
3263.13105	8.37822
3261.20249	8.34289
3259.27393	8.32506
3257.34536	8.41468
3255.41680	8.62867
3253.48823	8.71005
3251.55967	8.57590
3249.63110	8.48624
3247.70254	8.52046
3245.77397	8.57376
3243.84541	8.65867
3241.91685	8.71884
3239.98828	8.58941
3238.05972	8.41204
3236.13115	8.34726
3234.20259	8.36906
3232.27402	8.43631
3230.34546	8.49257
3228.41689	8.50846
3226.48833	8.50857
3224.55977	8.44982
3222.63120	8.40603
3220.70264	8.43818
3218.77407	8.44664
3216.84551	8.42294
3214.91694	8.43934
3212.98838	8.48771
3211.05981	8.50135
3209.13125	8.41648
3207.20269	8.25780
3205.27412	8.15300
3203.34556	8.13318
3201.41699	8.15174
3199.48843	8.18483
3197.55986	8.16042
3195.63130	8.08214
3193.70273	8.02874
3191.77417	7.98098
3189.84561	7.91117
3187.91704	7.83341
3185.98848	7.75590
3184.05991	7.67926
3182.13135	7.61687
3180.20278	7.61490
3178.27422	7.65712
3176.34565	7.63027
3174.41709	7.50908
3172.48853	7.40044
3170.55996	7.34405
3168.63140	7.28511
3166.70283	7.19911
3164.77427	7.11573
3162.84570	7.05085
3160.91714	6.99613
3158.98857	6.93859
3157.06001	6.86430
3155.13145	6.77927
3153.20288	6.69976
3151.27432	6.62602
3149.34575	6.56137
3147.41719	6.51109
3145.48862	6.44994
3143.56006	6.36266
3141.63149	6.27661
3139.70293	6.20301
3137.77437	6.12859
3135.84580	6.05063
3133.91724	5.97879
3131.98867	5.90670
3130.06011	5.82511
3128.13154	5.74928
3126.20298	5.68582
3124.27441	5.62128
3122.34585	5.54415
3120.41729	5.45810
3118.48872	5.37667
3116.56016	5.30769
3114.63159	5.24501
3112.70303	5.17539
3110.77446	5.09710
3108.84590	5.02384
3106.91733	4.96126
3104.98877	4.89547
3103.06021	4.82087
3101.13164	4.74682
3099.20308	4.67811
3097.27451	4.60976
3095.34595	4.53715
3093.41738	4.46580
3091.48882	4.39877
3089.56025	4.33016
3087.63169	4.25695
3085.70312	4.18496
3083.77456	4.12172
3081.84600	4.06450
3079.91743	4.00391
3077.98887	3.93714
3076.06030	3.87005
3074.13174	3.80780
3072.20317	3.74956
3070.27461	3.69257
3068.34604	3.63441
3066.41748	3.57484
3064.48892	3.51556
3062.56035	3.45662
3060.63179	3.39925
3058.70322	3.34530
3056.77466	3.29195
3054.84609	3.23628
3052.91753	3.18029
3050.98896	3.12559
3049.06040	3.07182
3047.13184	3.01959
3045.20327	2.96861
3043.27471	2.91797
3041.34614	2.86809
3039.41758	2.81928
3037.48901	2.77069
3035.56045	2.72270
3033.63188	2.67603
3031.70332	2.62985
3029.77476	2.58409
3027.84619	2.53936
3025.91763	2.49570
3023.98906	2.45303
3022.06050	2.41087
3020.13193	2.36839
3018.20337	2.32601
3016.27480	2.28459
3014.34624	2.24378
3012.41768	2.20355
3010.48911	2.16443
3008.56055	2.12637
3006.63198	2.08889
3004.70342	2.05175
3002.77485	2.01497
3000.84629	1.97873
2998.91772	1.94358
2996.98916	1.90979
2995.06060	1.87661
2993.13203	1.84337
2991.20347	1.81060
2989.27490	1.77875
2987.34634	1.74752
2985.41777	1.71670
2983.48921	1.68593
2981.56064	1.65485
2979.63208	1.62406
2977.70352	1.59453
2975.77495	1.56623
2973.84639	1.53825
2971.91782	1.51018
2969.98926	1.48227
2968.06069	1.45470
2966.13213	1.42776
2964.20356	1.40146
2962.27500	1.37540
2960.34644	1.34938
2958.41787	1.32391
2956.48931	1.29959
2954.56074	1.27613
2952.63218	1.25322
2950.70361	1.23104
2948.77505	1.20922
2946.84648	1.18718
2944.91792	1.16493
2942.98936	1.14263
2941.06079	1.12035
2939.13223	1.09839
2937.20366	1.07716
2935.27510	1.05661
2933.34653	1.03624
2931.41797	1.01535
2929.48940	0.99428
2927.56084	0.97380
2925.63228	0.95324
2923.70371	0.93203
2921.77515	0.91075
2919.84658	0.89032
2917.91802	0.87110
2915.98945	0.85393
2914.06089	0.84080
2912.13232	0.83114
2910.20376	0.82203
2908.27520	0.81180
2906.34663	0.80016
2904.41807	0.78758
2902.48950	0.77481
2900.56094	0.76228
2898.63237	0.75015
2896.70381	0.73834
2894.77524	0.72639
2892.84668	0.71422
2890.91812	0.70218
2888.98955	0.69074
2887.06099	0.67995
2885.13242	0.66941
2883.20386	0.65885
2881.27529	0.64822
2879.34673	0.63761
2877.41816	0.62703
2875.48960	0.61648
2873.56104	0.60607
2871.63247	0.59564
2869.70391	0.58500
2867.77534	0.57420
2865.84678	0.56325
2863.91821	0.55243
2861.98965	0.54186
2860.06108	0.53117
2858.13252	0.52009
2856.20396	0.50870
2854.27539	0.49692
2852.34683	0.48460
2850.41826	0.47275
2848.48970	0.46357
2846.56113	0.45846
2844.63257	0.45605
2842.70400	0.45391
2840.77544	0.45071
2838.84687	0.44623
2836.91831	0.44093
2834.98975	0.43543
2833.06118	0.42992
2831.13262	0.42433
2829.20405	0.41861
2827.27549	0.41269
2825.34692	0.40659
2823.41836	0.40049
2821.48979	0.39457
2819.56123	0.38866
2817.63267	0.38274
2815.70410	0.37721
2813.77554	0.37190
2811.84697	0.36656
2809.91841	0.36138
2807.98984	0.35625
2806.06128	0.35094
2804.13271	0.34567
2802.20415	0.34056
2800.27559	0.33551
2798.34702	0.33059
2796.41846	0.32594
2794.48989	0.32144
2792.56133	0.31697
2790.63276	0.31261
2788.70420	0.30832
2786.77563	0.30394
2784.84707	0.29966
2782.91851	0.29565
2780.98994	0.29174
2779.06138	0.28784
2777.13281	0.28404
2775.20425	0.28026
2773.27568	0.27644
2771.34712	0.27277
2769.41855	0.26929
2767.48999	0.26582
2765.56143	0.26247
2763.63286	0.25925
2761.70430	0.25602
2759.77573	0.25282
2757.84717	0.24964
2755.91860	0.24655
2753.99004	0.24366
2752.06147	0.24087
2750.13291	0.23803
2748.20435	0.23520
2746.27578	0.23249
2744.34722	0.22990
2742.41865	0.22736
2740.49009	0.22478
2738.56152	0.22228
2736.63296	0.21995
2734.70439	0.21753
2732.77583	0.21496
2730.84727	0.21251
2728.91870	0.21039
2726.99014	0.20848
2725.06157	0.20643
2723.13301	0.20428
2721.20444	0.20235
2719.27588	0.20052
2717.34731	0.19855
2715.41875	0.19658
2713.49019	0.19478
2711.56162	0.19305
2709.63306	0.19131
2707.70449	0.18956
2705.77593	0.18795
2703.84736	0.18646
2701.91880	0.18485
2699.99023	0.18312
2698.06167	0.18160
2696.13311	0.18036
2694.20454	0.17915
2692.27598	0.17781
2690.34741	0.17636
2688.41885	0.17494
2686.49028	0.17360
2684.56172	0.17232
2682.63315	0.17116
2680.70459	0.17007
2678.77603	0.16894
2676.84746	0.16780
2674.91890	0.16682
2672.99033	0.16594
2671.06177	0.16493
2669.13320	0.16394
2667.20464	0.16305
2665.27607	0.16209
2663.34751	0.16115
2661.41895	0.16035
2659.49038	0.15961
2657.56182	0.15877
2655.63325	0.15794
2653.70469	0.15725
2651.77612	0.15662
2649.84756	0.15603
2647.91899	0.15557
2645.99043	0.15506
2644.06187	0.15434
2642.13330	0.15356
2640.20474	0.15296
2638.27617	0.15260
2636.34761	0.15229
2634.41904	0.15197
2632.49048	0.15171
2630.56191	0.15135
2628.63335	0.15089
2626.70479	0.15061
2624.77622	0.15037
2622.84766	0.14995
2620.91909	0.14955
2618.99053	0.14945
2617.06196	0.14952
2615.13340	0.14960
2613.20483	0.14957
2611.27627	0.14945
2609.34771	0.14934
2607.41914	0.14929
2605.49058	0.14919
2603.56201	0.14905
2601.63345	0.14899
2599.70488	0.14907
2597.77632	0.14940
2595.84775	0.14985
2593.91919	0.15013
2591.99062	0.15023
2590.06206	0.15033
2588.13350	0.15044
2586.20493	0.15057
2584.27637	0.15080
2582.34780	0.15109
2580.41924	0.15149
2578.49067	0.15198
2576.56211	0.15246
2574.63354	0.15283
2572.70498	0.15311
2570.77642	0.15346
2568.84785	0.15391
2566.91929	0.15437
2564.99072	0.15486
2563.06216	0.15537
2561.13359	0.15588
2559.20503	0.15648
2557.27646	0.15707
2555.34790	0.15758
2553.41934	0.15819
2551.49077	0.15892
2549.56221	0.15959
2547.63364	0.16017
2545.70508	0.16075
2543.77651	0.16139
2541.84795	0.16206
2539.91938	0.16275
2537.99082	0.16345
2536.06226	0.16420
2534.13369	0.16509
2532.20513	0.16601
2530.27656	0.16681
2528.34800	0.16756
2526.41943	0.16832
2524.49087	0.16902
2522.56230	0.16977
2520.63374	0.17068
2518.70518	0.17166
2516.77661	0.17256
2514.84805	0.17349
2512.91948	0.17443
2510.99092	0.17520
2509.06235	0.17593
2507.13379	0.17680
2505.20522	0.17771
2503.27666	0.17855
2501.34810	0.17946
2499.41953	0.18044
2497.49097	0.18133
2495.56240	0.18220
2493.63384	0.18315
2491.70527	0.18411
2489.77671	0.18508
2487.84814	0.18607
2485.91958	0.18706
2483.99102	0.18800
2482.06245	0.18891
2480.13389	0.18985
2478.20532	0.19083
2476.27676	0.19175
2474.34819	0.19267
2472.41963	0.19369
2470.49106	0.19473
2468.56250	0.19573
2466.63394	0.19669
2464.70537	0.19760
2462.77681	0.19858
2460.84824	0.19972
2458.91968	0.20084
2456.99111	0.20181
2455.06255	0.20281
2453.13398	0.20401
2451.20542	0.20517
2449.27686	0.20617
2447.34829	0.20718
2445.41973	0.20821
2443.49116	0.20918
2441.56260	0.21021
2439.63403	0.21133
2437.70547	0.21251
2435.77690	0.21366
2433.84834	0.21467
2431.91978	0.21566
2429.99121	0.21679
2428.06265	0.21796
2426.13408	0.21916
2424.20552	0.22043
2422.27695	0.22174
2420.34839	0.22298
2418.41982	0.22411
2416.49126	0.22517
2414.56270	0.22629
2412.63413	0.22753
2410.70557	0.22876
2408.77700	0.22990
2406.84844	0.23116
2404.91987	0.23252
2402.99131	0.23378
2401.06274	0.23495
2399.13418	0.23624
2397.20562	0.23765
2395.27705	0.23901
2393.34849	0.24030
2391.41992	0.24165
2389.49136	0.24337
2387.56279	0.24585
2385.63423	0.24956
2383.70566	0.25492
2381.77710	0.26220
2379.84854	0.27137
2377.91997	0.28197
2375.99141	0.29372
2374.06284	0.30707
2372.13428	0.32249
2370.20571	0.33974
2368.27715	0.35782
2366.34858	0.37539
2364.42002	0.39082
2362.49146	0.40221
2360.56289	0.40826
2358.63433	0.40924
2356.70576	0.40405
2354.77720	0.39112
2352.84863	0.37372
2350.92007	0.35687
2348.99150	0.34663
2347.06294	0.34700
2345.13437	0.35891
2343.20581	0.37544
2341.27725	0.38406
2339.34868	0.38471
2337.42012	0.38339
2335.49155	0.38217
2333.56299	0.38092
2331.63442	0.38002
2329.70586	0.37910
2327.77729	0.37750
2325.84873	0.37475
2323.92017	0.37095
2321.99160	0.36647
2320.06304	0.36120
2318.13447	0.35566
2316.20591	0.35109
2314.27734	0.34835
2312.34878	0.34702
2310.42021	0.34578
2308.49165	0.34371
2306.56309	0.34102
2304.63452	0.33866
2302.70596	0.33753
2300.77739	0.33732
2298.84883	0.33719
2296.92026	0.33703
2294.99170	0.33700
2293.06313	0.33705
2291.13457	0.33716
2289.20601	0.33740
2287.27744	0.33780
2285.34888	0.33835
2283.42031	0.33928
2281.49175	0.34089
2279.56318	0.34317
2277.63462	0.34573
2275.70605	0.34827
2273.77749	0.35062
2271.84893	0.35282
2269.92036	0.35499
2267.99180	0.35712
2266.06323	0.35920
2264.13467	0.36117
2262.20610	0.36303
2260.27754	0.36487
2258.34897	0.36676
2256.42041	0.36868
2254.49185	0.37068
2252.56328	0.37278
2250.63472	0.37486
2248.70615	0.37684
2246.77759	0.37877
2244.84902	0.38077
2242.92046	0.38290
2240.99189	0.38508
2239.06333	0.38723
2237.13477	0.38943
2235.20620	0.39169
2233.27764	0.39401
2231.34907	0.39636
2229.42051	0.39869
2227.49194	0.40095
2225.56338	0.40317
2223.63481	0.40545
2221.70625	0.40780
2219.77769	0.41015
2217.84912	0.41242
2215.92056	0.41468
2213.99199	0.41695
2212.06343	0.41915
2210.13486	0.42124
2208.20630	0.42339
2206.27773	0.42557
2204.34917	0.42763
2202.42061	0.42964
2200.49204	0.43172
2198.56348	0.43377
2196.63491	0.43583
2194.70635	0.43796
2192.77778	0.43999
2190.84922	0.44188
2188.92065	0.44369
2186.99209	0.44543
2185.06353	0.44720
2183.13496	0.44906
2181.20640	0.45088
2179.27783	0.45255
2177.34927	0.45409
2175.42070	0.45559
2173.49214	0.45717
2171.56357	0.45893
2169.63501	0.46060
2167.70645	0.46190
2165.77788	0.46291
2163.84932	0.46387
2161.92075	0.46494
2159.99219	0.46614
2158.06362	0.46738
2156.13506	0.46853
2154.20649	0.46945
2152.27793	0.47020
2150.34937	0.47087
2148.42080	0.47145
2146.49224	0.47193
2144.56367	0.47237
2142.63511	0.47271
2140.70654	0.47290
2138.77798	0.47316
2136.84941	0.47352
2134.92085	0.47376
2132.99229	0.47366
2131.06372	0.47333
2129.13516	0.47298
2127.20659	0.47275
2125.27803	0.47266
2123.34946	0.47239
2121.42090	0.47179
2119.49233	0.47100
2117.56377	0.47015
2115.63521	0.46928
2113.70664	0.46848
2111.77808	0.46767
2109.84951	0.46670
2107.92095	0.46560
2105.99238	0.46446
2104.06382	0.46323
2102.13525	0.46195
2100.20669	0.46062
2098.27812	0.45918
2096.34956	0.45756
2094.42100	0.45584
2092.49243	0.45425
2090.56387	0.45274
2088.63530	0.45097
2086.70674	0.44888
2084.77817	0.44673
2082.84961	0.44462
2080.92104	0.44251
2078.99248	0.44048
2077.06392	0.43850
2075.13535	0.43642
2073.20679	0.43420
2071.27822	0.43183
2069.34966	0.42936
2067.42109	0.42707
2065.49253	0.42497
2063.56396	0.42254
2061.63540	0.41977
2059.70684	0.41700
2057.77827	0.41429
2055.84971	0.41170
2053.92114	0.40924
2051.99258	0.40669
2050.06401	0.40388
2048.13545	0.40102
2046.20688	0.39831
2044.27832	0.39567
2042.34976	0.39304
2040.42119	0.39028
2038.49263	0.38734
2036.56406	0.38439
2034.63550	0.38147
2032.70693	0.37856
2030.77837	0.37569
2028.84980	0.37287
2026.92124	0.37010
2024.99268	0.36724
2023.06411	0.36436
2021.13555	0.36159
2019.20698	0.35905
2017.27842	0.35658
2015.34985	0.35368
2013.42129	0.35042
2011.49272	0.34734
2009.56416	0.34453
2007.63560	0.34166
2005.70703	0.33875
2003.77847	0.33607
2001.84990	0.33353
1999.92134	0.33087
1997.99277	0.32808
1996.06421	0.32544
1994.13564	0.32348
1992.20708	0.32188
1990.27852	0.31944
1988.34995	0.31627
1986.42139	0.31315
1984.49282	0.31031
1982.56426	0.30779
1980.63569	0.30538
1978.70713	0.30293
1976.77856	0.30051
1974.85000	0.29818
1972.92144	0.29596
1970.99287	0.29395
1969.06431	0.29244
1967.13574	0.29112
1965.20718	0.28898
1963.27861	0.28627
1961.35005	0.28384
1959.42148	0.28171
1957.49292	0.27976
1955.56436	0.27801
1953.63579	0.27630
1951.70723	0.27447
1949.77866	0.27275
1947.85010	0.27145
1945.92153	0.27062
1943.99297	0.27018
1942.06440	0.26917
1940.13584	0.26671
1938.20728	0.26402
1936.27871	0.26220
1934.35015	0.26095
1932.42158	0.25982
1930.49302	0.25855
1928.56445	0.25720
1926.63589	0.25618
1924.70732	0.25603
1922.77876	0.25615
1920.85020	0.25539
1918.92163	0.25447
1916.99307	0.25347
1915.06450	0.25163
1913.13594	0.25008
1911.20737	0.24978
1909.27881	0.24978
1907.35024	0.24889
1905.42168	0.24747
1903.49312	0.24645
1901.56455	0.24579
1899.63599	0.24519
1897.70742	0.24494
1895.77886	0.24516
1893.85029	0.24509
1891.92173	0.24488
1889.99316	0.24530
1888.06460	0.24508
1886.13604	0.24388
1884.20747	0.24302
1882.27891	0.24254
1880.35034	0.24217
1878.42178	0.24210
1876.49321	0.24221
1874.56465	0.24233
1872.63608	0.24307
1870.70752	0.24537
1868.77896	0.24844
1866.85039	0.24861
1864.92183	0.24611
1862.99326	0.24443
1861.06470	0.24422
1859.13613	0.24459
1857.20757	0.24487
1855.27900	0.24514
1853.35044	0.24556
1851.42187	0.24627
1849.49331	0.24757
1847.56475	0.24964
1845.63618	0.25231
1843.70762	0.25427
1841.77905	0.25355
1839.85049	0.25214
1837.92192	0.25237
1835.99336	0.25333
1834.06479	0.25422
1832.13623	0.25621
1830.20767	0.25975
1828.27910	0.26199
1826.35054	0.26227
1824.42197	0.26274
1822.49341	0.26279
1820.56484	0.26287
1818.63628	0.26399
1816.70771	0.26574
1814.77915	0.26756
1812.85059	0.27009
1810.92202	0.27322
1808.99346	0.27530
1807.06489	0.27642
1805.13633	0.27804
1803.20776	0.28111
1801.27920	0.28518
1799.35063	0.28865
1797.42207	0.29084
1795.49351	0.29344
1793.56494	0.29778
1791.63638	0.30260
1789.70781	0.30439
1787.77925	0.30478
1785.85068	0.30730
1783.92212	0.31140
1781.99355	0.31603
1780.06499	0.32079
1778.13643	0.32501
1776.20786	0.32941
1774.27930	0.33578
1772.35073	0.34430
1770.42217	0.35065
1768.49360	0.35370
1766.56504	0.35673
1764.63647	0.36113
1762.70791	0.36775
1760.77935	0.37612
1758.85078	0.38317
1756.92222	0.39020
1754.99365	0.39759
1753.06509	0.40497
1751.13652	0.41587
1749.20796	0.42937
1747.27939	0.43976
1745.35083	0.44728
1743.42227	0.45577
1741.49370	0.46596
1739.56514	0.47826
1737.63657	0.49065
1735.70801	0.50294
1733.77944	0.52235
1731.85088	0.54210
1729.92231	0.55505
1727.99375	0.56845
1726.06519	0.58437
1724.13662	0.60350
1722.20806	0.62462
1720.27949	0.64518
1718.35093	0.67143
1716.42236	0.70754
1714.49380	0.73642
1712.56523	0.75775
1710.63667	0.78003
1708.70811	0.80623
1706.77954	0.83777
1704.85098	0.87478
1702.92241	0.90645
1700.99385	0.93852
1699.06528	0.98707
1697.13672	1.02957
1695.20815	1.06890
1693.27959	1.10602
1691.35103	1.13777
1689.42246	1.17673
1687.49390	1.21804
1685.56533	1.25889
1683.63677	1.32073
1681.70820	1.38019
1679.77964	1.41631
1677.85107	1.45257
1675.92251	1.49597
1673.99395	1.54962
1672.06538	1.59788
1670.13682	1.64528
1668.20825	1.70219
1666.27969	1.74543
1664.35112	1.78396
1662.42256	1.83312
1660.49399	1.88622
1658.56543	1.92703
1656.63687	1.96337
1654.70830	2.00110
1652.77974	2.05892
1650.85117	2.10897
1648.92261	2.12767
1646.99404	2.15642
1645.06548	2.18718
1643.13691	2.20608
1641.20835	2.21844
1639.27979	2.23203
1637.35122	2.24411
1635.42266	2.24677
1633.49409	2.23508
1631.56553	2.21997
1629.63696	2.20670
1627.70840	2.18530
1625.77983	2.15863
1623.85127	2.12185
1621.92271	2.07437
1619.99414	2.03087
1618.06558	1.98894
1616.13701	1.93071
1614.20845	1.87095
1612.27988	1.82441
1610.35132	1.77577
1608.42275	1.72373
1606.49419	1.67231
1604.56562	1.62429
1602.63706	1.57737
1600.70850	1.53108
1598.77993	1.48819
1596.85137	1.44821
1594.92280	1.40967
1592.99424	1.37189
1591.06567	1.33656
1589.13711	1.30267
1587.20854	1.27047
1585.27998	1.24063
1583.35142	1.21287
1581.42285	1.18749
1579.49429	1.16622
1577.56572	1.14821
1575.63716	1.12447
1573.70859	1.10014
1571.78003	1.08435
1569.85146	1.06923
1567.92290	1.05004
1565.99434	1.03330
1564.06577	1.01995
1562.13721	1.01023
1560.20864	1.00546
1558.28008	0.99680
1556.35151	0.98065
1554.42295	0.96778
1552.49438	0.95704
1550.56582	0.94772
1548.63726	0.93799
1546.70869	0.92946
1544.78013	0.92358
1542.85156	0.91895
1540.92300	0.91170
1538.99443	0.89246
1537.06587	0.87373
1535.13730	0.86359
1533.20874	0.85375
1531.28018	0.84160
1529.35161	0.83241
1527.42305	0.82593
1525.49448	0.81963
1523.56592	0.81391
1521.63735	0.80840
1519.70879	0.80013
1517.78022	0.79176
1515.85166	0.78288
1513.92310	0.77358
1511.99453	0.76716
1510.06597	0.76458
1508.13740	0.76499
1506.20884	0.75851
1504.28027	0.74431
1502.35171	0.73593
1500.42314	0.73184
1498.49458	0.72955
1496.56602	0.72578
1494.63745	0.71970
1492.70889	0.71572
1490.78032	0.71531
1488.85176	0.71440
1486.92319	0.70900
1484.99463	0.70281
1483.06606	0.69883
1481.13750	0.69649
1479.20894	0.69475
1477.28037	0.69426
1475.35181	0.69537
1473.42324	0.69616
1471.49468	0.69235
1469.56611	0.68576
1467.63755	0.68186
1465.70898	0.68068
1463.78042	0.67923
1461.85186	0.67727
1459.92329	0.67792
1457.99473	0.68104
1456.06616	0.67947
1454.13760	0.67241
1452.20903	0.66716
1450.28047	0.66416
1448.35190	0.66220
1446.42334	0.65934
1444.49478	0.65578
1442.56621	0.65312
1440.63765	0.65166
1438.70908	0.65143
1436.78052	0.65157
1434.85195	0.64963
1432.92339	0.64677
1430.99482	0.64504
1429.06626	0.64357
1427.13770	0.64184
1425.20913	0.64107
1423.28057	0.64105
1421.35200	0.64106
1419.42344	0.64153
1417.49487	0.64024
1415.56631	0.63620
1413.63774	0.63268
1411.70918	0.63066
1409.78062	0.62930
1407.85205	0.62830
1405.92349	0.62798
1403.99492	0.62729
1402.06636	0.62590
1400.13779	0.62535
1398.20923	0.62526
1396.28066	0.62413
1394.35210	0.62142
1392.42354	0.61750
1390.49497	0.61449
1388.56641	0.61319
1386.63784	0.61169
1384.70928	0.60875
1382.78071	0.60602
1380.85215	0.60437
1378.92358	0.60340
1376.99502	0.60312
1375.06646	0.60347
1373.13789	0.60290
1371.20933	0.60104
1369.28076	0.59958
1367.35220	0.59861
1365.42363	0.59807
1363.49507	0.59837
1361.56650	0.59778
1359.63794	0.59537
1357.70937	0.59315
1355.78081	0.59175
1353.85225	0.59045
1351.92368	0.58921
1349.99512	0.58824
1348.06655	0.58714
1346.13799	0.58594
1344.20942	0.58500
1342.28086	0.58477
1340.35229	0.58520
1338.42373	0.58462
1336.49517	0.58232
1334.56660	0.58005
1332.63804	0.57869
1330.70947	0.57790
1328.78091	0.57729
1326.85234	0.57669
1324.92378	0.57619
1322.99521	0.57599
1321.06665	0.57605
1319.13809	0.57612
1317.20952	0.57571
1315.28096	0.57487
1313.35239	0.57392
1311.42383	0.57264
1309.49526	0.57117
1307.56670	0.56989
1305.63813	0.56862
1303.70957	0.56736
1301.78101	0.56623
1299.85244	0.56520
1297.92388	0.56425
1295.99531	0.56324
1294.06675	0.56205
1292.13818	0.56102
1290.20962	0.56039
1288.28105	0.55975
1286.35249	0.55882
1284.42393	0.55795
1282.49536	0.55724
1280.56680	0.55646
1278.63823	0.55553
1276.70967	0.55463
1274.78110	0.55394
1272.85254	0.55354
1270.92397	0.55319
1268.99541	0.55254
1267.06685	0.55175
1265.13828	0.55117
1263.20972	0.55088
1261.28115	0.55071
1259.35259	0.55038
1257.42402	0.54988
1255.49546	0.54945
1253.56689	0.54917
1251.63833	0.54895
1249.70977	0.54858
1247.78120	0.54803
1245.85264	0.54759
1243.92407	0.54732
1241.99551	0.54690
1240.06694	0.54620
1238.13838	0.54527
1236.20981	0.54426
1234.28125	0.54325
1232.35269	0.54213
1230.42412	0.54099
1228.49556	0.54002
1226.56699	0.53899
1224.63843	0.53774
1222.70986	0.53652
1220.78130	0.53548
1218.85273	0.53449
1216.92417	0.53354
1214.99561	0.53269
1213.06704	0.53202
1211.13848	0.53155
1209.20991	0.53105
1207.28135	0.53046
1205.35278	0.52988
1203.42422	0.52929
1201.49565	0.52862
1199.56709	0.52793
1197.63853	0.52723
1195.70996	0.52646
1193.78140	0.52562
1191.85283	0.52489
1189.92427	0.52434
1187.99570	0.52392
1186.06714	0.52358
1184.13857	0.52344
1182.21001	0.52365
1180.28145	0.52418
1178.35288	0.52493
1176.42432	0.52581
1174.49575	0.52675
1172.56719	0.52776
1170.63862	0.52893
1168.71006	0.53013
1166.78149	0.53121
1164.85293	0.53222
1162.92437	0.53321
1160.99580	0.53410
1159.06724	0.53465
1157.13867	0.53455
1155.21011	0.53396
1153.28154	0.53314
1151.35298	0.53196
1149.42441	0.53001
1147.49585	0.52727
1145.56729	0.52416
1143.63872	0.52109
1141.71016	0.51841
1139.78159	0.51632
1137.85303	0.51480
1135.92446	0.51365
1133.99590	0.51274
1132.06733	0.51204
1130.13877	0.51162
1128.21021	0.51140
1126.28164	0.51119
1124.35308	0.51083
1122.42451	0.51031
1120.49595	0.50993
1118.56738	0.50995
1116.63882	0.51022
1114.71025	0.51075
1112.78169	0.51165
1110.85312	0.51266
1108.92456	0.51367
1106.99600	0.51479
1105.06743	0.51586
1103.13887	0.51665
1101.21030	0.51729
1099.28174	0.51813
1097.35317	0.51953
1095.42461	0.52187
1093.49604	0.52548
1091.56748	0.53058
1089.63892	0.53730
1087.71035	0.54557
1085.78179	0.55492
1083.85322	0.56435
1081.92466	0.57249
1079.99609	0.57826
1078.06753	0.58123
1076.13896	0.58122
1074.21040	0.57818
1072.28184	0.57276
1070.35327	0.56605
1068.42471	0.55901
1066.49614	0.55217
1064.56758	0.54597
1062.63901	0.54069
1060.71045	0.53614
1058.78188	0.53219
1056.85332	0.52882
1054.92476	0.52562
1052.99619	0.52266
1051.06763	0.52049
1049.13906	0.51919
1047.21050	0.51872
1045.28193	0.51908
1043.35337	0.51980
1041.42480	0.52057
1039.49624	0.52137
1037.56768	0.52185
1035.63911	0.52191
1033.71055	0.52164
1031.78198	0.52066
1029.85342	0.51886
1027.92485	0.51676
1025.99629	0.51484
1024.06772	0.51332
1022.13916	0.51240
1020.21060	0.51197
1018.28203	0.51166
1016.35347	0.51131
1014.42490	0.51086
1012.49634	0.51031
1010.56777	0.50994
1008.63921	0.50992
1006.71064	0.51012
1004.78208	0.51074
1002.85352	0.51221
1000.92495	0.51458
998.99639	0.51782
997.06782	0.52192
995.13926	0.52641
993.21069	0.53056
991.28213	0.53373
989.35356	0.53551
987.42500	0.53607
985.49644	0.53590
983.56787	0.53558
981.63931	0.53574
979.71074	0.53663
977.78218	0.53802
975.85361	0.53995
973.92505	0.54254
971.99648	0.54559
970.06792	0.54887
968.13936	0.55244
966.21079	0.55649
964.28223	0.56099
962.35366	0.56571
960.42510	0.57078
958.49653	0.57642
956.56797	0.58232
954.63940	0.58826
952.71084	0.59456
950.78228	0.60127
948.85371	0.60775
946.92515	0.61376
944.99658	0.61989
943.06802	0.62626
941.13945	0.63251
939.21089	0.63840
937.28232	0.64391
935.35376	0.64953
933.42520	0.65569
931.49663	0.66232
929.56807	0.66908
927.63950	0.67545
925.71094	0.68103
923.78237	0.68619
921.85381	0.69196
919.92524	0.69911
917.99668	0.70731
916.06812	0.71548
914.13955	0.72348
912.21099	0.73135
910.28242	0.73885
908.35386	0.74683
906.42529	0.75591
904.49673	0.76557
902.56816	0.77534
900.63960	0.78521
898.71104	0.79508
896.78247	0.80456
894.85391	0.81368
892.92534	0.82296
890.99678	0.83279
889.06821	0.84408
887.13965	0.85635
885.21108	0.86788
883.28252	0.87891
881.35396	0.88992
879.42539	0.90146
877.49683	0.91430
875.56826	0.92704
873.63970	0.93850
871.71113	0.94947
869.78257	0.96099
867.85400	0.97297
865.92544	0.98512
863.99687	0.99773
862.06831	1.01021
860.13975	1.02129
858.21118	1.03185
856.28262	1.04325
854.35405	1.05466
852.42549	1.06598
850.49692	1.07848
848.56836	1.09197
846.63979	1.10518
844.71123	1.11790
842.78267	1.13019
840.85410	1.14201
838.92554	1.15464
836.99697	1.16807
835.06841	1.17882
833.13984	1.18500
831.21128	1.19130
829.28271	1.20593
827.35415	1.22582
825.42559	1.23965
823.49702	1.25113
821.56846	1.26541
819.63989	1.27908
817.71133	1.29354
815.78276	1.30855
813.85420	1.31860
811.92563	1.32355
809.99707	1.32958
808.06851	1.34637
806.13994	1.38040
804.21138	1.41415
802.28281	1.42291
800.35425	1.41674
798.42568	1.41972
796.49712	1.43534
794.56855	1.46053
792.63999	1.48627
790.71143	1.50599
788.78286	1.54595
786.85430	1.60818
784.92573	1.61400
782.99717	1.54502
781.06860	1.49851
779.14004	1.49891
777.21147	1.51864
775.28291	1.61358
773.35435	1.83347
771.42578	1.96700
769.49722	1.80215
767.56865	1.84935
765.64009	2.06362
763.71152	1.89551
761.78296	1.62110
759.85439	1.52495
757.92583	1.45414
755.99727	1.36153
754.06870	1.31944
752.14014	1.25594
750.21157	1.18510
748.28301	1.17432
746.35444	1.15824
744.42588	1.07402
742.49731	0.98456
740.56875	0.92558
738.64019	0.88777
736.71162	0.85555
734.78306	0.80288
732.85449	0.74384
730.92593	0.75800
728.99736	0.80907
727.06880	0.67997
725.14023	0.45154
723.21167	0.33434
721.28311	0.34175
719.35454	0.39658
717.42598	0.43628
715.49741	0.37355
713.56885	0.22836
711.64028	0.09549
709.71172	0.01478
707.78315	0.08672
705.85459	0.15921
703.92603	0.10707
701.99746	0.11597
700.06890	0.28062
698.14033	0.32217
696.21177	0.23976
694.28320	0.24044
692.35464	0.16442
690.42607	0.03271
688.49751	0.01854
686.56895	0.15165
684.64038	0.29656
682.71182	0.31716
680.78325	0.34579
678.85469	0.32300
676.92612	0.22880
674.99756	0.23507
673.06899	0.36545
671.14043	0.45204
669.21187	0.44065
667.28330	0.38777
665.35474	0.24979
663.42617	0.12793
661.49761	0.16195
659.56904	0.27860
657.64048	0.43199
655.71191	0.56523
653.78335	0.38608
651.85479	0.15697
649.92622	0.08699
647.99766	0.13808
646.06909	0.21474
644.14053	0.30152
642.21196	0.36537
640.28340	0.39103
638.35483	0.42299
636.42627	0.37378
634.49771	0.34881
632.56914	0.35276
630.64058	0.34780
628.71201	0.66727
626.78345	3.76070
624.85488	0.96264
622.92632	0.49592
620.99775	0.30979
619.06919	0.19520
617.14062	0.17674
615.21206	0.24069
613.28350	0.31620
611.35493	0.29924
609.42637	0.17524
607.49780	0.04360
605.56924	0.02710
603.64067	0.13741
601.71211	0.26921
599.78354	0.22212
597.85498	0.15513
595.92642	0.16839
593.99785	0.17416
592.06929	0.20233
590.14072	0.30950
588.21216	0.31599
586.28359	0.20468
584.35503	0.05723
582.42646	-0.02807
580.49790	-0.03153
578.56934	-0.02371
576.64077	0.08014
574.71221	0.35606
572.78364	0.41451
570.85508	0.27559
568.92651	0.28516
566.99795	0.32483
565.06938	0.27547
563.14082	0.17585
561.21226	0.13231
559.28369	0.16100
557.35513	0.20536
555.42656	0.24483
553.49800	0.28546
551.56943	0.23737
549.64087	0.12201
547.71230	0.08001
545.78374	0.12295
543.85518	0.11469
541.92661	0.03859
539.99805	0.03681
538.06948	0.11754
536.14092	0.23206
534.21235	0.35048
532.28379	0.35704
530.35522	0.30262
528.42666	0.27068
526.49810	0.27104
524.56953	0.29717
522.64097	0.24040
520.71240	0.14878
518.78384	0.14153
516.85527	0.20181
514.92671	0.21561
512.99814	0.21175
511.06958	0.28745
509.14102	0.47349
507.21245	0.83125
505.28389	0.42882
503.35532	0.17450
501.42676	0.06558
499.49819	0.03263
