3997.91411	0.10567
3995.98555	0.10567
3994.05698	0.10611
3992.12842	0.10656
3990.19985	0.10677
3988.27129	0.10692
3986.34272	0.10718
3984.41416	0.10770
3982.48560	0.10819
3980.55703	0.10815
3978.62847	0.10805
3976.69990	0.10854
3974.77134	0.10924
3972.84277	0.10957
3970.91421	0.10944
3968.98564	0.10911
3967.05708	0.10891
3965.12852	0.10898
3963.19995	0.10947
3961.27139	0.11012
3959.34282	0.11037
3957.41426	0.11015
3955.48569	0.10993
3953.55713	0.11015
3951.62856	0.11071
3949.70000	0.11114
3947.77144	0.11121
3945.84287	0.11095
3943.91431	0.11091
3941.98574	0.11129
3940.05718	0.11120
3938.12861	0.11050
3936.20005	0.11011
3934.27148	0.11046
3932.34292	0.11114
3930.41436	0.11135
3928.48579	0.11077
3926.55723	0.11009
3924.62866	0.11019
3922.70010	0.11062
3920.77153	0.11048
3918.84297	0.11029
3916.91440	0.11048
3914.98584	0.11004
3913.05728	0.10888
3911.12871	0.10804
3909.20015	0.10785
3907.27158	0.10864
3905.34302	0.11055
3903.41445	0.11233
3901.48589	0.11284
3899.55732	0.11258
3897.62876	0.11133
3895.70020	0.10955
3893.77163	0.10911
3891.84307	0.11034
3889.91450	0.11090
3887.98594	0.10993
3886.05737	0.11003
3884.12881	0.11137
3882.20024	0.11197
3880.27168	0.11195
3878.34312	0.11113
3876.41455	0.11017
3874.48599	0.11083
3872.55742	0.11254
3870.62886	0.11417
3868.70029	0.11509
3866.77173	0.11446
3864.84316	0.11419
3862.91460	0.11490
3860.98604	0.11454
3859.05747	0.11344
3857.12891	0.11330
3855.20034	0.11468
3853.27178	0.11793
3851.34321	0.11977
3849.41465	0.11752
3847.48608	0.11561
3845.55752	0.11556
3843.62896	0.11684
3841.70039	0.11863
3839.77183	0.12032
3837.84326	0.12191
3835.91470	0.12266
3833.98613	0.12223
3832.05757	0.12140
3830.12900	0.12090
3828.20044	0.12132
3826.27187	0.12255
3824.34331	0.12365
3822.41475	0.12513
3820.48618	0.12788
3818.55762	0.12898
3816.62905	0.12825
3814.70049	0.12773
3812.77192	0.12693
3810.84336	0.12658
3808.91479	0.12784
3806.98623	0.13044
3805.05767	0.13227
3803.12910	0.13352
3801.20054	0.13657
3799.27197	0.13910
3797.34341	0.13874
3795.41484	0.13777
3793.48628	0.13693
3791.55771	0.13664
3789.62915	0.13734
3787.70059	0.13875
3785.77202	0.14071
3783.84346	0.14277
3781.91489	0.14419
3779.98633	0.14576
3778.05776	0.14769
3776.12920	0.14851
3774.20063	0.14882
3772.27207	0.15031
3770.34351	0.15330
3768.41494	0.15650
3766.48638	0.15870
3764.55781	0.16065
3762.62925	0.16234
3760.70068	0.16421
3758.77212	0.16724
3756.84355	0.17017
3754.91499	0.17232
3752.98643	0.17562
3751.05786	0.18126
3749.12930	0.18692
3747.20073	0.18918
3745.27217	0.19048
3743.34360	0.19294
3741.41504	0.19538
3739.48647	0.19755
3737.55791	0.20117
3735.62935	0.20765
3733.70078	0.21489
3731.77222	0.21810
3729.84365	0.21929
3727.91509	0.22234
3725.98652	0.22816
3724.05796	0.23525
3722.12939	0.24213
3720.20083	0.24864
3718.27227	0.25450
3716.34370	0.26062
3714.41514	0.26795
3712.48657	0.27803
3710.55801	0.29254
3708.62944	0.30661
3706.70088	0.31652
3704.77231	0.32625
3702.84375	0.33890
3700.91519	0.35574
3698.98662	0.37390
3697.05806	0.39102
3695.12949	0.40918
3693.20093	0.42887
3691.27236	0.45141
3689.34380	0.48073
3687.41523	0.51465
3685.48667	0.54320
3683.55811	0.56809
3681.62954	0.59539
3679.70098	0.62676
3677.77241	0.66056
3675.84385	0.70106
3673.91528	0.75385
3671.98672	0.79549
3670.05815	0.83287
3668.12959	0.88470
3666.20103	0.93150
3664.27246	0.97062
3662.34390	1.01324
3660.41533	1.05998
3658.48677	1.10663
3656.55820	1.15625
3654.62964	1.21086
3652.70107	1.25672
3650.77251	1.29767
3648.84395	1.35472
3646.91538	1.42265
3644.98682	1.47050
3643.05825	1.50701
3641.12969	1.54559
3639.20112	1.58891
3637.27256	1.63262
3635.34399	1.67543
3633.41543	1.71855
3631.48687	1.75920
3629.55830	1.80068
3627.62974	1.85425
3625.70117	1.90343
3623.77261	1.93640
3621.84404	1.96822
3619.91548	2.00582
3617.98691	2.05197
3616.05835	2.09616
3614.12979	2.13284
3612.20122	2.17118
3610.27266	2.21048
3608.34409	2.25089
3606.41553	2.29383
3604.48696	2.33307
3602.55840	2.36757
3600.62983	2.40529
3598.70127	2.44700
3596.77271	2.48742
3594.84414	2.52794
3592.91558	2.56959
3590.98701	2.60805
3589.05845	2.64405
3587.12988	2.68780
3585.20132	2.73500
3583.27275	2.77471
3581.34419	2.81245
3579.41562	2.85266
3577.48706	2.89462
3575.55850	2.93736
3573.62993	2.98084
3571.70137	3.02218
3569.77280	3.06212
3567.84424	3.10643
3565.91567	3.16070
3563.98711	3.21138
3562.05854	3.25160
3560.12998	3.29292
3558.20142	3.33821
3556.27285	3.38395
3554.34429	3.42759
3552.41572	3.47234
3550.48716	3.51897
3548.55859	3.56414
3546.63003	3.60938
3544.70146	3.65787
3542.77290	3.70585
3540.84434	3.75104
3538.91577	3.79667
3536.98721	3.84273
3535.05864	3.88894
3533.13008	3.93584
3531.20151	3.98438
3529.27295	4.03379
3527.34438	4.08395
3525.41582	4.13168
3523.48726	4.17711
3521.55869	4.22648
3519.63013	4.27450
3517.70156	4.31809
3515.77300	4.36386
3513.84443	4.41471
3511.91587	4.46764
3509.98730	4.51929
3508.05874	4.56950
3506.13018	4.61785
3504.20161	4.66231
3502.27305	4.70666
3500.34448	4.75439
3498.41592	4.80034
3496.48735	4.84401
3494.55879	4.89131
3492.63022	4.94400
3490.70166	4.99609
3488.77310	5.04257
3486.84453	5.08745
3484.91597	5.13690
3482.98740	5.18908
3481.05884	5.23682
3479.13027	5.28069
3477.20171	5.33295
3475.27314	5.39585
3473.34458	5.45275
3471.41602	5.49026
3469.48745	5.52088
3467.55889	5.55796
3465.63032	5.60049
3463.70176	5.65413
3461.77319	5.71208
3459.84463	5.76052
3457.91606	5.80664
3455.98750	5.86223
3454.05894	5.92066
3452.13037	5.97360
3450.20181	6.02241
3448.27324	6.06746
3446.34468	6.11923
3444.41611	6.18809
3442.48755	6.26255
3440.55898	6.30868
3438.63042	6.33944
3436.70186	6.38250
3434.77329	6.41750
3432.84473	6.44686
3430.91616	6.49287
3428.98760	6.55845
3427.05903	6.62017
3425.13047	6.66440
3423.20190	6.69778
3421.27334	6.72551
3419.34478	6.75529
3417.41621	6.81212
3415.48765	6.89770
3413.55908	6.97465
3411.63052	7.02374
3409.70195	7.04568
3407.77339	7.07275
3405.84482	7.10682
3403.91626	7.14865
3401.98770	7.22307
3400.05913	7.28591
3398.13057	7.29445
3396.20200	7.29837
3394.27344	7.36050
3392.34487	7.45717
3390.41631	7.51815
3388.48774	7.52512
3386.55918	7.54907
3384.63062	7.60949
3382.70205	7.66588
3380.77349	7.69524
3378.84492	7.69211
3376.91636	7.69023
3374.98779	7.70044
3373.05923	7.73547
3371.13066	7.79019
3369.20210	7.84973
3367.27354	7.92074
3365.34497	7.96497
3363.41641	7.93174
3361.48784	7.90703
3359.55928	7.94431
3357.63071	7.93853
3355.70215	7.90716
3353.77358	7.94945
3351.84502	8.05581
3349.91646	8.10810
3347.98789	8.08401
3346.05933	8.08350
3344.13076	8.10450
3342.20220	8.09397
3340.27363	8.11034
3338.34507	8.19697
3336.41650	8.24024
3334.48794	8.24483
3332.55937	8.21370
3330.63081	8.11608
3328.70225	8.06996
3326.77368	8.07188
3324.84512	8.04345
3322.91655	8.04309
3320.98799	8.11063
3319.05942	8.15065
3317.13086	8.12431
3315.20229	8.08941
3313.27373	8.11603
3311.34517	8.16856
3309.41660	8.16920
3307.48804	8.15489
3305.55947	8.16389
3303.63091	8.18102
3301.70234	8.16088
3299.77378	8.14360
3297.84521	8.21122
3295.91665	8.33104
3293.98809	8.35155
3292.05952	8.27476
3290.13096	8.21894
3288.20239	8.19728
3286.27383	8.19711
3284.34526	8.24316
3282.41670	8.39624
3280.48813	8.57898
3278.55957	8.62447
3276.63101	8.54026
3274.70244	8.44374
3272.77388	8.39887
3270.84531	8.38574
3268.91675	8.32005
3266.98818	8.21067
3265.05962	8.18661
3263.13105	8.21910
3261.20249	8.22762
3259.27393	8.24642
3257.34536	8.32095
3255.41680	8.41608
3253.48823	8.44228
3251.55967	8.38307
3249.63110	8.28745
3247.70254	8.27020
3245.77397	8.38462
3243.84541	8.52141
3241.91685	8.48295
3239.98828	8.28147
3238.05972	8.15390
3236.13115	8.15500
3234.20259	8.17167
3232.27402	8.18330
3230.34546	8.22297
3228.41689	8.31106
3226.48833	8.43749
3224.55977	8.39940
3222.63120	8.18318
3220.70264	8.08823
3218.77407	8.10820
3216.84551	8.02572
3214.91694	7.91489
3212.98838	7.88320
3211.05981	7.87097
3209.13125	7.84406
3207.20269	7.79882
3205.27412	7.79522
3203.34556	7.88393
3201.41699	7.93039
3199.48843	7.84023
3197.55986	7.74958
3195.63130	7.70904
3193.70273	7.66379
3191.77417	7.60101
3189.84561	7.54008
3187.91704	7.51257
3185.98848	7.52697
3184.05991	7.55098
3182.13135	7.53984
3180.20278	7.48305
3178.27422	7.38802
3176.34565	7.27049
3174.41709	7.15764
3172.48853	7.07484
3170.55996	7.03744
3168.63140	7.00812
3166.70283	6.94988
3164.77427	6.88923
3162.84570	6.85348
3160.91714	6.82498
3158.98857	6.75727
3157.06001	6.65677
3155.13145	6.56883
3153.20288	6.48984
3151.27432	6.41537
3149.34575	6.35485
3147.41719	6.29898
3145.48862	6.24278
3143.56006	6.17765
3141.63149	6.09507
3139.70293	6.01441
3137.77437	5.94957
3135.84580	5.88792
3133.91724	5.82684
3131.98867	5.76336
3130.06011	5.69039
3128.13154	5.61595
3126.20298	5.54353
3124.27441	5.47231
3122.34585	5.40396
3120.41729	5.33767
3118.48872	5.27125
3116.56016	5.20773
3114.63159	5.14387
3112.70303	5.07239
3110.77446	5.00013
3108.84590	4.93279
3106.91733	4.86540
3104.98877	4.79178
3103.06021	4.71649
3101.13164	4.64858
3099.20308	4.58666
3097.27451	4.52607
3095.34595	4.46458
3093.41738	4.40022
3091.48882	4.33581
3089.56025	4.27370
3087.63169	4.21151
3085.70312	4.14912
3083.77456	4.08710
3081.84600	4.02664
3079.91743	3.96925
3077.98887	3.91171
3076.06030	3.85163
3074.13174	3.79248
3072.20317	3.73640
3070.27461	3.68079
3068.34604	3.62493
3066.41748	3.56871
3064.48892	3.51060
3062.56035	3.45248
3060.63179	3.39660
3058.70322	3.34204
3056.77466	3.28831
3054.84609	3.23556
3052.91753	3.18343
3050.98896	3.13219
3049.06040	3.08188
3047.13184	3.03246
3045.20327	2.98366
3043.27471	2.93469
3041.34614	2.88562
3039.41758	2.83733
3037.48901	2.79045
3035.56045	2.74474
3033.63188	2.69974
3031.70332	2.65497
3029.77476	2.60999
3027.84619	2.56512
3025.91763	2.52099
3023.98906	2.47767
3022.06050	2.43520
3020.13193	2.39399
3018.20337	2.35389
3016.27480	2.31405
3014.34624	2.27439
3012.41768	2.23584
3010.48911	2.19845
3008.56055	2.16123
3006.63198	2.12389
3004.70342	2.08712
3002.77485	2.05153
3000.84629	2.01713
2998.91772	1.98356
2996.98916	1.95038
2995.06060	1.91762
2993.13203	1.88593
2991.20347	1.85558
2989.27490	1.82606
2987.34634	1.79682
2985.41777	1.76774
2983.48921	1.73895
2981.56064	1.71083
2979.63208	1.68362
2977.70352	1.65720
2975.77495	1.63141
2973.84639	1.60593
2971.91782	1.58027
2969.98926	1.55446
2968.06069	1.52933
2966.13213	1.50525
2964.20356	1.48146
2962.27500	1.45700
2960.34644	1.43200
2958.41787	1.40756
2956.48931	1.38392
2954.56074	1.36031
2952.63218	1.33646
2950.70361	1.31318
2948.77505	1.29071
2946.84648	1.26822
2944.91792	1.24552
2942.98936	1.22343
2941.06079	1.20258
2939.13223	1.18239
2937.20366	1.16234
2935.27510	1.14252
2933.34653	1.12223
2931.41797	1.10100
2929.48940	1.07991
2927.56084	1.05998
2925.63228	1.04130
2923.70371	1.02359
2921.77515	1.00618
2919.84658	0.98858
2917.91802	0.97096
2915.98945	0.95376
2914.06089	0.93758
2912.13232	0.92232
2910.20376	0.90707
2908.27520	0.89138
2906.34663	0.87587
2904.41807	0.86112
2902.48950	0.84701
2900.56094	0.83358
2898.63237	0.82079
2896.70381	0.80787
2894.77524	0.79459
2892.84668	0.78167
2890.91812	0.76950
2888.98955	0.75783
2887.06099	0.74641
2885.13242	0.73536
2883.20386	0.72478
2881.27529	0.71464
2879.34673	0.70483
2877.41816	0.69485
2875.48960	0.68473
2873.56104	0.67485
2871.63247	0.66466
2869.70391	0.65355
2867.77534	0.64183
2865.84678	0.62984
2863.91821	0.61780
2861.98965	0.60604
2860.06108	0.59469
2858.13252	0.58371
2856.20396	0.57319
2854.27539	0.56330
2852.34683	0.55391
2850.41826	0.54495
2848.48970	0.53665
2846.56113	0.52880
2844.63257	0.52137
2842.70400	0.51467
2840.77544	0.50839
2838.84687	0.50205
2836.91831	0.49579
2834.98975	0.48988
2833.06118	0.48412
2831.13262	0.47808
2829.20405	0.47166
2827.27549	0.46535
2825.34692	0.45927
2823.41836	0.45304
2821.48979	0.44678
2819.56123	0.44082
2817.63267	0.43506
2815.70410	0.42928
2813.77554	0.42347
2811.84697	0.41773
2809.91841	0.41215
2807.98984	0.40667
2806.06128	0.40114
2804.13271	0.39570
2802.20415	0.39053
2800.27559	0.38569
2798.34702	0.38089
2796.41846	0.37586
2794.48989	0.37090
2792.56133	0.36611
2790.63276	0.36134
2788.70420	0.35668
2786.77563	0.35219
2784.84707	0.34769
2782.91851	0.34320
2780.98994	0.33895
2779.06138	0.33491
2777.13281	0.33091
2775.20425	0.32695
2773.27568	0.32303
2771.34712	0.31910
2769.41855	0.31525
2767.48999	0.31156
2765.56143	0.30792
2763.63286	0.30442
2761.70430	0.30113
2759.77573	0.29783
2757.84717	0.29440
2755.91860	0.29092
2753.99004	0.28764
2752.06147	0.28469
2750.13291	0.28176
2748.20435	0.27874
2746.27578	0.27585
2744.34722	0.27301
2742.41865	0.27006
2740.49009	0.26722
2738.56152	0.26459
2736.63296	0.26202
2734.70439	0.25946
2732.77583	0.25689
2730.84727	0.25441
2728.91870	0.25209
2726.99014	0.24979
2725.06157	0.24749
2723.13301	0.24524
2721.20444	0.24304
2719.27588	0.24093
2717.34731	0.23888
2715.41875	0.23679
2713.49019	0.23479
2711.56162	0.23294
2709.63306	0.23117
2707.70449	0.22935
2705.77593	0.22746
2703.84736	0.22567
2701.91880	0.22414
2699.99023	0.22269
2698.06167	0.22118
2696.13311	0.21973
2694.20454	0.21832
2692.27598	0.21692
2690.34741	0.21546
2688.41885	0.21396
2686.49028	0.21257
2684.56172	0.21135
2682.63315	0.21013
2680.70459	0.20890
2678.77603	0.20766
2676.84746	0.20643
2674.91890	0.20531
2672.99033	0.20417
2671.06177	0.20305
2669.13320	0.20203
2667.20464	0.20097
2665.27607	0.19986
2663.34751	0.19888
2661.41895	0.19797
2659.49038	0.19705
2657.56182	0.19628
2655.63325	0.19558
2653.70469	0.19472
2651.77612	0.19379
2649.84756	0.19310
2647.91899	0.19259
2645.99043	0.19200
2644.06187	0.19129
2642.13330	0.19053
2640.20474	0.18989
2638.27617	0.18941
2636.34761	0.18891
2634.41904	0.18835
2632.49048	0.18787
2630.56191	0.18741
2628.63335	0.18691
2626.70479	0.18646
2624.77622	0.18609
2622.84766	0.18568
2620.91909	0.18535
2618.99053	0.18522
2617.06196	0.18511
2615.13340	0.18488
2613.20483	0.18457
2611.27627	0.18424
2609.34771	0.18395
2607.41914	0.18372
2605.49058	0.18354
2603.56201	0.18335
2601.63345	0.18321
2599.70488	0.18318
2597.77632	0.18325
2595.84775	0.18323
2593.91919	0.18313
2591.99062	0.18319
2590.06206	0.18338
2588.13350	0.18342
2586.20493	0.18338
2584.27637	0.18352
2582.34780	0.18381
2580.41924	0.18408
2578.49067	0.18428
2576.56211	0.18441
2574.63354	0.18447
2572.70498	0.18464
2570.77642	0.18501
2568.84785	0.18539
2566.91929	0.18580
2564.99072	0.18632
2563.06216	0.18666
2561.13359	0.18679
2559.20503	0.18703
2557.27646	0.18756
2555.34790	0.18821
2553.41934	0.18877
2551.49077	0.18919
2549.56221	0.18961
2547.63364	0.19014
2545.70508	0.19080
2543.77651	0.19144
2541.84795	0.19186
2539.91938	0.19226
2537.99082	0.19284
2536.06226	0.19348
2534.13369	0.19410
2532.20513	0.19471
2530.27656	0.19532
2528.34800	0.19601
2526.41943	0.19672
2524.49087	0.19737
2522.56230	0.19804
2520.63374	0.19876
2518.70518	0.19955
2516.77661	0.20041
2514.84805	0.20119
2512.91948	0.20184
2510.99092	0.20248
2509.06235	0.20315
2507.13379	0.20385
2505.20522	0.20460
2503.27666	0.20537
2501.34810	0.20623
2499.41953	0.20722
2497.49097	0.20812
2495.56240	0.20882
2493.63384	0.20947
2491.70527	0.21014
2489.77671	0.21090
2487.84814	0.21181
2485.91958	0.21271
2483.99102	0.21354
2482.06245	0.21443
2480.13389	0.21542
2478.20532	0.21635
2476.27676	0.21710
2474.34819	0.21776
2472.41963	0.21848
2470.49106	0.21929
2468.56250	0.22024
2466.63394	0.22117
2464.70537	0.22200
2462.77681	0.22286
2460.84824	0.22373
2458.91968	0.22461
2456.99111	0.22555
2455.06255	0.22654
2453.13398	0.22753
2451.20542	0.22848
2449.27686	0.22940
2447.34829	0.23041
2445.41973	0.23141
2443.49116	0.23232
2441.56260	0.23327
2439.63403	0.23430
2437.70547	0.23526
2435.77690	0.23612
2433.84834	0.23706
2431.91978	0.23809
2429.99121	0.23909
2428.06265	0.24015
2426.13408	0.24128
2424.20552	0.24226
2422.27695	0.24319
2420.34839	0.24427
2418.41982	0.24540
2416.49126	0.24646
2414.56270	0.24753
2412.63413	0.24868
2410.70557	0.24983
2408.77700	0.25095
2406.84844	0.25213
2404.91987	0.25333
2402.99131	0.25445
2401.06274	0.25555
2399.13418	0.25670
2397.20562	0.25789
2395.27705	0.25917
2393.34849	0.26042
2391.41992	0.26155
2389.49136	0.26278
2387.56279	0.26420
2385.63423	0.26571
2383.70566	0.26746
2381.77710	0.26951
2379.84854	0.27171
2377.91997	0.27401
2375.99141	0.27646
2374.06284	0.27910
2372.13428	0.28195
2370.20571	0.28516
2368.27715	0.28852
2366.34858	0.29120
2364.42002	0.29308
2362.49146	0.29567
2360.56289	0.29870
2358.63433	0.30084
2356.70576	0.30220
2354.77720	0.30270
2352.84863	0.30249
2350.92007	0.30156
2348.99150	0.30082
2347.06294	0.30137
2345.13437	0.30380
2343.20581	0.30758
2341.27725	0.31041
2339.34868	0.31170
2337.42012	0.31259
2335.49155	0.31364
2333.56299	0.31489
2331.63442	0.31641
2329.70586	0.31823
2327.77729	0.32001
2325.84873	0.32147
2323.92017	0.32282
2321.99160	0.32393
2320.06304	0.32464
2318.13447	0.32515
2316.20591	0.32569
2314.27734	0.32665
2312.34878	0.32790
2310.42021	0.32915
2308.49165	0.33047
2306.56309	0.33192
2304.63452	0.33338
2302.70596	0.33475
2300.77739	0.33610
2298.84883	0.33760
2296.92026	0.33921
2294.99170	0.34067
2293.06313	0.34212
2291.13457	0.34385
2289.20601	0.34579
2287.27744	0.34767
2285.34888	0.34935
2283.42031	0.35099
2281.49175	0.35282
2279.56318	0.35491
2277.63462	0.35717
2275.70605	0.35935
2273.77749	0.36127
2271.84893	0.36317
2269.92036	0.36529
2267.99180	0.36751
2266.06323	0.36966
2264.13467	0.37175
2262.20610	0.37386
2260.27754	0.37600
2258.34897	0.37812
2256.42041	0.38015
2254.49185	0.38211
2252.56328	0.38411
2250.63472	0.38629
2248.70615	0.38861
2246.77759	0.39078
2244.84902	0.39275
2242.92046	0.39479
2240.99189	0.39706
2239.06333	0.39944
2237.13477	0.40175
2235.20620	0.40388
2233.27764	0.40599
2231.34907	0.40820
2229.42051	0.41047
2227.49194	0.41262
2225.56338	0.41472
2223.63481	0.41691
2221.70625	0.41919
2219.77769	0.42141
2217.84912	0.42351
2215.92056	0.42556
2213.99199	0.42763
2212.06343	0.42976
2210.13486	0.43194
2208.20630	0.43413
2206.27773	0.43628
2204.34917	0.43843
2202.42061	0.44065
2200.49204	0.44276
2198.56348	0.44464
2196.63491	0.44643
2194.70635	0.44830
2192.77778	0.45022
2190.84922	0.45211
2188.92065	0.45393
2186.99209	0.45574
2185.06353	0.45757
2183.13496	0.45934
2181.20640	0.46105
2179.27783	0.46266
2177.34927	0.46420
2175.42070	0.46581
2173.49214	0.46741
2171.56357	0.46889
2169.63501	0.47021
2167.70645	0.47132
2165.77788	0.47245
2163.84932	0.47373
2161.92075	0.47492
2159.99219	0.47594
2158.06362	0.47690
2156.13506	0.47779
2154.20649	0.47856
2152.27793	0.47925
2150.34937	0.47996
2148.42080	0.48075
2146.49224	0.48146
2144.56367	0.48184
2142.63511	0.48200
2140.70654	0.48219
2138.77798	0.48244
2136.84941	0.48257
2134.92085	0.48253
2132.99229	0.48246
2131.06372	0.48246
2129.13516	0.48241
2127.20659	0.48213
2125.27803	0.48165
2123.34946	0.48115
2121.42090	0.48069
2119.49233	0.48003
2117.56377	0.47913
2115.63521	0.47828
2113.70664	0.47755
2111.77808	0.47674
2109.84951	0.47573
2107.92095	0.47462
2105.99238	0.47349
2104.06382	0.47228
2102.13525	0.47092
2100.20669	0.46948
2098.27812	0.46796
2096.34956	0.46636
2094.42100	0.46471
2092.49243	0.46307
2090.56387	0.46147
2088.63530	0.45969
2086.70674	0.45775
2084.77817	0.45588
2082.84961	0.45409
2080.92104	0.45216
2078.99248	0.45004
2077.06392	0.44781
2075.13535	0.44551
2073.20679	0.44319
2071.27822	0.44082
2069.34966	0.43845
2067.42109	0.43616
2065.49253	0.43387
2063.56396	0.43153
2061.63540	0.42917
2059.70684	0.42674
2057.77827	0.42414
2055.84971	0.42134
2053.92114	0.41857
2051.99258	0.41604
2050.06401	0.41351
2048.13545	0.41077
2046.20688	0.40793
2044.27832	0.40522
2042.34976	0.40254
2040.42119	0.39973
2038.49263	0.39686
2036.56406	0.39405
2034.63550	0.39130
2032.70693	0.38846
2030.77837	0.38556
2028.84980	0.38266
2026.92124	0.37982
2024.99268	0.37700
2023.06411	0.37420
2021.13555	0.37147
2019.20698	0.36883
2017.27842	0.36612
2015.34985	0.36315
2013.42129	0.36005
2011.49272	0.35706
2009.56416	0.35427
2007.63560	0.35160
2005.70703	0.34893
2003.77847	0.34627
2001.84990	0.34369
1999.92134	0.34111
1997.99277	0.33848
1996.06421	0.33584
1994.13564	0.33335
1992.20708	0.33096
1990.27852	0.32836
1988.34995	0.32568
1986.42139	0.32310
1984.49282	0.32056
1982.56426	0.31806
1980.63569	0.31565
1978.70713	0.31340
1976.77856	0.31117
1974.85000	0.30888
1972.92144	0.30661
1970.99287	0.30445
1969.06431	0.30252
1967.13574	0.30068
1965.20718	0.29854
1963.27861	0.29630
1961.35005	0.29438
1959.42148	0.29258
1957.49292	0.29066
1955.56436	0.28879
1953.63579	0.28703
1951.70723	0.28522
1949.77866	0.28341
1947.85010	0.28176
1945.92153	0.28037
1943.99297	0.27916
1942.06440	0.27779
1940.13584	0.27601
1938.20728	0.27420
1936.27871	0.27271
1934.35015	0.27139
1932.42158	0.27010
1930.49302	0.26882
1928.56445	0.26763
1926.63589	0.26654
1924.70732	0.26573
1922.77876	0.26512
1920.85020	0.26428
1918.92163	0.26329
1916.99307	0.26220
1915.06450	0.26094
1913.13594	0.25987
1911.20737	0.25921
1909.27881	0.25867
1907.35024	0.25796
1905.42168	0.25713
1903.49312	0.25643
1901.56455	0.25586
1899.63599	0.25530
1897.70742	0.25485
1895.77886	0.25454
1893.85029	0.25418
1891.92173	0.25384
1889.99316	0.25382
1888.06460	0.25366
1886.13604	0.25318
1884.20747	0.25277
1882.27891	0.25243
1880.35034	0.25217
1878.42178	0.25208
1876.49321	0.25203
1874.56465	0.25196
1872.63608	0.25215
1870.70752	0.25286
1868.77896	0.25396
1866.85039	0.25422
1864.92183	0.25354
1862.99326	0.25307
1861.06470	0.25315
1859.13613	0.25354
1857.20757	0.25390
1855.27900	0.25431
1853.35044	0.25480
1851.42187	0.25529
1849.49331	0.25590
1847.56475	0.25683
1845.63618	0.25808
1843.70762	0.25925
1841.77905	0.25961
1839.85049	0.25963
1837.92192	0.26032
1835.99336	0.26131
1834.06479	0.26218
1832.13623	0.26327
1830.20767	0.26504
1828.27910	0.26664
1826.35054	0.26751
1824.42197	0.26855
1822.49341	0.26953
1820.56484	0.27050
1818.63628	0.27182
1816.70771	0.27347
1814.77915	0.27515
1812.85059	0.27707
1810.92202	0.27936
1808.99346	0.28138
1807.06489	0.28299
1805.13633	0.28469
1803.20776	0.28702
1801.27920	0.28984
1799.35063	0.29273
1797.42207	0.29515
1795.49351	0.29759
1793.56494	0.30076
1791.63638	0.30467
1789.70781	0.30769
1787.77925	0.30976
1785.85068	0.31273
1783.92212	0.31650
1781.99355	0.32052
1780.06499	0.32476
1778.13643	0.32901
1776.20786	0.33313
1774.27930	0.33789
1772.35073	0.34428
1770.42217	0.35050
1768.49360	0.35515
1766.56504	0.35972
1764.63647	0.36477
1762.70791	0.37073
1760.77935	0.37828
1758.85078	0.38521
1756.92222	0.39212
1754.99365	0.39965
1753.06509	0.40669
1751.13652	0.41544
1749.20796	0.42650
1747.27939	0.43696
1745.35083	0.44583
1743.42227	0.45512
1741.49370	0.46536
1739.56514	0.47757
1737.63657	0.48998
1735.70801	0.50115
1733.77944	0.51809
1731.85088	0.53762
1729.92231	0.55239
1727.99375	0.56740
1726.06519	0.58391
1724.13662	0.60244
1722.20806	0.62258
1720.27949	0.64126
1718.35093	0.66353
1716.42236	0.69619
1714.49380	0.72636
1712.56523	0.75034
1710.63667	0.77389
1708.70811	0.79976
1706.77954	0.82963
1704.85098	0.86525
1702.92241	0.89676
1700.99385	0.92796
1699.06528	0.97513
1697.13672	1.01888
1695.20815	1.06332
1693.27959	1.10684
1691.35103	1.14231
1689.42246	1.18348
1687.49390	1.22716
1685.56533	1.26978
1683.63677	1.33577
1681.70820	1.40382
1679.77964	1.44662
1677.85107	1.48795
1675.92251	1.53640
1673.99395	1.59631
1672.06538	1.64896
1670.13682	1.69993
1668.20825	1.76736
1666.27969	1.82344
1664.35112	1.87200
1662.42256	1.93382
1660.49399	2.00502
1658.56543	2.06106
1656.63687	2.10660
1654.70830	2.14767
1652.77974	2.20642
1650.85117	2.26082
1648.92261	2.28055
1646.99404	2.30587
1645.06548	2.33055
1643.13691	2.34567
1641.20835	2.35287
1639.27979	2.35953
1637.35122	2.36276
1635.42266	2.36104
1633.49409	2.35305
1631.56553	2.33761
1629.63696	2.31887
1627.70840	2.28859
1625.77983	2.25312
1623.85127	2.20782
1621.92271	2.15389
1619.99414	2.10747
1618.06558	2.06276
1616.13701	1.99838
1614.20845	1.93193
1612.27988	1.88145
1610.35132	1.82992
1608.42275	1.77439
1606.49419	1.71904
1604.56562	1.66834
1602.63706	1.61965
1600.70850	1.57174
1598.77993	1.52776
1596.85137	1.48695
1594.92280	1.44738
1592.99424	1.40892
1591.06567	1.37377
1589.13711	1.34128
1587.20854	1.31149
1585.27998	1.28411
1583.35142	1.25853
1581.42285	1.23542
1579.49429	1.21636
1577.56572	1.20018
1575.63716	1.18109
1573.70859	1.16420
1571.78003	1.15347
1569.85146	1.14307
1567.92290	1.13195
1565.99434	1.12428
1564.06577	1.11949
1562.13721	1.11666
1560.20864	1.11713
1558.28008	1.12268
1556.35151	1.12667
1554.42295	1.12754
1552.49438	1.12871
1550.56582	1.12885
1548.63726	1.12669
1546.70869	1.12211
1544.78013	1.11437
1542.85156	1.10285
1540.92300	1.08453
1538.99443	1.05345
1537.06587	1.03021
1535.13730	1.01526
1533.20874	0.99559
1531.28018	0.97423
1529.35161	0.95882
1527.42305	0.94465
1525.49448	0.92978
1523.56592	0.91702
1521.63735	0.90507
1519.70879	0.89269
1517.78022	0.88220
1515.85166	0.87028
1513.92310	0.85747
1511.99453	0.84618
1510.06597	0.83641
1508.13740	0.82731
1506.20884	0.81166
1504.28027	0.79671
1502.35171	0.78864
1500.42314	0.78236
1498.49458	0.77594
1496.56602	0.76785
1494.63745	0.75910
1492.70889	0.75247
1490.78032	0.74722
1488.85176	0.74135
1486.92319	0.73539
1484.99463	0.73048
1483.06606	0.72690
1481.13750	0.72438
1479.20894	0.72253
1477.28037	0.72160
1475.35181	0.72178
1473.42324	0.72264
1471.49468	0.72204
1469.56611	0.71942
1467.63755	0.71689
1465.70898	0.71518
1463.78042	0.71372
1461.85186	0.71267
1459.92329	0.71286
1457.99473	0.71435
1456.06616	0.71456
1454.13760	0.71145
1452.20903	0.70804
1450.28047	0.70514
1448.35190	0.70250
1446.42334	0.69954
1444.49478	0.69650
1442.56621	0.69360
1440.63765	0.69069
1438.70908	0.68791
1436.78052	0.68471
1434.85195	0.68082
1432.92339	0.67751
1430.99482	0.67535
1429.06626	0.67425
1427.13770	0.67388
1425.20913	0.67426
1423.28057	0.67521
1421.35200	0.67597
1419.42344	0.67671
1417.49487	0.67694
1415.56631	0.67580
1413.63774	0.67456
1411.70918	0.67419
1409.78062	0.67487
1407.85205	0.67632
1405.92349	0.67833
1403.99492	0.68016
1402.06636	0.68071
1400.13779	0.68023
1398.20923	0.67895
1396.28066	0.67655
1394.35210	0.67255
1392.42354	0.66762
1390.49497	0.66316
1388.56641	0.65901
1386.63784	0.65408
1384.70928	0.64851
1382.78071	0.64336
1380.85215	0.63883
1378.92358	0.63488
1376.99502	0.63181
1375.06646	0.62981
1373.13789	0.62832
1371.20933	0.62706
1369.28076	0.62611
1367.35220	0.62484
1365.42363	0.62326
1363.49507	0.62199
1361.56650	0.62067
1359.63794	0.61878
1357.70937	0.61699
1355.78081	0.61563
1353.85225	0.61451
1351.92368	0.61360
1349.99512	0.61294
1348.06655	0.61224
1346.13799	0.61144
1344.20942	0.61070
1342.28086	0.61003
1340.35229	0.60957
1338.42373	0.60902
1336.49517	0.60814
1334.56660	0.60740
1332.63804	0.60709
1330.70947	0.60708
1328.78091	0.60734
1326.85234	0.60801
1324.92378	0.60899
1322.99521	0.60989
1321.06665	0.61055
1319.13809	0.61116
1317.20952	0.61172
1315.28096	0.61195
1313.35239	0.61170
1311.42383	0.61106
1309.49526	0.61038
1307.56670	0.60980
1305.63813	0.60917
1303.70957	0.60851
1301.78101	0.60782
1299.85244	0.60695
1297.92388	0.60585
1295.99531	0.60448
1294.06675	0.60295
1292.13818	0.60153
1290.20962	0.60027
1288.28105	0.59903
1286.35249	0.59770
1284.42393	0.59631
1282.49536	0.59479
1280.56680	0.59316
1278.63823	0.59160
1276.70967	0.59027
1274.78110	0.58920
1272.85254	0.58832
1270.92397	0.58752
1268.99541	0.58673
1267.06685	0.58591
1265.13828	0.58505
1263.20972	0.58418
1261.28115	0.58339
1259.35259	0.58273
1257.42402	0.58212
1255.49546	0.58160
1253.56689	0.58135
1251.63833	0.58145
1249.70977	0.58153
1247.78120	0.58133
1245.85264	0.58105
1243.92407	0.58061
1241.99551	0.57974
1240.06694	0.57851
1238.13838	0.57700
1236.20981	0.57499
1234.28125	0.57260
1232.35269	0.57019
1230.42412	0.56789
1228.49556	0.56572
1226.56699	0.56362
1224.63843	0.56155
1222.70986	0.55961
1220.78130	0.55784
1218.85273	0.55623
1216.92417	0.55475
1214.99561	0.55339
1213.06704	0.55227
1211.13848	0.55141
1209.20991	0.55063
1207.28135	0.54983
1205.35278	0.54896
1203.42422	0.54802
1201.49565	0.54716
1199.56709	0.54640
1197.63853	0.54555
1195.70996	0.54449
1193.78140	0.54349
1191.85283	0.54277
1189.92427	0.54228
1187.99570	0.54199
1186.06714	0.54180
1184.13857	0.54163
1182.21001	0.54190
1180.28145	0.54285
1178.35288	0.54429
1176.42432	0.54589
1174.49575	0.54729
1172.56719	0.54813
1170.63862	0.54841
1168.71006	0.54852
1166.78149	0.54867
1164.85293	0.54876
1162.92437	0.54867
1160.99580	0.54848
1159.06724	0.54819
1157.13867	0.54771
1155.21011	0.54690
1153.28154	0.54557
1151.35298	0.54364
1149.42441	0.54122
1147.49585	0.53855
1145.56729	0.53593
1143.63872	0.53341
1141.71016	0.53096
1139.78159	0.52878
1137.85303	0.52687
1135.92446	0.52530
1133.99590	0.52450
1132.06733	0.52431
1130.13877	0.52412
1128.21021	0.52380
1126.28164	0.52348
1124.35308	0.52303
1122.42451	0.52240
1120.49595	0.52187
1118.56738	0.52163
1116.63882	0.52175
1114.71025	0.52218
1112.78169	0.52259
1110.85312	0.52300
1108.92456	0.52374
1106.99600	0.52474
1105.06743	0.52583
1103.13887	0.52722
1101.21030	0.52881
1099.28174	0.53037
1097.35317	0.53226
1095.42461	0.53488
1093.49604	0.53837
1091.56748	0.54277
1089.63892	0.54794
1087.71035	0.55390
1085.78179	0.56079
1083.85322	0.56828
1081.92466	0.57523
1079.99609	0.58028
1078.06753	0.58295
1076.13896	0.58323
1074.21040	0.58101
1072.28184	0.57660
1070.35327	0.57069
1068.42471	0.56410
1066.49614	0.55754
1064.56758	0.55127
1062.63901	0.54538
1060.71045	0.54020
1058.78188	0.53590
1056.85332	0.53215
1054.92476	0.52859
1052.99619	0.52531
1051.06763	0.52259
1049.13906	0.52030
1047.21050	0.51823
1045.28193	0.51662
1043.35337	0.51565
1041.42480	0.51480
1039.49624	0.51373
1037.56768	0.51293
1035.63911	0.51263
1033.71055	0.51240
1031.78198	0.51186
1029.85342	0.51111
1027.92485	0.51037
1025.99629	0.50976
1024.06772	0.50930
1022.13916	0.50903
1020.21060	0.50896
1018.28203	0.50902
1016.35347	0.50923
1014.42490	0.50968
1012.49634	0.51024
1010.56777	0.51054
1008.63921	0.51080
1006.71064	0.51173
1004.78208	0.51347
1002.85352	0.51571
1000.92495	0.51828
998.99639	0.52135
997.06782	0.52515
995.13926	0.52937
993.21069	0.53339
991.28213	0.53676
989.35356	0.53903
987.42500	0.54008
985.49644	0.54048
983.56787	0.54090
981.63931	0.54151
979.71074	0.54242
977.78218	0.54370
975.85361	0.54537
973.92505	0.54760
971.99648	0.55046
970.06792	0.55384
968.13936	0.55768
966.21079	0.56187
964.28223	0.56619
962.35366	0.57070
960.42510	0.57574
958.49653	0.58122
956.56797	0.58679
954.63940	0.59247
952.71084	0.59837
950.78228	0.60451
948.85371	0.61089
946.92515	0.61737
944.99658	0.62375
943.06802	0.63001
941.13945	0.63606
939.21089	0.64154
937.28232	0.64677
935.35376	0.65256
933.42520	0.65852
931.49663	0.66388
929.56807	0.66947
927.63950	0.67598
925.71094	0.68256
923.78237	0.68856
921.85381	0.69422
919.92524	0.70042
917.99668	0.70794
916.06812	0.71634
914.13955	0.72464
912.21099	0.73247
910.28242	0.74036
908.35386	0.74902
906.42529	0.75815
904.49673	0.76705
902.56816	0.77576
900.63960	0.78478
898.71104	0.79364
896.78247	0.80216
894.85391	0.81147
892.92534	0.82159
890.99678	0.83199
889.06821	0.84297
887.13965	0.85456
885.21108	0.86671
883.28252	0.87854
881.35396	0.88976
879.42539	0.90155
877.49683	0.91259
875.56826	0.92229
873.63970	0.93302
871.71113	0.94547
869.78257	0.95868
867.85400	0.97146
865.92544	0.98290
863.99687	0.99276
862.06831	1.00236
860.13975	1.01420
858.21118	1.02847
856.28262	1.04180
854.35405	1.05238
852.42549	1.06253
850.49692	1.07418
848.56836	1.08812
846.63979	1.10191
844.71123	1.11151
842.78267	1.12002
840.85410	1.13241
838.92554	1.14579
836.99697	1.15573
835.06841	1.16590
833.13984	1.18008
831.21128	1.19430
829.28271	1.20460
827.35415	1.21216
825.42559	1.22034
823.49702	1.23094
821.56846	1.24440
819.63989	1.25697
817.71133	1.26198
815.78276	1.26634
813.85420	1.27922
811.92563	1.29063
809.99707	1.29828
808.06851	1.31668
806.13994	1.33589
804.21138	1.33901
802.28281	1.34138
800.35425	1.35974
798.42568	1.38283
796.49712	1.38209
794.56855	1.36977
792.63999	1.37026
790.71143	1.38444
788.78286	1.41741
786.85430	1.45006
784.92573	1.47045
782.99717	1.50199
781.06860	1.51621
779.14004	1.49503
777.21147	1.47656
775.28291	1.48669
773.35435	1.61250
771.42578	2.08932
769.49722	2.68889
767.56865	1.67313
765.64009	1.42945
763.71152	1.41998
761.78296	1.46386
759.85439	1.40508
757.92583	1.29147
755.99727	1.23568
754.06870	1.27569
752.14014	1.38450
750.21157	1.56503
748.28301	1.46971
746.35444	1.28891
744.42588	1.61040
742.49731	4.45498
740.56875	4.44341
738.64019	4.43184
736.71162	1.47245
734.78306	1.04621
732.85449	0.90807
730.92593	0.73857
728.99736	0.64981
727.06880	0.64110
725.14023	0.63947
723.21167	0.82556
721.28311	0.82627
719.35454	0.36921
717.42598	0.30328
715.49741	4.29298
713.56885	0.51393
711.64028	-0.00361
709.71172	0.28657
707.78315	1.01887
705.85459	0.29242
703.92603	0.00826
701.99746	0.01829
700.06890	0.11785
698.14033	0.15462
696.21177	0.22613
694.28320	0.44301
692.35464	0.85435
690.42607	0.84347
688.49751	0.58714
686.56895	0.39369
684.64038	0.32942
682.71182	0.39057
680.78325	0.48208
678.85469	0.71422
676.92612	4.06156
674.99756	1.27370
673.06899	0.69980
671.14043	0.48025
669.21187	0.36882
667.28330	0.33570
665.35474	0.33590
663.42617	0.34393
661.49761	0.37599
659.56904	0.42732
657.64048	0.48999
655.71191	0.58761
653.78335	0.56549
651.85479	0.39889
649.92622	0.26563
647.99766	0.21571
646.06909	0.22187
644.14053	0.22460
642.21196	0.25110
640.28340	0.33057
638.35483	0.37256
636.42627	0.29574
634.49771	0.24102
632.56914	0.26898
630.64058	0.31674
628.71201	0.39093
626.78345	0.60142
624.85488	1.68920
622.92632	1.63713
620.99775	0.50181
619.06919	0.28284
617.14062	0.28732
615.21206	0.41003
613.28350	0.53228
611.35493	0.56155
609.42637	0.53986
607.49780	0.58730
605.56924	0.71670
603.64067	0.71365
601.71211	0.56632
599.78354	0.45066
597.85498	0.35570
595.92642	0.32649
593.99785	0.36959
592.06929	0.32423
590.14072	0.26356
588.21216	0.36091
586.28359	0.83454
584.35503	3.50613
582.42646	0.64280
580.49790	0.48338
578.56934	0.42557
576.64077	0.48745
574.71221	0.57360
572.78364	0.34856
570.85508	0.21347
568.92651	0.23534
566.99795	0.34968
565.06938	0.46213
563.14082	0.60763
561.21226	0.70271
559.28369	0.60820
557.35513	0.55792
555.42656	0.52603
553.49800	0.41873
551.56943	0.37106
549.64087	0.48303
547.71230	0.66390
545.78374	0.49918
543.85518	0.43777
541.92661	0.44261
539.99805	0.37004
538.06948	0.29553
536.14092	0.29943
534.21235	0.39226
532.28379	0.64641
530.35522	0.97755
528.42666	0.52356
526.49810	0.41459
524.56953	0.41527
522.64097	0.39100
520.71240	0.34322
518.78384	0.28607
516.85527	0.25354
514.92671	0.26390
512.99814	0.29276
511.06958	0.29622
509.14102	0.29519
507.21245	0.29645
505.28389	0.27139
503.35532	0.24179
501.42676	0.24915
499.49819	0.28895
