3997.91411	0.08803
3995.98555	0.08822
3994.05698	0.08890
3992.12842	0.08950
3990.19985	0.08988
3988.27129	0.09024
3986.34272	0.09056
3984.41416	0.09082
3982.48560	0.09105
3980.55703	0.09160
3978.62847	0.09246
3976.69990	0.09281
3974.77134	0.09232
3972.84277	0.09183
3970.91421	0.09183
3968.98564	0.09205
3967.05708	0.09219
3965.12852	0.09223
3963.19995	0.09250
3961.27139	0.09299
3959.34282	0.09323
3957.41426	0.09309
3955.48569	0.09281
3953.55713	0.09261
3951.62856	0.09272
3949.70000	0.09324
3947.77144	0.09357
3945.84287	0.09314
3943.91431	0.09266
3941.98574	0.09285
3940.05718	0.09309
3938.12861	0.09288
3936.20005	0.09259
3934.27148	0.09251
3932.34292	0.09258
3930.41436	0.09276
3928.48579	0.09290
3926.55723	0.09265
3924.62866	0.09225
3922.70010	0.09218
3920.77153	0.09208
3918.84297	0.09165
3916.91440	0.09137
3914.98584	0.09144
3913.05728	0.09144
3911.12871	0.09137
3909.20015	0.09129
3907.27158	0.09102
3905.34302	0.09086
3903.41445	0.09123
3901.48589	0.09179
3899.55732	0.09216
3897.62876	0.09234
3895.70020	0.09204
3893.77163	0.09129
3891.84307	0.09090
3889.91450	0.09123
3887.98594	0.09122
3886.05737	0.09106
3884.12881	0.09115
3882.20024	0.09086
3880.27168	0.09079
3878.34312	0.09142
3876.41455	0.09173
3874.48599	0.09175
3872.55742	0.09197
3870.62886	0.09244
3868.70029	0.09321
3866.77173	0.09336
3864.84316	0.09298
3862.91460	0.09326
3860.98604	0.09402
3859.05747	0.09454
3857.12891	0.09463
3855.20034	0.09451
3853.27178	0.09523
3851.34321	0.09693
3849.41465	0.09702
3847.48608	0.09631
3845.55752	0.09591
3843.62896	0.09592
3841.70039	0.09640
3839.77183	0.09748
3837.84326	0.09913
3835.91470	0.10051
3833.98613	0.10088
3832.05757	0.10095
3830.12900	0.10131
3828.20044	0.10172
3826.27187	0.10234
3824.34331	0.10337
3822.41475	0.10457
3820.48618	0.10621
3818.55762	0.10740
3816.62905	0.10817
3814.70049	0.10935
3812.77192	0.10984
3810.84336	0.10994
3808.91479	0.11048
3806.98623	0.11133
3805.05767	0.11208
3803.12910	0.11273
3801.20054	0.11453
3799.27197	0.11716
3797.34341	0.11847
3795.41484	0.11929
3793.48628	0.12006
3791.55771	0.12092
3789.62915	0.12230
3787.70059	0.12360
3785.77202	0.12467
3783.84346	0.12615
3781.91489	0.12782
3779.98633	0.12959
3778.05776	0.13183
3776.12920	0.13353
3774.20063	0.13453
3772.27207	0.13578
3770.34351	0.13762
3768.41494	0.13976
3766.48638	0.14166
3764.55781	0.14361
3762.62925	0.14536
3760.70068	0.14680
3758.77212	0.14876
3756.84355	0.15107
3754.91499	0.15276
3752.98643	0.15429
3751.05786	0.15727
3749.12930	0.16204
3747.20073	0.16521
3745.27217	0.16747
3743.34360	0.17193
3741.41504	0.17606
3739.48647	0.17794
3737.55791	0.18004
3735.62935	0.18420
3733.70078	0.19023
3731.77222	0.19550
3729.84365	0.19950
3727.91509	0.20322
3725.98652	0.20821
3724.05796	0.21488
3722.12939	0.22199
3720.20083	0.22960
3718.27227	0.23752
3716.34370	0.24514
3714.41514	0.25226
3712.48657	0.26041
3710.55801	0.27250
3708.62944	0.28687
3706.70088	0.29934
3704.77231	0.31084
3702.84375	0.32389
3700.91519	0.34105
3698.98662	0.35988
3697.05806	0.37716
3695.12949	0.39531
3693.20093	0.41488
3691.27236	0.43605
3689.34380	0.46348
3687.41523	0.49807
3685.48667	0.52896
3683.55811	0.55541
3681.62954	0.58345
3679.70098	0.61482
3677.77241	0.64757
3675.84385	0.68672
3673.91528	0.74072
3671.98672	0.78491
3670.05815	0.82345
3668.12959	0.87690
3666.20103	0.92612
3664.27246	0.96674
3662.34390	1.01012
3660.41533	1.05715
3658.48677	1.10338
3656.55820	1.15252
3654.62964	1.20734
3652.70107	1.25293
3650.77251	1.29172
3648.84395	1.34584
3646.91538	1.41498
3644.98682	1.46724
3643.05825	1.50686
3641.12969	1.54649
3639.20112	1.59035
3637.27256	1.63510
3635.34399	1.67833
3633.41543	1.72086
3631.48687	1.76066
3629.55830	1.80086
3627.62974	1.85406
3625.70117	1.90549
3623.77261	1.94083
3621.84404	1.97446
3619.91548	2.01327
3617.98691	2.05944
3616.05835	2.10303
3614.12979	2.14051
3612.20122	2.18115
3610.27266	2.22099
3608.34409	2.25954
3606.41553	2.30158
3604.48696	2.34168
3602.55840	2.37751
3600.62983	2.41680
3598.70127	2.45963
3596.77271	2.50021
3594.84414	2.54129
3592.91558	2.58532
3590.98701	2.62609
3589.05845	2.66103
3587.12988	2.70178
3585.20132	2.74909
3583.27275	2.79065
3581.34419	2.82990
3579.41562	2.87268
3577.48706	2.91646
3575.55850	2.95746
3573.62993	2.99894
3571.70137	3.04221
3569.77280	3.08466
3567.84424	3.12900
3565.91567	3.18267
3563.98711	3.23318
3562.05854	3.27371
3560.12998	3.31543
3558.20142	3.36076
3556.27285	3.40702
3554.34429	3.45223
3552.41572	3.49857
3550.48716	3.54636
3548.55859	3.59432
3546.63003	3.64213
3544.70146	3.69001
3542.77290	3.73821
3540.84434	3.78515
3538.91577	3.82852
3536.98721	3.87181
3535.05864	3.92179
3533.13008	3.97326
3531.20151	4.02111
3529.27295	4.06651
3527.34438	4.11311
3525.41582	4.16400
3523.48726	4.21570
3521.55869	4.26696
3519.63013	4.31879
3517.70156	4.36923
3515.77300	4.41650
3513.84443	4.46310
3511.91587	4.51062
3509.98730	4.55970
3508.05874	4.61167
3506.13018	4.66320
3504.20161	4.70907
3502.27305	4.75361
3500.34448	4.80196
3498.41592	4.84807
3496.48735	4.89173
3494.55879	4.93800
3492.63022	4.98729
3490.70166	5.03997
3488.77310	5.09403
3486.84453	5.14325
3484.91597	5.18964
3482.98740	5.23718
3481.05884	5.28117
3479.13027	5.32415
3477.20171	5.37683
3475.27314	5.43576
3473.34458	5.49026
3471.41602	5.53424
3469.48745	5.57349
3467.55889	5.62600
3465.63032	5.68948
3463.70176	5.74604
3461.77319	5.78946
3459.84463	5.83360
3457.91606	5.89196
3455.98750	5.95230
3454.05894	6.00097
3452.13037	6.04780
3450.20181	6.10503
3448.27324	6.16498
3446.34468	6.21458
3444.41611	6.25429
3442.48755	6.29593
3440.55898	6.33727
3438.63042	6.38550
3436.70186	6.44361
3434.77329	6.49018
3432.84473	6.53141
3430.91616	6.58483
3428.98760	6.63942
3427.05903	6.69620
3425.13047	6.78011
3423.20190	6.84131
3421.27334	6.84566
3419.34478	6.86271
3417.41621	6.91517
3415.48765	6.97308
3413.55908	7.03665
3411.63052	7.10916
3409.70195	7.16887
3407.77339	7.21094
3405.84482	7.23802
3403.91626	7.26077
3401.98770	7.27918
3400.05913	7.30267
3398.13057	7.35491
3396.20200	7.43615
3394.27344	7.52154
3392.34487	7.56070
3390.41631	7.58382
3388.48774	7.63414
3386.55918	7.68692
3384.63062	7.70379
3382.70205	7.70470
3380.77349	7.71785
3378.84492	7.73860
3376.91636	7.78545
3374.98779	7.85990
3373.05923	7.96236
3371.13066	8.04048
3369.20210	8.03570
3367.27354	7.98554
3365.34497	7.98601
3363.41641	8.03277
3361.48784	8.06268
3359.55928	8.13200
3357.63071	8.21668
3355.70215	8.18631
3353.77358	8.10763
3351.84502	8.16466
3349.91646	8.27566
3347.98789	8.25321
3346.05933	8.14068
3344.13076	8.09404
3342.20220	8.18791
3340.27363	8.30863
3338.34507	8.33404
3336.41650	8.25745
3334.48794	8.17305
3332.55937	8.17142
3330.63081	8.26790
3328.70225	8.39495
3326.77368	8.41312
3324.84512	8.35098
3322.91655	8.38244
3320.98799	8.47464
3319.05942	8.38766
3317.13086	8.21364
3315.20229	8.19433
3313.27373	8.34759
3311.34517	8.53196
3309.41660	8.64328
3307.48804	8.65533
3305.55947	8.55884
3303.63091	8.47927
3301.70234	8.43097
3299.77378	8.37907
3297.84521	8.41994
3295.91665	8.54144
3293.98809	8.57250
3292.05952	8.58304
3290.13096	8.69907
3288.20239	8.81042
3286.27383	8.79898
3284.34526	8.70489
3282.41670	8.69071
3280.48813	8.66282
3278.55957	8.45804
3276.63101	8.30105
3274.70244	8.32576
3272.77388	8.37759
3270.84531	8.40538
3268.91675	8.49635
3266.98818	8.56354
3265.05962	8.57427
3263.13105	8.57129
3261.20249	8.50697
3259.27393	8.44692
3257.34536	8.47483
3255.41680	8.49736
3253.48823	8.48708
3251.55967	8.52824
3249.63110	8.57924
3247.70254	8.54769
3245.77397	8.42195
3243.84541	8.35336
3241.91685	8.45518
3239.98828	8.61282
3238.05972	8.66207
3236.13115	8.61764
3234.20259	8.60076
3232.27402	8.62290
3230.34546	8.56788
3228.41689	8.54074
3226.48833	8.61572
3224.55977	8.54584
3222.63120	8.40934
3220.70264	8.40388
3218.77407	8.38716
3216.84551	8.32667
3214.91694	8.34113
3212.98838	8.36714
3211.05981	8.33463
3209.13125	8.31298
3207.20269	8.28060
3205.27412	8.13734
3203.34556	7.99421
3201.41699	7.97180
3199.48843	7.98849
3197.55986	7.93327
3195.63130	7.81254
3193.70273	7.75469
3191.77417	7.79297
3189.84561	7.78243
3187.91704	7.68913
3185.98848	7.61836
3184.05991	7.58861
3182.13135	7.55433
3180.20278	7.47771
3178.27422	7.38554
3176.34565	7.35493
3174.41709	7.36223
3172.48853	7.36020
3170.55996	7.34205
3168.63140	7.26433
3166.70283	7.15498
3164.77427	7.08007
3162.84570	7.03801
3160.91714	6.98374
3158.98857	6.89912
3157.06001	6.79951
3155.13145	6.68764
3153.20288	6.57653
3151.27432	6.49996
3149.34575	6.45498
3147.41719	6.40921
3145.48862	6.35343
3143.56006	6.28805
3141.63149	6.22290
3139.70293	6.15724
3137.77437	6.08107
3135.84580	6.00651
3133.91724	5.93459
3131.98867	5.85773
3130.06011	5.77967
3128.13154	5.70581
3126.20298	5.63796
3124.27441	5.56574
3122.34585	5.48246
3120.41729	5.40147
3118.48872	5.32922
3116.56016	5.25874
3114.63159	5.19055
3112.70303	5.12930
3110.77446	5.06918
3108.84590	5.00409
3106.91733	4.93510
3104.98877	4.86211
3103.06021	4.79013
3101.13164	4.72346
3099.20308	4.65962
3097.27451	4.59618
3095.34595	4.53007
3093.41738	4.46196
3091.48882	4.39713
3089.56025	4.33472
3087.63169	4.27009
3085.70312	4.20712
3083.77456	4.14677
3081.84600	4.08172
3079.91743	4.01451
3077.98887	3.95199
3076.06030	3.89212
3074.13174	3.83254
3072.20317	3.77528
3070.27461	3.72091
3068.34604	3.66780
3066.41748	3.61404
3064.48892	3.55794
3062.56035	3.49976
3060.63179	3.44193
3058.70322	3.38652
3056.77466	3.33281
3054.84609	3.27891
3052.91753	3.22546
3050.98896	3.17328
3049.06040	3.12102
3047.13184	3.06796
3045.20327	3.01531
3043.27471	2.96455
3041.34614	2.91487
3039.41758	2.86554
3037.48901	2.81824
3035.56045	2.77307
3033.63188	2.72805
3031.70332	2.68261
3029.77476	2.63752
3027.84619	2.59349
3025.91763	2.55010
3023.98906	2.50623
3022.06050	2.46237
3020.13193	2.41976
3018.20337	2.37843
3016.27480	2.33783
3014.34624	2.29763
3012.41768	2.25793
3010.48911	2.21880
3008.56055	2.18025
3006.63198	2.14294
3004.70342	2.10717
3002.77485	2.07227
3000.84629	2.03784
2998.91772	2.00356
2996.98916	1.96932
2995.06060	1.93586
2993.13203	1.90328
2991.20347	1.87133
2989.27490	1.84055
2987.34634	1.81093
2985.41777	1.78171
2983.48921	1.75267
2981.56064	1.72443
2979.63208	1.69700
2977.70352	1.66943
2975.77495	1.64191
2973.84639	1.61510
2971.91782	1.58877
2969.98926	1.56298
2968.06069	1.53784
2966.13213	1.51303
2964.20356	1.48827
2962.27500	1.46326
2960.34644	1.43808
2958.41787	1.41314
2956.48931	1.38865
2954.56074	1.36446
2952.63218	1.34030
2950.70361	1.31632
2948.77505	1.29286
2946.84648	1.27032
2944.91792	1.24857
2942.98936	1.22676
2941.06079	1.20467
2939.13223	1.18311
2937.20366	1.16212
2935.27510	1.14108
2933.34653	1.12043
2931.41797	1.10025
2929.48940	1.07945
2927.56084	1.05820
2925.63228	1.03772
2923.70371	1.01828
2921.77515	0.99994
2919.84658	0.98324
2917.91802	0.96733
2915.98945	0.95103
2914.06089	0.93462
2912.13232	0.91885
2910.20376	0.90362
2908.27520	0.88834
2906.34663	0.87310
2904.41807	0.85845
2902.48950	0.84447
2900.56094	0.83091
2898.63237	0.81753
2896.70381	0.80447
2894.77524	0.79196
2892.84668	0.77948
2890.91812	0.76677
2888.98955	0.75451
2887.06099	0.74301
2885.13242	0.73191
2883.20386	0.72122
2881.27529	0.71118
2879.34673	0.70145
2877.41816	0.69157
2875.48960	0.68141
2873.56104	0.67079
2871.63247	0.65960
2869.70391	0.64791
2867.77534	0.63606
2865.84678	0.62417
2863.91821	0.61197
2861.98965	0.59969
2860.06108	0.58794
2858.13252	0.57670
2856.20396	0.56587
2854.27539	0.55566
2852.34683	0.54629
2850.41826	0.53789
2848.48970	0.53021
2846.56113	0.52279
2844.63257	0.51560
2842.70400	0.50887
2840.77544	0.50276
2838.84687	0.49689
2836.91831	0.49083
2834.98975	0.48451
2833.06118	0.47826
2831.13262	0.47242
2829.20405	0.46664
2827.27549	0.46050
2825.34692	0.45411
2823.41836	0.44778
2821.48979	0.44170
2819.56123	0.43575
2817.63267	0.42979
2815.70410	0.42392
2813.77554	0.41810
2811.84697	0.41224
2809.91841	0.40653
2807.98984	0.40100
2806.06128	0.39555
2804.13271	0.39022
2802.20415	0.38480
2800.27559	0.37932
2798.34702	0.37416
2796.41846	0.36938
2794.48989	0.36467
2792.56133	0.35986
2790.63276	0.35502
2788.70420	0.35019
2786.77563	0.34547
2784.84707	0.34106
2782.91851	0.33688
2780.98994	0.33270
2779.06138	0.32858
2777.13281	0.32444
2775.20425	0.32019
2773.27568	0.31603
2771.34712	0.31212
2769.41855	0.30832
2767.48999	0.30450
2765.56143	0.30072
2763.63286	0.29716
2761.70430	0.29381
2759.77573	0.29050
2757.84717	0.28714
2755.91860	0.28387
2753.99004	0.28083
2752.06147	0.27784
2750.13291	0.27465
2748.20435	0.27133
2746.27578	0.26813
2744.34722	0.26519
2742.41865	0.26235
2740.49009	0.25951
2738.56152	0.25675
2736.63296	0.25409
2734.70439	0.25157
2732.77583	0.24920
2730.84727	0.24691
2728.91870	0.24457
2726.99014	0.24209
2725.06157	0.23955
2723.13301	0.23711
2721.20444	0.23482
2719.27588	0.23259
2717.34731	0.23033
2715.41875	0.22820
2713.49019	0.22627
2711.56162	0.22435
2709.63306	0.22252
2707.70449	0.22099
2705.77593	0.21949
2703.84736	0.21769
2701.91880	0.21582
2699.99023	0.21418
2698.06167	0.21268
2696.13311	0.21120
2694.20454	0.20974
2692.27598	0.20824
2690.34741	0.20675
2688.41885	0.20543
2686.49028	0.20421
2684.56172	0.20296
2682.63315	0.20171
2680.70459	0.20046
2678.77603	0.19922
2676.84746	0.19798
2674.91890	0.19672
2672.99033	0.19541
2671.06177	0.19420
2669.13320	0.19318
2667.20464	0.19218
2665.27607	0.19117
2663.34751	0.19024
2661.41895	0.18932
2659.49038	0.18841
2657.56182	0.18754
2655.63325	0.18663
2653.70469	0.18578
2651.77612	0.18514
2649.84756	0.18450
2647.91899	0.18371
2645.99043	0.18297
2644.06187	0.18234
2642.13330	0.18173
2640.20474	0.18123
2638.27617	0.18088
2636.34761	0.18046
2634.41904	0.17982
2632.49048	0.17925
2630.56191	0.17880
2628.63335	0.17834
2626.70479	0.17786
2624.77622	0.17741
2622.84766	0.17713
2620.91909	0.17691
2618.99053	0.17655
2617.06196	0.17613
2615.13340	0.17586
2613.20483	0.17571
2611.27627	0.17557
2609.34771	0.17542
2607.41914	0.17521
2605.49058	0.17498
2603.56201	0.17483
2601.63345	0.17475
2599.70488	0.17469
2597.77632	0.17477
2595.84775	0.17496
2593.91919	0.17498
2591.99062	0.17492
2590.06206	0.17498
2588.13350	0.17509
2586.20493	0.17517
2584.27637	0.17535
2582.34780	0.17567
2580.41924	0.17596
2578.49067	0.17611
2576.56211	0.17620
2574.63354	0.17637
2572.70498	0.17666
2570.77642	0.17702
2568.84785	0.17741
2566.91929	0.17778
2564.99072	0.17812
2563.06216	0.17848
2561.13359	0.17888
2559.20503	0.17936
2557.27646	0.17988
2555.34790	0.18031
2553.41934	0.18071
2551.49077	0.18110
2549.56221	0.18146
2547.63364	0.18193
2545.70508	0.18257
2543.77651	0.18321
2541.84795	0.18375
2539.91938	0.18429
2537.99082	0.18485
2536.06226	0.18553
2534.13369	0.18637
2532.20513	0.18710
2530.27656	0.18758
2528.34800	0.18812
2526.41943	0.18887
2524.49087	0.18961
2522.56230	0.19027
2520.63374	0.19103
2518.70518	0.19188
2516.77661	0.19261
2514.84805	0.19328
2512.91948	0.19402
2510.99092	0.19479
2509.06235	0.19553
2507.13379	0.19629
2505.20522	0.19718
2503.27666	0.19814
2501.34810	0.19893
2499.41953	0.19949
2497.49097	0.20002
2495.56240	0.20073
2493.63384	0.20164
2491.70527	0.20268
2489.77671	0.20371
2487.84814	0.20465
2485.91958	0.20552
2483.99102	0.20628
2482.06245	0.20708
2480.13389	0.20792
2478.20532	0.20871
2476.27676	0.20955
2474.34819	0.21055
2472.41963	0.21152
2470.49106	0.21238
2468.56250	0.21318
2466.63394	0.21402
2464.70537	0.21501
2462.77681	0.21606
2460.84824	0.21699
2458.91968	0.21781
2456.99111	0.21862
2455.06255	0.21952
2453.13398	0.22050
2451.20542	0.22150
2449.27686	0.22250
2447.34829	0.22345
2445.41973	0.22435
2443.49116	0.22530
2441.56260	0.22633
2439.63403	0.22727
2437.70547	0.22821
2435.77690	0.22931
2433.84834	0.23044
2431.91978	0.23147
2429.99121	0.23250
2428.06265	0.23360
2426.13408	0.23467
2424.20552	0.23567
2422.27695	0.23670
2420.34839	0.23788
2418.41982	0.23912
2416.49126	0.24029
2414.56270	0.24134
2412.63413	0.24231
2410.70557	0.24333
2408.77700	0.24450
2406.84844	0.24574
2404.91987	0.24693
2402.99131	0.24806
2401.06274	0.24926
2399.13418	0.25055
2397.20562	0.25181
2395.27705	0.25299
2393.34849	0.25415
2391.41992	0.25542
2389.49136	0.25679
2387.56279	0.25807
2385.63423	0.25910
2383.70566	0.25990
2381.77710	0.26052
2379.84854	0.26116
2377.91997	0.26190
2375.99141	0.26254
2374.06284	0.26290
2372.13428	0.26321
2370.20571	0.26384
2368.27715	0.26434
2366.34858	0.26415
2364.42002	0.26431
2362.49146	0.26600
2360.56289	0.26779
2358.63433	0.26882
2356.70576	0.27157
2354.77720	0.27593
2352.84863	0.27953
2350.92007	0.28165
2348.99150	0.28232
2347.06294	0.28203
2345.13437	0.28177
2343.20581	0.28279
2341.27725	0.28504
2339.34868	0.28717
2337.42012	0.28863
2335.49155	0.29036
2333.56299	0.29249
2331.63442	0.29455
2329.70586	0.29684
2327.77729	0.29940
2325.84873	0.30148
2323.92017	0.30323
2321.99160	0.30535
2320.06304	0.30766
2318.13447	0.30977
2316.20591	0.31177
2314.27734	0.31376
2312.34878	0.31564
2310.42021	0.31761
2308.49165	0.31982
2306.56309	0.32195
2304.63452	0.32391
2302.70596	0.32584
2300.77739	0.32791
2298.84883	0.33017
2296.92026	0.33236
2294.99170	0.33431
2293.06313	0.33631
2291.13457	0.33846
2289.20601	0.34056
2287.27744	0.34252
2285.34888	0.34442
2283.42031	0.34640
2281.49175	0.34845
2279.56318	0.35049
2277.63462	0.35261
2275.70605	0.35472
2273.77749	0.35665
2271.84893	0.35852
2269.92036	0.36055
2267.99180	0.36273
2266.06323	0.36489
2264.13467	0.36703
2262.20610	0.36929
2260.27754	0.37162
2258.34897	0.37392
2256.42041	0.37615
2254.49185	0.37833
2252.56328	0.38064
2250.63472	0.38311
2248.70615	0.38552
2246.77759	0.38768
2244.84902	0.38966
2242.92046	0.39166
2240.99189	0.39388
2239.06333	0.39624
2237.13477	0.39852
2235.20620	0.40072
2233.27764	0.40297
2231.34907	0.40525
2229.42051	0.40747
2227.49194	0.40967
2225.56338	0.41187
2223.63481	0.41415
2221.70625	0.41651
2219.77769	0.41877
2217.84912	0.42093
2215.92056	0.42311
2213.99199	0.42533
2212.06343	0.42756
2210.13486	0.42979
2208.20630	0.43197
2206.27773	0.43399
2204.34917	0.43592
2202.42061	0.43793
2200.49204	0.44015
2198.56348	0.44247
2196.63491	0.44456
2194.70635	0.44639
2192.77778	0.44818
2190.84922	0.45006
2188.92065	0.45206
2186.99209	0.45410
2185.06353	0.45606
2183.13496	0.45782
2181.20640	0.45935
2179.27783	0.46078
2177.34927	0.46230
2175.42070	0.46399
2173.49214	0.46571
2171.56357	0.46724
2169.63501	0.46860
2167.70645	0.46989
2165.77788	0.47112
2163.84932	0.47229
2161.92075	0.47346
2159.99219	0.47453
2158.06362	0.47537
2156.13506	0.47609
2154.20649	0.47695
2152.27793	0.47791
2150.34937	0.47870
2148.42080	0.47929
2146.49224	0.47987
2144.56367	0.48036
2142.63511	0.48064
2140.70654	0.48083
2138.77798	0.48101
2136.84941	0.48109
2134.92085	0.48107
2132.99229	0.48109
2131.06372	0.48111
2129.13516	0.48093
2127.20659	0.48061
2125.27803	0.48028
2123.34946	0.47992
2121.42090	0.47948
2119.49233	0.47885
2117.56377	0.47805
2115.63521	0.47725
2113.70664	0.47650
2111.77808	0.47560
2109.84951	0.47457
2107.92095	0.47348
2105.99238	0.47221
2104.06382	0.47080
2102.13525	0.46935
2100.20669	0.46799
2098.27812	0.46665
2096.34956	0.46517
2094.42100	0.46352
2092.49243	0.46183
2090.56387	0.46016
2088.63530	0.45838
2086.70674	0.45648
2084.77817	0.45442
2082.84961	0.45223
2080.92104	0.45007
2078.99248	0.44799
2077.06392	0.44594
2075.13535	0.44378
2073.20679	0.44146
2071.27822	0.43917
2069.34966	0.43689
2067.42109	0.43446
2065.49253	0.43194
2063.56396	0.42947
2061.63540	0.42707
2059.70684	0.42458
2057.77827	0.42193
2055.84971	0.41922
2053.92114	0.41652
2051.99258	0.41383
2050.06401	0.41111
2048.13545	0.40837
2046.20688	0.40567
2044.27832	0.40303
2042.34976	0.40030
2040.42119	0.39740
2038.49263	0.39442
2036.56406	0.39156
2034.63550	0.38879
2032.70693	0.38593
2030.77837	0.38306
2028.84980	0.38029
2026.92124	0.37754
2024.99268	0.37468
2023.06411	0.37170
2021.13555	0.36869
2019.20698	0.36575
2017.27842	0.36292
2015.34985	0.36008
2013.42129	0.35723
2011.49272	0.35439
2009.56416	0.35157
2007.63560	0.34878
2005.70703	0.34601
2003.77847	0.34321
2001.84990	0.34046
1999.92134	0.33780
1997.99277	0.33512
1996.06421	0.33239
1994.13564	0.32974
1992.20708	0.32726
1990.27852	0.32475
1988.34995	0.32213
1986.42139	0.31950
1984.49282	0.31702
1982.56426	0.31470
1980.63569	0.31237
1978.70713	0.30993
1976.77856	0.30746
1974.85000	0.30517
1972.92144	0.30302
1970.99287	0.30089
1969.06431	0.29878
1967.13574	0.29675
1965.20718	0.29469
1963.27861	0.29255
1961.35005	0.29046
1959.42148	0.28852
1957.49292	0.28673
1955.56436	0.28495
1953.63579	0.28316
1951.70723	0.28141
1949.77866	0.27965
1947.85010	0.27786
1945.92153	0.27616
1943.99297	0.27466
1942.06440	0.27327
1940.13584	0.27179
1938.20728	0.27022
1936.27871	0.26875
1934.35015	0.26742
1932.42158	0.26617
1930.49302	0.26490
1928.56445	0.26363
1926.63589	0.26244
1924.70732	0.26140
1922.77876	0.26045
1920.85020	0.25948
1918.92163	0.25852
1916.99307	0.25760
1915.06450	0.25666
1913.13594	0.25572
1911.20737	0.25500
1909.27881	0.25441
1907.35024	0.25373
1905.42168	0.25293
1903.49312	0.25222
1901.56455	0.25167
1899.63599	0.25121
1897.70742	0.25081
1895.77886	0.25039
1893.85029	0.25001
1891.92173	0.24964
1889.99316	0.24937
1888.06460	0.24916
1886.13604	0.24898
1884.20747	0.24873
1882.27891	0.24837
1880.35034	0.24807
1878.42178	0.24798
1876.49321	0.24801
1874.56465	0.24802
1872.63608	0.24807
1870.70752	0.24815
1868.77896	0.24846
1866.85039	0.24890
1864.92183	0.24911
1862.99326	0.24922
1861.06470	0.24936
1859.13613	0.24957
1857.20757	0.24978
1855.27900	0.25009
1853.35044	0.25051
1851.42187	0.25106
1849.49331	0.25168
1847.56475	0.25229
1845.63618	0.25292
1843.70762	0.25384
1841.77905	0.25480
1839.85049	0.25540
1837.92192	0.25618
1835.99336	0.25714
1834.06479	0.25805
1832.13623	0.25887
1830.20767	0.26007
1828.27910	0.26157
1826.35054	0.26278
1824.42197	0.26415
1822.49341	0.26562
1820.56484	0.26697
1818.63628	0.26832
1816.70771	0.26986
1814.77915	0.27147
1812.85059	0.27320
1810.92202	0.27517
1808.99346	0.27728
1807.06489	0.27933
1805.13633	0.28127
1803.20776	0.28338
1801.27920	0.28575
1799.35063	0.28849
1797.42207	0.29104
1795.49351	0.29336
1793.56494	0.29601
1791.63638	0.29973
1789.70781	0.30356
1787.77925	0.30637
1785.85068	0.30940
1783.92212	0.31299
1781.99355	0.31689
1780.06499	0.32113
1778.13643	0.32554
1776.20786	0.32957
1774.27930	0.33361
1772.35073	0.33914
1770.42217	0.34565
1768.49360	0.35138
1766.56504	0.35680
1764.63647	0.36210
1762.70791	0.36772
1760.77935	0.37502
1758.85078	0.38209
1756.92222	0.38922
1754.99365	0.39706
1753.06509	0.40402
1751.13652	0.41194
1749.20796	0.42205
1747.27939	0.43249
1745.35083	0.44194
1743.42227	0.45177
1741.49370	0.46241
1739.56514	0.47499
1737.63657	0.48771
1735.70801	0.49863
1733.77944	0.51496
1731.85088	0.53498
1729.92231	0.55100
1727.99375	0.56715
1726.06519	0.58435
1724.13662	0.60310
1722.20806	0.62333
1720.27949	0.64172
1718.35093	0.66298
1716.42236	0.69507
1714.49380	0.72656
1712.56523	0.75218
1710.63667	0.77674
1708.70811	0.80295
1706.77954	0.83268
1704.85098	0.86821
1702.92241	0.89987
1700.99385	0.93096
1699.06528	0.97787
1697.13672	1.02181
1695.20815	1.06738
1693.27959	1.11236
1691.35103	1.14839
1689.42246	1.18968
1687.49390	1.23349
1685.56533	1.27558
1683.63677	1.34121
1681.70820	1.41126
1679.77964	1.45600
1677.85107	1.49777
1675.92251	1.54533
1673.99395	1.60504
1672.06538	1.65913
1670.13682	1.71230
1668.20825	1.78164
1666.27969	1.83767
1664.35112	1.88613
1662.42256	1.94918
1660.49399	2.02157
1658.56543	2.07698
1656.63687	2.12126
1654.70830	2.16102
1652.77974	2.22119
1650.85117	2.27967
1648.92261	2.29913
1646.99404	2.32382
1645.06548	2.35000
1643.13691	2.36579
1641.20835	2.37199
1639.27979	2.37888
1637.35122	2.38567
1635.42266	2.38797
1633.49409	2.37976
1631.56553	2.36304
1629.63696	2.34317
1627.70840	2.31115
1625.77983	2.27455
1623.85127	2.23034
1621.92271	2.17795
1619.99414	2.13019
1618.06558	2.08289
1616.13701	2.01799
1614.20845	1.95287
1612.27988	1.90230
1610.35132	1.84924
1608.42275	1.79254
1606.49419	1.73659
1604.56562	1.68483
1602.63706	1.63533
1600.70850	1.58799
1598.77993	1.54486
1596.85137	1.50386
1594.92280	1.46371
1592.99424	1.42543
1591.06567	1.39083
1589.13711	1.35833
1587.20854	1.32791
1585.27998	1.29980
1583.35142	1.27396
1581.42285	1.25115
1579.49429	1.23205
1577.56572	1.21482
1575.63716	1.19427
1573.70859	1.17670
1571.78003	1.16534
1569.85146	1.15411
1567.92290	1.14287
1565.99434	1.13529
1564.06577	1.13000
1562.13721	1.12621
1560.20864	1.12471
1558.28008	1.12722
1556.35151	1.13119
1554.42295	1.13321
1552.49438	1.13513
1550.56582	1.13561
1548.63726	1.13333
1546.70869	1.12790
1544.78013	1.11859
1542.85156	1.10556
1540.92300	1.08691
1538.99443	1.05791
1537.06587	1.03618
1535.13730	1.02081
1533.20874	1.00003
1531.28018	0.97798
1529.35161	0.96192
1527.42305	0.94695
1525.49448	0.93192
1523.56592	0.91909
1521.63735	0.90643
1519.70879	0.89398
1517.78022	0.88404
1515.85166	0.87250
1513.92310	0.85990
1511.99453	0.84853
1510.06597	0.83804
1508.13740	0.82760
1506.20884	0.81234
1504.28027	0.79951
1502.35171	0.79201
1500.42314	0.78535
1498.49458	0.77820
1496.56602	0.76990
1494.63745	0.76202
1492.70889	0.75604
1490.78032	0.75055
1488.85176	0.74426
1486.92319	0.73876
1484.99463	0.73469
1483.06606	0.73136
1481.13750	0.72847
1479.20894	0.72643
1477.28037	0.72554
1475.35181	0.72547
1473.42324	0.72583
1471.49468	0.72548
1469.56611	0.72370
1467.63755	0.72128
1465.70898	0.71900
1463.78042	0.71763
1461.85186	0.71709
1459.92329	0.71668
1457.99473	0.71633
1456.06616	0.71592
1454.13760	0.71451
1452.20903	0.71225
1450.28047	0.70941
1448.35190	0.70617
1446.42334	0.70289
1444.49478	0.70009
1442.56621	0.69761
1440.63765	0.69498
1438.70908	0.69202
1436.78052	0.68842
1434.85195	0.68465
1432.92339	0.68174
1430.99482	0.67971
1429.06626	0.67854
1427.13770	0.67814
1425.20913	0.67844
1423.28057	0.67937
1421.35200	0.68022
1419.42344	0.68081
1417.49487	0.68110
1415.56631	0.68053
1413.63774	0.67981
1411.70918	0.67963
1409.78062	0.68019
1407.85205	0.68126
1405.92349	0.68260
1403.99492	0.68384
1402.06636	0.68417
1400.13779	0.68341
1398.20923	0.68184
1396.28066	0.67944
1394.35210	0.67587
1392.42354	0.67149
1390.49497	0.66710
1388.56641	0.66255
1386.63784	0.65746
1384.70928	0.65220
1382.78071	0.64712
1380.85215	0.64236
1378.92358	0.63836
1376.99502	0.63522
1375.06646	0.63293
1373.13789	0.63156
1371.20933	0.63090
1369.28076	0.63033
1367.35220	0.62920
1365.42363	0.62753
1363.49507	0.62586
1361.56650	0.62427
1359.63794	0.62264
1357.70937	0.62124
1355.78081	0.61989
1353.85225	0.61858
1351.92368	0.61766
1349.99512	0.61711
1348.06655	0.61648
1346.13799	0.61554
1344.20942	0.61451
1342.28086	0.61362
1340.35229	0.61294
1338.42373	0.61232
1336.49517	0.61166
1334.56660	0.61123
1332.63804	0.61115
1330.70947	0.61128
1328.78091	0.61157
1326.85234	0.61205
1324.92378	0.61280
1322.99521	0.61378
1321.06665	0.61466
1319.13809	0.61529
1317.20952	0.61569
1315.28096	0.61574
1313.35239	0.61536
1311.42383	0.61467
1309.49526	0.61387
1307.56670	0.61313
1305.63813	0.61254
1303.70957	0.61190
1301.78101	0.61104
1299.85244	0.60998
1297.92388	0.60869
1295.99531	0.60727
1294.06675	0.60600
1292.13818	0.60480
1290.20962	0.60335
1288.28105	0.60183
1286.35249	0.60048
1284.42393	0.59923
1282.49536	0.59799
1280.56680	0.59677
1278.63823	0.59537
1276.70967	0.59390
1274.78110	0.59259
1272.85254	0.59143
1270.92397	0.59036
1268.99541	0.58945
1267.06685	0.58859
1265.13828	0.58762
1263.20972	0.58663
1261.28115	0.58579
1259.35259	0.58517
1257.42402	0.58475
1255.49546	0.58446
1253.56689	0.58431
1251.63833	0.58433
1249.70977	0.58444
1247.78120	0.58443
1245.85264	0.58415
1243.92407	0.58364
1241.99551	0.58286
1240.06694	0.58164
1238.13838	0.57988
1236.20981	0.57769
1234.28125	0.57532
1232.35269	0.57299
1230.42412	0.57073
1228.49556	0.56855
1226.56699	0.56650
1224.63843	0.56462
1222.70986	0.56274
1220.78130	0.56079
1218.85273	0.55904
1216.92417	0.55767
1214.99561	0.55658
1213.06704	0.55566
1211.13848	0.55488
1209.20991	0.55416
1207.28135	0.55344
1205.35278	0.55254
1203.42422	0.55142
1201.49565	0.55041
1199.56709	0.54958
1197.63853	0.54871
1195.70996	0.54790
1193.78140	0.54726
1191.85283	0.54668
1189.92427	0.54613
1187.99570	0.54563
1186.06714	0.54524
1184.13857	0.54529
1182.21001	0.54592
1180.28145	0.54697
1178.35288	0.54828
1176.42432	0.54982
1174.49575	0.55129
1172.56719	0.55223
1170.63862	0.55256
1168.71006	0.55268
1166.78149	0.55279
1164.85293	0.55287
1162.92437	0.55292
1160.99580	0.55287
1159.06724	0.55249
1157.13867	0.55170
1155.21011	0.55055
1153.28154	0.54917
1151.35298	0.54748
1149.42441	0.54534
1147.49585	0.54277
1145.56729	0.53999
1143.63872	0.53722
1141.71016	0.53468
1139.78159	0.53251
1137.85303	0.53089
1135.92446	0.52999
1133.99590	0.52967
1132.06733	0.52960
1130.13877	0.52946
1128.21021	0.52910
1126.28164	0.52851
1124.35308	0.52800
1122.42451	0.52789
1120.49595	0.52774
1118.56738	0.52735
1116.63882	0.52727
1114.71025	0.52756
1112.78169	0.52779
1110.85312	0.52794
1108.92456	0.52839
1106.99600	0.52922
1105.06743	0.53020
1103.13887	0.53122
1101.21030	0.53259
1099.28174	0.53464
1097.35317	0.53710
1095.42461	0.53966
1093.49604	0.54278
1091.56748	0.54708
1089.63892	0.55267
1087.71035	0.55936
1085.78179	0.56676
1083.85322	0.57432
1081.92466	0.58124
1079.99609	0.58656
1078.06753	0.58951
1076.13896	0.58961
1074.21040	0.58690
1072.28184	0.58208
1070.35327	0.57585
1068.42471	0.56880
1066.49614	0.56175
1064.56758	0.55529
1062.63901	0.54949
1060.71045	0.54428
1058.78188	0.53970
1056.85332	0.53573
1054.92476	0.53214
1052.99619	0.52899
1051.06763	0.52663
1049.13906	0.52483
1047.21050	0.52328
1045.28193	0.52214
1043.35337	0.52122
1041.42480	0.52038
1039.49624	0.51976
1037.56768	0.51926
1035.63911	0.51880
1033.71055	0.51835
1031.78198	0.51766
1029.85342	0.51650
1027.92485	0.51507
1025.99629	0.51382
1024.06772	0.51310
1022.13916	0.51283
1020.21060	0.51272
1018.28203	0.51278
1016.35347	0.51302
1014.42490	0.51308
1012.49634	0.51308
1010.56777	0.51342
1008.63921	0.51400
1006.71064	0.51472
1004.78208	0.51587
1002.85352	0.51766
1000.92495	0.52019
998.99639	0.52341
997.06782	0.52713
995.13926	0.53132
993.21069	0.53574
991.28213	0.53956
989.35356	0.54197
987.42500	0.54297
985.49644	0.54322
983.56787	0.54320
981.63931	0.54331
979.71074	0.54398
977.78218	0.54534
975.85361	0.54740
973.92505	0.55005
971.99648	0.55300
970.06792	0.55611
968.13936	0.55961
966.21079	0.56365
964.28223	0.56818
962.35366	0.57305
960.42510	0.57794
958.49653	0.58299
956.56797	0.58857
954.63940	0.59451
952.71084	0.60077
950.78228	0.60753
948.85371	0.61425
946.92515	0.62055
944.99658	0.62704
943.06802	0.63367
941.13945	0.63986
939.21089	0.64579
937.28232	0.65171
935.35376	0.65779
933.42520	0.66394
931.49663	0.66968
929.56807	0.67518
927.63950	0.68079
925.71094	0.68647
923.78237	0.69243
921.85381	0.69895
919.92524	0.70594
917.99668	0.71314
916.06812	0.72061
914.13955	0.72866
912.21099	0.73721
910.28242	0.74597
908.35386	0.75476
906.42529	0.76326
904.49673	0.77160
902.56816	0.78122
900.63960	0.79249
898.71104	0.80292
896.78247	0.81137
894.85391	0.81954
892.92534	0.82834
890.99678	0.83825
889.06821	0.84955
887.13965	0.86091
885.21108	0.87237
883.28252	0.88550
881.35396	0.89876
879.42539	0.90988
877.49683	0.92085
875.56826	0.93383
873.63970	0.94655
871.71113	0.95721
869.78257	0.96771
867.85400	0.97857
865.92544	0.98883
863.99687	0.99996
862.06831	1.01219
860.13975	1.02398
858.21118	1.03651
856.28262	1.05067
854.35405	1.06446
852.42549	1.07586
850.49692	1.08608
848.56836	1.09755
846.63979	1.11001
844.71123	1.12192
842.78267	1.13264
840.85410	1.14284
838.92554	1.15459
836.99697	1.16953
835.06841	1.18533
833.13984	1.19954
831.21128	1.21422
829.28271	1.22974
827.35415	1.24446
825.42559	1.26078
823.49702	1.27497
821.56846	1.27967
819.63989	1.28417
817.71133	1.29779
815.78276	1.31974
813.85420	1.33732
811.92563	1.33828
809.99707	1.34489
808.06851	1.37257
806.13994	1.40372
804.21138	1.42644
802.28281	1.44444
800.35425	1.46077
798.42568	1.48885
796.49712	1.51741
794.56855	1.49208
792.63999	1.43358
790.71143	1.42470
788.78286	1.48047
786.85430	1.50222
784.92573	1.46880
782.99717	1.48554
781.06860	1.57265
779.14004	1.64509
777.21147	1.62398
775.28291	1.67529
773.35435	2.09247
771.42578	4.62855
769.49722	4.61698
767.56865	4.60541
765.64009	4.59384
763.71152	2.25983
761.78296	1.58041
759.85439	1.37424
757.92583	1.26055
755.99727	1.24953
754.06870	1.26384
752.14014	1.25335
750.21157	1.27682
748.28301	1.35436
746.35444	1.34403
744.42588	1.20191
742.49731	1.11747
740.56875	1.17631
738.64019	1.34459
736.71162	1.27332
734.78306	1.02834
732.85449	0.89698
730.92593	0.87062
728.99736	0.90278
727.06880	1.00080
725.14023	1.00100
723.21167	0.81973
721.28311	0.57907
719.35454	0.33876
717.42598	0.21627
715.49741	0.25098
713.56885	0.42105
711.64028	0.59730
709.71172	0.45897
707.78315	0.24797
705.85459	0.12451
703.92603	0.11349
701.99746	0.30330
700.06890	0.55061
698.14033	0.29513
696.21177	0.04919
694.28320	-0.04299
692.35464	0.00375
690.42607	0.07887
688.49751	0.06509
686.56895	0.05074
684.64038	0.10223
682.71182	0.13057
680.78325	0.13550
678.85469	0.14597
676.92612	0.19194
674.99756	0.35856
673.06899	0.67628
671.14043	0.49126
669.21187	0.38865
667.28330	0.53552
665.35474	0.73477
663.42617	0.63173
661.49761	0.85065
659.56904	1.59883
657.64048	1.00372
655.71191	0.52155
653.78335	0.25860
651.85479	0.13740
649.92622	0.08397
647.99766	0.15807
646.06909	0.28075
644.14053	0.19033
642.21196	0.07187
640.28340	0.03394
638.35483	0.06518
636.42627	0.19807
634.49771	0.44757
632.56914	0.42665
630.64058	0.28049
628.71201	0.08387
626.78345	0.00444
624.85488	-0.00915
622.92632	-0.00259
620.99775	0.08823
619.06919	0.25279
617.14062	0.43506
615.21206	0.64292
613.28350	0.54526
611.35493	0.27156
609.42637	0.12926
607.49780	0.07272
605.56924	0.02288
603.64067	0.03021
601.71211	0.22692
599.78354	0.29446
597.85498	0.15212
595.92642	0.11806
593.99785	0.18715
592.06929	0.23428
590.14072	0.21984
588.21216	0.29503
586.28359	0.46956
584.35503	0.29059
582.42646	0.13498
580.49790	0.13259
578.56934	0.21152
576.64077	0.25031
574.71221	0.24905
572.78364	0.20349
570.85508	0.14983
568.92651	0.16162
566.99795	0.15635
565.06938	0.09918
563.14082	0.07723
561.21226	0.08205
559.28369	0.08727
557.35513	0.10993
555.42656	0.15135
553.49800	0.18307
551.56943	0.17444
549.64087	0.13049
547.71230	0.12935
545.78374	0.20840
543.85518	0.25237
541.92661	0.16080
539.99805	0.11265
538.06948	0.13826
536.14092	0.16398
534.21235	0.15315
532.28379	0.15527
530.35522	0.19881
528.42666	0.30973
526.49810	0.41404
524.56953	0.31817
522.64097	0.19331
520.71240	0.12574
518.78384	0.11214
516.85527	0.16084
514.92671	0.29838
512.99814	0.33067
511.06958	0.22116
509.14102	0.19075
507.21245	0.22939
505.28389	0.23013
503.35532	0.21255
501.42676	0.22494
499.49819	0.24973
