3997.91411	0.07729
3995.98555	0.07736
3994.05698	0.07782
3992.12842	0.07838
3990.19985	0.07861
3988.27129	0.07879
3986.34272	0.07909
3984.41416	0.07930
3982.48560	0.07939
3980.55703	0.07982
3978.62847	0.08056
3976.69990	0.08086
3974.77134	0.08061
3972.84277	0.08035
3970.91421	0.08045
3968.98564	0.08095
3967.05708	0.08131
3965.12852	0.08119
3963.19995	0.08106
3961.27139	0.08107
3959.34282	0.08098
3957.41426	0.08095
3955.48569	0.08110
3953.55713	0.08128
3951.62856	0.08121
3949.70000	0.08092
3947.77144	0.08067
3945.84287	0.08043
3943.91431	0.08037
3941.98574	0.08062
3940.05718	0.08083
3938.12861	0.08113
3936.20005	0.08160
3934.27148	0.08158
3932.34292	0.08107
3930.41436	0.08092
3928.48579	0.08107
3926.55723	0.08079
3924.62866	0.08032
3922.70010	0.08023
3920.77153	0.08035
3918.84297	0.08019
3916.91440	0.07972
3914.98584	0.07946
3913.05728	0.07974
3911.12871	0.08012
3909.20015	0.08001
3907.27158	0.07941
3905.34302	0.07887
3903.41445	0.07871
3901.48589	0.07892
3899.55732	0.07946
3897.62876	0.07988
3895.70020	0.07966
3893.77163	0.07915
3891.84307	0.07904
3889.91450	0.07948
3887.98594	0.07975
3886.05737	0.07984
3884.12881	0.07994
3882.20024	0.07955
3880.27168	0.07897
3878.34312	0.07915
3876.41455	0.07994
3874.48599	0.08050
3872.55742	0.08067
3870.62886	0.08078
3868.70029	0.08122
3866.77173	0.08147
3864.84316	0.08128
3862.91460	0.08122
3860.98604	0.08181
3859.05747	0.08258
3857.12891	0.08298
3855.20034	0.08298
3853.27178	0.08282
3851.34321	0.08359
3849.41465	0.08466
3847.48608	0.08499
3845.55752	0.08492
3843.62896	0.08478
3841.70039	0.08507
3839.77183	0.08593
3837.84326	0.08715
3835.91470	0.08855
3833.98613	0.08944
3832.05757	0.08980
3830.12900	0.09001
3828.20044	0.09018
3826.27187	0.09070
3824.34331	0.09161
3822.41475	0.09226
3820.48618	0.09283
3818.55762	0.09386
3816.62905	0.09540
3814.70049	0.09722
3812.77192	0.09848
3810.84336	0.09916
3808.91479	0.09951
3806.98623	0.09965
3805.05767	0.10018
3803.12910	0.10129
3801.20054	0.10322
3799.27197	0.10551
3797.34341	0.10662
3795.41484	0.10752
3793.48628	0.10891
3791.55771	0.11043
3789.62915	0.11201
3787.70059	0.11334
3785.77202	0.11431
3783.84346	0.11550
3781.91489	0.11692
3779.98633	0.11852
3778.05776	0.12067
3776.12920	0.12245
3774.20063	0.12359
3772.27207	0.12497
3770.34351	0.12669
3768.41494	0.12835
3766.48638	0.12997
3764.55781	0.13211
3762.62925	0.13433
3760.70068	0.13592
3758.77212	0.13763
3756.84355	0.14026
3754.91499	0.14273
3752.98643	0.14430
3751.05786	0.14606
3749.12930	0.14933
3747.20073	0.15240
3745.27217	0.15498
3743.34360	0.15933
3741.41504	0.16368
3739.48647	0.16609
3737.55791	0.16840
3735.62935	0.17204
3733.70078	0.17711
3731.77222	0.18251
3729.84365	0.18740
3727.91509	0.19142
3725.98652	0.19600
3724.05796	0.20266
3722.12939	0.21061
3720.20083	0.21884
3718.27227	0.22715
3716.34370	0.23551
3714.41514	0.24343
3712.48657	0.25154
3710.55801	0.26277
3708.62944	0.27704
3706.70088	0.29019
3704.77231	0.30214
3702.84375	0.31528
3700.91519	0.33236
3698.98662	0.35141
3697.05806	0.36917
3695.12949	0.38764
3693.20093	0.40729
3691.27236	0.42829
3689.34380	0.45566
3687.41523	0.49087
3685.48667	0.52285
3683.55811	0.55053
3681.62954	0.57940
3679.70098	0.61093
3677.77241	0.64346
3675.84385	0.68175
3673.91528	0.73441
3671.98672	0.77872
3670.05815	0.81794
3668.12959	0.87169
3666.20103	0.92181
3664.27246	0.96355
3662.34390	1.00756
3660.41533	1.05521
3658.48677	1.10199
3656.55820	1.15088
3654.62964	1.20537
3652.70107	1.25113
3650.77251	1.28986
3648.84395	1.34370
3646.91538	1.41263
3644.98682	1.46546
3643.05825	1.50619
3641.12969	1.54647
3639.20112	1.59009
3637.27256	1.63365
3635.34399	1.67583
3633.41543	1.71814
3631.48687	1.75711
3629.55830	1.79536
3627.62974	1.84726
3625.70117	1.89949
3623.77261	1.93609
3621.84404	1.96929
3619.91548	2.00605
3617.98691	2.05212
3616.05835	2.09805
3614.12979	2.13551
3612.20122	2.17383
3610.27266	2.21338
3608.34409	2.25305
3606.41553	2.29395
3604.48696	2.33297
3602.55840	2.36911
3600.62983	2.40699
3598.70127	2.44700
3596.77271	2.48674
3594.84414	2.52893
3592.91558	2.57382
3590.98701	2.61431
3589.05845	2.64968
3587.12988	2.69301
3585.20132	2.74191
3583.27275	2.78151
3581.34419	2.81718
3579.41562	2.85694
3577.48706	2.90067
3575.55850	2.94532
3573.62993	2.99019
3571.70137	3.03244
3569.77280	3.07126
3567.84424	3.11175
3565.91567	3.16302
3563.98711	3.21609
3562.05854	3.25883
3560.12998	3.29773
3558.20142	3.34030
3556.27285	3.38784
3554.34429	3.43489
3552.41572	3.48095
3550.48716	3.52747
3548.55859	3.57312
3546.63003	3.61800
3544.70146	3.66542
3542.77290	3.71491
3540.84434	3.76417
3538.91577	3.81419
3536.98721	3.86313
3535.05864	3.90968
3533.13008	3.95302
3531.20151	3.99567
3529.27295	4.04371
3527.34438	4.09766
3525.41582	4.14751
3523.48726	4.19186
3521.55869	4.23993
3519.63013	4.29110
3517.70156	4.33979
3515.77300	4.38382
3513.84443	4.42767
3511.91587	4.47569
3509.98730	4.52365
3508.05874	4.56752
3506.13018	4.61537
3504.20161	4.67273
3502.27305	4.73123
3500.34448	4.78116
3498.41592	4.82263
3496.48735	4.86224
3494.55879	4.90617
3492.63022	4.95708
3490.70166	5.01501
3488.77310	5.07573
3486.84453	5.12966
3484.91597	5.17800
3482.98740	5.22447
3481.05884	5.26393
3479.13027	5.30797
3477.20171	5.36896
3475.27314	5.42547
3473.34458	5.46525
3471.41602	5.50780
3469.48745	5.55490
3467.55889	5.59806
3465.63032	5.64888
3463.70176	5.71599
3461.77319	5.77827
3459.84463	5.81756
3457.91606	5.85242
3455.98750	5.90519
3454.05894	5.96581
3452.13037	6.01843
3450.20181	6.07072
3448.27324	6.12651
3446.34468	6.17515
3444.41611	6.20221
3442.48755	6.22094
3440.55898	6.25607
3438.63042	6.30532
3436.70186	6.35188
3434.77329	6.40245
3432.84473	6.47283
3430.91616	6.55084
3428.98760	6.62539
3427.05903	6.69200
3425.13047	6.75005
3423.20190	6.80130
3421.27334	6.85154
3419.34478	6.89876
3417.41621	6.92272
3415.48765	6.91963
3413.55908	6.94149
3411.63052	7.02339
3409.70195	7.09330
3407.77339	7.11828
3405.84482	7.14230
3403.91626	7.19827
3401.98770	7.28018
3400.05913	7.35074
3398.13057	7.39766
3396.20200	7.39997
3394.27344	7.37983
3392.34487	7.42022
3390.41631	7.53870
3388.48774	7.65134
3386.55918	7.69934
3384.63062	7.69000
3382.70205	7.69630
3380.77349	7.76291
3378.84492	7.82647
3376.91636	7.85461
3374.98779	7.86715
3373.05923	7.88602
3371.13066	7.89903
3369.20210	7.91353
3367.27354	7.95026
3365.34497	7.99411
3363.41641	8.01058
3361.48784	7.98155
3359.55928	7.96745
3357.63071	8.03523
3355.70215	8.13410
3353.77358	8.13421
3351.84502	8.06886
3349.91646	8.02444
3347.98789	7.99420
3346.05933	7.96238
3344.13076	7.97613
3342.20220	8.06156
3340.27363	8.16252
3338.34507	8.22157
3336.41650	8.21929
3334.48794	8.24801
3332.55937	8.34064
3330.63081	8.36467
3328.70225	8.23073
3326.77368	8.06773
3324.84512	8.01466
3322.91655	8.07257
3320.98799	8.14040
3319.05942	8.15875
3317.13086	8.20355
3315.20229	8.22617
3313.27373	8.17108
3311.34517	8.14519
3309.41660	8.27154
3307.48804	8.46348
3305.55947	8.45990
3303.63091	8.33791
3301.70234	8.26051
3299.77378	8.22224
3297.84521	8.15847
3295.91665	8.08898
3293.98809	8.10970
3292.05952	8.25632
3290.13096	8.38200
3288.20239	8.39818
3286.27383	8.48340
3284.34526	8.54199
3282.41670	8.43851
3280.48813	8.35285
3278.55957	8.34649
3276.63101	8.33193
3274.70244	8.25516
3272.77388	8.14845
3270.84531	8.13239
3268.91675	8.22334
3266.98818	8.29010
3265.05962	8.35542
3263.13105	8.44538
3261.20249	8.49504
3259.27393	8.55739
3257.34536	8.59546
3255.41680	8.48602
3253.48823	8.35741
3251.55967	8.33505
3249.63110	8.35394
3247.70254	8.37919
3245.77397	8.42196
3243.84541	8.43607
3241.91685	8.38553
3239.98828	8.28961
3238.05972	8.15279
3236.13115	8.07232
3234.20259	8.11487
3232.27402	8.18609
3230.34546	8.24476
3228.41689	8.27318
3226.48833	8.23675
3224.55977	8.17371
3222.63120	8.11514
3220.70264	8.04525
3218.77407	7.98280
3216.84551	7.99187
3214.91694	8.03202
3212.98838	8.03288
3211.05981	8.00546
3209.13125	7.98402
3207.20269	7.99595
3205.27412	8.02051
3203.34556	8.03278
3201.41699	7.99963
3199.48843	7.93290
3197.55986	7.89904
3195.63130	7.85890
3193.70273	7.76292
3191.77417	7.64062
3189.84561	7.55650
3187.91704	7.53270
3185.98848	7.51167
3184.05991	7.50346
3182.13135	7.52838
3180.20278	7.51375
3178.27422	7.45416
3176.34565	7.40915
3174.41709	7.37051
3172.48853	7.28316
3170.55996	7.15916
3168.63140	7.07948
3166.70283	7.04736
3164.77427	7.01106
3162.84570	6.95330
3160.91714	6.86638
3158.98857	6.77167
3157.06001	6.70402
3155.13145	6.66462
3153.20288	6.63523
3151.27432	6.59202
3149.34575	6.51548
3147.41719	6.42596
3145.48862	6.34969
3143.56006	6.26891
3141.63149	6.17846
3139.70293	6.11104
3137.77437	6.06565
3135.84580	6.00429
3133.91724	5.92453
3131.98867	5.84313
3130.06011	5.76749
3128.13154	5.70249
3126.20298	5.64156
3124.27441	5.57607
3122.34585	5.50305
3120.41729	5.42666
3118.48872	5.35133
3116.56016	5.28020
3114.63159	5.21036
3112.70303	5.13342
3110.77446	5.05394
3108.84590	4.98125
3106.91733	4.91186
3104.98877	4.83864
3103.06021	4.76546
3101.13164	4.69750
3099.20308	4.63343
3097.27451	4.56768
3095.34595	4.49758
3093.41738	4.42807
3091.48882	4.36196
3089.56025	4.29707
3087.63169	4.23194
3085.70312	4.16619
3083.77456	4.10145
3081.84600	4.04076
3079.91743	3.98012
3077.98887	3.91545
3076.06030	3.85065
3074.13174	3.78779
3072.20317	3.72588
3070.27461	3.66598
3068.34604	3.60930
3066.41748	3.55327
3064.48892	3.49537
3062.56035	3.43714
3060.63179	3.38026
3058.70322	3.32324
3056.77466	3.26455
3054.84609	3.20729
3052.91753	3.15440
3050.98896	3.10372
3049.06040	3.05270
3047.13184	3.00160
3045.20327	2.95105
3043.27471	2.90172
3041.34614	2.85327
3039.41758	2.80394
3037.48901	2.75474
3035.56045	2.70718
3033.63188	2.66056
3031.70332	2.61487
3029.77476	2.57044
3027.84619	2.52655
3025.91763	2.48224
3023.98906	2.43783
3022.06050	2.39493
3020.13193	2.35370
3018.20337	2.31319
3016.27480	2.27304
3014.34624	2.23286
3012.41768	2.19268
3010.48911	2.15316
3008.56055	2.11468
3006.63198	2.07711
3004.70342	2.04044
3002.77485	2.00464
3000.84629	1.96904
2998.91772	1.93359
2996.98916	1.89876
2995.06060	1.86448
2993.13203	1.83080
2991.20347	1.79793
2989.27490	1.76568
2987.34634	1.73369
2985.41777	1.70214
2983.48921	1.67142
2981.56064	1.64128
2979.63208	1.61136
2977.70352	1.58167
2975.77495	1.55228
2973.84639	1.52332
2971.91782	1.49479
2969.98926	1.46672
2968.06069	1.43911
2966.13213	1.41230
2964.20356	1.38635
2962.27500	1.36086
2960.34644	1.33575
2958.41787	1.31109
2956.48931	1.28678
2954.56074	1.26281
2952.63218	1.23918
2950.70361	1.21601
2948.77505	1.19336
2946.84648	1.17111
2944.91792	1.14925
2942.98936	1.12799
2941.06079	1.10709
2939.13223	1.08630
2937.20366	1.06576
2935.27510	1.04563
2933.34653	1.02643
2931.41797	1.00828
2929.48940	0.99043
2927.56084	0.97252
2925.63228	0.95460
2923.70371	0.93723
2921.77515	0.92094
2919.84658	0.90499
2917.91802	0.88837
2915.98945	0.87164
2914.06089	0.85562
2912.13232	0.83996
2910.20376	0.82448
2908.27520	0.80934
2906.34663	0.79484
2904.41807	0.78119
2902.48950	0.76811
2900.56094	0.75513
2898.63237	0.74213
2896.70381	0.72950
2894.77524	0.71736
2892.84668	0.70530
2890.91812	0.69331
2888.98955	0.68155
2887.06099	0.66981
2885.13242	0.65822
2883.20386	0.64694
2881.27529	0.63569
2879.34673	0.62450
2877.41816	0.61361
2875.48960	0.60301
2873.56104	0.59281
2871.63247	0.58288
2869.70391	0.57273
2867.77534	0.56249
2865.84678	0.55270
2863.91821	0.54341
2861.98965	0.53416
2860.06108	0.52489
2858.13252	0.51606
2856.20396	0.50768
2854.27539	0.49945
2852.34683	0.49121
2850.41826	0.48319
2848.48970	0.47554
2846.56113	0.46798
2844.63257	0.46040
2842.70400	0.45324
2840.77544	0.44683
2838.84687	0.44085
2836.91831	0.43488
2834.98975	0.42884
2833.06118	0.42279
2831.13262	0.41688
2829.20405	0.41109
2827.27549	0.40529
2825.34692	0.39952
2823.41836	0.39366
2821.48979	0.38776
2819.56123	0.38205
2817.63267	0.37657
2815.70410	0.37117
2813.77554	0.36572
2811.84697	0.36022
2809.91841	0.35480
2807.98984	0.34963
2806.06128	0.34471
2804.13271	0.33978
2802.20415	0.33472
2800.27559	0.32976
2798.34702	0.32513
2796.41846	0.32073
2794.48989	0.31635
2792.56133	0.31196
2790.63276	0.30769
2788.70420	0.30357
2786.77563	0.29957
2784.84707	0.29571
2782.91851	0.29182
2780.98994	0.28782
2779.06138	0.28390
2777.13281	0.28015
2775.20425	0.27658
2773.27568	0.27311
2771.34712	0.26965
2769.41855	0.26623
2767.48999	0.26287
2765.56143	0.25961
2763.63286	0.25647
2761.70430	0.25338
2759.77573	0.25038
2757.84717	0.24739
2755.91860	0.24442
2753.99004	0.24163
2752.06147	0.23888
2750.13291	0.23602
2748.20435	0.23315
2746.27578	0.23053
2744.34722	0.22815
2742.41865	0.22572
2740.49009	0.22323
2738.56152	0.22086
2736.63296	0.21859
2734.70439	0.21629
2732.77583	0.21399
2730.84727	0.21172
2728.91870	0.20964
2726.99014	0.20772
2725.06157	0.20575
2723.13301	0.20372
2721.20444	0.20170
2719.27588	0.19965
2717.34731	0.19761
2715.41875	0.19577
2713.49019	0.19410
2711.56162	0.19242
2709.63306	0.19082
2707.70449	0.18936
2705.77593	0.18790
2703.84736	0.18629
2701.91880	0.18469
2699.99023	0.18331
2698.06167	0.18208
2696.13311	0.18080
2694.20454	0.17939
2692.27598	0.17797
2690.34741	0.17668
2688.41885	0.17547
2686.49028	0.17418
2684.56172	0.17294
2682.63315	0.17191
2680.70459	0.17095
2678.77603	0.16989
2676.84746	0.16874
2674.91890	0.16765
2672.99033	0.16662
2671.06177	0.16564
2669.13320	0.16472
2667.20464	0.16380
2665.27607	0.16292
2663.34751	0.16213
2661.41895	0.16133
2659.49038	0.16061
2657.56182	0.16001
2655.63325	0.15944
2653.70469	0.15897
2651.77612	0.15861
2649.84756	0.15807
2647.91899	0.15733
2645.99043	0.15669
2644.06187	0.15630
2642.13330	0.15603
2640.20474	0.15568
2638.27617	0.15533
2636.34761	0.15494
2634.41904	0.15437
2632.49048	0.15388
2630.56191	0.15369
2628.63335	0.15356
2626.70479	0.15337
2624.77622	0.15314
2622.84766	0.15292
2620.91909	0.15281
2618.99053	0.15265
2617.06196	0.15236
2615.13340	0.15227
2613.20483	0.15236
2611.27627	0.15243
2609.34771	0.15246
2607.41914	0.15244
2605.49058	0.15239
2603.56201	0.15238
2601.63345	0.15238
2599.70488	0.15239
2597.77632	0.15253
2595.84775	0.15279
2593.91919	0.15297
2591.99062	0.15314
2590.06206	0.15344
2588.13350	0.15380
2586.20493	0.15405
2584.27637	0.15422
2582.34780	0.15453
2580.41924	0.15494
2578.49067	0.15527
2576.56211	0.15547
2574.63354	0.15576
2572.70498	0.15627
2570.77642	0.15689
2568.84785	0.15752
2566.91929	0.15814
2564.99072	0.15869
2563.06216	0.15923
2561.13359	0.15973
2559.20503	0.16017
2557.27646	0.16061
2555.34790	0.16110
2553.41934	0.16166
2551.49077	0.16221
2549.56221	0.16278
2547.63364	0.16342
2545.70508	0.16423
2543.77651	0.16506
2541.84795	0.16568
2539.91938	0.16619
2537.99082	0.16678
2536.06226	0.16760
2534.13369	0.16862
2532.20513	0.16955
2530.27656	0.17024
2528.34800	0.17086
2526.41943	0.17161
2524.49087	0.17254
2522.56230	0.17349
2520.63374	0.17429
2518.70518	0.17501
2516.77661	0.17588
2514.84805	0.17686
2512.91948	0.17775
2510.99092	0.17848
2509.06235	0.17922
2507.13379	0.18010
2505.20522	0.18107
2503.27666	0.18207
2501.34810	0.18307
2499.41953	0.18404
2497.49097	0.18488
2495.56240	0.18566
2493.63384	0.18658
2491.70527	0.18768
2489.77671	0.18868
2487.84814	0.18948
2485.91958	0.19036
2483.99102	0.19149
2482.06245	0.19264
2480.13389	0.19356
2478.20532	0.19432
2476.27676	0.19515
2474.34819	0.19616
2472.41963	0.19723
2470.49106	0.19825
2468.56250	0.19923
2466.63394	0.20025
2464.70537	0.20134
2462.77681	0.20242
2460.84824	0.20341
2458.91968	0.20442
2456.99111	0.20549
2455.06255	0.20660
2453.13398	0.20767
2451.20542	0.20865
2449.27686	0.20968
2447.34829	0.21087
2445.41973	0.21202
2443.49116	0.21308
2441.56260	0.21405
2439.63403	0.21497
2437.70547	0.21600
2435.77690	0.21717
2433.84834	0.21836
2431.91978	0.21950
2429.99121	0.22061
2428.06265	0.22166
2426.13408	0.22268
2424.20552	0.22380
2422.27695	0.22504
2420.34839	0.22624
2418.41982	0.22733
2416.49126	0.22848
2414.56270	0.22971
2412.63413	0.23096
2410.70557	0.23221
2408.77700	0.23353
2406.84844	0.23490
2404.91987	0.23622
2402.99131	0.23749
2401.06274	0.23875
2399.13418	0.23996
2397.20562	0.24116
2395.27705	0.24241
2393.34849	0.24364
2391.41992	0.24495
2389.49136	0.24630
2387.56279	0.24743
2385.63423	0.24820
2383.70566	0.24859
2381.77710	0.24864
2379.84854	0.24854
2377.91997	0.24837
2375.99141	0.24794
2374.06284	0.24701
2372.13428	0.24571
2370.20571	0.24472
2368.27715	0.24406
2366.34858	0.24292
2364.42002	0.24167
2362.49146	0.24184
2360.56289	0.24229
2358.63433	0.24258
2356.70576	0.24599
2354.77720	0.25175
2352.84863	0.25689
2350.92007	0.26111
2348.99150	0.26365
2347.06294	0.26399
2345.13437	0.26310
2343.20581	0.26296
2341.27725	0.26451
2339.34868	0.26652
2337.42012	0.26798
2335.49155	0.26972
2333.56299	0.27235
2331.63442	0.27517
2329.70586	0.27787
2327.77729	0.28071
2325.84873	0.28362
2323.92017	0.28638
2321.99160	0.28917
2320.06304	0.29188
2318.13447	0.29442
2316.20591	0.29707
2314.27734	0.29984
2312.34878	0.30239
2310.42021	0.30478
2308.49165	0.30731
2306.56309	0.30999
2304.63452	0.31255
2302.70596	0.31493
2300.77739	0.31718
2298.84883	0.31941
2296.92026	0.32172
2294.99170	0.32414
2293.06313	0.32663
2291.13457	0.32902
2289.20601	0.33120
2287.27744	0.33336
2285.34888	0.33565
2283.42031	0.33789
2281.49175	0.34000
2279.56318	0.34203
2277.63462	0.34401
2275.70605	0.34595
2273.77749	0.34789
2271.84893	0.35002
2269.92036	0.35226
2267.99180	0.35438
2266.06323	0.35646
2264.13467	0.35869
2262.20610	0.36099
2260.27754	0.36327
2258.34897	0.36553
2256.42041	0.36778
2254.49185	0.37001
2252.56328	0.37231
2250.63472	0.37470
2248.70615	0.37704
2246.77759	0.37934
2244.84902	0.38164
2242.92046	0.38394
2240.99189	0.38628
2239.06333	0.38857
2237.13477	0.39081
2235.20620	0.39313
2233.27764	0.39546
2231.34907	0.39767
2229.42051	0.39993
2227.49194	0.40228
2225.56338	0.40454
2223.63481	0.40680
2221.70625	0.40911
2219.77769	0.41143
2217.84912	0.41375
2215.92056	0.41600
2213.99199	0.41811
2212.06343	0.42019
2210.13486	0.42232
2208.20630	0.42448
2206.27773	0.42660
2204.34917	0.42869
2202.42061	0.43078
2200.49204	0.43289
2198.56348	0.43503
2196.63491	0.43708
2194.70635	0.43906
2192.77778	0.44102
2190.84922	0.44298
2188.92065	0.44507
2186.99209	0.44713
2185.06353	0.44892
2183.13496	0.45057
2181.20640	0.45230
2179.27783	0.45408
2177.34927	0.45576
2175.42070	0.45733
2173.49214	0.45892
2171.56357	0.46049
2169.63501	0.46196
2167.70645	0.46331
2165.77788	0.46457
2163.84932	0.46579
2161.92075	0.46703
2159.99219	0.46820
2158.06362	0.46917
2156.13506	0.46992
2154.20649	0.47067
2152.27793	0.47157
2150.34937	0.47242
2148.42080	0.47312
2146.49224	0.47372
2144.56367	0.47410
2142.63511	0.47434
2140.70654	0.47473
2138.77798	0.47521
2136.84941	0.47549
2134.92085	0.47548
2132.99229	0.47537
2131.06372	0.47525
2129.13516	0.47506
2127.20659	0.47482
2125.27803	0.47455
2123.34946	0.47414
2121.42090	0.47355
2119.49233	0.47285
2117.56377	0.47210
2115.63521	0.47133
2113.70664	0.47064
2111.77808	0.46988
2109.84951	0.46885
2107.92095	0.46765
2105.99238	0.46645
2104.06382	0.46524
2102.13525	0.46401
2100.20669	0.46277
2098.27812	0.46144
2096.34956	0.45991
2094.42100	0.45821
2092.49243	0.45647
2090.56387	0.45467
2088.63530	0.45287
2086.70674	0.45117
2084.77817	0.44934
2082.84961	0.44731
2080.92104	0.44522
2078.99248	0.44308
2077.06392	0.44085
2075.13535	0.43860
2073.20679	0.43635
2071.27822	0.43414
2069.34966	0.43192
2067.42109	0.42954
2065.49253	0.42706
2063.56396	0.42466
2061.63540	0.42233
2059.70684	0.41990
2057.77827	0.41722
2055.84971	0.41440
2053.92114	0.41165
2051.99258	0.40905
2050.06401	0.40641
2048.13545	0.40367
2046.20688	0.40091
2044.27832	0.39811
2042.34976	0.39528
2040.42119	0.39250
2038.49263	0.38973
2036.56406	0.38695
2034.63550	0.38419
2032.70693	0.38142
2030.77837	0.37859
2028.84980	0.37571
2026.92124	0.37285
2024.99268	0.37004
2023.06411	0.36719
2021.13555	0.36423
2019.20698	0.36123
2017.27842	0.35828
2015.34985	0.35538
2013.42129	0.35254
2011.49272	0.34973
2009.56416	0.34701
2007.63560	0.34430
2005.70703	0.34148
2003.77847	0.33864
2001.84990	0.33591
1999.92134	0.33323
1997.99277	0.33049
1996.06421	0.32778
1994.13564	0.32514
1992.20708	0.32247
1990.27852	0.31983
1988.34995	0.31735
1986.42139	0.31488
1984.49282	0.31240
1982.56426	0.30996
1980.63569	0.30753
1978.70713	0.30515
1976.77856	0.30277
1974.85000	0.30038
1972.92144	0.29810
1970.99287	0.29602
1969.06431	0.29396
1967.13574	0.29179
1965.20718	0.28964
1963.27861	0.28765
1961.35005	0.28579
1959.42148	0.28387
1957.49292	0.28183
1955.56436	0.27984
1953.63579	0.27807
1951.70723	0.27641
1949.77866	0.27476
1947.85010	0.27307
1945.92153	0.27140
1943.99297	0.26977
1942.06440	0.26819
1940.13584	0.26670
1938.20728	0.26531
1936.27871	0.26405
1934.35015	0.26280
1932.42158	0.26149
1930.49302	0.26018
1928.56445	0.25888
1926.63589	0.25762
1924.70732	0.25650
1922.77876	0.25548
1920.85020	0.25447
1918.92163	0.25349
1916.99307	0.25260
1915.06450	0.25182
1913.13594	0.25104
1911.20737	0.25025
1909.27881	0.24945
1907.35024	0.24872
1905.42168	0.24807
1903.49312	0.24748
1901.56455	0.24697
1899.63599	0.24647
1897.70742	0.24592
1895.77886	0.24540
1893.85029	0.24504
1891.92173	0.24473
1889.99316	0.24442
1888.06460	0.24417
1886.13604	0.24401
1884.20747	0.24380
1882.27891	0.24349
1880.35034	0.24332
1878.42178	0.24333
1876.49321	0.24340
1874.56465	0.24339
1872.63608	0.24335
1870.70752	0.24324
1868.77896	0.24332
1866.85039	0.24377
1864.92183	0.24419
1862.99326	0.24441
1861.06470	0.24455
1859.13613	0.24488
1857.20757	0.24533
1855.27900	0.24579
1853.35044	0.24619
1851.42187	0.24667
1849.49331	0.24721
1847.56475	0.24770
1845.63618	0.24822
1843.70762	0.24908
1841.77905	0.25021
1839.85049	0.25105
1837.92192	0.25182
1835.99336	0.25262
1834.06479	0.25347
1832.13623	0.25428
1830.20767	0.25535
1828.27910	0.25677
1826.35054	0.25803
1824.42197	0.25946
1822.49341	0.26099
1820.56484	0.26242
1818.63628	0.26382
1816.70771	0.26542
1814.77915	0.26712
1812.85059	0.26883
1810.92202	0.27069
1808.99346	0.27274
1807.06489	0.27488
1805.13633	0.27690
1803.20776	0.27901
1801.27920	0.28136
1799.35063	0.28418
1797.42207	0.28690
1795.49351	0.28928
1793.56494	0.29179
1791.63638	0.29534
1789.70781	0.29935
1787.77925	0.30243
1785.85068	0.30563
1783.92212	0.30936
1781.99355	0.31327
1780.06499	0.31738
1778.13643	0.32178
1776.20786	0.32588
1774.27930	0.32992
1772.35073	0.33543
1770.42217	0.34202
1768.49360	0.34788
1766.56504	0.35353
1764.63647	0.35917
1762.70791	0.36505
1760.77935	0.37244
1758.85078	0.37954
1756.92222	0.38675
1754.99365	0.39481
1753.06509	0.40200
1751.13652	0.40998
1749.20796	0.42008
1747.27939	0.43063
1745.35083	0.44028
1743.42227	0.45029
1741.49370	0.46116
1739.56514	0.47398
1737.63657	0.48673
1735.70801	0.49752
1733.77944	0.51367
1731.85088	0.53390
1729.92231	0.55036
1727.99375	0.56699
1726.06519	0.58462
1724.13662	0.60349
1722.20806	0.62368
1720.27949	0.64215
1718.35093	0.66332
1716.42236	0.69521
1714.49380	0.72687
1712.56523	0.75274
1710.63667	0.77735
1708.70811	0.80312
1706.77954	0.83191
1704.85098	0.86640
1702.92241	0.89723
1700.99385	0.92705
1699.06528	0.97156
1697.13672	1.01294
1695.20815	1.05528
1693.27959	1.09632
1691.35103	1.12832
1689.42246	1.16433
1687.49390	1.20217
1685.56533	1.23823
1683.63677	1.29372
1681.70820	1.35247
1679.77964	1.39010
1677.85107	1.42524
1675.92251	1.46466
1673.99395	1.51333
1672.06538	1.55673
1670.13682	1.59869
1668.20825	1.65391
1666.27969	1.69796
1664.35112	1.73287
1662.42256	1.77509
1660.49399	1.82356
1658.56543	1.86159
1656.63687	1.89211
1654.70830	1.92043
1652.77974	1.97139
1650.85117	2.02532
1648.92261	2.04740
1646.99404	2.07748
1645.06548	2.11105
1643.13691	2.13327
1641.20835	2.14821
1639.27979	2.16168
1637.35122	2.17051
1635.42266	2.17425
1633.49409	2.17188
1631.56553	2.16226
1629.63696	2.14863
1627.70840	2.12491
1625.77983	2.09822
1623.85127	2.06412
1621.92271	2.02186
1619.99414	1.98406
1618.06558	1.94494
1616.13701	1.88730
1614.20845	1.82997
1612.27988	1.78730
1610.35132	1.74118
1608.42275	1.68934
1606.49419	1.63707
1604.56562	1.58825
1602.63706	1.54092
1600.70850	1.49474
1598.77993	1.45204
1596.85137	1.41166
1594.92280	1.37238
1592.99424	1.33424
1591.06567	1.29894
1589.13711	1.26534
1587.20854	1.23357
1585.27998	1.20379
1583.35142	1.17534
1581.42285	1.14875
1579.49429	1.12552
1577.56572	1.10383
1575.63716	1.07665
1573.70859	1.05259
1571.78003	1.03640
1569.85146	1.01825
1567.92290	0.99742
1565.99434	0.98087
1564.06577	0.96632
1562.13721	0.95365
1560.20864	0.94203
1558.28008	0.92146
1556.35151	0.90416
1554.42295	0.89444
1552.49438	0.88416
1550.56582	0.87358
1548.63726	0.86298
1546.70869	0.85363
1544.78013	0.84485
1542.85156	0.83603
1540.92300	0.82671
1538.99443	0.81501
1537.06587	0.80687
1535.13730	0.80119
1533.20874	0.79403
1531.28018	0.78662
1529.35161	0.78091
1527.42305	0.77516
1525.49448	0.76884
1523.56592	0.76251
1521.63735	0.75580
1519.70879	0.74931
1517.78022	0.74416
1515.85166	0.73927
1513.92310	0.73483
1511.99453	0.73088
1510.06597	0.72700
1508.13740	0.72296
1506.20884	0.71730
1504.28027	0.71283
1502.35171	0.70981
1500.42314	0.70658
1498.49458	0.70292
1496.56602	0.69914
1494.63745	0.69600
1492.70889	0.69326
1490.78032	0.69006
1488.85176	0.68616
1486.92319	0.68287
1484.99463	0.68020
1483.06606	0.67757
1481.13750	0.67476
1479.20894	0.67189
1477.28037	0.66911
1475.35181	0.66632
1473.42324	0.66331
1471.49468	0.65991
1469.56611	0.65702
1467.63755	0.65460
1465.70898	0.65202
1463.78042	0.64932
1461.85186	0.64708
1459.92329	0.64505
1457.99473	0.64225
1456.06616	0.63878
1454.13760	0.63672
1452.20903	0.63549
1450.28047	0.63411
1448.35190	0.63245
1446.42334	0.63076
1444.49478	0.62923
1442.56621	0.62769
1440.63765	0.62618
1438.70908	0.62479
1436.78052	0.62343
1434.85195	0.62204
1432.92339	0.62060
1430.99482	0.61924
1429.06626	0.61792
1427.13770	0.61647
1425.20913	0.61483
1423.28057	0.61314
1421.35200	0.61152
1419.42344	0.60979
1417.49487	0.60818
1415.56631	0.60690
1413.63774	0.60558
1411.70918	0.60420
1409.78062	0.60291
1407.85205	0.60152
1405.92349	0.59993
1403.99492	0.59832
1402.06636	0.59684
1400.13779	0.59545
1398.20923	0.59402
1396.28066	0.59260
1394.35210	0.59130
1392.42354	0.59011
1390.49497	0.58886
1388.56641	0.58754
1386.63784	0.58638
1384.70928	0.58534
1382.78071	0.58424
1380.85215	0.58309
1378.92358	0.58201
1376.99502	0.58103
1375.06646	0.58009
1373.13789	0.57913
1371.20933	0.57819
1369.28076	0.57725
1367.35220	0.57620
1365.42363	0.57504
1363.49507	0.57387
1361.56650	0.57296
1359.63794	0.57230
1357.70937	0.57159
1355.78081	0.57068
1353.85225	0.56968
1351.92368	0.56885
1349.99512	0.56812
1348.06655	0.56722
1346.13799	0.56614
1344.20942	0.56505
1342.28086	0.56400
1340.35229	0.56298
1338.42373	0.56204
1336.49517	0.56124
1334.56660	0.56049
1332.63804	0.55969
1330.70947	0.55882
1328.78091	0.55796
1326.85234	0.55721
1324.92378	0.55642
1322.99521	0.55550
1321.06665	0.55461
1319.13809	0.55375
1317.20952	0.55287
1315.28096	0.55205
1313.35239	0.55122
1311.42383	0.55033
1309.49526	0.54956
1307.56670	0.54894
1305.63813	0.54827
1303.70957	0.54750
1301.78101	0.54673
1299.85244	0.54601
1297.92388	0.54529
1295.99531	0.54449
1294.06675	0.54363
1292.13818	0.54287
1290.20962	0.54219
1288.28105	0.54144
1286.35249	0.54078
1284.42393	0.54037
1282.49536	0.53989
1280.56680	0.53925
1278.63823	0.53881
1276.70967	0.53857
1274.78110	0.53823
1272.85254	0.53774
1270.92397	0.53723
1268.99541	0.53679
1267.06685	0.53637
1265.13828	0.53591
1263.20972	0.53546
1261.28115	0.53511
1259.35259	0.53487
1257.42402	0.53459
1255.49546	0.53433
1253.56689	0.53423
1251.63833	0.53420
1249.70977	0.53412
1247.78120	0.53391
1245.85264	0.53352
1243.92407	0.53302
1241.99551	0.53263
1240.06694	0.53236
1238.13838	0.53198
1236.20981	0.53147
1234.28125	0.53091
1232.35269	0.53038
1230.42412	0.52991
1228.49556	0.52949
1226.56699	0.52906
1224.63843	0.52843
1222.70986	0.52747
1220.78130	0.52648
1218.85273	0.52576
1216.92417	0.52517
1214.99561	0.52457
1213.06704	0.52399
1211.13848	0.52337
1209.20991	0.52273
1207.28135	0.52216
1205.35278	0.52159
1203.42422	0.52097
1201.49565	0.52033
1199.56709	0.51966
1197.63853	0.51905
1195.70996	0.51860
1193.78140	0.51823
1191.85283	0.51785
1189.92427	0.51753
1187.99570	0.51722
1186.06714	0.51686
1184.13857	0.51650
1182.21001	0.51639
1180.28145	0.51659
1178.35288	0.51689
1176.42432	0.51715
1174.49575	0.51748
1172.56719	0.51787
1170.63862	0.51821
1168.71006	0.51850
1166.78149	0.51873
1164.85293	0.51887
1162.92437	0.51899
1160.99580	0.51908
1159.06724	0.51880
1157.13867	0.51801
1155.21011	0.51702
1153.28154	0.51595
1151.35298	0.51466
1149.42441	0.51310
1147.49585	0.51112
1145.56729	0.50890
1143.63872	0.50673
1141.71016	0.50444
1139.78159	0.50198
1137.85303	0.49972
1135.92446	0.49765
1133.99590	0.49552
1132.06733	0.49338
1130.13877	0.49148
1128.21021	0.48985
1126.28164	0.48832
1124.35308	0.48687
1122.42451	0.48568
1120.49595	0.48492
1118.56738	0.48460
1116.63882	0.48453
1114.71025	0.48454
1112.78169	0.48461
1110.85312	0.48498
1108.92456	0.48570
1106.99600	0.48666
1105.06743	0.48788
1103.13887	0.48940
1101.21030	0.49117
1099.28174	0.49329
1097.35317	0.49594
1095.42461	0.49905
1093.49604	0.50248
1091.56748	0.50638
1089.63892	0.51112
1087.71035	0.51678
1085.78179	0.52300
1083.85322	0.52939
1081.92466	0.53562
1079.99609	0.54120
1078.06753	0.54529
1076.13896	0.54690
1074.21040	0.54544
1072.28184	0.54113
1070.35327	0.53507
1068.42471	0.52861
1066.49614	0.52239
1064.56758	0.51645
1062.63901	0.51094
1060.71045	0.50607
1058.78188	0.50166
1056.85332	0.49772
1054.92476	0.49443
1052.99619	0.49156
1051.06763	0.48899
1049.13906	0.48680
1047.21050	0.48485
1045.28193	0.48307
1043.35337	0.48156
1041.42480	0.48040
1039.49624	0.47971
1037.56768	0.47940
1035.63911	0.47929
1033.71055	0.47931
1031.78198	0.47947
1029.85342	0.47968
1027.92485	0.47984
1025.99629	0.48015
1024.06772	0.48084
1022.13916	0.48172
1020.21060	0.48264
1018.28203	0.48376
1016.35347	0.48503
1014.42490	0.48628
1012.49634	0.48751
1010.56777	0.48882
1008.63921	0.49019
1006.71064	0.49181
1004.78208	0.49386
1002.85352	0.49621
1000.92495	0.49885
998.99639	0.50193
997.06782	0.50541
995.13926	0.50922
993.21069	0.51307
991.28213	0.51643
989.35356	0.51899
987.42500	0.52079
985.49644	0.52207
983.56787	0.52314
981.63931	0.52422
979.71074	0.52560
977.78218	0.52756
975.85361	0.53011
973.92505	0.53317
971.99648	0.53652
970.06792	0.54012
968.13936	0.54395
966.21079	0.54794
964.28223	0.55230
962.35366	0.55731
960.42510	0.56267
958.49653	0.56817
956.56797	0.57402
954.63940	0.58016
952.71084	0.58634
950.78228	0.59274
948.85371	0.59936
946.92515	0.60581
944.99658	0.61203
943.06802	0.61833
941.13945	0.62454
939.21089	0.63033
937.28232	0.63601
935.35376	0.64184
933.42520	0.64758
931.49663	0.65338
929.56807	0.65925
927.63950	0.66495
925.71094	0.67100
923.78237	0.67773
921.85381	0.68450
919.92524	0.69117
917.99668	0.69834
916.06812	0.70593
914.13955	0.71352
912.21099	0.72136
910.28242	0.72990
908.35386	0.73878
906.42529	0.74725
904.49673	0.75562
902.56816	0.76462
900.63960	0.77415
898.71104	0.78398
896.78247	0.79429
894.85391	0.80436
892.92534	0.81392
890.99678	0.82418
889.06821	0.83521
887.13965	0.84608
885.21108	0.85665
883.28252	0.86737
881.35396	0.87808
879.42539	0.88891
877.49683	0.90103
875.56826	0.91391
873.63970	0.92623
871.71113	0.93813
869.78257	0.94928
867.85400	0.95955
865.92544	0.97059
863.99687	0.98241
862.06831	0.99364
860.13975	1.00508
858.21118	1.01731
856.28262	1.02949
854.35405	1.04161
852.42549	1.05324
850.49692	1.06427
848.56836	1.07529
846.63979	1.08614
844.71123	1.09793
842.78267	1.11120
840.85410	1.12471
838.92554	1.13754
836.99697	1.14793
835.06841	1.15559
833.13984	1.16539
831.21128	1.17996
829.28271	1.19611
827.35415	1.20886
825.42559	1.21383
823.49702	1.21758
821.56846	1.22785
819.63989	1.23717
817.71133	1.24168
815.78276	1.25460
813.85420	1.28067
811.92563	1.30253
809.99707	1.31365
808.06851	1.33456
806.13994	1.36668
804.21138	1.37811
802.28281	1.37349
800.35425	1.38084
798.42568	1.38121
796.49712	1.36288
794.56855	1.36595
792.63999	1.40910
790.71143	1.45990
788.78286	1.47634
786.85430	1.45084
784.92573	1.43034
782.99717	1.45367
781.06860	1.44776
779.14004	1.35786
777.21147	1.32786
775.28291	1.41595
773.35435	1.49515
771.42578	1.44529
769.49722	1.37786
767.56865	1.36940
765.64009	1.39932
763.71152	1.45614
761.78296	1.51794
759.85439	1.53536
757.92583	1.61713
755.99727	1.78271
754.06870	1.83022
752.14014	1.66241
750.21157	1.58442
748.28301	1.68593
746.35444	1.62276
744.42588	1.33280
742.49731	1.25365
740.56875	1.28404
738.64019	1.17980
736.71162	1.06835
734.78306	1.05439
732.85449	1.03688
730.92593	0.93396
728.99736	0.80174
727.06880	0.70084
725.14023	0.64932
723.21167	0.55377
721.28311	0.40603
719.35454	0.31632
717.42598	0.29658
715.49741	0.26941
713.56885	0.17382
711.64028	0.02763
709.71172	-0.08124
707.78315	-0.09839
705.85459	-0.14271
703.92603	-0.17279
701.99746	-0.11661
700.06890	-0.05261
698.14033	-0.03486
696.21177	-0.02588
694.28320	-0.03509
692.35464	0.00230
690.42607	0.13318
688.49751	0.26385
686.56895	0.20411
684.64038	0.10506
682.71182	0.09359
680.78325	0.12104
678.85469	0.13895
676.92612	0.10413
674.99756	0.02973
673.06899	-0.00600
671.14043	0.11872
669.21187	0.34544
667.28330	0.27995
665.35474	0.07227
663.42617	-0.00783
661.49761	0.02193
659.56904	0.06816
657.64048	0.08474
655.71191	0.08022
653.78335	0.07564
651.85479	0.07115
649.92622	0.09684
647.99766	0.20691
646.06909	0.19671
644.14053	0.09693
642.21196	0.06042
640.28340	0.11052
638.35483	0.15553
636.42627	0.07991
634.49771	-0.03338
632.56914	-0.05982
630.64058	-0.06132
628.71201	-0.03880
626.78345	0.04509
624.85488	0.09920
622.92632	0.07879
620.99775	0.06208
619.06919	0.11507
617.14062	0.19135
615.21206	0.24020
613.28350	0.25744
611.35493	0.26515
609.42637	0.24413
607.49780	0.19567
605.56924	0.14275
603.64067	0.08774
601.71211	0.05293
599.78354	-0.00571
597.85498	-0.03278
595.92642	0.01710
593.99785	0.06492
592.06929	0.04707
590.14072	-0.00797
588.21216	-0.01888
586.28359	0.09078
584.35503	0.19736
582.42646	0.13670
580.49790	0.05413
578.56934	0.04442
576.64077	0.07315
574.71221	0.10733
572.78364	0.11126
570.85508	0.06046
568.92651	0.00246
566.99795	-0.00012
565.06938	0.02506
563.14082	0.04809
561.21226	0.03712
559.28369	0.01307
557.35513	0.02220
555.42656	0.08636
553.49800	0.17640
551.56943	0.22656
549.64087	0.17907
547.71230	0.10738
545.78374	0.08741
543.85518	0.10173
541.92661	0.10227
539.99805	0.07349
538.06948	0.07723
536.14092	0.14434
534.21235	0.19872
532.28379	0.15728
530.35522	0.11759
528.42666	0.11980
526.49810	0.18633
524.56953	0.26322
522.64097	0.29125
520.71240	0.28944
518.78384	0.20259
516.85527	0.07619
514.92671	0.01405
512.99814	0.03401
511.06958	0.11053
509.14102	0.19185
507.21245	0.23719
505.28389	0.21786
503.35532	0.18949
501.42676	0.20803
499.49819	0.26360
