3997.91411	0.05760
3995.98555	0.05812
3994.05698	0.05947
3992.12842	0.06056
3990.19985	0.06089
3988.27129	0.06047
3986.34272	0.05991
3984.41416	0.06006
3982.48560	0.06052
3980.55703	0.06071
3978.62847	0.06097
3976.69990	0.06180
3974.77134	0.06293
3972.84277	0.06354
3970.91421	0.06339
3968.98564	0.06320
3967.05708	0.06330
3965.12852	0.06357
3963.19995	0.06410
3961.27139	0.06479
3959.34282	0.06519
3957.41426	0.06520
3955.48569	0.06521
3953.55713	0.06561
3951.62856	0.06704
3949.70000	0.06962
3947.77144	0.07109
3945.84287	0.07008
3943.91431	0.06963
3941.98574	0.07029
3940.05718	0.06882
3938.12861	0.06630
3936.20005	0.06560
3934.27148	0.06723
3932.34292	0.07047
3930.41436	0.07256
3928.48579	0.07160
3926.55723	0.07055
3924.62866	0.07171
3922.70010	0.07233
3920.77153	0.07117
3918.84297	0.07139
3916.91440	0.07253
3914.98584	0.07072
3913.05728	0.06669
3911.12871	0.06409
3909.20015	0.06401
3907.27158	0.06695
3905.34302	0.07436
3903.41445	0.08389
3901.48589	0.08840
3899.55732	0.08606
3897.62876	0.07956
3895.70020	0.07298
3893.77163	0.07149
3891.84307	0.07507
3889.91450	0.07671
3887.98594	0.07462
3886.05737	0.07566
3884.12881	0.07944
3882.20024	0.08133
3880.27168	0.08172
3878.34312	0.07845
3876.41455	0.07434
3874.48599	0.07612
3872.55742	0.08219
3870.62886	0.08773
3868.70029	0.08949
3866.77173	0.08716
3864.84316	0.08741
3862.91460	0.08904
3860.98604	0.08506
3859.05747	0.08003
3857.12891	0.08067
3855.20034	0.08792
3853.27178	0.10028
3851.34321	0.10322
3849.41465	0.09148
3847.48608	0.08143
3845.55752	0.07858
3843.62896	0.08272
3841.70039	0.09066
3839.77183	0.09922
3837.84326	0.10522
3835.91470	0.10327
3833.98613	0.09684
3832.05757	0.09229
3830.12900	0.08961
3828.20044	0.08871
3826.27187	0.09016
3824.34331	0.09286
3822.41475	0.09867
3820.48618	0.10791
3818.55762	0.11007
3816.62905	0.10610
3814.70049	0.10150
3812.77192	0.09484
3810.84336	0.09065
3808.91479	0.09258
3806.98623	0.09953
3805.05767	0.10564
3803.12910	0.10993
3801.20054	0.11601
3799.27197	0.11722
3797.34341	0.11283
3795.41484	0.10865
3793.48628	0.10368
3791.55771	0.09991
3789.62915	0.09957
3787.70059	0.10174
3785.77202	0.10566
3783.84346	0.10953
3781.91489	0.11175
3779.98633	0.11470
3778.05776	0.11723
3776.12920	0.11553
3774.20063	0.11361
3772.27207	0.11581
3770.34351	0.12207
3768.41494	0.12837
3766.48638	0.13106
3764.55781	0.13151
3762.62925	0.13130
3760.70068	0.13411
3758.77212	0.14132
3756.84355	0.14692
3754.91499	0.14954
3752.98643	0.15628
3751.05786	0.16998
3749.12930	0.17984
3747.20073	0.17859
3745.27217	0.17840
3743.34360	0.18166
3741.41504	0.18224
3739.48647	0.18352
3737.55791	0.19121
3735.62935	0.20621
3733.70078	0.21831
3731.77222	0.21672
3729.84365	0.21122
3727.91509	0.21143
3725.98652	0.21811
3724.05796	0.22656
3722.12939	0.23213
3720.20083	0.23448
3718.27227	0.23523
3716.34370	0.23756
3714.41514	0.24489
3712.48657	0.26090
3710.55801	0.28376
3708.62944	0.29794
3706.70088	0.30180
3704.77231	0.30783
3702.84375	0.32091
3700.91519	0.33914
3698.98662	0.35591
3697.05806	0.37089
3695.12949	0.38877
3693.20093	0.41029
3691.27236	0.43722
3689.34380	0.47133
3687.41523	0.50308
3685.48667	0.52392
3683.55811	0.54339
3681.62954	0.56942
3679.70098	0.60338
3677.77241	0.64319
3675.84385	0.69168
3673.91528	0.74754
3671.98672	0.78631
3670.05815	0.82305
3668.12959	0.87183
3666.20103	0.91042
3664.27246	0.94370
3662.34390	0.98432
3660.41533	1.03105
3658.48677	1.07900
3656.55820	1.13145
3654.62964	1.18849
3652.70107	1.23647
3650.77251	1.28443
3648.84395	1.35298
3646.91538	1.42121
3644.98682	1.45821
3643.05825	1.48717
3641.12969	1.52316
3639.20112	1.56634
3637.27256	1.61111
3635.34399	1.65598
3633.41543	1.70216
3631.48687	1.74757
3629.55830	1.79663
3627.62974	1.85505
3625.70117	1.89846
3623.77261	1.92500
3621.84404	1.95577
3619.91548	1.99669
3617.98691	2.04555
3616.05835	2.08745
3614.12979	2.12187
3612.20122	2.16052
3610.27266	2.19942
3608.34409	2.23886
3606.41553	2.28052
3604.48696	2.31746
3602.55840	2.35219
3600.62983	2.39276
3598.70127	2.43563
3596.77271	2.47545
3594.84414	2.51554
3592.91558	2.55554
3590.98701	2.59200
3589.05845	2.63019
3587.12988	2.67960
3585.20132	2.72673
3583.27275	2.76012
3581.34419	2.79305
3579.41562	2.83184
3577.48706	2.87426
3575.55850	2.91792
3573.62993	2.96184
3571.70137	3.00383
3569.77280	3.04757
3567.84424	3.09965
3565.91567	3.15814
3563.98711	3.20397
3562.05854	3.23863
3560.12998	3.27665
3558.20142	3.31874
3556.27285	3.36177
3554.34429	3.40520
3552.41572	3.45162
3550.48716	3.50017
3548.55859	3.54832
3546.63003	3.59622
3544.70146	3.64418
3542.77290	3.68955
3540.84434	3.73444
3538.91577	3.78265
3536.98721	3.83130
3535.05864	3.87940
3533.13008	3.92809
3531.20151	3.97875
3529.27295	4.02974
3527.34438	4.07859
3525.41582	4.12389
3523.48726	4.16870
3521.55869	4.21739
3519.63013	4.26711
3517.70156	4.31507
3515.77300	4.35865
3513.84443	4.40123
3511.91587	4.44816
3509.98730	4.49995
3508.05874	4.55435
3506.13018	4.60343
3504.20161	4.64876
3502.27305	4.70199
3500.34448	4.75700
3498.41592	4.79744
3496.48735	4.82934
3494.55879	4.87212
3492.63022	4.92930
3490.70166	4.98627
3488.77310	5.03726
3486.84453	5.08430
3484.91597	5.12749
3482.98740	5.17322
3481.05884	5.22625
3479.13027	5.28247
3477.20171	5.33684
3475.27314	5.38810
3473.34458	5.43962
3471.41602	5.48683
3469.48745	5.52405
3467.55889	5.56676
3465.63032	5.62264
3463.70176	5.67722
3461.77319	5.72784
3459.84463	5.78182
3457.91606	5.83197
3455.98750	5.88580
3454.05894	5.95548
3452.13037	6.02062
3450.20181	6.07035
3448.27324	6.11911
3446.34468	6.16802
3444.41611	6.21303
3442.48755	6.26664
3440.55898	6.32462
3438.63042	6.37890
3436.70186	6.42855
3434.77329	6.48113
3432.84473	6.54257
3430.91616	6.58373
3428.98760	6.60414
3427.05903	6.63008
3425.13047	6.66909
3423.20190	6.72380
3421.27334	6.79070
3419.34478	6.85299
3417.41621	6.91325
3415.48765	6.95912
3413.55908	6.95937
3411.63052	6.96203
3409.70195	7.01104
3407.77339	7.07746
3405.84482	7.12779
3403.91626	7.17281
3401.98770	7.23067
3400.05913	7.30438
3398.13057	7.37331
3396.20200	7.42607
3394.27344	7.46547
3392.34487	7.47464
3390.41631	7.49996
3388.48774	7.57226
3386.55918	7.65808
3384.63062	7.70190
3382.70205	7.70076
3380.77349	7.70541
3378.84492	7.73972
3376.91636	7.81257
3374.98779	7.86623
3373.05923	7.85541
3371.13066	7.84859
3369.20210	7.91813
3367.27354	8.00991
3365.34497	8.04936
3363.41641	8.00252
3361.48784	7.91697
3359.55928	7.91891
3357.63071	7.99493
3355.70215	8.05428
3353.77358	8.06603
3351.84502	8.06412
3349.91646	8.08192
3347.98789	8.15701
3346.05933	8.23705
3344.13076	8.21748
3342.20220	8.16042
3340.27363	8.12056
3338.34507	8.08600
3336.41650	8.09621
3334.48794	8.22113
3332.55937	8.35407
3330.63081	8.32849
3328.70225	8.24514
3326.77368	8.22169
3324.84512	8.22502
3322.91655	8.24782
3320.98799	8.29618
3319.05942	8.29305
3317.13086	8.27264
3315.20229	8.28942
3313.27373	8.30101
3311.34517	8.26574
3309.41660	8.24436
3307.48804	8.32521
3305.55947	8.45604
3303.63091	8.49056
3301.70234	8.44165
3299.77378	8.45630
3297.84521	8.48204
3295.91665	8.45205
3293.98809	8.40697
3292.05952	8.35591
3290.13096	8.37070
3288.20239	8.52349
3286.27383	8.66126
3284.34526	8.58217
3282.41670	8.46289
3280.48813	8.44047
3278.55957	8.46317
3276.63101	8.47020
3274.70244	8.46811
3272.77388	8.47443
3270.84531	8.49631
3268.91675	8.54965
3266.98818	8.57449
3265.05962	8.58947
3263.13105	8.62509
3261.20249	8.62866
3259.27393	8.56813
3257.34536	8.48870
3255.41680	8.43580
3253.48823	8.42663
3251.55967	8.46732
3249.63110	8.45816
3247.70254	8.44454
3245.77397	8.57200
3243.84541	8.66096
3241.91685	8.50959
3239.98828	8.35127
3238.05972	8.29440
3236.13115	8.28148
3234.20259	8.36281
3232.27402	8.52138
3230.34546	8.55702
3228.41689	8.42158
3226.48833	8.32331
3224.55977	8.40662
3222.63120	8.58449
3220.70264	8.53989
3218.77407	8.27785
3216.84551	8.09645
3214.91694	8.09724
3212.98838	8.23991
3211.05981	8.37939
3209.13125	8.39177
3207.20269	8.29933
3205.27412	8.18319
3203.34556	8.08742
3201.41699	8.00899
3199.48843	7.95798
3197.55986	7.94039
3195.63130	7.94175
3193.70273	7.91235
3191.77417	7.80197
3189.84561	7.67485
3187.91704	7.62100
3185.98848	7.62876
3184.05991	7.62906
3182.13135	7.57507
3180.20278	7.47186
3178.27422	7.38269
3176.34565	7.35123
3174.41709	7.35218
3172.48853	7.34565
3170.55996	7.30373
3168.63140	7.25459
3166.70283	7.22367
3164.77427	7.14103
3162.84570	6.99807
3160.91714	6.87896
3158.98857	6.80355
3157.06001	6.74898
3155.13145	6.69318
3153.20288	6.60687
3151.27432	6.51310
3149.34575	6.45383
3147.41719	6.40762
3145.48862	6.34123
3143.56006	6.27017
3141.63149	6.20612
3139.70293	6.14218
3137.77437	6.08186
3135.84580	6.00404
3133.91724	5.89893
3131.98867	5.80480
3130.06011	5.73671
3128.13154	5.67321
3126.20298	5.60446
3124.27441	5.53548
3122.34585	5.46634
3120.41729	5.39523
3118.48872	5.32459
3116.56016	5.25518
3114.63159	5.17878
3112.70303	5.09717
3110.77446	5.02500
3108.84590	4.96145
3106.91733	4.89292
3104.98877	4.81740
3103.06021	4.74505
3101.13164	4.67796
3099.20308	4.61022
3097.27451	4.54109
3095.34595	4.47306
3093.41738	4.40526
3091.48882	4.33733
3089.56025	4.27086
3087.63169	4.20590
3085.70312	4.14322
3083.77456	4.08206
3081.84600	4.02060
3079.91743	3.95799
3077.98887	3.89366
3076.06030	3.82992
3074.13174	3.76864
3072.20317	3.70869
3070.27461	3.64932
3068.34604	3.59083
3066.41748	3.53250
3064.48892	3.47370
3062.56035	3.41586
3060.63179	3.35989
3058.70322	3.30490
3056.77466	3.25138
3054.84609	3.19909
3052.91753	3.14617
3050.98896	3.09313
3049.06040	3.04048
3047.13184	2.98843
3045.20327	2.93860
3043.27471	2.89014
3041.34614	2.84049
3039.41758	2.79047
3037.48901	2.74234
3035.56045	2.69643
3033.63188	2.65173
3031.70332	2.60648
3029.77476	2.56067
3027.84619	2.51634
3025.91763	2.47320
3023.98906	2.43000
3022.06050	2.38750
3020.13193	2.34600
3018.20337	2.30482
3016.27480	2.26380
3014.34624	2.22394
3012.41768	2.18578
3010.48911	2.14776
3008.56055	2.10953
3006.63198	2.07224
3004.70342	2.03576
3002.77485	1.99950
3000.84629	1.96365
2998.91772	1.92900
2996.98916	1.89599
2995.06060	1.86371
2993.13203	1.83121
2991.20347	1.79921
2989.27490	1.76800
2987.34634	1.73687
2985.41777	1.70584
2983.48921	1.67566
2981.56064	1.64687
2979.63208	1.61871
2977.70352	1.59027
2975.77495	1.56217
2973.84639	1.53496
2971.91782	1.50832
2969.98926	1.48203
2968.06069	1.45595
2966.13213	1.42999
2964.20356	1.40446
2962.27500	1.37959
2960.34644	1.35470
2958.41787	1.32972
2956.48931	1.30558
2954.56074	1.28220
2952.63218	1.25879
2950.70361	1.23562
2948.77505	1.21338
2946.84648	1.19172
2944.91792	1.16992
2942.98936	1.14821
2941.06079	1.12705
2939.13223	1.10632
2937.20366	1.08544
2935.27510	1.06415
2933.34653	1.04314
2931.41797	1.02257
2929.48940	1.00169
2927.56084	0.98087
2925.63228	0.96038
2923.70371	0.93913
2921.77515	0.91765
2919.84658	0.89735
2917.91802	0.87806
2915.98945	0.86040
2914.06089	0.84620
2912.13232	0.83541
2910.20376	0.82591
2908.27520	0.81547
2906.34663	0.80343
2904.41807	0.79062
2902.48950	0.77766
2900.56094	0.76474
2898.63237	0.75215
2896.70381	0.73984
2894.77524	0.72772
2892.84668	0.71582
2890.91812	0.70411
2888.98955	0.69288
2887.06099	0.68209
2885.13242	0.67128
2883.20386	0.66051
2881.27529	0.65012
2879.34673	0.64000
2877.41816	0.62990
2875.48960	0.61993
2873.56104	0.61017
2871.63247	0.60002
2869.70391	0.58908
2867.77534	0.57787
2865.84678	0.56676
2863.91821	0.55549
2861.98965	0.54409
2860.06108	0.53289
2858.13252	0.52177
2856.20396	0.51062
2854.27539	0.49920
2852.34683	0.48700
2850.41826	0.47488
2848.48970	0.46555
2846.56113	0.46049
2844.63257	0.45783
2842.70400	0.45498
2840.77544	0.45111
2838.84687	0.44641
2836.91831	0.44112
2834.98975	0.43552
2833.06118	0.42978
2831.13262	0.42392
2829.20405	0.41798
2827.27549	0.41211
2825.34692	0.40627
2823.41836	0.40035
2821.48979	0.39448
2819.56123	0.38863
2817.63267	0.38276
2815.70410	0.37711
2813.77554	0.37173
2811.84697	0.36643
2809.91841	0.36110
2807.98984	0.35575
2806.06128	0.35048
2804.13271	0.34537
2802.20415	0.34043
2800.27559	0.33555
2798.34702	0.33068
2796.41846	0.32586
2794.48989	0.32122
2792.56133	0.31680
2790.63276	0.31254
2788.70420	0.30825
2786.77563	0.30384
2784.84707	0.29963
2782.91851	0.29564
2780.98994	0.29166
2779.06138	0.28772
2777.13281	0.28389
2775.20425	0.28011
2773.27568	0.27634
2771.34712	0.27245
2769.41855	0.26859
2767.48999	0.26504
2765.56143	0.26190
2763.63286	0.25893
2761.70430	0.25581
2759.77573	0.25243
2757.84717	0.24902
2755.91860	0.24585
2753.99004	0.24290
2752.06147	0.23997
2750.13291	0.23717
2748.20435	0.23450
2746.27578	0.23169
2744.34722	0.22878
2742.41865	0.22610
2740.49009	0.22370
2738.56152	0.22131
2736.63296	0.21870
2734.70439	0.21600
2732.77583	0.21359
2730.84727	0.21144
2728.91870	0.20930
2726.99014	0.20724
2725.06157	0.20532
2723.13301	0.20343
2721.20444	0.20136
2719.27588	0.19921
2717.34731	0.19717
2715.41875	0.19527
2713.49019	0.19349
2711.56162	0.19172
2709.63306	0.18986
2707.70449	0.18811
2705.77593	0.18654
2703.84736	0.18502
2701.91880	0.18345
2699.99023	0.18188
2698.06167	0.18046
2696.13311	0.17914
2694.20454	0.17776
2692.27598	0.17629
2690.34741	0.17491
2688.41885	0.17368
2686.49028	0.17254
2684.56172	0.17136
2682.63315	0.17006
2680.70459	0.16880
2678.77603	0.16770
2676.84746	0.16662
2674.91890	0.16550
2672.99033	0.16451
2671.06177	0.16354
2669.13320	0.16253
2667.20464	0.16155
2665.27607	0.16061
2663.34751	0.15982
2661.41895	0.15909
2659.49038	0.15825
2657.56182	0.15737
2655.63325	0.15667
2653.70469	0.15616
2651.77612	0.15550
2649.84756	0.15464
2647.91899	0.15390
2645.99043	0.15332
2644.06187	0.15270
2642.13330	0.15198
2640.20474	0.15138
2638.27617	0.15114
2636.34761	0.15101
2634.41904	0.15069
2632.49048	0.15028
2630.56191	0.14992
2628.63335	0.14958
2626.70479	0.14924
2624.77622	0.14890
2622.84766	0.14856
2620.91909	0.14827
2618.99053	0.14807
2617.06196	0.14796
2615.13340	0.14800
2613.20483	0.14802
2611.27627	0.14780
2609.34771	0.14762
2607.41914	0.14760
2605.49058	0.14750
2603.56201	0.14734
2601.63345	0.14736
2599.70488	0.14756
2597.77632	0.14777
2595.84775	0.14787
2593.91919	0.14799
2591.99062	0.14821
2590.06206	0.14837
2588.13350	0.14847
2586.20493	0.14867
2584.27637	0.14893
2582.34780	0.14919
2580.41924	0.14945
2578.49067	0.14974
2576.56211	0.15006
2574.63354	0.15034
2572.70498	0.15074
2570.77642	0.15134
2568.84785	0.15186
2566.91929	0.15227
2564.99072	0.15275
2563.06216	0.15326
2561.13359	0.15375
2559.20503	0.15425
2557.27646	0.15473
2555.34790	0.15522
2553.41934	0.15572
2551.49077	0.15632
2549.56221	0.15706
2547.63364	0.15778
2545.70508	0.15844
2543.77651	0.15899
2541.84795	0.15945
2539.91938	0.16003
2537.99082	0.16076
2536.06226	0.16145
2534.13369	0.16216
2532.20513	0.16299
2530.27656	0.16387
2528.34800	0.16465
2526.41943	0.16537
2524.49087	0.16608
2522.56230	0.16685
2520.63374	0.16777
2518.70518	0.16872
2516.77661	0.16961
2514.84805	0.17047
2512.91948	0.17126
2510.99092	0.17204
2509.06235	0.17288
2507.13379	0.17375
2505.20522	0.17467
2503.27666	0.17563
2501.34810	0.17646
2499.41953	0.17720
2497.49097	0.17799
2495.56240	0.17891
2493.63384	0.17984
2491.70527	0.18077
2489.77671	0.18175
2487.84814	0.18270
2485.91958	0.18367
2483.99102	0.18463
2482.06245	0.18552
2480.13389	0.18638
2478.20532	0.18721
2476.27676	0.18804
2474.34819	0.18897
2472.41963	0.18994
2470.49106	0.19090
2468.56250	0.19188
2466.63394	0.19279
2464.70537	0.19367
2462.77681	0.19469
2460.84824	0.19581
2458.91968	0.19698
2456.99111	0.19811
2455.06255	0.19915
2453.13398	0.20011
2451.20542	0.20105
2449.27686	0.20209
2447.34829	0.20313
2445.41973	0.20405
2443.49116	0.20500
2441.56260	0.20610
2439.63403	0.20721
2437.70547	0.20822
2435.77690	0.20927
2433.84834	0.21034
2431.91978	0.21138
2429.99121	0.21252
2428.06265	0.21371
2426.13408	0.21486
2424.20552	0.21600
2422.27695	0.21718
2420.34839	0.21829
2418.41982	0.21941
2416.49126	0.22059
2414.56270	0.22173
2412.63413	0.22289
2410.70557	0.22414
2408.77700	0.22536
2406.84844	0.22656
2404.91987	0.22778
2402.99131	0.22899
2401.06274	0.23028
2399.13418	0.23165
2397.20562	0.23299
2395.27705	0.23431
2393.34849	0.23562
2391.41992	0.23698
2389.49136	0.23872
2387.56279	0.24135
2385.63423	0.24541
2383.70566	0.25149
2381.77710	0.25990
2379.84854	0.27042
2377.91997	0.28262
2375.99141	0.29650
2374.06284	0.31254
2372.13428	0.33111
2370.20571	0.35171
2368.27715	0.37312
2366.34858	0.39432
2364.42002	0.41349
2362.49146	0.42713
2360.56289	0.43368
2358.63433	0.43462
2356.70576	0.42818
2354.77720	0.41215
2352.84863	0.39035
2350.92007	0.36883
2348.99150	0.35583
2347.06294	0.35618
2345.13437	0.37029
2343.20581	0.38971
2341.27725	0.40022
2339.34868	0.40154
2337.42012	0.40014
2335.49155	0.39858
2333.56299	0.39669
2331.63442	0.39480
2329.70586	0.39287
2327.77729	0.39031
2325.84873	0.38624
2323.92017	0.38080
2321.99160	0.37458
2320.06304	0.36763
2318.13447	0.36054
2316.20591	0.35470
2314.27734	0.35114
2312.34878	0.34932
2310.42021	0.34745
2308.49165	0.34448
2306.56309	0.34089
2304.63452	0.33768
2302.70596	0.33567
2300.77739	0.33469
2298.84883	0.33414
2296.92026	0.33387
2294.99170	0.33368
2293.06313	0.33330
2291.13457	0.33293
2289.20601	0.33279
2287.27744	0.33267
2285.34888	0.33265
2283.42031	0.33336
2281.49175	0.33514
2279.56318	0.33758
2277.63462	0.34022
2275.70605	0.34291
2273.77749	0.34540
2271.84893	0.34750
2269.92036	0.34949
2267.99180	0.35164
2266.06323	0.35377
2264.13467	0.35567
2262.20610	0.35748
2260.27754	0.35920
2258.34897	0.36079
2256.42041	0.36247
2254.49185	0.36435
2252.56328	0.36630
2250.63472	0.36823
2248.70615	0.37022
2246.77759	0.37222
2244.84902	0.37419
2242.92046	0.37623
2240.99189	0.37837
2239.06333	0.38053
2237.13477	0.38272
2235.20620	0.38489
2233.27764	0.38712
2231.34907	0.38946
2229.42051	0.39178
2227.49194	0.39401
2225.56338	0.39624
2223.63481	0.39838
2221.70625	0.40040
2219.77769	0.40259
2217.84912	0.40496
2215.92056	0.40724
2213.99199	0.40943
2212.06343	0.41167
2210.13486	0.41392
2208.20630	0.41610
2206.27773	0.41814
2204.34917	0.42020
2202.42061	0.42237
2200.49204	0.42444
2198.56348	0.42637
2196.63491	0.42835
2194.70635	0.43045
2192.77778	0.43248
2190.84922	0.43436
2188.92065	0.43615
2186.99209	0.43793
2185.06353	0.43974
2183.13496	0.44154
2181.20640	0.44318
2179.27783	0.44468
2177.34927	0.44630
2175.42070	0.44802
2173.49214	0.44964
2171.56357	0.45120
2169.63501	0.45274
2167.70645	0.45411
2165.77788	0.45529
2163.84932	0.45644
2161.92075	0.45764
2159.99219	0.45878
2158.06362	0.45974
2156.13506	0.46055
2154.20649	0.46130
2152.27793	0.46205
2150.34937	0.46276
2148.42080	0.46341
2146.49224	0.46398
2144.56367	0.46444
2142.63511	0.46480
2140.70654	0.46511
2138.77798	0.46542
2136.84941	0.46566
2134.92085	0.46570
2132.99229	0.46561
2131.06372	0.46551
2129.13516	0.46539
2127.20659	0.46513
2125.27803	0.46478
2123.34946	0.46435
2121.42090	0.46378
2119.49233	0.46305
2117.56377	0.46229
2115.63521	0.46155
2113.70664	0.46075
2111.77808	0.45990
2109.84951	0.45895
2107.92095	0.45785
2105.99238	0.45666
2104.06382	0.45548
2102.13525	0.45421
2100.20669	0.45280
2098.27812	0.45128
2096.34956	0.44966
2094.42100	0.44795
2092.49243	0.44634
2090.56387	0.44491
2088.63530	0.44330
2086.70674	0.44132
2084.77817	0.43915
2082.84961	0.43702
2080.92104	0.43499
2078.99248	0.43304
2077.06392	0.43095
2075.13535	0.42871
2073.20679	0.42651
2071.27822	0.42426
2069.34966	0.42189
2067.42109	0.41966
2065.49253	0.41759
2063.56396	0.41521
2061.63540	0.41249
2059.70684	0.40980
2057.77827	0.40717
2055.84971	0.40456
2053.92114	0.40201
2051.99258	0.39942
2050.06401	0.39669
2048.13545	0.39400
2046.20688	0.39137
2044.27832	0.38876
2042.34976	0.38618
2040.42119	0.38341
2038.49263	0.38036
2036.56406	0.37730
2034.63550	0.37440
2032.70693	0.37158
2030.77837	0.36883
2028.84980	0.36614
2026.92124	0.36343
2024.99268	0.36059
2023.06411	0.35774
2021.13555	0.35506
2019.20698	0.35264
2017.27842	0.35026
2015.34985	0.34735
2013.42129	0.34410
2011.49272	0.34106
2009.56416	0.33823
2007.63560	0.33535
2005.70703	0.33245
2003.77847	0.32969
2001.84990	0.32707
1999.92134	0.32454
1997.99277	0.32198
1996.06421	0.31947
1994.13564	0.31752
1992.20708	0.31593
1990.27852	0.31350
1988.34995	0.31037
1986.42139	0.30736
1984.49282	0.30455
1982.56426	0.30190
1980.63569	0.29939
1978.70713	0.29705
1976.77856	0.29477
1974.85000	0.29252
1972.92144	0.29036
1970.99287	0.28840
1969.06431	0.28693
1967.13574	0.28562
1965.20718	0.28343
1963.27861	0.28070
1961.35005	0.27838
1959.42148	0.27639
1957.49292	0.27450
1955.56436	0.27274
1953.63579	0.27098
1951.70723	0.26919
1949.77866	0.26756
1947.85010	0.26628
1945.92153	0.26547
1943.99297	0.26510
1942.06440	0.26416
1940.13584	0.26164
1938.20728	0.25885
1936.27871	0.25703
1934.35015	0.25581
1932.42158	0.25464
1930.49302	0.25331
1928.56445	0.25201
1926.63589	0.25117
1924.70732	0.25126
1922.77876	0.25154
1920.85020	0.25073
1918.92163	0.24971
1916.99307	0.24864
1915.06450	0.24669
1913.13594	0.24510
1911.20737	0.24484
1909.27881	0.24488
1907.35024	0.24401
1905.42168	0.24256
1903.49312	0.24149
1901.56455	0.24082
1899.63599	0.24033
1897.70742	0.24026
1895.77886	0.24056
1893.85029	0.24045
1891.92173	0.24022
1889.99316	0.24077
1888.06460	0.24067
1886.13604	0.23940
1884.20747	0.23843
1882.27891	0.23795
1880.35034	0.23771
1878.42178	0.23761
1876.49321	0.23754
1874.56465	0.23756
1872.63608	0.23829
1870.70752	0.24070
1868.77896	0.24403
1866.85039	0.24428
1864.92183	0.24156
1862.99326	0.23964
1861.06470	0.23934
1859.13613	0.23971
1857.20757	0.24000
1855.27900	0.24027
1853.35044	0.24067
1851.42187	0.24139
1849.49331	0.24274
1847.56475	0.24496
1845.63618	0.24785
1843.70762	0.24990
1841.77905	0.24902
1839.85049	0.24747
1837.92192	0.24766
1835.99336	0.24857
1834.06479	0.24939
1832.13623	0.25146
1830.20767	0.25529
1828.27910	0.25768
1826.35054	0.25783
1824.42197	0.25816
1822.49341	0.25809
1820.56484	0.25806
1818.63628	0.25911
1816.70771	0.26077
1814.77915	0.26250
1812.85059	0.26506
1810.92202	0.26831
1808.99346	0.27045
1807.06489	0.27147
1805.13633	0.27298
1803.20776	0.27612
1801.27920	0.28038
1799.35063	0.28385
1797.42207	0.28589
1795.49351	0.28851
1793.56494	0.29299
1791.63638	0.29780
1789.70781	0.29924
1787.77925	0.29930
1785.85068	0.30173
1783.92212	0.30590
1781.99355	0.31056
1780.06499	0.31531
1778.13643	0.31945
1776.20786	0.32383
1774.27930	0.33045
1772.35073	0.33938
1770.42217	0.34566
1768.49360	0.34826
1766.56504	0.35100
1764.63647	0.35539
1762.70791	0.36219
1760.77935	0.37058
1758.85078	0.37730
1756.92222	0.38395
1754.99365	0.39113
1753.06509	0.39860
1751.13652	0.40981
1749.20796	0.42345
1747.27939	0.43356
1745.35083	0.44058
1743.42227	0.44872
1741.49370	0.45888
1739.56514	0.47129
1737.63657	0.48352
1735.70801	0.49569
1733.77944	0.51516
1731.85088	0.53461
1729.92231	0.54705
1727.99375	0.55990
1726.06519	0.57527
1724.13662	0.59405
1722.20806	0.61511
1720.27949	0.63586
1718.35093	0.66246
1716.42236	0.69851
1714.49380	0.72662
1712.56523	0.74718
1710.63667	0.76890
1708.70811	0.79484
1706.77954	0.82632
1704.85098	0.86324
1702.92241	0.89504
1700.99385	0.92758
1699.06528	0.97603
1697.13672	1.01797
1695.20815	1.05726
1693.27959	1.09442
1691.35103	1.12621
1689.42246	1.16561
1687.49390	1.20772
1685.56533	1.24974
1683.63677	1.31361
1681.70820	1.37432
1679.77964	1.41048
1677.85107	1.44691
1675.92251	1.49121
1673.99395	1.54649
1672.06538	1.59577
1670.13682	1.64442
1668.20825	1.70480
1666.27969	1.75160
1664.35112	1.79307
1662.42256	1.84630
1660.49399	1.90405
1658.56543	1.94872
1656.63687	1.98850
1654.70830	2.02963
1652.77974	2.09061
1650.85117	2.13891
1648.92261	2.15448
1646.99404	2.17987
1645.06548	2.20646
1643.13691	2.22356
1641.20835	2.23463
1639.27979	2.24500
1637.35122	2.25175
1635.42266	2.25252
1633.49409	2.24395
1631.56553	2.22876
1629.63696	2.21165
1627.70840	2.18500
1625.77983	2.15546
1623.85127	2.11901
1621.92271	2.07163
1619.99414	2.02666
1618.06558	1.98422
1616.13701	1.92538
1614.20845	1.86257
1612.27988	1.81332
1610.35132	1.76328
1608.42275	1.71013
1606.49419	1.65781
1604.56562	1.60954
1602.63706	1.56238
1600.70850	1.51572
1598.77993	1.47283
1596.85137	1.43301
1594.92280	1.39442
1592.99424	1.35647
1591.06567	1.32133
1589.13711	1.28868
1587.20854	1.25847
1585.27998	1.23052
1583.35142	1.20422
1581.42285	1.18016
1579.49429	1.16050
1577.56572	1.14472
1575.63716	1.12393
1573.70859	1.10155
1571.78003	1.08710
1569.85146	1.07459
1567.92290	1.05888
1565.99434	1.04518
1564.06577	1.03515
1562.13721	1.02885
1560.20864	1.02817
1558.28008	1.02709
1556.35151	1.01706
1554.42295	1.00812
1552.49438	1.00153
1550.56582	0.99562
1548.63726	0.98823
1546.70869	0.98071
1544.78013	0.97510
1542.85156	0.97076
1540.92300	0.96242
1538.99443	0.93802
1537.06587	0.91498
1535.13730	0.90244
1533.20874	0.88945
1531.28018	0.87389
1529.35161	0.86248
1527.42305	0.85403
1525.49448	0.84565
1523.56592	0.83835
1521.63735	0.83156
1519.70879	0.82224
1517.78022	0.81295
1515.85166	0.80217
1513.92310	0.79043
1511.99453	0.78201
1510.06597	0.77785
1508.13740	0.77710
1506.20884	0.76853
1504.28027	0.75176
1502.35171	0.74201
1500.42314	0.73710
1498.49458	0.73401
1496.56602	0.72896
1494.63745	0.72132
1492.70889	0.71633
1490.78032	0.71521
1488.85176	0.71314
1486.92319	0.70644
1484.99463	0.69931
1483.06606	0.69464
1481.13750	0.69189
1479.20894	0.69016
1477.28037	0.68992
1475.35181	0.69129
1473.42324	0.69232
1471.49468	0.68883
1469.56611	0.68239
1467.63755	0.67846
1465.70898	0.67754
1463.78042	0.67678
1461.85186	0.67544
1459.92329	0.67667
1457.99473	0.68094
1456.06616	0.68048
1454.13760	0.67339
1452.20903	0.66816
1450.28047	0.66543
1448.35190	0.66365
1446.42334	0.66080
1444.49478	0.65720
1442.56621	0.65452
1440.63765	0.65295
1438.70908	0.65255
1436.78052	0.65230
1434.85195	0.64961
1432.92339	0.64620
1430.99482	0.64438
1429.06626	0.64300
1427.13770	0.64146
1425.20913	0.64117
1423.28057	0.64176
1421.35200	0.64224
1419.42344	0.64326
1417.49487	0.64248
1415.56631	0.63874
1413.63774	0.63561
1411.70918	0.63416
1409.78062	0.63349
1407.85205	0.63333
1405.92349	0.63407
1403.99492	0.63442
1402.06636	0.63367
1400.13779	0.63360
1398.20923	0.63400
1396.28066	0.63297
1394.35210	0.62967
1392.42354	0.62473
1390.49497	0.62069
1388.56641	0.61837
1386.63784	0.61590
1384.70928	0.61198
1382.78071	0.60822
1380.85215	0.60553
1378.92358	0.60369
1376.99502	0.60288
1375.06646	0.60297
1373.13789	0.60215
1371.20933	0.60014
1369.28076	0.59871
1367.35220	0.59777
1365.42363	0.59715
1363.49507	0.59725
1361.56650	0.59633
1359.63794	0.59357
1357.70937	0.59112
1355.78081	0.58965
1353.85225	0.58844
1351.92368	0.58727
1349.99512	0.58638
1348.06655	0.58550
1346.13799	0.58435
1344.20942	0.58330
1342.28086	0.58318
1340.35229	0.58401
1338.42373	0.58390
1336.49517	0.58196
1334.56660	0.57992
1332.63804	0.57868
1330.70947	0.57803
1328.78091	0.57767
1326.85234	0.57749
1324.92378	0.57745
1322.99521	0.57756
1321.06665	0.57795
1319.13809	0.57848
1317.20952	0.57848
1315.28096	0.57779
1313.35239	0.57679
1311.42383	0.57555
1309.49526	0.57435
1307.56670	0.57343
1305.63813	0.57245
1303.70957	0.57126
1301.78101	0.57014
1299.85244	0.56916
1297.92388	0.56818
1295.99531	0.56712
1294.06675	0.56608
1292.13818	0.56518
1290.20962	0.56441
1288.28105	0.56350
1286.35249	0.56230
1284.42393	0.56113
1282.49536	0.56024
1280.56680	0.55943
1278.63823	0.55843
1276.70967	0.55743
1274.78110	0.55673
1272.85254	0.55624
1270.92397	0.55562
1268.99541	0.55485
1267.06685	0.55414
1265.13828	0.55337
1263.20972	0.55257
1261.28115	0.55201
1259.35259	0.55154
1257.42402	0.55100
1255.49546	0.55057
1253.56689	0.55036
1251.63833	0.55031
1249.70977	0.55030
1247.78120	0.55019
1245.85264	0.54987
1243.92407	0.54922
1241.99551	0.54831
1240.06694	0.54729
1238.13838	0.54618
1236.20981	0.54480
1234.28125	0.54335
1232.35269	0.54208
1230.42412	0.54076
1228.49556	0.53929
1226.56699	0.53791
1224.63843	0.53660
1222.70986	0.53517
1220.78130	0.53375
1218.85273	0.53257
1216.92417	0.53162
1214.99561	0.53079
1213.06704	0.53005
1211.13848	0.52932
1209.20991	0.52855
1207.28135	0.52786
1205.35278	0.52732
1203.42422	0.52681
1201.49565	0.52621
1199.56709	0.52548
1197.63853	0.52470
1195.70996	0.52396
1193.78140	0.52322
1191.85283	0.52242
1189.92427	0.52176
1187.99570	0.52149
1186.06714	0.52148
1184.13857	0.52140
1182.21001	0.52143
1180.28145	0.52197
1178.35288	0.52296
1176.42432	0.52408
1174.49575	0.52516
1172.56719	0.52618
1170.63862	0.52701
1168.71006	0.52774
1166.78149	0.52843
1164.85293	0.52898
1162.92437	0.52937
1160.99580	0.52966
1159.06724	0.52983
1157.13867	0.52973
1155.21011	0.52919
1153.28154	0.52820
1151.35298	0.52687
1149.42441	0.52491
1147.49585	0.52226
1145.56729	0.51939
1143.63872	0.51662
1141.71016	0.51413
1139.78159	0.51217
1137.85303	0.51076
1135.92446	0.50985
1133.99590	0.50932
1132.06733	0.50874
1130.13877	0.50801
1128.21021	0.50762
1126.28164	0.50742
1124.35308	0.50670
1122.42451	0.50578
1120.49595	0.50558
1118.56738	0.50603
1116.63882	0.50644
1114.71025	0.50681
1112.78169	0.50743
1110.85312	0.50811
1108.92456	0.50893
1106.99600	0.51007
1105.06743	0.51116
1103.13887	0.51203
1101.21030	0.51305
1099.28174	0.51447
1097.35317	0.51645
1095.42461	0.51906
1093.49604	0.52241
1091.56748	0.52692
1089.63892	0.53305
1087.71035	0.54071
1085.78179	0.54935
1083.85322	0.55817
1081.92466	0.56597
1079.99609	0.57172
1078.06753	0.57473
1076.13896	0.57459
1074.21040	0.57142
1072.28184	0.56608
1070.35327	0.55964
1068.42471	0.55282
1066.49614	0.54599
1064.56758	0.53953
1062.63901	0.53404
1060.71045	0.52966
1058.78188	0.52581
1056.85332	0.52213
1054.92476	0.51872
1052.99619	0.51571
1051.06763	0.51336
1049.13906	0.51183
1047.21050	0.51105
1045.28193	0.51092
1043.35337	0.51120
1041.42480	0.51145
1039.49624	0.51166
1037.56768	0.51199
1035.63911	0.51215
1033.71055	0.51182
1031.78198	0.51088
1029.85342	0.50934
1027.92485	0.50769
1025.99629	0.50625
1024.06772	0.50496
1022.13916	0.50396
1020.21060	0.50349
1018.28203	0.50346
1016.35347	0.50346
1014.42490	0.50317
1012.49634	0.50278
1010.56777	0.50260
1008.63921	0.50266
1006.71064	0.50306
1004.78208	0.50400
1002.85352	0.50563
1000.92495	0.50812
998.99639	0.51145
997.06782	0.51544
995.13926	0.51973
993.21069	0.52372
991.28213	0.52697
989.35356	0.52921
987.42500	0.53015
985.49644	0.53006
983.56787	0.52981
981.63931	0.53016
979.71074	0.53123
977.78218	0.53269
975.85361	0.53438
973.92505	0.53652
971.99648	0.53936
970.06792	0.54281
968.13936	0.54661
966.21079	0.55084
964.28223	0.55547
962.35366	0.56018
960.42510	0.56500
958.49653	0.57022
956.56797	0.57598
954.63940	0.58220
952.71084	0.58860
950.78228	0.59495
948.85371	0.60118
946.92515	0.60741
944.99658	0.61364
943.06802	0.61985
941.13945	0.62612
939.21089	0.63232
937.28232	0.63857
935.35376	0.64448
933.42520	0.64970
931.49663	0.65535
929.56807	0.66196
927.63950	0.66839
925.71094	0.67400
923.78237	0.67980
921.85381	0.68682
919.92524	0.69468
917.99668	0.70258
916.06812	0.71020
914.13955	0.71808
912.21099	0.72620
910.28242	0.73353
908.35386	0.74050
906.42529	0.74904
904.49673	0.75931
902.56816	0.76935
900.63960	0.77835
898.71104	0.78719
896.78247	0.79615
894.85391	0.80511
892.92534	0.81474
890.99678	0.82564
889.06821	0.83755
887.13965	0.84961
885.21108	0.86088
883.28252	0.87101
881.35396	0.88092
879.42539	0.89213
877.49683	0.90468
875.56826	0.91743
873.63970	0.92937
871.71113	0.94026
869.78257	0.95093
867.85400	0.96256
865.92544	0.97516
863.99687	0.98695
862.06831	0.99758
860.13975	1.00895
858.21118	1.02098
856.28262	1.03283
854.35405	1.04551
852.42549	1.05898
850.49692	1.07255
848.56836	1.08477
846.63979	1.09427
844.71123	1.10297
842.78267	1.11296
840.85410	1.12427
838.92554	1.13585
836.99697	1.14724
835.06841	1.15887
833.13984	1.17216
831.21128	1.18800
829.28271	1.20144
827.35415	1.20883
825.42559	1.21773
823.49702	1.23735
821.56846	1.26254
819.63989	1.27857
817.71133	1.28170
815.78276	1.28480
813.85420	1.29970
811.92563	1.31963
809.99707	1.32715
808.06851	1.32392
806.13994	1.33030
804.21138	1.34739
802.28281	1.36041
800.35425	1.36992
798.42568	1.38477
796.49712	1.41356
794.56855	1.48893
792.63999	1.62895
790.71143	1.67951
788.78286	1.55264
786.85430	1.48498
784.92573	1.53935
782.99717	1.59996
781.06860	1.56677
779.14004	1.54991
777.21147	1.60091
775.28291	1.66512
773.35435	1.62245
771.42578	1.51558
769.49722	1.49235
767.56865	1.58479
765.64009	1.61411
763.71152	1.54238
761.78296	1.61372
759.85439	1.80368
757.92583	1.73997
755.99727	1.48740
754.06870	1.30218
752.14014	1.28821
750.21157	1.48854
748.28301	1.79084
746.35444	1.59490
744.42588	1.28332
742.49731	1.14935
740.56875	1.21732
738.64019	1.41907
736.71162	1.39702
734.78306	1.25516
732.85449	1.02405
730.92593	0.81372
728.99736	0.69384
727.06880	0.58376
725.14023	0.46362
723.21167	0.41577
721.28311	0.45399
719.35454	0.47382
717.42598	0.40862
715.49741	0.35770
713.56885	0.36230
711.64028	0.24945
709.71172	0.09111
707.78315	0.10280
705.85459	0.28211
703.92603	0.37702
701.99746	0.15524
700.06890	-0.05123
698.14033	-0.10814
696.21177	-0.00504
694.28320	0.17607
692.35464	0.34554
690.42607	0.35583
688.49751	0.28717
686.56895	0.23261
684.64038	0.17830
682.71182	0.20236
680.78325	0.29742
678.85469	0.26862
676.92612	0.18205
674.99756	0.20337
673.06899	0.30154
671.14043	0.47099
669.21187	0.55990
667.28330	0.42879
665.35474	0.30781
663.42617	0.30701
661.49761	0.45355
659.56904	0.55465
657.64048	0.46042
655.71191	0.28409
653.78335	0.15463
651.85479	0.13144
649.92622	0.19201
647.99766	0.23782
646.06909	0.24712
644.14053	0.26511
642.21196	0.31300
640.28340	0.37787
638.35483	0.35047
636.42627	0.25424
634.49771	0.23381
632.56914	0.24122
630.64058	0.19411
628.71201	0.13635
626.78345	0.14437
624.85488	0.17114
622.92632	0.18899
620.99775	0.13902
619.06919	0.06356
617.14062	0.06606
615.21206	0.14354
613.28350	0.21887
611.35493	0.19859
609.42637	0.14000
607.49780	0.13168
605.56924	0.20883
603.64067	0.32312
601.71211	0.28757
599.78354	0.20254
597.85498	0.20098
595.92642	0.26969
593.99785	0.31517
592.06929	0.24909
590.14072	0.20158
588.21216	0.20539
586.28359	0.20602
584.35503	0.14859
582.42646	0.07615
580.49790	0.06617
578.56934	0.06679
576.64077	0.09748
574.71221	0.19375
572.78364	0.26151
570.85508	0.22322
568.92651	0.16525
566.99795	0.12400
565.06938	0.11167
563.14082	0.17950
561.21226	0.22941
559.28369	0.15300
557.35513	0.11416
555.42656	0.14471
553.49800	0.25258
551.56943	0.48673
549.64087	0.55902
547.71230	0.29133
545.78374	0.18038
543.85518	0.09457
541.92661	-0.00413
539.99805	0.00322
538.06948	0.10724
536.14092	0.14670
534.21235	0.13369
532.28379	0.21746
530.35522	0.40243
528.42666	0.43407
526.49810	0.28070
524.56953	0.21211
522.64097	0.21929
520.71240	0.24748
518.78384	0.27983
516.85527	0.28332
514.92671	0.30006
512.99814	0.43913
511.06958	0.61551
509.14102	0.41092
507.21245	0.27698
505.28389	0.21622
503.35532	0.15407
501.42676	0.08245
499.49819	0.04067
