3997.91411	0.08548
3995.98555	0.08553
3994.05698	0.08632
3992.12842	0.08728
3990.19985	0.08763
3988.27129	0.08758
3986.34272	0.08754
3984.41416	0.08765
3982.48560	0.08793
3980.55703	0.08841
3978.62847	0.08887
3976.69990	0.08896
3974.77134	0.08877
3972.84277	0.08873
3970.91421	0.08913
3968.98564	0.08962
3967.05708	0.08966
3965.12852	0.08947
3963.19995	0.08956
3961.27139	0.08986
3959.34282	0.09006
3957.41426	0.09021
3955.48569	0.09028
3953.55713	0.09015
3951.62856	0.09030
3949.70000	0.09085
3947.77144	0.09099
3945.84287	0.09067
3943.91431	0.09068
3941.98574	0.09089
3940.05718	0.09058
3938.12861	0.09010
3936.20005	0.08997
3934.27148	0.08990
3932.34292	0.08976
3930.41436	0.08988
3928.48579	0.09003
3926.55723	0.08989
3924.62866	0.08975
3922.70010	0.08978
3920.77153	0.08973
3918.84297	0.08948
3916.91440	0.08919
3914.98584	0.08898
3913.05728	0.08895
3911.12871	0.08898
3909.20015	0.08874
3907.27158	0.08843
3905.34302	0.08877
3903.41445	0.08996
3901.48589	0.09105
3899.55732	0.09150
3897.62876	0.09123
3895.70020	0.09004
3893.77163	0.08893
3891.84307	0.08898
3889.91450	0.08953
3887.98594	0.08938
3886.05737	0.08952
3884.12881	0.09004
3882.20024	0.08978
3880.27168	0.08949
3878.34312	0.08985
3876.41455	0.09022
3874.48599	0.09083
3872.55742	0.09186
3870.62886	0.09290
3868.70029	0.09367
3866.77173	0.09319
3864.84316	0.09246
3862.91460	0.09274
3860.98604	0.09316
3859.05747	0.09320
3857.12891	0.09322
3855.20034	0.09357
3853.27178	0.09531
3851.34321	0.09747
3849.41465	0.09677
3847.48608	0.09509
3845.55752	0.09409
3843.62896	0.09444
3841.70039	0.09620
3839.77183	0.09826
3837.84326	0.09982
3835.91470	0.10067
3833.98613	0.10072
3832.05757	0.10067
3830.12900	0.10085
3828.20044	0.10103
3826.27187	0.10159
3824.34331	0.10254
3822.41475	0.10354
3820.48618	0.10516
3818.55762	0.10666
3816.62905	0.10752
3814.70049	0.10830
3812.77192	0.10831
3810.84336	0.10822
3808.91479	0.10884
3806.98623	0.11009
3805.05767	0.11134
3803.12910	0.11239
3801.20054	0.11439
3799.27197	0.11639
3797.34341	0.11680
3795.41484	0.11710
3793.48628	0.11755
3791.55771	0.11831
3789.62915	0.11981
3787.70059	0.12149
3785.77202	0.12320
3783.84346	0.12509
3781.91489	0.12672
3779.98633	0.12833
3778.05776	0.13027
3776.12920	0.13165
3774.20063	0.13265
3772.27207	0.13417
3770.34351	0.13646
3768.41494	0.13880
3766.48638	0.14045
3764.55781	0.14216
3762.62925	0.14400
3760.70068	0.14582
3758.77212	0.14823
3756.84355	0.15081
3754.91499	0.15264
3752.98643	0.15427
3751.05786	0.15713
3749.12930	0.16170
3747.20073	0.16512
3745.27217	0.16776
3743.34360	0.17249
3741.41504	0.17688
3739.48647	0.17890
3737.55791	0.18118
3735.62935	0.18594
3733.70078	0.19233
3731.77222	0.19715
3729.84365	0.20074
3727.91509	0.20436
3725.98652	0.20931
3724.05796	0.21600
3722.12939	0.22309
3720.20083	0.23026
3718.27227	0.23778
3716.34370	0.24551
3714.41514	0.25304
3712.48657	0.26184
3710.55801	0.27464
3708.62944	0.28892
3706.70088	0.30092
3704.77231	0.31222
3702.84375	0.32532
3700.91519	0.34265
3698.98662	0.36153
3697.05806	0.37878
3695.12949	0.39696
3693.20093	0.41669
3691.27236	0.43809
3689.34380	0.46598
3687.41523	0.50132
3685.48667	0.53265
3683.55811	0.55933
3681.62954	0.58759
3679.70098	0.61912
3677.77241	0.65195
3675.84385	0.69100
3673.91528	0.74453
3671.98672	0.78811
3670.05815	0.82644
3668.12959	0.88024
3666.20103	0.92981
3664.27246	0.97045
3662.34390	1.01384
3660.41533	1.06132
3658.48677	1.10811
3656.55820	1.15735
3654.62964	1.21187
3652.70107	1.25726
3650.77251	1.29678
3648.84395	1.35280
3646.91538	1.42248
3644.98682	1.47318
3643.05825	1.51171
3641.12969	1.55123
3639.20112	1.59521
3637.27256	1.64002
3635.34399	1.68342
3633.41543	1.72577
3631.48687	1.76537
3629.55830	1.80680
3627.62974	1.86121
3625.70117	1.91077
3623.77261	1.94410
3621.84404	1.97637
3619.91548	2.01431
3617.98691	2.06188
3616.05835	2.10669
3614.12979	2.14220
3612.20122	2.18092
3610.27266	2.22174
3608.34409	2.26135
3606.41553	2.30232
3604.48696	2.34222
3602.55840	2.37829
3600.62983	2.41565
3598.70127	2.45664
3596.77271	2.49716
3594.84414	2.53698
3592.91558	2.57819
3590.98701	2.61825
3589.05845	2.65591
3587.12988	2.70050
3585.20132	2.74873
3583.27275	2.78808
3581.34419	2.82455
3579.41562	2.86512
3577.48706	2.90912
3575.55850	2.95364
3573.62993	2.99750
3571.70137	3.03884
3569.77280	3.07956
3567.84424	3.12469
3565.91567	3.17856
3563.98711	3.22813
3562.05854	3.26760
3560.12998	3.30841
3558.20142	3.35427
3556.27285	3.40202
3554.34429	3.44748
3552.41572	3.49249
3550.48716	3.53777
3548.55859	3.58095
3546.63003	3.62457
3544.70146	3.67336
3542.77290	3.72360
3540.84434	3.76960
3538.91577	3.81401
3536.98721	3.86159
3535.05864	3.91441
3533.13008	3.96710
3531.20151	4.01497
3529.27295	4.05937
3527.34438	4.10434
3525.41582	4.14968
3523.48726	4.19816
3521.55869	4.25316
3519.63013	4.30644
3517.70156	4.35346
3515.77300	4.39709
3513.84443	4.44283
3511.91587	4.49159
3509.98730	4.54075
3508.05874	4.59173
3506.13018	4.64352
3504.20161	4.69173
3502.27305	4.73922
3500.34448	4.78916
3498.41592	4.83486
3496.48735	4.87671
3494.55879	4.92233
3492.63022	4.97138
3490.70166	5.01918
3488.77310	5.06658
3486.84453	5.11797
3484.91597	5.17513
3482.98740	5.23303
3481.05884	5.28389
3479.13027	5.32721
3477.20171	5.37291
3475.27314	5.42483
3473.34458	5.47807
3471.41602	5.52567
3469.48745	5.56565
3467.55889	5.61147
3465.63032	5.66929
3463.70176	5.73006
3461.77319	5.77858
3459.84463	5.81356
3457.91606	5.85768
3455.98750	5.91667
3454.05894	5.97441
3452.13037	6.02697
3450.20181	6.07959
3448.27324	6.12951
3446.34468	6.17856
3444.41611	6.23277
3442.48755	6.28392
3440.55898	6.32103
3438.63042	6.36259
3436.70186	6.42084
3434.77329	6.47415
3432.84473	6.51389
3430.91616	6.56690
3428.98760	6.63009
3427.05903	6.67081
3425.13047	6.71633
3423.20190	6.77316
3421.27334	6.82422
3419.34478	6.88724
3417.41621	6.95800
3415.48765	7.01486
3413.55908	7.05172
3411.63052	7.08804
3409.70195	7.13709
3407.77339	7.17684
3405.84482	7.17932
3403.91626	7.17921
3401.98770	7.20769
3400.05913	7.27003
3398.13057	7.35645
3396.20200	7.43621
3394.27344	7.48842
3392.34487	7.48234
3390.41631	7.47053
3388.48774	7.50604
3386.55918	7.55121
3384.63062	7.57423
3382.70205	7.60553
3380.77349	7.64845
3378.84492	7.69832
3376.91636	7.79067
3374.98779	7.88467
3373.05923	7.93210
3371.13066	7.91059
3369.20210	7.85408
3367.27354	7.82170
3365.34497	7.83951
3363.41641	7.91138
3361.48784	7.98370
3359.55928	8.01517
3357.63071	8.01936
3355.70215	8.02122
3353.77358	8.01896
3351.84502	8.01220
3349.91646	7.98421
3347.98789	7.93978
3346.05933	7.90813
3344.13076	7.96813
3342.20220	8.13385
3340.27363	8.24622
3338.34507	8.29384
3336.41650	8.31373
3334.48794	8.23510
3332.55937	8.13945
3330.63081	8.14621
3328.70225	8.19547
3326.77368	8.18194
3324.84512	8.11614
3322.91655	8.10404
3320.98799	8.21211
3319.05942	8.28018
3317.13086	8.21610
3315.20229	8.14847
3313.27373	8.13096
3311.34517	8.13525
3309.41660	8.14123
3307.48804	8.12578
3305.55947	8.10752
3303.63091	8.15868
3301.70234	8.22252
3299.77378	8.19921
3297.84521	8.14565
3295.91665	8.10973
3293.98809	8.04172
3292.05952	7.98288
3290.13096	8.00640
3288.20239	8.13555
3286.27383	8.31481
3284.34526	8.40197
3282.41670	8.37114
3280.48813	8.25166
3278.55957	8.10264
3276.63101	8.00828
3274.70244	8.00824
3272.77388	8.06514
3270.84531	8.14008
3268.91675	8.26524
3266.98818	8.38095
3265.05962	8.34251
3263.13105	8.19693
3261.20249	8.14829
3259.27393	8.20474
3257.34536	8.23681
3255.41680	8.26286
3253.48823	8.33734
3251.55967	8.33293
3249.63110	8.24518
3247.70254	8.24051
3245.77397	8.30940
3243.84541	8.38710
3241.91685	8.39808
3239.98828	8.29442
3238.05972	8.16915
3236.13115	8.11741
3234.20259	8.14046
3232.27402	8.15400
3230.34546	8.11402
3228.41689	8.04421
3226.48833	8.00730
3224.55977	8.03573
3222.63120	8.08477
3220.70264	8.12670
3218.77407	8.12295
3216.84551	8.04757
3214.91694	7.99677
3212.98838	8.03178
3211.05981	8.06243
3209.13125	7.98096
3207.20269	7.88583
3205.27412	7.90277
3203.34556	7.96154
3201.41699	7.95623
3199.48843	7.90926
3197.55986	7.86992
3195.63130	7.83516
3193.70273	7.79774
3191.77417	7.73765
3189.84561	7.64445
3187.91704	7.56359
3185.98848	7.50695
3184.05991	7.46637
3182.13135	7.46190
3180.20278	7.48949
3178.27422	7.51408
3176.34565	7.49958
3174.41709	7.42461
3172.48853	7.31594
3170.55996	7.21575
3168.63140	7.13563
3166.70283	7.06970
3164.77427	7.01567
3162.84570	6.95785
3160.91714	6.88676
3158.98857	6.82926
3157.06001	6.78105
3155.13145	6.71900
3153.20288	6.62807
3151.27432	6.51636
3149.34575	6.43033
3147.41719	6.37465
3145.48862	6.32152
3143.56006	6.26488
3141.63149	6.20395
3139.70293	6.14056
3137.77437	6.07988
3135.84580	6.01291
3133.91724	5.93482
3131.98867	5.85170
3130.06011	5.77230
3128.13154	5.70115
3126.20298	5.63002
3124.27441	5.56065
3122.34585	5.49321
3120.41729	5.41909
3118.48872	5.34641
3116.56016	5.28346
3114.63159	5.21758
3112.70303	5.13960
3110.77446	5.06158
3108.84590	4.98943
3106.91733	4.91772
3104.98877	4.84873
3103.06021	4.78658
3101.13164	4.72214
3099.20308	4.64935
3097.27451	4.57832
3095.34595	4.51301
3093.41738	4.44735
3091.48882	4.37862
3089.56025	4.31112
3087.63169	4.24884
3085.70312	4.18616
3083.77456	4.11880
3081.84600	4.05334
3079.91743	3.99268
3077.98887	3.93227
3076.06030	3.87178
3074.13174	3.81142
3072.20317	3.74926
3070.27461	3.68726
3068.34604	3.62689
3066.41748	3.56790
3064.48892	3.51069
3062.56035	3.45335
3060.63179	3.39563
3058.70322	3.34076
3056.77466	3.28861
3054.84609	3.23550
3052.91753	3.18041
3050.98896	3.12561
3049.06040	3.07289
3047.13184	3.02198
3045.20327	2.97207
3043.27471	2.92286
3041.34614	2.87394
3039.41758	2.82499
3037.48901	2.77617
3035.56045	2.72827
3033.63188	2.68150
3031.70332	2.63559
3029.77476	2.59090
3027.84619	2.54728
3025.91763	2.50380
3023.98906	2.45999
3022.06050	2.41685
3020.13193	2.37510
3018.20337	2.33384
3016.27480	2.29277
3014.34624	2.25233
3012.41768	2.21271
3010.48911	2.17400
3008.56055	2.13604
3006.63198	2.09888
3004.70342	2.06231
3002.77485	2.02566
3000.84629	1.98928
2998.91772	1.95423
2996.98916	1.92002
2995.06060	1.88586
2993.13203	1.85240
2991.20347	1.81983
2989.27490	1.78744
2987.34634	1.75542
2985.41777	1.72423
2983.48921	1.69367
2981.56064	1.66352
2979.63208	1.63355
2977.70352	1.60356
2975.77495	1.57377
2973.84639	1.54458
2971.91782	1.51613
2969.98926	1.48823
2968.06069	1.46038
2966.13213	1.43272
2964.20356	1.40602
2962.27500	1.38029
2960.34644	1.35516
2958.41787	1.33084
2956.48931	1.30708
2954.56074	1.28332
2952.63218	1.25975
2950.70361	1.23644
2948.77505	1.21352
2946.84648	1.19158
2944.91792	1.17026
2942.98936	1.14840
2941.06079	1.12607
2939.13223	1.10428
2937.20366	1.08336
2935.27510	1.06276
2933.34653	1.04239
2931.41797	1.02240
2929.48940	1.00210
2927.56084	0.98155
2925.63228	0.96253
2923.70371	0.94590
2921.77515	0.93060
2919.84658	0.91539
2917.91802	0.89964
2915.98945	0.88371
2914.06089	0.86876
2912.13232	0.85498
2910.20376	0.84112
2908.27520	0.82679
2906.34663	0.81304
2904.41807	0.80008
2902.48950	0.78711
2900.56094	0.77414
2898.63237	0.76151
2896.70381	0.74918
2894.77524	0.73698
2892.84668	0.72466
2890.91812	0.71248
2888.98955	0.70100
2887.06099	0.69000
2885.13242	0.67890
2883.20386	0.66751
2881.27529	0.65622
2879.34673	0.64533
2877.41816	0.63456
2875.48960	0.62391
2873.56104	0.61344
2871.63247	0.60309
2869.70391	0.59276
2867.77534	0.58226
2865.84678	0.57178
2863.91821	0.56152
2861.98965	0.55137
2860.06108	0.54123
2858.13252	0.53111
2856.20396	0.52127
2854.27539	0.51207
2852.34683	0.50364
2850.41826	0.49588
2848.48970	0.48867
2846.56113	0.48194
2844.63257	0.47555
2842.70400	0.46942
2840.77544	0.46347
2838.84687	0.45768
2836.91831	0.45209
2834.98975	0.44643
2833.06118	0.44051
2831.13262	0.43457
2829.20405	0.42870
2827.27549	0.42290
2825.34692	0.41725
2823.41836	0.41150
2821.48979	0.40543
2819.56123	0.39939
2817.63267	0.39367
2815.70410	0.38815
2813.77554	0.38260
2811.84697	0.37706
2809.91841	0.37167
2807.98984	0.36655
2806.06128	0.36146
2804.13271	0.35626
2802.20415	0.35107
2800.27559	0.34608
2798.34702	0.34147
2796.41846	0.33712
2794.48989	0.33267
2792.56133	0.32823
2790.63276	0.32395
2788.70420	0.31964
2786.77563	0.31531
2784.84707	0.31117
2782.91851	0.30720
2780.98994	0.30328
2779.06138	0.29939
2777.13281	0.29550
2775.20425	0.29165
2773.27568	0.28791
2771.34712	0.28428
2769.41855	0.28084
2767.48999	0.27758
2765.56143	0.27430
2763.63286	0.27105
2761.70430	0.26796
2759.77573	0.26493
2757.84717	0.26188
2755.91860	0.25881
2753.99004	0.25579
2752.06147	0.25282
2750.13291	0.24982
2748.20435	0.24686
2746.27578	0.24410
2744.34722	0.24156
2742.41865	0.23911
2740.49009	0.23654
2738.56152	0.23393
2736.63296	0.23146
2734.70439	0.22913
2732.77583	0.22690
2730.84727	0.22474
2728.91870	0.22265
2726.99014	0.22065
2725.06157	0.21867
2723.13301	0.21664
2721.20444	0.21449
2719.27588	0.21222
2717.34731	0.21013
2715.41875	0.20835
2713.49019	0.20666
2711.56162	0.20494
2709.63306	0.20330
2707.70449	0.20183
2705.77593	0.20035
2703.84736	0.19876
2701.91880	0.19716
2699.99023	0.19565
2698.06167	0.19408
2696.13311	0.19246
2694.20454	0.19098
2692.27598	0.18961
2690.34741	0.18826
2688.41885	0.18699
2686.49028	0.18579
2684.56172	0.18463
2682.63315	0.18351
2680.70459	0.18241
2678.77603	0.18139
2676.84746	0.18036
2674.91890	0.17922
2672.99033	0.17799
2671.06177	0.17686
2669.13320	0.17591
2667.20464	0.17502
2665.27607	0.17413
2663.34751	0.17327
2661.41895	0.17243
2659.49038	0.17164
2657.56182	0.17086
2655.63325	0.17006
2653.70469	0.16938
2651.77612	0.16882
2649.84756	0.16817
2647.91899	0.16748
2645.99043	0.16689
2644.06187	0.16638
2642.13330	0.16586
2640.20474	0.16545
2638.27617	0.16524
2636.34761	0.16498
2634.41904	0.16452
2632.49048	0.16407
2630.56191	0.16370
2628.63335	0.16335
2626.70479	0.16300
2624.77622	0.16265
2622.84766	0.16238
2620.91909	0.16225
2618.99053	0.16214
2617.06196	0.16194
2615.13340	0.16178
2613.20483	0.16171
2611.27627	0.16168
2609.34771	0.16166
2607.41914	0.16161
2605.49058	0.16152
2603.56201	0.16149
2601.63345	0.16150
2599.70488	0.16153
2597.77632	0.16171
2595.84775	0.16194
2593.91919	0.16204
2591.99062	0.16219
2590.06206	0.16247
2588.13350	0.16270
2586.20493	0.16296
2584.27637	0.16326
2582.34780	0.16350
2580.41924	0.16369
2578.49067	0.16394
2576.56211	0.16427
2574.63354	0.16462
2572.70498	0.16497
2570.77642	0.16533
2568.84785	0.16579
2566.91929	0.16637
2564.99072	0.16693
2563.06216	0.16742
2561.13359	0.16798
2559.20503	0.16863
2557.27646	0.16921
2555.34790	0.16960
2553.41934	0.16993
2551.49077	0.17039
2549.56221	0.17098
2547.63364	0.17163
2545.70508	0.17237
2543.77651	0.17315
2541.84795	0.17380
2539.91938	0.17436
2537.99082	0.17500
2536.06226	0.17575
2534.13369	0.17657
2532.20513	0.17740
2530.27656	0.17822
2528.34800	0.17900
2526.41943	0.17978
2524.49087	0.18066
2522.56230	0.18157
2520.63374	0.18248
2518.70518	0.18330
2516.77661	0.18403
2514.84805	0.18480
2512.91948	0.18563
2510.99092	0.18643
2509.06235	0.18718
2507.13379	0.18788
2505.20522	0.18866
2503.27666	0.18965
2501.34810	0.19069
2499.41953	0.19161
2497.49097	0.19240
2495.56240	0.19319
2493.63384	0.19404
2491.70527	0.19501
2489.77671	0.19608
2487.84814	0.19707
2485.91958	0.19791
2483.99102	0.19878
2482.06245	0.19976
2480.13389	0.20076
2478.20532	0.20170
2476.27676	0.20267
2474.34819	0.20368
2472.41963	0.20464
2470.49106	0.20556
2468.56250	0.20644
2466.63394	0.20734
2464.70537	0.20840
2462.77681	0.20956
2460.84824	0.21067
2458.91968	0.21164
2456.99111	0.21250
2455.06255	0.21344
2453.13398	0.21450
2451.20542	0.21550
2449.27686	0.21648
2447.34829	0.21754
2445.41973	0.21859
2443.49116	0.21957
2441.56260	0.22058
2439.63403	0.22162
2437.70547	0.22269
2435.77690	0.22383
2433.84834	0.22494
2431.91978	0.22593
2429.99121	0.22687
2428.06265	0.22789
2426.13408	0.22906
2424.20552	0.23026
2422.27695	0.23143
2420.34839	0.23266
2418.41982	0.23392
2416.49126	0.23516
2414.56270	0.23641
2412.63413	0.23762
2410.70557	0.23874
2408.77700	0.23988
2406.84844	0.24110
2404.91987	0.24231
2402.99131	0.24348
2401.06274	0.24469
2399.13418	0.24599
2397.20562	0.24732
2395.27705	0.24861
2393.34849	0.24989
2391.41992	0.25124
2389.49136	0.25265
2387.56279	0.25398
2385.63423	0.25518
2383.70566	0.25640
2381.77710	0.25769
2379.84854	0.25909
2377.91997	0.26047
2375.99141	0.26177
2374.06284	0.26314
2372.13428	0.26477
2370.20571	0.26686
2368.27715	0.26900
2366.34858	0.27039
2364.42002	0.27152
2362.49146	0.27339
2360.56289	0.27476
2358.63433	0.27506
2356.70576	0.27695
2354.77720	0.28030
2352.84863	0.28328
2350.92007	0.28491
2348.99150	0.28523
2347.06294	0.28515
2345.13437	0.28583
2343.20581	0.28785
2341.27725	0.29015
2339.34868	0.29199
2337.42012	0.29360
2335.49155	0.29525
2333.56299	0.29698
2331.63442	0.29910
2329.70586	0.30158
2327.77729	0.30383
2325.84873	0.30541
2323.92017	0.30667
2321.99160	0.30808
2320.06304	0.30959
2318.13447	0.31102
2316.20591	0.31241
2314.27734	0.31401
2312.34878	0.31593
2310.42021	0.31799
2308.49165	0.31990
2306.56309	0.32161
2304.63452	0.32316
2302.70596	0.32475
2300.77739	0.32657
2298.84883	0.32855
2296.92026	0.33051
2294.99170	0.33244
2293.06313	0.33442
2291.13457	0.33638
2289.20601	0.33825
2287.27744	0.34014
2285.34888	0.34211
2283.42031	0.34413
2281.49175	0.34610
2279.56318	0.34807
2277.63462	0.35012
2275.70605	0.35221
2273.77749	0.35418
2271.84893	0.35612
2269.92036	0.35829
2267.99180	0.36056
2266.06323	0.36273
2264.13467	0.36487
2262.20610	0.36705
2260.27754	0.36924
2258.34897	0.37144
2256.42041	0.37362
2254.49185	0.37574
2252.56328	0.37789
2250.63472	0.38016
2248.70615	0.38243
2246.77759	0.38465
2244.84902	0.38692
2242.92046	0.38927
2240.99189	0.39172
2239.06333	0.39412
2237.13477	0.39638
2235.20620	0.39861
2233.27764	0.40088
2231.34907	0.40316
2229.42051	0.40538
2227.49194	0.40753
2225.56338	0.40965
2223.63481	0.41183
2221.70625	0.41422
2219.77769	0.41670
2217.84912	0.41901
2215.92056	0.42115
2213.99199	0.42321
2212.06343	0.42525
2210.13486	0.42736
2208.20630	0.42957
2206.27773	0.43187
2204.34917	0.43416
2202.42061	0.43625
2200.49204	0.43821
2198.56348	0.44029
2196.63491	0.44250
2194.70635	0.44461
2192.77778	0.44644
2190.84922	0.44819
2188.92065	0.45012
2186.99209	0.45208
2185.06353	0.45390
2183.13496	0.45569
2181.20640	0.45745
2179.27783	0.45910
2177.34927	0.46070
2175.42070	0.46226
2173.49214	0.46376
2171.56357	0.46528
2169.63501	0.46680
2167.70645	0.46823
2165.77788	0.46952
2163.84932	0.47063
2161.92075	0.47165
2159.99219	0.47275
2158.06362	0.47381
2156.13506	0.47474
2154.20649	0.47563
2152.27793	0.47654
2150.34937	0.47733
2148.42080	0.47798
2146.49224	0.47852
2144.56367	0.47886
2142.63511	0.47911
2140.70654	0.47940
2138.77798	0.47972
2136.84941	0.47995
2134.92085	0.48001
2132.99229	0.47999
2131.06372	0.47997
2129.13516	0.47983
2127.20659	0.47953
2125.27803	0.47929
2123.34946	0.47904
2121.42090	0.47848
2119.49233	0.47771
2117.56377	0.47698
2115.63521	0.47621
2113.70664	0.47538
2111.77808	0.47453
2109.84951	0.47354
2107.92095	0.47242
2105.99238	0.47122
2104.06382	0.46996
2102.13525	0.46864
2100.20669	0.46730
2098.27812	0.46589
2096.34956	0.46440
2094.42100	0.46279
2092.49243	0.46115
2090.56387	0.45946
2088.63530	0.45759
2086.70674	0.45566
2084.77817	0.45373
2082.84961	0.45171
2080.92104	0.44958
2078.99248	0.44742
2077.06392	0.44527
2075.13535	0.44306
2073.20679	0.44083
2071.27822	0.43865
2069.34966	0.43640
2067.42109	0.43394
2065.49253	0.43138
2063.56396	0.42886
2061.63540	0.42646
2059.70684	0.42400
2057.77827	0.42130
2055.84971	0.41857
2053.92114	0.41594
2051.99258	0.41329
2050.06401	0.41061
2048.13545	0.40793
2046.20688	0.40520
2044.27832	0.40244
2042.34976	0.39968
2040.42119	0.39690
2038.49263	0.39413
2036.56406	0.39137
2034.63550	0.38855
2032.70693	0.38567
2030.77837	0.38284
2028.84980	0.37995
2026.92124	0.37700
2024.99268	0.37405
2023.06411	0.37112
2021.13555	0.36820
2019.20698	0.36540
2017.27842	0.36269
2015.34985	0.35990
2013.42129	0.35701
2011.49272	0.35407
2009.56416	0.35125
2007.63560	0.34856
2005.70703	0.34572
2003.77847	0.34275
2001.84990	0.33994
1999.92134	0.33731
1997.99277	0.33468
1996.06421	0.33199
1994.13564	0.32936
1992.20708	0.32692
1990.27852	0.32450
1988.34995	0.32195
1986.42139	0.31927
1984.49282	0.31663
1982.56426	0.31413
1980.63569	0.31172
1978.70713	0.30936
1976.77856	0.30702
1974.85000	0.30467
1972.92144	0.30232
1970.99287	0.30014
1969.06431	0.29817
1967.13574	0.29624
1965.20718	0.29412
1963.27861	0.29196
1961.35005	0.29000
1959.42148	0.28808
1957.49292	0.28612
1955.56436	0.28425
1953.63579	0.28248
1951.70723	0.28076
1949.77866	0.27905
1947.85010	0.27731
1945.92153	0.27566
1943.99297	0.27413
1942.06440	0.27263
1940.13584	0.27110
1938.20728	0.26956
1936.27871	0.26809
1934.35015	0.26672
1932.42158	0.26554
1930.49302	0.26443
1928.56445	0.26326
1926.63589	0.26203
1924.70732	0.26096
1922.77876	0.26002
1920.85020	0.25890
1918.92163	0.25778
1916.99307	0.25684
1915.06450	0.25593
1913.13594	0.25502
1911.20737	0.25431
1909.27881	0.25372
1907.35024	0.25307
1905.42168	0.25232
1903.49312	0.25161
1901.56455	0.25099
1899.63599	0.25044
1897.70742	0.24999
1895.77886	0.24960
1893.85029	0.24931
1891.92173	0.24902
1889.99316	0.24880
1888.06460	0.24850
1886.13604	0.24812
1884.20747	0.24781
1882.27891	0.24751
1880.35034	0.24730
1878.42178	0.24725
1876.49321	0.24727
1874.56465	0.24724
1872.63608	0.24732
1870.70752	0.24758
1868.77896	0.24820
1866.85039	0.24865
1864.92183	0.24853
1862.99326	0.24840
1861.06470	0.24855
1859.13613	0.24888
1857.20757	0.24921
1855.27900	0.24965
1853.35044	0.25013
1851.42187	0.25062
1849.49331	0.25116
1847.56475	0.25179
1845.63618	0.25259
1843.70762	0.25368
1841.77905	0.25458
1839.85049	0.25503
1837.92192	0.25567
1835.99336	0.25651
1834.06479	0.25740
1832.13623	0.25841
1830.20767	0.25992
1828.27910	0.26152
1826.35054	0.26262
1824.42197	0.26387
1822.49341	0.26511
1820.56484	0.26626
1818.63628	0.26760
1816.70771	0.26923
1814.77915	0.27088
1812.85059	0.27261
1810.92202	0.27467
1808.99346	0.27687
1807.06489	0.27895
1805.13633	0.28089
1803.20776	0.28307
1801.27920	0.28560
1799.35063	0.28850
1797.42207	0.29116
1795.49351	0.29359
1793.56494	0.29641
1791.63638	0.30017
1789.70781	0.30377
1787.77925	0.30639
1785.85068	0.30948
1783.92212	0.31331
1781.99355	0.31736
1780.06499	0.32151
1778.13643	0.32576
1776.20786	0.32973
1774.27930	0.33392
1772.35073	0.33984
1770.42217	0.34660
1768.49360	0.35219
1766.56504	0.35742
1764.63647	0.36271
1762.70791	0.36851
1760.77935	0.37592
1758.85078	0.38294
1756.92222	0.39005
1754.99365	0.39793
1753.06509	0.40503
1751.13652	0.41338
1749.20796	0.42394
1747.27939	0.43434
1745.35083	0.44353
1743.42227	0.45325
1741.49370	0.46401
1739.56514	0.47683
1737.63657	0.48975
1735.70801	0.50091
1733.77944	0.51769
1731.85088	0.53785
1729.92231	0.55360
1727.99375	0.56962
1726.06519	0.58695
1724.13662	0.60589
1722.20806	0.62625
1720.27949	0.64496
1718.35093	0.66697
1716.42236	0.69979
1714.49380	0.73091
1712.56523	0.75585
1710.63667	0.77999
1708.70811	0.80570
1706.77954	0.83485
1704.85098	0.87004
1702.92241	0.90151
1700.99385	0.93195
1699.06528	0.97728
1697.13672	1.01908
1695.20815	1.06131
1693.27959	1.10212
1691.35103	1.13433
1689.42246	1.17111
1687.49390	1.20987
1685.56533	1.24697
1683.63677	1.30420
1681.70820	1.36474
1679.77964	1.40354
1677.85107	1.43974
1675.92251	1.48071
1673.99395	1.53124
1672.06538	1.57571
1670.13682	1.61907
1668.20825	1.67624
1666.27969	1.72168
1664.35112	1.75878
1662.42256	1.80461
1660.49399	1.85647
1658.56543	1.89599
1656.63687	1.92722
1654.70830	1.95676
1652.77974	2.00786
1650.85117	2.05872
1648.92261	2.07836
1646.99404	2.10778
1645.06548	2.14386
1643.13691	2.16724
1641.20835	2.18014
1639.27979	2.19186
1637.35122	2.20070
1635.42266	2.20414
1633.49409	2.20007
1631.56553	2.18888
1629.63696	2.17471
1627.70840	2.15211
1625.77983	2.12690
1623.85127	2.09150
1621.92271	2.04504
1619.99414	2.00451
1618.06558	1.96565
1616.13701	1.90898
1614.20845	1.85012
1612.27988	1.80490
1610.35132	1.75769
1608.42275	1.70651
1606.49419	1.65520
1604.56562	1.60738
1602.63706	1.56129
1600.70850	1.51592
1598.77993	1.47358
1596.85137	1.43329
1594.92280	1.39384
1592.99424	1.35594
1591.06567	1.32157
1589.13711	1.28894
1587.20854	1.25769
1585.27998	1.22808
1583.35142	1.20002
1581.42285	1.17405
1579.49429	1.15137
1577.56572	1.13040
1575.63716	1.10416
1573.70859	1.08050
1571.78003	1.06457
1569.85146	1.04722
1567.92290	1.02708
1565.99434	1.01061
1564.06577	0.99621
1562.13721	0.98406
1560.20864	0.97368
1558.28008	0.95550
1556.35151	0.93931
1554.42295	0.92977
1552.49438	0.91978
1550.56582	0.90964
1548.63726	0.89949
1546.70869	0.89049
1544.78013	0.88213
1542.85156	0.87352
1540.92300	0.86361
1538.99443	0.84946
1537.06587	0.83854
1535.13730	0.83098
1533.20874	0.82188
1531.28018	0.81252
1529.35161	0.80557
1527.42305	0.79884
1525.49448	0.79171
1523.56592	0.78532
1521.63735	0.77894
1519.70879	0.77238
1517.78022	0.76695
1515.85166	0.76088
1513.92310	0.75457
1511.99453	0.74946
1510.06597	0.74514
1508.13740	0.74088
1506.20884	0.73404
1504.28027	0.72777
1502.35171	0.72404
1500.42314	0.72075
1498.49458	0.71715
1496.56602	0.71290
1494.63745	0.70880
1492.70889	0.70556
1490.78032	0.70266
1488.85176	0.69927
1486.92319	0.69582
1484.99463	0.69278
1483.06606	0.69003
1481.13750	0.68748
1479.20894	0.68523
1477.28037	0.68318
1475.35181	0.68113
1473.42324	0.67893
1471.49468	0.67592
1469.56611	0.67275
1467.63755	0.67016
1465.70898	0.66791
1463.78042	0.66573
1461.85186	0.66395
1459.92329	0.66253
1457.99473	0.66084
1456.06616	0.65834
1454.13760	0.65585
1452.20903	0.65363
1450.28047	0.65135
1448.35190	0.64915
1446.42334	0.64709
1444.49478	0.64512
1442.56621	0.64337
1440.63765	0.64186
1438.70908	0.64047
1436.78052	0.63898
1434.85195	0.63728
1432.92339	0.63562
1430.99482	0.63432
1429.06626	0.63313
1427.13770	0.63177
1425.20913	0.63053
1423.28057	0.62955
1421.35200	0.62856
1419.42344	0.62745
1417.49487	0.62618
1415.56631	0.62453
1413.63774	0.62271
1411.70918	0.62107
1409.78062	0.61968
1407.85205	0.61835
1405.92349	0.61708
1403.99492	0.61561
1402.06636	0.61396
1400.13779	0.61250
1398.20923	0.61107
1396.28066	0.60936
1394.35210	0.60750
1392.42354	0.60581
1390.49497	0.60438
1388.56641	0.60305
1386.63784	0.60153
1384.70928	0.59981
1382.78071	0.59818
1380.85215	0.59669
1378.92358	0.59550
1376.99502	0.59461
1375.06646	0.59383
1373.13789	0.59310
1371.20933	0.59243
1369.28076	0.59175
1367.35220	0.59096
1365.42363	0.59002
1363.49507	0.58907
1361.56650	0.58808
1359.63794	0.58690
1357.70937	0.58573
1355.78081	0.58463
1353.85225	0.58353
1351.92368	0.58249
1349.99512	0.58150
1348.06655	0.58040
1346.13799	0.57914
1344.20942	0.57799
1342.28086	0.57715
1340.35229	0.57656
1338.42373	0.57579
1336.49517	0.57465
1334.56660	0.57348
1332.63804	0.57256
1330.70947	0.57180
1328.78091	0.57099
1326.85234	0.57010
1324.92378	0.56943
1322.99521	0.56900
1321.06665	0.56865
1319.13809	0.56823
1317.20952	0.56751
1315.28096	0.56654
1313.35239	0.56563
1311.42383	0.56476
1309.49526	0.56380
1307.56670	0.56276
1305.63813	0.56169
1303.70957	0.56055
1301.78101	0.55947
1299.85244	0.55851
1297.92388	0.55759
1295.99531	0.55670
1294.06675	0.55584
1292.13818	0.55500
1290.20962	0.55424
1288.28105	0.55357
1286.35249	0.55293
1284.42393	0.55228
1282.49536	0.55162
1280.56680	0.55094
1278.63823	0.55014
1276.70967	0.54929
1274.78110	0.54865
1272.85254	0.54821
1270.92397	0.54783
1268.99541	0.54739
1267.06685	0.54689
1265.13828	0.54643
1263.20972	0.54603
1261.28115	0.54570
1259.35259	0.54541
1257.42402	0.54521
1255.49546	0.54504
1253.56689	0.54472
1251.63833	0.54432
1249.70977	0.54397
1247.78120	0.54356
1245.85264	0.54312
1243.92407	0.54283
1241.99551	0.54259
1240.06694	0.54220
1238.13838	0.54161
1236.20981	0.54082
1234.28125	0.53990
1232.35269	0.53903
1230.42412	0.53826
1228.49556	0.53755
1226.56699	0.53679
1224.63843	0.53584
1222.70986	0.53479
1220.78130	0.53391
1218.85273	0.53314
1216.92417	0.53226
1214.99561	0.53139
1213.06704	0.53074
1211.13848	0.53025
1209.20991	0.52976
1207.28135	0.52923
1205.35278	0.52856
1203.42422	0.52782
1201.49565	0.52717
1199.56709	0.52653
1197.63853	0.52576
1195.70996	0.52507
1193.78140	0.52465
1191.85283	0.52427
1189.92427	0.52369
1187.99570	0.52311
1186.06714	0.52270
1184.13857	0.52241
1182.21001	0.52227
1180.28145	0.52235
1178.35288	0.52265
1176.42432	0.52318
1174.49575	0.52384
1172.56719	0.52453
1170.63862	0.52525
1168.71006	0.52607
1166.78149	0.52689
1164.85293	0.52751
1162.92437	0.52793
1160.99580	0.52835
1159.06724	0.52853
1157.13867	0.52819
1155.21011	0.52748
1153.28154	0.52645
1151.35298	0.52490
1149.42441	0.52296
1147.49585	0.52086
1145.56729	0.51864
1143.63872	0.51622
1141.71016	0.51355
1139.78159	0.51097
1137.85303	0.50902
1135.92446	0.50760
1133.99590	0.50626
1132.06733	0.50517
1130.13877	0.50453
1128.21021	0.50398
1126.28164	0.50315
1124.35308	0.50226
1122.42451	0.50154
1120.49595	0.50092
1118.56738	0.50056
1116.63882	0.50059
1114.71025	0.50071
1112.78169	0.50093
1110.85312	0.50139
1108.92456	0.50188
1106.99600	0.50243
1105.06743	0.50333
1103.13887	0.50461
1101.21030	0.50613
1099.28174	0.50786
1097.35317	0.50996
1095.42461	0.51262
1093.49604	0.51612
1091.56748	0.52064
1089.63892	0.52618
1087.71035	0.53290
1085.78179	0.54068
1083.85322	0.54880
1081.92466	0.55627
1079.99609	0.56196
1078.06753	0.56501
1076.13896	0.56530
1074.21040	0.56316
1072.28184	0.55895
1070.35327	0.55286
1068.42471	0.54558
1066.49614	0.53842
1064.56758	0.53239
1062.63901	0.52735
1060.71045	0.52268
1058.78188	0.51826
1056.85332	0.51440
1054.92476	0.51111
1052.99619	0.50831
1051.06763	0.50630
1049.13906	0.50502
1047.21050	0.50414
1045.28193	0.50371
1043.35337	0.50376
1041.42480	0.50390
1039.49624	0.50376
1037.56768	0.50344
1035.63911	0.50315
1033.71055	0.50277
1031.78198	0.50217
1029.85342	0.50140
1027.92485	0.50052
1025.99629	0.49977
1024.06772	0.49928
1022.13916	0.49906
1020.21060	0.49912
1018.28203	0.49931
1016.35347	0.49950
1014.42490	0.49972
1012.49634	0.50005
1010.56777	0.50058
1008.63921	0.50131
1006.71064	0.50233
1004.78208	0.50371
1002.85352	0.50550
1000.92495	0.50784
998.99639	0.51096
997.06782	0.51486
995.13926	0.51897
993.21069	0.52266
991.28213	0.52572
989.35356	0.52796
987.42500	0.52915
985.49644	0.52964
983.56787	0.53013
981.63931	0.53091
979.71074	0.53209
977.78218	0.53373
975.85361	0.53590
973.92505	0.53859
971.99648	0.54155
970.06792	0.54469
968.13936	0.54828
966.21079	0.55243
964.28223	0.55700
962.35366	0.56192
960.42510	0.56709
958.49653	0.57243
956.56797	0.57813
954.63940	0.58406
952.71084	0.58990
950.78228	0.59600
948.85371	0.60267
946.92515	0.60929
944.99658	0.61548
943.06802	0.62145
941.13945	0.62757
939.21089	0.63388
937.28232	0.63996
935.35376	0.64561
933.42520	0.65100
931.49663	0.65651
929.56807	0.66235
927.63950	0.66866
925.71094	0.67537
923.78237	0.68196
921.85381	0.68824
919.92524	0.69444
917.99668	0.70100
916.06812	0.70834
914.13955	0.71656
912.21099	0.72499
910.28242	0.73276
908.35386	0.74051
906.42529	0.74931
904.49673	0.75862
902.56816	0.76713
900.63960	0.77501
898.71104	0.78436
896.78247	0.79554
894.85391	0.80636
892.92534	0.81577
890.99678	0.82470
889.06821	0.83494
887.13965	0.84680
885.21108	0.85846
883.28252	0.86962
881.35396	0.88142
879.42539	0.89382
877.49683	0.90664
875.56826	0.91942
873.63970	0.93084
871.71113	0.94143
869.78257	0.95287
867.85400	0.96508
865.92544	0.97646
863.99687	0.98653
862.06831	0.99695
860.13975	1.00862
858.21118	1.02003
856.28262	1.03116
854.35405	1.04484
852.42549	1.05883
850.49692	1.06882
848.56836	1.07715
846.63979	1.08800
844.71123	1.10200
842.78267	1.11560
840.85410	1.12528
838.92554	1.13301
836.99697	1.14389
835.06841	1.15697
833.13984	1.16649
831.21128	1.17323
829.28271	1.18521
827.35415	1.20454
825.42559	1.21957
823.49702	1.22487
821.56846	1.22779
819.63989	1.23076
817.71133	1.23048
815.78276	1.23227
813.85420	1.24718
811.92563	1.27017
809.99707	1.28984
808.06851	1.30600
806.13994	1.31860
804.21138	1.32411
802.28281	1.32852
800.35425	1.33426
798.42568	1.33403
796.49712	1.32872
794.56855	1.33054
792.63999	1.35895
790.71143	1.39665
788.78286	1.40658
786.85430	1.41816
784.92573	1.43207
782.99717	1.39619
781.06860	1.37026
779.14004	1.38157
777.21147	1.35478
775.28291	1.31799
773.35435	1.32667
771.42578	1.36811
769.49722	1.38030
767.56865	1.33395
765.64009	1.33801
763.71152	1.41489
761.78296	1.44110
759.85439	1.42194
757.92583	1.44445
755.99727	1.42934
754.06870	1.35149
752.14014	1.34074
750.21157	1.38791
748.28301	1.38227
746.35444	1.38971
744.42588	1.34317
742.49731	1.18867
740.56875	1.09490
738.64019	0.99894
736.71162	0.86922
734.78306	0.78933
732.85449	0.76070
730.92593	0.78995
728.99736	0.78905
727.06880	0.56403
725.14023	0.39417
723.21167	0.41911
721.28311	0.63309
719.35454	0.73574
717.42598	0.54273
715.49741	0.47621
713.56885	0.51914
711.64028	0.55738
709.71172	0.32156
707.78315	0.05656
705.85459	-0.09634
703.92603	-0.14284
701.99746	-0.03434
700.06890	0.06128
698.14033	-0.00182
696.21177	-0.02003
694.28320	0.06316
692.35464	0.18593
690.42607	0.15978
688.49751	0.05224
686.56895	0.03581
684.64038	0.22213
682.71182	0.43319
680.78325	0.39673
678.85469	0.40627
676.92612	0.60755
674.99756	1.35351
673.06899	4.03841
671.14043	4.02684
669.21187	0.96087
667.28330	0.39736
665.35474	0.19307
663.42617	0.16771
661.49761	0.31893
659.56904	0.57700
657.64048	0.66483
655.71191	0.36626
653.78335	0.19357
651.85479	0.14405
649.92622	0.06801
647.99766	0.02158
646.06909	0.12857
644.14053	0.29957
642.21196	0.38094
640.28340	0.26430
638.35483	0.19765
636.42627	0.23708
634.49771	0.33047
632.56914	0.17362
630.64058	-0.04940
628.71201	-0.13781
626.78345	-0.07500
624.85488	-0.02378
622.92632	0.01389
620.99775	0.13764
619.06919	0.33250
617.14062	0.41365
615.21206	0.32634
613.28350	0.26642
611.35493	0.30946
609.42637	0.35164
607.49780	0.21972
605.56924	0.07351
603.64067	-0.02978
601.71211	-0.01861
599.78354	0.04318
597.85498	0.10093
595.92642	0.20529
593.99785	0.31922
592.06929	0.23079
590.14072	0.02862
588.21216	-0.04481
586.28359	0.04029
584.35503	0.14119
582.42646	0.18354
580.49790	0.20156
578.56934	0.20209
576.64077	0.16492
574.71221	0.14941
572.78364	0.18102
570.85508	0.20974
568.92651	0.18870
566.99795	0.13683
565.06938	0.07031
563.14082	0.04515
561.21226	0.10473
559.28369	0.21082
557.35513	0.28330
555.42656	0.28189
553.49800	0.27187
551.56943	0.24022
549.64087	0.17908
547.71230	0.15606
545.78374	0.19011
543.85518	0.19965
541.92661	0.17397
539.99805	0.21981
538.06948	0.27329
536.14092	0.24084
534.21235	0.23587
532.28379	0.28138
530.35522	0.29561
528.42666	0.30623
526.49810	0.33349
524.56953	0.31783
522.64097	0.28075
520.71240	0.25494
518.78384	0.27122
516.85527	0.29576
514.92671	0.17590
512.99814	0.08514
511.06958	0.08279
509.14102	0.08866
507.21245	0.09358
505.28389	0.12677
503.35532	0.16628
501.42676	0.20147
499.49819	0.22778
