3997.91411	0.11861
3995.98555	0.11867
3994.05698	0.11945
3992.12842	0.12018
3990.19985	0.12044
3988.27129	0.12031
3986.34272	0.12026
3984.41416	0.12061
3982.48560	0.12096
3980.55703	0.12121
3978.62847	0.12158
3976.69990	0.12197
3974.77134	0.12228
3972.84277	0.12256
3970.91421	0.12278
3968.98564	0.12297
3967.05708	0.12290
3965.12852	0.12259
3963.19995	0.12276
3961.27139	0.12347
3959.34282	0.12398
3957.41426	0.12413
3955.48569	0.12411
3953.55713	0.12398
3951.62856	0.12409
3949.70000	0.12493
3947.77144	0.12563
3945.84287	0.12504
3943.91431	0.12445
3941.98574	0.12481
3940.05718	0.12464
3938.12861	0.12381
3936.20005	0.12343
3934.27148	0.12386
3932.34292	0.12494
3930.41436	0.12579
3928.48579	0.12550
3926.55723	0.12489
3924.62866	0.12491
3922.70010	0.12490
3920.77153	0.12461
3918.84297	0.12488
3916.91440	0.12523
3914.98584	0.12446
3913.05728	0.12277
3911.12871	0.12134
3909.20015	0.12105
3907.27158	0.12236
3905.34302	0.12533
3903.41445	0.12870
3901.48589	0.13034
3899.55732	0.13032
3897.62876	0.12872
3895.70020	0.12592
3893.77163	0.12436
3891.84307	0.12511
3889.91450	0.12572
3887.98594	0.12488
3886.05737	0.12545
3884.12881	0.12725
3882.20024	0.12761
3880.27168	0.12745
3878.34312	0.12668
3876.41455	0.12539
3874.48599	0.12621
3872.55742	0.12907
3870.62886	0.13167
3868.70029	0.13254
3866.77173	0.13127
3864.84316	0.13075
3862.91460	0.13153
3860.98604	0.13073
3859.05747	0.12934
3857.12891	0.12991
3855.20034	0.13314
3853.27178	0.13885
3851.34321	0.14073
3849.41465	0.13549
3847.48608	0.13060
3845.55752	0.12889
3843.62896	0.13035
3841.70039	0.13392
3839.77183	0.13829
3837.84326	0.14195
3835.91470	0.14247
3833.98613	0.14023
3832.05757	0.13785
3830.12900	0.13649
3828.20044	0.13637
3826.27187	0.13753
3824.34331	0.13916
3822.41475	0.14164
3820.48618	0.14607
3818.55762	0.14830
3816.62905	0.14756
3814.70049	0.14638
3812.77192	0.14387
3810.84336	0.14194
3808.91479	0.14239
3806.98623	0.14486
3805.05767	0.14768
3803.12910	0.15045
3801.20054	0.15436
3799.27197	0.15623
3797.34341	0.15506
3795.41484	0.15394
3793.48628	0.15265
3791.55771	0.15197
3789.62915	0.15291
3787.70059	0.15463
3785.77202	0.15664
3783.84346	0.15852
3781.91489	0.15985
3779.98633	0.16201
3778.05776	0.16463
3776.12920	0.16510
3774.20063	0.16500
3772.27207	0.16696
3770.34351	0.17096
3768.41494	0.17454
3766.48638	0.17605
3764.55781	0.17719
3762.62925	0.17846
3760.70068	0.18064
3758.77212	0.18482
3756.84355	0.18865
3754.91499	0.19074
3752.98643	0.19417
3751.05786	0.20140
3749.12930	0.20856
3747.20073	0.21023
3745.27217	0.21135
3743.34360	0.21496
3741.41504	0.21760
3739.48647	0.21904
3737.55791	0.22292
3735.62935	0.23140
3733.70078	0.24013
3731.77222	0.24241
3729.84365	0.24196
3727.91509	0.24339
3725.98652	0.24865
3724.05796	0.25673
3722.12939	0.26419
3720.20083	0.27017
3718.27227	0.27548
3716.34370	0.28111
3714.41514	0.28820
3712.48657	0.29930
3710.55801	0.31595
3708.62944	0.33067
3706.70088	0.33960
3704.77231	0.34851
3702.84375	0.36121
3700.91519	0.37878
3698.98662	0.39712
3697.05806	0.41386
3695.12949	0.43204
3693.20093	0.45228
3691.27236	0.47560
3689.34380	0.50603
3687.41523	0.54080
3685.48667	0.56870
3683.55811	0.59263
3681.62954	0.62010
3679.70098	0.65274
3677.77241	0.68804
3675.84385	0.73045
3673.91528	0.78558
3671.98672	0.82785
3670.05815	0.86556
3668.12959	0.91789
3666.20103	0.96398
3664.27246	1.00236
3662.34390	1.04494
3660.41533	1.09207
3658.48677	1.13894
3656.55820	1.18891
3654.62964	1.24474
3652.70107	1.29208
3650.77251	1.33503
3648.84395	1.39557
3646.91538	1.46496
3644.98682	1.51059
3643.05825	1.54584
3641.12969	1.58474
3639.20112	1.62897
3637.27256	1.67414
3635.34399	1.71876
3633.41543	1.76289
3631.48687	1.80344
3629.55830	1.84587
3627.62974	1.90278
3625.70117	1.95309
3623.77261	1.98500
3621.84404	2.01649
3619.91548	2.05513
3617.98691	2.10300
3616.05835	2.14699
3614.12979	2.18266
3612.20122	2.22165
3610.27266	2.26147
3608.34409	2.30133
3606.41553	2.34302
3604.48696	2.38053
3602.55840	2.41482
3600.62983	2.45393
3598.70127	2.49688
3596.77271	2.53818
3594.84414	2.57957
3592.91558	2.62145
3590.98701	2.66024
3589.05845	2.69701
3587.12988	2.74103
3585.20132	2.78886
3583.27275	2.82944
3581.34419	2.86689
3579.41562	2.90722
3577.48706	2.95125
3575.55850	2.99552
3573.62993	3.03875
3571.70137	3.08082
3569.77280	3.12276
3567.84424	3.16987
3565.91567	3.22752
3563.98711	3.27879
3562.05854	3.31651
3560.12998	3.35318
3558.20142	3.39420
3556.27285	3.44025
3554.34429	3.48722
3552.41572	3.53367
3550.48716	3.58070
3548.55859	3.62736
3546.63003	3.67282
3544.70146	3.71983
3542.77290	3.76964
3540.84434	3.81866
3538.91577	3.86519
3536.98721	3.91131
3535.05864	3.96001
3533.13008	4.00915
3531.20151	4.05602
3529.27295	4.10135
3527.34438	4.14924
3525.41582	4.19854
3523.48726	4.24853
3521.55869	4.30423
3519.63013	4.35924
3517.70156	4.40432
3515.77300	4.44489
3513.84443	4.49066
3511.91587	4.53993
3509.98730	4.59110
3508.05874	4.64520
3506.13018	4.69787
3504.20161	4.74693
3502.27305	4.79346
3500.34448	4.83569
3498.41592	4.87389
3496.48735	4.91621
3494.55879	4.96891
3492.63022	5.02715
3490.70166	5.08012
3488.77310	5.12628
3486.84453	5.17459
3484.91597	5.22964
3482.98740	5.28504
3481.05884	5.33569
3479.13027	5.38376
3477.20171	5.43526
3475.27314	5.48964
3473.34458	5.53683
3471.41602	5.57328
3469.48745	5.61278
3467.55889	5.66556
3465.63032	5.71845
3463.70176	5.76590
3461.77319	5.81496
3459.84463	5.86502
3457.91606	5.91658
3455.98750	5.97352
3454.05894	6.02994
3452.13037	6.08092
3450.20181	6.13626
3448.27324	6.18888
3446.34468	6.22379
3444.41611	6.25875
3442.48755	6.31899
3440.55898	6.39104
3438.63042	6.45008
3436.70186	6.49018
3434.77329	6.52465
3432.84473	6.57278
3430.91616	6.64351
3428.98760	6.71741
3427.05903	6.75836
3425.13047	6.78632
3423.20190	6.82759
3421.27334	6.89886
3419.34478	6.99691
3417.41621	7.06321
3415.48765	7.08710
3413.55908	7.11132
3411.63052	7.14853
3409.70195	7.18493
3407.77339	7.24702
3405.84482	7.34205
3403.91626	7.40000
3401.98770	7.37637
3400.05913	7.37044
3398.13057	7.43932
3396.20200	7.50199
3394.27344	7.54137
3392.34487	7.56907
3390.41631	7.58257
3388.48774	7.62890
3386.55918	7.69907
3384.63062	7.70771
3382.70205	7.71789
3380.77349	7.80152
3378.84492	7.86500
3376.91636	7.91506
3374.98779	8.00407
3373.05923	8.03403
3371.13066	7.96644
3369.20210	7.95618
3367.27354	8.04706
3365.34497	8.15879
3363.41641	8.20977
3361.48784	8.17206
3359.55928	8.11597
3357.63071	8.07109
3355.70215	8.05963
3353.77358	8.11690
3351.84502	8.27058
3349.91646	8.44504
3347.98789	8.51385
3346.05933	8.44527
3344.13076	8.30253
3342.20220	8.18578
3340.27363	8.10615
3338.34507	8.06567
3336.41650	8.09342
3334.48794	8.21020
3332.55937	8.35080
3330.63081	8.44703
3328.70225	8.47709
3326.77368	8.43180
3324.84512	8.36285
3322.91655	8.28767
3320.98799	8.23750
3319.05942	8.27464
3317.13086	8.38778
3315.20229	8.40016
3313.27373	8.29920
3311.34517	8.30826
3309.41660	8.43805
3307.48804	8.40041
3305.55947	8.19857
3303.63091	8.15765
3301.70234	8.28725
3299.77378	8.40303
3297.84521	8.39926
3295.91665	8.32358
3293.98809	8.22556
3292.05952	8.17659
3290.13096	8.27856
3288.20239	8.36677
3286.27383	8.24928
3284.34526	8.13044
3282.41670	8.22384
3280.48813	8.43371
3278.55957	8.41547
3276.63101	8.24717
3274.70244	8.25627
3272.77388	8.35043
3270.84531	8.38960
3268.91675	8.49101
3266.98818	8.57571
3265.05962	8.52293
3263.13105	8.47466
3261.20249	8.47430
3259.27393	8.45650
3257.34536	8.53366
3255.41680	8.71786
3253.48823	8.76334
3251.55967	8.58017
3249.63110	8.35403
3247.70254	8.27563
3245.77397	8.38540
3243.84541	8.52173
3241.91685	8.49369
3239.98828	8.41643
3238.05972	8.41020
3236.13115	8.38681
3234.20259	8.27983
3232.27402	8.20073
3230.34546	8.21968
3228.41689	8.27294
3226.48833	8.31459
3224.55977	8.33359
3222.63120	8.34702
3220.70264	8.33157
3218.77407	8.26235
3216.84551	8.19858
3214.91694	8.19181
3212.98838	8.20607
3211.05981	8.20428
3209.13125	8.25518
3207.20269	8.32355
3205.27412	8.31085
3203.34556	8.26922
3201.41699	8.22654
3199.48843	8.13433
3197.55986	7.97863
3195.63130	7.84489
3193.70273	7.81887
3191.77417	7.81568
3189.84561	7.74507
3187.91704	7.69768
3185.98848	7.70408
3184.05991	7.68291
3182.13135	7.62378
3180.20278	7.57083
3178.27422	7.54074
3176.34565	7.52633
3174.41709	7.48392
3172.48853	7.40202
3170.55996	7.32884
3168.63140	7.26968
3166.70283	7.19546
3164.77427	7.12005
3162.84570	7.06398
3160.91714	7.01202
3158.98857	6.95199
3157.06001	6.88239
3155.13145	6.81053
3153.20288	6.74662
3151.27432	6.67854
3149.34575	6.59040
3147.41719	6.49921
3145.48862	6.42211
3143.56006	6.34920
3141.63149	6.28403
3139.70293	6.22731
3137.77437	6.16283
3135.84580	6.08624
3133.91724	6.00360
3131.98867	5.92160
3130.06011	5.84748
3128.13154	5.78007
3126.20298	5.70973
3124.27441	5.63641
3122.34585	5.56372
3120.41729	5.48984
3118.48872	5.41031
3116.56016	5.33079
3114.63159	5.26482
3112.70303	5.20491
3110.77446	5.13497
3108.84590	5.06098
3106.91733	4.98991
3104.98877	4.91506
3103.06021	4.83951
3101.13164	4.77195
3099.20308	4.71194
3097.27451	4.65080
3095.34595	4.58082
3093.41738	4.50787
3091.48882	4.43875
3089.56025	4.37063
3087.63169	4.30268
3085.70312	4.23817
3083.77456	4.17524
3081.84600	4.10892
3079.91743	4.04139
3077.98887	3.97855
3076.06030	3.91873
3074.13174	3.85741
3072.20317	3.79565
3070.27461	3.73470
3068.34604	3.67530
3066.41748	3.61744
3064.48892	3.55805
3062.56035	3.49830
3060.63179	3.44132
3058.70322	3.38524
3056.77466	3.32870
3054.84609	3.27406
3052.91753	3.22194
3050.98896	3.16948
3049.06040	3.11573
3047.13184	3.06336
3045.20327	3.01293
3043.27471	2.96237
3041.34614	2.91203
3039.41758	2.86336
3037.48901	2.81601
3035.56045	2.76939
3033.63188	2.72303
3031.70332	2.67654
3029.77476	2.63051
3027.84619	2.58602
3025.91763	2.54250
3023.98906	2.49914
3022.06050	2.45653
3020.13193	2.41407
3018.20337	2.37132
3016.27480	2.32991
3014.34624	2.29005
3012.41768	2.25055
3010.48911	2.21142
3008.56055	2.17330
3006.63198	2.13627
3004.70342	2.09965
3002.77485	2.06279
3000.84629	2.02649
2998.91772	1.99150
2996.98916	1.95721
2995.06060	1.92297
2993.13203	1.88903
2991.20347	1.85626
2989.27490	1.82465
2987.34634	1.79298
2985.41777	1.76112
2983.48921	1.73009
2981.56064	1.69996
2979.63208	1.67013
2977.70352	1.64024
2975.77495	1.61051
2973.84639	1.58142
2971.91782	1.55261
2969.98926	1.52360
2968.06069	1.49497
2966.13213	1.46747
2964.20356	1.44092
2962.27500	1.41503
2960.34644	1.38991
2958.41787	1.36551
2956.48931	1.34141
2954.56074	1.31778
2952.63218	1.29468
2950.70361	1.27182
2948.77505	1.24966
2946.84648	1.22832
2944.91792	1.20681
2942.98936	1.18459
2941.06079	1.16221
2939.13223	1.14057
2937.20366	1.11956
2935.27510	1.09879
2933.34653	1.07869
2931.41797	1.05871
2929.48940	1.03803
2927.56084	1.01737
2925.63228	0.99789
2923.70371	0.98037
2921.77515	0.96441
2919.84658	0.94873
2917.91802	0.93314
2915.98945	0.91834
2914.06089	0.90435
2912.13232	0.89038
2910.20376	0.87619
2908.27520	0.86255
2906.34663	0.84983
2904.41807	0.83691
2902.48950	0.82338
2900.56094	0.81034
2898.63237	0.79790
2896.70381	0.78553
2894.77524	0.77343
2892.84668	0.76145
2890.91812	0.74928
2888.98955	0.73749
2887.06099	0.72642
2885.13242	0.71553
2883.20386	0.70440
2881.27529	0.69312
2879.34673	0.68180
2877.41816	0.67047
2875.48960	0.65930
2873.56104	0.64854
2871.63247	0.63803
2869.70391	0.62740
2867.77534	0.61680
2865.84678	0.60642
2863.91821	0.59603
2861.98965	0.58538
2860.06108	0.57479
2858.13252	0.56446
2856.20396	0.55430
2854.27539	0.54448
2852.34683	0.53555
2850.41826	0.52788
2848.48970	0.52111
2846.56113	0.51465
2844.63257	0.50852
2842.70400	0.50301
2840.77544	0.49765
2838.84687	0.49182
2836.91831	0.48572
2834.98975	0.47958
2833.06118	0.47344
2831.13262	0.46735
2829.20405	0.46122
2827.27549	0.45500
2825.34692	0.44886
2823.41836	0.44280
2821.48979	0.43683
2819.56123	0.43107
2817.63267	0.42538
2815.70410	0.41952
2813.77554	0.41363
2811.84697	0.40810
2809.91841	0.40293
2807.98984	0.39781
2806.06128	0.39262
2804.13271	0.38732
2802.20415	0.38210
2800.27559	0.37706
2798.34702	0.37222
2796.41846	0.36748
2794.48989	0.36277
2792.56133	0.35816
2790.63276	0.35372
2788.70420	0.34939
2786.77563	0.34521
2784.84707	0.34121
2782.91851	0.33732
2780.98994	0.33342
2779.06138	0.32949
2777.13281	0.32557
2775.20425	0.32162
2773.27568	0.31764
2771.34712	0.31385
2769.41855	0.31029
2767.48999	0.30679
2765.56143	0.30335
2763.63286	0.30001
2761.70430	0.29671
2759.77573	0.29344
2757.84717	0.29027
2755.91860	0.28730
2753.99004	0.28442
2752.06147	0.28140
2750.13291	0.27842
2748.20435	0.27561
2746.27578	0.27282
2744.34722	0.27008
2742.41865	0.26752
2740.49009	0.26507
2738.56152	0.26258
2736.63296	0.26012
2734.70439	0.25779
2732.77583	0.25545
2730.84727	0.25318
2728.91870	0.25110
2726.99014	0.24902
2725.06157	0.24683
2723.13301	0.24460
2721.20444	0.24236
2719.27588	0.24017
2717.34731	0.23808
2715.41875	0.23621
2713.49019	0.23452
2711.56162	0.23284
2709.63306	0.23119
2707.70449	0.22960
2705.77593	0.22796
2703.84736	0.22627
2701.91880	0.22454
2699.99023	0.22292
2698.06167	0.22145
2696.13311	0.21994
2694.20454	0.21839
2692.27598	0.21697
2690.34741	0.21570
2688.41885	0.21444
2686.49028	0.21305
2684.56172	0.21160
2682.63315	0.21022
2680.70459	0.20898
2678.77603	0.20782
2676.84746	0.20675
2674.91890	0.20567
2672.99033	0.20449
2671.06177	0.20339
2669.13320	0.20239
2667.20464	0.20126
2665.27607	0.20017
2663.34751	0.19925
2661.41895	0.19840
2659.49038	0.19759
2657.56182	0.19682
2655.63325	0.19605
2653.70469	0.19540
2651.77612	0.19478
2649.84756	0.19409
2647.91899	0.19345
2645.99043	0.19295
2644.06187	0.19238
2642.13330	0.19170
2640.20474	0.19112
2638.27617	0.19069
2636.34761	0.19033
2634.41904	0.18994
2632.49048	0.18949
2630.56191	0.18903
2628.63335	0.18861
2626.70479	0.18831
2624.77622	0.18802
2622.84766	0.18767
2620.91909	0.18741
2618.99053	0.18720
2617.06196	0.18686
2615.13340	0.18655
2613.20483	0.18643
2611.27627	0.18647
2609.34771	0.18649
2607.41914	0.18634
2605.49058	0.18621
2603.56201	0.18623
2601.63345	0.18627
2599.70488	0.18627
2597.77632	0.18638
2595.84775	0.18647
2593.91919	0.18635
2591.99062	0.18631
2590.06206	0.18659
2588.13350	0.18692
2586.20493	0.18713
2584.27637	0.18733
2582.34780	0.18759
2580.41924	0.18796
2578.49067	0.18835
2576.56211	0.18865
2574.63354	0.18896
2572.70498	0.18930
2570.77642	0.18963
2568.84785	0.19007
2566.91929	0.19062
2564.99072	0.19114
2563.06216	0.19163
2561.13359	0.19212
2559.20503	0.19259
2557.27646	0.19298
2555.34790	0.19326
2553.41934	0.19364
2551.49077	0.19422
2549.56221	0.19484
2547.63364	0.19548
2545.70508	0.19627
2543.77651	0.19703
2541.84795	0.19759
2539.91938	0.19807
2537.99082	0.19865
2536.06226	0.19943
2534.13369	0.20034
2532.20513	0.20114
2530.27656	0.20181
2528.34800	0.20249
2526.41943	0.20325
2524.49087	0.20411
2522.56230	0.20499
2520.63374	0.20581
2518.70518	0.20654
2516.77661	0.20723
2514.84805	0.20802
2512.91948	0.20898
2510.99092	0.20994
2509.06235	0.21077
2507.13379	0.21151
2505.20522	0.21227
2503.27666	0.21306
2501.34810	0.21388
2499.41953	0.21471
2497.49097	0.21547
2495.56240	0.21627
2493.63384	0.21719
2491.70527	0.21812
2489.77671	0.21897
2487.84814	0.21982
2485.91958	0.22078
2483.99102	0.22183
2482.06245	0.22283
2480.13389	0.22372
2478.20532	0.22457
2476.27676	0.22548
2474.34819	0.22648
2472.41963	0.22750
2470.49106	0.22843
2468.56250	0.22931
2466.63394	0.23027
2464.70537	0.23130
2462.77681	0.23232
2460.84824	0.23338
2458.91968	0.23440
2456.99111	0.23525
2455.06255	0.23605
2453.13398	0.23701
2451.20542	0.23804
2449.27686	0.23906
2447.34829	0.24006
2445.41973	0.24101
2443.49116	0.24193
2441.56260	0.24291
2439.63403	0.24401
2437.70547	0.24514
2435.77690	0.24625
2433.84834	0.24733
2431.91978	0.24838
2429.99121	0.24944
2428.06265	0.25053
2426.13408	0.25155
2424.20552	0.25252
2422.27695	0.25362
2420.34839	0.25481
2418.41982	0.25601
2416.49126	0.25724
2414.56270	0.25850
2412.63413	0.25971
2410.70557	0.26089
2408.77700	0.26211
2406.84844	0.26333
2404.91987	0.26453
2402.99131	0.26564
2401.06274	0.26673
2399.13418	0.26801
2397.20562	0.26944
2395.27705	0.27080
2393.34849	0.27204
2391.41992	0.27326
2389.49136	0.27458
2387.56279	0.27610
2385.63423	0.27796
2383.70566	0.28032
2381.77710	0.28320
2379.84854	0.28670
2377.91997	0.29086
2375.99141	0.29529
2374.06284	0.29972
2372.13428	0.30460
2370.20571	0.31028
2368.27715	0.31601
2366.34858	0.32123
2364.42002	0.32710
2362.49146	0.33349
2360.56289	0.33716
2358.63433	0.33726
2356.70576	0.33653
2354.77720	0.33509
2352.84863	0.33208
2350.92007	0.32814
2348.99150	0.32515
2347.06294	0.32492
2345.13437	0.32852
2343.20581	0.33465
2341.27725	0.33925
2339.34868	0.34107
2337.42012	0.34155
2335.49155	0.34214
2333.56299	0.34334
2331.63442	0.34502
2329.70586	0.34650
2327.77729	0.34729
2325.84873	0.34745
2323.92017	0.34725
2321.99160	0.34709
2320.06304	0.34693
2318.13447	0.34645
2316.20591	0.34616
2314.27734	0.34668
2312.34878	0.34787
2310.42021	0.34911
2308.49165	0.34985
2306.56309	0.35022
2304.63452	0.35071
2302.70596	0.35164
2300.77739	0.35293
2298.84883	0.35422
2296.92026	0.35541
2294.99170	0.35672
2293.06313	0.35827
2291.13457	0.35979
2289.20601	0.36111
2287.27744	0.36252
2285.34888	0.36416
2283.42031	0.36592
2281.49175	0.36774
2279.56318	0.36973
2277.63462	0.37193
2275.70605	0.37416
2273.77749	0.37625
2271.84893	0.37831
2269.92036	0.38036
2267.99180	0.38236
2266.06323	0.38443
2264.13467	0.38663
2262.20610	0.38885
2260.27754	0.39105
2258.34897	0.39318
2256.42041	0.39524
2254.49185	0.39730
2252.56328	0.39940
2250.63472	0.40158
2248.70615	0.40378
2246.77759	0.40596
2244.84902	0.40811
2242.92046	0.41028
2240.99189	0.41256
2239.06333	0.41490
2237.13477	0.41714
2235.20620	0.41931
2233.27764	0.42155
2231.34907	0.42386
2229.42051	0.42616
2227.49194	0.42838
2225.56338	0.43050
2223.63481	0.43269
2221.70625	0.43505
2219.77769	0.43742
2217.84912	0.43977
2215.92056	0.44208
2213.99199	0.44420
2212.06343	0.44618
2210.13486	0.44824
2208.20630	0.45037
2206.27773	0.45248
2204.34917	0.45458
2202.42061	0.45667
2200.49204	0.45869
2198.56348	0.46074
2196.63491	0.46289
2194.70635	0.46490
2192.77778	0.46667
2190.84922	0.46848
2188.92065	0.47045
2186.99209	0.47244
2185.06353	0.47427
2183.13496	0.47592
2181.20640	0.47758
2179.27783	0.47934
2177.34927	0.48113
2175.42070	0.48284
2173.49214	0.48439
2171.56357	0.48578
2169.63501	0.48711
2167.70645	0.48843
2165.77788	0.48967
2163.84932	0.49080
2161.92075	0.49190
2159.99219	0.49307
2158.06362	0.49416
2156.13506	0.49507
2154.20649	0.49584
2152.27793	0.49657
2150.34937	0.49721
2148.42080	0.49780
2146.49224	0.49838
2144.56367	0.49885
2142.63511	0.49919
2140.70654	0.49946
2138.77798	0.49973
2136.84941	0.49991
2134.92085	0.49991
2132.99229	0.49986
2131.06372	0.49984
2129.13516	0.49969
2127.20659	0.49940
2125.27803	0.49911
2123.34946	0.49872
2121.42090	0.49808
2119.49233	0.49736
2117.56377	0.49665
2115.63521	0.49588
2113.70664	0.49507
2111.77808	0.49416
2109.84951	0.49308
2107.92095	0.49187
2105.99238	0.49055
2104.06382	0.48928
2102.13525	0.48804
2100.20669	0.48665
2098.27812	0.48517
2096.34956	0.48368
2094.42100	0.48205
2092.49243	0.48031
2090.56387	0.47853
2088.63530	0.47672
2086.70674	0.47489
2084.77817	0.47295
2082.84961	0.47084
2080.92104	0.46859
2078.99248	0.46636
2077.06392	0.46421
2075.13535	0.46204
2073.20679	0.45983
2071.27822	0.45759
2069.34966	0.45528
2067.42109	0.45294
2065.49253	0.45064
2063.56396	0.44824
2061.63540	0.44571
2059.70684	0.44309
2057.77827	0.44037
2055.84971	0.43764
2053.92114	0.43497
2051.99258	0.43229
2050.06401	0.42953
2048.13545	0.42677
2046.20688	0.42412
2044.27832	0.42149
2042.34976	0.41881
2040.42119	0.41608
2038.49263	0.41311
2036.56406	0.40993
2034.63550	0.40682
2032.70693	0.40390
2030.77837	0.40112
2028.84980	0.39832
2026.92124	0.39544
2024.99268	0.39252
2023.06411	0.38956
2021.13555	0.38664
2019.20698	0.38402
2017.27842	0.38160
2015.34985	0.37876
2013.42129	0.37557
2011.49272	0.37246
2009.56416	0.36953
2007.63560	0.36669
2005.70703	0.36387
2003.77847	0.36107
2001.84990	0.35832
1999.92134	0.35566
1997.99277	0.35302
1996.06421	0.35035
1994.13564	0.34793
1992.20708	0.34575
1990.27852	0.34322
1988.34995	0.34032
1986.42139	0.33743
1984.49282	0.33469
1982.56426	0.33211
1980.63569	0.32962
1978.70713	0.32720
1976.77856	0.32486
1974.85000	0.32261
1972.92144	0.32039
1970.99287	0.31822
1969.06431	0.31629
1967.13574	0.31454
1965.20718	0.31247
1963.27861	0.31007
1961.35005	0.30785
1959.42148	0.30584
1957.49292	0.30389
1955.56436	0.30203
1953.63579	0.30020
1951.70723	0.29835
1949.77866	0.29656
1947.85010	0.29491
1945.92153	0.29360
1943.99297	0.29261
1942.06440	0.29138
1940.13584	0.28938
1938.20728	0.28723
1936.27871	0.28557
1934.35015	0.28430
1932.42158	0.28315
1930.49302	0.28191
1928.56445	0.28064
1926.63589	0.27949
1924.70732	0.27870
1922.77876	0.27808
1920.85020	0.27709
1918.92163	0.27603
1916.99307	0.27500
1915.06450	0.27365
1913.13594	0.27250
1911.20737	0.27201
1909.27881	0.27167
1907.35024	0.27093
1905.42168	0.26986
1903.49312	0.26892
1901.56455	0.26822
1899.63599	0.26770
1897.70742	0.26737
1895.77886	0.26716
1893.85029	0.26685
1891.92173	0.26651
1889.99316	0.26646
1888.06460	0.26622
1886.13604	0.26562
1884.20747	0.26511
1882.27891	0.26470
1880.35034	0.26435
1878.42178	0.26420
1876.49321	0.26417
1874.56465	0.26417
1872.63608	0.26450
1870.70752	0.26546
1868.77896	0.26689
1866.85039	0.26723
1864.92183	0.26626
1862.99326	0.26554
1861.06470	0.26557
1859.13613	0.26592
1857.20757	0.26616
1855.27900	0.26644
1853.35044	0.26684
1851.42187	0.26739
1849.49331	0.26820
1847.56475	0.26940
1845.63618	0.27091
1843.70762	0.27225
1841.77905	0.27253
1839.85049	0.27229
1837.92192	0.27278
1835.99336	0.27367
1834.06479	0.27450
1832.13623	0.27576
1830.20767	0.27794
1828.27910	0.27972
1826.35054	0.28044
1824.42197	0.28141
1822.49341	0.28232
1820.56484	0.28310
1818.63628	0.28430
1816.70771	0.28593
1814.77915	0.28765
1812.85059	0.28967
1810.92202	0.29214
1808.99346	0.29433
1807.06489	0.29597
1805.13633	0.29767
1803.20776	0.30012
1801.27920	0.30320
1799.35063	0.30631
1797.42207	0.30877
1795.49351	0.31121
1793.56494	0.31459
1791.63638	0.31882
1789.70781	0.32178
1787.77925	0.32350
1785.85068	0.32633
1783.92212	0.33025
1781.99355	0.33450
1780.06499	0.33888
1778.13643	0.34312
1776.20786	0.34723
1774.27930	0.35224
1772.35073	0.35919
1770.42217	0.36581
1768.49360	0.37033
1766.56504	0.37464
1764.63647	0.37954
1762.70791	0.38567
1760.77935	0.39354
1758.85078	0.40060
1756.92222	0.40764
1754.99365	0.41531
1753.06509	0.42246
1751.13652	0.43170
1749.20796	0.44343
1747.27939	0.45396
1745.35083	0.46263
1743.42227	0.47209
1741.49370	0.48286
1739.56514	0.49565
1737.63657	0.50844
1735.70801	0.52010
1733.77944	0.53815
1731.85088	0.55840
1729.92231	0.57304
1727.99375	0.58786
1726.06519	0.60430
1724.13662	0.62305
1722.20806	0.64369
1720.27949	0.66301
1718.35093	0.68627
1716.42236	0.72026
1714.49380	0.75087
1712.56523	0.77460
1710.63667	0.79791
1708.70811	0.82366
1706.77954	0.85365
1704.85098	0.88946
1702.92241	0.92090
1700.99385	0.95205
1699.06528	0.99892
1697.13672	1.04081
1695.20815	1.08183
1693.27959	1.12162
1691.35103	1.15400
1689.42246	1.19201
1687.49390	1.23214
1685.56533	1.27061
1683.63677	1.33017
1681.70820	1.39150
1679.77964	1.42913
1677.85107	1.46457
1675.92251	1.50595
1673.99395	1.55812
1672.06538	1.60470
1670.13682	1.64990
1668.20825	1.70693
1666.27969	1.75013
1664.35112	1.78579
1662.42256	1.83188
1660.49399	1.88516
1658.56543	1.92697
1656.63687	1.96223
1654.70830	1.99681
1652.77974	2.05125
1650.85117	2.10231
1648.92261	2.12265
1646.99404	2.15147
1645.06548	2.18228
1643.13691	2.20220
1641.20835	2.21582
1639.27979	2.22990
1637.35122	2.24011
1635.42266	2.24243
1633.49409	2.23629
1631.56553	2.22517
1629.63696	2.21260
1627.70840	2.19022
1625.77983	2.16278
1623.85127	2.12653
1621.92271	2.08103
1619.99414	2.03992
1618.06558	2.00002
1616.13701	1.94260
1614.20845	1.88257
1612.27988	1.83623
1610.35132	1.78829
1608.42275	1.73744
1606.49419	1.68704
1604.56562	1.63970
1602.63706	1.59356
1600.70850	1.54762
1598.77993	1.50455
1596.85137	1.46445
1594.92280	1.42603
1592.99424	1.38823
1591.06567	1.35263
1589.13711	1.31877
1587.20854	1.28681
1585.27998	1.25656
1583.35142	1.22782
1581.42285	1.20135
1579.49429	1.17860
1577.56572	1.15813
1575.63716	1.13171
1573.70859	1.10666
1571.78003	1.09015
1569.85146	1.07318
1567.92290	1.05325
1565.99434	1.03671
1564.06577	1.02254
1562.13721	1.01104
1560.20864	1.00270
1558.28008	0.98779
1556.35151	0.97050
1554.42295	0.95855
1552.49438	0.94721
1550.56582	0.93665
1548.63726	0.92647
1546.70869	0.91785
1544.78013	0.91056
1542.85156	0.90341
1540.92300	0.89411
1538.99443	0.87772
1537.06587	0.86466
1535.13730	0.85707
1533.20874	0.84837
1531.28018	0.83812
1529.35161	0.83031
1527.42305	0.82386
1525.49448	0.81743
1523.56592	0.81172
1521.63735	0.80588
1519.70879	0.79838
1517.78022	0.79148
1515.85166	0.78425
1513.92310	0.77701
1511.99453	0.77179
1510.06597	0.76837
1508.13740	0.76600
1506.20884	0.75977
1504.28027	0.75082
1502.35171	0.74542
1500.42314	0.74202
1498.49458	0.73922
1496.56602	0.73552
1494.63745	0.73086
1492.70889	0.72751
1490.78032	0.72598
1488.85176	0.72407
1486.92319	0.72007
1484.99463	0.71574
1483.06606	0.71243
1481.13750	0.71012
1479.20894	0.70838
1477.28037	0.70724
1475.35181	0.70673
1473.42324	0.70606
1471.49468	0.70316
1469.56611	0.69886
1467.63755	0.69562
1465.70898	0.69364
1463.78042	0.69183
1461.85186	0.68990
1459.92329	0.68890
1457.99473	0.68882
1456.06616	0.68696
1454.13760	0.68270
1452.20903	0.67888
1450.28047	0.67587
1448.35190	0.67350
1446.42334	0.67109
1444.49478	0.66851
1442.56621	0.66634
1440.63765	0.66477
1438.70908	0.66383
1436.78052	0.66306
1434.85195	0.66136
1432.92339	0.65925
1430.99482	0.65768
1429.06626	0.65606
1427.13770	0.65427
1425.20913	0.65311
1423.28057	0.65236
1421.35200	0.65148
1419.42344	0.65078
1417.49487	0.64950
1415.56631	0.64698
1413.63774	0.64454
1411.70918	0.64265
1409.78062	0.64090
1407.85205	0.63925
1405.92349	0.63807
1403.99492	0.63685
1402.06636	0.63523
1400.13779	0.63403
1398.20923	0.63331
1396.28066	0.63214
1394.35210	0.62984
1392.42354	0.62696
1390.49497	0.62482
1388.56641	0.62361
1386.63784	0.62235
1384.70928	0.62040
1382.78071	0.61853
1380.85215	0.61723
1378.92358	0.61637
1376.99502	0.61574
1375.06646	0.61541
1373.13789	0.61488
1371.20933	0.61380
1369.28076	0.61289
1367.35220	0.61232
1365.42363	0.61179
1363.49507	0.61131
1361.56650	0.61016
1359.63794	0.60810
1357.70937	0.60630
1355.78081	0.60513
1353.85225	0.60402
1351.92368	0.60274
1349.99512	0.60151
1348.06655	0.60032
1346.13799	0.59907
1344.20942	0.59795
1342.28086	0.59729
1340.35229	0.59707
1338.42373	0.59637
1336.49517	0.59476
1334.56660	0.59313
1332.63804	0.59194
1330.70947	0.59101
1328.78091	0.59020
1326.85234	0.58945
1324.92378	0.58871
1322.99521	0.58810
1321.06665	0.58778
1319.13809	0.58747
1317.20952	0.58669
1315.28096	0.58573
1313.35239	0.58488
1311.42383	0.58379
1309.49526	0.58249
1307.56670	0.58129
1305.63813	0.58015
1303.70957	0.57909
1301.78101	0.57814
1299.85244	0.57710
1297.92388	0.57597
1295.99531	0.57493
1294.06675	0.57399
1292.13818	0.57314
1290.20962	0.57247
1288.28105	0.57180
1286.35249	0.57096
1284.42393	0.57017
1282.49536	0.56953
1280.56680	0.56884
1278.63823	0.56806
1276.70967	0.56735
1274.78110	0.56674
1272.85254	0.56619
1270.92397	0.56567
1268.99541	0.56507
1267.06685	0.56437
1265.13828	0.56381
1263.20972	0.56350
1261.28115	0.56324
1259.35259	0.56285
1257.42402	0.56234
1255.49546	0.56181
1253.56689	0.56146
1251.63833	0.56136
1249.70977	0.56121
1247.78120	0.56073
1245.85264	0.56010
1243.92407	0.55949
1241.99551	0.55885
1240.06694	0.55817
1238.13838	0.55747
1236.20981	0.55675
1234.28125	0.55602
1232.35269	0.55527
1230.42412	0.55439
1228.49556	0.55347
1226.56699	0.55265
1224.63843	0.55170
1222.70986	0.55040
1220.78130	0.54921
1218.85273	0.54840
1216.92417	0.54756
1214.99561	0.54660
1213.06704	0.54574
1211.13848	0.54503
1209.20991	0.54454
1207.28135	0.54414
1205.35278	0.54361
1203.42422	0.54296
1201.49565	0.54230
1199.56709	0.54150
1197.63853	0.54051
1195.70996	0.53963
1193.78140	0.53890
1191.85283	0.53820
1189.92427	0.53766
1187.99570	0.53732
1186.06714	0.53699
1184.13857	0.53664
1182.21001	0.53642
1180.28145	0.53642
1178.35288	0.53674
1176.42432	0.53744
1174.49575	0.53845
1172.56719	0.53954
1170.63862	0.54063
1168.71006	0.54183
1166.78149	0.54308
1164.85293	0.54413
1162.92437	0.54502
1160.99580	0.54604
1159.06724	0.54692
1157.13867	0.54714
1155.21011	0.54665
1153.28154	0.54560
1151.35298	0.54404
1149.42441	0.54191
1147.49585	0.53928
1145.56729	0.53641
1143.63872	0.53362
1141.71016	0.53102
1139.78159	0.52867
1137.85303	0.52681
1135.92446	0.52535
1133.99590	0.52411
1132.06733	0.52323
1130.13877	0.52276
1128.21021	0.52242
1126.28164	0.52196
1124.35308	0.52131
1122.42451	0.52082
1120.49595	0.52070
1118.56738	0.52070
1116.63882	0.52092
1114.71025	0.52162
1112.78169	0.52256
1110.85312	0.52331
1108.92456	0.52399
1106.99600	0.52481
1105.06743	0.52560
1103.13887	0.52637
1101.21030	0.52729
1099.28174	0.52839
1097.35317	0.53001
1095.42461	0.53265
1093.49604	0.53648
1091.56748	0.54164
1089.63892	0.54833
1087.71035	0.55634
1085.78179	0.56504
1083.85322	0.57379
1081.92466	0.58171
1079.99609	0.58774
1078.06753	0.59115
1076.13896	0.59160
1074.21040	0.58903
1072.28184	0.58367
1070.35327	0.57640
1068.42471	0.56883
1066.49614	0.56200
1064.56758	0.55599
1062.63901	0.55073
1060.71045	0.54622
1058.78188	0.54217
1056.85332	0.53834
1054.92476	0.53502
1052.99619	0.53239
1051.06763	0.53033
1049.13906	0.52888
1047.21050	0.52824
1045.28193	0.52855
1043.35337	0.52957
1041.42480	0.53064
1039.49624	0.53138
1037.56768	0.53180
1035.63911	0.53185
1033.71055	0.53140
1031.78198	0.53038
1029.85342	0.52887
1027.92485	0.52697
1025.99629	0.52499
1024.06772	0.52347
1022.13916	0.52255
1020.21060	0.52205
1018.28203	0.52182
1016.35347	0.52158
1014.42490	0.52106
1012.49634	0.52043
1010.56777	0.52013
1008.63921	0.52016
1006.71064	0.52034
1004.78208	0.52097
1002.85352	0.52251
1000.92495	0.52495
998.99639	0.52804
997.06782	0.53178
995.13926	0.53607
993.21069	0.54008
991.28213	0.54298
989.35356	0.54466
987.42500	0.54533
985.49644	0.54540
983.56787	0.54541
981.63931	0.54567
979.71074	0.54628
977.78218	0.54744
975.85361	0.54919
973.92505	0.55132
971.99648	0.55380
970.06792	0.55703
968.13936	0.56105
966.21079	0.56536
964.28223	0.56997
962.35366	0.57511
960.42510	0.58038
958.49653	0.58554
956.56797	0.59094
954.63940	0.59686
952.71084	0.60319
950.78228	0.60946
948.85371	0.61565
946.92515	0.62213
944.99658	0.62864
943.06802	0.63485
941.13945	0.64098
939.21089	0.64704
937.28232	0.65275
935.35376	0.65811
933.42520	0.66378
931.49663	0.66992
929.56807	0.67571
927.63950	0.68088
925.71094	0.68607
923.78237	0.69205
921.85381	0.69911
919.92524	0.70675
917.99668	0.71443
916.06812	0.72235
914.13955	0.73061
912.21099	0.73868
910.28242	0.74652
908.35386	0.75470
906.42529	0.76339
904.49673	0.77229
902.56816	0.78116
900.63960	0.78983
898.71104	0.79915
896.78247	0.80952
894.85391	0.81972
892.92534	0.82982
890.99678	0.84050
889.06821	0.85199
887.13965	0.86414
885.21108	0.87579
883.28252	0.88669
881.35396	0.89723
879.42539	0.90853
877.49683	0.92099
875.56826	0.93289
873.63970	0.94334
871.71113	0.95327
869.78257	0.96378
867.85400	0.97519
865.92544	0.98724
863.99687	0.99895
862.06831	1.00963
860.13975	1.02076
858.21118	1.03348
856.28262	1.04639
854.35405	1.05881
852.42549	1.07172
850.49692	1.08533
848.56836	1.09785
846.63979	1.10794
844.71123	1.11857
842.78267	1.13186
840.85410	1.14562
838.92554	1.15745
836.99697	1.16682
835.06841	1.17636
833.13984	1.18832
831.21128	1.19782
829.28271	1.20364
827.35415	1.21636
825.42559	1.23497
823.49702	1.24602
821.56846	1.25112
819.63989	1.26089
817.71133	1.27127
815.78276	1.27783
813.85420	1.29589
811.92563	1.33132
809.99707	1.36648
808.06851	1.37626
806.13994	1.35672
804.21138	1.35142
802.28281	1.38232
800.35425	1.40624
798.42568	1.40113
796.49712	1.39368
794.56855	1.38988
792.63999	1.40306
790.71143	1.44434
788.78286	1.47440
786.85430	1.45462
784.92573	1.43572
782.99717	1.47651
781.06860	1.54213
779.14004	1.52289
777.21147	1.45430
775.28291	1.41501
773.35435	1.37804
771.42578	1.33598
769.49722	1.38225
767.56865	1.68949
765.64009	2.29654
763.71152	1.77736
761.78296	1.59530
759.85439	1.61510
757.92583	1.72981
755.99727	2.05352
754.06870	4.52441
752.14014	4.51284
750.21157	4.50127
748.28301	1.63443
746.35444	1.46668
744.42588	1.43838
742.49731	1.54852
740.56875	1.37147
738.64019	1.05217
736.71162	0.83134
734.78306	0.68417
732.85449	0.63859
730.92593	0.72204
728.99736	0.82261
727.06880	0.70818
725.14023	0.54468
723.21167	0.45254
721.28311	0.39168
719.35454	0.32390
717.42598	0.29198
715.49741	0.32010
713.56885	0.34277
711.64028	0.33753
709.71172	0.30660
707.78315	0.21291
705.85459	0.13614
703.92603	0.14594
701.99746	0.29432
700.06890	0.68936
698.14033	1.36052
696.21177	0.39925
694.28320	0.17523
692.35464	0.25151
690.42607	0.47303
688.49751	0.50711
686.56895	0.37830
684.64038	0.35204
682.71182	0.47888
680.78325	0.90437
678.85469	0.85822
676.92612	0.39547
674.99756	0.22800
673.06899	0.25653
671.14043	0.65323
669.21187	4.01527
667.28330	0.60142
665.35474	0.37901
663.42617	0.44906
661.49761	0.34294
659.56904	0.23147
657.64048	0.18057
655.71191	0.15628
653.78335	0.23129
651.85479	0.46129
649.92622	0.60268
647.99766	0.30703
646.06909	0.24135
644.14053	0.30050
642.21196	0.31817
640.28340	0.31327
638.35483	0.40693
636.42627	0.57426
634.49771	0.61042
632.56914	0.62387
630.64058	3.78384
628.71201	3.77227
626.78345	0.58865
624.85488	0.37066
622.92632	0.32371
620.99775	0.21613
619.06919	0.22982
617.14062	0.34677
615.21206	0.40041
613.28350	0.38113
611.35493	0.40564
609.42637	0.46901
607.49780	0.41294
605.56924	0.30138
603.64067	0.35217
601.71211	0.59312
599.78354	0.32773
597.85498	0.16058
595.92642	0.11104
593.99785	0.13238
592.06929	0.17137
590.14072	0.11979
588.21216	0.01737
586.28359	0.04779
584.35503	0.21418
582.42646	0.45714
580.49790	0.44392
578.56934	0.40944
576.64077	0.64924
574.71221	1.09355
572.78364	0.50618
570.85508	0.19792
568.92651	0.11152
566.99795	0.27318
565.06938	0.74155
563.14082	0.64709
561.21226	0.41154
559.28369	0.33745
557.35513	0.29808
555.42656	0.29936
553.49800	0.29047
551.56943	0.33010
549.64087	0.29527
547.71230	0.12229
545.78374	0.10532
543.85518	0.30700
541.92661	3.25156
539.99805	3.23999
538.06948	0.50732
536.14092	0.40798
534.21235	0.60251
532.28379	0.71979
530.35522	0.30278
528.42666	0.16270
526.49810	0.15784
524.56953	0.20009
522.64097	0.23852
520.71240	0.20651
518.78384	0.08709
516.85527	-0.00447
514.92671	0.00049
512.99814	0.08706
511.06958	0.17466
509.14102	0.26395
507.21245	0.36533
505.28389	0.27355
503.35532	0.19438
501.42676	0.23118
499.49819	0.40147
