3997.91411	0.08328
3995.98555	0.08384
3994.05698	0.08392
3992.12842	0.08378
3990.19985	0.08395
3988.27129	0.08415
3986.34272	0.08438
3984.41416	0.08502
3982.48560	0.08568
3980.55703	0.08610
3978.62847	0.08635
3976.69990	0.08642
3974.77134	0.08634
3972.84277	0.08617
3970.91421	0.08608
3968.98564	0.08636
3967.05708	0.08665
3965.12852	0.08654
3963.19995	0.08657
3961.27139	0.08698
3959.34282	0.08706
3957.41426	0.08686
3955.48569	0.08696
3953.55713	0.08719
3951.62856	0.08727
3949.70000	0.08730
3947.77144	0.08707
3945.84287	0.08659
3943.91431	0.08660
3941.98574	0.08722
3940.05718	0.08741
3938.12861	0.08697
3936.20005	0.08690
3934.27148	0.08722
3932.34292	0.08724
3930.41436	0.08688
3928.48579	0.08669
3926.55723	0.08666
3924.62866	0.08641
3922.70010	0.08620
3920.77153	0.08651
3918.84297	0.08685
3916.91440	0.08672
3914.98584	0.08635
3913.05728	0.08612
3911.12871	0.08611
3909.20015	0.08601
3907.27158	0.08582
3905.34302	0.08608
3903.41445	0.08670
3901.48589	0.08686
3899.55732	0.08695
3897.62876	0.08696
3895.70020	0.08625
3893.77163	0.08542
3891.84307	0.08524
3889.91450	0.08540
3887.98594	0.08519
3886.05737	0.08538
3884.12881	0.08632
3882.20024	0.08668
3880.27168	0.08633
3878.34312	0.08611
3876.41455	0.08621
3874.48599	0.08674
3872.55742	0.08755
3870.62886	0.08834
3868.70029	0.08914
3866.77173	0.08917
3864.84316	0.08890
3862.91460	0.08924
3860.98604	0.08962
3859.05747	0.08979
3857.12891	0.09012
3855.20034	0.09078
3853.27178	0.09206
3851.34321	0.09305
3849.41465	0.09237
3847.48608	0.09132
3845.55752	0.09066
3843.62896	0.09081
3841.70039	0.09200
3839.77183	0.09362
3837.84326	0.09521
3835.91470	0.09626
3833.98613	0.09621
3832.05757	0.09597
3830.12900	0.09627
3828.20044	0.09671
3826.27187	0.09722
3824.34331	0.09813
3822.41475	0.09953
3820.48618	0.10147
3818.55762	0.10272
3816.62905	0.10351
3814.70049	0.10450
3812.77192	0.10466
3810.84336	0.10446
3808.91479	0.10470
3806.98623	0.10570
3805.05767	0.10720
3803.12910	0.10859
3801.20054	0.11054
3799.27197	0.11244
3797.34341	0.11321
3795.41484	0.11385
3793.48628	0.11439
3791.55771	0.11512
3789.62915	0.11656
3787.70059	0.11816
3785.77202	0.11964
3783.84346	0.12118
3781.91489	0.12258
3779.98633	0.12414
3778.05776	0.12609
3776.12920	0.12753
3774.20063	0.12869
3772.27207	0.13030
3770.34351	0.13245
3768.41494	0.13459
3766.48638	0.13614
3764.55781	0.13785
3762.62925	0.13965
3760.70068	0.14140
3758.77212	0.14389
3756.84355	0.14669
3754.91499	0.14889
3752.98643	0.15107
3751.05786	0.15431
3749.12930	0.15820
3747.20073	0.16043
3745.27217	0.16254
3743.34360	0.16705
3741.41504	0.17117
3739.48647	0.17327
3737.55791	0.17604
3735.62935	0.18090
3733.70078	0.18636
3731.77222	0.19023
3729.84365	0.19338
3727.91509	0.19676
3725.98652	0.20179
3724.05796	0.20890
3722.12939	0.21642
3720.20083	0.22394
3718.27227	0.23181
3716.34370	0.23969
3714.41514	0.24724
3712.48657	0.25608
3710.55801	0.26884
3708.62944	0.28312
3706.70088	0.29508
3704.77231	0.30602
3702.84375	0.31856
3700.91519	0.33551
3698.98662	0.35448
3697.05806	0.37199
3695.12949	0.39034
3693.20093	0.41000
3691.27236	0.43118
3689.34380	0.45889
3687.41523	0.49396
3685.48667	0.52513
3683.55811	0.55169
3681.62954	0.57981
3679.70098	0.61150
3677.77241	0.64466
3675.84385	0.68374
3673.91528	0.73683
3671.98672	0.78042
3670.05815	0.81885
3668.12959	0.87190
3666.20103	0.92099
3664.27246	0.96224
3662.34390	1.00627
3660.41533	1.05351
3658.48677	1.09971
3656.55820	1.14869
3654.62964	1.20324
3652.70107	1.24885
3650.77251	1.28820
3648.84395	1.34341
3646.91538	1.41260
3644.98682	1.46333
3643.05825	1.50202
3641.12969	1.54227
3639.20112	1.58712
3637.27256	1.63169
3635.34399	1.67417
3633.41543	1.71597
3631.48687	1.75475
3629.55830	1.79487
3627.62974	1.85014
3625.70117	1.90286
3623.77261	1.93726
3621.84404	1.96913
3619.91548	2.00682
3617.98691	2.05366
3616.05835	2.09787
3614.12979	2.13440
3612.20122	2.17378
3610.27266	2.21356
3608.34409	2.25314
3606.41553	2.29562
3604.48696	2.33554
3602.55840	2.37099
3600.62983	2.40858
3598.70127	2.44941
3596.77271	2.49003
3594.84414	2.53109
3592.91558	2.57209
3590.98701	2.61076
3589.05845	2.64829
3587.12988	2.69344
3585.20132	2.74266
3583.27275	2.78399
3581.34419	2.82188
3579.41562	2.86193
3577.48706	2.90444
3575.55850	2.94838
3573.62993	2.99390
3571.70137	3.03815
3569.77280	3.07863
3567.84424	3.11981
3565.91567	3.17174
3563.98711	3.22379
3562.05854	3.26626
3560.12998	3.30819
3558.20142	3.35104
3556.27285	3.39249
3554.34429	3.43532
3552.41572	3.48573
3550.48716	3.53861
3548.55859	3.58499
3546.63003	3.62934
3544.70146	3.67756
3542.77290	3.72468
3540.84434	3.77009
3538.91577	3.81911
3536.98721	3.86881
3535.05864	3.91704
3533.13008	3.96530
3531.20151	4.01417
3529.27295	4.06354
3527.34438	4.11435
3525.41582	4.16346
3523.48726	4.21000
3521.55869	4.25858
3519.63013	4.30835
3517.70156	4.35824
3515.77300	4.40747
3513.84443	4.45368
3511.91587	4.49736
3509.98730	4.54453
3508.05874	4.59529
3506.13018	4.64292
3504.20161	4.69037
3502.27305	4.74207
3500.34448	4.79262
3498.41592	4.84086
3496.48735	4.89302
3494.55879	4.94541
3492.63022	4.99199
3490.70166	5.03906
3488.77310	5.08881
3486.84453	5.13389
3484.91597	5.17864
3482.98740	5.23157
3481.05884	5.28673
3479.13027	5.33123
3477.20171	5.36696
3475.27314	5.41482
3473.34458	5.48513
3471.41602	5.55233
3469.48745	5.59172
3467.55889	5.62407
3465.63032	5.67323
3463.70176	5.72617
3461.77319	5.77026
3459.84463	5.82381
3457.91606	5.89341
3455.98750	5.95696
3454.05894	5.99570
3452.13037	6.02384
3450.20181	6.06918
3448.27324	6.13277
3446.34468	6.20325
3444.41611	6.25896
3442.48755	6.29536
3440.55898	6.32920
3438.63042	6.37025
3436.70186	6.42353
3434.77329	6.48253
3432.84473	6.54122
3430.91616	6.60279
3428.98760	6.66290
3427.05903	6.70615
3425.13047	6.73970
3423.20190	6.78659
3421.27334	6.84996
3419.34478	6.90611
3417.41621	6.95619
3415.48765	7.01469
3413.55908	7.08123
3411.63052	7.14087
3409.70195	7.15828
3407.77339	7.17124
3405.84482	7.23170
3403.91626	7.31107
3401.98770	7.34848
3400.05913	7.37499
3398.13057	7.44211
3396.20200	7.52391
3394.27344	7.57633
3392.34487	7.56201
3390.41631	7.54929
3388.48774	7.60814
3386.55918	7.71373
3384.63062	7.78730
3382.70205	7.77979
3380.77349	7.74178
3378.84492	7.73879
3376.91636	7.78032
3374.98779	7.86702
3373.05923	7.97119
3371.13066	7.96088
3369.20210	7.91363
3367.27354	7.98648
3365.34497	8.14985
3363.41641	8.26413
3361.48784	8.20468
3359.55928	8.07310
3357.63071	8.03704
3355.70215	8.09691
3353.77358	8.13248
3351.84502	8.17084
3349.91646	8.24470
3347.98789	8.28109
3346.05933	8.26600
3344.13076	8.22906
3342.20220	8.22782
3340.27363	8.26719
3338.34507	8.27270
3336.41650	8.22290
3334.48794	8.22953
3332.55937	8.33044
3330.63081	8.49134
3328.70225	8.65282
3326.77368	8.74910
3324.84512	8.76145
3322.91655	8.64897
3320.98799	8.46744
3319.05942	8.36906
3317.13086	8.42531
3315.20229	8.48908
3313.27373	8.47965
3311.34517	8.46421
3309.41660	8.49165
3307.48804	8.58232
3305.55947	8.68236
3303.63091	8.73325
3301.70234	8.65273
3299.77378	8.59868
3297.84521	8.65429
3295.91665	8.58060
3293.98809	8.38736
3292.05952	8.38084
3290.13096	8.56945
3288.20239	8.57580
3286.27383	8.41809
3284.34526	8.40044
3282.41670	8.48073
3280.48813	8.55999
3278.55957	8.67067
3276.63101	8.66912
3274.70244	8.55627
3272.77388	8.50947
3270.84531	8.43944
3268.91675	8.34704
3266.98818	8.34875
3265.05962	8.43043
3263.13105	8.55000
3261.20249	8.65995
3259.27393	8.65456
3257.34536	8.59928
3255.41680	8.65872
3253.48823	8.75244
3251.55967	8.67482
3249.63110	8.49679
3247.70254	8.35018
3245.77397	8.26676
3243.84541	8.33969
3241.91685	8.57833
3239.98828	8.82718
3238.05972	8.90564
3236.13115	8.79340
3234.20259	8.69826
3232.27402	8.69658
3230.34546	8.63902
3228.41689	8.53578
3226.48833	8.53705
3224.55977	8.54214
3222.63120	8.44472
3220.70264	8.37531
3218.77407	8.37562
3216.84551	8.39525
3214.91694	8.38972
3212.98838	8.35374
3211.05981	8.37460
3209.13125	8.40977
3207.20269	8.29453
3205.27412	8.11813
3203.34556	8.06296
3201.41699	8.08401
3199.48843	8.04919
3197.55986	7.99126
3195.63130	7.97915
3193.70273	7.98884
3191.77417	7.95114
3189.84561	7.85013
3187.91704	7.73601
3185.98848	7.66633
3184.05991	7.65565
3182.13135	7.65127
3180.20278	7.66098
3178.27422	7.70581
3176.34565	7.66936
3174.41709	7.50425
3172.48853	7.34614
3170.55996	7.25185
3168.63140	7.19435
3166.70283	7.14562
3164.77427	7.06405
3162.84570	6.97597
3160.91714	6.92154
3158.98857	6.87778
3157.06001	6.83850
3155.13145	6.79397
3153.20288	6.70475
3151.27432	6.58909
3149.34575	6.49787
3147.41719	6.43607
3145.48862	6.37173
3143.56006	6.29276
3141.63149	6.22071
3139.70293	6.15863
3137.77437	6.09365
3135.84580	6.02067
3133.91724	5.94294
3131.98867	5.87250
3130.06011	5.80902
3128.13154	5.73874
3126.20298	5.66408
3124.27441	5.59081
3122.34585	5.51053
3120.41729	5.42814
3118.48872	5.35410
3116.56016	5.28529
3114.63159	5.21655
3112.70303	5.14874
3110.77446	5.07865
3108.84590	5.00183
3106.91733	4.92951
3104.98877	4.86801
3103.06021	4.80846
3101.13164	4.74388
3099.20308	4.67286
3097.27451	4.59832
3095.34595	4.52365
3093.41738	4.45159
3091.48882	4.38427
3089.56025	4.32101
3087.63169	4.26097
3085.70312	4.20116
3083.77456	4.13732
3081.84600	4.07143
3079.91743	4.00776
3077.98887	3.94592
3076.06030	3.88308
3074.13174	3.82129
3072.20317	3.76367
3070.27461	3.70656
3068.34604	3.64767
3066.41748	3.58956
3064.48892	3.53268
3062.56035	3.47587
3060.63179	3.41942
3058.70322	3.36373
3056.77466	3.30853
3054.84609	3.25396
3052.91753	3.20076
3050.98896	3.14880
3049.06040	3.09791
3047.13184	3.04809
3045.20327	2.99822
3043.27471	2.94789
3041.34614	2.89793
3039.41758	2.84867
3037.48901	2.80001
3035.56045	2.75284
3033.63188	2.70777
3031.70332	2.66314
3029.77476	2.61767
3027.84619	2.57209
3025.91763	2.52748
3023.98906	2.48398
3022.06050	2.44084
3020.13193	2.39823
3018.20337	2.35696
3016.27480	2.31637
3014.34624	2.27556
3012.41768	2.23529
3010.48911	2.19648
3008.56055	2.15912
3006.63198	2.12223
3004.70342	2.08485
3002.77485	2.04783
3000.84629	2.01247
2998.91772	1.97849
2996.98916	1.94512
2995.06060	1.91214
2993.13203	1.87953
2991.20347	1.84737
2989.27490	1.81586
2987.34634	1.78514
2985.41777	1.75486
2983.48921	1.72488
2981.56064	1.69554
2979.63208	1.66672
2977.70352	1.63834
2975.77495	1.61079
2973.84639	1.58346
2971.91782	1.55580
2969.98926	1.52887
2968.06069	1.50304
2966.13213	1.47728
2964.20356	1.45170
2962.27500	1.42705
2960.34644	1.40254
2958.41787	1.37745
2956.48931	1.35267
2954.56074	1.32864
2952.63218	1.30470
2950.70361	1.28102
2948.77505	1.25806
2946.84648	1.23544
2944.91792	1.21288
2942.98936	1.19064
2941.06079	1.16871
2939.13223	1.14680
2937.20366	1.12535
2935.27510	1.10502
2933.34653	1.08539
2931.41797	1.06569
2929.48940	1.04558
2927.56084	1.02563
2925.63228	1.00656
2923.70371	0.98852
2921.77515	0.97124
2919.84658	0.95417
2917.91802	0.93735
2915.98945	0.92092
2914.06089	0.90455
2912.13232	0.88829
2910.20376	0.87261
2908.27520	0.85778
2906.34663	0.84330
2904.41807	0.82851
2902.48950	0.81389
2900.56094	0.80019
2898.63237	0.78711
2896.70381	0.77420
2894.77524	0.76168
2892.84668	0.74957
2890.91812	0.73757
2888.98955	0.72566
2887.06099	0.71394
2885.13242	0.70264
2883.20386	0.69188
2881.27529	0.68137
2879.34673	0.67081
2877.41816	0.66031
2875.48960	0.65020
2873.56104	0.64023
2871.63247	0.62977
2869.70391	0.61861
2867.77534	0.60705
2865.84678	0.59554
2863.91821	0.58399
2861.98965	0.57234
2860.06108	0.56128
2858.13252	0.55110
2856.20396	0.54143
2854.27539	0.53216
2852.34683	0.52350
2850.41826	0.51546
2848.48970	0.50777
2846.56113	0.50020
2844.63257	0.49276
2842.70400	0.48576
2840.77544	0.47948
2838.84687	0.47361
2836.91831	0.46773
2834.98975	0.46162
2833.06118	0.45551
2831.13262	0.44958
2829.20405	0.44370
2827.27549	0.43775
2825.34692	0.43169
2823.41836	0.42564
2821.48979	0.41980
2819.56123	0.41395
2817.63267	0.40799
2815.70410	0.40224
2813.77554	0.39672
2811.84697	0.39119
2809.91841	0.38570
2807.98984	0.38032
2806.06128	0.37489
2804.13271	0.36953
2802.20415	0.36445
2800.27559	0.35957
2798.34702	0.35481
2796.41846	0.35003
2794.48989	0.34511
2792.56133	0.34026
2790.63276	0.33571
2788.70420	0.33127
2786.77563	0.32680
2784.84707	0.32255
2782.91851	0.31852
2780.98994	0.31443
2779.06138	0.31024
2777.13281	0.30609
2775.20425	0.30210
2773.27568	0.29823
2771.34712	0.29448
2769.41855	0.29099
2767.48999	0.28770
2765.56143	0.28433
2763.63286	0.28086
2761.70430	0.27742
2759.77573	0.27402
2757.84717	0.27060
2755.91860	0.26737
2753.99004	0.26448
2752.06147	0.26167
2750.13291	0.25873
2748.20435	0.25566
2746.27578	0.25269
2744.34722	0.24991
2742.41865	0.24718
2740.49009	0.24446
2738.56152	0.24186
2736.63296	0.23944
2734.70439	0.23711
2732.77583	0.23467
2730.84727	0.23221
2728.91870	0.22989
2726.99014	0.22764
2725.06157	0.22535
2723.13301	0.22304
2721.20444	0.22082
2719.27588	0.21870
2717.34731	0.21664
2715.41875	0.21468
2713.49019	0.21281
2711.56162	0.21091
2709.63306	0.20904
2707.70449	0.20737
2705.77593	0.20586
2703.84736	0.20431
2701.91880	0.20269
2699.99023	0.20114
2698.06167	0.19963
2696.13311	0.19815
2694.20454	0.19679
2692.27598	0.19543
2690.34741	0.19397
2688.41885	0.19259
2686.49028	0.19135
2684.56172	0.19018
2682.63315	0.18904
2680.70459	0.18786
2678.77603	0.18667
2676.84746	0.18553
2674.91890	0.18442
2672.99033	0.18331
2671.06177	0.18229
2669.13320	0.18133
2667.20464	0.18033
2665.27607	0.17934
2663.34751	0.17843
2661.41895	0.17756
2659.49038	0.17679
2657.56182	0.17601
2655.63325	0.17515
2653.70469	0.17437
2651.77612	0.17365
2649.84756	0.17295
2647.91899	0.17237
2645.99043	0.17194
2644.06187	0.17151
2642.13330	0.17093
2640.20474	0.17039
2638.27617	0.17010
2636.34761	0.16983
2634.41904	0.16934
2632.49048	0.16878
2630.56191	0.16833
2628.63335	0.16796
2626.70479	0.16769
2624.77622	0.16737
2622.84766	0.16693
2620.91909	0.16663
2618.99053	0.16649
2617.06196	0.16627
2615.13340	0.16601
2613.20483	0.16593
2611.27627	0.16600
2609.34771	0.16594
2607.41914	0.16564
2605.49058	0.16541
2603.56201	0.16532
2601.63345	0.16525
2599.70488	0.16523
2597.77632	0.16539
2595.84775	0.16560
2593.91919	0.16567
2591.99062	0.16574
2590.06206	0.16597
2588.13350	0.16622
2586.20493	0.16635
2584.27637	0.16643
2582.34780	0.16663
2580.41924	0.16702
2578.49067	0.16742
2576.56211	0.16766
2574.63354	0.16783
2572.70498	0.16808
2570.77642	0.16835
2568.84785	0.16869
2566.91929	0.16920
2564.99072	0.16974
2563.06216	0.17019
2561.13359	0.17065
2559.20503	0.17119
2557.27646	0.17160
2555.34790	0.17179
2553.41934	0.17215
2551.49077	0.17276
2549.56221	0.17341
2547.63364	0.17408
2545.70508	0.17477
2543.77651	0.17543
2541.84795	0.17602
2539.91938	0.17652
2537.99082	0.17698
2536.06226	0.17766
2534.13369	0.17861
2532.20513	0.17954
2530.27656	0.18026
2528.34800	0.18086
2526.41943	0.18148
2524.49087	0.18210
2522.56230	0.18273
2520.63374	0.18347
2518.70518	0.18426
2516.77661	0.18507
2514.84805	0.18603
2512.91948	0.18703
2510.99092	0.18786
2509.06235	0.18856
2507.13379	0.18926
2505.20522	0.19007
2503.27666	0.19103
2501.34810	0.19191
2499.41953	0.19265
2497.49097	0.19345
2495.56240	0.19429
2493.63384	0.19513
2491.70527	0.19603
2489.77671	0.19701
2487.84814	0.19793
2485.91958	0.19887
2483.99102	0.19989
2482.06245	0.20089
2480.13389	0.20171
2478.20532	0.20239
2476.27676	0.20317
2474.34819	0.20412
2472.41963	0.20511
2470.49106	0.20607
2468.56250	0.20702
2466.63394	0.20790
2464.70537	0.20881
2462.77681	0.20989
2460.84824	0.21097
2458.91968	0.21192
2456.99111	0.21287
2455.06255	0.21390
2453.13398	0.21493
2451.20542	0.21587
2449.27686	0.21689
2447.34829	0.21803
2445.41973	0.21903
2443.49116	0.21989
2441.56260	0.22078
2439.63403	0.22169
2437.70547	0.22264
2435.77690	0.22370
2433.84834	0.22486
2431.91978	0.22608
2429.99121	0.22720
2428.06265	0.22819
2426.13408	0.22921
2424.20552	0.23030
2422.27695	0.23147
2420.34839	0.23268
2418.41982	0.23386
2416.49126	0.23494
2414.56270	0.23595
2412.63413	0.23701
2410.70557	0.23827
2408.77700	0.23963
2406.84844	0.24091
2404.91987	0.24210
2402.99131	0.24319
2401.06274	0.24428
2399.13418	0.24563
2397.20562	0.24717
2395.27705	0.24848
2393.34849	0.24952
2391.41992	0.25057
2389.49136	0.25171
2387.56279	0.25290
2385.63423	0.25403
2383.70566	0.25494
2381.77710	0.25550
2379.84854	0.25592
2377.91997	0.25644
2375.99141	0.25671
2374.06284	0.25647
2372.13428	0.25610
2370.20571	0.25624
2368.27715	0.25677
2366.34858	0.25710
2364.42002	0.25751
2362.49146	0.25828
2360.56289	0.25824
2358.63433	0.25783
2356.70576	0.25999
2354.77720	0.26476
2352.84863	0.26944
2350.92007	0.27247
2348.99150	0.27399
2347.06294	0.27463
2345.13437	0.27518
2343.20581	0.27610
2341.27725	0.27681
2339.34868	0.27762
2337.42012	0.27945
2335.49155	0.28209
2333.56299	0.28479
2331.63442	0.28732
2329.70586	0.28968
2327.77729	0.29174
2325.84873	0.29373
2323.92017	0.29602
2321.99160	0.29830
2320.06304	0.30057
2318.13447	0.30314
2316.20591	0.30556
2314.27734	0.30770
2312.34878	0.30982
2310.42021	0.31205
2308.49165	0.31427
2306.56309	0.31650
2304.63452	0.31876
2302.70596	0.32088
2300.77739	0.32293
2298.84883	0.32520
2296.92026	0.32750
2294.99170	0.32965
2293.06313	0.33184
2291.13457	0.33405
2289.20601	0.33624
2287.27744	0.33851
2285.34888	0.34067
2283.42031	0.34264
2281.49175	0.34462
2279.56318	0.34666
2277.63462	0.34869
2275.70605	0.35068
2273.77749	0.35262
2271.84893	0.35463
2269.92036	0.35682
2267.99180	0.35906
2266.06323	0.36125
2264.13467	0.36345
2262.20610	0.36568
2260.27754	0.36790
2258.34897	0.37005
2256.42041	0.37223
2254.49185	0.37452
2252.56328	0.37689
2250.63472	0.37925
2248.70615	0.38150
2246.77759	0.38363
2244.84902	0.38574
2242.92046	0.38802
2240.99189	0.39047
2239.06333	0.39285
2237.13477	0.39510
2235.20620	0.39736
2233.27764	0.39962
2231.34907	0.40180
2229.42051	0.40400
2227.49194	0.40630
2225.56338	0.40862
2223.63481	0.41094
2221.70625	0.41324
2219.77769	0.41551
2217.84912	0.41777
2215.92056	0.41994
2213.99199	0.42205
2212.06343	0.42420
2210.13486	0.42637
2208.20630	0.42849
2206.27773	0.43055
2204.34917	0.43260
2202.42061	0.43472
2200.49204	0.43686
2198.56348	0.43900
2196.63491	0.44114
2194.70635	0.44320
2192.77778	0.44511
2190.84922	0.44702
2188.92065	0.44897
2186.99209	0.45082
2185.06353	0.45254
2183.13496	0.45426
2181.20640	0.45607
2179.27783	0.45786
2177.34927	0.45949
2175.42070	0.46099
2173.49214	0.46241
2171.56357	0.46375
2169.63501	0.46511
2167.70645	0.46654
2165.77788	0.46791
2163.84932	0.46915
2161.92075	0.47037
2159.99219	0.47158
2158.06362	0.47256
2156.13506	0.47325
2154.20649	0.47389
2152.27793	0.47471
2150.34937	0.47559
2148.42080	0.47634
2146.49224	0.47695
2144.56367	0.47739
2142.63511	0.47770
2140.70654	0.47797
2138.77798	0.47826
2136.84941	0.47847
2134.92085	0.47848
2132.99229	0.47835
2131.06372	0.47817
2129.13516	0.47797
2127.20659	0.47777
2125.27803	0.47754
2123.34946	0.47715
2121.42090	0.47656
2119.49233	0.47580
2117.56377	0.47503
2115.63521	0.47432
2113.70664	0.47357
2111.77808	0.47273
2109.84951	0.47179
2107.92095	0.47069
2105.99238	0.46939
2104.06382	0.46808
2102.13525	0.46678
2100.20669	0.46540
2098.27812	0.46388
2096.34956	0.46234
2094.42100	0.46079
2092.49243	0.45915
2090.56387	0.45737
2088.63530	0.45550
2086.70674	0.45362
2084.77817	0.45170
2082.84961	0.44966
2080.92104	0.44751
2078.99248	0.44531
2077.06392	0.44317
2075.13535	0.44109
2073.20679	0.43893
2071.27822	0.43658
2069.34966	0.43409
2067.42109	0.43157
2065.49253	0.42913
2063.56396	0.42673
2061.63540	0.42430
2059.70684	0.42181
2057.77827	0.41921
2055.84971	0.41654
2053.92114	0.41383
2051.99258	0.41111
2050.06401	0.40836
2048.13545	0.40568
2046.20688	0.40309
2044.27832	0.40049
2042.34976	0.39771
2040.42119	0.39480
2038.49263	0.39187
2036.56406	0.38895
2034.63550	0.38610
2032.70693	0.38333
2030.77837	0.38051
2028.84980	0.37757
2026.92124	0.37461
2024.99268	0.37168
2023.06411	0.36884
2021.13555	0.36605
2019.20698	0.36327
2017.27842	0.36044
2015.34985	0.35749
2013.42129	0.35461
2011.49272	0.35182
2009.56416	0.34904
2007.63560	0.34627
2005.70703	0.34345
2003.77847	0.34063
2001.84990	0.33790
1999.92134	0.33522
1997.99277	0.33247
1996.06421	0.32973
1994.13564	0.32716
1992.20708	0.32472
1990.27852	0.32218
1988.34995	0.31959
1986.42139	0.31707
1984.49282	0.31458
1982.56426	0.31209
1980.63569	0.30960
1978.70713	0.30717
1976.77856	0.30484
1974.85000	0.30256
1972.92144	0.30033
1970.99287	0.29820
1969.06431	0.29613
1967.13574	0.29406
1965.20718	0.29192
1963.27861	0.28978
1961.35005	0.28779
1959.42148	0.28591
1957.49292	0.28404
1955.56436	0.28217
1953.63579	0.28035
1951.70723	0.27861
1949.77866	0.27688
1947.85010	0.27517
1945.92153	0.27362
1943.99297	0.27220
1942.06440	0.27068
1940.13584	0.26896
1938.20728	0.26734
1936.27871	0.26595
1934.35015	0.26467
1932.42158	0.26346
1930.49302	0.26225
1928.56445	0.26103
1926.63589	0.25985
1924.70732	0.25889
1922.77876	0.25802
1920.85020	0.25696
1918.92163	0.25587
1916.99307	0.25498
1915.06450	0.25414
1913.13594	0.25325
1911.20737	0.25251
1909.27881	0.25187
1907.35024	0.25115
1905.42168	0.25033
1903.49312	0.24967
1901.56455	0.24922
1899.63599	0.24883
1897.70742	0.24845
1895.77886	0.24798
1893.85029	0.24747
1891.92173	0.24706
1889.99316	0.24687
1888.06460	0.24665
1886.13604	0.24626
1884.20747	0.24591
1882.27891	0.24564
1880.35034	0.24550
1878.42178	0.24551
1876.49321	0.24552
1874.56465	0.24543
1872.63608	0.24544
1870.70752	0.24560
1868.77896	0.24603
1866.85039	0.24643
1864.92183	0.24653
1862.99326	0.24657
1861.06470	0.24670
1859.13613	0.24699
1857.20757	0.24735
1855.27900	0.24779
1853.35044	0.24829
1851.42187	0.24885
1849.49331	0.24939
1847.56475	0.24994
1845.63618	0.25066
1843.70762	0.25165
1841.77905	0.25255
1839.85049	0.25307
1837.92192	0.25377
1835.99336	0.25466
1834.06479	0.25559
1832.13623	0.25659
1830.20767	0.25804
1828.27910	0.25962
1826.35054	0.26074
1824.42197	0.26202
1822.49341	0.26336
1820.56484	0.26461
1818.63628	0.26597
1816.70771	0.26754
1814.77915	0.26915
1812.85059	0.27090
1810.92202	0.27294
1808.99346	0.27507
1807.06489	0.27709
1805.13633	0.27895
1803.20776	0.28100
1801.27920	0.28339
1799.35063	0.28627
1797.42207	0.28902
1795.49351	0.29150
1793.56494	0.29420
1791.63638	0.29777
1789.70781	0.30143
1787.77925	0.30422
1785.85068	0.30733
1783.92212	0.31102
1781.99355	0.31497
1780.06499	0.31923
1778.13643	0.32373
1776.20786	0.32792
1774.27930	0.33222
1772.35073	0.33804
1770.42217	0.34452
1768.49360	0.34995
1766.56504	0.35516
1764.63647	0.36046
1762.70791	0.36623
1760.77935	0.37366
1758.85078	0.38081
1756.92222	0.38797
1754.99365	0.39575
1753.06509	0.40277
1751.13652	0.41099
1749.20796	0.42141
1747.27939	0.43183
1745.35083	0.44118
1743.42227	0.45107
1741.49370	0.46178
1739.56514	0.47430
1737.63657	0.48699
1735.70801	0.49798
1733.77944	0.51429
1731.85088	0.53420
1729.92231	0.55032
1727.99375	0.56676
1726.06519	0.58407
1724.13662	0.60269
1722.20806	0.62299
1720.27949	0.64191
1718.35093	0.66384
1716.42236	0.69623
1714.49380	0.72737
1712.56523	0.75259
1710.63667	0.77692
1708.70811	0.80290
1706.77954	0.83242
1704.85098	0.86783
1702.92241	0.89964
1700.99385	0.93118
1699.06528	0.97782
1697.13672	1.02042
1695.20815	1.06458
1693.27959	1.10810
1691.35103	1.14263
1689.42246	1.18225
1687.49390	1.22448
1685.56533	1.26515
1683.63677	1.32825
1681.70820	1.39462
1679.77964	1.43617
1677.85107	1.47528
1675.92251	1.52054
1673.99395	1.57719
1672.06538	1.62771
1670.13682	1.67701
1668.20825	1.74218
1666.27969	1.79551
1664.35112	1.84083
1662.42256	1.89752
1660.49399	1.96113
1658.56543	2.00933
1656.63687	2.04839
1654.70830	2.08569
1652.77974	2.14318
1650.85117	2.19543
1648.92261	2.21277
1646.99404	2.23863
1645.06548	2.27021
1643.13691	2.29132
1641.20835	2.30139
1639.27979	2.30965
1637.35122	2.31480
1635.42266	2.31485
1633.49409	2.30888
1631.56553	2.29689
1629.63696	2.28056
1627.70840	2.25077
1625.77983	2.21794
1623.85127	2.17907
1621.92271	2.12930
1619.99414	2.08309
1618.06558	2.03877
1616.13701	1.97696
1614.20845	1.91355
1612.27988	1.86418
1610.35132	1.81258
1608.42275	1.75813
1606.49419	1.70491
1604.56562	1.65532
1602.63706	1.60702
1600.70850	1.56015
1598.77993	1.51740
1596.85137	1.47694
1594.92280	1.43733
1592.99424	1.39911
1591.06567	1.36399
1589.13711	1.33090
1587.20854	1.30018
1585.27998	1.27190
1583.35142	1.24551
1581.42285	1.22140
1579.49429	1.20070
1577.56572	1.18187
1575.63716	1.15899
1573.70859	1.13931
1571.78003	1.12678
1569.85146	1.11373
1567.92290	1.09906
1565.99434	1.08803
1564.06577	1.07950
1562.13721	1.07239
1560.20864	1.06713
1558.28008	1.06246
1556.35151	1.05925
1554.42295	1.05651
1552.49438	1.05373
1550.56582	1.04988
1548.63726	1.04390
1546.70869	1.03641
1544.78013	1.02714
1542.85156	1.01595
1540.92300	1.00059
1538.99443	0.97621
1537.06587	0.95846
1535.13730	0.94666
1533.20874	0.93059
1531.28018	0.91323
1529.35161	0.90062
1527.42305	0.88878
1525.49448	0.87666
1523.56592	0.86634
1521.63735	0.85617
1519.70879	0.84566
1517.78022	0.83683
1515.85166	0.82695
1513.92310	0.81679
1511.99453	0.80814
1510.06597	0.80040
1508.13740	0.79274
1506.20884	0.78070
1504.28027	0.76985
1502.35171	0.76354
1500.42314	0.75816
1498.49458	0.75247
1496.56602	0.74587
1494.63745	0.73936
1492.70889	0.73430
1490.78032	0.72994
1488.85176	0.72496
1486.92319	0.72011
1484.99463	0.71627
1483.06606	0.71317
1481.13750	0.71052
1479.20894	0.70835
1477.28037	0.70672
1475.35181	0.70552
1473.42324	0.70459
1471.49468	0.70311
1469.56611	0.70084
1467.63755	0.69835
1465.70898	0.69606
1463.78042	0.69423
1461.85186	0.69303
1459.92329	0.69231
1457.99473	0.69150
1456.06616	0.68983
1454.13760	0.68775
1452.20903	0.68545
1450.28047	0.68272
1448.35190	0.67998
1446.42334	0.67731
1444.49478	0.67473
1442.56621	0.67226
1440.63765	0.66984
1438.70908	0.66751
1436.78052	0.66486
1434.85195	0.66175
1432.92339	0.65917
1430.99482	0.65753
1429.06626	0.65657
1427.13770	0.65583
1425.20913	0.65541
1423.28057	0.65543
1421.35200	0.65536
1419.42344	0.65514
1417.49487	0.65489
1415.56631	0.65404
1413.63774	0.65292
1411.70918	0.65223
1409.78062	0.65224
1407.85205	0.65257
1405.92349	0.65307
1403.99492	0.65358
1402.06636	0.65340
1400.13779	0.65229
1398.20923	0.65040
1396.28066	0.64804
1394.35210	0.64510
1392.42354	0.64168
1390.49497	0.63833
1388.56641	0.63496
1386.63784	0.63130
1384.70928	0.62746
1382.78071	0.62374
1380.85215	0.62029
1378.92358	0.61728
1376.99502	0.61474
1375.06646	0.61275
1373.13789	0.61135
1371.20933	0.61047
1369.28076	0.60976
1367.35220	0.60870
1365.42363	0.60718
1363.49507	0.60558
1361.56650	0.60418
1359.63794	0.60296
1357.70937	0.60187
1355.78081	0.60080
1353.85225	0.59973
1351.92368	0.59879
1349.99512	0.59800
1348.06655	0.59731
1346.13799	0.59651
1344.20942	0.59555
1342.28086	0.59467
1340.35229	0.59398
1338.42373	0.59320
1336.49517	0.59241
1334.56660	0.59200
1332.63804	0.59188
1330.70947	0.59171
1328.78091	0.59151
1326.85234	0.59147
1324.92378	0.59157
1322.99521	0.59179
1321.06665	0.59216
1319.13809	0.59250
1317.20952	0.59246
1315.28096	0.59213
1313.35239	0.59171
1311.42383	0.59104
1309.49526	0.59017
1307.56670	0.58937
1305.63813	0.58866
1303.70957	0.58795
1301.78101	0.58722
1299.85244	0.58633
1297.92388	0.58516
1295.99531	0.58387
1294.06675	0.58269
1292.13818	0.58151
1290.20962	0.58029
1288.28105	0.57924
1286.35249	0.57820
1284.42393	0.57705
1282.49536	0.57590
1280.56680	0.57479
1278.63823	0.57369
1276.70967	0.57270
1274.78110	0.57179
1272.85254	0.57093
1270.92397	0.57018
1268.99541	0.56953
1267.06685	0.56886
1265.13828	0.56811
1263.20972	0.56739
1261.28115	0.56675
1259.35259	0.56624
1257.42402	0.56580
1255.49546	0.56537
1253.56689	0.56517
1251.63833	0.56532
1249.70977	0.56542
1247.78120	0.56515
1245.85264	0.56476
1243.92407	0.56433
1241.99551	0.56375
1240.06694	0.56297
1238.13838	0.56181
1236.20981	0.56021
1234.28125	0.55841
1232.35269	0.55653
1230.42412	0.55479
1228.49556	0.55325
1226.56699	0.55177
1224.63843	0.55027
1222.70986	0.54885
1220.78130	0.54766
1218.85273	0.54660
1216.92417	0.54544
1214.99561	0.54430
1213.06704	0.54343
1211.13848	0.54274
1209.20991	0.54202
1207.28135	0.54119
1205.35278	0.54023
1203.42422	0.53920
1201.49565	0.53825
1199.56709	0.53760
1197.63853	0.53710
1195.70996	0.53646
1193.78140	0.53587
1191.85283	0.53548
1189.92427	0.53523
1187.99570	0.53503
1186.06714	0.53485
1184.13857	0.53488
1182.21001	0.53518
1180.28145	0.53570
1178.35288	0.53643
1176.42432	0.53733
1174.49575	0.53832
1172.56719	0.53913
1170.63862	0.53945
1168.71006	0.53932
1166.78149	0.53909
1164.85293	0.53907
1162.92437	0.53918
1160.99580	0.53907
1159.06724	0.53850
1157.13867	0.53757
1155.21011	0.53654
1153.28154	0.53529
1151.35298	0.53360
1149.42441	0.53151
1147.49585	0.52921
1145.56729	0.52677
1143.63872	0.52425
1141.71016	0.52184
1139.78159	0.51971
1137.85303	0.51790
1135.92446	0.51651
1133.99590	0.51545
1132.06733	0.51455
1130.13877	0.51392
1128.21021	0.51343
1126.28164	0.51277
1124.35308	0.51188
1122.42451	0.51098
1120.49595	0.51032
1118.56738	0.50978
1116.63882	0.50911
1114.71025	0.50851
1112.78169	0.50838
1110.85312	0.50872
1108.92456	0.50929
1106.99600	0.50999
1105.06743	0.51094
1103.13887	0.51230
1101.21030	0.51404
1099.28174	0.51607
1097.35317	0.51849
1095.42461	0.52144
1093.49604	0.52483
1091.56748	0.52862
1089.63892	0.53311
1087.71035	0.53859
1085.78179	0.54502
1083.85322	0.55204
1081.92466	0.55879
1079.99609	0.56419
1078.06753	0.56760
1076.13896	0.56849
1074.21040	0.56643
1072.28184	0.56190
1070.35327	0.55585
1068.42471	0.54906
1066.49614	0.54218
1064.56758	0.53576
1062.63901	0.53006
1060.71045	0.52496
1058.78188	0.52042
1056.85332	0.51646
1054.92476	0.51308
1052.99619	0.51023
1051.06763	0.50774
1049.13906	0.50544
1047.21050	0.50343
1045.28193	0.50195
1043.35337	0.50100
1041.42480	0.50011
1039.49624	0.49901
1037.56768	0.49795
1035.63911	0.49731
1033.71055	0.49699
1031.78198	0.49660
1029.85342	0.49612
1027.92485	0.49572
1025.99629	0.49546
1024.06772	0.49548
1022.13916	0.49587
1020.21060	0.49654
1018.28203	0.49735
1016.35347	0.49818
1014.42490	0.49893
1012.49634	0.49964
1010.56777	0.50049
1008.63921	0.50171
1006.71064	0.50324
1004.78208	0.50502
1002.85352	0.50717
1000.92495	0.50979
998.99639	0.51296
997.06782	0.51666
995.13926	0.52075
993.21069	0.52492
991.28213	0.52858
989.35356	0.53114
987.42500	0.53243
985.49644	0.53302
983.56787	0.53375
981.63931	0.53478
979.71074	0.53598
977.78218	0.53785
975.85361	0.54055
973.92505	0.54344
971.99648	0.54627
970.06792	0.54939
968.13936	0.55312
966.21079	0.55724
964.28223	0.56152
962.35366	0.56621
960.42510	0.57151
958.49653	0.57711
956.56797	0.58273
954.63940	0.58848
952.71084	0.59471
950.78228	0.60128
948.85371	0.60793
946.92515	0.61463
944.99658	0.62104
943.06802	0.62718
941.13945	0.63339
939.21089	0.63976
937.28232	0.64617
935.35376	0.65196
933.42520	0.65707
931.49663	0.66245
929.56807	0.66836
927.63950	0.67427
925.71094	0.67998
923.78237	0.68599
921.85381	0.69292
919.92524	0.70049
917.99668	0.70778
916.06812	0.71467
914.13955	0.72193
912.21099	0.73014
910.28242	0.73909
908.35386	0.74818
906.42529	0.75727
904.49673	0.76644
902.56816	0.77582
900.63960	0.78571
898.71104	0.79581
896.78247	0.80531
894.85391	0.81469
892.92534	0.82484
890.99678	0.83526
889.06821	0.84565
887.13965	0.85642
885.21108	0.86783
883.28252	0.88002
881.35396	0.89239
879.42539	0.90399
877.49683	0.91554
875.56826	0.92822
873.63970	0.94023
871.71113	0.95049
869.78257	0.96150
867.85400	0.97456
865.92544	0.98833
863.99687	1.00100
862.06831	1.01257
860.13975	1.02437
858.21118	1.03675
856.28262	1.04886
854.35405	1.06038
852.42549	1.07157
850.49692	1.08262
848.56836	1.09375
846.63979	1.10424
844.71123	1.11429
842.78267	1.12639
840.85410	1.14107
838.92554	1.15504
836.99697	1.16708
835.06841	1.17900
833.13984	1.19039
831.21128	1.20167
829.28271	1.21695
827.35415	1.23537
825.42559	1.24857
823.49702	1.25654
821.56846	1.27021
819.63989	1.29264
817.71133	1.31130
815.78276	1.32074
813.85420	1.32846
811.92563	1.33215
809.99707	1.33749
808.06851	1.35381
806.13994	1.36918
804.21138	1.38693
802.28281	1.43650
800.35425	1.51285
798.42568	1.55181
796.49712	1.53660
794.56855	1.53072
792.63999	1.57868
790.71143	1.70861
788.78286	1.83012
786.85430	1.73872
784.92573	1.64606
782.99717	1.78740
781.06860	1.99804
779.14004	1.88496
777.21147	1.86152
775.28291	1.78868
773.35435	1.49898
771.42578	1.33550
769.49722	1.32070
767.56865	1.45738
765.64009	1.70171
763.71152	1.80990
761.78296	1.70154
759.85439	1.58789
757.92583	1.52604
755.99727	1.42708
754.06870	1.36317
752.14014	1.42445
750.21157	1.44803
748.28301	1.31295
746.35444	1.16535
744.42588	1.07401
742.49731	1.04490
740.56875	0.96771
738.64019	0.85500
736.71162	0.77868
734.78306	0.70432
732.85449	0.61916
730.92593	0.56165
728.99736	0.52966
727.06880	0.52660
725.14023	0.59332
723.21167	0.61814
721.28311	0.45143
719.35454	0.30112
717.42598	0.23195
715.49741	0.23139
713.56885	0.21125
711.64028	0.07414
709.71172	-0.04192
707.78315	-0.00217
705.85459	0.03220
703.92603	0.02396
701.99746	0.04896
700.06890	0.03426
698.14033	0.00086
696.21177	0.05477
694.28320	0.14722
692.35464	0.12115
690.42607	0.06603
688.49751	0.03590
686.56895	-0.01482
684.64038	-0.05374
682.71182	-0.02753
680.78325	0.06135
678.85469	0.18342
676.92612	0.23278
674.99756	0.13469
673.06899	0.04228
671.14043	0.06592
669.21187	0.12414
667.28330	0.11462
665.35474	0.07338
663.42617	0.07833
661.49761	0.13722
659.56904	0.18330
657.64048	0.16869
655.71191	0.10697
653.78335	0.06213
651.85479	0.04100
649.92622	-0.02658
647.99766	-0.06624
646.06909	0.01468
644.14053	0.06613
642.21196	0.06447
640.28340	0.13247
638.35483	0.22947
636.42627	0.19127
634.49771	0.06622
632.56914	-0.00260
630.64058	-0.03901
628.71201	-0.02184
626.78345	0.08698
624.85488	0.15845
622.92632	0.10549
620.99775	0.07484
619.06919	0.12157
617.14062	0.14886
615.21206	0.12801
613.28350	0.06186
611.35493	-0.03048
609.42637	-0.08547
607.49780	-0.09740
605.56924	-0.13016
603.64067	-0.18126
601.71211	-0.11989
599.78354	-0.01026
597.85498	0.01947
595.92642	0.04985
593.99785	0.12663
592.06929	0.15250
590.14072	0.06318
588.21216	-0.01388
586.28359	0.02196
584.35503	0.04778
582.42646	0.00634
580.49790	-0.01882
578.56934	0.00150
576.64077	0.05641
574.71221	0.14606
572.78364	0.18848
570.85508	0.08829
568.92651	0.01835
566.99795	0.05409
565.06938	0.05127
563.14082	0.02076
561.21226	0.04663
559.28369	0.06796
557.35513	0.05427
555.42656	0.08935
553.49800	0.13287
551.56943	0.10923
549.64087	0.06589
547.71230	0.06254
545.78374	0.10547
543.85518	0.08919
541.92661	0.01820
539.99805	0.02954
538.06948	0.09003
536.14092	0.10153
534.21235	0.08965
532.28379	0.10071
530.35522	0.07576
528.42666	0.05186
526.49810	0.11423
524.56953	0.21544
522.64097	0.20780
520.71240	0.09928
518.78384	0.02955
516.85527	0.00117
514.92671	-0.00346
512.99814	0.03360
511.06958	0.06133
509.14102	0.03721
507.21245	0.01692
505.28389	0.04913
503.35532	0.10442
501.42676	0.13229
499.49819	0.13530
