3997.91411	0.09697
3995.98555	0.09684
3994.05698	0.09746
3992.12842	0.09821
3990.19985	0.09859
3988.27129	0.09883
3986.34272	0.09909
3984.41416	0.09938
3982.48560	0.09960
3980.55703	0.09949
3978.62847	0.09918
3976.69990	0.09919
3974.77134	0.09974
3972.84277	0.10038
3970.91421	0.10068
3968.98564	0.10081
3967.05708	0.10088
3965.12852	0.10085
3963.19995	0.10098
3961.27139	0.10133
3959.34282	0.10163
3957.41426	0.10162
3955.48569	0.10155
3953.55713	0.10181
3951.62856	0.10235
3949.70000	0.10270
3947.77144	0.10251
3945.84287	0.10204
3943.91431	0.10176
3941.98574	0.10189
3940.05718	0.10205
3938.12861	0.10184
3936.20005	0.10139
3934.27148	0.10118
3932.34292	0.10135
3930.41436	0.10153
3928.48579	0.10144
3926.55723	0.10116
3924.62866	0.10110
3922.70010	0.10116
3920.77153	0.10100
3918.84297	0.10108
3916.91440	0.10163
3914.98584	0.10175
3913.05728	0.10102
3911.12871	0.10011
3909.20015	0.09972
3907.27158	0.10009
3905.34302	0.10097
3903.41445	0.10189
3901.48589	0.10213
3899.55732	0.10178
3897.62876	0.10137
3895.70020	0.10090
3893.77163	0.10076
3891.84307	0.10126
3889.91450	0.10145
3887.98594	0.10079
3886.05737	0.10073
3884.12881	0.10128
3882.20024	0.10141
3880.27168	0.10172
3878.34312	0.10189
3876.41455	0.10158
3874.48599	0.10181
3872.55742	0.10251
3870.62886	0.10325
3868.70029	0.10402
3866.77173	0.10402
3864.84316	0.10384
3862.91460	0.10427
3860.98604	0.10439
3859.05747	0.10396
3857.12891	0.10373
3855.20034	0.10397
3853.27178	0.10513
3851.34321	0.10679
3849.41465	0.10672
3847.48608	0.10598
3845.55752	0.10578
3843.62896	0.10676
3841.70039	0.10865
3839.77183	0.11011
3837.84326	0.11083
3835.91470	0.11130
3833.98613	0.11150
3832.05757	0.11148
3830.12900	0.11167
3828.20044	0.11217
3826.27187	0.11284
3824.34331	0.11364
3822.41475	0.11490
3820.48618	0.11694
3818.55762	0.11803
3816.62905	0.11798
3814.70049	0.11798
3812.77192	0.11795
3810.84336	0.11837
3808.91479	0.11958
3806.98623	0.12131
3805.05767	0.12273
3803.12910	0.12380
3801.20054	0.12618
3799.27197	0.12906
3797.34341	0.12981
3795.41484	0.12945
3793.48628	0.12907
3791.55771	0.12908
3789.62915	0.12994
3787.70059	0.13142
3785.77202	0.13316
3783.84346	0.13487
3781.91489	0.13609
3779.98633	0.13726
3778.05776	0.13903
3776.12920	0.14053
3774.20063	0.14145
3772.27207	0.14284
3770.34351	0.14543
3768.41494	0.14866
3766.48638	0.15096
3764.55781	0.15258
3762.62925	0.15409
3760.70068	0.15605
3758.77212	0.15914
3756.84355	0.16197
3754.91499	0.16372
3752.98643	0.16617
3751.05786	0.17077
3749.12930	0.17570
3747.20073	0.17761
3745.27217	0.17878
3743.34360	0.18198
3741.41504	0.18578
3739.48647	0.18840
3737.55791	0.19122
3735.62935	0.19620
3733.70078	0.20321
3731.77222	0.20846
3729.84365	0.21197
3727.91509	0.21604
3725.98652	0.22156
3724.05796	0.22787
3722.12939	0.23448
3720.20083	0.24140
3718.27227	0.24777
3716.34370	0.25400
3714.41514	0.26120
3712.48657	0.27097
3710.55801	0.28521
3708.62944	0.29993
3706.70088	0.31087
3704.77231	0.32101
3702.84375	0.33362
3700.91519	0.35060
3698.98662	0.36926
3697.05806	0.38681
3695.12949	0.40529
3693.20093	0.42519
3691.27236	0.44741
3689.34380	0.47593
3687.41523	0.50987
3685.48667	0.53956
3683.55811	0.56524
3681.62954	0.59252
3679.70098	0.62361
3677.77241	0.65705
3675.84385	0.69682
3673.91528	0.74989
3671.98672	0.79314
3670.05815	0.83163
3668.12959	0.88458
3666.20103	0.93307
3664.27246	0.97359
3662.34390	1.01693
3660.41533	1.06360
3658.48677	1.10969
3656.55820	1.15923
3654.62964	1.21453
3652.70107	1.26069
3650.77251	1.30089
3648.84395	1.35698
3646.91538	1.42593
3644.98682	1.47631
3643.05825	1.51485
3641.12969	1.55418
3639.20112	1.59746
3637.27256	1.64186
3635.34399	1.68624
3633.41543	1.73058
3631.48687	1.77169
3629.55830	1.81349
3627.62974	1.86763
3625.70117	1.91709
3623.77261	1.94992
3621.84404	1.98179
3619.91548	2.01969
3617.98691	2.06659
3616.05835	2.11267
3614.12979	2.15107
3612.20122	2.18921
3610.27266	2.22724
3608.34409	2.26753
3606.41553	2.31125
3604.48696	2.35142
3602.55840	2.38724
3600.62983	2.42578
3598.70127	2.46709
3596.77271	2.50690
3594.84414	2.54742
3592.91558	2.58927
3590.98701	2.62815
3589.05845	2.66473
3587.12988	2.70869
3585.20132	2.75697
3583.27275	2.79830
3581.34419	2.83707
3579.41562	2.87908
3577.48706	2.92270
3575.55850	2.96516
3573.62993	3.00816
3571.70137	3.05023
3569.77280	3.09018
3567.84424	3.13337
3565.91567	3.18837
3563.98711	3.24164
3562.05854	3.28265
3560.12998	3.32252
3558.20142	3.36557
3556.27285	3.40874
3554.34429	3.45052
3552.41572	3.49548
3550.48716	3.54374
3548.55859	3.59289
3546.63003	3.64427
3544.70146	3.69488
3542.77290	3.73985
3540.84434	3.78476
3538.91577	3.83260
3536.98721	3.87973
3535.05864	3.92802
3533.13008	3.97789
3531.20151	4.02877
3529.27295	4.07947
3527.34438	4.12731
3525.41582	4.17170
3523.48726	4.21636
3521.55869	4.26420
3519.63013	4.31416
3517.70156	4.36635
3515.77300	4.41575
3513.84443	4.46123
3511.91587	4.50793
3509.98730	4.55756
3508.05874	4.60970
3506.13018	4.65980
3504.20161	4.70611
3502.27305	4.75483
3500.34448	4.80654
3498.41592	4.85599
3496.48735	4.90166
3494.55879	4.94419
3492.63022	4.98831
3490.70166	5.03576
3488.77310	5.08233
3486.84453	5.12830
3484.91597	5.17958
3482.98740	5.23512
3481.05884	5.28988
3479.13027	5.34287
3477.20171	5.39397
3475.27314	5.44146
3473.34458	5.48499
3471.41602	5.52867
3469.48745	5.57440
3467.55889	5.62269
3465.63032	5.67653
3463.70176	5.73096
3461.77319	5.77092
3459.84463	5.80502
3457.91606	5.85525
3455.98750	5.91577
3454.05894	5.97412
3452.13037	6.03186
3450.20181	6.08328
3448.27324	6.12219
3446.34468	6.16281
3444.41611	6.21621
3442.48755	6.27291
3440.55898	6.31332
3438.63042	6.34975
3436.70186	6.41269
3434.77329	6.49310
3432.84473	6.54926
3430.91616	6.57829
3428.98760	6.61984
3427.05903	6.66403
3425.13047	6.69368
3423.20190	6.72752
3421.27334	6.78858
3419.34478	6.86163
3417.41621	6.90163
3415.48765	6.93068
3413.55908	6.98046
3411.63052	7.01941
3409.70195	7.04797
3407.77339	7.10458
3405.84482	7.17256
3403.91626	7.23761
3401.98770	7.27260
3400.05913	7.28746
3398.13057	7.34237
3396.20200	7.40431
3394.27344	7.44154
3392.34487	7.46798
3390.41631	7.48279
3388.48774	7.48847
3386.55918	7.50472
3384.63062	7.51976
3382.70205	7.52430
3380.77349	7.55330
3378.84492	7.61367
3376.91636	7.66020
3374.98779	7.68350
3373.05923	7.71553
3371.13066	7.72868
3369.20210	7.72984
3367.27354	7.75176
3365.34497	7.80209
3363.41641	7.84213
3361.48784	7.84219
3359.55928	7.81693
3357.63071	7.77963
3355.70215	7.79234
3353.77358	7.85031
3351.84502	7.91210
3349.91646	7.93539
3347.98789	7.94092
3346.05933	7.97569
3344.13076	7.97482
3342.20220	7.95088
3340.27363	7.96723
3338.34507	8.00805
3336.41650	8.05281
3334.48794	8.09352
3332.55937	8.11343
3330.63081	8.18095
3328.70225	8.24020
3326.77368	8.13114
3324.84512	7.98734
3322.91655	8.01644
3320.98799	8.20532
3319.05942	8.29078
3317.13086	8.19253
3315.20229	8.11326
3313.27373	8.10424
3311.34517	8.09989
3309.41660	8.11757
3307.48804	8.15685
3305.55947	8.15573
3303.63091	8.18640
3301.70234	8.27900
3299.77378	8.30086
3297.84521	8.22703
3295.91665	8.21651
3293.98809	8.26979
3292.05952	8.27034
3290.13096	8.24085
3288.20239	8.24939
3286.27383	8.24426
3284.34526	8.16456
3282.41670	8.07811
3280.48813	8.01689
3278.55957	7.99191
3276.63101	7.98965
3274.70244	8.05669
3272.77388	8.26191
3270.84531	8.44279
3268.91675	8.40065
3266.98818	8.21692
3265.05962	8.09688
3263.13105	8.11481
3261.20249	8.21282
3259.27393	8.27963
3257.34536	8.24877
3255.41680	8.21034
3253.48823	8.24321
3251.55967	8.28243
3249.63110	8.24491
3247.70254	8.17195
3245.77397	8.17250
3243.84541	8.27780
3241.91685	8.35029
3239.98828	8.28886
3238.05972	8.19934
3236.13115	8.17529
3234.20259	8.15768
3232.27402	8.08691
3230.34546	8.02785
3228.41689	8.05261
3226.48833	8.17689
3224.55977	8.28651
3222.63120	8.25736
3220.70264	8.14024
3218.77407	8.05072
3216.84551	8.04901
3214.91694	8.06917
3212.98838	8.05667
3211.05981	8.05519
3209.13125	8.04964
3207.20269	8.02064
3205.27412	7.98490
3203.34556	7.89054
3201.41699	7.77994
3199.48843	7.76003
3197.55986	7.79980
3195.63130	7.80527
3193.70273	7.73736
3191.77417	7.66673
3189.84561	7.67474
3187.91704	7.69549
3185.98848	7.63468
3184.05991	7.52598
3182.13135	7.43877
3180.20278	7.38055
3178.27422	7.31144
3176.34565	7.23150
3174.41709	7.18245
3172.48853	7.16587
3170.55996	7.14111
3168.63140	7.09158
3166.70283	7.03045
3164.77427	6.96565
3162.84570	6.89493
3160.91714	6.83044
3158.98857	6.77969
3157.06001	6.71538
3155.13145	6.63900
3153.20288	6.56955
3151.27432	6.50020
3149.34575	6.43981
3147.41719	6.40350
3145.48862	6.36115
3143.56006	6.28444
3141.63149	6.19804
3139.70293	6.11751
3137.77437	6.04046
3135.84580	5.97257
3133.91724	5.91298
3131.98867	5.84544
3130.06011	5.75605
3128.13154	5.66450
3126.20298	5.59818
3124.27441	5.54674
3122.34585	5.48555
3120.41729	5.41424
3118.48872	5.34556
3116.56016	5.28734
3114.63159	5.22979
3112.70303	5.15937
3110.77446	5.08171
3108.84590	5.00848
3106.91733	4.93946
3104.98877	4.86970
3103.06021	4.80131
3101.13164	4.73312
3099.20308	4.66181
3097.27451	4.59059
3095.34595	4.52519
3093.41738	4.46491
3091.48882	4.40241
3089.56025	4.33610
3087.63169	4.26951
3085.70312	4.20529
3083.77456	4.14226
3081.84600	4.07866
3079.91743	4.01688
3077.98887	3.95843
3076.06030	3.90212
3074.13174	3.84581
3072.20317	3.78668
3070.27461	3.72571
3068.34604	3.66580
3066.41748	3.60785
3064.48892	3.55219
3062.56035	3.49682
3060.63179	3.44029
3058.70322	3.38517
3056.77466	3.33361
3054.84609	3.28303
3052.91753	3.23045
3050.98896	3.17690
3049.06040	3.12414
3047.13184	3.07302
3045.20327	3.02318
3043.27471	2.97355
3041.34614	2.92353
3039.41758	2.87374
3037.48901	2.82537
3035.56045	2.77811
3033.63188	2.73176
3031.70332	2.68631
3029.77476	2.64120
3027.84619	2.59660
3025.91763	2.55229
3023.98906	2.50753
3022.06050	2.46421
3020.13193	2.42372
3018.20337	2.38338
3016.27480	2.34229
3014.34624	2.30169
3012.41768	2.26163
3010.48911	2.22256
3008.56055	2.18496
3006.63198	2.14819
3004.70342	2.11178
3002.77485	2.07576
3000.84629	2.04031
2998.91772	2.00587
2996.98916	1.97231
2995.06060	1.93926
2993.13203	1.90680
2991.20347	1.87524
2989.27490	1.84483
2987.34634	1.81481
2985.41777	1.78459
2983.48921	1.75523
2981.56064	1.72697
2979.63208	1.69909
2977.70352	1.67193
2975.77495	1.64541
2973.84639	1.61875
2971.91782	1.59218
2969.98926	1.56616
2968.06069	1.54053
2966.13213	1.51500
2964.20356	1.48975
2962.27500	1.46482
2960.34644	1.44003
2958.41787	1.41584
2956.48931	1.39243
2954.56074	1.36886
2952.63218	1.34478
2950.70361	1.32112
2948.77505	1.29818
2946.84648	1.27565
2944.91792	1.25362
2942.98936	1.23199
2941.06079	1.21033
2939.13223	1.18860
2937.20366	1.16736
2935.27510	1.14696
2933.34653	1.12686
2931.41797	1.10634
2929.48940	1.08525
2927.56084	1.06444
2925.63228	1.04461
2923.70371	1.02569
2921.77515	1.00778
2919.84658	0.99127
2917.91802	0.97556
2915.98945	0.95969
2914.06089	0.94359
2912.13232	0.92789
2910.20376	0.91242
2908.27520	0.89697
2906.34663	0.88225
2904.41807	0.86819
2902.48950	0.85444
2900.56094	0.84105
2898.63237	0.82762
2896.70381	0.81418
2894.77524	0.80121
2892.84668	0.78868
2890.91812	0.77642
2888.98955	0.76466
2887.06099	0.75348
2885.13242	0.74275
2883.20386	0.73217
2881.27529	0.72158
2879.34673	0.71122
2877.41816	0.70099
2875.48960	0.69055
2873.56104	0.68000
2871.63247	0.66932
2869.70391	0.65824
2867.77534	0.64661
2865.84678	0.63464
2863.91821	0.62267
2861.98965	0.61070
2860.06108	0.59880
2858.13252	0.58740
2856.20396	0.57668
2854.27539	0.56646
2852.34683	0.55653
2850.41826	0.54739
2848.48970	0.53931
2846.56113	0.53172
2844.63257	0.52441
2842.70400	0.51779
2840.77544	0.51182
2838.84687	0.50588
2836.91831	0.49966
2834.98975	0.49330
2833.06118	0.48702
2831.13262	0.48085
2829.20405	0.47459
2827.27549	0.46826
2825.34692	0.46196
2823.41836	0.45566
2821.48979	0.44942
2819.56123	0.44322
2817.63267	0.43706
2815.70410	0.43108
2813.77554	0.42535
2811.84697	0.41960
2809.91841	0.41376
2807.98984	0.40814
2806.06128	0.40275
2804.13271	0.39730
2802.20415	0.39183
2800.27559	0.38664
2798.34702	0.38168
2796.41846	0.37662
2794.48989	0.37162
2792.56133	0.36701
2790.63276	0.36257
2788.70420	0.35787
2786.77563	0.35307
2784.84707	0.34855
2782.91851	0.34419
2780.98994	0.33975
2779.06138	0.33531
2777.13281	0.33109
2775.20425	0.32719
2773.27568	0.32343
2771.34712	0.31960
2769.41855	0.31565
2767.48999	0.31171
2765.56143	0.30802
2763.63286	0.30459
2761.70430	0.30119
2759.77573	0.29778
2757.84717	0.29441
2755.91860	0.29106
2753.99004	0.28780
2752.06147	0.28472
2750.13291	0.28161
2748.20435	0.27846
2746.27578	0.27552
2744.34722	0.27276
2742.41865	0.27002
2740.49009	0.26722
2738.56152	0.26440
2736.63296	0.26169
2734.70439	0.25913
2732.77583	0.25659
2730.84727	0.25410
2728.91870	0.25171
2726.99014	0.24929
2725.06157	0.24684
2723.13301	0.24448
2721.20444	0.24225
2719.27588	0.24012
2717.34731	0.23807
2715.41875	0.23597
2713.49019	0.23389
2711.56162	0.23204
2709.63306	0.23036
2707.70449	0.22863
2705.77593	0.22679
2703.84736	0.22489
2701.91880	0.22317
2699.99023	0.22166
2698.06167	0.22016
2696.13311	0.21867
2694.20454	0.21721
2692.27598	0.21568
2690.34741	0.21413
2688.41885	0.21271
2686.49028	0.21145
2684.56172	0.21011
2682.63315	0.20865
2680.70459	0.20735
2678.77603	0.20622
2676.84746	0.20512
2674.91890	0.20398
2672.99033	0.20278
2671.06177	0.20147
2669.13320	0.20023
2667.20464	0.19914
2665.27607	0.19808
2663.34751	0.19710
2661.41895	0.19611
2659.49038	0.19508
2657.56182	0.19419
2655.63325	0.19332
2653.70469	0.19237
2651.77612	0.19149
2649.84756	0.19076
2647.91899	0.19009
2645.99043	0.18944
2644.06187	0.18884
2642.13330	0.18830
2640.20474	0.18780
2638.27617	0.18729
2636.34761	0.18671
2634.41904	0.18615
2632.49048	0.18558
2630.56191	0.18491
2628.63335	0.18432
2626.70479	0.18386
2624.77622	0.18338
2622.84766	0.18301
2620.91909	0.18287
2618.99053	0.18274
2617.06196	0.18242
2615.13340	0.18203
2613.20483	0.18171
2611.27627	0.18150
2609.34771	0.18131
2607.41914	0.18110
2605.49058	0.18086
2603.56201	0.18064
2601.63345	0.18058
2599.70488	0.18072
2597.77632	0.18084
2595.84775	0.18081
2593.91919	0.18084
2591.99062	0.18105
2590.06206	0.18123
2588.13350	0.18123
2586.20493	0.18122
2584.27637	0.18139
2582.34780	0.18164
2580.41924	0.18190
2578.49067	0.18215
2576.56211	0.18234
2574.63354	0.18249
2572.70498	0.18271
2570.77642	0.18306
2568.84785	0.18339
2566.91929	0.18373
2564.99072	0.18417
2563.06216	0.18445
2561.13359	0.18453
2559.20503	0.18481
2557.27646	0.18539
2555.34790	0.18607
2553.41934	0.18668
2551.49077	0.18716
2549.56221	0.18761
2547.63364	0.18813
2545.70508	0.18868
2543.77651	0.18923
2541.84795	0.18968
2539.91938	0.19014
2537.99082	0.19073
2536.06226	0.19141
2534.13369	0.19210
2532.20513	0.19283
2530.27656	0.19356
2528.34800	0.19420
2526.41943	0.19487
2524.49087	0.19558
2522.56230	0.19618
2520.63374	0.19672
2518.70518	0.19740
2516.77661	0.19825
2514.84805	0.19910
2512.91948	0.19988
2510.99092	0.20069
2509.06235	0.20149
2507.13379	0.20226
2505.20522	0.20308
2503.27666	0.20393
2501.34810	0.20476
2499.41953	0.20560
2497.49097	0.20640
2495.56240	0.20712
2493.63384	0.20785
2491.70527	0.20869
2489.77671	0.20957
2487.84814	0.21034
2485.91958	0.21108
2483.99102	0.21195
2482.06245	0.21290
2480.13389	0.21378
2478.20532	0.21460
2476.27676	0.21538
2474.34819	0.21618
2472.41963	0.21703
2470.49106	0.21790
2468.56250	0.21876
2466.63394	0.21964
2464.70537	0.22056
2462.77681	0.22156
2460.84824	0.22260
2458.91968	0.22357
2456.99111	0.22440
2455.06255	0.22525
2453.13398	0.22633
2451.20542	0.22739
2449.27686	0.22822
2447.34829	0.22909
2445.41973	0.23012
2443.49116	0.23114
2441.56260	0.23203
2439.63403	0.23290
2437.70547	0.23381
2435.77690	0.23478
2433.84834	0.23588
2431.91978	0.23698
2429.99121	0.23801
2428.06265	0.23901
2426.13408	0.23997
2424.20552	0.24091
2422.27695	0.24195
2420.34839	0.24305
2418.41982	0.24417
2416.49126	0.24540
2414.56270	0.24669
2412.63413	0.24791
2410.70557	0.24902
2408.77700	0.25015
2406.84844	0.25130
2404.91987	0.25245
2402.99131	0.25368
2401.06274	0.25493
2399.13418	0.25605
2397.20562	0.25715
2395.27705	0.25842
2393.34849	0.25971
2391.41992	0.26089
2389.49136	0.26213
2387.56279	0.26356
2385.63423	0.26519
2383.70566	0.26704
2381.77710	0.26912
2379.84854	0.27136
2377.91997	0.27382
2375.99141	0.27645
2374.06284	0.27929
2372.13428	0.28260
2370.20571	0.28623
2368.27715	0.28937
2366.34858	0.29175
2364.42002	0.29402
2362.49146	0.29715
2360.56289	0.30086
2358.63433	0.30366
2356.70576	0.30522
2354.77720	0.30562
2352.84863	0.30494
2350.92007	0.30342
2348.99150	0.30220
2347.06294	0.30251
2345.13437	0.30519
2343.20581	0.30922
2341.27725	0.31162
2339.34868	0.31270
2337.42012	0.31387
2335.49155	0.31520
2333.56299	0.31677
2331.63442	0.31875
2329.70586	0.32093
2327.77729	0.32243
2325.84873	0.32298
2323.92017	0.32360
2321.99160	0.32463
2320.06304	0.32547
2318.13447	0.32592
2316.20591	0.32643
2314.27734	0.32747
2312.34878	0.32884
2310.42021	0.33022
2308.49165	0.33163
2306.56309	0.33295
2304.63452	0.33407
2302.70596	0.33530
2300.77739	0.33674
2298.84883	0.33822
2296.92026	0.33983
2294.99170	0.34157
2293.06313	0.34323
2291.13457	0.34486
2289.20601	0.34663
2287.27744	0.34846
2285.34888	0.35017
2283.42031	0.35185
2281.49175	0.35368
2279.56318	0.35578
2277.63462	0.35809
2275.70605	0.36036
2273.77749	0.36242
2271.84893	0.36435
2269.92036	0.36635
2267.99180	0.36851
2266.06323	0.37072
2264.13467	0.37286
2262.20610	0.37495
2260.27754	0.37705
2258.34897	0.37913
2256.42041	0.38121
2254.49185	0.38331
2252.56328	0.38539
2250.63472	0.38759
2248.70615	0.38994
2246.77759	0.39220
2244.84902	0.39429
2242.92046	0.39640
2240.99189	0.39867
2239.06333	0.40092
2237.13477	0.40298
2235.20620	0.40500
2233.27764	0.40719
2231.34907	0.40958
2229.42051	0.41204
2227.49194	0.41429
2225.56338	0.41637
2223.63481	0.41856
2221.70625	0.42091
2219.77769	0.42331
2217.84912	0.42564
2215.92056	0.42778
2213.99199	0.42980
2212.06343	0.43188
2210.13486	0.43400
2208.20630	0.43617
2206.27773	0.43850
2204.34917	0.44074
2202.42061	0.44276
2200.49204	0.44477
2198.56348	0.44684
2196.63491	0.44889
2194.70635	0.45083
2192.77778	0.45256
2190.84922	0.45428
2188.92065	0.45628
2186.99209	0.45834
2185.06353	0.46012
2183.13496	0.46169
2181.20640	0.46329
2179.27783	0.46495
2177.34927	0.46659
2175.42070	0.46823
2173.49214	0.46980
2171.56357	0.47121
2169.63501	0.47253
2167.70645	0.47381
2165.77788	0.47504
2163.84932	0.47623
2161.92075	0.47739
2159.99219	0.47852
2158.06362	0.47961
2156.13506	0.48062
2154.20649	0.48155
2152.27793	0.48235
2150.34937	0.48302
2148.42080	0.48368
2146.49224	0.48427
2144.56367	0.48466
2142.63511	0.48495
2140.70654	0.48522
2138.77798	0.48550
2136.84941	0.48571
2134.92085	0.48575
2132.99229	0.48565
2131.06372	0.48558
2129.13516	0.48549
2127.20659	0.48518
2125.27803	0.48465
2123.34946	0.48405
2121.42090	0.48350
2119.49233	0.48284
2117.56377	0.48200
2115.63521	0.48115
2113.70664	0.48035
2111.77808	0.47945
2109.84951	0.47840
2107.92095	0.47735
2105.99238	0.47633
2104.06382	0.47509
2102.13525	0.47364
2100.20669	0.47221
2098.27812	0.47076
2096.34956	0.46923
2094.42100	0.46762
2092.49243	0.46590
2090.56387	0.46407
2088.63530	0.46218
2086.70674	0.46034
2084.77817	0.45850
2082.84961	0.45660
2080.92104	0.45458
2078.99248	0.45248
2077.06392	0.45033
2075.13535	0.44811
2073.20679	0.44579
2071.27822	0.44331
2069.34966	0.44080
2067.42109	0.43845
2065.49253	0.43623
2063.56396	0.43387
2061.63540	0.43128
2059.70684	0.42863
2057.77827	0.42598
2055.84971	0.42332
2053.92114	0.42065
2051.99258	0.41806
2050.06401	0.41549
2048.13545	0.41283
2046.20688	0.41009
2044.27832	0.40734
2042.34976	0.40453
2040.42119	0.40158
2038.49263	0.39859
2036.56406	0.39573
2034.63550	0.39294
2032.70693	0.39009
2030.77837	0.38718
2028.84980	0.38429
2026.92124	0.38140
2024.99268	0.37847
2023.06411	0.37553
2021.13555	0.37267
2019.20698	0.36991
2017.27842	0.36713
2015.34985	0.36419
2013.42129	0.36120
2011.49272	0.35832
2009.56416	0.35558
2007.63560	0.35286
2005.70703	0.35005
2003.77847	0.34722
2001.84990	0.34455
1999.92134	0.34200
1997.99277	0.33937
1996.06421	0.33668
1994.13564	0.33414
1992.20708	0.33173
1990.27852	0.32915
1988.34995	0.32641
1986.42139	0.32367
1984.49282	0.32102
1982.56426	0.31857
1980.63569	0.31629
1978.70713	0.31405
1976.77856	0.31181
1974.85000	0.30954
1972.92144	0.30719
1970.99287	0.30491
1969.06431	0.30288
1967.13574	0.30092
1965.20718	0.29879
1963.27861	0.29669
1961.35005	0.29470
1959.42148	0.29272
1957.49292	0.29075
1955.56436	0.28888
1953.63579	0.28708
1951.70723	0.28529
1949.77866	0.28353
1947.85010	0.28188
1945.92153	0.28039
1943.99297	0.27898
1942.06440	0.27748
1940.13584	0.27581
1938.20728	0.27417
1936.27871	0.27276
1934.35015	0.27146
1932.42158	0.27010
1930.49302	0.26871
1928.56445	0.26748
1926.63589	0.26640
1924.70732	0.26551
1922.77876	0.26473
1920.85020	0.26380
1918.92163	0.26279
1916.99307	0.26180
1915.06450	0.26071
1913.13594	0.25970
1911.20737	0.25901
1909.27881	0.25845
1907.35024	0.25777
1905.42168	0.25700
1903.49312	0.25628
1901.56455	0.25566
1899.63599	0.25512
1897.70742	0.25468
1895.77886	0.25434
1893.85029	0.25398
1891.92173	0.25355
1889.99316	0.25326
1888.06460	0.25293
1886.13604	0.25254
1884.20747	0.25233
1882.27891	0.25221
1880.35034	0.25206
1878.42178	0.25191
1876.49321	0.25183
1874.56465	0.25172
1872.63608	0.25174
1870.70752	0.25213
1868.77896	0.25289
1866.85039	0.25321
1864.92183	0.25293
1862.99326	0.25278
1861.06470	0.25294
1859.13613	0.25332
1857.20757	0.25374
1855.27900	0.25417
1853.35044	0.25460
1851.42187	0.25517
1849.49331	0.25582
1847.56475	0.25650
1845.63618	0.25736
1843.70762	0.25846
1841.77905	0.25924
1839.85049	0.25959
1837.92192	0.26024
1835.99336	0.26113
1834.06479	0.26209
1832.13623	0.26315
1830.20767	0.26463
1828.27910	0.26614
1826.35054	0.26716
1824.42197	0.26832
1822.49341	0.26952
1820.56484	0.27067
1818.63628	0.27197
1816.70771	0.27358
1814.77915	0.27526
1812.85059	0.27710
1810.92202	0.27923
1808.99346	0.28134
1807.06489	0.28325
1805.13633	0.28513
1803.20776	0.28739
1801.27920	0.29007
1799.35063	0.29295
1797.42207	0.29547
1795.49351	0.29790
1793.56494	0.30084
1791.63638	0.30464
1789.70781	0.30807
1787.77925	0.31052
1785.85068	0.31349
1783.92212	0.31712
1781.99355	0.32105
1780.06499	0.32525
1778.13643	0.32960
1776.20786	0.33372
1774.27930	0.33812
1772.35073	0.34401
1770.42217	0.35042
1768.49360	0.35578
1766.56504	0.36090
1764.63647	0.36615
1762.70791	0.37210
1760.77935	0.37970
1758.85078	0.38667
1756.92222	0.39355
1754.99365	0.40123
1753.06509	0.40839
1751.13652	0.41694
1749.20796	0.42767
1747.27939	0.43808
1745.35083	0.44719
1743.42227	0.45674
1741.49370	0.46719
1739.56514	0.47957
1737.63657	0.49210
1735.70801	0.50323
1733.77944	0.52027
1731.85088	0.54047
1729.92231	0.55603
1727.99375	0.57171
1726.06519	0.58872
1724.13662	0.60742
1722.20806	0.62766
1720.27949	0.64644
1718.35093	0.66846
1716.42236	0.70088
1714.49380	0.73162
1712.56523	0.75641
1710.63667	0.78059
1708.70811	0.80674
1706.77954	0.83661
1704.85098	0.87249
1702.92241	0.90454
1700.99385	0.93578
1699.06528	0.98224
1697.13672	1.02576
1695.20815	1.07071
1693.27959	1.11446
1691.35103	1.14964
1689.42246	1.19049
1687.49390	1.23386
1685.56533	1.27559
1683.63677	1.34000
1681.70820	1.40752
1679.77964	1.45038
1677.85107	1.49123
1675.92251	1.53834
1673.99395	1.59660
1672.06538	1.64867
1670.13682	1.69978
1668.20825	1.76725
1666.27969	1.82296
1664.35112	1.86986
1662.42256	1.92806
1660.49399	1.99531
1658.56543	2.04844
1656.63687	2.09091
1654.70830	2.12824
1652.77974	2.18545
1650.85117	2.24234
1648.92261	2.26074
1646.99404	2.28192
1645.06548	2.30807
1643.13691	2.32905
1641.20835	2.33978
1639.27979	2.34790
1637.35122	2.35236
1635.42266	2.35074
1633.49409	2.34248
1631.56553	2.32756
1629.63696	2.30821
1627.70840	2.27653
1625.77983	2.24079
1623.85127	2.19671
1621.92271	2.14598
1619.99414	2.10386
1618.06558	2.06147
1616.13701	1.99636
1614.20845	1.92936
1612.27988	1.87954
1610.35132	1.82851
1608.42275	1.77338
1606.49419	1.71851
1604.56562	1.66775
1602.63706	1.61891
1600.70850	1.57124
1598.77993	1.52719
1596.85137	1.48590
1594.92280	1.44608
1592.99424	1.40799
1591.06567	1.37361
1589.13711	1.34169
1587.20854	1.31202
1585.27998	1.28458
1583.35142	1.25899
1581.42285	1.23577
1579.49429	1.21637
1577.56572	1.19958
1575.63716	1.17915
1573.70859	1.16076
1571.78003	1.14902
1569.85146	1.13770
1567.92290	1.12550
1565.99434	1.11670
1564.06577	1.11089
1562.13721	1.10693
1560.20864	1.10490
1558.28008	1.10464
1556.35151	1.10509
1554.42295	1.10494
1552.49438	1.10472
1550.56582	1.10337
1548.63726	1.10008
1546.70869	1.09463
1544.78013	1.08609
1542.85156	1.07416
1540.92300	1.05665
1538.99443	1.02924
1537.06587	1.00862
1535.13730	0.99416
1533.20874	0.97536
1531.28018	0.95599
1529.35161	0.94195
1527.42305	0.92847
1525.49448	0.91452
1523.56592	0.90249
1521.63735	0.89097
1519.70879	0.87975
1517.78022	0.87018
1515.85166	0.85882
1513.92310	0.84686
1511.99453	0.83663
1510.06597	0.82775
1508.13740	0.81896
1506.20884	0.80430
1504.28027	0.79150
1502.35171	0.78458
1500.42314	0.77867
1498.49458	0.77227
1496.56602	0.76459
1494.63745	0.75686
1492.70889	0.75086
1490.78032	0.74573
1488.85176	0.74016
1486.92319	0.73500
1484.99463	0.73082
1483.06606	0.72739
1481.13750	0.72458
1479.20894	0.72247
1477.28037	0.72118
1475.35181	0.72069
1473.42324	0.72083
1471.49468	0.72034
1469.56611	0.71848
1467.63755	0.71626
1465.70898	0.71439
1463.78042	0.71301
1461.85186	0.71216
1459.92329	0.71194
1457.99473	0.71242
1456.06616	0.71256
1454.13760	0.71075
1452.20903	0.70814
1450.28047	0.70532
1448.35190	0.70246
1446.42334	0.69961
1444.49478	0.69710
1442.56621	0.69490
1440.63765	0.69263
1438.70908	0.69026
1436.78052	0.68737
1434.85195	0.68393
1432.92339	0.68105
1430.99482	0.67922
1429.06626	0.67818
1427.13770	0.67759
1425.20913	0.67762
1423.28057	0.67833
1421.35200	0.67897
1419.42344	0.67938
1417.49487	0.67939
1415.56631	0.67834
1413.63774	0.67711
1411.70918	0.67662
1409.78062	0.67701
1407.85205	0.67787
1405.92349	0.67906
1403.99492	0.68010
1402.06636	0.68003
1400.13779	0.67901
1398.20923	0.67735
1396.28066	0.67481
1394.35210	0.67111
1392.42354	0.66703
1390.49497	0.66336
1388.56641	0.65953
1386.63784	0.65501
1384.70928	0.65042
1382.78071	0.64614
1380.85215	0.64204
1378.92358	0.63847
1376.99502	0.63577
1375.06646	0.63399
1373.13789	0.63288
1371.20933	0.63205
1369.28076	0.63130
1367.35220	0.63029
1365.42363	0.62899
1363.49507	0.62778
1361.56650	0.62644
1359.63794	0.62464
1357.70937	0.62295
1355.78081	0.62159
1353.85225	0.62040
1351.92368	0.61934
1349.99512	0.61837
1348.06655	0.61736
1346.13799	0.61635
1344.20942	0.61540
1342.28086	0.61443
1340.35229	0.61354
1338.42373	0.61282
1336.49517	0.61217
1334.56660	0.61163
1332.63804	0.61132
1330.70947	0.61130
1328.78091	0.61148
1326.85234	0.61178
1324.92378	0.61220
1322.99521	0.61273
1321.06665	0.61333
1319.13809	0.61389
1317.20952	0.61424
1315.28096	0.61418
1313.35239	0.61367
1311.42383	0.61283
1309.49526	0.61188
1307.56670	0.61105
1305.63813	0.61040
1303.70957	0.60972
1301.78101	0.60884
1299.85244	0.60770
1297.92388	0.60636
1295.99531	0.60498
1294.06675	0.60368
1292.13818	0.60241
1290.20962	0.60100
1288.28105	0.59958
1286.35249	0.59825
1284.42393	0.59702
1282.49536	0.59583
1280.56680	0.59447
1278.63823	0.59300
1276.70967	0.59161
1274.78110	0.59025
1272.85254	0.58912
1270.92397	0.58843
1268.99541	0.58790
1267.06685	0.58722
1265.13828	0.58636
1263.20972	0.58550
1261.28115	0.58488
1259.35259	0.58436
1257.42402	0.58369
1255.49546	0.58319
1253.56689	0.58320
1251.63833	0.58333
1249.70977	0.58322
1247.78120	0.58295
1245.85264	0.58259
1243.92407	0.58194
1241.99551	0.58097
1240.06694	0.57983
1238.13838	0.57841
1236.20981	0.57644
1234.28125	0.57399
1232.35269	0.57152
1230.42412	0.56937
1228.49556	0.56752
1226.56699	0.56569
1224.63843	0.56379
1222.70986	0.56195
1220.78130	0.56021
1218.85273	0.55853
1216.92417	0.55693
1214.99561	0.55557
1213.06704	0.55457
1211.13848	0.55387
1209.20991	0.55326
1207.28135	0.55252
1205.35278	0.55156
1203.42422	0.55055
1201.49565	0.54958
1199.56709	0.54853
1197.63853	0.54746
1195.70996	0.54644
1193.78140	0.54550
1191.85283	0.54479
1189.92427	0.54430
1187.99570	0.54377
1186.06714	0.54318
1184.13857	0.54293
1182.21001	0.54326
1180.28145	0.54418
1178.35288	0.54557
1176.42432	0.54709
1174.49575	0.54829
1172.56719	0.54914
1170.63862	0.54989
1168.71006	0.55049
1166.78149	0.55089
1164.85293	0.55134
1162.92437	0.55205
1160.99580	0.55275
1159.06724	0.55308
1157.13867	0.55295
1155.21011	0.55226
1153.28154	0.55102
1151.35298	0.54932
1149.42441	0.54702
1147.49585	0.54413
1145.56729	0.54114
1143.63872	0.53834
1141.71016	0.53580
1139.78159	0.53371
1137.85303	0.53217
1135.92446	0.53125
1133.99590	0.53091
1132.06733	0.53092
1130.13877	0.53094
1128.21021	0.53086
1126.28164	0.53088
1124.35308	0.53092
1122.42451	0.53068
1120.49595	0.53049
1118.56738	0.53084
1116.63882	0.53156
1114.71025	0.53227
1112.78169	0.53293
1110.85312	0.53374
1108.92456	0.53483
1106.99600	0.53603
1105.06743	0.53713
1103.13887	0.53806
1101.21030	0.53889
1099.28174	0.53999
1097.35317	0.54176
1095.42461	0.54423
1093.49604	0.54764
1091.56748	0.55259
1089.63892	0.55916
1087.71035	0.56674
1085.78179	0.57523
1083.85322	0.58420
1081.92466	0.59208
1079.99609	0.59772
1078.06753	0.60073
1076.13896	0.60059
1074.21040	0.59731
1072.28184	0.59191
1070.35327	0.58541
1068.42471	0.57833
1066.49614	0.57143
1064.56758	0.56514
1062.63901	0.55937
1060.71045	0.55438
1058.78188	0.55037
1056.85332	0.54678
1054.92476	0.54307
1052.99619	0.53953
1051.06763	0.53687
1049.13906	0.53537
1047.21050	0.53470
1045.28193	0.53452
1043.35337	0.53457
1041.42480	0.53464
1039.49624	0.53481
1037.56768	0.53501
1035.63911	0.53502
1033.71055	0.53453
1031.78198	0.53313
1029.85342	0.53118
1027.92485	0.52939
1025.99629	0.52773
1024.06772	0.52607
1022.13916	0.52476
1020.21060	0.52391
1018.28203	0.52347
1016.35347	0.52342
1014.42490	0.52335
1012.49634	0.52284
1010.56777	0.52198
1008.63921	0.52127
1006.71064	0.52134
1004.78208	0.52228
1002.85352	0.52382
1000.92495	0.52611
998.99639	0.52944
997.06782	0.53361
995.13926	0.53806
993.21069	0.54228
991.28213	0.54558
989.35356	0.54728
987.42500	0.54754
985.49644	0.54722
983.56787	0.54695
981.63931	0.54684
979.71074	0.54717
977.78218	0.54829
975.85361	0.55010
973.92505	0.55237
971.99648	0.55509
970.06792	0.55831
968.13936	0.56196
966.21079	0.56596
964.28223	0.57029
962.35366	0.57484
960.42510	0.57955
958.49653	0.58463
956.56797	0.59024
954.63940	0.59629
952.71084	0.60249
950.78228	0.60871
948.85371	0.61522
946.92515	0.62209
944.99658	0.62866
943.06802	0.63451
941.13945	0.64015
939.21089	0.64604
937.28232	0.65206
935.35376	0.65786
933.42520	0.66317
931.49663	0.66834
929.56807	0.67404
927.63950	0.68021
925.71094	0.68643
923.78237	0.69262
921.85381	0.69865
919.92524	0.70465
917.99668	0.71137
916.06812	0.71909
914.13955	0.72718
912.21099	0.73537
910.28242	0.74438
908.35386	0.75406
906.42529	0.76299
904.49673	0.77090
902.56816	0.77890
900.63960	0.78792
898.71104	0.79804
896.78247	0.80867
894.85391	0.81895
892.92534	0.82921
890.99678	0.83987
889.06821	0.84957
887.13965	0.85863
885.21108	0.86904
883.28252	0.88045
881.35396	0.89250
879.42539	0.90507
877.49683	0.91671
875.56826	0.92843
873.63970	0.94175
871.71113	0.95443
869.78257	0.96439
867.85400	0.97408
865.92544	0.98534
863.99687	0.99661
862.06831	1.00852
860.13975	1.02229
858.21118	1.03509
856.28262	1.04541
854.35405	1.05667
852.42549	1.06948
850.49692	1.08152
848.56836	1.09372
846.63979	1.10638
844.71123	1.11750
842.78267	1.12666
840.85410	1.13577
838.92554	1.14642
836.99697	1.15963
835.06841	1.17381
833.13984	1.18425
831.21128	1.19161
829.28271	1.19997
827.35415	1.20919
825.42559	1.21804
823.49702	1.22886
821.56846	1.24332
819.63989	1.25557
817.71133	1.26201
815.78276	1.27112
813.85420	1.28431
811.92563	1.29022
809.99707	1.28966
808.06851	1.29220
806.13994	1.30136
804.21138	1.31460
802.28281	1.32352
800.35425	1.33043
798.42568	1.34147
796.49712	1.33924
794.56855	1.32745
792.63999	1.32351
790.71143	1.30866
788.78286	1.28577
786.85430	1.26920
784.92573	1.25551
782.99717	1.26151
781.06860	1.29515
779.14004	1.32077
777.21147	1.31238
775.28291	1.28092
773.35435	1.24462
771.42578	1.23825
769.49722	1.29822
767.56865	1.40119
765.64009	1.39377
763.71152	1.25939
761.78296	1.13219
759.85439	1.07895
757.92583	1.11261
755.99727	1.16793
754.06870	1.15662
752.14014	1.10983
750.21157	1.08817
748.28301	1.07121
746.35444	1.04259
744.42588	1.05649
742.49731	1.14369
740.56875	1.16650
738.64019	1.03481
736.71162	0.91355
734.78306	0.77842
732.85449	0.64046
730.92593	0.55466
728.99736	0.49158
727.06880	0.45438
725.14023	0.44644
723.21167	0.37404
721.28311	0.24871
719.35454	0.10108
717.42598	-0.11969
715.49741	-0.27892
713.56885	-0.35459
711.64028	-0.23101
709.71172	-0.04572
707.78315	0.01762
705.85459	0.01018
703.92603	-0.01438
701.99746	0.02011
700.06890	0.15722
698.14033	0.29822
696.21177	0.27771
694.28320	0.18451
692.35464	0.18061
690.42607	0.25965
688.49751	0.30033
686.56895	0.25527
684.64038	0.27468
682.71182	0.46372
680.78325	0.66839
678.85469	0.61409
676.92612	0.47845
674.99756	0.31818
673.06899	0.19733
671.14043	0.20284
669.21187	0.28396
667.28330	0.30532
665.35474	0.27549
663.42617	0.29105
661.49761	0.36010
659.56904	0.45934
657.64048	0.51449
655.71191	0.39983
653.78335	0.26857
651.85479	0.26253
649.92622	0.31784
647.99766	0.32635
646.06909	0.35924
644.14053	0.40860
642.21196	0.34174
640.28340	0.24504
638.35483	0.23666
636.42627	0.29114
634.49771	0.32669
632.56914	0.35371
630.64058	0.47488
628.71201	0.45942
626.78345	0.28663
624.85488	0.24213
622.92632	0.26289
620.99775	0.24517
619.06919	0.21899
617.14062	0.20928
615.21206	0.17634
613.28350	0.13825
611.35493	0.12744
609.42637	0.13829
607.49780	0.16336
605.56924	0.17801
603.64067	0.15774
601.71211	0.16537
599.78354	0.24119
597.85498	0.29905
595.92642	0.32757
593.99785	0.39161
592.06929	0.39492
590.14072	0.30610
588.21216	0.25602
586.28359	0.25679
584.35503	0.23124
582.42646	0.17358
580.49790	0.18210
578.56934	0.21666
576.64077	0.21743
574.71221	0.19921
572.78364	0.18020
570.85508	0.18722
568.92651	0.21796
566.99795	0.19016
565.06938	0.14311
563.14082	0.14807
561.21226	0.18233
559.28369	0.19315
557.35513	0.18788
555.42656	0.17735
553.49800	0.15341
551.56943	0.15845
549.64087	0.23099
547.71230	0.39787
545.78374	0.52508
543.85518	0.40058
541.92661	0.29909
539.99805	0.28377
538.06948	0.30013
536.14092	0.33202
534.21235	0.37591
532.28379	0.34802
530.35522	0.30986
528.42666	0.32243
526.49810	0.32846
524.56953	0.33862
522.64097	0.34931
520.71240	0.34035
518.78384	0.30096
516.85527	0.20886
514.92671	0.14711
512.99814	0.15766
511.06958	0.21281
509.14102	0.28190
507.21245	0.31593
505.28389	0.23970
503.35532	0.17505
501.42676	0.19363
499.49819	0.22901
