3997.91411	0.09746
3995.98555	0.09755
3994.05698	0.09799
3992.12842	0.09874
3990.19985	0.09942
3988.27129	0.09960
3986.34272	0.09952
3984.41416	0.09971
3982.48560	0.10009
3980.55703	0.10038
3978.62847	0.10061
3976.69990	0.10080
3974.77134	0.10093
3972.84277	0.10127
3970.91421	0.10190
3968.98564	0.10227
3967.05708	0.10203
3965.12852	0.10168
3963.19995	0.10194
3961.27139	0.10264
3959.34282	0.10293
3957.41426	0.10284
3955.48569	0.10288
3953.55713	0.10293
3951.62856	0.10297
3949.70000	0.10341
3947.77144	0.10383
3945.84287	0.10350
3943.91431	0.10332
3941.98574	0.10373
3940.05718	0.10357
3938.12861	0.10277
3936.20005	0.10227
3934.27148	0.10256
3932.34292	0.10366
3930.41436	0.10460
3928.48579	0.10449
3926.55723	0.10402
3924.62866	0.10387
3922.70010	0.10364
3920.77153	0.10345
3918.84297	0.10386
3916.91440	0.10421
3914.98584	0.10348
3913.05728	0.10205
3911.12871	0.10099
3909.20015	0.10081
3907.27158	0.10169
3905.34302	0.10397
3903.41445	0.10698
3901.48589	0.10837
3899.55732	0.10784
3897.62876	0.10634
3895.70020	0.10426
3893.77163	0.10305
3891.84307	0.10378
3889.91450	0.10473
3887.98594	0.10408
3886.05737	0.10417
3884.12881	0.10563
3882.20024	0.10601
3880.27168	0.10541
3878.34312	0.10435
3876.41455	0.10344
3874.48599	0.10433
3872.55742	0.10666
3870.62886	0.10885
3868.70029	0.11027
3866.77173	0.11011
3864.84316	0.11010
3862.91460	0.11067
3860.98604	0.10966
3859.05747	0.10823
3857.12891	0.10858
3855.20034	0.11135
3853.27178	0.11646
3851.34321	0.11848
3849.41465	0.11427
3847.48608	0.11012
3845.55752	0.10840
3843.62896	0.10929
3841.70039	0.11227
3839.77183	0.11616
3837.84326	0.11944
3835.91470	0.12017
3833.98613	0.11879
3832.05757	0.11732
3830.12900	0.11616
3828.20044	0.11544
3826.27187	0.11594
3824.34331	0.11755
3822.41475	0.12031
3820.48618	0.12418
3818.55762	0.12548
3816.62905	0.12485
3814.70049	0.12449
3812.77192	0.12282
3810.84336	0.12136
3808.91479	0.12213
3806.98623	0.12485
3805.05767	0.12751
3803.12910	0.12965
3801.20054	0.13291
3799.27197	0.13467
3797.34341	0.13364
3795.41484	0.13276
3793.48628	0.13212
3791.55771	0.13205
3789.62915	0.13315
3787.70059	0.13474
3785.77202	0.13667
3783.84346	0.13879
3781.91489	0.14046
3779.98633	0.14269
3778.05776	0.14524
3776.12920	0.14560
3774.20063	0.14542
3772.27207	0.14727
3770.34351	0.15083
3768.41494	0.15397
3766.48638	0.15565
3764.55781	0.15727
3762.62925	0.15891
3760.70068	0.16106
3758.77212	0.16467
3756.84355	0.16794
3754.91499	0.16994
3752.98643	0.17323
3751.05786	0.17974
3749.12930	0.18630
3747.20073	0.18807
3745.27217	0.18885
3743.34360	0.19187
3741.41504	0.19490
3739.48647	0.19726
3737.55791	0.20160
3735.62935	0.20923
3733.70078	0.21669
3731.77222	0.21936
3729.84365	0.22008
3727.91509	0.22246
3725.98652	0.22818
3724.05796	0.23600
3722.12939	0.24292
3720.20083	0.24893
3718.27227	0.25502
3716.34370	0.26161
3714.41514	0.26917
3712.48657	0.27996
3710.55801	0.29577
3708.62944	0.31038
3706.70088	0.32007
3704.77231	0.32962
3702.84375	0.34262
3700.91519	0.36047
3698.98662	0.37909
3697.05806	0.39580
3695.12949	0.41396
3693.20093	0.43439
3691.27236	0.45790
3689.34380	0.48857
3687.41523	0.52353
3685.48667	0.55172
3683.55811	0.57628
3681.62954	0.60426
3679.70098	0.63684
3677.77241	0.67159
3675.84385	0.71334
3673.91528	0.76874
3671.98672	0.81218
3670.05815	0.85030
3668.12959	0.90269
3666.20103	0.94954
3664.27246	0.98875
3662.34390	1.03183
3660.41533	1.07924
3658.48677	1.12671
3656.55820	1.17764
3654.62964	1.23368
3652.70107	1.28022
3650.77251	1.32184
3648.84395	1.38082
3646.91538	1.45061
3644.98682	1.49856
3643.05825	1.53521
3641.12969	1.57394
3639.20112	1.61741
3637.27256	1.66176
3635.34399	1.70559
3633.41543	1.74943
3631.48687	1.78990
3629.55830	1.83157
3627.62974	1.88799
3625.70117	1.93946
3623.77261	1.97253
3621.84404	2.00486
3619.91548	2.04367
3617.98691	2.09068
3616.05835	2.13450
3614.12979	2.17100
3612.20122	2.20997
3610.27266	2.24944
3608.34409	2.29016
3606.41553	2.33267
3604.48696	2.37048
3602.55840	2.40487
3600.62983	2.44308
3598.70127	2.48464
3596.77271	2.52495
3594.84414	2.56524
3592.91558	2.60647
3590.98701	2.64565
3589.05845	2.68291
3587.12988	2.72754
3585.20132	2.77557
3583.27275	2.81512
3581.34419	2.85190
3579.41562	2.89231
3577.48706	2.93615
3575.55850	2.98040
3573.62993	3.02393
3571.70137	3.06510
3569.77280	3.10488
3567.84424	3.14945
3565.91567	3.20549
3563.98711	3.25815
3562.05854	3.29810
3560.12998	3.33630
3558.20142	3.37905
3556.27285	3.42570
3554.34429	3.47202
3552.41572	3.51901
3550.48716	3.56680
3548.55859	3.61389
3546.63003	3.66092
3544.70146	3.70837
3542.77290	3.75489
3540.84434	3.80063
3538.91577	3.84544
3536.98721	3.88897
3535.05864	3.93679
3533.13008	3.98864
3531.20151	4.04039
3529.27295	4.09125
3527.34438	4.14138
3525.41582	4.18986
3523.48726	4.23800
3521.55869	4.28799
3519.63013	4.33631
3517.70156	4.38100
3515.77300	4.42454
3513.84443	4.47335
3511.91587	4.52541
3509.98730	4.57454
3508.05874	4.62309
3506.13018	4.67024
3504.20161	4.71634
3502.27305	4.76834
3500.34448	4.82125
3498.41592	4.86380
3496.48735	4.90297
3494.55879	4.95081
3492.63022	5.00424
3490.70166	5.05340
3488.77310	5.10147
3486.84453	5.15598
3484.91597	5.20692
3482.98740	5.24904
3481.05884	5.29754
3479.13027	5.35417
3477.20171	5.40972
3475.27314	5.46388
3473.34458	5.51812
3471.41602	5.56826
3469.48745	5.60498
3467.55889	5.63759
3465.63032	5.68644
3463.70176	5.74808
3461.77319	5.80727
3459.84463	5.86386
3457.91606	5.91876
3455.98750	5.97164
3454.05894	6.01966
3452.13037	6.05798
3450.20181	6.09329
3448.27324	6.13640
3446.34468	6.19598
3444.41611	6.25699
3442.48755	6.30238
3440.55898	6.34312
3438.63042	6.39012
3436.70186	6.43877
3434.77329	6.49355
3432.84473	6.54989
3430.91616	6.58838
3428.98760	6.62328
3427.05903	6.67752
3425.13047	6.75210
3423.20190	6.82446
3421.27334	6.87674
3419.34478	6.90368
3417.41621	6.93334
3415.48765	6.98519
3413.55908	7.04155
3411.63052	7.11090
3409.70195	7.18323
3407.77339	7.22735
3405.84482	7.23662
3403.91626	7.25550
3401.98770	7.29310
3400.05913	7.33372
3398.13057	7.40839
3396.20200	7.51574
3394.27344	7.60717
3392.34487	7.62197
3390.41631	7.57575
3388.48774	7.54304
3386.55918	7.58095
3384.63062	7.66079
3382.70205	7.73454
3380.77349	7.77732
3378.84492	7.76242
3376.91636	7.75792
3374.98779	7.80609
3373.05923	7.86003
3371.13066	7.86705
3369.20210	7.86494
3367.27354	7.89574
3365.34497	7.97769
3363.41641	8.10064
3361.48784	8.15282
3359.55928	8.11336
3357.63071	8.08941
3355.70215	8.10037
3353.77358	8.07992
3351.84502	8.07073
3349.91646	8.11274
3347.98789	8.17270
3346.05933	8.20954
3344.13076	8.20579
3342.20220	8.17041
3340.27363	8.08987
3338.34507	8.02017
3336.41650	8.06016
3334.48794	8.21282
3332.55937	8.28231
3330.63081	8.25206
3328.70225	8.27845
3326.77368	8.29111
3324.84512	8.22975
3322.91655	8.16032
3320.98799	8.13225
3319.05942	8.13562
3317.13086	8.14962
3315.20229	8.14713
3313.27373	8.13158
3311.34517	8.12200
3309.41660	8.13991
3307.48804	8.16710
3305.55947	8.12257
3303.63091	8.03157
3301.70234	7.98294
3299.77378	8.03590
3297.84521	8.17097
3295.91665	8.26167
3293.98809	8.23302
3292.05952	8.20556
3290.13096	8.19617
3288.20239	8.14515
3286.27383	8.12652
3284.34526	8.15559
3282.41670	8.20541
3280.48813	8.23839
3278.55957	8.21746
3276.63101	8.16516
3274.70244	8.16964
3272.77388	8.28979
3270.84531	8.46242
3268.91675	8.57864
3266.98818	8.59414
3265.05962	8.54953
3263.13105	8.45404
3261.20249	8.34841
3259.27393	8.25264
3257.34536	8.22711
3255.41680	8.38036
3253.48823	8.55396
3251.55967	8.50763
3249.63110	8.40886
3247.70254	8.43830
3245.77397	8.53701
3243.84541	8.56086
3241.91685	8.48745
3239.98828	8.36392
3238.05972	8.21651
3236.13115	8.16007
3234.20259	8.24143
3232.27402	8.34880
3230.34546	8.36797
3228.41689	8.36375
3226.48833	8.42492
3224.55977	8.44627
3222.63120	8.38961
3220.70264	8.32089
3218.77407	8.23083
3216.84551	8.10321
3214.91694	8.00649
3212.98838	7.98991
3211.05981	7.97324
3209.13125	7.94335
3207.20269	7.94860
3205.27412	7.95667
3203.34556	7.94856
3201.41699	7.95911
3199.48843	8.01314
3197.55986	8.04875
3195.63130	7.99356
3193.70273	7.89728
3191.77417	7.77896
3189.84561	7.65894
3187.91704	7.62708
3185.98848	7.63571
3184.05991	7.59487
3182.13135	7.54612
3180.20278	7.48135
3178.27422	7.38275
3176.34565	7.33151
3174.41709	7.31718
3172.48853	7.22766
3170.55996	7.09410
3168.63140	7.01066
3166.70283	6.96076
3164.77427	6.91832
3162.84570	6.90284
3160.91714	6.90369
3158.98857	6.87092
3157.06001	6.80003
3155.13145	6.73393
3153.20288	6.68601
3151.27432	6.64534
3149.34575	6.57790
3147.41719	6.47288
3145.48862	6.37518
3143.56006	6.30744
3141.63149	6.24250
3139.70293	6.15575
3137.77437	6.07378
3135.84580	6.01961
3133.91724	5.96429
3131.98867	5.88760
3130.06011	5.81247
3128.13154	5.74204
3126.20298	5.65927
3124.27441	5.57263
3122.34585	5.49579
3120.41729	5.43343
3118.48872	5.37520
3116.56016	5.30578
3114.63159	5.22969
3112.70303	5.15523
3110.77446	5.08249
3108.84590	5.00920
3106.91733	4.93395
3104.98877	4.86273
3103.06021	4.79882
3101.13164	4.73421
3099.20308	4.66629
3097.27451	4.59767
3095.34595	4.52734
3093.41738	4.45756
3091.48882	4.39191
3089.56025	4.32778
3087.63169	4.26242
3085.70312	4.19668
3083.77456	4.13067
3081.84600	4.06675
3079.91743	4.00443
3077.98887	3.94059
3076.06030	3.87817
3074.13174	3.81882
3072.20317	3.75928
3070.27461	3.69828
3068.34604	3.63663
3066.41748	3.57623
3064.48892	3.51890
3062.56035	3.46289
3060.63179	3.40745
3058.70322	3.35276
3056.77466	3.29778
3054.84609	3.24338
3052.91753	3.18909
3050.98896	3.13407
3049.06040	3.07975
3047.13184	3.02662
3045.20327	2.97447
3043.27471	2.92468
3041.34614	2.87737
3039.41758	2.82999
3037.48901	2.78170
3035.56045	2.73333
3033.63188	2.68550
3031.70332	2.63906
3029.77476	2.59415
3027.84619	2.55010
3025.91763	2.50668
3023.98906	2.46394
3022.06050	2.42098
3020.13193	2.37780
3018.20337	2.33615
3016.27480	2.29611
3014.34624	2.25625
3012.41768	2.21644
3010.48911	2.17763
3008.56055	2.13994
3006.63198	2.10233
3004.70342	2.06469
3002.77485	2.02804
3000.84629	1.99269
2998.91772	1.95815
2996.98916	1.92387
2995.06060	1.88948
2993.13203	1.85533
2991.20347	1.82203
2989.27490	1.78942
2987.34634	1.75723
2985.41777	1.72570
2983.48921	1.69478
2981.56064	1.66412
2979.63208	1.63378
2977.70352	1.60378
2975.77495	1.57399
2973.84639	1.54442
2971.91782	1.51530
2969.98926	1.48679
2968.06069	1.45878
2966.13213	1.43147
2964.20356	1.40491
2962.27500	1.37886
2960.34644	1.35323
2958.41787	1.32786
2956.48931	1.30289
2954.56074	1.27882
2952.63218	1.25559
2950.70361	1.23261
2948.77505	1.20972
2946.84648	1.18708
2944.91792	1.16493
2942.98936	1.14324
2941.06079	1.12168
2939.13223	1.10025
2937.20366	1.07920
2935.27510	1.05840
2933.34653	1.03784
2931.41797	1.01799
2929.48940	0.99838
2927.56084	0.97850
2925.63228	0.95919
2923.70371	0.94146
2921.77515	0.92535
2919.84658	0.90984
2917.91802	0.89417
2915.98945	0.87885
2914.06089	0.86443
2912.13232	0.85073
2910.20376	0.83742
2908.27520	0.82423
2906.34663	0.81107
2904.41807	0.79798
2902.48950	0.78486
2900.56094	0.77193
2898.63237	0.75938
2896.70381	0.74712
2894.77524	0.73508
2892.84668	0.72315
2890.91812	0.71137
2888.98955	0.69987
2887.06099	0.68865
2885.13242	0.67752
2883.20386	0.66640
2881.27529	0.65531
2879.34673	0.64420
2877.41816	0.63316
2875.48960	0.62220
2873.56104	0.61137
2871.63247	0.60075
2869.70391	0.59023
2867.77534	0.57997
2865.84678	0.57027
2863.91821	0.56075
2861.98965	0.55086
2860.06108	0.54061
2858.13252	0.53044
2856.20396	0.52067
2854.27539	0.51169
2852.34683	0.50390
2850.41826	0.49689
2848.48970	0.48995
2846.56113	0.48310
2844.63257	0.47666
2842.70400	0.47067
2840.77544	0.46498
2838.84687	0.45935
2836.91831	0.45373
2834.98975	0.44815
2833.06118	0.44260
2831.13262	0.43701
2829.20405	0.43134
2827.27549	0.42563
2825.34692	0.41977
2823.41836	0.41367
2821.48979	0.40761
2819.56123	0.40191
2817.63267	0.39649
2815.70410	0.39116
2813.77554	0.38588
2811.84697	0.38060
2809.91841	0.37518
2807.98984	0.36965
2806.06128	0.36427
2804.13271	0.35915
2802.20415	0.35427
2800.27559	0.34968
2798.34702	0.34526
2796.41846	0.34065
2794.48989	0.33592
2792.56133	0.33145
2790.63276	0.32732
2788.70420	0.32324
2786.77563	0.31913
2784.84707	0.31516
2782.91851	0.31124
2780.98994	0.30725
2779.06138	0.30338
2777.13281	0.29964
2775.20425	0.29582
2773.27568	0.29200
2771.34712	0.28848
2769.41855	0.28528
2767.48999	0.28199
2765.56143	0.27849
2763.63286	0.27517
2761.70430	0.27219
2759.77573	0.26929
2757.84717	0.26626
2755.91860	0.26316
2753.99004	0.26013
2752.06147	0.25733
2750.13291	0.25459
2748.20435	0.25176
2746.27578	0.24895
2744.34722	0.24634
2742.41865	0.24385
2740.49009	0.24140
2738.56152	0.23895
2736.63296	0.23651
2734.70439	0.23420
2732.77583	0.23205
2730.84727	0.23002
2728.91870	0.22810
2726.99014	0.22617
2725.06157	0.22422
2723.13301	0.22222
2721.20444	0.22004
2719.27588	0.21778
2717.34731	0.21575
2715.41875	0.21401
2713.49019	0.21241
2711.56162	0.21070
2709.63306	0.20890
2707.70449	0.20725
2705.77593	0.20574
2703.84736	0.20416
2701.91880	0.20262
2699.99023	0.20126
2698.06167	0.19979
2696.13311	0.19812
2694.20454	0.19656
2692.27598	0.19518
2690.34741	0.19390
2688.41885	0.19276
2686.49028	0.19170
2684.56172	0.19066
2682.63315	0.18956
2680.70459	0.18840
2678.77603	0.18727
2676.84746	0.18617
2674.91890	0.18499
2672.99033	0.18376
2671.06177	0.18273
2669.13320	0.18201
2667.20464	0.18126
2665.27607	0.18036
2663.34751	0.17934
2661.41895	0.17831
2659.49038	0.17754
2657.56182	0.17700
2655.63325	0.17640
2653.70469	0.17580
2651.77612	0.17528
2649.84756	0.17463
2647.91899	0.17376
2645.99043	0.17306
2644.06187	0.17275
2642.13330	0.17255
2640.20474	0.17221
2638.27617	0.17182
2636.34761	0.17141
2634.41904	0.17097
2632.49048	0.17058
2630.56191	0.17027
2628.63335	0.16993
2626.70479	0.16968
2624.77622	0.16957
2622.84766	0.16945
2620.91909	0.16919
2618.99053	0.16882
2617.06196	0.16847
2615.13340	0.16836
2613.20483	0.16840
2611.27627	0.16845
2609.34771	0.16849
2607.41914	0.16848
2605.49058	0.16847
2603.56201	0.16849
2601.63345	0.16845
2599.70488	0.16844
2597.77632	0.16863
2595.84775	0.16887
2593.91919	0.16899
2591.99062	0.16914
2590.06206	0.16941
2588.13350	0.16969
2586.20493	0.16999
2584.27637	0.17029
2582.34780	0.17058
2580.41924	0.17088
2578.49067	0.17115
2576.56211	0.17138
2574.63354	0.17173
2572.70498	0.17220
2570.77642	0.17265
2568.84785	0.17317
2566.91929	0.17380
2564.99072	0.17434
2563.06216	0.17477
2561.13359	0.17515
2559.20503	0.17555
2557.27646	0.17606
2555.34790	0.17669
2553.41934	0.17729
2551.49077	0.17778
2549.56221	0.17825
2547.63364	0.17884
2545.70508	0.17959
2543.77651	0.18043
2541.84795	0.18116
2539.91938	0.18181
2537.99082	0.18253
2536.06226	0.18338
2534.13369	0.18426
2532.20513	0.18504
2530.27656	0.18573
2528.34800	0.18646
2526.41943	0.18723
2524.49087	0.18802
2522.56230	0.18887
2520.63374	0.18972
2518.70518	0.19059
2516.77661	0.19152
2514.84805	0.19246
2512.91948	0.19331
2510.99092	0.19403
2509.06235	0.19473
2507.13379	0.19556
2505.20522	0.19647
2503.27666	0.19744
2501.34810	0.19841
2499.41953	0.19928
2497.49097	0.20006
2495.56240	0.20085
2493.63384	0.20173
2491.70527	0.20274
2489.77671	0.20378
2487.84814	0.20477
2485.91958	0.20581
2483.99102	0.20688
2482.06245	0.20787
2480.13389	0.20873
2478.20532	0.20955
2476.27676	0.21050
2474.34819	0.21148
2472.41963	0.21236
2470.49106	0.21332
2468.56250	0.21446
2466.63394	0.21557
2464.70537	0.21662
2462.77681	0.21773
2460.84824	0.21880
2458.91968	0.21968
2456.99111	0.22044
2455.06255	0.22135
2453.13398	0.22243
2451.20542	0.22350
2449.27686	0.22455
2447.34829	0.22562
2445.41973	0.22670
2443.49116	0.22776
2441.56260	0.22871
2439.63403	0.22971
2437.70547	0.23084
2435.77690	0.23200
2433.84834	0.23310
2431.91978	0.23420
2429.99121	0.23536
2428.06265	0.23651
2426.13408	0.23756
2424.20552	0.23855
2422.27695	0.23969
2420.34839	0.24104
2418.41982	0.24231
2416.49126	0.24337
2414.56270	0.24439
2412.63413	0.24547
2410.70557	0.24663
2408.77700	0.24788
2406.84844	0.24918
2404.91987	0.25048
2402.99131	0.25177
2401.06274	0.25302
2399.13418	0.25426
2397.20562	0.25552
2395.27705	0.25683
2393.34849	0.25817
2391.41992	0.25955
2389.49136	0.26095
2387.56279	0.26242
2385.63423	0.26417
2383.70566	0.26635
2381.77710	0.26906
2379.84854	0.27227
2377.91997	0.27582
2375.99141	0.27955
2374.06284	0.28374
2372.13428	0.28876
2370.20571	0.29449
2368.27715	0.29999
2366.34858	0.30459
2364.42002	0.30908
2362.49146	0.31352
2360.56289	0.31618
2358.63433	0.31727
2356.70576	0.31802
2354.77720	0.31768
2352.84863	0.31510
2350.92007	0.31139
2348.99150	0.30907
2347.06294	0.30924
2345.13437	0.31251
2343.20581	0.31782
2341.27725	0.32173
2339.34868	0.32369
2337.42012	0.32496
2335.49155	0.32598
2333.56299	0.32664
2331.63442	0.32775
2329.70586	0.32960
2327.77729	0.33091
2325.84873	0.33120
2323.92017	0.33126
2321.99160	0.33127
2320.06304	0.33103
2318.13447	0.33091
2316.20591	0.33124
2314.27734	0.33202
2312.34878	0.33307
2310.42021	0.33418
2308.49165	0.33522
2306.56309	0.33612
2304.63452	0.33695
2302.70596	0.33794
2300.77739	0.33920
2298.84883	0.34064
2296.92026	0.34223
2294.99170	0.34379
2293.06313	0.34522
2291.13457	0.34656
2289.20601	0.34800
2287.27744	0.34969
2285.34888	0.35144
2283.42031	0.35311
2281.49175	0.35493
2279.56318	0.35707
2277.63462	0.35940
2275.70605	0.36167
2273.77749	0.36378
2271.84893	0.36583
2269.92036	0.36783
2267.99180	0.36980
2266.06323	0.37191
2264.13467	0.37417
2262.20610	0.37640
2260.27754	0.37847
2258.34897	0.38055
2256.42041	0.38278
2254.49185	0.38505
2252.56328	0.38727
2250.63472	0.38942
2248.70615	0.39151
2246.77759	0.39359
2244.84902	0.39565
2242.92046	0.39775
2240.99189	0.40008
2239.06333	0.40260
2237.13477	0.40507
2235.20620	0.40743
2233.27764	0.40970
2231.34907	0.41184
2229.42051	0.41396
2227.49194	0.41617
2225.56338	0.41836
2223.63481	0.42052
2221.70625	0.42281
2219.77769	0.42512
2217.84912	0.42734
2215.92056	0.42954
2213.99199	0.43177
2212.06343	0.43396
2210.13486	0.43606
2208.20630	0.43818
2206.27773	0.44036
2204.34917	0.44251
2202.42061	0.44458
2200.49204	0.44665
2198.56348	0.44883
2196.63491	0.45107
2194.70635	0.45317
2192.77778	0.45504
2190.84922	0.45684
2188.92065	0.45877
2186.99209	0.46072
2185.06353	0.46251
2183.13496	0.46418
2181.20640	0.46587
2179.27783	0.46753
2177.34927	0.46918
2175.42070	0.47092
2173.49214	0.47260
2171.56357	0.47399
2169.63501	0.47519
2167.70645	0.47643
2165.77788	0.47775
2163.84932	0.47910
2161.92075	0.48042
2159.99219	0.48166
2158.06362	0.48268
2156.13506	0.48348
2154.20649	0.48423
2152.27793	0.48509
2150.34937	0.48595
2148.42080	0.48674
2146.49224	0.48734
2144.56367	0.48765
2142.63511	0.48790
2140.70654	0.48825
2138.77798	0.48861
2136.84941	0.48882
2134.92085	0.48888
2132.99229	0.48887
2131.06372	0.48874
2129.13516	0.48846
2127.20659	0.48815
2125.27803	0.48788
2123.34946	0.48756
2121.42090	0.48698
2119.49233	0.48619
2117.56377	0.48547
2115.63521	0.48480
2113.70664	0.48408
2111.77808	0.48323
2109.84951	0.48220
2107.92095	0.48105
2105.99238	0.47989
2104.06382	0.47864
2102.13525	0.47724
2100.20669	0.47581
2098.27812	0.47438
2096.34956	0.47286
2094.42100	0.47115
2092.49243	0.46944
2090.56387	0.46784
2088.63530	0.46616
2086.70674	0.46432
2084.77817	0.46233
2082.84961	0.46025
2080.92104	0.45817
2078.99248	0.45608
2077.06392	0.45394
2075.13535	0.45176
2073.20679	0.44954
2071.27822	0.44725
2069.34966	0.44495
2067.42109	0.44262
2065.49253	0.44022
2063.56396	0.43780
2061.63540	0.43536
2059.70684	0.43285
2057.77827	0.43017
2055.84971	0.42741
2053.92114	0.42468
2051.99258	0.42197
2050.06401	0.41922
2048.13545	0.41647
2046.20688	0.41378
2044.27832	0.41114
2042.34976	0.40847
2040.42119	0.40564
2038.49263	0.40265
2036.56406	0.39968
2034.63550	0.39686
2032.70693	0.39414
2030.77837	0.39142
2028.84980	0.38857
2026.92124	0.38566
2024.99268	0.38280
2023.06411	0.37991
2021.13555	0.37696
2019.20698	0.37418
2017.27842	0.37156
2015.34985	0.36869
2013.42129	0.36552
2011.49272	0.36239
2009.56416	0.35957
2007.63560	0.35685
2005.70703	0.35403
2003.77847	0.35120
2001.84990	0.34842
1999.92134	0.34566
1997.99277	0.34290
1996.06421	0.34021
1994.13564	0.33780
1992.20708	0.33555
1990.27852	0.33298
1988.34995	0.33014
1986.42139	0.32738
1984.49282	0.32481
1982.56426	0.32235
1980.63569	0.31988
1978.70713	0.31745
1976.77856	0.31519
1974.85000	0.31299
1972.92144	0.31070
1970.99287	0.30848
1969.06431	0.30655
1967.13574	0.30475
1965.20718	0.30259
1963.27861	0.30020
1961.35005	0.29799
1959.42148	0.29597
1957.49292	0.29406
1955.56436	0.29228
1953.63579	0.29056
1951.70723	0.28880
1949.77866	0.28702
1947.85010	0.28529
1945.92153	0.28384
1943.99297	0.28273
1942.06440	0.28146
1940.13584	0.27951
1938.20728	0.27749
1936.27871	0.27596
1934.35015	0.27469
1932.42158	0.27340
1930.49302	0.27207
1928.56445	0.27081
1926.63589	0.26968
1924.70732	0.26893
1922.77876	0.26839
1920.85020	0.26746
1918.92163	0.26637
1916.99307	0.26533
1915.06450	0.26413
1913.13594	0.26311
1911.20737	0.26258
1909.27881	0.26207
1907.35024	0.26118
1905.42168	0.26015
1903.49312	0.25939
1901.56455	0.25884
1899.63599	0.25832
1897.70742	0.25790
1895.77886	0.25767
1893.85029	0.25747
1891.92173	0.25719
1889.99316	0.25708
1888.06460	0.25676
1886.13604	0.25612
1884.20747	0.25562
1882.27891	0.25531
1880.35034	0.25517
1878.42178	0.25516
1876.49321	0.25514
1874.56465	0.25503
1872.63608	0.25515
1870.70752	0.25585
1868.77896	0.25706
1866.85039	0.25745
1864.92183	0.25679
1862.99326	0.25628
1861.06470	0.25627
1859.13613	0.25650
1857.20757	0.25674
1855.27900	0.25712
1853.35044	0.25759
1851.42187	0.25816
1849.49331	0.25896
1847.56475	0.26008
1845.63618	0.26147
1843.70762	0.26273
1841.77905	0.26312
1839.85049	0.26306
1837.92192	0.26360
1835.99336	0.26444
1834.06479	0.26526
1832.13623	0.26647
1830.20767	0.26857
1828.27910	0.27044
1826.35054	0.27132
1824.42197	0.27230
1822.49341	0.27325
1820.56484	0.27416
1818.63628	0.27544
1816.70771	0.27704
1814.77915	0.27871
1812.85059	0.28073
1810.92202	0.28313
1808.99346	0.28522
1807.06489	0.28693
1805.13633	0.28871
1803.20776	0.29108
1801.27920	0.29406
1799.35063	0.29719
1797.42207	0.29977
1795.49351	0.30234
1793.56494	0.30569
1791.63638	0.30979
1789.70781	0.31281
1787.77925	0.31471
1785.85068	0.31756
1783.92212	0.32140
1781.99355	0.32560
1780.06499	0.33002
1778.13643	0.33441
1776.20786	0.33864
1774.27930	0.34353
1772.35073	0.35021
1770.42217	0.35683
1768.49360	0.36167
1766.56504	0.36625
1764.63647	0.37122
1762.70791	0.37724
1760.77935	0.38504
1758.85078	0.39206
1756.92222	0.39900
1754.99365	0.40673
1753.06509	0.41404
1751.13652	0.42322
1749.20796	0.43480
1747.27939	0.44547
1745.35083	0.45444
1743.42227	0.46402
1741.49370	0.47470
1739.56514	0.48725
1737.63657	0.49986
1735.70801	0.51130
1733.77944	0.52892
1731.85088	0.54911
1729.92231	0.56419
1727.99375	0.57963
1726.06519	0.59656
1724.13662	0.61545
1722.20806	0.63599
1720.27949	0.65516
1718.35093	0.67813
1716.42236	0.71190
1714.49380	0.74275
1712.56523	0.76680
1710.63667	0.79041
1708.70811	0.81624
1706.77954	0.84584
1704.85098	0.88110
1702.92241	0.91215
1700.99385	0.94236
1699.06528	0.98773
1697.13672	1.02944
1695.20815	1.07097
1693.27959	1.11063
1691.35103	1.14228
1689.42246	1.17905
1687.49390	1.21774
1685.56533	1.25481
1683.63677	1.31210
1681.70820	1.37102
1679.77964	1.40751
1677.85107	1.44224
1675.92251	1.48264
1673.99395	1.53317
1672.06538	1.57817
1670.13682	1.62187
1668.20825	1.67716
1666.27969	1.71915
1664.35112	1.75352
1662.42256	1.79711
1660.49399	1.84650
1658.56543	1.88435
1656.63687	1.91533
1654.70830	1.94460
1652.77974	1.99543
1650.85117	2.04999
1648.92261	2.07208
1646.99404	2.10026
1645.06548	2.13361
1643.13691	2.15722
1641.20835	2.17134
1639.27979	2.18311
1637.35122	2.19235
1635.42266	2.19844
1633.49409	2.19739
1631.56553	2.18799
1629.63696	2.17539
1627.70840	2.15286
1625.77983	2.12557
1623.85127	2.09109
1621.92271	2.04904
1619.99414	2.00985
1618.06558	1.96980
1616.13701	1.91296
1614.20845	1.85522
1612.27988	1.81093
1610.35132	1.76373
1608.42275	1.71172
1606.49419	1.66028
1604.56562	1.61297
1602.63706	1.56603
1600.70850	1.51895
1598.77993	1.47608
1596.85137	1.43632
1594.92280	1.39710
1592.99424	1.35812
1591.06567	1.32191
1589.13711	1.28802
1587.20854	1.25603
1585.27998	1.22576
1583.35142	1.19694
1581.42285	1.17006
1579.49429	1.14687
1577.56572	1.12583
1575.63716	1.09885
1573.70859	1.07371
1571.78003	1.05703
1569.85146	1.03935
1567.92290	1.01823
1565.99434	1.00060
1564.06577	0.98553
1562.13721	0.97317
1560.20864	0.96315
1558.28008	0.94507
1556.35151	0.92663
1554.42295	0.91461
1552.49438	0.90293
1550.56582	0.89195
1548.63726	0.88120
1546.70869	0.87210
1544.78013	0.86472
1542.85156	0.85756
1540.92300	0.84903
1538.99443	0.83638
1537.06587	0.82610
1535.13730	0.81961
1533.20874	0.81229
1531.28018	0.80380
1529.35161	0.79731
1527.42305	0.79205
1525.49448	0.78714
1523.56592	0.78269
1521.63735	0.77737
1519.70879	0.77039
1517.78022	0.76456
1515.85166	0.75871
1513.92310	0.75243
1511.99453	0.74771
1510.06597	0.74490
1508.13740	0.74324
1506.20884	0.73814
1504.28027	0.73054
1502.35171	0.72574
1500.42314	0.72242
1498.49458	0.71953
1496.56602	0.71611
1494.63745	0.71219
1492.70889	0.70916
1490.78032	0.70732
1488.85176	0.70515
1486.92319	0.70141
1484.99463	0.69737
1483.06606	0.69409
1481.13750	0.69128
1479.20894	0.68867
1477.28037	0.68665
1475.35181	0.68526
1473.42324	0.68378
1471.49468	0.68030
1469.56611	0.67564
1467.63755	0.67214
1465.70898	0.66974
1463.78042	0.66737
1461.85186	0.66508
1459.92329	0.66382
1457.99473	0.66329
1456.06616	0.66091
1454.13760	0.65699
1452.20903	0.65410
1450.28047	0.65186
1448.35190	0.64978
1446.42334	0.64751
1444.49478	0.64532
1442.56621	0.64367
1440.63765	0.64247
1438.70908	0.64165
1436.78052	0.64100
1434.85195	0.63947
1432.92339	0.63732
1430.99482	0.63560
1429.06626	0.63400
1427.13770	0.63220
1425.20913	0.63063
1423.28057	0.62927
1421.35200	0.62807
1419.42344	0.62725
1417.49487	0.62590
1415.56631	0.62337
1413.63774	0.62089
1411.70918	0.61899
1409.78062	0.61738
1407.85205	0.61588
1405.92349	0.61466
1403.99492	0.61330
1402.06636	0.61173
1400.13779	0.61061
1398.20923	0.60968
1396.28066	0.60851
1394.35210	0.60689
1392.42354	0.60478
1390.49497	0.60304
1388.56641	0.60214
1386.63784	0.60135
1384.70928	0.59990
1382.78071	0.59827
1380.85215	0.59699
1378.92358	0.59609
1376.99502	0.59552
1375.06646	0.59520
1373.13789	0.59447
1371.20933	0.59307
1369.28076	0.59176
1367.35220	0.59077
1365.42363	0.58997
1363.49507	0.58941
1361.56650	0.58863
1359.63794	0.58718
1357.70937	0.58571
1355.78081	0.58469
1353.85225	0.58391
1351.92368	0.58301
1349.99512	0.58207
1348.06655	0.58106
1346.13799	0.57987
1344.20942	0.57874
1342.28086	0.57803
1340.35229	0.57769
1338.42373	0.57695
1336.49517	0.57554
1334.56660	0.57414
1332.63804	0.57302
1330.70947	0.57204
1328.78091	0.57110
1326.85234	0.57018
1324.92378	0.56934
1322.99521	0.56856
1321.06665	0.56783
1319.13809	0.56714
1317.20952	0.56635
1315.28096	0.56548
1313.35239	0.56456
1311.42383	0.56344
1309.49526	0.56232
1307.56670	0.56146
1305.63813	0.56067
1303.70957	0.55971
1301.78101	0.55880
1299.85244	0.55805
1297.92388	0.55732
1295.99531	0.55667
1294.06675	0.55604
1292.13818	0.55525
1290.20962	0.55446
1288.28105	0.55382
1286.35249	0.55321
1284.42393	0.55259
1282.49536	0.55199
1280.56680	0.55147
1278.63823	0.55107
1276.70967	0.55067
1274.78110	0.55011
1272.85254	0.54951
1270.92397	0.54898
1268.99541	0.54846
1267.06685	0.54804
1265.13828	0.54771
1263.20972	0.54736
1261.28115	0.54708
1259.35259	0.54689
1257.42402	0.54655
1255.49546	0.54607
1253.56689	0.54562
1251.63833	0.54533
1249.70977	0.54520
1247.78120	0.54508
1245.85264	0.54474
1243.92407	0.54422
1241.99551	0.54384
1240.06694	0.54356
1238.13838	0.54313
1236.20981	0.54250
1234.28125	0.54181
1232.35269	0.54120
1230.42412	0.54058
1228.49556	0.53998
1226.56699	0.53946
1224.63843	0.53879
1222.70986	0.53786
1220.78130	0.53693
1218.85273	0.53601
1216.92417	0.53515
1214.99561	0.53460
1213.06704	0.53428
1211.13848	0.53385
1209.20991	0.53313
1207.28135	0.53228
1205.35278	0.53149
1203.42422	0.53085
1201.49565	0.53032
1199.56709	0.52985
1197.63853	0.52927
1195.70996	0.52853
1193.78140	0.52788
1191.85283	0.52740
1189.92427	0.52696
1187.99570	0.52659
1186.06714	0.52633
1184.13857	0.52609
1182.21001	0.52590
1180.28145	0.52584
1178.35288	0.52592
1176.42432	0.52621
1174.49575	0.52682
1172.56719	0.52754
1170.63862	0.52818
1168.71006	0.52886
1166.78149	0.52951
1164.85293	0.53003
1162.92437	0.53051
1160.99580	0.53097
1159.06724	0.53118
1157.13867	0.53087
1155.21011	0.53001
1153.28154	0.52877
1151.35298	0.52730
1149.42441	0.52553
1147.49585	0.52352
1145.56729	0.52137
1143.63872	0.51893
1141.71016	0.51624
1139.78159	0.51360
1137.85303	0.51114
1135.92446	0.50887
1133.99590	0.50688
1132.06733	0.50526
1130.13877	0.50392
1128.21021	0.50273
1126.28164	0.50158
1124.35308	0.50050
1122.42451	0.49969
1120.49595	0.49920
1118.56738	0.49885
1116.63882	0.49858
1114.71025	0.49851
1112.78169	0.49889
1110.85312	0.49966
1108.92456	0.50046
1106.99600	0.50133
1105.06743	0.50250
1103.13887	0.50387
1101.21030	0.50535
1099.28174	0.50709
1097.35317	0.50918
1095.42461	0.51183
1093.49604	0.51533
1091.56748	0.51977
1089.63892	0.52526
1087.71035	0.53178
1085.78179	0.53890
1083.85322	0.54614
1081.92466	0.55294
1079.99609	0.55864
1078.06753	0.56256
1076.13896	0.56372
1074.21040	0.56163
1072.28184	0.55707
1070.35327	0.55120
1068.42471	0.54464
1066.49614	0.53780
1064.56758	0.53128
1062.63901	0.52549
1060.71045	0.52060
1058.78188	0.51660
1056.85332	0.51314
1054.92476	0.50995
1052.99619	0.50694
1051.06763	0.50433
1049.13906	0.50260
1047.21050	0.50152
1045.28193	0.50057
1043.35337	0.49979
1041.42480	0.49923
1039.49624	0.49874
1037.56768	0.49826
1035.63911	0.49802
1033.71055	0.49814
1031.78198	0.49827
1029.85342	0.49805
1027.92485	0.49750
1025.99629	0.49704
1024.06772	0.49696
1022.13916	0.49715
1020.21060	0.49753
1018.28203	0.49815
1016.35347	0.49885
1014.42490	0.49952
1012.49634	0.50036
1010.56777	0.50144
1008.63921	0.50255
1006.71064	0.50374
1004.78208	0.50525
1002.85352	0.50723
1000.92495	0.50974
998.99639	0.51279
997.06782	0.51630
995.13926	0.52024
993.21069	0.52429
991.28213	0.52765
989.35356	0.52995
987.42500	0.53134
985.49644	0.53210
983.56787	0.53277
981.63931	0.53379
979.71074	0.53513
977.78218	0.53690
975.85361	0.53935
973.92505	0.54228
971.99648	0.54538
970.06792	0.54878
968.13936	0.55265
966.21079	0.55683
964.28223	0.56124
962.35366	0.56585
960.42510	0.57076
958.49653	0.57626
956.56797	0.58232
954.63940	0.58871
952.71084	0.59515
950.78228	0.60127
948.85371	0.60729
946.92515	0.61379
944.99658	0.62054
943.06802	0.62700
941.13945	0.63312
939.21089	0.63872
937.28232	0.64380
935.35376	0.64901
933.42520	0.65466
931.49663	0.66054
929.56807	0.66665
927.63950	0.67276
925.71094	0.67882
923.78237	0.68526
921.85381	0.69171
919.92524	0.69830
917.99668	0.70552
916.06812	0.71290
914.13955	0.72051
912.21099	0.72816
910.28242	0.73560
908.35386	0.74420
906.42529	0.75398
904.49673	0.76337
902.56816	0.77250
900.63960	0.78197
898.71104	0.79151
896.78247	0.80152
894.85391	0.81189
892.92534	0.82215
890.99678	0.83214
889.06821	0.84201
887.13965	0.85284
885.21108	0.86451
883.28252	0.87644
881.35396	0.88914
879.42539	0.90169
877.49683	0.91289
875.56826	0.92347
873.63970	0.93412
871.71113	0.94550
869.78257	0.95749
867.85400	0.96824
865.92544	0.97797
863.99687	0.98894
862.06831	1.00175
860.13975	1.01477
858.21118	1.02597
856.28262	1.03526
854.35405	1.04412
852.42549	1.05417
850.49692	1.06570
848.56836	1.07721
846.63979	1.08887
844.71123	1.10238
842.78267	1.11733
840.85410	1.13075
838.92554	1.14000
836.99697	1.14663
835.06841	1.15504
833.13984	1.16780
831.21128	1.18359
829.28271	1.19893
827.35415	1.20967
825.42559	1.21911
823.49702	1.23362
821.56846	1.24610
819.63989	1.25396
817.71133	1.26459
815.78276	1.27515
813.85420	1.27999
811.92563	1.28816
809.99707	1.30450
808.06851	1.30896
806.13994	1.30013
804.21138	1.29821
802.28281	1.30432
800.35425	1.31094
798.42568	1.32161
796.49712	1.34332
794.56855	1.36777
792.63999	1.38737
790.71143	1.41798
788.78286	1.48033
786.85430	1.54819
784.92573	1.54505
782.99717	1.48358
781.06860	1.47127
779.14004	1.57455
777.21147	1.77881
775.28291	1.84361
773.35435	1.72312
771.42578	1.62268
769.49722	1.48940
767.56865	1.35430
765.64009	1.30428
763.71152	1.36656
761.78296	1.53625
759.85439	1.78435
757.92583	1.99646
755.99727	1.95473
754.06870	1.65630
752.14014	1.35370
750.21157	1.15951
748.28301	1.08159
746.35444	1.08622
744.42588	1.05577
742.49731	0.99320
740.56875	1.08798
738.64019	1.49116
736.71162	1.51438
734.78306	1.18142
732.85449	1.12765
730.92593	1.13038
728.99736	0.99090
727.06880	0.88348
725.14023	0.92240
723.21167	0.78271
721.28311	0.49040
719.35454	0.31905
717.42598	0.27466
715.49741	0.33126
713.56885	0.34899
711.64028	0.17988
709.71172	-0.01184
707.78315	-0.07446
705.85459	-0.09823
703.92603	-0.12913
701.99746	-0.08035
700.06890	0.06326
698.14033	0.17769
696.21177	0.19140
694.28320	0.10810
692.35464	0.05814
690.42607	0.04282
688.49751	0.00368
686.56895	0.03086
684.64038	0.20950
682.71182	0.37261
680.78325	0.35952
678.85469	0.23706
676.92612	0.13092
674.99756	0.08685
673.06899	0.10627
671.14043	0.18600
669.21187	0.21654
667.28330	0.12634
665.35474	0.03497
663.42617	0.05428
661.49761	0.15539
659.56904	0.18969
657.64048	0.13165
655.71191	0.10419
653.78335	0.17570
651.85479	0.26444
649.92622	0.33290
647.99766	0.37280
646.06909	0.25167
644.14053	0.12410
642.21196	0.04788
640.28340	0.07267
638.35483	0.17749
636.42627	0.23084
634.49771	0.20193
632.56914	0.13659
630.64058	-0.01005
628.71201	-0.07812
626.78345	0.02852
624.85488	0.13834
622.92632	0.18121
620.99775	0.26518
619.06919	0.33994
617.14062	0.25736
615.21206	0.18517
613.28350	0.19582
611.35493	0.24843
609.42637	0.31140
607.49780	0.29989
605.56924	0.09857
603.64067	-0.07569
601.71211	-0.04591
599.78354	0.06987
597.85498	0.13247
595.92642	0.13266
593.99785	0.13549
592.06929	0.18214
590.14072	0.23915
588.21216	0.30491
586.28359	0.49441
584.35503	0.54406
582.42646	0.33172
580.49790	0.19132
578.56934	0.14936
576.64077	0.19453
574.71221	0.26638
572.78364	0.20943
570.85508	0.11678
568.92651	0.14908
566.99795	0.24794
565.06938	0.26379
563.14082	0.23059
561.21226	0.23257
559.28369	0.25347
557.35513	0.23261
555.42656	0.18520
553.49800	0.15818
551.56943	0.14166
549.64087	0.15024
547.71230	0.24281
545.78374	0.47038
543.85518	0.88121
541.92661	0.67640
539.99805	0.32364
538.06948	0.13242
536.14092	0.04733
534.21235	0.09857
532.28379	0.24909
530.35522	0.28075
528.42666	0.25776
526.49810	0.34717
524.56953	0.44873
522.64097	0.39340
520.71240	0.22861
518.78384	0.08952
516.85527	0.00915
514.92671	-0.02605
512.99814	0.01265
511.06958	0.14593
509.14102	0.31654
507.21245	0.26910
505.28389	0.13959
503.35532	0.09847
501.42676	0.10383
499.49819	0.13772
