3997.91411	0.06536
3995.98555	0.06585
3994.05698	0.06677
3992.12842	0.06746
3990.19985	0.06800
3988.27129	0.06817
3986.34272	0.06765
3984.41416	0.06750
3982.48560	0.06821
3980.55703	0.06870
3978.62847	0.06875
3976.69990	0.06927
3974.77134	0.07025
3972.84277	0.07063
3970.91421	0.07020
3968.98564	0.06991
3967.05708	0.07017
3965.12852	0.07072
3963.19995	0.07135
3961.27139	0.07170
3959.34282	0.07159
3957.41426	0.07152
3955.48569	0.07176
3953.55713	0.07226
3951.62856	0.07365
3949.70000	0.07593
3947.77144	0.07714
3945.84287	0.07645
3943.91431	0.07649
3941.98574	0.07726
3940.05718	0.07568
3938.12861	0.07307
3936.20005	0.07237
3934.27148	0.07419
3932.34292	0.07765
3930.41436	0.07973
3928.48579	0.07841
3926.55723	0.07685
3924.62866	0.07779
3922.70010	0.07867
3920.77153	0.07786
3918.84297	0.07811
3916.91440	0.07918
3914.98584	0.07759
3913.05728	0.07383
3911.12871	0.07115
3909.20015	0.07072
3907.27158	0.07338
3905.34302	0.08045
3903.41445	0.08930
3901.48589	0.09324
3899.55732	0.09090
3897.62876	0.08479
3895.70020	0.07867
3893.77163	0.07743
3891.84307	0.08092
3889.91450	0.08239
3887.98594	0.08029
3886.05737	0.08114
3884.12881	0.08441
3882.20024	0.08595
3880.27168	0.08646
3878.34312	0.08382
3876.41455	0.08024
3874.48599	0.08185
3872.55742	0.08752
3870.62886	0.09315
3868.70029	0.09492
3866.77173	0.09192
3864.84316	0.09142
3862.91460	0.09311
3860.98604	0.08998
3859.05747	0.08560
3857.12891	0.08646
3855.20034	0.09354
3853.27178	0.10503
3851.34321	0.10728
3849.41465	0.09627
3847.48608	0.08724
3845.55752	0.08488
3843.62896	0.08881
3841.70039	0.09638
3839.77183	0.10453
3837.84326	0.10973
3835.91470	0.10763
3833.98613	0.10193
3832.05757	0.09783
3830.12900	0.09528
3828.20044	0.09456
3826.27187	0.09608
3824.34331	0.09886
3822.41475	0.10467
3820.48618	0.11327
3818.55762	0.11473
3816.62905	0.11091
3814.70049	0.10661
3812.77192	0.10015
3810.84336	0.09611
3808.91479	0.09781
3806.98623	0.10419
3805.05767	0.11011
3803.12910	0.11459
3801.20054	0.12074
3799.27197	0.12173
3797.34341	0.11712
3795.41484	0.11305
3793.48628	0.10867
3791.55771	0.10553
3789.62915	0.10530
3787.70059	0.10721
3785.77202	0.11096
3783.84346	0.11477
3781.91489	0.11688
3779.98633	0.11946
3778.05776	0.12160
3776.12920	0.12015
3774.20063	0.11873
3772.27207	0.12121
3770.34351	0.12747
3768.41494	0.13348
3766.48638	0.13571
3764.55781	0.13614
3762.62925	0.13661
3760.70068	0.13972
3758.77212	0.14630
3756.84355	0.15129
3754.91499	0.15376
3752.98643	0.16036
3751.05786	0.17404
3749.12930	0.18451
3747.20073	0.18393
3745.27217	0.18349
3743.34360	0.18591
3741.41504	0.18613
3739.48647	0.18743
3737.55791	0.19518
3735.62935	0.21001
3733.70078	0.22160
3731.77222	0.21968
3729.84365	0.21396
3727.91509	0.21400
3725.98652	0.22073
3724.05796	0.22917
3722.12939	0.23472
3720.20083	0.23797
3718.27227	0.24024
3716.34370	0.24340
3714.41514	0.25072
3712.48657	0.26618
3710.55801	0.28779
3708.62944	0.30090
3706.70088	0.30485
3704.77231	0.31142
3702.84375	0.32474
3700.91519	0.34283
3698.98662	0.35957
3697.05806	0.37490
3695.12949	0.39355
3693.20093	0.41606
3691.27236	0.44358
3689.34380	0.47753
3687.41523	0.50920
3685.48667	0.53068
3683.55811	0.55067
3681.62954	0.57685
3679.70098	0.61090
3677.77241	0.65059
3675.84385	0.69858
3673.91528	0.75430
3671.98672	0.79372
3670.05815	0.83113
3668.12959	0.88086
3666.20103	0.92085
3664.27246	0.95542
3662.34390	0.99699
3660.41533	1.04425
3658.48677	1.09254
3656.55820	1.14522
3654.62964	1.20219
3652.70107	1.25005
3650.77251	1.29757
3648.84395	1.36499
3646.91538	1.43330
3644.98682	1.47209
3643.05825	1.50253
3641.12969	1.53974
3639.20112	1.58388
3637.27256	1.62877
3635.34399	1.67335
3633.41543	1.71934
3631.48687	1.76426
3629.55830	1.81276
3627.62974	1.87177
3625.70117	1.91621
3623.77261	1.94388
3621.84404	1.97715
3619.91548	2.02087
3617.98691	2.07095
3616.05835	2.11344
3614.12979	2.14828
3612.20122	2.18609
3610.27266	2.22418
3608.34409	2.26424
3606.41553	2.30678
3604.48696	2.34448
3602.55840	2.37999
3600.62983	2.42122
3598.70127	2.46479
3596.77271	2.50499
3594.84414	2.54517
3592.91558	2.58525
3590.98701	2.62218
3589.05845	2.66080
3587.12988	2.71027
3585.20132	2.75937
3583.27275	2.79567
3581.34419	2.82954
3579.41562	2.86849
3577.48706	2.91184
3575.55850	2.95698
3573.62993	3.00270
3571.70137	3.04617
3569.77280	3.08909
3567.84424	3.13813
3565.91567	3.19622
3563.98711	3.24580
3562.05854	3.28163
3560.12998	3.31754
3558.20142	3.35889
3556.27285	3.40362
3554.34429	3.44949
3552.41572	3.49941
3550.48716	3.54937
3548.55859	3.59436
3546.63003	3.64159
3544.70146	3.69528
3542.77290	3.74644
3540.84434	3.79084
3538.91577	3.83166
3536.98721	3.87321
3535.05864	3.92193
3533.13008	3.97289
3531.20151	4.02047
3529.27295	4.06725
3527.34438	4.11649
3525.41582	4.16939
3523.48726	4.22387
3521.55869	4.27627
3519.63013	4.32483
3517.70156	4.37077
3515.77300	4.41575
3513.84443	4.46486
3511.91587	4.51597
3509.98730	4.56084
3508.05874	4.60251
3506.13018	4.64934
3504.20161	4.70168
3502.27305	4.75827
3500.34448	4.81276
3498.41592	4.85947
3496.48735	4.90416
3494.55879	4.95186
3492.63022	5.00290
3490.70166	5.05123
3488.77310	5.09760
3486.84453	5.14959
3484.91597	5.20359
3482.98740	5.24964
3481.05884	5.28670
3479.13027	5.32720
3477.20171	5.37915
3475.27314	5.43682
3473.34458	5.48896
3471.41602	5.53048
3469.48745	5.57382
3467.55889	5.62505
3465.63032	5.67531
3463.70176	5.73185
3461.77319	5.79446
3459.84463	5.84676
3457.91606	5.89627
3455.98750	5.95662
3454.05894	6.01732
3452.13037	6.06105
3450.20181	6.09516
3448.27324	6.14271
3446.34468	6.20155
3444.41611	6.24701
3442.48755	6.27728
3440.55898	6.30286
3438.63042	6.33569
3436.70186	6.38567
3434.77329	6.44165
3432.84473	6.48201
3430.91616	6.52372
3428.98760	6.59835
3427.05903	6.67598
3425.13047	6.72132
3423.20190	6.73624
3421.27334	6.74909
3419.34478	6.80183
3417.41621	6.90223
3415.48765	6.99552
3413.55908	7.03247
3411.63052	7.04913
3409.70195	7.08700
3407.77339	7.13329
3405.84482	7.15413
3403.91626	7.16966
3401.98770	7.20455
3400.05913	7.24279
3398.13057	7.28197
3396.20200	7.33740
3394.27344	7.40054
3392.34487	7.44152
3390.41631	7.48480
3388.48774	7.51641
3386.55918	7.49096
3384.63062	7.46237
3382.70205	7.50815
3380.77349	7.59944
3378.84492	7.67295
3376.91636	7.72537
3374.98779	7.74472
3373.05923	7.74306
3371.13066	7.75826
3369.20210	7.80968
3367.27354	7.86354
3365.34497	7.89675
3363.41641	7.91923
3361.48784	7.93629
3359.55928	7.96303
3357.63071	7.98860
3355.70215	7.98279
3353.77358	7.95538
3351.84502	7.99016
3349.91646	8.08961
3347.98789	8.18953
3346.05933	8.21044
3344.13076	8.11406
3342.20220	8.00783
3340.27363	7.97838
3338.34507	8.01635
3336.41650	8.06168
3334.48794	8.08530
3332.55937	8.08759
3330.63081	8.10628
3328.70225	8.13144
3326.77368	8.13487
3324.84512	8.14375
3322.91655	8.19460
3320.98799	8.31312
3319.05942	8.38295
3317.13086	8.29712
3315.20229	8.14628
3313.27373	8.07732
3311.34517	8.10600
3309.41660	8.19702
3307.48804	8.34879
3305.55947	8.41158
3303.63091	8.29374
3301.70234	8.18321
3299.77378	8.15911
3297.84521	8.13737
3295.91665	8.14661
3293.98809	8.17654
3292.05952	8.19935
3290.13096	8.27790
3288.20239	8.34132
3286.27383	8.36898
3284.34526	8.45534
3282.41670	8.51256
3280.48813	8.42622
3278.55957	8.30455
3276.63101	8.18813
3274.70244	8.12282
3272.77388	8.17468
3270.84531	8.25627
3268.91675	8.30701
3266.98818	8.34127
3265.05962	8.34789
3263.13105	8.33863
3261.20249	8.32759
3259.27393	8.29214
3257.34536	8.26014
3255.41680	8.21095
3253.48823	8.11919
3251.55967	8.08328
3249.63110	8.15009
3247.70254	8.27806
3245.77397	8.36420
3243.84541	8.32996
3241.91685	8.26915
3239.98828	8.27733
3238.05972	8.25320
3236.13115	8.15562
3234.20259	8.12334
3232.27402	8.15848
3230.34546	8.16566
3228.41689	8.14956
3226.48833	8.13767
3224.55977	8.11415
3222.63120	8.09395
3220.70264	8.10376
3218.77407	8.15273
3216.84551	8.20532
3214.91694	8.14572
3212.98838	7.98889
3211.05981	7.91015
3209.13125	7.94640
3207.20269	8.00566
3205.27412	8.00652
3203.34556	7.93258
3201.41699	7.87015
3199.48843	7.83552
3197.55986	7.76578
3195.63130	7.67282
3193.70273	7.59756
3191.77417	7.56974
3189.84561	7.58206
3187.91704	7.57927
3185.98848	7.53924
3184.05991	7.48940
3182.13135	7.43773
3180.20278	7.39291
3178.27422	7.38138
3176.34565	7.37567
3174.41709	7.33279
3172.48853	7.27753
3170.55996	7.22167
3168.63140	7.13916
3166.70283	7.02325
3164.77427	6.90344
3162.84570	6.83443
3160.91714	6.82153
3158.98857	6.79693
3157.06001	6.73430
3155.13145	6.68001
3153.20288	6.64129
3151.27432	6.59132
3149.34575	6.52359
3147.41719	6.44632
3145.48862	6.36352
3143.56006	6.28037
3141.63149	6.21077
3139.70293	6.14383
3137.77437	6.06862
3135.84580	5.99330
3133.91724	5.92028
3131.98867	5.84968
3130.06011	5.78223
3128.13154	5.72614
3126.20298	5.68079
3124.27441	5.62024
3122.34585	5.53148
3120.41729	5.43573
3118.48872	5.35097
3116.56016	5.27593
3114.63159	5.20345
3112.70303	5.12942
3110.77446	5.05902
3108.84590	4.99859
3106.91733	4.93909
3104.98877	4.86998
3103.06021	4.79946
3101.13164	4.73113
3099.20308	4.66273
3097.27451	4.59929
3095.34595	4.53717
3093.41738	4.46975
3091.48882	4.39935
3089.56025	4.33115
3087.63169	4.26851
3085.70312	4.20842
3083.77456	4.14487
3081.84600	4.08040
3079.91743	4.01903
3077.98887	3.95863
3076.06030	3.89857
3074.13174	3.83773
3072.20317	3.77498
3070.27461	3.71447
3068.34604	3.65768
3066.41748	3.60120
3064.48892	3.54397
3062.56035	3.48802
3060.63179	3.43441
3058.70322	3.38065
3056.77466	3.32442
3054.84609	3.26826
3052.91753	3.21524
3050.98896	3.16362
3049.06040	3.11142
3047.13184	3.06003
3045.20327	3.00995
3043.27471	2.96019
3041.34614	2.91083
3039.41758	2.86252
3037.48901	2.81498
3035.56045	2.76741
3033.63188	2.71990
3031.70332	2.67333
3029.77476	2.62778
3027.84619	2.58293
3025.91763	2.53901
3023.98906	2.49578
3022.06050	2.45338
3020.13193	2.41185
3018.20337	2.37011
3016.27480	2.32795
3014.34624	2.28634
3012.41768	2.24612
3010.48911	2.20728
3008.56055	2.16915
3006.63198	2.13177
3004.70342	2.09562
3002.77485	2.06040
3000.84629	2.02543
2998.91772	1.99089
2996.98916	1.95758
2995.06060	1.92509
2993.13203	1.89239
2991.20347	1.85999
2989.27490	1.82866
2987.34634	1.79801
2985.41777	1.76794
2983.48921	1.73915
2981.56064	1.71141
2979.63208	1.68384
2977.70352	1.65645
2975.77495	1.62966
2973.84639	1.60339
2971.91782	1.57765
2969.98926	1.55267
2968.06069	1.52778
2966.13213	1.50232
2964.20356	1.47705
2962.27500	1.45252
2960.34644	1.42778
2958.41787	1.40237
2956.48931	1.37730
2954.56074	1.35280
2952.63218	1.32851
2950.70361	1.30482
2948.77505	1.28202
2946.84648	1.25950
2944.91792	1.23689
2942.98936	1.21446
2941.06079	1.19217
2939.13223	1.17011
2937.20366	1.14892
2935.27510	1.12818
2933.34653	1.10658
2931.41797	1.08423
2929.48940	1.06226
2927.56084	1.04068
2925.63228	1.01933
2923.70371	0.99790
2921.77515	0.97567
2919.84658	0.95354
2917.91802	0.93319
2915.98945	0.91553
2914.06089	0.90133
2912.13232	0.88978
2910.20376	0.87842
2908.27520	0.86609
2906.34663	0.85313
2904.41807	0.83976
2902.48950	0.82631
2900.56094	0.81325
2898.63237	0.80059
2896.70381	0.78803
2894.77524	0.77527
2892.84668	0.76242
2890.91812	0.75010
2888.98955	0.73890
2887.06099	0.72836
2885.13242	0.71753
2883.20386	0.70670
2881.27529	0.69665
2879.34673	0.68725
2877.41816	0.67785
2875.48960	0.66806
2873.56104	0.65761
2871.63247	0.64657
2869.70391	0.63519
2867.77534	0.62319
2865.84678	0.61041
2863.91821	0.59738
2861.98965	0.58464
2860.06108	0.57241
2858.13252	0.56059
2856.20396	0.54867
2854.27539	0.53614
2852.34683	0.52302
2850.41826	0.51051
2848.48970	0.50095
2846.56113	0.49553
2844.63257	0.49264
2842.70400	0.48980
2840.77544	0.48568
2838.84687	0.48041
2836.91831	0.47487
2834.98975	0.46938
2833.06118	0.46378
2831.13262	0.45784
2829.20405	0.45145
2827.27549	0.44507
2825.34692	0.43910
2823.41836	0.43320
2821.48979	0.42712
2819.56123	0.42090
2817.63267	0.41477
2815.70410	0.40898
2813.77554	0.40331
2811.84697	0.39745
2809.91841	0.39162
2807.98984	0.38617
2806.06128	0.38096
2804.13271	0.37564
2802.20415	0.37023
2800.27559	0.36495
2798.34702	0.35981
2796.41846	0.35482
2794.48989	0.35003
2792.56133	0.34527
2790.63276	0.34048
2788.70420	0.33585
2786.77563	0.33141
2784.84707	0.32703
2782.91851	0.32257
2780.98994	0.31804
2779.06138	0.31371
2777.13281	0.30972
2775.20425	0.30583
2773.27568	0.30176
2771.34712	0.29761
2769.41855	0.29368
2767.48999	0.29013
2765.56143	0.28664
2763.63286	0.28311
2761.70430	0.27976
2759.77573	0.27642
2757.84717	0.27280
2755.91860	0.26923
2753.99004	0.26600
2752.06147	0.26296
2750.13291	0.25996
2748.20435	0.25695
2746.27578	0.25388
2744.34722	0.25090
2742.41865	0.24811
2740.49009	0.24540
2738.56152	0.24269
2736.63296	0.23998
2734.70439	0.23726
2732.77583	0.23460
2730.84727	0.23210
2728.91870	0.22968
2726.99014	0.22728
2725.06157	0.22490
2723.13301	0.22262
2721.20444	0.22057
2719.27588	0.21861
2717.34731	0.21656
2715.41875	0.21442
2713.49019	0.21232
2711.56162	0.21034
2709.63306	0.20848
2707.70449	0.20671
2705.77593	0.20506
2703.84736	0.20353
2701.91880	0.20202
2699.99023	0.20046
2698.06167	0.19892
2696.13311	0.19737
2694.20454	0.19574
2692.27598	0.19418
2690.34741	0.19274
2688.41885	0.19139
2686.49028	0.19011
2684.56172	0.18890
2682.63315	0.18764
2680.70459	0.18631
2678.77603	0.18504
2676.84746	0.18394
2674.91890	0.18295
2672.99033	0.18188
2671.06177	0.18070
2669.13320	0.17968
2667.20464	0.17887
2665.27607	0.17794
2663.34751	0.17686
2661.41895	0.17587
2659.49038	0.17505
2657.56182	0.17419
2655.63325	0.17322
2653.70469	0.17245
2651.77612	0.17179
2649.84756	0.17109
2647.91899	0.17053
2645.99043	0.16995
2644.06187	0.16911
2642.13330	0.16825
2640.20474	0.16767
2638.27617	0.16731
2636.34761	0.16698
2634.41904	0.16649
2632.49048	0.16592
2630.56191	0.16539
2628.63335	0.16498
2626.70479	0.16469
2624.77622	0.16437
2622.84766	0.16386
2620.91909	0.16334
2618.99053	0.16301
2617.06196	0.16289
2615.13340	0.16289
2613.20483	0.16286
2611.27627	0.16267
2609.34771	0.16246
2607.41914	0.16236
2605.49058	0.16215
2603.56201	0.16178
2601.63345	0.16157
2599.70488	0.16163
2597.77632	0.16173
2595.84775	0.16186
2593.91919	0.16204
2591.99062	0.16216
2590.06206	0.16216
2588.13350	0.16218
2586.20493	0.16235
2584.27637	0.16268
2582.34780	0.16307
2580.41924	0.16340
2578.49067	0.16361
2576.56211	0.16371
2574.63354	0.16386
2572.70498	0.16419
2570.77642	0.16457
2568.84785	0.16488
2566.91929	0.16521
2564.99072	0.16559
2563.06216	0.16598
2561.13359	0.16640
2559.20503	0.16690
2557.27646	0.16741
2555.34790	0.16790
2553.41934	0.16846
2551.49077	0.16908
2549.56221	0.16962
2547.63364	0.17004
2545.70508	0.17053
2543.77651	0.17113
2541.84795	0.17173
2539.91938	0.17233
2537.99082	0.17292
2536.06226	0.17353
2534.13369	0.17428
2532.20513	0.17513
2530.27656	0.17589
2528.34800	0.17659
2526.41943	0.17723
2524.49087	0.17780
2522.56230	0.17849
2520.63374	0.17937
2518.70518	0.18018
2516.77661	0.18079
2514.84805	0.18156
2512.91948	0.18252
2510.99092	0.18336
2509.06235	0.18407
2507.13379	0.18484
2505.20522	0.18579
2503.27666	0.18667
2501.34810	0.18736
2499.41953	0.18803
2497.49097	0.18880
2495.56240	0.18971
2493.63384	0.19066
2491.70527	0.19160
2489.77671	0.19254
2487.84814	0.19350
2485.91958	0.19446
2483.99102	0.19530
2482.06245	0.19605
2480.13389	0.19683
2478.20532	0.19765
2476.27676	0.19846
2474.34819	0.19931
2472.41963	0.20018
2470.49106	0.20104
2468.56250	0.20195
2466.63394	0.20283
2464.70537	0.20375
2462.77681	0.20482
2460.84824	0.20593
2458.91968	0.20694
2456.99111	0.20787
2455.06255	0.20886
2453.13398	0.20993
2451.20542	0.21090
2449.27686	0.21180
2447.34829	0.21274
2445.41973	0.21369
2443.49116	0.21472
2441.56260	0.21588
2439.63403	0.21696
2437.70547	0.21792
2435.77690	0.21885
2433.84834	0.21975
2431.91978	0.22073
2429.99121	0.22193
2428.06265	0.22313
2426.13408	0.22419
2424.20552	0.22524
2422.27695	0.22643
2420.34839	0.22768
2418.41982	0.22886
2416.49126	0.23004
2414.56270	0.23119
2412.63413	0.23229
2410.70557	0.23338
2408.77700	0.23451
2406.84844	0.23570
2404.91987	0.23691
2402.99131	0.23804
2401.06274	0.23920
2399.13418	0.24053
2397.20562	0.24191
2395.27705	0.24323
2393.34849	0.24454
2391.41992	0.24589
2389.49136	0.24751
2387.56279	0.24991
2385.63423	0.25354
2383.70566	0.25888
2381.77710	0.26615
2379.84854	0.27509
2377.91997	0.28535
2375.99141	0.29693
2374.06284	0.31034
2372.13428	0.32586
2370.20571	0.34299
2368.27715	0.36089
2366.34858	0.37848
2364.42002	0.39363
2362.49146	0.40446
2360.56289	0.41091
2358.63433	0.41260
2356.70576	0.40712
2354.77720	0.39412
2352.84863	0.37715
2350.92007	0.36017
2348.99150	0.34964
2347.06294	0.34976
2345.13437	0.36100
2343.20581	0.37674
2341.27725	0.38574
2339.34868	0.38729
2337.42012	0.38601
2335.49155	0.38439
2333.56299	0.38310
2331.63442	0.38250
2329.70586	0.38202
2327.77729	0.38062
2325.84873	0.37754
2323.92017	0.37310
2321.99160	0.36838
2320.06304	0.36341
2318.13447	0.35807
2316.20591	0.35349
2314.27734	0.35067
2312.34878	0.34940
2310.42021	0.34836
2308.49165	0.34640
2306.56309	0.34372
2304.63452	0.34134
2302.70596	0.34014
2300.77739	0.33995
2298.84883	0.33999
2296.92026	0.33999
2294.99170	0.33994
2293.06313	0.33983
2291.13457	0.33989
2289.20601	0.34017
2287.27744	0.34044
2285.34888	0.34078
2283.42031	0.34168
2281.49175	0.34342
2279.56318	0.34578
2277.63462	0.34834
2275.70605	0.35083
2273.77749	0.35318
2271.84893	0.35533
2269.92036	0.35735
2267.99180	0.35939
2266.06323	0.36151
2264.13467	0.36356
2262.20610	0.36539
2260.27754	0.36712
2258.34897	0.36901
2256.42041	0.37103
2254.49185	0.37305
2252.56328	0.37499
2250.63472	0.37694
2248.70615	0.37897
2246.77759	0.38102
2244.84902	0.38304
2242.92046	0.38517
2240.99189	0.38735
2239.06333	0.38946
2237.13477	0.39161
2235.20620	0.39384
2233.27764	0.39614
2231.34907	0.39847
2229.42051	0.40068
2227.49194	0.40280
2225.56338	0.40508
2223.63481	0.40748
2221.70625	0.40980
2219.77769	0.41200
2217.84912	0.41417
2215.92056	0.41632
2213.99199	0.41846
2212.06343	0.42069
2210.13486	0.42299
2208.20630	0.42524
2206.27773	0.42748
2204.34917	0.42965
2202.42061	0.43159
2200.49204	0.43345
2198.56348	0.43546
2196.63491	0.43752
2194.70635	0.43956
2192.77778	0.44161
2190.84922	0.44362
2188.92065	0.44549
2186.99209	0.44719
2185.06353	0.44887
2183.13496	0.45068
2181.20640	0.45253
2179.27783	0.45417
2177.34927	0.45567
2175.42070	0.45717
2173.49214	0.45865
2171.56357	0.46013
2169.63501	0.46157
2167.70645	0.46287
2165.77788	0.46410
2163.84932	0.46540
2161.92075	0.46666
2159.99219	0.46772
2158.06362	0.46862
2156.13506	0.46948
2154.20649	0.47030
2152.27793	0.47110
2150.34937	0.47193
2148.42080	0.47256
2146.49224	0.47294
2144.56367	0.47329
2142.63511	0.47373
2140.70654	0.47414
2138.77798	0.47444
2136.84941	0.47467
2134.92085	0.47484
2132.99229	0.47479
2131.06372	0.47454
2129.13516	0.47422
2127.20659	0.47389
2125.27803	0.47358
2123.34946	0.47316
2121.42090	0.47257
2119.49233	0.47196
2117.56377	0.47134
2115.63521	0.47058
2113.70664	0.46969
2111.77808	0.46862
2109.84951	0.46740
2107.92095	0.46621
2105.99238	0.46503
2104.06382	0.46379
2102.13525	0.46256
2100.20669	0.46130
2098.27812	0.45984
2096.34956	0.45821
2094.42100	0.45649
2092.49243	0.45472
2090.56387	0.45299
2088.63530	0.45125
2086.70674	0.44928
2084.77817	0.44715
2082.84961	0.44509
2080.92104	0.44308
2078.99248	0.44103
2077.06392	0.43890
2075.13535	0.43668
2073.20679	0.43446
2071.27822	0.43213
2069.34966	0.42967
2067.42109	0.42735
2065.49253	0.42524
2063.56396	0.42288
2061.63540	0.42015
2059.70684	0.41746
2057.77827	0.41480
2055.84971	0.41208
2053.92114	0.40947
2051.99258	0.40690
2050.06401	0.40414
2048.13545	0.40131
2046.20688	0.39860
2044.27832	0.39611
2042.34976	0.39356
2040.42119	0.39065
2038.49263	0.38751
2036.56406	0.38451
2034.63550	0.38164
2032.70693	0.37872
2030.77837	0.37580
2028.84980	0.37294
2026.92124	0.37010
2024.99268	0.36716
2023.06411	0.36428
2021.13555	0.36167
2019.20698	0.35933
2017.27842	0.35689
2015.34985	0.35379
2013.42129	0.35035
2011.49272	0.34727
2009.56416	0.34455
2007.63560	0.34185
2005.70703	0.33910
2003.77847	0.33635
2001.84990	0.33359
1999.92134	0.33085
1997.99277	0.32811
1996.06421	0.32554
1994.13564	0.32363
1992.20708	0.32204
1990.27852	0.31955
1988.34995	0.31631
1986.42139	0.31317
1984.49282	0.31036
1982.56426	0.30782
1980.63569	0.30539
1978.70713	0.30305
1976.77856	0.30074
1974.85000	0.29841
1972.92144	0.29614
1970.99287	0.29409
1969.06431	0.29258
1967.13574	0.29131
1965.20718	0.28919
1963.27861	0.28645
1961.35005	0.28403
1959.42148	0.28198
1957.49292	0.28011
1955.56436	0.27836
1953.63579	0.27653
1951.70723	0.27463
1949.77866	0.27298
1947.85010	0.27167
1945.92153	0.27074
1943.99297	0.27027
1942.06440	0.26935
1940.13584	0.26694
1938.20728	0.26434
1936.27871	0.26259
1934.35015	0.26118
1932.42158	0.25982
1930.49302	0.25844
1928.56445	0.25713
1926.63589	0.25629
1924.70732	0.25639
1922.77876	0.25664
1920.85020	0.25574
1918.92163	0.25463
1916.99307	0.25356
1915.06450	0.25167
1913.13594	0.25006
1911.20737	0.24972
1909.27881	0.24976
1907.35024	0.24896
1905.42168	0.24762
1903.49312	0.24657
1901.56455	0.24581
1899.63599	0.24524
1897.70742	0.24509
1895.77886	0.24534
1893.85029	0.24526
1891.92173	0.24507
1889.99316	0.24552
1888.06460	0.24527
1886.13604	0.24397
1884.20747	0.24307
1882.27891	0.24259
1880.35034	0.24230
1878.42178	0.24225
1876.49321	0.24229
1874.56465	0.24234
1872.63608	0.24303
1870.70752	0.24532
1868.77896	0.24843
1866.85039	0.24864
1864.92183	0.24607
1862.99326	0.24431
1861.06470	0.24405
1859.13613	0.24439
1857.20757	0.24466
1855.27900	0.24488
1853.35044	0.24523
1851.42187	0.24596
1849.49331	0.24732
1847.56475	0.24945
1845.63618	0.25221
1843.70762	0.25417
1841.77905	0.25334
1839.85049	0.25189
1837.92192	0.25214
1835.99336	0.25305
1834.06479	0.25390
1832.13623	0.25600
1830.20767	0.25978
1828.27910	0.26209
1826.35054	0.26217
1824.42197	0.26243
1822.49341	0.26234
1820.56484	0.26237
1818.63628	0.26349
1816.70771	0.26523
1814.77915	0.26702
1812.85059	0.26961
1810.92202	0.27286
1808.99346	0.27495
1807.06489	0.27594
1805.13633	0.27743
1803.20776	0.28049
1801.27920	0.28464
1799.35063	0.28809
1797.42207	0.29016
1795.49351	0.29274
1793.56494	0.29719
1791.63638	0.30205
1789.70781	0.30359
1787.77925	0.30375
1785.85068	0.30629
1783.92212	0.31051
1781.99355	0.31520
1780.06499	0.31993
1778.13643	0.32397
1776.20786	0.32824
1774.27930	0.33477
1772.35073	0.34364
1770.42217	0.35004
1768.49360	0.35281
1766.56504	0.35555
1764.63647	0.35981
1762.70791	0.36653
1760.77935	0.37498
1758.85078	0.38179
1756.92222	0.38841
1754.99365	0.39549
1753.06509	0.40288
1751.13652	0.41396
1749.20796	0.42741
1747.27939	0.43752
1745.35083	0.44487
1743.42227	0.45341
1741.49370	0.46379
1739.56514	0.47615
1737.63657	0.48834
1735.70801	0.50056
1733.77944	0.52001
1731.85088	0.53953
1729.92231	0.55223
1727.99375	0.56542
1726.06519	0.58113
1724.13662	0.60013
1722.20806	0.62125
1720.27949	0.64192
1718.35093	0.66846
1716.42236	0.70478
1714.49380	0.73336
1712.56523	0.75446
1710.63667	0.77686
1708.70811	0.80336
1706.77954	0.83514
1704.85098	0.87265
1702.92241	0.90512
1700.99385	0.93796
1699.06528	0.98767
1697.13672	1.03230
1695.20815	1.07481
1693.27959	1.11499
1691.35103	1.14940
1689.42246	1.19220
1687.49390	1.23828
1685.56533	1.28366
1683.63677	1.35203
1681.70820	1.41864
1679.77964	1.45929
1677.85107	1.49963
1675.92251	1.54819
1673.99395	1.60915
1672.06538	1.66396
1670.13682	1.71766
1668.20825	1.78452
1666.27969	1.83775
1664.35112	1.88627
1662.42256	1.95011
1660.49399	2.02186
1658.56543	2.07748
1656.63687	2.12385
1654.70830	2.16678
1652.77974	2.22681
1650.85117	2.28081
1648.92261	2.30081
1646.99404	2.32525
1645.06548	2.34703
1643.13691	2.36227
1641.20835	2.37159
1639.27979	2.38011
1637.35122	2.38366
1635.42266	2.37851
1633.49409	2.36674
1631.56553	2.34997
1629.63696	2.33021
1627.70840	2.29975
1625.77983	2.26607
1623.85127	2.22392
1621.92271	2.17114
1619.99414	2.12236
1618.06558	2.07470
1616.13701	2.00852
1614.20845	1.94136
1612.27988	1.89060
1610.35132	1.83874
1608.42275	1.78208
1606.49419	1.72472
1604.56562	1.67235
1602.63706	1.62321
1600.70850	1.57483
1598.77993	1.52953
1596.85137	1.48792
1594.92280	1.44868
1592.99424	1.41071
1591.06567	1.37561
1589.13711	1.34279
1587.20854	1.31265
1585.27998	1.28555
1583.35142	1.26083
1581.42285	1.23869
1579.49429	1.22098
1577.56572	1.20696
1575.63716	1.18895
1573.70859	1.17039
1571.78003	1.15914
1569.85146	1.15047
1567.92290	1.14007
1565.99434	1.13181
1564.06577	1.12754
1562.13721	1.12637
1560.20864	1.13071
1558.28008	1.14152
1556.35151	1.14374
1554.42295	1.14199
1552.49438	1.14272
1550.56582	1.14341
1548.63726	1.14108
1546.70869	1.13629
1544.78013	1.13089
1542.85156	1.12414
1540.92300	1.11026
1538.99443	1.07744
1537.06587	1.04792
1535.13730	1.03015
1533.20874	1.00979
1531.28018	0.98655
1529.35161	0.96948
1527.42305	0.95567
1525.49448	0.94229
1523.56592	0.93150
1521.63735	0.92150
1519.70879	0.90868
1517.78022	0.89645
1515.85166	0.88196
1513.92310	0.86610
1511.99453	0.85386
1510.06597	0.84590
1508.13740	0.84083
1506.20884	0.82616
1504.28027	0.80543
1502.35171	0.79365
1500.42314	0.78662
1498.49458	0.78110
1496.56602	0.77333
1494.63745	0.76314
1492.70889	0.75618
1490.78032	0.75314
1488.85176	0.74889
1486.92319	0.74054
1484.99463	0.73250
1483.06606	0.72738
1481.13750	0.72444
1479.20894	0.72257
1477.28037	0.72239
1475.35181	0.72445
1473.42324	0.72713
1471.49468	0.72546
1469.56611	0.71965
1467.63755	0.71563
1465.70898	0.71473
1463.78042	0.71438
1461.85186	0.71374
1459.92329	0.71574
1457.99473	0.72087
1456.06616	0.72165
1454.13760	0.71541
1452.20903	0.71025
1450.28047	0.70719
1448.35190	0.70500
1446.42334	0.70169
1444.49478	0.69757
1442.56621	0.69428
1440.63765	0.69197
1438.70908	0.69077
1436.78052	0.68964
1434.85195	0.68596
1432.92339	0.68159
1430.99482	0.67899
1429.06626	0.67747
1427.13770	0.67654
1425.20913	0.67732
1423.28057	0.67928
1421.35200	0.68107
1419.42344	0.68321
1417.49487	0.68330
1415.56631	0.68005
1413.63774	0.67750
1411.70918	0.67702
1409.78062	0.67780
1407.85205	0.67944
1405.92349	0.68218
1403.99492	0.68444
1402.06636	0.68480
1400.13779	0.68482
1398.20923	0.68472
1396.28066	0.68300
1394.35210	0.67854
1392.42354	0.67196
1390.49497	0.66622
1388.56641	0.66208
1386.63784	0.65730
1384.70928	0.65097
1382.78071	0.64506
1380.85215	0.64031
1378.92358	0.63658
1376.99502	0.63433
1375.06646	0.63359
1373.13789	0.63240
1371.20933	0.63034
1369.28076	0.62896
1367.35220	0.62782
1365.42363	0.62667
1363.49507	0.62618
1361.56650	0.62484
1359.63794	0.62181
1357.70937	0.61921
1355.78081	0.61775
1353.85225	0.61663
1351.92368	0.61563
1349.99512	0.61494
1348.06655	0.61412
1346.13799	0.61291
1344.20942	0.61192
1342.28086	0.61192
1340.35229	0.61276
1338.42373	0.61260
1336.49517	0.61075
1334.56660	0.60903
1332.63804	0.60832
1330.70947	0.60832
1328.78091	0.60877
1326.85234	0.60942
1324.92378	0.61014
1322.99521	0.61112
1321.06665	0.61248
1319.13809	0.61380
1317.20952	0.61439
1315.28096	0.61433
1313.35239	0.61389
1311.42383	0.61295
1309.49526	0.61179
1307.56670	0.61079
1305.63813	0.60991
1303.70957	0.60925
1301.78101	0.60860
1299.85244	0.60756
1297.92388	0.60622
1295.99531	0.60481
1294.06675	0.60340
1292.13818	0.60214
1290.20962	0.60108
1288.28105	0.59977
1286.35249	0.59800
1284.42393	0.59623
1282.49536	0.59476
1280.56680	0.59333
1278.63823	0.59182
1276.70967	0.59036
1274.78110	0.58916
1272.85254	0.58833
1270.92397	0.58754
1268.99541	0.58654
1267.06685	0.58557
1265.13828	0.58478
1263.20972	0.58418
1261.28115	0.58364
1259.35259	0.58294
1257.42402	0.58205
1255.49546	0.58134
1253.56689	0.58112
1251.63833	0.58132
1249.70977	0.58157
1247.78120	0.58160
1245.85264	0.58137
1243.92407	0.58082
1241.99551	0.57994
1240.06694	0.57869
1238.13838	0.57690
1236.20981	0.57457
1234.28125	0.57195
1232.35269	0.56928
1230.42412	0.56677
1228.49556	0.56466
1226.56699	0.56267
1224.63843	0.56048
1222.70986	0.55829
1220.78130	0.55638
1218.85273	0.55484
1216.92417	0.55350
1214.99561	0.55221
1213.06704	0.55119
1211.13848	0.55052
1209.20991	0.54990
1207.28135	0.54914
1205.35278	0.54829
1203.42422	0.54732
1201.49565	0.54625
1199.56709	0.54522
1197.63853	0.54427
1195.70996	0.54347
1193.78140	0.54281
1191.85283	0.54213
1189.92427	0.54153
1187.99570	0.54113
1186.06714	0.54083
1184.13857	0.54074
1182.21001	0.54117
1180.28145	0.54220
1178.35288	0.54362
1176.42432	0.54524
1174.49575	0.54685
1172.56719	0.54811
1170.63862	0.54864
1168.71006	0.54866
1166.78149	0.54868
1164.85293	0.54885
1162.92437	0.54898
1160.99580	0.54893
1159.06724	0.54873
1157.13867	0.54832
1155.21011	0.54755
1153.28154	0.54625
1151.35298	0.54437
1149.42441	0.54209
1147.49585	0.53950
1145.56729	0.53660
1143.63872	0.53370
1141.71016	0.53119
1139.78159	0.52934
1137.85303	0.52805
1135.92446	0.52715
1133.99590	0.52676
1132.06733	0.52678
1130.13877	0.52669
1128.21021	0.52621
1126.28164	0.52567
1124.35308	0.52524
1122.42451	0.52480
1120.49595	0.52466
1118.56738	0.52507
1116.63882	0.52572
1114.71025	0.52639
1112.78169	0.52690
1110.85312	0.52744
1108.92456	0.52844
1106.99600	0.52973
1105.06743	0.53089
1103.13887	0.53199
1101.21030	0.53315
1099.28174	0.53453
1097.35317	0.53636
1095.42461	0.53876
1093.49604	0.54213
1091.56748	0.54695
1089.63892	0.55307
1087.71035	0.56021
1085.78179	0.56823
1083.85322	0.57647
1081.92466	0.58377
1079.99609	0.58906
1078.06753	0.59164
1076.13896	0.59129
1074.21040	0.58824
1072.28184	0.58320
1070.35327	0.57692
1068.42471	0.57009
1066.49614	0.56331
1064.56758	0.55685
1062.63901	0.55089
1060.71045	0.54573
1058.78188	0.54139
1056.85332	0.53775
1054.92476	0.53465
1052.99619	0.53174
1051.06763	0.52895
1049.13906	0.52667
1047.21050	0.52514
1045.28193	0.52423
1043.35337	0.52362
1041.42480	0.52308
1039.49624	0.52260
1037.56768	0.52229
1035.63911	0.52213
1033.71055	0.52181
1031.78198	0.52087
1029.85342	0.51935
1027.92485	0.51786
1025.99629	0.51673
1024.06772	0.51575
1022.13916	0.51483
1020.21060	0.51433
1018.28203	0.51420
1016.35347	0.51395
1014.42490	0.51371
1012.49634	0.51380
1010.56777	0.51394
1008.63921	0.51393
1006.71064	0.51417
1004.78208	0.51524
1002.85352	0.51723
1000.92495	0.51990
998.99639	0.52323
997.06782	0.52739
995.13926	0.53199
993.21069	0.53618
991.28213	0.53933
989.35356	0.54142
987.42500	0.54256
985.49644	0.54275
983.56787	0.54250
981.63931	0.54262
979.71074	0.54319
977.78218	0.54414
975.85361	0.54593
973.92505	0.54858
971.99648	0.55160
970.06792	0.55490
968.13936	0.55850
966.21079	0.56245
964.28223	0.56681
962.35366	0.57149
960.42510	0.57648
958.49653	0.58192
956.56797	0.58766
954.63940	0.59354
952.71084	0.59976
950.78228	0.60654
948.85371	0.61351
946.92515	0.61997
944.99658	0.62570
943.06802	0.63104
941.13945	0.63669
939.21089	0.64321
937.28232	0.65015
935.35376	0.65651
933.42520	0.66213
931.49663	0.66741
929.56807	0.67278
927.63950	0.67854
925.71094	0.68459
923.78237	0.69087
921.85381	0.69754
919.92524	0.70449
917.99668	0.71170
916.06812	0.71940
914.13955	0.72738
912.21099	0.73520
910.28242	0.74310
908.35386	0.75161
906.42529	0.76059
904.49673	0.76947
902.56816	0.77841
900.63960	0.78781
898.71104	0.79765
896.78247	0.80781
894.85391	0.81759
892.92534	0.82709
890.99678	0.83795
889.06821	0.84999
887.13965	0.86149
885.21108	0.87225
883.28252	0.88228
881.35396	0.89214
879.42539	0.90370
877.49683	0.91616
875.56826	0.92779
873.63970	0.93856
871.71113	0.94908
869.78257	0.96095
867.85400	0.97445
865.92544	0.98874
863.99687	1.00219
862.06831	1.01260
860.13975	1.02209
858.21118	1.03273
856.28262	1.04275
854.35405	1.05381
852.42549	1.06803
850.49692	1.08236
848.56836	1.09410
846.63979	1.10475
844.71123	1.11687
842.78267	1.13001
840.85410	1.14084
838.92554	1.14814
836.99697	1.15540
835.06841	1.16595
833.13984	1.17841
831.21128	1.18791
829.28271	1.19671
827.35415	1.21230
825.42559	1.23003
823.49702	1.24011
821.56846	1.24249
819.63989	1.24485
817.71133	1.25168
815.78276	1.26284
813.85420	1.27490
811.92563	1.28162
809.99707	1.28333
808.06851	1.28427
806.13994	1.28794
804.21138	1.29673
802.28281	1.31082
800.35425	1.32157
798.42568	1.33208
796.49712	1.36373
794.56855	1.40671
792.63999	1.42131
790.71143	1.41071
788.78286	1.40572
786.85430	1.39057
784.92573	1.36466
782.99717	1.34024
781.06860	1.31281
779.14004	1.32325
777.21147	1.38812
775.28291	1.43467
773.35435	1.39847
771.42578	1.31166
769.49722	1.23466
767.56865	1.22436
765.64009	1.25448
763.71152	1.25401
761.78296	1.23708
759.85439	1.18134
757.92583	1.09886
755.99727	1.08623
754.06870	1.14741
752.14014	1.17401
750.21157	1.14520
748.28301	1.12937
746.35444	1.12180
744.42588	1.06123
742.49731	0.95607
740.56875	0.91148
738.64019	0.89554
736.71162	0.79513
734.78306	0.70521
732.85449	0.68996
730.92593	0.68371
728.99736	0.64932
727.06880	0.62655
725.14023	0.63244
723.21167	0.65673
721.28311	0.71353
719.35454	0.62517
717.42598	0.35748
715.49741	0.15720
713.56885	0.07893
711.64028	0.02781
709.71172	-0.04821
707.78315	-0.02972
705.85459	0.04416
703.92603	0.06212
701.99746	0.08316
700.06890	0.09852
698.14033	0.04871
696.21177	0.07897
694.28320	0.17174
692.35464	0.21931
690.42607	0.17423
688.49751	0.07253
686.56895	0.00187
684.64038	0.01983
682.71182	0.08953
680.78325	0.10872
678.85469	0.10197
676.92612	0.14016
674.99756	0.13732
673.06899	0.08297
671.14043	0.13134
669.21187	0.22957
667.28330	0.22113
665.35474	0.10564
663.42617	0.00769
661.49761	0.06848
659.56904	0.15826
657.64048	0.11692
655.71191	0.05501
653.78335	0.06028
651.85479	0.10197
649.92622	0.13007
647.99766	0.19732
646.06909	0.20810
644.14053	0.13468
642.21196	0.09461
640.28340	0.09946
638.35483	0.10894
636.42627	0.14314
634.49771	0.20434
632.56914	0.18011
630.64058	0.05240
628.71201	-0.00233
626.78345	0.03710
624.85488	0.06630
622.92632	0.05487
620.99775	0.08984
619.06919	0.18031
617.14062	0.13939
615.21206	0.05158
613.28350	0.03343
611.35493	0.07988
609.42637	0.16916
607.49780	0.20158
605.56924	0.16350
603.64067	0.16637
601.71211	0.21138
599.78354	0.24064
597.85498	0.21099
595.92642	0.20279
593.99785	0.24395
592.06929	0.29994
590.14072	0.34150
588.21216	0.30462
586.28359	0.16165
584.35503	0.02226
582.42646	-0.00446
580.49790	0.03120
578.56934	0.04423
576.64077	0.07694
574.71221	0.12595
572.78364	0.13261
570.85508	0.12132
568.92651	0.12800
566.99795	0.13488
565.06938	0.08476
563.14082	-0.00026
561.21226	-0.00117
559.28369	0.10819
557.35513	0.23345
555.42656	0.16746
553.49800	0.05286
551.56943	0.01095
549.64087	-0.00377
547.71230	-0.01752
545.78374	-0.00232
543.85518	0.02082
541.92661	0.04034
539.99805	0.09663
538.06948	0.15508
536.14092	0.19326
534.21235	0.22292
532.28379	0.22682
530.35522	0.23508
528.42666	0.25410
526.49810	0.24968
524.56953	0.20267
522.64097	0.14701
520.71240	0.11473
518.78384	0.12926
516.85527	0.14433
514.92671	0.11802
512.99814	0.12896
511.06958	0.19585
509.14102	0.21912
507.21245	0.18696
505.28389	0.16382
503.35532	0.15782
501.42676	0.15230
499.49819	0.14290
