3997.91411	0.11468
3995.98555	0.11515
3994.05698	0.11622
3992.12842	0.11726
3990.19985	0.11789
3988.27129	0.11796
3986.34272	0.11767
3984.41416	0.11754
3982.48560	0.11775
3980.55703	0.11819
3978.62847	0.11852
3976.69990	0.11871
3974.77134	0.11917
3972.84277	0.11962
3970.91421	0.11965
3968.98564	0.11960
3967.05708	0.11964
3965.12852	0.11953
3963.19995	0.11964
3961.27139	0.12022
3959.34282	0.12059
3957.41426	0.12054
3955.48569	0.12044
3953.55713	0.12033
3951.62856	0.12063
3949.70000	0.12190
3947.77144	0.12306
3945.84287	0.12278
3943.91431	0.12242
3941.98574	0.12285
3940.05718	0.12233
3938.12861	0.12099
3936.20005	0.12048
3934.27148	0.12099
3932.34292	0.12218
3930.41436	0.12323
3928.48579	0.12298
3926.55723	0.12221
3924.62866	0.12246
3922.70010	0.12285
3920.77153	0.12241
3918.84297	0.12243
3916.91440	0.12293
3914.98584	0.12223
3913.05728	0.12051
3911.12871	0.11922
3909.20015	0.11879
3907.27158	0.11962
3905.34302	0.12278
3903.41445	0.12746
3901.48589	0.12996
3899.55732	0.12935
3897.62876	0.12655
3895.70020	0.12307
3893.77163	0.12193
3891.84307	0.12381
3889.91450	0.12492
3887.98594	0.12336
3886.05737	0.12321
3884.12881	0.12508
3882.20024	0.12586
3880.27168	0.12575
3878.34312	0.12467
3876.41455	0.12328
3874.48599	0.12428
3872.55742	0.12723
3870.62886	0.12996
3868.70029	0.13101
3866.77173	0.12955
3864.84316	0.12905
3862.91460	0.13003
3860.98604	0.12904
3859.05747	0.12745
3857.12891	0.12800
3855.20034	0.13114
3853.27178	0.13726
3851.34321	0.14010
3849.41465	0.13458
3847.48608	0.12896
3845.55752	0.12682
3843.62896	0.12833
3841.70039	0.13250
3839.77183	0.13779
3837.84326	0.14198
3835.91470	0.14185
3833.98613	0.13881
3832.05757	0.13635
3830.12900	0.13498
3828.20044	0.13471
3826.27187	0.13566
3824.34331	0.13709
3822.41475	0.14004
3820.48618	0.14550
3818.55762	0.14776
3816.62905	0.14644
3814.70049	0.14502
3812.77192	0.14225
3810.84336	0.13980
3808.91479	0.14002
3806.98623	0.14300
3805.05767	0.14622
3803.12910	0.14882
3801.20054	0.15293
3799.27197	0.15506
3797.34341	0.15380
3795.41484	0.15237
3793.48628	0.15041
3791.55771	0.14913
3789.62915	0.14988
3787.70059	0.15186
3785.77202	0.15448
3783.84346	0.15687
3781.91489	0.15816
3779.98633	0.16022
3778.05776	0.16298
3776.12920	0.16328
3774.20063	0.16271
3772.27207	0.16440
3770.34351	0.16860
3768.41494	0.17269
3766.48638	0.17461
3764.55781	0.17596
3762.62925	0.17710
3760.70068	0.17899
3758.77212	0.18310
3756.84355	0.18717
3754.91499	0.18966
3752.98643	0.19368
3751.05786	0.20160
3749.12930	0.20888
3747.20073	0.20986
3745.27217	0.21039
3743.34360	0.21407
3741.41504	0.21689
3739.48647	0.21836
3737.55791	0.22281
3735.62935	0.23239
3733.70078	0.24157
3731.77222	0.24296
3729.84365	0.24169
3727.91509	0.24321
3725.98652	0.24888
3724.05796	0.25684
3722.12939	0.26376
3720.20083	0.26926
3718.27227	0.27420
3716.34370	0.27973
3714.41514	0.28718
3712.48657	0.29888
3710.55801	0.31578
3708.62944	0.33028
3706.70088	0.33901
3704.77231	0.34761
3702.84375	0.35990
3700.91519	0.37732
3698.98662	0.39553
3697.05806	0.41186
3695.12949	0.42997
3693.20093	0.45096
3691.27236	0.47550
3689.34380	0.50688
3687.41523	0.54110
3685.48667	0.56763
3683.55811	0.59092
3681.62954	0.61850
3679.70098	0.65179
3677.77241	0.68798
3675.84385	0.73107
3673.91528	0.78635
3671.98672	0.82852
3670.05815	0.86650
3668.12959	0.91897
3666.20103	0.96423
3664.27246	1.00138
3662.34390	1.04313
3660.41533	1.09006
3658.48677	1.13719
3656.55820	1.18791
3654.62964	1.24433
3652.70107	1.29139
3650.77251	1.33411
3648.84395	1.39575
3646.91538	1.46645
3644.98682	1.51173
3643.05825	1.54590
3641.12969	1.58325
3639.20112	1.62601
3637.27256	1.67022
3635.34399	1.71438
3633.41543	1.75925
3631.48687	1.80179
3629.55830	1.84552
3627.62974	1.90126
3625.70117	1.94993
3623.77261	1.98146
3621.84404	2.01335
3619.91548	2.05258
3617.98691	2.09998
3616.05835	2.14344
3614.12979	2.18033
3612.20122	2.22066
3610.27266	2.26058
3608.34409	2.30002
3606.41553	2.34120
3604.48696	2.37891
3602.55840	2.41395
3600.62983	2.45288
3598.70127	2.49446
3596.77271	2.53454
3594.84414	2.57521
3592.91558	2.61592
3590.98701	2.65237
3589.05845	2.68801
3587.12988	2.73491
3585.20132	2.78597
3583.27275	2.82609
3581.34419	2.86166
3579.41562	2.90025
3577.48706	2.94372
3575.55850	2.98888
3573.62993	3.03276
3571.70137	3.07422
3569.77280	3.11460
3567.84424	3.15822
3565.91567	3.21061
3563.98711	3.26091
3562.05854	3.30298
3560.12998	3.34450
3558.20142	3.38742
3556.27285	3.43121
3554.34429	3.47561
3552.41572	3.52287
3550.48716	3.57066
3548.55859	3.61698
3546.63003	3.66395
3544.70146	3.71288
3542.77290	3.76200
3540.84434	3.80868
3538.91577	3.85345
3536.98721	3.89703
3535.05864	3.94161
3533.13008	3.98861
3531.20151	4.03871
3529.27295	4.09073
3527.34438	4.14350
3525.41582	4.19390
3523.48726	4.24068
3521.55869	4.28875
3519.63013	4.33729
3517.70156	4.38377
3515.77300	4.42925
3513.84443	4.47506
3511.91587	4.52248
3509.98730	4.57560
3508.05874	4.63029
3506.13018	4.67683
3504.20161	4.71796
3502.27305	4.75954
3500.34448	4.80408
3498.41592	4.85130
3496.48735	4.90143
3494.55879	4.95428
3492.63022	5.00277
3490.70166	5.04867
3488.77310	5.10168
3486.84453	5.15503
3484.91597	5.19807
3482.98740	5.23988
3481.05884	5.29515
3479.13027	5.35919
3477.20171	5.42007
3475.27314	5.47591
3473.34458	5.52606
3471.41602	5.57201
3469.48745	5.61637
3467.55889	5.65505
3465.63032	5.69059
3463.70176	5.74110
3461.77319	5.80189
3459.84463	5.85355
3457.91606	5.90734
3455.98750	5.96987
3454.05894	6.01732
3452.13037	6.05484
3450.20181	6.10393
3448.27324	6.15050
3446.34468	6.18407
3444.41611	6.22803
3442.48755	6.30086
3440.55898	6.37320
3438.63042	6.42664
3436.70186	6.46660
3434.77329	6.48921
3432.84473	6.52036
3430.91616	6.57920
3428.98760	6.63278
3427.05903	6.67020
3425.13047	6.73530
3423.20190	6.80718
3421.27334	6.85884
3419.34478	6.91389
3417.41621	6.95589
3415.48765	6.98570
3413.55908	7.03801
3411.63052	7.09812
3409.70195	7.12330
3407.77339	7.12009
3405.84482	7.12698
3403.91626	7.19875
3401.98770	7.29639
3400.05913	7.34200
3398.13057	7.36877
3396.20200	7.40582
3394.27344	7.43274
3392.34487	7.44535
3390.41631	7.50127
3388.48774	7.58520
3386.55918	7.62834
3384.63062	7.61946
3382.70205	7.61843
3380.77349	7.68075
3378.84492	7.73143
3376.91636	7.73614
3374.98779	7.79060
3373.05923	7.90445
3371.13066	7.94861
3369.20210	7.90789
3367.27354	7.86000
3365.34497	7.82660
3363.41641	7.80469
3361.48784	7.81061
3359.55928	7.87322
3357.63071	7.98384
3355.70215	8.09941
3353.77358	8.11895
3351.84502	8.09788
3349.91646	8.19198
3347.98789	8.31158
3346.05933	8.25621
3344.13076	8.18488
3342.20220	8.21932
3340.27363	8.20580
3338.34507	8.13982
3336.41650	8.09035
3334.48794	8.08254
3332.55937	8.12575
3330.63081	8.19885
3328.70225	8.26276
3326.77368	8.29779
3324.84512	8.26752
3322.91655	8.19161
3320.98799	8.18396
3319.05942	8.17091
3317.13086	8.09052
3315.20229	8.01457
3313.27373	8.00449
3311.34517	8.06296
3309.41660	8.11412
3307.48804	8.07712
3305.55947	7.96913
3303.63091	7.92463
3301.70234	7.99701
3299.77378	8.14049
3297.84521	8.24025
3295.91665	8.23395
3293.98809	8.21584
3292.05952	8.24785
3290.13096	8.29804
3288.20239	8.29038
3286.27383	8.16711
3284.34526	8.03176
3282.41670	8.08420
3280.48813	8.30898
3278.55957	8.46509
3276.63101	8.47941
3274.70244	8.47838
3272.77388	8.41327
3270.84531	8.26364
3268.91675	8.19740
3266.98818	8.26037
3265.05962	8.33569
3263.13105	8.35548
3261.20249	8.34678
3259.27393	8.28925
3257.34536	8.25417
3255.41680	8.26343
3253.48823	8.22862
3251.55967	8.20455
3249.63110	8.27759
3247.70254	8.42333
3245.77397	8.49572
3243.84541	8.42044
3241.91685	8.30942
3239.98828	8.23595
3238.05972	8.19490
3236.13115	8.16260
3234.20259	8.11719
3232.27402	8.14076
3230.34546	8.23882
3228.41689	8.23338
3226.48833	8.13163
3224.55977	8.00816
3222.63120	7.88779
3220.70264	7.86535
3218.77407	7.93403
3216.84551	7.95768
3214.91694	7.94423
3212.98838	8.00129
3211.05981	8.06269
3209.13125	8.04337
3207.20269	7.97825
3205.27412	7.91495
3203.34556	7.87143
3201.41699	7.82608
3199.48843	7.77232
3197.55986	7.75477
3195.63130	7.77739
3193.70273	7.76499
3191.77417	7.71871
3189.84561	7.67624
3187.91704	7.60967
3185.98848	7.52107
3184.05991	7.44340
3182.13135	7.39571
3180.20278	7.36260
3178.27422	7.32515
3176.34565	7.28211
3174.41709	7.22610
3172.48853	7.17569
3170.55996	7.14175
3168.63140	7.11143
3166.70283	7.06269
3164.77427	6.97190
3162.84570	6.87675
3160.91714	6.83700
3158.98857	6.83003
3157.06001	6.77832
3155.13145	6.68631
3153.20288	6.61565
3151.27432	6.56417
3149.34575	6.48750
3147.41719	6.39781
3145.48862	6.33764
3143.56006	6.30295
3141.63149	6.26455
3139.70293	6.19777
3137.77437	6.10592
3135.84580	6.01557
3133.91724	5.93905
3131.98867	5.87340
3130.06011	5.81196
3128.13154	5.74645
3126.20298	5.66832
3124.27441	5.58012
3122.34585	5.49506
3120.41729	5.41938
3118.48872	5.35278
3116.56016	5.29408
3114.63159	5.23185
3112.70303	5.15582
3110.77446	5.07556
3108.84590	5.00666
3106.91733	4.94646
3104.98877	4.88264
3103.06021	4.81563
3101.13164	4.74678
3099.20308	4.67490
3097.27451	4.60414
3095.34595	4.53743
3093.41738	4.47393
3091.48882	4.40956
3089.56025	4.34232
3087.63169	4.27612
3085.70312	4.21327
3083.77456	4.15102
3081.84600	4.08731
3079.91743	4.02189
3077.98887	3.95647
3076.06030	3.89281
3074.13174	3.83079
3072.20317	3.77105
3070.27461	3.71470
3068.34604	3.66114
3066.41748	3.60587
3064.48892	3.54659
3062.56035	3.48703
3060.63179	3.43006
3058.70322	3.37515
3056.77466	3.32043
3054.84609	3.26539
3052.91753	3.21248
3050.98896	3.16214
3049.06040	3.11102
3047.13184	3.05860
3045.20327	3.00745
3043.27471	2.95811
3041.34614	2.90873
3039.41758	2.85888
3037.48901	2.81051
3035.56045	2.76382
3033.63188	2.71746
3031.70332	2.67178
3029.77476	2.62733
3027.84619	2.58388
3025.91763	2.54071
3023.98906	2.49673
3022.06050	2.45246
3020.13193	2.40941
3018.20337	2.36775
3016.27480	2.32708
3014.34624	2.28755
3012.41768	2.24860
3010.48911	2.20970
3008.56055	2.17177
3006.63198	2.13484
3004.70342	2.09830
3002.77485	2.06247
3000.84629	2.02749
2998.91772	1.99301
2996.98916	1.95869
2995.06060	1.92455
2993.13203	1.89110
2991.20347	1.85869
2989.27490	1.82721
2987.34634	1.79653
2985.41777	1.76645
2983.48921	1.73653
2981.56064	1.70683
2979.63208	1.67775
2977.70352	1.64923
2975.77495	1.62096
2973.84639	1.59298
2971.91782	1.56530
2969.98926	1.53790
2968.06069	1.51082
2966.13213	1.48451
2964.20356	1.45920
2962.27500	1.43416
2960.34644	1.40896
2958.41787	1.38381
2956.48931	1.35888
2954.56074	1.33448
2952.63218	1.31047
2950.70361	1.28688
2948.77505	1.26427
2946.84648	1.24225
2944.91792	1.22014
2942.98936	1.19816
2941.06079	1.17644
2939.13223	1.15478
2937.20366	1.13358
2935.27510	1.11324
2933.34653	1.09274
2931.41797	1.07141
2929.48940	1.05004
2927.56084	1.02905
2925.63228	1.00924
2923.70371	0.99176
2921.77515	0.97545
2919.84658	0.95854
2917.91802	0.94149
2915.98945	0.92582
2914.06089	0.91148
2912.13232	0.89739
2910.20376	0.88315
2908.27520	0.86897
2906.34663	0.85504
2904.41807	0.84116
2902.48950	0.82717
2900.56094	0.81355
2898.63237	0.80060
2896.70381	0.78798
2894.77524	0.77562
2892.84668	0.76346
2890.91812	0.75143
2888.98955	0.73985
2887.06099	0.72848
2885.13242	0.71694
2883.20386	0.70558
2881.27529	0.69481
2879.34673	0.68440
2877.41816	0.67414
2875.48960	0.66392
2873.56104	0.65343
2871.63247	0.64261
2869.70391	0.63166
2867.77534	0.62065
2865.84678	0.60966
2863.91821	0.59870
2861.98965	0.58762
2860.06108	0.57651
2858.13252	0.56564
2856.20396	0.55523
2854.27539	0.54569
2852.34683	0.53724
2850.41826	0.52965
2848.48970	0.52232
2846.56113	0.51528
2844.63257	0.50888
2842.70400	0.50292
2840.77544	0.49715
2838.84687	0.49139
2836.91831	0.48544
2834.98975	0.47932
2833.06118	0.47339
2831.13262	0.46774
2829.20405	0.46189
2827.27549	0.45564
2825.34692	0.44938
2823.41836	0.44343
2821.48979	0.43770
2819.56123	0.43189
2817.63267	0.42608
2815.70410	0.42040
2813.77554	0.41471
2811.84697	0.40908
2809.91841	0.40381
2807.98984	0.39863
2806.06128	0.39324
2804.13271	0.38782
2802.20415	0.38261
2800.27559	0.37759
2798.34702	0.37285
2796.41846	0.36828
2794.48989	0.36359
2792.56133	0.35894
2790.63276	0.35458
2788.70420	0.35035
2786.77563	0.34600
2784.84707	0.34165
2782.91851	0.33748
2780.98994	0.33360
2779.06138	0.32979
2777.13281	0.32569
2775.20425	0.32154
2773.27568	0.31768
2771.34712	0.31407
2769.41855	0.31058
2767.48999	0.30699
2765.56143	0.30341
2763.63286	0.30007
2761.70430	0.29687
2759.77573	0.29363
2757.84717	0.29037
2755.91860	0.28725
2753.99004	0.28426
2752.06147	0.28123
2750.13291	0.27822
2748.20435	0.27526
2746.27578	0.27225
2744.34722	0.26938
2742.41865	0.26673
2740.49009	0.26413
2738.56152	0.26161
2736.63296	0.25922
2734.70439	0.25691
2732.77583	0.25458
2730.84727	0.25221
2728.91870	0.24994
2726.99014	0.24782
2725.06157	0.24570
2723.13301	0.24341
2721.20444	0.24107
2719.27588	0.23884
2717.34731	0.23678
2715.41875	0.23489
2713.49019	0.23304
2711.56162	0.23108
2709.63306	0.22928
2707.70449	0.22781
2705.77593	0.22646
2703.84736	0.22500
2701.91880	0.22338
2699.99023	0.22175
2698.06167	0.22018
2696.13311	0.21867
2694.20454	0.21724
2692.27598	0.21588
2690.34741	0.21450
2688.41885	0.21312
2686.49028	0.21183
2684.56172	0.21065
2682.63315	0.20952
2680.70459	0.20834
2678.77603	0.20722
2676.84746	0.20623
2674.91890	0.20522
2672.99033	0.20406
2671.06177	0.20293
2669.13320	0.20194
2667.20464	0.20096
2665.27607	0.20001
2663.34751	0.19916
2661.41895	0.19825
2659.49038	0.19737
2657.56182	0.19667
2655.63325	0.19602
2653.70469	0.19535
2651.77612	0.19466
2649.84756	0.19396
2647.91899	0.19333
2645.99043	0.19272
2644.06187	0.19208
2642.13330	0.19149
2640.20474	0.19099
2638.27617	0.19065
2636.34761	0.19041
2634.41904	0.19002
2632.49048	0.18953
2630.56191	0.18911
2628.63335	0.18872
2626.70479	0.18835
2624.77622	0.18802
2622.84766	0.18763
2620.91909	0.18721
2618.99053	0.18689
2617.06196	0.18666
2615.13340	0.18663
2613.20483	0.18675
2611.27627	0.18673
2609.34771	0.18659
2607.41914	0.18647
2605.49058	0.18630
2603.56201	0.18618
2601.63345	0.18620
2599.70488	0.18627
2597.77632	0.18641
2595.84775	0.18657
2593.91919	0.18649
2591.99062	0.18636
2590.06206	0.18653
2588.13350	0.18683
2586.20493	0.18700
2584.27637	0.18708
2582.34780	0.18723
2580.41924	0.18752
2578.49067	0.18789
2576.56211	0.18818
2574.63354	0.18848
2572.70498	0.18894
2570.77642	0.18943
2568.84785	0.18991
2566.91929	0.19041
2564.99072	0.19081
2563.06216	0.19116
2561.13359	0.19157
2559.20503	0.19206
2557.27646	0.19253
2555.34790	0.19287
2553.41934	0.19328
2551.49077	0.19391
2549.56221	0.19461
2547.63364	0.19518
2545.70508	0.19576
2543.77651	0.19641
2541.84795	0.19696
2539.91938	0.19738
2537.99082	0.19789
2536.06226	0.19860
2534.13369	0.19952
2532.20513	0.20048
2530.27656	0.20120
2528.34800	0.20174
2526.41943	0.20238
2524.49087	0.20312
2522.56230	0.20381
2520.63374	0.20457
2518.70518	0.20545
2516.77661	0.20630
2514.84805	0.20717
2512.91948	0.20812
2510.99092	0.20899
2509.06235	0.20968
2507.13379	0.21038
2505.20522	0.21122
2503.27666	0.21212
2501.34810	0.21298
2499.41953	0.21367
2497.49097	0.21423
2495.56240	0.21495
2493.63384	0.21585
2491.70527	0.21692
2489.77671	0.21812
2487.84814	0.21915
2485.91958	0.21992
2483.99102	0.22069
2482.06245	0.22154
2480.13389	0.22239
2478.20532	0.22331
2476.27676	0.22429
2474.34819	0.22521
2472.41963	0.22609
2470.49106	0.22696
2468.56250	0.22784
2466.63394	0.22878
2464.70537	0.22984
2462.77681	0.23099
2460.84824	0.23206
2458.91968	0.23301
2456.99111	0.23383
2455.06255	0.23462
2453.13398	0.23556
2451.20542	0.23665
2449.27686	0.23780
2447.34829	0.23889
2445.41973	0.23987
2443.49116	0.24084
2441.56260	0.24175
2439.63403	0.24256
2437.70547	0.24352
2435.77690	0.24475
2433.84834	0.24600
2431.91978	0.24704
2429.99121	0.24794
2428.06265	0.24893
2426.13408	0.25005
2424.20552	0.25114
2422.27695	0.25225
2420.34839	0.25343
2418.41982	0.25463
2416.49126	0.25584
2414.56270	0.25700
2412.63413	0.25802
2410.70557	0.25903
2408.77700	0.26019
2406.84844	0.26141
2404.91987	0.26262
2402.99131	0.26386
2401.06274	0.26512
2399.13418	0.26642
2397.20562	0.26777
2395.27705	0.26905
2393.34849	0.27024
2391.41992	0.27155
2389.49136	0.27306
2387.56279	0.27477
2385.63423	0.27697
2383.70566	0.27990
2381.77710	0.28362
2379.84854	0.28809
2377.91997	0.29312
2375.99141	0.29862
2374.06284	0.30490
2372.13428	0.31221
2370.20571	0.32038
2368.27715	0.32856
2366.34858	0.33611
2364.42002	0.34331
2362.49146	0.35017
2360.56289	0.35516
2358.63433	0.35660
2356.70576	0.35433
2354.77720	0.34927
2352.84863	0.34333
2350.92007	0.33741
2348.99150	0.33356
2347.06294	0.33394
2345.13437	0.33923
2343.20581	0.34678
2341.27725	0.35173
2339.34868	0.35347
2337.42012	0.35370
2335.49155	0.35407
2333.56299	0.35511
2331.63442	0.35630
2329.70586	0.35705
2327.77729	0.35716
2325.84873	0.35654
2323.92017	0.35566
2321.99160	0.35475
2320.06304	0.35358
2318.13447	0.35229
2316.20591	0.35132
2314.27734	0.35112
2312.34878	0.35164
2310.42021	0.35231
2308.49165	0.35251
2306.56309	0.35230
2304.63452	0.35217
2302.70596	0.35254
2300.77739	0.35352
2298.84883	0.35484
2296.92026	0.35602
2294.99170	0.35697
2293.06313	0.35799
2291.13457	0.35910
2289.20601	0.36021
2287.27744	0.36137
2285.34888	0.36263
2283.42031	0.36414
2281.49175	0.36606
2279.56318	0.36828
2277.63462	0.37057
2275.70605	0.37277
2273.77749	0.37484
2271.84893	0.37685
2269.92036	0.37892
2267.99180	0.38101
2266.06323	0.38303
2264.13467	0.38510
2262.20610	0.38724
2260.27754	0.38932
2258.34897	0.39126
2256.42041	0.39323
2254.49185	0.39535
2252.56328	0.39759
2250.63472	0.39986
2248.70615	0.40201
2246.77759	0.40399
2244.84902	0.40597
2242.92046	0.40812
2240.99189	0.41042
2239.06333	0.41259
2237.13477	0.41464
2235.20620	0.41687
2233.27764	0.41922
2231.34907	0.42153
2229.42051	0.42387
2227.49194	0.42612
2225.56338	0.42825
2223.63481	0.43038
2221.70625	0.43263
2219.77769	0.43498
2217.84912	0.43723
2215.92056	0.43938
2213.99199	0.44153
2212.06343	0.44364
2210.13486	0.44576
2208.20630	0.44797
2206.27773	0.45009
2204.34917	0.45209
2202.42061	0.45413
2200.49204	0.45627
2198.56348	0.45847
2196.63491	0.46060
2194.70635	0.46259
2192.77778	0.46444
2190.84922	0.46631
2188.92065	0.46826
2186.99209	0.47010
2185.06353	0.47172
2183.13496	0.47334
2181.20640	0.47512
2179.27783	0.47691
2177.34927	0.47853
2175.42070	0.48000
2173.49214	0.48143
2171.56357	0.48289
2169.63501	0.48435
2167.70645	0.48571
2165.77788	0.48695
2163.84932	0.48815
2161.92075	0.48941
2159.99219	0.49070
2158.06362	0.49178
2156.13506	0.49256
2154.20649	0.49324
2152.27793	0.49394
2150.34937	0.49460
2148.42080	0.49532
2146.49224	0.49604
2144.56367	0.49646
2142.63511	0.49666
2140.70654	0.49685
2138.77798	0.49705
2136.84941	0.49716
2134.92085	0.49716
2132.99229	0.49721
2131.06372	0.49729
2129.13516	0.49715
2127.20659	0.49682
2125.27803	0.49650
2123.34946	0.49609
2121.42090	0.49550
2119.49233	0.49481
2117.56377	0.49410
2115.63521	0.49342
2113.70664	0.49273
2111.77808	0.49188
2109.84951	0.49078
2107.92095	0.48949
2105.99238	0.48812
2104.06382	0.48684
2102.13525	0.48555
2100.20669	0.48413
2098.27812	0.48259
2096.34956	0.48101
2094.42100	0.47945
2092.49243	0.47789
2090.56387	0.47622
2088.63530	0.47439
2086.70674	0.47253
2084.77817	0.47057
2082.84961	0.46841
2080.92104	0.46616
2078.99248	0.46400
2077.06392	0.46188
2075.13535	0.45968
2073.20679	0.45740
2071.27822	0.45507
2069.34966	0.45276
2067.42109	0.45050
2065.49253	0.44818
2063.56396	0.44566
2061.63540	0.44301
2059.70684	0.44035
2057.77827	0.43769
2055.84971	0.43504
2053.92114	0.43235
2051.99258	0.42960
2050.06401	0.42691
2048.13545	0.42427
2046.20688	0.42159
2044.27832	0.41890
2042.34976	0.41627
2040.42119	0.41357
2038.49263	0.41063
2036.56406	0.40761
2034.63550	0.40470
2032.70693	0.40181
2030.77837	0.39891
2028.84980	0.39604
2026.92124	0.39316
2024.99268	0.39019
2023.06411	0.38730
2021.13555	0.38456
2019.20698	0.38194
2017.27842	0.37929
2015.34985	0.37630
2013.42129	0.37311
2011.49272	0.37010
2009.56416	0.36728
2007.63560	0.36444
2005.70703	0.36157
2003.77847	0.35878
2001.84990	0.35613
1999.92134	0.35353
1997.99277	0.35084
1996.06421	0.34810
1994.13564	0.34569
1992.20708	0.34360
1990.27852	0.34115
1988.34995	0.33820
1986.42139	0.33523
1984.49282	0.33246
1982.56426	0.32989
1980.63569	0.32749
1978.70713	0.32522
1976.77856	0.32300
1974.85000	0.32075
1972.92144	0.31847
1970.99287	0.31628
1969.06431	0.31442
1967.13574	0.31271
1965.20718	0.31057
1963.27861	0.30808
1961.35005	0.30584
1959.42148	0.30385
1957.49292	0.30202
1955.56436	0.30025
1953.63579	0.29840
1951.70723	0.29650
1949.77866	0.29474
1947.85010	0.29319
1945.92153	0.29190
1943.99297	0.29090
1942.06440	0.28963
1940.13584	0.28757
1938.20728	0.28539
1936.27871	0.28375
1934.35015	0.28244
1932.42158	0.28126
1930.49302	0.28001
1928.56445	0.27874
1926.63589	0.27761
1924.70732	0.27696
1922.77876	0.27651
1920.85020	0.27560
1918.92163	0.27460
1916.99307	0.27350
1915.06450	0.27194
1913.13594	0.27073
1911.20737	0.27032
1909.27881	0.27004
1907.35024	0.26915
1905.42168	0.26791
1903.49312	0.26698
1901.56455	0.26643
1899.63599	0.26594
1897.70742	0.26561
1895.77886	0.26547
1893.85029	0.26520
1891.92173	0.26487
1889.99316	0.26496
1888.06460	0.26474
1886.13604	0.26397
1884.20747	0.26334
1882.27891	0.26286
1880.35034	0.26252
1878.42178	0.26246
1876.49321	0.26247
1874.56465	0.26246
1872.63608	0.26287
1870.70752	0.26407
1868.77896	0.26577
1866.85039	0.26601
1864.92183	0.26470
1862.99326	0.26381
1861.06470	0.26384
1859.13613	0.26423
1857.20757	0.26442
1855.27900	0.26463
1853.35044	0.26501
1851.42187	0.26558
1849.49331	0.26650
1847.56475	0.26791
1845.63618	0.26966
1843.70762	0.27106
1841.77905	0.27110
1839.85049	0.27070
1837.92192	0.27120
1835.99336	0.27202
1834.06479	0.27274
1832.13623	0.27415
1830.20767	0.27668
1828.27910	0.27856
1826.35054	0.27914
1824.42197	0.27989
1822.49341	0.28047
1820.56484	0.28111
1818.63628	0.28244
1816.70771	0.28422
1814.77915	0.28596
1812.85059	0.28808
1810.92202	0.29067
1808.99346	0.29273
1807.06489	0.29413
1805.13633	0.29576
1803.20776	0.29831
1801.27920	0.30157
1799.35063	0.30469
1797.42207	0.30706
1795.49351	0.30956
1793.56494	0.31317
1791.63638	0.31747
1789.70781	0.32014
1787.77925	0.32160
1785.85068	0.32435
1783.92212	0.32827
1781.99355	0.33260
1780.06499	0.33709
1778.13643	0.34132
1776.20786	0.34544
1774.27930	0.35065
1772.35073	0.35788
1770.42217	0.36442
1768.49360	0.36859
1766.56504	0.37259
1764.63647	0.37741
1762.70791	0.38371
1760.77935	0.39166
1758.85078	0.39856
1756.92222	0.40544
1754.99365	0.41296
1753.06509	0.42015
1751.13652	0.42978
1749.20796	0.44187
1747.27939	0.45229
1745.35083	0.46075
1743.42227	0.47009
1741.49370	0.48083
1739.56514	0.49367
1737.63657	0.50648
1735.70801	0.51802
1733.77944	0.53581
1731.85088	0.55579
1729.92231	0.57023
1727.99375	0.58485
1726.06519	0.60114
1724.13662	0.61981
1722.20806	0.64044
1720.27949	0.65999
1718.35093	0.68384
1716.42236	0.71808
1714.49380	0.74805
1712.56523	0.77124
1710.63667	0.79445
1708.70811	0.82032
1706.77954	0.85052
1704.85098	0.88672
1702.92241	0.91852
1700.99385	0.94996
1699.06528	0.99718
1697.13672	1.03972
1695.20815	1.08203
1693.27959	1.12301
1691.35103	1.15642
1689.42246	1.19587
1687.49390	1.23752
1685.56533	1.27733
1683.63677	1.33882
1681.70820	1.40249
1679.77964	1.44223
1677.85107	1.48005
1675.92251	1.52417
1673.99395	1.57986
1672.06538	1.63012
1670.13682	1.67906
1668.20825	1.74052
1666.27969	1.78851
1664.35112	1.82999
1662.42256	1.88357
1660.49399	1.94457
1658.56543	1.99166
1656.63687	2.03044
1654.70830	2.06789
1652.77974	2.12645
1650.85117	2.17838
1648.92261	2.19497
1646.99404	2.22045
1645.06548	2.24964
1643.13691	2.26742
1641.20835	2.27694
1639.27979	2.28739
1637.35122	2.29621
1635.42266	2.30139
1633.49409	2.29757
1631.56553	2.28362
1629.63696	2.26632
1627.70840	2.23862
1625.77983	2.20724
1623.85127	2.16748
1621.92271	2.11836
1619.99414	2.07539
1618.06558	2.03441
1616.13701	1.97419
1614.20845	1.91038
1612.27988	1.86124
1610.35132	1.81048
1608.42275	1.75609
1606.49419	1.70240
1604.56562	1.65273
1602.63706	1.60520
1600.70850	1.55899
1598.77993	1.51570
1596.85137	1.47465
1594.92280	1.43534
1592.99424	1.39757
1591.06567	1.36263
1589.13711	1.32964
1587.20854	1.29905
1585.27998	1.27095
1583.35142	1.24453
1581.42285	1.22019
1579.49429	1.19986
1577.56572	1.18251
1575.63716	1.16025
1573.70859	1.13851
1571.78003	1.12435
1569.85146	1.11060
1567.92290	1.09453
1565.99434	1.08175
1564.06577	1.07192
1562.13721	1.06441
1560.20864	1.06027
1558.28008	1.05483
1556.35151	1.04615
1554.42295	1.03969
1552.49438	1.03434
1550.56582	1.02855
1548.63726	1.02128
1546.70869	1.01401
1544.78013	1.00705
1542.85156	0.99911
1540.92300	0.98673
1538.99443	0.96341
1537.06587	0.94432
1535.13730	0.93264
1533.20874	0.91891
1531.28018	0.90346
1529.35161	0.89200
1527.42305	0.88226
1525.49448	0.87250
1523.56592	0.86406
1521.63735	0.85577
1519.70879	0.84590
1517.78022	0.83717
1515.85166	0.82781
1513.92310	0.81788
1511.99453	0.80983
1510.06597	0.80397
1508.13740	0.79949
1506.20884	0.78926
1504.28027	0.77667
1502.35171	0.76931
1500.42314	0.76409
1498.49458	0.75936
1496.56602	0.75347
1494.63745	0.74671
1492.70889	0.74177
1490.78032	0.73869
1488.85176	0.73497
1486.92319	0.72937
1484.99463	0.72394
1483.06606	0.71999
1481.13750	0.71705
1479.20894	0.71466
1477.28037	0.71333
1475.35181	0.71324
1473.42324	0.71333
1471.49468	0.71081
1469.56611	0.70635
1467.63755	0.70310
1465.70898	0.70124
1463.78042	0.69933
1461.85186	0.69745
1459.92329	0.69740
1457.99473	0.69942
1456.06616	0.69920
1454.13760	0.69465
1452.20903	0.69036
1450.28047	0.68707
1448.35190	0.68457
1446.42334	0.68201
1444.49478	0.67912
1442.56621	0.67659
1440.63765	0.67467
1438.70908	0.67333
1436.78052	0.67196
1434.85195	0.66941
1432.92339	0.66665
1430.99482	0.66471
1429.06626	0.66313
1427.13770	0.66197
1425.20913	0.66189
1423.28057	0.66229
1421.35200	0.66242
1419.42344	0.66292
1417.49487	0.66263
1415.56631	0.66031
1413.63774	0.65808
1411.70918	0.65685
1409.78062	0.65625
1407.85205	0.65610
1405.92349	0.65647
1403.99492	0.65658
1402.06636	0.65589
1400.13779	0.65526
1398.20923	0.65461
1396.28066	0.65295
1394.35210	0.64981
1392.42354	0.64580
1390.49497	0.64246
1388.56641	0.64002
1386.63784	0.63728
1384.70928	0.63354
1382.78071	0.62973
1380.85215	0.62641
1378.92358	0.62379
1376.99502	0.62206
1375.06646	0.62104
1373.13789	0.61985
1371.20933	0.61835
1369.28076	0.61726
1367.35220	0.61636
1365.42363	0.61538
1363.49507	0.61465
1361.56650	0.61343
1359.63794	0.61130
1357.70937	0.60948
1355.78081	0.60828
1353.85225	0.60726
1351.92368	0.60633
1349.99512	0.60553
1348.06655	0.60477
1346.13799	0.60383
1344.20942	0.60278
1342.28086	0.60214
1340.35229	0.60219
1338.42373	0.60189
1336.49517	0.60063
1334.56660	0.59930
1332.63804	0.59851
1330.70947	0.59814
1328.78091	0.59799
1326.85234	0.59793
1324.92378	0.59785
1322.99521	0.59780
1321.06665	0.59790
1319.13809	0.59802
1317.20952	0.59784
1315.28096	0.59738
1313.35239	0.59681
1311.42383	0.59601
1309.49526	0.59497
1307.56670	0.59397
1305.63813	0.59312
1303.70957	0.59233
1301.78101	0.59159
1299.85244	0.59084
1297.92388	0.58991
1295.99531	0.58874
1294.06675	0.58742
1292.13818	0.58618
1290.20962	0.58524
1288.28105	0.58446
1286.35249	0.58354
1284.42393	0.58248
1282.49536	0.58139
1280.56680	0.58032
1278.63823	0.57929
1276.70967	0.57832
1274.78110	0.57742
1272.85254	0.57671
1270.92397	0.57615
1268.99541	0.57549
1267.06685	0.57471
1265.13828	0.57396
1263.20972	0.57336
1261.28115	0.57284
1259.35259	0.57230
1257.42402	0.57166
1255.49546	0.57106
1253.56689	0.57070
1251.63833	0.57064
1249.70977	0.57068
1247.78120	0.57059
1245.85264	0.57033
1243.92407	0.56992
1241.99551	0.56926
1240.06694	0.56841
1238.13838	0.56734
1236.20981	0.56587
1234.28125	0.56420
1232.35269	0.56257
1230.42412	0.56107
1228.49556	0.55982
1226.56699	0.55875
1224.63843	0.55766
1222.70986	0.55641
1220.78130	0.55512
1218.85273	0.55393
1216.92417	0.55281
1214.99561	0.55183
1213.06704	0.55108
1211.13848	0.55036
1209.20991	0.54955
1207.28135	0.54875
1205.35278	0.54794
1203.42422	0.54697
1201.49565	0.54595
1199.56709	0.54510
1197.63853	0.54439
1195.70996	0.54378
1193.78140	0.54333
1191.85283	0.54287
1189.92427	0.54228
1187.99570	0.54175
1186.06714	0.54133
1184.13857	0.54108
1182.21001	0.54120
1180.28145	0.54175
1178.35288	0.54255
1176.42432	0.54348
1174.49575	0.54430
1172.56719	0.54477
1170.63862	0.54497
1168.71006	0.54512
1166.78149	0.54533
1164.85293	0.54552
1162.92437	0.54556
1160.99580	0.54537
1159.06724	0.54492
1157.13867	0.54412
1155.21011	0.54307
1153.28154	0.54183
1151.35298	0.54028
1149.42441	0.53831
1147.49585	0.53597
1145.56729	0.53346
1143.63872	0.53091
1141.71016	0.52855
1139.78159	0.52657
1137.85303	0.52486
1135.92446	0.52325
1133.99590	0.52171
1132.06733	0.52049
1130.13877	0.51973
1128.21021	0.51913
1126.28164	0.51825
1124.35308	0.51723
1122.42451	0.51645
1120.49595	0.51579
1118.56738	0.51516
1116.63882	0.51475
1114.71025	0.51463
1112.78169	0.51472
1110.85312	0.51486
1108.92456	0.51503
1106.99600	0.51555
1105.06743	0.51658
1103.13887	0.51807
1101.21030	0.51990
1099.28174	0.52197
1097.35317	0.52437
1095.42461	0.52718
1093.49604	0.53062
1091.56748	0.53484
1089.63892	0.53976
1087.71035	0.54545
1085.78179	0.55185
1083.85322	0.55848
1081.92466	0.56479
1079.99609	0.57015
1078.06753	0.57382
1076.13896	0.57508
1074.21040	0.57341
1072.28184	0.56904
1070.35327	0.56299
1068.42471	0.55614
1066.49614	0.54931
1064.56758	0.54304
1062.63901	0.53716
1060.71045	0.53164
1058.78188	0.52696
1056.85332	0.52322
1054.92476	0.52005
1052.99619	0.51717
1051.06763	0.51450
1049.13906	0.51216
1047.21050	0.51035
1045.28193	0.50906
1043.35337	0.50803
1041.42480	0.50698
1039.49624	0.50602
1037.56768	0.50535
1035.63911	0.50496
1033.71055	0.50465
1031.78198	0.50426
1029.85342	0.50378
1027.92485	0.50343
1025.99629	0.50339
1024.06772	0.50353
1022.13916	0.50376
1020.21060	0.50414
1018.28203	0.50474
1016.35347	0.50555
1014.42490	0.50642
1012.49634	0.50728
1010.56777	0.50823
1008.63921	0.50946
1006.71064	0.51108
1004.78208	0.51305
1002.85352	0.51524
1000.92495	0.51767
998.99639	0.52062
997.06782	0.52435
995.13926	0.52872
993.21069	0.53292
991.28213	0.53628
989.35356	0.53868
987.42500	0.54023
985.49644	0.54108
983.56787	0.54161
981.63931	0.54229
979.71074	0.54343
977.78218	0.54507
975.85361	0.54720
973.92505	0.54980
971.99648	0.55298
970.06792	0.55676
968.13936	0.56062
966.21079	0.56437
964.28223	0.56868
962.35366	0.57371
960.42510	0.57893
958.49653	0.58423
956.56797	0.58977
954.63940	0.59570
952.71084	0.60202
950.78228	0.60856
948.85371	0.61497
946.92515	0.62106
944.99658	0.62703
943.06802	0.63310
941.13945	0.63942
939.21089	0.64609
937.28232	0.65280
935.35376	0.65896
933.42520	0.66440
931.49663	0.66969
929.56807	0.67543
927.63950	0.68149
925.71094	0.68736
923.78237	0.69324
921.85381	0.69969
919.92524	0.70670
917.99668	0.71393
916.06812	0.72127
914.13955	0.72866
912.21099	0.73600
910.28242	0.74356
908.35386	0.75154
906.42529	0.75992
904.49673	0.76861
902.56816	0.77759
900.63960	0.78707
898.71104	0.79702
896.78247	0.80739
894.85391	0.81797
892.92534	0.82852
890.99678	0.83861
889.06821	0.84807
887.13965	0.85816
885.21108	0.86972
883.28252	0.88213
881.35396	0.89512
879.42539	0.90837
877.49683	0.92020
875.56826	0.93064
873.63970	0.94127
871.71113	0.95205
869.78257	0.96280
867.85400	0.97363
865.92544	0.98470
863.99687	0.99666
862.06831	1.00879
860.13975	1.02014
858.21118	1.03140
856.28262	1.04226
854.35405	1.05355
852.42549	1.06713
850.49692	1.08145
848.56836	1.09368
846.63979	1.10322
844.71123	1.11245
842.78267	1.12250
840.85410	1.13353
838.92554	1.14772
836.99697	1.16291
835.06841	1.17198
833.13984	1.17608
831.21128	1.18457
829.28271	1.19970
827.35415	1.21715
825.42559	1.22945
823.49702	1.23525
821.56846	1.24750
819.63989	1.26554
817.71133	1.27841
815.78276	1.29099
813.85420	1.30051
811.92563	1.29669
809.99707	1.29062
808.06851	1.29694
806.13994	1.31014
804.21138	1.32480
802.28281	1.35187
800.35425	1.38579
798.42568	1.39734
796.49712	1.36828
794.56855	1.33024
792.63999	1.31968
790.71143	1.32056
788.78286	1.32900
786.85430	1.37123
784.92573	1.42023
782.99717	1.42365
781.06860	1.39755
779.14004	1.36398
777.21147	1.33537
775.28291	1.33526
773.35435	1.36378
771.42578	1.39056
769.49722	1.39647
767.56865	1.40680
765.64009	1.40633
763.71152	1.34619
761.78296	1.26334
759.85439	1.22391
757.92583	1.20697
755.99727	1.19545
754.06870	1.22764
752.14014	1.21230
750.21157	1.13033
748.28301	1.11057
746.35444	1.15118
744.42588	1.17307
742.49731	1.20287
740.56875	1.27903
738.64019	1.17148
736.71162	0.95084
734.78306	0.84385
732.85449	0.83743
730.92593	0.89030
728.99736	1.06505
727.06880	1.23321
725.14023	0.79999
723.21167	0.51561
721.28311	0.37514
719.35454	0.28237
717.42598	0.23955
715.49741	0.26175
713.56885	0.23053
711.64028	0.08082
709.71172	-0.03355
707.78315	0.03014
705.85459	0.13215
703.92603	0.08290
701.99746	0.03680
700.06890	0.06937
698.14033	0.03790
696.21177	-0.04500
694.28320	-0.06939
692.35464	0.03526
690.42607	0.18450
688.49751	0.14161
686.56895	0.03643
684.64038	0.05133
682.71182	0.09586
680.78325	0.17100
678.85469	0.29038
676.92612	0.23699
674.99756	0.10728
673.06899	0.08546
671.14043	0.17337
669.21187	0.26509
667.28330	0.22284
665.35474	0.11124
663.42617	0.12531
661.49761	0.21352
659.56904	0.27597
657.64048	0.35003
655.71191	0.34398
653.78335	0.25795
651.85479	0.19035
649.92622	0.09270
647.99766	0.04872
646.06909	0.12143
644.14053	0.20254
642.21196	0.30974
640.28340	0.64364
638.35483	0.76324
636.42627	0.24736
634.49771	0.04305
632.56914	0.01812
630.64058	0.01420
628.71201	0.01648
626.78345	0.05464
624.85488	0.07789
622.92632	0.11019
620.99775	0.25575
619.06919	0.54409
617.14062	0.47116
615.21206	0.30166
613.28350	0.22876
611.35493	0.11743
609.42637	0.02952
607.49780	0.03443
605.56924	-0.00386
603.64067	-0.13149
601.71211	-0.11692
599.78354	0.04968
597.85498	0.24728
595.92642	0.26796
593.99785	0.22793
592.06929	0.22090
590.14072	0.17174
588.21216	0.11369
586.28359	0.12781
584.35503	0.13642
582.42646	0.09208
580.49790	0.07796
578.56934	0.17415
576.64077	0.29672
574.71221	0.27443
572.78364	0.21511
570.85508	0.17409
568.92651	0.17981
566.99795	0.32924
565.06938	0.51333
563.14082	0.33324
561.21226	0.28936
559.28369	0.44410
557.35513	0.35076
555.42656	0.17355
553.49800	0.14525
551.56943	0.10238
549.64087	0.01458
547.71230	-0.01185
545.78374	0.01410
543.85518	0.04152
541.92661	0.08653
539.99805	0.11144
538.06948	0.08331
536.14092	0.06125
534.21235	0.08962
532.28379	0.16581
530.35522	0.22634
528.42666	0.24235
526.49810	0.29555
524.56953	0.36696
522.64097	0.30720
520.71240	0.17510
518.78384	0.10933
516.85527	0.11176
514.92671	0.11260
512.99814	0.09818
511.06958	0.11718
509.14102	0.11743
507.21245	0.10098
505.28389	0.17299
503.35532	0.30760
501.42676	0.30546
499.49819	0.19267
