3997.91411	0.14415
3995.98555	0.14418
3994.05698	0.14443
3992.12842	0.14462
3990.19985	0.14477
3988.27129	0.14507
3986.34272	0.14555
3984.41416	0.14626
3982.48560	0.14686
3980.55703	0.14675
3978.62847	0.14614
3976.69990	0.14600
3974.77134	0.14669
3972.84277	0.14760
3970.91421	0.14799
3968.98564	0.14785
3967.05708	0.14767
3965.12852	0.14751
3963.19995	0.14740
3961.27139	0.14767
3959.34282	0.14795
3957.41426	0.14780
3955.48569	0.14765
3953.55713	0.14796
3951.62856	0.14878
3949.70000	0.14953
3947.77144	0.14947
3945.84287	0.14895
3943.91431	0.14891
3941.98574	0.14919
3940.05718	0.14892
3938.12861	0.14822
3936.20005	0.14783
3934.27148	0.14822
3932.34292	0.14905
3930.41436	0.14927
3928.48579	0.14868
3926.55723	0.14811
3924.62866	0.14809
3922.70010	0.14817
3920.77153	0.14783
3918.84297	0.14761
3916.91440	0.14787
3914.98584	0.14767
3913.05728	0.14651
3911.12871	0.14547
3909.20015	0.14528
3907.27158	0.14607
3905.34302	0.14787
3903.41445	0.14984
3901.48589	0.15054
3899.55732	0.15025
3897.62876	0.14923
3895.70020	0.14777
3893.77163	0.14737
3891.84307	0.14829
3889.91450	0.14852
3887.98594	0.14758
3886.05737	0.14777
3884.12881	0.14895
3882.20024	0.14938
3880.27168	0.14935
3878.34312	0.14855
3876.41455	0.14766
3874.48599	0.14850
3872.55742	0.15031
3870.62886	0.15158
3868.70029	0.15219
3866.77173	0.15174
3864.84316	0.15185
3862.91460	0.15276
3860.98604	0.15218
3859.05747	0.15092
3857.12891	0.15084
3855.20034	0.15229
3853.27178	0.15569
3851.34321	0.15756
3849.41465	0.15495
3847.48608	0.15257
3845.55752	0.15209
3843.62896	0.15328
3841.70039	0.15536
3839.77183	0.15749
3837.84326	0.15931
3835.91470	0.15990
3833.98613	0.15933
3832.05757	0.15871
3830.12900	0.15855
3828.20044	0.15892
3826.27187	0.15953
3824.34331	0.16013
3822.41475	0.16153
3820.48618	0.16448
3818.55762	0.16606
3816.62905	0.16569
3814.70049	0.16542
3812.77192	0.16450
3810.84336	0.16366
3808.91479	0.16454
3806.98623	0.16722
3805.05767	0.16983
3803.12910	0.17191
3801.20054	0.17509
3799.27197	0.17703
3797.34341	0.17620
3795.41484	0.17523
3793.48628	0.17445
3791.55771	0.17411
3789.62915	0.17481
3787.70059	0.17615
3785.77202	0.17803
3783.84346	0.18002
3781.91489	0.18145
3779.98633	0.18307
3778.05776	0.18501
3776.12920	0.18603
3774.20063	0.18678
3772.27207	0.18856
3770.34351	0.19169
3768.41494	0.19503
3766.48638	0.19717
3764.55781	0.19878
3762.62925	0.20008
3760.70068	0.20178
3758.77212	0.20503
3756.84355	0.20828
3754.91499	0.21034
3752.98643	0.21339
3751.05786	0.21904
3749.12930	0.22450
3747.20073	0.22630
3745.27217	0.22779
3743.34360	0.23128
3741.41504	0.23438
3739.48647	0.23633
3737.55791	0.23943
3735.62935	0.24553
3733.70078	0.25295
3731.77222	0.25681
3729.84365	0.25858
3727.91509	0.26162
3725.98652	0.26703
3724.05796	0.27408
3722.12939	0.28132
3720.20083	0.28821
3718.27227	0.29455
3716.34370	0.30087
3714.41514	0.30798
3712.48657	0.31800
3710.55801	0.33313
3708.62944	0.34817
3706.70088	0.35872
3704.77231	0.36872
3702.84375	0.38154
3700.91519	0.39876
3698.98662	0.41725
3697.05806	0.43444
3695.12949	0.45289
3693.20093	0.47326
3691.27236	0.49651
3689.34380	0.52672
3687.41523	0.56204
3685.48667	0.59169
3683.55811	0.61715
3681.62954	0.64488
3679.70098	0.67681
3677.77241	0.71142
3675.84385	0.75313
3673.91528	0.80770
3671.98672	0.85062
3670.05815	0.88895
3668.12959	0.94210
3666.20103	0.98987
3664.27246	1.02970
3662.34390	1.07335
3660.41533	1.12100
3658.48677	1.16757
3656.55820	1.21700
3654.62964	1.27258
3652.70107	1.31988
3650.77251	1.36201
3648.84395	1.42007
3646.91538	1.48846
3644.98682	1.53676
3643.05825	1.57406
3641.12969	1.61344
3639.20112	1.65769
3637.27256	1.70249
3635.34399	1.74570
3633.41543	1.78829
3631.48687	1.82888
3629.55830	1.87226
3627.62974	1.92839
3625.70117	1.97741
3623.77261	2.00964
3621.84404	2.04219
3619.91548	2.08159
3617.98691	2.12933
3616.05835	2.17402
3614.12979	2.21157
3612.20122	2.25106
3610.27266	2.28963
3608.34409	2.32829
3606.41553	2.36964
3604.48696	2.40771
3602.55840	2.44307
3600.62983	2.48319
3598.70127	2.52624
3596.77271	2.56658
3594.84414	2.60640
3592.91558	2.64657
3590.98701	2.68480
3589.05845	2.72303
3587.12988	2.77018
3585.20132	2.82007
3583.27275	2.85923
3581.34419	2.89442
3579.41562	2.93419
3577.48706	2.97847
3575.55850	3.02302
3573.62993	3.06560
3571.70137	3.10468
3569.77280	3.14354
3567.84424	3.18830
3565.91567	3.24310
3563.98711	3.29528
3562.05854	3.33843
3560.12998	3.38084
3558.20142	3.42526
3556.27285	3.47010
3554.34429	3.51373
3552.41572	3.56142
3550.48716	3.61273
3548.55859	3.65982
3546.63003	3.70355
3544.70146	3.75111
3542.77290	3.80086
3540.84434	3.84671
3538.91577	3.89075
3536.98721	3.93715
3535.05864	3.98693
3533.13008	4.03459
3531.20151	4.07837
3529.27295	4.12261
3527.34438	4.17201
3525.41582	4.22440
3523.48726	4.27489
3521.55869	4.32703
3519.63013	4.38070
3517.70156	4.42925
3515.77300	4.47286
3513.84443	4.51834
3511.91587	4.56824
3509.98730	4.62170
3508.05874	4.67393
3506.13018	4.72129
3504.20161	4.76722
3502.27305	4.81609
3500.34448	4.86776
3498.41592	4.91881
3496.48735	4.96798
3494.55879	5.01175
3492.63022	5.05100
3490.70166	5.09429
3488.77310	5.14533
3486.84453	5.19800
3484.91597	5.24943
3482.98740	5.30353
3481.05884	5.35713
3479.13027	5.40522
3477.20171	5.45093
3475.27314	5.49974
3473.34458	5.55569
3471.41602	5.61238
3469.48745	5.66524
3467.55889	5.72351
3465.63032	5.77958
3463.70176	5.82335
3461.77319	5.86571
3459.84463	5.91421
3457.91606	5.96763
3455.98750	6.02493
3454.05894	6.07964
3452.13037	6.12914
3450.20181	6.17843
3448.27324	6.23102
3446.34468	6.28639
3444.41611	6.32994
3442.48755	6.37440
3440.55898	6.43306
3438.63042	6.47399
3436.70186	6.50127
3434.77329	6.56321
3432.84473	6.65238
3430.91616	6.73443
3428.98760	6.81071
3427.05903	6.86519
3425.13047	6.88515
3423.20190	6.88777
3421.27334	6.91916
3419.34478	6.99844
3417.41621	7.09066
3415.48765	7.18252
3413.55908	7.24129
3411.63052	7.24257
3409.70195	7.25728
3407.77339	7.32300
3405.84482	7.38160
3403.91626	7.43492
3401.98770	7.50350
3400.05913	7.55509
3398.13057	7.59235
3396.20200	7.62711
3394.27344	7.64891
3392.34487	7.65463
3390.41631	7.68609
3388.48774	7.76253
3386.55918	7.81765
3384.63062	7.79556
3382.70205	7.79174
3380.77349	7.86919
3378.84492	7.96599
3376.91636	8.01478
3374.98779	8.01292
3373.05923	8.01419
3371.13066	7.99227
3369.20210	7.97636
3367.27354	8.04192
3365.34497	8.18327
3363.41641	8.30153
3361.48784	8.31224
3359.55928	8.27080
3357.63071	8.24046
3355.70215	8.29187
3353.77358	8.45742
3351.84502	8.62646
3349.91646	8.54226
3347.98789	8.34158
3346.05933	8.29664
3344.13076	8.33563
3342.20220	8.39770
3340.27363	8.49125
3338.34507	8.53942
3336.41650	8.54400
3334.48794	8.56356
3332.55937	8.58300
3330.63081	8.58452
3328.70225	8.56745
3326.77368	8.57455
3324.84512	8.54678
3322.91655	8.50463
3320.98799	8.59546
3319.05942	8.70329
3317.13086	8.66702
3315.20229	8.56454
3313.27373	8.58713
3311.34517	8.66463
3309.41660	8.55409
3307.48804	8.41958
3305.55947	8.46206
3303.63091	8.56438
3301.70234	8.56011
3299.77378	8.56919
3297.84521	8.61755
3295.91665	8.61230
3293.98809	8.61997
3292.05952	8.65369
3290.13096	8.61228
3288.20239	8.55941
3286.27383	8.63568
3284.34526	8.78242
3282.41670	8.80966
3280.48813	8.61410
3278.55957	8.40659
3276.63101	8.35732
3274.70244	8.42695
3272.77388	8.49965
3270.84531	8.48583
3268.91675	8.44567
3266.98818	8.49271
3265.05962	8.59774
3263.13105	8.61533
3261.20249	8.59135
3259.27393	8.59529
3257.34536	8.57482
3255.41680	8.54259
3253.48823	8.56474
3251.55967	8.63747
3249.63110	8.68119
3247.70254	8.67233
3245.77397	8.64471
3243.84541	8.68728
3241.91685	8.80509
3239.98828	8.89631
3238.05972	8.89577
3236.13115	8.84384
3234.20259	8.89514
3232.27402	9.03572
3230.34546	9.03953
3228.41689	8.79050
3226.48833	8.48527
3224.55977	8.35562
3222.63120	8.40235
3220.70264	8.49476
3218.77407	8.54913
3216.84551	8.52275
3214.91694	8.42047
3212.98838	8.32503
3211.05981	8.29402
3209.13125	8.25379
3207.20269	8.18425
3205.27412	8.17827
3203.34556	8.19595
3201.41699	8.15491
3199.48843	8.08449
3197.55986	8.05053
3195.63130	8.05600
3193.70273	8.02758
3191.77417	7.93933
3189.84561	7.86159
3187.91704	7.85700
3185.98848	7.88804
3184.05991	7.85664
3182.13135	7.76880
3180.20278	7.70405
3178.27422	7.64315
3176.34565	7.55681
3174.41709	7.48051
3172.48853	7.42956
3170.55996	7.39084
3168.63140	7.34271
3166.70283	7.29302
3164.77427	7.23116
3162.84570	7.11058
3160.91714	6.96842
3158.98857	6.87753
3157.06001	6.84034
3155.13145	6.80320
3153.20288	6.72668
3151.27432	6.63898
3149.34575	6.56748
3147.41719	6.50224
3145.48862	6.44334
3143.56006	6.39331
3141.63149	6.33320
3139.70293	6.24758
3137.77437	6.15592
3135.84580	6.07577
3133.91724	6.00489
3131.98867	5.94135
3130.06011	5.87835
3128.13154	5.80819
3126.20298	5.73186
3124.27441	5.65462
3122.34585	5.57617
3120.41729	5.50002
3118.48872	5.42938
3116.56016	5.35487
3114.63159	5.27848
3112.70303	5.20648
3110.77446	5.12840
3108.84590	5.04431
3106.91733	4.96901
3104.98877	4.90471
3103.06021	4.84007
3101.13164	4.77040
3099.20308	4.70428
3097.27451	4.64101
3095.34595	4.57167
3093.41738	4.49908
3091.48882	4.42902
3089.56025	4.36126
3087.63169	4.29516
3085.70312	4.23085
3083.77456	4.16711
3081.84600	4.10388
3079.91743	4.04155
3077.98887	3.97932
3076.06030	3.91659
3074.13174	3.85302
3072.20317	3.78961
3070.27461	3.72866
3068.34604	3.67141
3066.41748	3.61534
3064.48892	3.55712
3062.56035	3.49798
3060.63179	3.43993
3058.70322	3.38294
3056.77466	3.32725
3054.84609	3.27229
3052.91753	3.21863
3050.98896	3.16678
3049.06040	3.11449
3047.13184	3.06151
3045.20327	3.00945
3043.27471	2.95891
3041.34614	2.90965
3039.41758	2.86154
3037.48901	2.81446
3035.56045	2.76739
3033.63188	2.72056
3031.70332	2.67482
3029.77476	2.62944
3027.84619	2.58407
3025.91763	2.53949
3023.98906	2.49547
3022.06050	2.45169
3020.13193	2.40899
3018.20337	2.36764
3016.27480	2.32737
3014.34624	2.28833
3012.41768	2.24966
3010.48911	2.21050
3008.56055	2.17208
3006.63198	2.13532
3004.70342	2.09876
3002.77485	2.06154
3000.84629	2.02461
2998.91772	1.98881
2996.98916	1.95431
2995.06060	1.92094
2993.13203	1.88804
2991.20347	1.85501
2989.27490	1.82199
2987.34634	1.78944
2985.41777	1.75801
2983.48921	1.72779
2981.56064	1.69775
2979.63208	1.66739
2977.70352	1.63753
2975.77495	1.60848
2973.84639	1.57961
2971.91782	1.55091
2969.98926	1.52255
2968.06069	1.49445
2966.13213	1.46751
2964.20356	1.44194
2962.27500	1.41659
2960.34644	1.39162
2958.41787	1.36779
2956.48931	1.34444
2954.56074	1.32094
2952.63218	1.29778
2950.70361	1.27537
2948.77505	1.25302
2946.84648	1.23039
2944.91792	1.20818
2942.98936	1.18645
2941.06079	1.16523
2939.13223	1.14472
2937.20366	1.12456
2935.27510	1.10466
2933.34653	1.08537
2931.41797	1.06651
2929.48940	1.04788
2927.56084	1.02991
2925.63228	1.01237
2923.70371	0.99482
2921.77515	0.97793
2919.84658	0.96207
2917.91802	0.94626
2915.98945	0.92992
2914.06089	0.91402
2912.13232	0.89904
2910.20376	0.88418
2908.27520	0.86923
2906.34663	0.85474
2904.41807	0.84073
2902.48950	0.82699
2900.56094	0.81364
2898.63237	0.80067
2896.70381	0.78784
2894.77524	0.77515
2892.84668	0.76289
2890.91812	0.75096
2888.98955	0.73915
2887.06099	0.72742
2885.13242	0.71569
2883.20386	0.70409
2881.27529	0.69271
2879.34673	0.68148
2877.41816	0.67051
2875.48960	0.66005
2873.56104	0.65000
2871.63247	0.63997
2869.70391	0.62989
2867.77534	0.61993
2865.84678	0.61010
2863.91821	0.60043
2861.98965	0.59113
2860.06108	0.58212
2858.13252	0.57316
2856.20396	0.56425
2854.27539	0.55556
2852.34683	0.54714
2850.41826	0.53928
2848.48970	0.53197
2846.56113	0.52455
2844.63257	0.51695
2842.70400	0.50972
2840.77544	0.50286
2838.84687	0.49616
2836.91831	0.48979
2834.98975	0.48370
2833.06118	0.47768
2831.13262	0.47157
2829.20405	0.46523
2827.27549	0.45889
2825.34692	0.45282
2823.41836	0.44695
2821.48979	0.44101
2819.56123	0.43485
2817.63267	0.42869
2815.70410	0.42284
2813.77554	0.41752
2811.84697	0.41248
2809.91841	0.40727
2807.98984	0.40197
2806.06128	0.39687
2804.13271	0.39182
2802.20415	0.38664
2800.27559	0.38160
2798.34702	0.37693
2796.41846	0.37242
2794.48989	0.36798
2792.56133	0.36366
2790.63276	0.35936
2788.70420	0.35504
2786.77563	0.35083
2784.84707	0.34684
2782.91851	0.34297
2780.98994	0.33912
2779.06138	0.33526
2777.13281	0.33142
2775.20425	0.32768
2773.27568	0.32408
2771.34712	0.32052
2769.41855	0.31694
2767.48999	0.31344
2765.56143	0.31012
2763.63286	0.30696
2761.70430	0.30395
2759.77573	0.30098
2757.84717	0.29801
2755.91860	0.29498
2753.99004	0.29189
2752.06147	0.28888
2750.13291	0.28601
2748.20435	0.28330
2746.27578	0.28074
2744.34722	0.27820
2742.41865	0.27562
2740.49009	0.27313
2738.56152	0.27076
2736.63296	0.26845
2734.70439	0.26608
2732.77583	0.26369
2730.84727	0.26146
2728.91870	0.25933
2726.99014	0.25712
2725.06157	0.25496
2723.13301	0.25297
2721.20444	0.25102
2719.27588	0.24896
2717.34731	0.24695
2715.41875	0.24509
2713.49019	0.24334
2711.56162	0.24171
2709.63306	0.24029
2707.70449	0.23883
2705.77593	0.23708
2703.84736	0.23527
2701.91880	0.23367
2699.99023	0.23219
2698.06167	0.23081
2696.13311	0.22951
2694.20454	0.22811
2692.27598	0.22668
2690.34741	0.22529
2688.41885	0.22392
2686.49028	0.22266
2684.56172	0.22151
2682.63315	0.22035
2680.70459	0.21920
2678.77603	0.21812
2676.84746	0.21716
2674.91890	0.21624
2672.99033	0.21522
2671.06177	0.21405
2669.13320	0.21293
2667.20464	0.21201
2665.27607	0.21118
2663.34751	0.21034
2661.41895	0.20950
2659.49038	0.20872
2657.56182	0.20805
2655.63325	0.20740
2653.70469	0.20671
2651.77612	0.20608
2649.84756	0.20557
2647.91899	0.20510
2645.99043	0.20457
2644.06187	0.20400
2642.13330	0.20345
2640.20474	0.20294
2638.27617	0.20242
2636.34761	0.20195
2634.41904	0.20166
2632.49048	0.20145
2630.56191	0.20117
2628.63335	0.20079
2626.70479	0.20035
2624.77622	0.19998
2622.84766	0.19987
2620.91909	0.19993
2618.99053	0.19991
2617.06196	0.19971
2615.13340	0.19940
2613.20483	0.19912
2611.27627	0.19896
2609.34771	0.19887
2607.41914	0.19881
2605.49058	0.19877
2603.56201	0.19878
2601.63345	0.19882
2599.70488	0.19891
2597.77632	0.19907
2595.84775	0.19921
2593.91919	0.19935
2591.99062	0.19960
2590.06206	0.19981
2588.13350	0.19988
2586.20493	0.20002
2584.27637	0.20032
2582.34780	0.20063
2580.41924	0.20100
2578.49067	0.20143
2576.56211	0.20171
2574.63354	0.20181
2572.70498	0.20203
2570.77642	0.20258
2568.84785	0.20322
2566.91929	0.20380
2564.99072	0.20432
2563.06216	0.20479
2561.13359	0.20511
2559.20503	0.20534
2557.27646	0.20561
2555.34790	0.20613
2553.41934	0.20693
2551.49077	0.20769
2549.56221	0.20839
2547.63364	0.20916
2545.70508	0.20981
2543.77651	0.21031
2541.84795	0.21089
2539.91938	0.21159
2537.99082	0.21228
2536.06226	0.21296
2534.13369	0.21366
2532.20513	0.21432
2530.27656	0.21495
2528.34800	0.21572
2526.41943	0.21657
2524.49087	0.21730
2522.56230	0.21792
2520.63374	0.21863
2518.70518	0.21946
2516.77661	0.22034
2514.84805	0.22117
2512.91948	0.22196
2510.99092	0.22287
2509.06235	0.22377
2507.13379	0.22452
2505.20522	0.22530
2503.27666	0.22619
2501.34810	0.22713
2499.41953	0.22818
2497.49097	0.22916
2495.56240	0.22987
2493.63384	0.23060
2491.70527	0.23156
2489.77671	0.23268
2487.84814	0.23378
2485.91958	0.23476
2483.99102	0.23567
2482.06245	0.23655
2480.13389	0.23742
2478.20532	0.23829
2476.27676	0.23911
2474.34819	0.23999
2472.41963	0.24101
2470.49106	0.24201
2468.56250	0.24290
2466.63394	0.24378
2464.70537	0.24479
2462.77681	0.24589
2460.84824	0.24681
2458.91968	0.24756
2456.99111	0.24842
2455.06255	0.24939
2453.13398	0.25045
2451.20542	0.25156
2449.27686	0.25261
2447.34829	0.25366
2445.41973	0.25478
2443.49116	0.25586
2441.56260	0.25683
2439.63403	0.25785
2437.70547	0.25889
2435.77690	0.25983
2433.84834	0.26083
2431.91978	0.26195
2429.99121	0.26309
2428.06265	0.26414
2426.13408	0.26511
2424.20552	0.26612
2422.27695	0.26726
2420.34839	0.26846
2418.41982	0.26973
2416.49126	0.27096
2414.56270	0.27202
2412.63413	0.27310
2410.70557	0.27434
2408.77700	0.27563
2406.84844	0.27686
2404.91987	0.27800
2402.99131	0.27918
2401.06274	0.28039
2399.13418	0.28150
2397.20562	0.28266
2395.27705	0.28400
2393.34849	0.28530
2391.41992	0.28652
2389.49136	0.28783
2387.56279	0.28925
2385.63423	0.29067
2383.70566	0.29216
2381.77710	0.29375
2379.84854	0.29538
2377.91997	0.29697
2375.99141	0.29849
2374.06284	0.29992
2372.13428	0.30158
2370.20571	0.30386
2368.27715	0.30639
2366.34858	0.30797
2364.42002	0.30831
2362.49146	0.30936
2360.56289	0.31192
2358.63433	0.31477
2356.70576	0.31718
2354.77720	0.31896
2352.84863	0.32017
2350.92007	0.32084
2348.99150	0.32118
2347.06294	0.32165
2345.13437	0.32309
2343.20581	0.32592
2341.27725	0.32855
2339.34868	0.32968
2337.42012	0.32999
2335.49155	0.33069
2333.56299	0.33208
2331.63442	0.33397
2329.70586	0.33609
2327.77729	0.33806
2325.84873	0.33982
2323.92017	0.34165
2321.99160	0.34364
2320.06304	0.34569
2318.13447	0.34736
2316.20591	0.34844
2314.27734	0.34962
2312.34878	0.35128
2310.42021	0.35305
2308.49165	0.35473
2306.56309	0.35640
2304.63452	0.35804
2302.70596	0.35962
2300.77739	0.36122
2298.84883	0.36296
2296.92026	0.36483
2294.99170	0.36670
2293.06313	0.36852
2291.13457	0.37036
2289.20601	0.37220
2287.27744	0.37390
2285.34888	0.37553
2283.42031	0.37735
2281.49175	0.37940
2279.56318	0.38156
2277.63462	0.38374
2275.70605	0.38590
2273.77749	0.38800
2271.84893	0.39000
2269.92036	0.39190
2267.99180	0.39391
2266.06323	0.39613
2264.13467	0.39842
2262.20610	0.40061
2260.27754	0.40270
2258.34897	0.40488
2256.42041	0.40709
2254.49185	0.40921
2252.56328	0.41130
2250.63472	0.41345
2248.70615	0.41573
2246.77759	0.41803
2244.84902	0.42021
2242.92046	0.42229
2240.99189	0.42444
2239.06333	0.42670
2237.13477	0.42895
2235.20620	0.43113
2233.27764	0.43334
2231.34907	0.43561
2229.42051	0.43787
2227.49194	0.44002
2225.56338	0.44209
2223.63481	0.44430
2221.70625	0.44675
2219.77769	0.44918
2217.84912	0.45134
2215.92056	0.45336
2213.99199	0.45548
2212.06343	0.45771
2210.13486	0.45985
2208.20630	0.46186
2206.27773	0.46400
2204.34917	0.46618
2202.42061	0.46823
2200.49204	0.47026
2198.56348	0.47229
2196.63491	0.47429
2194.70635	0.47627
2192.77778	0.47819
2190.84922	0.48017
2188.92065	0.48216
2186.99209	0.48401
2185.06353	0.48577
2183.13496	0.48743
2181.20640	0.48901
2179.27783	0.49058
2177.34927	0.49213
2175.42070	0.49368
2173.49214	0.49524
2171.56357	0.49683
2169.63501	0.49834
2167.70645	0.49957
2165.77788	0.50066
2163.84932	0.50196
2161.92075	0.50328
2159.99219	0.50431
2158.06362	0.50523
2156.13506	0.50628
2154.20649	0.50729
2152.27793	0.50805
2150.34937	0.50867
2148.42080	0.50932
2146.49224	0.50990
2144.56367	0.51018
2142.63511	0.51031
2140.70654	0.51058
2138.77798	0.51101
2136.84941	0.51135
2134.92085	0.51142
2132.99229	0.51129
2131.06372	0.51105
2129.13516	0.51073
2127.20659	0.51035
2125.27803	0.50996
2123.34946	0.50960
2121.42090	0.50914
2119.49233	0.50841
2117.56377	0.50742
2115.63521	0.50640
2113.70664	0.50555
2111.77808	0.50475
2109.84951	0.50380
2107.92095	0.50268
2105.99238	0.50146
2104.06382	0.50018
2102.13525	0.49879
2100.20669	0.49740
2098.27812	0.49598
2096.34956	0.49443
2094.42100	0.49283
2092.49243	0.49111
2090.56387	0.48922
2088.63530	0.48725
2086.70674	0.48535
2084.77817	0.48355
2082.84961	0.48168
2080.92104	0.47958
2078.99248	0.47736
2077.06392	0.47516
2075.13535	0.47296
2073.20679	0.47071
2071.27822	0.46839
2069.34966	0.46594
2067.42109	0.46344
2065.49253	0.46105
2063.56396	0.45862
2061.63540	0.45607
2059.70684	0.45348
2057.77827	0.45071
2055.84971	0.44779
2053.92114	0.44499
2051.99258	0.44242
2050.06401	0.43995
2048.13545	0.43734
2046.20688	0.43460
2044.27832	0.43188
2042.34976	0.42915
2040.42119	0.42623
2038.49263	0.42314
2036.56406	0.42015
2034.63550	0.41729
2032.70693	0.41432
2030.77837	0.41131
2028.84980	0.40841
2026.92124	0.40555
2024.99268	0.40263
2023.06411	0.39967
2021.13555	0.39676
2019.20698	0.39403
2017.27842	0.39130
2015.34985	0.38827
2013.42129	0.38515
2011.49272	0.38218
2009.56416	0.37937
2007.63560	0.37664
2005.70703	0.37385
2003.77847	0.37099
2001.84990	0.36817
1999.92134	0.36544
1997.99277	0.36271
1996.06421	0.36008
1994.13564	0.35765
1992.20708	0.35520
1990.27852	0.35242
1988.34995	0.34951
1986.42139	0.34675
1984.49282	0.34415
1982.56426	0.34166
1980.63569	0.33926
1978.70713	0.33692
1976.77856	0.33457
1974.85000	0.33218
1972.92144	0.32985
1970.99287	0.32764
1969.06431	0.32555
1967.13574	0.32346
1965.20718	0.32130
1963.27861	0.31915
1961.35005	0.31707
1959.42148	0.31501
1957.49292	0.31298
1955.56436	0.31102
1953.63579	0.30912
1951.70723	0.30726
1949.77866	0.30549
1947.85010	0.30385
1945.92153	0.30242
1943.99297	0.30119
1942.06440	0.29982
1940.13584	0.29800
1938.20728	0.29616
1936.27871	0.29467
1934.35015	0.29330
1932.42158	0.29194
1930.49302	0.29063
1928.56445	0.28936
1926.63589	0.28815
1924.70732	0.28724
1922.77876	0.28650
1920.85020	0.28557
1918.92163	0.28462
1916.99307	0.28359
1915.06450	0.28227
1913.13594	0.28113
1911.20737	0.28048
1909.27881	0.27992
1907.35024	0.27903
1905.42168	0.27800
1903.49312	0.27718
1901.56455	0.27659
1899.63599	0.27609
1897.70742	0.27568
1895.77886	0.27533
1893.85029	0.27491
1891.92173	0.27446
1889.99316	0.27427
1888.06460	0.27394
1886.13604	0.27343
1884.20747	0.27315
1882.27891	0.27296
1880.35034	0.27267
1878.42178	0.27241
1876.49321	0.27226
1874.56465	0.27219
1872.63608	0.27239
1870.70752	0.27305
1868.77896	0.27410
1866.85039	0.27440
1864.92183	0.27375
1862.99326	0.27333
1861.06470	0.27338
1859.13613	0.27364
1857.20757	0.27392
1855.27900	0.27435
1853.35044	0.27482
1851.42187	0.27532
1849.49331	0.27595
1847.56475	0.27686
1845.63618	0.27808
1843.70762	0.27931
1841.77905	0.27971
1839.85049	0.27966
1837.92192	0.28025
1835.99336	0.28120
1834.06479	0.28208
1832.13623	0.28318
1830.20767	0.28496
1828.27910	0.28659
1826.35054	0.28748
1824.42197	0.28856
1822.49341	0.28957
1820.56484	0.29052
1818.63628	0.29179
1816.70771	0.29337
1814.77915	0.29499
1812.85059	0.29689
1810.92202	0.29919
1808.99346	0.30128
1807.06489	0.30298
1805.13633	0.30472
1803.20776	0.30712
1801.27920	0.31008
1799.35063	0.31300
1797.42207	0.31532
1795.49351	0.31762
1793.56494	0.32073
1791.63638	0.32480
1789.70781	0.32810
1787.77925	0.33026
1785.85068	0.33321
1783.92212	0.33704
1781.99355	0.34123
1780.06499	0.34556
1778.13643	0.34985
1776.20786	0.35407
1774.27930	0.35890
1772.35073	0.36536
1770.42217	0.37182
1768.49360	0.37673
1766.56504	0.38145
1764.63647	0.38660
1762.70791	0.39275
1760.77935	0.40060
1758.85078	0.40775
1756.92222	0.41482
1754.99365	0.42252
1753.06509	0.42966
1751.13652	0.43869
1749.20796	0.45021
1747.27939	0.46094
1745.35083	0.46996
1743.42227	0.47955
1741.49370	0.49029
1739.56514	0.50300
1737.63657	0.51571
1735.70801	0.52707
1733.77944	0.54455
1731.85088	0.56492
1729.92231	0.58019
1727.99375	0.59558
1726.06519	0.61253
1724.13662	0.63142
1722.20806	0.65185
1720.27949	0.67097
1718.35093	0.69375
1716.42236	0.72685
1714.49380	0.75742
1712.56523	0.78165
1710.63667	0.80528
1708.70811	0.83108
1706.77954	0.86085
1704.85098	0.89621
1702.92241	0.92722
1700.99385	0.95749
1699.06528	1.00276
1697.13672	1.04437
1695.20815	1.08595
1693.27959	1.12564
1691.35103	1.15737
1689.42246	1.19418
1687.49390	1.23260
1685.56533	1.26938
1683.63677	1.32615
1681.70820	1.38430
1679.77964	1.42084
1677.85107	1.45595
1675.92251	1.49665
1673.99395	1.54689
1672.06538	1.59086
1670.13682	1.63334
1668.20825	1.68805
1666.27969	1.73129
1664.35112	1.76720
1662.42256	1.81062
1660.49399	1.85854
1658.56543	1.89590
1656.63687	1.92744
1654.70830	1.95932
1652.77974	2.01491
1650.85117	2.06898
1648.92261	2.08927
1646.99404	2.11735
1645.06548	2.14991
1643.13691	2.17200
1641.20835	2.18644
1639.27979	2.19997
1637.35122	2.21042
1635.42266	2.21538
1633.49409	2.21051
1631.56553	2.19813
1629.63696	2.18385
1627.70840	2.16120
1625.77983	2.13542
1623.85127	2.10169
1621.92271	2.05905
1619.99414	2.02051
1618.06558	1.98165
1616.13701	1.92300
1614.20845	1.86239
1612.27988	1.81756
1610.35132	1.77043
1608.42275	1.71839
1606.49419	1.66683
1604.56562	1.61890
1602.63706	1.57219
1600.70850	1.52628
1598.77993	1.48324
1596.85137	1.44201
1594.92280	1.40181
1592.99424	1.36309
1591.06567	1.32758
1589.13711	1.29404
1587.20854	1.26239
1585.27998	1.23263
1583.35142	1.20436
1581.42285	1.17804
1579.49429	1.15504
1577.56572	1.13401
1575.63716	1.10746
1573.70859	1.08271
1571.78003	1.06613
1569.85146	1.04861
1567.92290	1.02793
1565.99434	1.01082
1564.06577	0.99620
1562.13721	0.98425
1560.20864	0.97471
1558.28008	0.95660
1556.35151	0.93783
1554.42295	0.92638
1552.49438	0.91523
1550.56582	0.90438
1548.63726	0.89407
1546.70869	0.88572
1544.78013	0.87869
1542.85156	0.87146
1540.92300	0.86276
1538.99443	0.84974
1537.06587	0.83945
1535.13730	0.83311
1533.20874	0.82598
1531.28018	0.81776
1529.35161	0.81123
1527.42305	0.80560
1525.49448	0.80023
1523.56592	0.79532
1521.63735	0.78980
1519.70879	0.78319
1517.78022	0.77738
1515.85166	0.77159
1513.92310	0.76595
1511.99453	0.76142
1510.06597	0.75795
1508.13740	0.75539
1506.20884	0.74985
1504.28027	0.74255
1502.35171	0.73826
1500.42314	0.73536
1498.49458	0.73248
1496.56602	0.72863
1494.63745	0.72430
1492.70889	0.72094
1490.78032	0.71863
1488.85176	0.71586
1486.92319	0.71174
1484.99463	0.70761
1483.06606	0.70437
1481.13750	0.70158
1479.20894	0.69877
1477.28037	0.69638
1475.35181	0.69467
1473.42324	0.69289
1471.49468	0.68936
1469.56611	0.68518
1467.63755	0.68207
1465.70898	0.67969
1463.78042	0.67712
1461.85186	0.67454
1459.92329	0.67310
1457.99473	0.67290
1456.06616	0.67122
1454.13760	0.66727
1452.20903	0.66414
1450.28047	0.66199
1448.35190	0.66027
1446.42334	0.65832
1444.49478	0.65623
1442.56621	0.65444
1440.63765	0.65295
1438.70908	0.65171
1436.78052	0.65052
1434.85195	0.64908
1432.92339	0.64753
1430.99482	0.64621
1429.06626	0.64484
1427.13770	0.64321
1425.20913	0.64173
1423.28057	0.64036
1421.35200	0.63905
1419.42344	0.63805
1417.49487	0.63666
1415.56631	0.63453
1413.63774	0.63258
1411.70918	0.63094
1409.78062	0.62930
1407.85205	0.62772
1405.92349	0.62635
1403.99492	0.62491
1402.06636	0.62338
1400.13779	0.62211
1398.20923	0.62106
1396.28066	0.62000
1394.35210	0.61840
1392.42354	0.61635
1390.49497	0.61479
1388.56641	0.61387
1386.63784	0.61286
1384.70928	0.61131
1382.78071	0.60974
1380.85215	0.60847
1378.92358	0.60748
1376.99502	0.60677
1375.06646	0.60622
1373.13789	0.60521
1371.20933	0.60377
1369.28076	0.60253
1367.35220	0.60143
1365.42363	0.60061
1363.49507	0.60023
1361.56650	0.59945
1359.63794	0.59790
1357.70937	0.59652
1355.78081	0.59562
1353.85225	0.59472
1351.92368	0.59362
1349.99512	0.59258
1348.06655	0.59157
1346.13799	0.59049
1344.20942	0.58953
1342.28086	0.58888
1340.35229	0.58846
1338.42373	0.58779
1336.49517	0.58657
1334.56660	0.58520
1332.63804	0.58402
1330.70947	0.58304
1328.78091	0.58224
1326.85234	0.58154
1324.92378	0.58069
1322.99521	0.57975
1321.06665	0.57903
1319.13809	0.57853
1317.20952	0.57788
1315.28096	0.57697
1313.35239	0.57605
1311.42383	0.57518
1309.49526	0.57438
1307.56670	0.57364
1305.63813	0.57272
1303.70957	0.57171
1301.78101	0.57082
1299.85244	0.57001
1297.92388	0.56927
1295.99531	0.56865
1294.06675	0.56802
1292.13818	0.56722
1290.20962	0.56631
1288.28105	0.56550
1286.35249	0.56477
1284.42393	0.56416
1282.49536	0.56375
1280.56680	0.56316
1278.63823	0.56236
1276.70967	0.56174
1274.78110	0.56132
1272.85254	0.56097
1270.92397	0.56061
1268.99541	0.56009
1267.06685	0.55943
1265.13828	0.55886
1263.20972	0.55842
1261.28115	0.55806
1259.35259	0.55778
1257.42402	0.55748
1255.49546	0.55724
1253.56689	0.55714
1251.63833	0.55691
1249.70977	0.55643
1247.78120	0.55604
1245.85264	0.55589
1243.92407	0.55571
1241.99551	0.55525
1240.06694	0.55472
1238.13838	0.55424
1236.20981	0.55361
1234.28125	0.55288
1232.35269	0.55226
1230.42412	0.55163
1228.49556	0.55081
1226.56699	0.54994
1224.63843	0.54914
1222.70986	0.54830
1220.78130	0.54735
1218.85273	0.54633
1216.92417	0.54536
1214.99561	0.54459
1213.06704	0.54386
1211.13848	0.54297
1209.20991	0.54205
1207.28135	0.54131
1205.35278	0.54071
1203.42422	0.54007
1201.49565	0.53942
1199.56709	0.53884
1197.63853	0.53823
1195.70996	0.53746
1193.78140	0.53662
1191.85283	0.53584
1189.92427	0.53527
1187.99570	0.53473
1186.06714	0.53402
1184.13857	0.53344
1182.21001	0.53326
1180.28145	0.53335
1178.35288	0.53361
1176.42432	0.53406
1174.49575	0.53453
1172.56719	0.53498
1170.63862	0.53548
1168.71006	0.53609
1166.78149	0.53685
1164.85293	0.53759
1162.92437	0.53815
1160.99580	0.53836
1159.06724	0.53811
1157.13867	0.53755
1155.21011	0.53674
1153.28154	0.53568
1151.35298	0.53443
1149.42441	0.53279
1147.49585	0.53063
1145.56729	0.52807
1143.63872	0.52541
1141.71016	0.52281
1139.78159	0.52019
1137.85303	0.51764
1135.92446	0.51530
1133.99590	0.51326
1132.06733	0.51152
1130.13877	0.50990
1128.21021	0.50833
1126.28164	0.50699
1124.35308	0.50588
1122.42451	0.50501
1120.49595	0.50456
1118.56738	0.50440
1116.63882	0.50427
1114.71025	0.50420
1112.78169	0.50434
1110.85312	0.50487
1108.92456	0.50574
1106.99600	0.50681
1105.06743	0.50805
1103.13887	0.50939
1101.21030	0.51095
1099.28174	0.51311
1097.35317	0.51582
1095.42461	0.51877
1093.49604	0.52222
1091.56748	0.52651
1089.63892	0.53154
1087.71035	0.53708
1085.78179	0.54303
1083.85322	0.54936
1081.92466	0.55582
1079.99609	0.56167
1078.06753	0.56580
1076.13896	0.56728
1074.21040	0.56599
1072.28184	0.56248
1070.35327	0.55713
1068.42471	0.55049
1066.49614	0.54377
1064.56758	0.53775
1062.63901	0.53227
1060.71045	0.52718
1058.78188	0.52280
1056.85332	0.51919
1054.92476	0.51614
1052.99619	0.51345
1051.06763	0.51087
1049.13906	0.50856
1047.21050	0.50663
1045.28193	0.50484
1043.35337	0.50326
1041.42480	0.50215
1039.49624	0.50146
1037.56768	0.50108
1035.63911	0.50101
1033.71055	0.50109
1031.78198	0.50129
1029.85342	0.50168
1027.92485	0.50224
1025.99629	0.50272
1024.06772	0.50298
1022.13916	0.50340
1020.21060	0.50416
1018.28203	0.50503
1016.35347	0.50599
1014.42490	0.50703
1012.49634	0.50802
1010.56777	0.50911
1008.63921	0.51043
1006.71064	0.51205
1004.78208	0.51410
1002.85352	0.51660
1000.92495	0.51946
998.99639	0.52254
997.06782	0.52585
995.13926	0.52955
993.21069	0.53327
991.28213	0.53633
989.35356	0.53852
987.42500	0.53988
985.49644	0.54085
983.56787	0.54194
981.63931	0.54315
979.71074	0.54458
977.78218	0.54657
975.85361	0.54912
973.92505	0.55191
971.99648	0.55491
970.06792	0.55827
968.13936	0.56185
966.21079	0.56562
964.28223	0.57001
962.35366	0.57525
960.42510	0.58094
958.49653	0.58660
956.56797	0.59225
954.63940	0.59801
952.71084	0.60385
950.78228	0.61005
948.85371	0.61661
946.92515	0.62305
944.99658	0.62942
943.06802	0.63593
941.13945	0.64224
939.21089	0.64793
937.28232	0.65341
935.35376	0.65918
933.42520	0.66501
931.49663	0.67077
929.56807	0.67667
927.63950	0.68274
925.71094	0.68877
923.78237	0.69471
921.85381	0.70057
919.92524	0.70695
917.99668	0.71463
916.06812	0.72274
914.13955	0.73021
912.21099	0.73726
910.28242	0.74462
908.35386	0.75322
906.42529	0.76304
904.49673	0.77241
902.56816	0.78090
900.63960	0.78968
898.71104	0.79940
896.78247	0.81008
894.85391	0.82079
892.92534	0.83124
890.99678	0.84213
889.06821	0.85286
887.13965	0.86270
885.21108	0.87291
883.28252	0.88531
881.35396	0.89919
879.42539	0.91168
877.49683	0.92244
875.56826	0.93364
873.63970	0.94484
871.71113	0.95475
869.78257	0.96436
867.85400	0.97477
865.92544	0.98640
863.99687	0.99900
862.06831	1.01095
860.13975	1.02179
858.21118	1.03347
856.28262	1.04650
854.35405	1.05957
852.42549	1.07212
850.49692	1.08367
848.56836	1.09389
846.63979	1.10400
844.71123	1.11529
842.78267	1.12766
840.85410	1.14010
838.92554	1.15236
836.99697	1.16641
835.06841	1.18143
833.13984	1.19560
831.21128	1.20892
829.28271	1.22054
827.35415	1.23315
825.42559	1.24845
823.49702	1.26280
821.56846	1.27430
819.63989	1.28851
817.71133	1.30750
815.78276	1.32705
813.85420	1.34570
811.92563	1.35599
809.99707	1.35316
808.06851	1.35828
806.13994	1.39036
804.21138	1.41718
802.28281	1.41751
800.35425	1.43189
798.42568	1.47064
796.49712	1.50291
794.56855	1.50745
792.63999	1.48720
790.71143	1.47177
788.78286	1.49040
786.85430	1.50513
784.92573	1.48676
782.99717	1.51951
781.06860	1.66812
779.14004	1.83797
777.21147	1.85312
775.28291	1.90851
773.35435	2.21616
771.42578	4.62855
769.49722	4.61698
767.56865	2.25724
765.64009	4.59384
763.71152	4.58227
761.78296	2.24590
759.85439	1.68232
757.92583	1.69107
755.99727	1.54083
754.06870	1.43349
752.14014	1.44970
750.21157	1.41238
748.28301	1.28372
746.35444	1.12976
744.42588	1.04385
742.49731	1.06646
740.56875	1.19599
738.64019	1.27801
736.71162	1.05010
734.78306	0.84478
732.85449	0.75395
730.92593	0.64972
728.99736	0.46665
727.06880	0.33372
725.14023	0.31816
723.21167	0.36614
721.28311	0.32084
719.35454	0.19018
717.42598	0.13078
715.49741	0.19764
713.56885	0.17797
711.64028	0.13970
709.71172	0.00844
707.78315	-0.13207
705.85459	-0.18879
703.92603	-0.09734
701.99746	0.07225
700.06890	0.23653
698.14033	0.50954
696.21177	0.73338
694.28320	0.65796
692.35464	0.51609
690.42607	0.40017
688.49751	0.34862
686.56895	0.30910
684.64038	0.26712
682.71182	0.27180
680.78325	0.29736
678.85469	0.30429
676.92612	0.26517
674.99756	0.25067
673.06899	0.31379
671.14043	0.41073
669.21187	0.36265
667.28330	0.23366
665.35474	0.18250
663.42617	0.20171
661.49761	0.27682
659.56904	0.48687
657.64048	0.68659
655.71191	0.50522
653.78335	0.37580
651.85479	0.27988
649.92622	0.19765
647.99766	0.23841
646.06909	0.43852
644.14053	0.55385
642.21196	0.46928
640.28340	0.34512
638.35483	0.21487
636.42627	0.14586
634.49771	0.15586
632.56914	0.19861
630.64058	0.23271
628.71201	0.25293
626.78345	0.32347
624.85488	0.51724
622.92632	0.72428
620.99775	0.74572
619.06919	0.71071
617.14062	0.46806
615.21206	0.23841
613.28350	0.14206
611.35493	0.21141
609.42637	0.36959
607.49780	0.31887
605.56924	0.21692
603.64067	0.20244
601.71211	0.28073
599.78354	0.46698
597.85498	0.58775
595.92642	0.45515
593.99785	0.32376
592.06929	0.24929
590.14072	0.23458
588.21216	0.28958
586.28359	0.34056
584.35503	0.24139
582.42646	0.15003
580.49790	0.16149
578.56934	0.21156
576.64077	0.28139
574.71221	0.33105
572.78364	0.27361
570.85508	0.20892
568.92651	0.19983
566.99795	0.22088
565.06938	0.25359
563.14082	0.26905
561.21226	0.27057
559.28369	0.28762
557.35513	0.27811
555.42656	0.24308
553.49800	0.22727
551.56943	0.21053
549.64087	0.17964
547.71230	0.18397
545.78374	0.22046
543.85518	0.24925
541.92661	0.28490
539.99805	0.30132
538.06948	0.26947
536.14092	0.22738
534.21235	0.20727
532.28379	0.20961
530.35522	0.25000
528.42666	0.34956
526.49810	0.36716
524.56953	0.24442
522.64097	0.18039
520.71240	0.16893
518.78384	0.17924
516.85527	0.21886
514.92671	0.29597
512.99814	0.30280
511.06958	0.21412
509.14102	0.18246
507.21245	0.18865
505.28389	0.17424
503.35532	0.17397
501.42676	0.22403
499.49819	0.27763
