3997.91411	0.07045
3995.98555	0.07063
3994.05698	0.07130
3992.12842	0.07204
3990.19985	0.07260
3988.27129	0.07283
3986.34272	0.07272
3984.41416	0.07275
3982.48560	0.07292
3980.55703	0.07292
3978.62847	0.07309
3976.69990	0.07403
3974.77134	0.07529
3972.84277	0.07585
3970.91421	0.07576
3968.98564	0.07566
3967.05708	0.07561
3965.12852	0.07581
3963.19995	0.07654
3961.27139	0.07726
3959.34282	0.07725
3957.41426	0.07683
3955.48569	0.07676
3953.55713	0.07723
3951.62856	0.07847
3949.70000	0.08060
3947.77144	0.08204
3945.84287	0.08176
3943.91431	0.08174
3941.98574	0.08198
3940.05718	0.08008
3938.12861	0.07757
3936.20005	0.07709
3934.27148	0.07885
3932.34292	0.08201
3930.41436	0.08421
3928.48579	0.08359
3926.55723	0.08250
3924.62866	0.08322
3922.70010	0.08364
3920.77153	0.08278
3918.84297	0.08324
3916.91440	0.08425
3914.98584	0.08229
3913.05728	0.07854
3911.12871	0.07636
3909.20015	0.07621
3907.27158	0.07860
3905.34302	0.08504
3903.41445	0.09341
3901.48589	0.09764
3899.55732	0.09603
3897.62876	0.09041
3895.70020	0.08430
3893.77163	0.08263
3891.84307	0.08583
3889.91450	0.08772
3887.98594	0.08615
3886.05737	0.08713
3884.12881	0.09028
3882.20024	0.09146
3880.27168	0.09164
3878.34312	0.08890
3876.41455	0.08507
3874.48599	0.08639
3872.55742	0.09208
3870.62886	0.09759
3868.70029	0.09939
3866.77173	0.09703
3864.84316	0.09663
3862.91460	0.09780
3860.98604	0.09477
3859.05747	0.09099
3857.12891	0.09188
3855.20034	0.09839
3853.27178	0.10954
3851.34321	0.11238
3849.41465	0.10184
3847.48608	0.09283
3845.55752	0.09036
3843.62896	0.09411
3841.70039	0.10127
3839.77183	0.10886
3837.84326	0.11376
3835.91470	0.11189
3833.98613	0.10670
3832.05757	0.10306
3830.12900	0.10074
3828.20044	0.09985
3826.27187	0.10096
3824.34331	0.10334
3822.41475	0.10865
3820.48618	0.11697
3818.55762	0.11902
3816.62905	0.11571
3814.70049	0.11171
3812.77192	0.10563
3810.84336	0.10180
3808.91479	0.10358
3806.98623	0.10979
3805.05767	0.11530
3803.12910	0.11940
3801.20054	0.12528
3799.27197	0.12689
3797.34341	0.12331
3795.41484	0.11969
3793.48628	0.11519
3791.55771	0.11171
3789.62915	0.11128
3787.70059	0.11321
3785.77202	0.11704
3783.84346	0.12101
3781.91489	0.12327
3779.98633	0.12576
3778.05776	0.12777
3776.12920	0.12628
3774.20063	0.12468
3772.27207	0.12689
3770.34351	0.13310
3768.41494	0.13957
3766.48638	0.14254
3764.55781	0.14332
3762.62925	0.14337
3760.70068	0.14582
3758.77212	0.15229
3756.84355	0.15749
3754.91499	0.15981
3752.98643	0.16586
3751.05786	0.17881
3749.12930	0.18885
3747.20073	0.18825
3745.27217	0.18800
3743.34360	0.19096
3741.41504	0.19166
3739.48647	0.19300
3737.55791	0.20029
3735.62935	0.21431
3733.70078	0.22538
3731.77222	0.22383
3729.84365	0.21924
3727.91509	0.22029
3725.98652	0.22733
3724.05796	0.23569
3722.12939	0.24121
3720.20083	0.24429
3718.27227	0.24623
3716.34370	0.24931
3714.41514	0.25665
3712.48657	0.27181
3710.55801	0.29315
3708.62944	0.30669
3706.70088	0.31124
3704.77231	0.31804
3702.84375	0.33128
3700.91519	0.34944
3698.98662	0.36679
3697.05806	0.38275
3695.12949	0.40123
3693.20093	0.42285
3691.27236	0.44980
3689.34380	0.48429
3687.41523	0.51689
3685.48667	0.53888
3683.55811	0.55935
3681.62954	0.58555
3679.70098	0.61877
3677.77241	0.65757
3675.84385	0.70532
3673.91528	0.76175
3671.98672	0.80196
3670.05815	0.83925
3668.12959	0.88861
3666.20103	0.92900
3664.27246	0.96393
3662.34390	1.00531
3660.41533	1.05232
3658.48677	1.10057
3656.55820	1.15334
3654.62964	1.21066
3652.70107	1.25879
3650.77251	1.30594
3648.84395	1.37253
3646.91538	1.44088
3644.98682	1.48064
3643.05825	1.51187
3641.12969	1.54913
3639.20112	1.59268
3637.27256	1.63700
3635.34399	1.68175
3633.41543	1.72867
3631.48687	1.77411
3629.55830	1.82205
3627.62974	1.88035
3625.70117	1.92588
3623.77261	1.95486
3621.84404	1.98746
3619.91548	2.02971
3617.98691	2.07965
3616.05835	2.12277
3614.12979	2.15812
3612.20122	2.19602
3610.27266	2.23397
3608.34409	2.27424
3606.41553	2.31694
3604.48696	2.35470
3602.55840	2.38969
3600.62983	2.42900
3598.70127	2.47100
3596.77271	2.51195
3594.84414	2.55411
3592.91558	2.59600
3590.98701	2.63364
3589.05845	2.67045
3587.12988	2.71633
3585.20132	2.76478
3583.27275	2.80391
3581.34419	2.84068
3579.41562	2.88155
3577.48706	2.92539
3575.55850	2.96918
3573.62993	3.01202
3571.70137	3.05270
3569.77280	3.09402
3567.84424	3.14075
3565.91567	3.19532
3563.98711	3.24465
3562.05854	3.28387
3560.12998	3.32411
3558.20142	3.36920
3556.27285	3.41594
3554.34429	3.46172
3552.41572	3.51004
3550.48716	3.55986
3548.55859	3.60603
3546.63003	3.65102
3544.70146	3.70024
3542.77290	3.74883
3540.84434	3.79185
3538.91577	3.83457
3536.98721	3.88203
3535.05864	3.93352
3533.13008	3.98471
3531.20151	4.03769
3529.27295	4.09016
3527.34438	4.13713
3525.41582	4.18193
3523.48726	4.22999
3521.55869	4.27987
3519.63013	4.32573
3517.70156	4.37092
3515.77300	4.41916
3513.84443	4.47051
3511.91587	4.52259
3509.98730	4.57372
3508.05874	4.62645
3506.13018	4.67707
3504.20161	4.72222
3502.27305	4.76759
3500.34448	4.81650
3498.41592	4.86741
3496.48735	4.91795
3494.55879	4.96543
3492.63022	5.01088
3490.70166	5.05766
3488.77310	5.10998
3486.84453	5.16336
3484.91597	5.21142
3482.98740	5.25956
3481.05884	5.30619
3479.13027	5.34987
3477.20171	5.39972
3475.27314	5.44853
3473.34458	5.49072
3471.41602	5.53603
3469.48745	5.58574
3467.55889	5.64007
3465.63032	5.70044
3463.70176	5.75918
3461.77319	5.80792
3459.84463	5.85809
3457.91606	5.91530
3455.98750	5.96604
3454.05894	6.01598
3452.13037	6.07543
3450.20181	6.12746
3448.27324	6.16477
3446.34468	6.21304
3444.41611	6.27508
3442.48755	6.32995
3440.55898	6.36992
3438.63042	6.41069
3436.70186	6.46470
3434.77329	6.51993
3432.84473	6.56997
3430.91616	6.62106
3428.98760	6.68036
3427.05903	6.73818
3425.13047	6.79468
3423.20190	6.85031
3421.27334	6.89188
3419.34478	6.91949
3417.41621	6.94068
3415.48765	6.97021
3413.55908	7.02361
3411.63052	7.07571
3409.70195	7.09334
3407.77339	7.11948
3405.84482	7.17136
3403.91626	7.22019
3401.98770	7.25667
3400.05913	7.26876
3398.13057	7.27137
3396.20200	7.32258
3394.27344	7.41116
3392.34487	7.45539
3390.41631	7.48412
3388.48774	7.53014
3386.55918	7.56235
3384.63062	7.58660
3382.70205	7.61832
3380.77349	7.63964
3378.84492	7.65663
3376.91636	7.70891
3374.98779	7.78581
3373.05923	7.85990
3371.13066	7.89680
3369.20210	7.90027
3367.27354	7.92414
3365.34497	7.99486
3363.41641	8.02327
3361.48784	7.92932
3359.55928	7.84512
3357.63071	7.90315
3355.70215	8.05548
3353.77358	8.12019
3351.84502	8.08891
3349.91646	8.07552
3347.98789	8.07948
3346.05933	8.06791
3344.13076	8.07348
3342.20220	8.08321
3340.27363	8.01114
3338.34507	7.93675
3336.41650	7.99504
3334.48794	8.15570
3332.55937	8.23796
3330.63081	8.20137
3328.70225	8.14568
3326.77368	8.10908
3324.84512	8.12392
3322.91655	8.19532
3320.98799	8.24303
3319.05942	8.22400
3317.13086	8.20344
3315.20229	8.15771
3313.27373	8.10161
3311.34517	8.12285
3309.41660	8.21426
3307.48804	8.22442
3305.55947	8.10664
3303.63091	8.11244
3301.70234	8.35235
3299.77378	8.56875
3297.84521	8.45600
3295.91665	8.25757
3293.98809	8.22549
3292.05952	8.33758
3290.13096	8.39760
3288.20239	8.26454
3286.27383	8.18416
3284.34526	8.27701
3282.41670	8.35486
3280.48813	8.34627
3278.55957	8.36711
3276.63101	8.39322
3274.70244	8.35579
3272.77388	8.28035
3270.84531	8.24414
3268.91675	8.27790
3266.98818	8.32672
3265.05962	8.37514
3263.13105	8.39056
3261.20249	8.33347
3259.27393	8.27565
3257.34536	8.29958
3255.41680	8.32699
3253.48823	8.23574
3251.55967	8.10886
3249.63110	8.08368
3247.70254	8.17159
3245.77397	8.24635
3243.84541	8.25698
3241.91685	8.27418
3239.98828	8.29078
3238.05972	8.29959
3236.13115	8.30462
3234.20259	8.23663
3232.27402	8.14339
3230.34546	8.17373
3228.41689	8.30525
3226.48833	8.35074
3224.55977	8.24692
3222.63120	8.14950
3220.70264	8.13420
3218.77407	8.13683
3216.84551	8.11390
3214.91694	8.06512
3212.98838	8.06876
3211.05981	8.18812
3209.13125	8.24410
3207.20269	8.11007
3205.27412	7.97129
3203.34556	7.94188
3201.41699	8.00327
3199.48843	8.03435
3197.55986	7.92317
3195.63130	7.78289
3193.70273	7.72539
3191.77417	7.72160
3189.84561	7.72197
3187.91704	7.70053
3185.98848	7.65927
3184.05991	7.58769
3182.13135	7.49206
3180.20278	7.41323
3178.27422	7.36897
3176.34565	7.38311
3174.41709	7.40219
3172.48853	7.32655
3170.55996	7.20030
3168.63140	7.12411
3166.70283	7.09387
3164.77427	7.04282
3162.84570	6.96608
3160.91714	6.88281
3158.98857	6.80768
3157.06001	6.75943
3155.13145	6.71191
3153.20288	6.64176
3151.27432	6.57497
3149.34575	6.51312
3147.41719	6.44200
3145.48862	6.36986
3143.56006	6.28871
3141.63149	6.20501
3139.70293	6.14039
3137.77437	6.08368
3135.84580	6.01762
3133.91724	5.94555
3131.98867	5.87122
3130.06011	5.79721
3128.13154	5.72576
3126.20298	5.65424
3124.27441	5.58768
3122.34585	5.52311
3120.41729	5.44854
3118.48872	5.36972
3116.56016	5.29983
3114.63159	5.23326
3112.70303	5.15988
3110.77446	5.08329
3108.84590	5.00883
3106.91733	4.93752
3104.98877	4.86623
3103.06021	4.79600
3101.13164	4.72918
3099.20308	4.66138
3097.27451	4.59188
3095.34595	4.52353
3093.41738	4.45584
3091.48882	4.38853
3089.56025	4.32332
3087.63169	4.25915
3085.70312	4.19364
3083.77456	4.12681
3081.84600	4.06004
3079.91743	3.99710
3077.98887	3.93938
3076.06030	3.88227
3074.13174	3.82213
3072.20317	3.76046
3070.27461	3.70112
3068.34604	3.64420
3066.41748	3.58695
3064.48892	3.52933
3062.56035	3.47196
3060.63179	3.41535
3058.70322	3.36020
3056.77466	3.30594
3054.84609	3.25092
3052.91753	3.19522
3050.98896	3.14169
3049.06040	3.09093
3047.13184	3.04101
3045.20327	2.99139
3043.27471	2.94256
3041.34614	2.89430
3039.41758	2.84555
3037.48901	2.79655
3035.56045	2.74900
3033.63188	2.70289
3031.70332	2.65748
3029.77476	2.61263
3027.84619	2.56747
3025.91763	2.52206
3023.98906	2.47756
3022.06050	2.43502
3020.13193	2.39380
3018.20337	2.35203
3016.27480	2.31039
3014.34624	2.27014
3012.41768	2.23102
3010.48911	2.19282
3008.56055	2.15475
3006.63198	2.11657
3004.70342	2.07948
3002.77485	2.04368
3000.84629	2.00830
2998.91772	1.97312
2996.98916	1.93906
2995.06060	1.90668
2993.13203	1.87490
2991.20347	1.84328
2989.27490	1.81233
2987.34634	1.78182
2985.41777	1.75134
2983.48921	1.72117
2981.56064	1.69189
2979.63208	1.66355
2977.70352	1.63597
2975.77495	1.60919
2973.84639	1.58273
2971.91782	1.55610
2969.98926	1.52953
2968.06069	1.50331
2966.13213	1.47754
2964.20356	1.45202
2962.27500	1.42665
2960.34644	1.40167
2958.41787	1.37716
2956.48931	1.35315
2954.56074	1.32957
2952.63218	1.30602
2950.70361	1.28219
2948.77505	1.25862
2946.84648	1.23613
2944.91792	1.21446
2942.98936	1.19294
2941.06079	1.17159
2939.13223	1.15068
2937.20366	1.13011
2935.27510	1.10905
2933.34653	1.08687
2931.41797	1.06460
2929.48940	1.04330
2927.56084	1.02269
2925.63228	1.00226
2923.70371	0.98132
2921.77515	0.95978
2919.84658	0.93852
2917.91802	0.91838
2915.98945	0.90035
2914.06089	0.88560
2912.13232	0.87398
2910.20376	0.86362
2908.27520	0.85261
2906.34663	0.84057
2904.41807	0.82781
2902.48950	0.81457
2900.56094	0.80135
2898.63237	0.78828
2896.70381	0.77552
2894.77524	0.76340
2892.84668	0.75143
2890.91812	0.73949
2888.98955	0.72815
2887.06099	0.71720
2885.13242	0.70625
2883.20386	0.69560
2881.27529	0.68547
2879.34673	0.67549
2877.41816	0.66530
2875.48960	0.65507
2873.56104	0.64490
2871.63247	0.63445
2869.70391	0.62334
2867.77534	0.61169
2865.84678	0.59987
2863.91821	0.58803
2861.98965	0.57621
2860.06108	0.56447
2858.13252	0.55289
2856.20396	0.54135
2854.27539	0.52940
2852.34683	0.51675
2850.41826	0.50449
2848.48970	0.49493
2846.56113	0.48934
2844.63257	0.48636
2842.70400	0.48366
2840.77544	0.47992
2838.84687	0.47496
2836.91831	0.46930
2834.98975	0.46342
2833.06118	0.45749
2831.13262	0.45151
2829.20405	0.44544
2827.27549	0.43925
2825.34692	0.43310
2823.41836	0.42708
2821.48979	0.42107
2819.56123	0.41502
2817.63267	0.40895
2815.70410	0.40312
2813.77554	0.39764
2811.84697	0.39218
2809.91841	0.38645
2807.98984	0.38065
2806.06128	0.37507
2804.13271	0.36980
2802.20415	0.36474
2800.27559	0.35968
2798.34702	0.35459
2796.41846	0.34973
2794.48989	0.34519
2792.56133	0.34073
2790.63276	0.33613
2788.70420	0.33141
2786.77563	0.32675
2784.84707	0.32241
2782.91851	0.31829
2780.98994	0.31411
2779.06138	0.30988
2777.13281	0.30587
2775.20425	0.30197
2773.27568	0.29793
2771.34712	0.29388
2769.41855	0.29008
2767.48999	0.28657
2765.56143	0.28313
2763.63286	0.27956
2761.70430	0.27602
2759.77573	0.27260
2757.84717	0.26925
2755.91860	0.26604
2753.99004	0.26303
2752.06147	0.26008
2750.13291	0.25707
2748.20435	0.25415
2746.27578	0.25139
2744.34722	0.24862
2742.41865	0.24580
2740.49009	0.24312
2738.56152	0.24051
2736.63296	0.23785
2734.70439	0.23511
2732.77583	0.23247
2730.84727	0.23009
2728.91870	0.22788
2726.99014	0.22572
2725.06157	0.22357
2723.13301	0.22139
2721.20444	0.21932
2719.27588	0.21740
2717.34731	0.21546
2715.41875	0.21339
2713.49019	0.21128
2711.56162	0.20934
2709.63306	0.20759
2707.70449	0.20582
2705.77593	0.20401
2703.84736	0.20241
2701.91880	0.20091
2699.99023	0.19930
2698.06167	0.19772
2696.13311	0.19629
2694.20454	0.19489
2692.27598	0.19340
2690.34741	0.19192
2688.41885	0.19063
2686.49028	0.18953
2684.56172	0.18842
2682.63315	0.18723
2680.70459	0.18594
2678.77603	0.18456
2676.84746	0.18323
2674.91890	0.18205
2672.99033	0.18101
2671.06177	0.18000
2669.13320	0.17902
2667.20464	0.17812
2665.27607	0.17714
2663.34751	0.17602
2661.41895	0.17503
2659.49038	0.17428
2657.56182	0.17362
2655.63325	0.17291
2653.70469	0.17210
2651.77612	0.17114
2649.84756	0.17027
2647.91899	0.16964
2645.99043	0.16911
2644.06187	0.16858
2642.13330	0.16797
2640.20474	0.16732
2638.27617	0.16686
2636.34761	0.16647
2634.41904	0.16600
2632.49048	0.16557
2630.56191	0.16518
2628.63335	0.16472
2626.70479	0.16427
2624.77622	0.16388
2622.84766	0.16353
2620.91909	0.16326
2618.99053	0.16303
2617.06196	0.16281
2615.13340	0.16268
2613.20483	0.16263
2611.27627	0.16256
2609.34771	0.16250
2607.41914	0.16241
2605.49058	0.16222
2603.56201	0.16199
2601.63345	0.16196
2599.70488	0.16207
2597.77632	0.16218
2595.84775	0.16230
2593.91919	0.16250
2591.99062	0.16268
2590.06206	0.16269
2588.13350	0.16270
2586.20493	0.16294
2584.27637	0.16329
2582.34780	0.16356
2580.41924	0.16380
2578.49067	0.16407
2576.56211	0.16428
2574.63354	0.16449
2572.70498	0.16477
2570.77642	0.16516
2568.84785	0.16563
2566.91929	0.16613
2564.99072	0.16662
2563.06216	0.16707
2561.13359	0.16744
2559.20503	0.16783
2557.27646	0.16837
2555.34790	0.16899
2553.41934	0.16959
2551.49077	0.17020
2549.56221	0.17073
2547.63364	0.17118
2545.70508	0.17174
2543.77651	0.17245
2541.84795	0.17315
2539.91938	0.17375
2537.99082	0.17441
2536.06226	0.17509
2534.13369	0.17571
2532.20513	0.17642
2530.27656	0.17717
2528.34800	0.17787
2526.41943	0.17859
2524.49087	0.17930
2522.56230	0.18004
2520.63374	0.18090
2518.70518	0.18181
2516.77661	0.18263
2514.84805	0.18343
2512.91948	0.18426
2510.99092	0.18508
2509.06235	0.18587
2507.13379	0.18666
2505.20522	0.18755
2503.27666	0.18845
2501.34810	0.18923
2499.41953	0.18994
2497.49097	0.19073
2495.56240	0.19166
2493.63384	0.19262
2491.70527	0.19352
2489.77671	0.19441
2487.84814	0.19541
2485.91958	0.19645
2483.99102	0.19740
2482.06245	0.19824
2480.13389	0.19904
2478.20532	0.19981
2476.27676	0.20060
2474.34819	0.20146
2472.41963	0.20234
2470.49106	0.20326
2468.56250	0.20428
2466.63394	0.20525
2464.70537	0.20606
2462.77681	0.20694
2460.84824	0.20807
2458.91968	0.20928
2456.99111	0.21036
2455.06255	0.21135
2453.13398	0.21229
2451.20542	0.21310
2449.27686	0.21393
2447.34829	0.21493
2445.41973	0.21598
2443.49116	0.21704
2441.56260	0.21817
2439.63403	0.21934
2437.70547	0.22044
2435.77690	0.22151
2433.84834	0.22253
2431.91978	0.22359
2429.99121	0.22478
2428.06265	0.22599
2426.13408	0.22710
2424.20552	0.22819
2422.27695	0.22936
2420.34839	0.23058
2418.41982	0.23173
2416.49126	0.23275
2414.56270	0.23375
2412.63413	0.23489
2410.70557	0.23604
2408.77700	0.23713
2406.84844	0.23835
2404.91987	0.23971
2402.99131	0.24109
2401.06274	0.24236
2399.13418	0.24355
2397.20562	0.24484
2395.27705	0.24625
2393.34849	0.24757
2391.41992	0.24888
2389.49136	0.25051
2387.56279	0.25283
2385.63423	0.25633
2383.70566	0.26151
2381.77710	0.26852
2379.84854	0.27720
2377.91997	0.28729
2375.99141	0.29867
2374.06284	0.31144
2372.13428	0.32584
2370.20571	0.34182
2368.27715	0.35878
2366.34858	0.37550
2364.42002	0.39001
2362.49146	0.40027
2360.56289	0.40533
2358.63433	0.40586
2356.70576	0.40117
2354.77720	0.38976
2352.84863	0.37436
2350.92007	0.35925
2348.99150	0.35008
2347.06294	0.35044
2345.13437	0.36096
2343.20581	0.37576
2341.27725	0.38435
2339.34868	0.38601
2337.42012	0.38519
2335.49155	0.38388
2333.56299	0.38247
2331.63442	0.38169
2329.70586	0.38120
2327.77729	0.38000
2325.84873	0.37755
2323.92017	0.37404
2321.99160	0.36999
2320.06304	0.36528
2318.13447	0.36004
2316.20591	0.35551
2314.27734	0.35276
2312.34878	0.35153
2310.42021	0.35056
2308.49165	0.34880
2306.56309	0.34623
2304.63452	0.34388
2302.70596	0.34270
2300.77739	0.34254
2298.84883	0.34261
2296.92026	0.34266
2294.99170	0.34267
2293.06313	0.34266
2291.13457	0.34281
2289.20601	0.34320
2287.27744	0.34356
2285.34888	0.34392
2283.42031	0.34480
2281.49175	0.34649
2279.56318	0.34880
2277.63462	0.35141
2275.70605	0.35408
2273.77749	0.35650
2271.84893	0.35870
2269.92036	0.36081
2267.99180	0.36291
2266.06323	0.36502
2264.13467	0.36700
2262.20610	0.36881
2260.27754	0.37052
2258.34897	0.37219
2256.42041	0.37402
2254.49185	0.37615
2252.56328	0.37833
2250.63472	0.38035
2248.70615	0.38238
2246.77759	0.38452
2244.84902	0.38667
2242.92046	0.38879
2240.99189	0.39092
2239.06333	0.39307
2237.13477	0.39524
2235.20620	0.39739
2233.27764	0.39959
2231.34907	0.40189
2229.42051	0.40417
2227.49194	0.40635
2225.56338	0.40856
2223.63481	0.41087
2221.70625	0.41315
2219.77769	0.41540
2217.84912	0.41764
2215.92056	0.41985
2213.99199	0.42198
2212.06343	0.42413
2210.13486	0.42643
2208.20630	0.42875
2206.27773	0.43094
2204.34917	0.43303
2202.42061	0.43504
2200.49204	0.43696
2198.56348	0.43886
2196.63491	0.44089
2194.70635	0.44304
2192.77778	0.44514
2190.84922	0.44712
2188.92065	0.44893
2186.99209	0.45056
2185.06353	0.45226
2183.13496	0.45421
2181.20640	0.45610
2179.27783	0.45771
2177.34927	0.45922
2175.42070	0.46076
2173.49214	0.46231
2171.56357	0.46384
2169.63501	0.46533
2167.70645	0.46667
2165.77788	0.46779
2163.84932	0.46888
2161.92075	0.47009
2159.99219	0.47125
2158.06362	0.47221
2156.13506	0.47308
2154.20649	0.47389
2152.27793	0.47462
2150.34937	0.47525
2148.42080	0.47582
2146.49224	0.47637
2144.56367	0.47689
2142.63511	0.47737
2140.70654	0.47772
2138.77798	0.47789
2136.84941	0.47799
2134.92085	0.47810
2132.99229	0.47806
2131.06372	0.47781
2129.13516	0.47749
2127.20659	0.47724
2125.27803	0.47709
2123.34946	0.47678
2121.42090	0.47620
2119.49233	0.47541
2117.56377	0.47455
2115.63521	0.47376
2113.70664	0.47296
2111.77808	0.47207
2109.84951	0.47110
2107.92095	0.47007
2105.99238	0.46894
2104.06382	0.46769
2102.13525	0.46642
2100.20669	0.46509
2098.27812	0.46355
2096.34956	0.46181
2094.42100	0.46006
2092.49243	0.45842
2090.56387	0.45684
2088.63530	0.45514
2086.70674	0.45321
2084.77817	0.45114
2082.84961	0.44909
2080.92104	0.44700
2078.99248	0.44483
2077.06392	0.44263
2075.13535	0.44038
2073.20679	0.43811
2071.27822	0.43587
2069.34966	0.43356
2067.42109	0.43127
2065.49253	0.42910
2063.56396	0.42669
2061.63540	0.42397
2059.70684	0.42126
2057.77827	0.41857
2055.84971	0.41584
2053.92114	0.41324
2051.99258	0.41070
2050.06401	0.40802
2048.13545	0.40526
2046.20688	0.40255
2044.27832	0.39993
2042.34976	0.39731
2040.42119	0.39451
2038.49263	0.39149
2036.56406	0.38848
2034.63550	0.38560
2032.70693	0.38276
2030.77837	0.37995
2028.84980	0.37716
2026.92124	0.37431
2024.99268	0.37133
2023.06411	0.36838
2021.13555	0.36570
2019.20698	0.36331
2017.27842	0.36087
2015.34985	0.35784
2013.42129	0.35450
2011.49272	0.35140
2009.56416	0.34853
2007.63560	0.34561
2005.70703	0.34270
2003.77847	0.34000
2001.84990	0.33746
1999.92134	0.33488
1997.99277	0.33217
1996.06421	0.32955
1994.13564	0.32753
1992.20708	0.32584
1990.27852	0.32340
1988.34995	0.32026
1986.42139	0.31715
1984.49282	0.31433
1982.56426	0.31176
1980.63569	0.30933
1978.70713	0.30695
1976.77856	0.30460
1974.85000	0.30232
1972.92144	0.30012
1970.99287	0.29812
1969.06431	0.29660
1967.13574	0.29519
1965.20718	0.29300
1963.27861	0.29032
1961.35005	0.28799
1959.42148	0.28592
1957.49292	0.28396
1955.56436	0.28221
1953.63579	0.28050
1951.70723	0.27869
1949.77866	0.27698
1947.85010	0.27559
1945.92153	0.27463
1943.99297	0.27416
1942.06440	0.27321
1940.13584	0.27075
1938.20728	0.26811
1936.27871	0.26641
1934.35015	0.26516
1932.42158	0.26393
1930.49302	0.26259
1928.56445	0.26127
1926.63589	0.26031
1924.70732	0.26019
1922.77876	0.26029
1920.85020	0.25943
1918.92163	0.25843
1916.99307	0.25746
1915.06450	0.25564
1913.13594	0.25407
1911.20737	0.25370
1909.27881	0.25362
1907.35024	0.25274
1905.42168	0.25142
1903.49312	0.25046
1901.56455	0.24978
1899.63599	0.24917
1897.70742	0.24899
1895.77886	0.24917
1893.85029	0.24898
1891.92173	0.24871
1889.99316	0.24919
1888.06460	0.24907
1886.13604	0.24789
1884.20747	0.24697
1882.27891	0.24644
1880.35034	0.24612
1878.42178	0.24604
1876.49321	0.24599
1874.56465	0.24601
1872.63608	0.24675
1870.70752	0.24898
1868.77896	0.25200
1866.85039	0.25230
1864.92183	0.24993
1862.99326	0.24826
1861.06470	0.24796
1859.13613	0.24822
1857.20757	0.24853
1855.27900	0.24888
1853.35044	0.24926
1851.42187	0.24989
1849.49331	0.25113
1847.56475	0.25317
1845.63618	0.25583
1843.70762	0.25777
1841.77905	0.25707
1839.85049	0.25572
1837.92192	0.25598
1835.99336	0.25691
1834.06479	0.25780
1832.13623	0.25978
1830.20767	0.26329
1828.27910	0.26550
1826.35054	0.26568
1824.42197	0.26602
1822.49341	0.26606
1820.56484	0.26621
1818.63628	0.26732
1816.70771	0.26900
1814.77915	0.27079
1812.85059	0.27336
1810.92202	0.27654
1808.99346	0.27865
1807.06489	0.27968
1805.13633	0.28116
1803.20776	0.28422
1801.27920	0.28838
1799.35063	0.29181
1797.42207	0.29386
1795.49351	0.29638
1793.56494	0.30073
1791.63638	0.30564
1789.70781	0.30737
1787.77925	0.30754
1785.85068	0.30996
1783.92212	0.31411
1781.99355	0.31871
1780.06499	0.32334
1778.13643	0.32738
1776.20786	0.33163
1774.27930	0.33796
1772.35073	0.34659
1770.42217	0.35306
1768.49360	0.35611
1766.56504	0.35907
1764.63647	0.36340
1762.70791	0.37004
1760.77935	0.37842
1758.85078	0.38542
1756.92222	0.39240
1754.99365	0.39980
1753.06509	0.40718
1751.13652	0.41804
1749.20796	0.43144
1747.27939	0.44179
1745.35083	0.44934
1743.42227	0.45793
1741.49370	0.46826
1739.56514	0.48048
1737.63657	0.49245
1735.70801	0.50423
1733.77944	0.52317
1731.85088	0.54280
1729.92231	0.55592
1727.99375	0.56946
1726.06519	0.58535
1724.13662	0.60423
1722.20806	0.62506
1720.27949	0.64538
1718.35093	0.67149
1716.42236	0.70767
1714.49380	0.73650
1712.56523	0.75762
1710.63667	0.77971
1708.70811	0.80582
1706.77954	0.83739
1704.85098	0.87465
1702.92241	0.90670
1700.99385	0.93924
1699.06528	0.98856
1697.13672	1.03185
1695.20815	1.07272
1693.27959	1.11224
1691.35103	1.14624
1689.42246	1.18777
1687.49390	1.23196
1685.56533	1.27547
1683.63677	1.34140
1681.70820	1.40563
1679.77964	1.44458
1677.85107	1.48296
1675.92251	1.52950
1673.99395	1.58826
1672.06538	1.64071
1670.13682	1.69240
1668.20825	1.75734
1666.27969	1.80829
1664.35112	1.85309
1662.42256	1.91067
1660.49399	1.97591
1658.56543	2.02824
1656.63687	2.07284
1654.70830	2.11451
1652.77974	2.17272
1650.85117	2.22422
1648.92261	2.24392
1646.99404	2.27064
1645.06548	2.29611
1643.13691	2.31157
1641.20835	2.31993
1639.27979	2.32824
1637.35122	2.33371
1635.42266	2.33266
1633.49409	2.32247
1631.56553	2.30556
1629.63696	2.28740
1627.70840	2.25992
1625.77983	2.22835
1623.85127	2.18795
1621.92271	2.13659
1619.99414	2.08976
1618.06558	2.04597
1616.13701	1.98398
1614.20845	1.91779
1612.27988	1.86687
1610.35132	1.81583
1608.42275	1.76087
1606.49419	1.70552
1604.56562	1.65488
1602.63706	1.60693
1600.70850	1.55968
1598.77993	1.51610
1596.85137	1.47614
1594.92280	1.43722
1592.99424	1.39870
1591.06567	1.36348
1589.13711	1.33073
1587.20854	1.30037
1585.27998	1.27285
1583.35142	1.24744
1581.42285	1.22422
1579.49429	1.20529
1577.56572	1.19017
1575.63716	1.17081
1573.70859	1.15060
1571.78003	1.13759
1569.85146	1.12652
1567.92290	1.11335
1565.99434	1.10237
1564.06577	1.09494
1562.13721	1.09088
1560.20864	1.09205
1558.28008	1.09573
1556.35151	1.09215
1554.42295	1.08730
1552.49438	1.08384
1550.56582	1.08029
1548.63726	1.07512
1546.70869	1.06920
1544.78013	1.06346
1542.85156	1.05643
1540.92300	1.04293
1538.99443	1.01465
1537.06587	0.99051
1535.13730	0.97595
1533.20874	0.95885
1531.28018	0.93910
1529.35161	0.92473
1527.42305	0.91346
1525.49448	0.90259
1523.56592	0.89349
1521.63735	0.88476
1519.70879	0.87336
1517.78022	0.86262
1515.85166	0.85047
1513.92310	0.83727
1511.99453	0.82723
1510.06597	0.82103
1508.13740	0.81742
1506.20884	0.80514
1504.28027	0.78696
1502.35171	0.77669
1500.42314	0.77079
1498.49458	0.76640
1496.56602	0.76011
1494.63745	0.75141
1492.70889	0.74524
1490.78032	0.74277
1488.85176	0.73961
1486.92319	0.73239
1484.99463	0.72506
1483.06606	0.72044
1481.13750	0.71775
1479.20894	0.71590
1477.28037	0.71550
1475.35181	0.71699
1473.42324	0.71878
1471.49468	0.71641
1469.56611	0.71064
1467.63755	0.70692
1465.70898	0.70603
1463.78042	0.70530
1461.85186	0.70423
1459.92329	0.70587
1457.99473	0.71035
1456.06616	0.71048
1454.13760	0.70436
1452.20903	0.69944
1450.28047	0.69634
1448.35190	0.69400
1446.42334	0.69099
1444.49478	0.68751
1442.56621	0.68463
1440.63765	0.68252
1438.70908	0.68151
1436.78052	0.68058
1434.85195	0.67727
1432.92339	0.67372
1430.99482	0.67205
1429.06626	0.67092
1427.13770	0.66968
1425.20913	0.66981
1423.28057	0.67102
1421.35200	0.67214
1419.42344	0.67375
1417.49487	0.67365
1415.56631	0.67042
1413.63774	0.66763
1411.70918	0.66655
1409.78062	0.66639
1407.85205	0.66681
1405.92349	0.66809
1403.99492	0.66904
1402.06636	0.66876
1400.13779	0.66862
1398.20923	0.66851
1396.28066	0.66694
1394.35210	0.66317
1392.42354	0.65784
1390.49497	0.65337
1388.56641	0.65030
1386.63784	0.64653
1384.70928	0.64126
1382.78071	0.63631
1380.85215	0.63254
1378.92358	0.62985
1376.99502	0.62829
1375.06646	0.62779
1373.13789	0.62686
1371.20933	0.62510
1369.28076	0.62381
1367.35220	0.62270
1365.42363	0.62177
1363.49507	0.62165
1361.56650	0.62071
1359.63794	0.61808
1357.70937	0.61568
1355.78081	0.61408
1353.85225	0.61267
1351.92368	0.61133
1349.99512	0.61033
1348.06655	0.60934
1346.13799	0.60813
1344.20942	0.60714
1342.28086	0.60705
1340.35229	0.60775
1338.42373	0.60752
1336.49517	0.60565
1334.56660	0.60374
1332.63804	0.60275
1330.70947	0.60249
1328.78091	0.60258
1326.85234	0.60277
1324.92378	0.60311
1322.99521	0.60379
1321.06665	0.60477
1319.13809	0.60564
1317.20952	0.60576
1315.28096	0.60522
1313.35239	0.60441
1311.42383	0.60331
1309.49526	0.60220
1307.56670	0.60121
1305.63813	0.60020
1303.70957	0.59915
1301.78101	0.59803
1299.85244	0.59694
1297.92388	0.59594
1295.99531	0.59481
1294.06675	0.59350
1292.13818	0.59219
1290.20962	0.59099
1288.28105	0.58974
1286.35249	0.58838
1284.42393	0.58716
1282.49536	0.58610
1280.56680	0.58489
1278.63823	0.58350
1276.70967	0.58213
1274.78110	0.58109
1272.85254	0.58040
1270.92397	0.57970
1268.99541	0.57886
1267.06685	0.57808
1265.13828	0.57728
1263.20972	0.57649
1261.28115	0.57594
1259.35259	0.57538
1257.42402	0.57467
1255.49546	0.57408
1253.56689	0.57371
1251.63833	0.57351
1249.70977	0.57351
1247.78120	0.57350
1245.85264	0.57322
1243.92407	0.57265
1241.99551	0.57183
1240.06694	0.57064
1238.13838	0.56912
1236.20981	0.56731
1234.28125	0.56526
1232.35269	0.56321
1230.42412	0.56136
1228.49556	0.55958
1226.56699	0.55772
1224.63843	0.55582
1222.70986	0.55402
1220.78130	0.55236
1218.85273	0.55087
1216.92417	0.54964
1214.99561	0.54866
1213.06704	0.54780
1211.13848	0.54702
1209.20991	0.54637
1207.28135	0.54581
1205.35278	0.54521
1203.42422	0.54447
1201.49565	0.54360
1199.56709	0.54272
1197.63853	0.54180
1195.70996	0.54082
1193.78140	0.53984
1191.85283	0.53886
1189.92427	0.53808
1187.99570	0.53767
1186.06714	0.53745
1184.13857	0.53736
1182.21001	0.53766
1180.28145	0.53856
1178.35288	0.53991
1176.42432	0.54135
1174.49575	0.54260
1172.56719	0.54365
1170.63862	0.54445
1168.71006	0.54493
1166.78149	0.54538
1164.85293	0.54600
1162.92437	0.54665
1160.99580	0.54712
1159.06724	0.54727
1157.13867	0.54704
1155.21011	0.54642
1153.28154	0.54524
1151.35298	0.54349
1149.42441	0.54130
1147.49585	0.53874
1145.56729	0.53583
1143.63872	0.53278
1141.71016	0.53012
1139.78159	0.52817
1137.85303	0.52688
1135.92446	0.52621
1133.99590	0.52604
1132.06733	0.52606
1130.13877	0.52619
1128.21021	0.52633
1126.28164	0.52630
1124.35308	0.52599
1122.42451	0.52551
1120.49595	0.52510
1118.56738	0.52506
1116.63882	0.52548
1114.71025	0.52624
1112.78169	0.52714
1110.85312	0.52804
1108.92456	0.52890
1106.99600	0.52984
1105.06743	0.53099
1103.13887	0.53223
1101.21030	0.53326
1099.28174	0.53426
1097.35317	0.53594
1095.42461	0.53861
1093.49604	0.54211
1091.56748	0.54680
1089.63892	0.55314
1087.71035	0.56090
1085.78179	0.56966
1083.85322	0.57886
1081.92466	0.58720
1079.99609	0.59304
1078.06753	0.59550
1076.13896	0.59473
1074.21040	0.59126
1072.28184	0.58568
1070.35327	0.57878
1068.42471	0.57167
1066.49614	0.56490
1064.56758	0.55838
1062.63901	0.55251
1060.71045	0.54787
1058.78188	0.54407
1056.85332	0.54054
1054.92476	0.53722
1052.99619	0.53418
1051.06763	0.53177
1049.13906	0.53030
1047.21050	0.52972
1045.28193	0.52982
1043.35337	0.53021
1041.42480	0.53060
1039.49624	0.53090
1037.56768	0.53090
1035.63911	0.53055
1033.71055	0.53014
1031.78198	0.52945
1029.85342	0.52783
1027.92485	0.52565
1025.99629	0.52369
1024.06772	0.52211
1022.13916	0.52084
1020.21060	0.51995
1018.28203	0.51948
1016.35347	0.51921
1014.42490	0.51886
1012.49634	0.51839
1010.56777	0.51799
1008.63921	0.51781
1006.71064	0.51787
1004.78208	0.51838
1002.85352	0.51977
1000.92495	0.52226
998.99639	0.52566
997.06782	0.52971
995.13926	0.53413
993.21069	0.53844
991.28213	0.54185
989.35356	0.54377
987.42500	0.54418
985.49644	0.54370
983.56787	0.54326
981.63931	0.54345
979.71074	0.54425
977.78218	0.54539
975.85361	0.54694
973.92505	0.54915
971.99648	0.55195
970.06792	0.55537
968.13936	0.55943
966.21079	0.56378
964.28223	0.56824
962.35366	0.57299
960.42510	0.57799
958.49653	0.58310
956.56797	0.58855
954.63940	0.59451
952.71084	0.60070
950.78228	0.60694
948.85371	0.61329
946.92515	0.61957
944.99658	0.62573
943.06802	0.63202
941.13945	0.63834
939.21089	0.64456
937.28232	0.65063
935.35376	0.65667
933.42520	0.66291
931.49663	0.66893
929.56807	0.67447
927.63950	0.68012
925.71094	0.68604
923.78237	0.69193
921.85381	0.69807
919.92524	0.70504
917.99668	0.71269
916.06812	0.72079
914.13955	0.72908
912.21099	0.73693
910.28242	0.74425
908.35386	0.75143
906.42529	0.75936
904.49673	0.76867
902.56816	0.77860
900.63960	0.78846
898.71104	0.79845
896.78247	0.80848
894.85391	0.81815
892.92534	0.82795
890.99678	0.83814
889.06821	0.84801
887.13965	0.85792
885.21108	0.86945
883.28252	0.88239
881.35396	0.89476
879.42539	0.90664
877.49683	0.91929
875.56826	0.93201
873.63970	0.94332
871.71113	0.95387
869.78257	0.96426
867.85400	0.97407
865.92544	0.98481
863.99687	0.99643
862.06831	1.00777
860.13975	1.02004
858.21118	1.03297
856.28262	1.04615
854.35405	1.05974
852.42549	1.07131
850.49692	1.08087
848.56836	1.09134
846.63979	1.10362
844.71123	1.11605
842.78267	1.12653
840.85410	1.13668
838.92554	1.14829
836.99697	1.15975
835.06841	1.17134
833.13984	1.18308
831.21128	1.19039
829.28271	1.19625
827.35415	1.20783
825.42559	1.21832
823.49702	1.22342
821.56846	1.22959
819.63989	1.23660
817.71133	1.24274
815.78276	1.25710
813.85420	1.28342
811.92563	1.30229
809.99707	1.30257
808.06851	1.29807
806.13994	1.29569
804.21138	1.29772
802.28281	1.30974
800.35425	1.32479
798.42568	1.33122
796.49712	1.32474
794.56855	1.31306
792.63999	1.31293
790.71143	1.31406
788.78286	1.30078
786.85430	1.30030
784.92573	1.32479
782.99717	1.32929
781.06860	1.31245
779.14004	1.32840
777.21147	1.35956
775.28291	1.34634
773.35435	1.31001
771.42578	1.29944
769.49722	1.29326
767.56865	1.24691
765.64009	1.20779
763.71152	1.21996
761.78296	1.21474
759.85439	1.16070
757.92583	1.14231
755.99727	1.20708
754.06870	1.35867
752.14014	1.47971
750.21157	1.41092
748.28301	1.25201
746.35444	1.09580
744.42588	0.98686
742.49731	0.92152
740.56875	0.91497
738.64019	0.97122
736.71162	0.97036
734.78306	0.88868
732.85449	0.86240
730.92593	0.93438
728.99736	1.01999
727.06880	0.75218
725.14023	0.40007
723.21167	0.21438
721.28311	0.15841
719.35454	0.13025
717.42598	0.09516
715.49741	0.06212
713.56885	0.07398
711.64028	0.09742
709.71172	0.07796
707.78315	0.15139
705.85459	0.27500
703.92603	0.18492
701.99746	-0.01009
700.06890	-0.14538
698.14033	-0.18661
696.21177	-0.13855
694.28320	-0.08599
692.35464	-0.05231
690.42607	-0.00684
688.49751	0.05442
686.56895	0.15615
684.64038	0.25041
682.71182	0.20157
680.78325	0.10219
678.85469	0.04719
676.92612	0.03183
674.99756	0.05916
673.06899	0.13600
671.14043	0.18229
669.21187	0.19133
667.28330	0.18761
665.35474	0.10775
663.42617	0.03139
661.49761	0.09798
659.56904	0.17299
657.64048	0.14905
655.71191	0.10497
653.78335	0.11890
651.85479	0.15881
649.92622	0.08167
647.99766	0.04289
646.06909	0.09195
644.14053	0.11956
642.21196	0.09760
640.28340	0.07285
638.35483	0.05653
636.42627	0.05274
634.49771	0.05923
632.56914	0.03191
630.64058	0.00582
628.71201	0.09665
626.78345	0.20716
624.85488	0.20087
622.92632	0.13333
620.99775	0.05578
619.06919	0.02572
617.14062	0.02763
615.21206	0.03761
613.28350	0.07059
611.35493	0.10962
609.42637	0.08378
607.49780	0.01574
605.56924	0.00088
603.64067	0.03025
601.71211	0.04328
599.78354	0.01501
597.85498	-0.01208
595.92642	-0.00841
593.99785	0.00611
592.06929	0.07445
590.14072	0.20919
588.21216	0.24532
586.28359	0.17146
584.35503	0.07431
582.42646	-0.00759
580.49790	-0.05187
578.56934	-0.07083
576.64077	-0.02285
574.71221	0.10327
572.78364	0.19077
570.85508	0.23730
568.92651	0.34358
566.99795	0.40420
565.06938	0.26663
563.14082	0.11577
561.21226	0.06949
559.28369	0.09102
557.35513	0.12269
555.42656	0.13502
553.49800	0.12148
551.56943	0.06714
549.64087	-0.00110
547.71230	-0.00496
545.78374	0.06101
543.85518	0.08911
541.92661	0.07809
539.99805	0.12829
538.06948	0.15804
536.14092	0.13866
534.21235	0.17559
532.28379	0.30782
530.35522	0.39836
528.42666	0.27499
526.49810	0.16037
524.56953	0.13300
522.64097	0.13535
520.71240	0.10984
518.78384	0.09899
516.85527	0.14857
514.92671	0.20295
512.99814	0.17783
511.06958	0.11461
509.14102	0.07108
507.21245	0.05584
505.28389	0.06999
503.35532	0.10608
501.42676	0.13109
499.49819	0.08870
