3997.91411	0.06892
3995.98555	0.06914
3994.05698	0.06990
3992.12842	0.07056
3990.19985	0.07103
3988.27129	0.07143
3986.34272	0.07177
3984.41416	0.07195
3982.48560	0.07165
3980.55703	0.07121
3978.62847	0.07123
3976.69990	0.07150
3974.77134	0.07161
3972.84277	0.07177
3970.91421	0.07217
3968.98564	0.07251
3967.05708	0.07258
3965.12852	0.07246
3963.19995	0.07274
3961.27139	0.07362
3959.34282	0.07428
3957.41426	0.07418
3955.48569	0.07375
3953.55713	0.07351
3951.62856	0.07369
3949.70000	0.07425
3947.77144	0.07464
3945.84287	0.07465
3943.91431	0.07486
3941.98574	0.07509
3940.05718	0.07455
3938.12861	0.07372
3936.20005	0.07331
3934.27148	0.07322
3932.34292	0.07337
3930.41436	0.07395
3928.48579	0.07452
3926.55723	0.07457
3924.62866	0.07433
3922.70010	0.07410
3920.77153	0.07401
3918.84297	0.07393
3916.91440	0.07335
3914.98584	0.07236
3913.05728	0.07161
3911.12871	0.07148
3909.20015	0.07184
3907.27158	0.07217
3905.34302	0.07255
3903.41445	0.07319
3901.48589	0.07347
3899.55732	0.07314
3897.62876	0.07262
3895.70020	0.07228
3893.77163	0.07237
3891.84307	0.07310
3889.91450	0.07375
3887.98594	0.07370
3886.05737	0.07405
3884.12881	0.07459
3882.20024	0.07412
3880.27168	0.07352
3878.34312	0.07364
3876.41455	0.07427
3874.48599	0.07510
3872.55742	0.07581
3870.62886	0.07647
3868.70029	0.07710
3866.77173	0.07695
3864.84316	0.07657
3862.91460	0.07676
3860.98604	0.07713
3859.05747	0.07736
3857.12891	0.07757
3855.20034	0.07793
3853.27178	0.07902
3851.34321	0.08008
3849.41465	0.07953
3847.48608	0.07906
3845.55752	0.07935
3843.62896	0.08001
3841.70039	0.08082
3839.77183	0.08212
3837.84326	0.08372
3835.91470	0.08421
3833.98613	0.08387
3832.05757	0.08410
3830.12900	0.08479
3828.20044	0.08545
3826.27187	0.08605
3824.34331	0.08643
3822.41475	0.08720
3820.48618	0.08902
3818.55762	0.09048
3816.62905	0.09096
3814.70049	0.09116
3812.77192	0.09118
3810.84336	0.09177
3808.91479	0.09299
3806.98623	0.09430
3805.05767	0.09556
3803.12910	0.09695
3801.20054	0.09850
3799.27197	0.09962
3797.34341	0.10030
3795.41484	0.10117
3793.48628	0.10194
3791.55771	0.10291
3789.62915	0.10436
3787.70059	0.10583
3785.77202	0.10721
3783.84346	0.10851
3781.91489	0.10962
3779.98633	0.11103
3778.05776	0.11310
3776.12920	0.11492
3774.20063	0.11609
3772.27207	0.11720
3770.34351	0.11903
3768.41494	0.12152
3766.48638	0.12376
3764.55781	0.12572
3762.62925	0.12732
3760.70068	0.12905
3758.77212	0.13159
3756.84355	0.13407
3754.91499	0.13603
3752.98643	0.13838
3751.05786	0.14150
3749.12930	0.14512
3747.20073	0.14825
3745.27217	0.15126
3743.34360	0.15515
3741.41504	0.15853
3739.48647	0.16115
3737.55791	0.16460
3735.62935	0.16998
3733.70078	0.17622
3731.77222	0.18057
3729.84365	0.18370
3727.91509	0.18695
3725.98652	0.19169
3724.05796	0.19813
3722.12939	0.20457
3720.20083	0.21090
3718.27227	0.21789
3716.34370	0.22512
3714.41514	0.23249
3712.48657	0.24222
3710.55801	0.25605
3708.62944	0.26975
3706.70088	0.28018
3704.77231	0.29018
3702.84375	0.30238
3700.91519	0.31870
3698.98662	0.33697
3697.05806	0.35451
3695.12949	0.37316
3693.20093	0.39292
3691.27236	0.41386
3689.34380	0.44000
3687.41523	0.47189
3685.48667	0.50065
3683.55811	0.52635
3681.62954	0.55443
3679.70098	0.58609
3677.77241	0.61893
3675.84385	0.65707
3673.91528	0.70852
3671.98672	0.75134
3670.05815	0.78905
3668.12959	0.84050
3666.20103	0.88833
3664.27246	0.92849
3662.34390	0.97114
3660.41533	1.01707
3658.48677	1.06236
3656.55820	1.11056
3654.62964	1.16418
3652.70107	1.20944
3650.77251	1.24917
3648.84395	1.30357
3646.91538	1.37031
3644.98682	1.42013
3643.05825	1.45861
3641.12969	1.49809
3639.20112	1.54110
3637.27256	1.58361
3635.34399	1.62521
3633.41543	1.66786
3631.48687	1.70830
3629.55830	1.74887
3627.62974	1.80167
3625.70117	1.85153
3623.77261	1.88532
3621.84404	1.91711
3619.91548	1.95334
3617.98691	1.99796
3616.05835	2.04221
3614.12979	2.07909
3612.20122	2.11730
3610.27266	2.15670
3608.34409	2.19694
3606.41553	2.23903
3604.48696	2.27765
3602.55840	2.31274
3600.62983	2.35074
3598.70127	2.39149
3596.77271	2.43181
3594.84414	2.47312
3592.91558	2.51447
3590.98701	2.55177
3589.05845	2.58584
3587.12988	2.62715
3585.20132	2.67566
3583.27275	2.71941
3581.34419	2.75909
3579.41562	2.79931
3577.48706	2.84074
3575.55850	2.88307
3573.62993	2.92748
3571.70137	2.97083
3569.77280	3.01040
3567.84424	3.05149
3565.91567	3.10327
3563.98711	3.15452
3562.05854	3.19684
3560.12998	3.23909
3558.20142	3.28244
3556.27285	3.32508
3554.34429	3.36731
3552.41572	3.41302
3550.48716	3.46230
3548.55859	3.50985
3546.63003	3.55564
3544.70146	3.60360
3542.77290	3.65211
3540.84434	3.69959
3538.91577	3.74736
3536.98721	3.79437
3535.05864	3.84160
3533.13008	3.88905
3531.20151	3.93668
3529.27295	3.98606
3527.34438	4.03724
3525.41582	4.08530
3523.48726	4.12844
3521.55869	4.17229
3519.63013	4.22008
3517.70156	4.27002
3515.77300	4.31694
3513.84443	4.36210
3511.91587	4.41148
3509.98730	4.46295
3508.05874	4.51208
3506.13018	4.56092
3504.20161	4.60806
3502.27305	4.65271
3500.34448	4.70064
3498.41592	4.75006
3496.48735	4.79738
3494.55879	4.84734
3492.63022	4.90065
3490.70166	4.94975
3488.77310	4.99586
3486.84453	5.04572
3484.91597	5.09532
3482.98740	5.13789
3481.05884	5.18075
3479.13027	5.23210
3477.20171	5.28832
3475.27314	5.34071
3473.34458	5.38062
3471.41602	5.41734
3469.48745	5.46619
3467.55889	5.52175
3465.63032	5.57479
3463.70176	5.62618
3461.77319	5.67172
3459.84463	5.71522
3457.91606	5.76807
3455.98750	5.82227
3454.05894	5.86948
3452.13037	5.91613
3450.20181	5.96294
3448.27324	6.01424
3446.34468	6.07497
3444.41611	6.12764
3442.48755	6.16827
3440.55898	6.20759
3438.63042	6.25558
3436.70186	6.31268
3434.77329	6.37102
3432.84473	6.43128
3430.91616	6.48681
3428.98760	6.53308
3427.05903	6.56831
3425.13047	6.59927
3423.20190	6.63889
3421.27334	6.69971
3419.34478	6.78662
3417.41621	6.87737
3415.48765	6.93513
3413.55908	6.94622
3411.63052	6.94899
3409.70195	6.98563
3407.77339	7.05031
3405.84482	7.09562
3403.91626	7.11059
3401.98770	7.12310
3400.05913	7.15356
3398.13057	7.19971
3396.20200	7.24988
3394.27344	7.31274
3392.34487	7.37259
3390.41631	7.40021
3388.48774	7.41472
3386.55918	7.46797
3384.63062	7.53240
3382.70205	7.57147
3380.77349	7.61058
3378.84492	7.63374
3376.91636	7.65666
3374.98779	7.73323
3373.05923	7.82311
3371.13066	7.83876
3369.20210	7.82211
3367.27354	7.82870
3365.34497	7.84461
3363.41641	7.84515
3361.48784	7.84481
3359.55928	7.89159
3357.63071	7.95571
3355.70215	7.94893
3353.77358	7.89153
3351.84502	7.91284
3349.91646	7.97798
3347.98789	7.96971
3346.05933	7.91064
3344.13076	7.86427
3342.20220	7.85582
3340.27363	7.89208
3338.34507	7.96297
3336.41650	8.00854
3334.48794	8.04305
3332.55937	8.08592
3330.63081	8.07364
3328.70225	8.00270
3326.77368	7.97554
3324.84512	8.04334
3322.91655	8.09939
3320.98799	8.08357
3319.05942	8.05427
3317.13086	8.04647
3315.20229	8.07258
3313.27373	8.13911
3311.34517	8.17192
3309.41660	8.14927
3307.48804	8.12491
3305.55947	8.07529
3303.63091	8.05302
3301.70234	8.15567
3299.77378	8.33411
3297.84521	8.37851
3295.91665	8.24775
3293.98809	8.11521
3292.05952	8.11069
3290.13096	8.23106
3288.20239	8.29721
3286.27383	8.20123
3284.34526	8.06914
3282.41670	8.01170
3280.48813	8.01013
3278.55957	8.02910
3276.63101	8.05972
3274.70244	8.10973
3272.77388	8.18548
3270.84531	8.27958
3268.91675	8.39077
3266.98818	8.40100
3265.05962	8.26500
3263.13105	8.16394
3261.20249	8.15311
3259.27393	8.13775
3257.34536	8.15437
3255.41680	8.25007
3253.48823	8.29844
3251.55967	8.24996
3249.63110	8.20071
3247.70254	8.19294
3245.77397	8.20790
3243.84541	8.23467
3241.91685	8.23338
3239.98828	8.16235
3238.05972	8.07404
3236.13115	8.01723
3234.20259	7.98325
3232.27402	7.95165
3230.34546	7.94259
3228.41689	8.00903
3226.48833	8.11354
3224.55977	8.17062
3222.63120	8.18738
3220.70264	8.14144
3218.77407	8.03730
3216.84551	7.99280
3214.91694	8.00241
3212.98838	7.96185
3211.05981	7.90874
3209.13125	7.90324
3207.20269	7.92570
3205.27412	7.94378
3203.34556	7.91586
3201.41699	7.86879
3199.48843	7.83327
3197.55986	7.77925
3195.63130	7.72142
3193.70273	7.70114
3191.77417	7.69914
3189.84561	7.66566
3187.91704	7.60927
3185.98848	7.53782
3184.05991	7.43220
3182.13135	7.36035
3180.20278	7.37648
3178.27422	7.41971
3176.34565	7.40680
3174.41709	7.30192
3172.48853	7.17579
3170.55996	7.08811
3168.63140	7.00362
3166.70283	6.93859
3164.77427	6.91057
3162.84570	6.87019
3160.91714	6.81394
3158.98857	6.76165
3157.06001	6.69699
3155.13145	6.61124
3153.20288	6.53445
3151.27432	6.49005
3149.34575	6.43879
3147.41719	6.34819
3145.48862	6.24769
3143.56006	6.16993
3141.63149	6.11508
3139.70293	6.06186
3137.77437	6.00349
3135.84580	5.94224
3133.91724	5.87776
3131.98867	5.80797
3130.06011	5.72954
3128.13154	5.65624
3126.20298	5.58928
3124.27441	5.51020
3122.34585	5.43052
3120.41729	5.36477
3118.48872	5.29628
3116.56016	5.22167
3114.63159	5.15244
3112.70303	5.08803
3110.77446	5.02028
3108.84590	4.94480
3106.91733	4.86777
3104.98877	4.79475
3103.06021	4.72730
3101.13164	4.66508
3099.20308	4.60258
3097.27451	4.53239
3095.34595	4.45844
3093.41738	4.39174
3091.48882	4.33159
3089.56025	4.27090
3087.63169	4.20397
3085.70312	4.12992
3083.77456	4.05797
3081.84600	3.99620
3079.91743	3.93901
3077.98887	3.87768
3076.06030	3.81397
3074.13174	3.75334
3072.20317	3.69537
3070.27461	3.63607
3068.34604	3.57422
3066.41748	3.51319
3064.48892	3.45677
3062.56035	3.40311
3060.63179	3.34858
3058.70322	3.29350
3056.77466	3.23884
3054.84609	3.18474
3052.91753	3.13103
3050.98896	3.07752
3049.06040	3.02462
3047.13184	2.97336
3045.20327	2.92399
3043.27471	2.87505
3041.34614	2.82504
3039.41758	2.77475
3037.48901	2.72586
3035.56045	2.67827
3033.63188	2.63164
3031.70332	2.58559
3029.77476	2.54001
3027.84619	2.49595
3025.91763	2.45268
3023.98906	2.40975
3022.06050	2.36819
3020.13193	2.32708
3018.20337	2.28536
3016.27480	2.24395
3014.34624	2.20386
3012.41768	2.16486
3010.48911	2.12648
3008.56055	2.08882
3006.63198	2.05188
3004.70342	2.01531
3002.77485	1.97920
3000.84629	1.94375
2998.91772	1.90870
2996.98916	1.87457
2995.06060	1.84140
2993.13203	1.80849
2991.20347	1.77631
2989.27490	1.74508
2987.34634	1.71463
2985.41777	1.68476
2983.48921	1.65525
2981.56064	1.62631
2979.63208	1.59777
2977.70352	1.56922
2975.77495	1.54127
2973.84639	1.51442
2971.91782	1.48783
2969.98926	1.46114
2968.06069	1.43498
2966.13213	1.40951
2964.20356	1.38465
2962.27500	1.36015
2960.34644	1.33545
2958.41787	1.31056
2956.48931	1.28645
2954.56074	1.26378
2952.63218	1.24174
2950.70361	1.21955
2948.77505	1.19762
2946.84648	1.17607
2944.91792	1.15443
2942.98936	1.13275
2941.06079	1.11165
2939.13223	1.09149
2937.20366	1.07195
2935.27510	1.05252
2933.34653	1.03345
2931.41797	1.01486
2929.48940	0.99590
2927.56084	0.97630
2925.63228	0.95722
2923.70371	0.93952
2921.77515	0.92280
2919.84658	0.90665
2917.91802	0.89126
2915.98945	0.87591
2914.06089	0.86008
2912.13232	0.84480
2910.20376	0.83016
2908.27520	0.81533
2906.34663	0.80093
2904.41807	0.78759
2902.48950	0.77454
2900.56094	0.76104
2898.63237	0.74763
2896.70381	0.73508
2894.77524	0.72310
2892.84668	0.71111
2890.91812	0.69921
2888.98955	0.68769
2887.06099	0.67668
2885.13242	0.66599
2883.20386	0.65526
2881.27529	0.64449
2879.34673	0.63387
2877.41816	0.62345
2875.48960	0.61317
2873.56104	0.60298
2871.63247	0.59285
2869.70391	0.58262
2867.77534	0.57227
2865.84678	0.56193
2863.91821	0.55148
2861.98965	0.54106
2860.06108	0.53092
2858.13252	0.52103
2856.20396	0.51140
2854.27539	0.50215
2852.34683	0.49343
2850.41826	0.48535
2848.48970	0.47793
2846.56113	0.47102
2844.63257	0.46402
2842.70400	0.45710
2840.77544	0.45073
2838.84687	0.44455
2836.91831	0.43844
2834.98975	0.43254
2833.06118	0.42653
2831.13262	0.42035
2829.20405	0.41434
2827.27549	0.40846
2825.34692	0.40240
2823.41836	0.39629
2821.48979	0.39047
2819.56123	0.38494
2817.63267	0.37934
2815.70410	0.37367
2813.77554	0.36830
2811.84697	0.36303
2809.91841	0.35758
2807.98984	0.35224
2806.06128	0.34714
2804.13271	0.34231
2802.20415	0.33779
2800.27559	0.33320
2798.34702	0.32833
2796.41846	0.32346
2794.48989	0.31894
2792.56133	0.31467
2790.63276	0.31038
2788.70420	0.30611
2786.77563	0.30192
2784.84707	0.29763
2782.91851	0.29342
2780.98994	0.28957
2779.06138	0.28581
2777.13281	0.28206
2775.20425	0.27851
2773.27568	0.27491
2771.34712	0.27133
2769.41855	0.26801
2767.48999	0.26469
2765.56143	0.26113
2763.63286	0.25752
2761.70430	0.25421
2759.77573	0.25113
2757.84717	0.24807
2755.91860	0.24505
2753.99004	0.24217
2752.06147	0.23932
2750.13291	0.23647
2748.20435	0.23380
2746.27578	0.23130
2744.34722	0.22881
2742.41865	0.22635
2740.49009	0.22398
2738.56152	0.22159
2736.63296	0.21915
2734.70439	0.21676
2732.77583	0.21431
2730.84727	0.21184
2728.91870	0.20960
2726.99014	0.20765
2725.06157	0.20574
2723.13301	0.20374
2721.20444	0.20182
2719.27588	0.19993
2717.34731	0.19792
2715.41875	0.19602
2713.49019	0.19434
2711.56162	0.19264
2709.63306	0.19092
2707.70449	0.18930
2705.77593	0.18765
2703.84736	0.18600
2701.91880	0.18449
2699.99023	0.18304
2698.06167	0.18154
2696.13311	0.18002
2694.20454	0.17852
2692.27598	0.17715
2690.34741	0.17587
2688.41885	0.17465
2686.49028	0.17354
2684.56172	0.17246
2682.63315	0.17140
2680.70459	0.17024
2678.77603	0.16902
2676.84746	0.16795
2674.91890	0.16696
2672.99033	0.16587
2671.06177	0.16493
2669.13320	0.16410
2667.20464	0.16323
2665.27607	0.16235
2663.34751	0.16138
2661.41895	0.16030
2659.49038	0.15930
2657.56182	0.15850
2655.63325	0.15790
2653.70469	0.15732
2651.77612	0.15663
2649.84756	0.15599
2647.91899	0.15547
2645.99043	0.15489
2644.06187	0.15433
2642.13330	0.15389
2640.20474	0.15345
2638.27617	0.15302
2636.34761	0.15261
2634.41904	0.15212
2632.49048	0.15164
2630.56191	0.15123
2628.63335	0.15084
2626.70479	0.15045
2624.77622	0.15011
2622.84766	0.14981
2620.91909	0.14955
2618.99053	0.14935
2617.06196	0.14914
2615.13340	0.14893
2613.20483	0.14892
2611.27627	0.14904
2609.34771	0.14901
2607.41914	0.14888
2605.49058	0.14884
2603.56201	0.14889
2601.63345	0.14897
2599.70488	0.14903
2597.77632	0.14910
2595.84775	0.14922
2593.91919	0.14928
2591.99062	0.14929
2590.06206	0.14933
2588.13350	0.14951
2586.20493	0.14983
2584.27637	0.15014
2582.34780	0.15042
2580.41924	0.15080
2578.49067	0.15120
2576.56211	0.15148
2574.63354	0.15173
2572.70498	0.15206
2570.77642	0.15248
2568.84785	0.15297
2566.91929	0.15345
2564.99072	0.15385
2563.06216	0.15418
2561.13359	0.15451
2559.20503	0.15503
2557.27646	0.15565
2555.34790	0.15624
2553.41934	0.15691
2551.49077	0.15757
2549.56221	0.15808
2547.63364	0.15859
2545.70508	0.15917
2543.77651	0.15974
2541.84795	0.16036
2539.91938	0.16099
2537.99082	0.16162
2536.06226	0.16233
2534.13369	0.16310
2532.20513	0.16387
2530.27656	0.16448
2528.34800	0.16499
2526.41943	0.16573
2524.49087	0.16670
2522.56230	0.16757
2520.63374	0.16826
2518.70518	0.16902
2516.77661	0.16995
2514.84805	0.17086
2512.91948	0.17164
2510.99092	0.17241
2509.06235	0.17323
2507.13379	0.17408
2505.20522	0.17487
2503.27666	0.17559
2501.34810	0.17636
2499.41953	0.17723
2497.49097	0.17811
2495.56240	0.17892
2493.63384	0.17969
2491.70527	0.18052
2489.77671	0.18141
2487.84814	0.18227
2485.91958	0.18316
2483.99102	0.18413
2482.06245	0.18504
2480.13389	0.18595
2478.20532	0.18697
2476.27676	0.18789
2474.34819	0.18875
2472.41963	0.18977
2470.49106	0.19080
2468.56250	0.19168
2466.63394	0.19252
2464.70537	0.19341
2462.77681	0.19439
2460.84824	0.19534
2458.91968	0.19616
2456.99111	0.19713
2455.06255	0.19824
2453.13398	0.19926
2451.20542	0.20027
2449.27686	0.20134
2447.34829	0.20226
2445.41973	0.20303
2443.49116	0.20391
2441.56260	0.20502
2439.63403	0.20628
2437.70547	0.20756
2435.77690	0.20866
2433.84834	0.20952
2431.91978	0.21039
2429.99121	0.21148
2428.06265	0.21261
2426.13408	0.21364
2424.20552	0.21476
2422.27695	0.21595
2420.34839	0.21706
2418.41982	0.21819
2416.49126	0.21938
2414.56270	0.22058
2412.63413	0.22180
2410.70557	0.22296
2408.77700	0.22407
2406.84844	0.22524
2404.91987	0.22645
2402.99131	0.22768
2401.06274	0.22891
2399.13418	0.23005
2397.20562	0.23117
2395.27705	0.23242
2393.34849	0.23362
2391.41992	0.23479
2389.49136	0.23607
2387.56279	0.23749
2385.63423	0.23903
2383.70566	0.24072
2381.77710	0.24264
2379.84854	0.24479
2377.91997	0.24710
2375.99141	0.24950
2374.06284	0.25192
2372.13428	0.25437
2370.20571	0.25675
2368.27715	0.25889
2366.34858	0.26179
2364.42002	0.26606
2362.49146	0.26982
2360.56289	0.27185
2358.63433	0.27295
2356.70576	0.27373
2354.77720	0.27427
2352.84863	0.27441
2350.92007	0.27379
2348.99150	0.27346
2347.06294	0.27422
2345.13437	0.27613
2343.20581	0.27879
2341.27725	0.28113
2339.34868	0.28273
2337.42012	0.28398
2335.49155	0.28539
2333.56299	0.28725
2331.63442	0.28929
2329.70586	0.29126
2327.77729	0.29306
2325.84873	0.29404
2323.92017	0.29459
2321.99160	0.29554
2320.06304	0.29658
2318.13447	0.29738
2316.20591	0.29821
2314.27734	0.29945
2312.34878	0.30106
2310.42021	0.30275
2308.49165	0.30426
2306.56309	0.30558
2304.63452	0.30691
2302.70596	0.30842
2300.77739	0.31013
2298.84883	0.31193
2296.92026	0.31374
2294.99170	0.31558
2293.06313	0.31742
2291.13457	0.31911
2289.20601	0.32061
2287.27744	0.32212
2285.34888	0.32386
2283.42031	0.32576
2281.49175	0.32772
2279.56318	0.32978
2277.63462	0.33193
2275.70605	0.33410
2273.77749	0.33620
2271.84893	0.33823
2269.92036	0.34032
2267.99180	0.34247
2266.06323	0.34459
2264.13467	0.34663
2262.20610	0.34865
2260.27754	0.35076
2258.34897	0.35300
2256.42041	0.35522
2254.49185	0.35730
2252.56328	0.35930
2250.63472	0.36141
2248.70615	0.36374
2246.77759	0.36607
2244.84902	0.36821
2242.92046	0.37031
2240.99189	0.37255
2239.06333	0.37493
2237.13477	0.37730
2235.20620	0.37955
2233.27764	0.38177
2231.34907	0.38403
2229.42051	0.38622
2227.49194	0.38828
2225.56338	0.39036
2223.63481	0.39263
2221.70625	0.39506
2219.77769	0.39745
2217.84912	0.39956
2215.92056	0.40146
2213.99199	0.40346
2212.06343	0.40570
2210.13486	0.40796
2208.20630	0.41014
2206.27773	0.41236
2204.34917	0.41457
2202.42061	0.41670
2200.49204	0.41877
2198.56348	0.42072
2196.63491	0.42258
2194.70635	0.42447
2192.77778	0.42640
2190.84922	0.42826
2188.92065	0.43004
2186.99209	0.43186
2185.06353	0.43378
2183.13496	0.43569
2181.20640	0.43743
2179.27783	0.43893
2177.34927	0.44030
2175.42070	0.44177
2173.49214	0.44342
2171.56357	0.44500
2169.63501	0.44636
2167.70645	0.44751
2165.77788	0.44863
2163.84932	0.44989
2161.92075	0.45119
2159.99219	0.45236
2158.06362	0.45343
2156.13506	0.45436
2154.20649	0.45510
2152.27793	0.45588
2150.34937	0.45666
2148.42080	0.45733
2146.49224	0.45787
2144.56367	0.45826
2142.63511	0.45861
2140.70654	0.45896
2138.77798	0.45915
2136.84941	0.45914
2134.92085	0.45916
2132.99229	0.45919
2131.06372	0.45904
2129.13516	0.45879
2127.20659	0.45849
2125.27803	0.45806
2123.34946	0.45756
2121.42090	0.45711
2119.49233	0.45660
2117.56377	0.45599
2115.63521	0.45529
2113.70664	0.45447
2111.77808	0.45351
2109.84951	0.45229
2107.92095	0.45100
2105.99238	0.44988
2104.06382	0.44877
2102.13525	0.44748
2100.20669	0.44611
2098.27812	0.44462
2096.34956	0.44306
2094.42100	0.44158
2092.49243	0.44010
2090.56387	0.43833
2088.63530	0.43639
2086.70674	0.43458
2084.77817	0.43274
2082.84961	0.43074
2080.92104	0.42861
2078.99248	0.42648
2077.06392	0.42440
2075.13535	0.42225
2073.20679	0.41992
2071.27822	0.41754
2069.34966	0.41527
2067.42109	0.41292
2065.49253	0.41047
2063.56396	0.40807
2061.63540	0.40580
2059.70684	0.40349
2057.77827	0.40103
2055.84971	0.39841
2053.92114	0.39567
2051.99258	0.39296
2050.06401	0.39034
2048.13545	0.38779
2046.20688	0.38521
2044.27832	0.38254
2042.34976	0.37974
2040.42119	0.37689
2038.49263	0.37411
2036.56406	0.37138
2034.63550	0.36857
2032.70693	0.36576
2030.77837	0.36303
2028.84980	0.36026
2026.92124	0.35747
2024.99268	0.35468
2023.06411	0.35177
2021.13555	0.34881
2019.20698	0.34604
2017.27842	0.34335
2015.34985	0.34057
2013.42129	0.33778
2011.49272	0.33505
2009.56416	0.33238
2007.63560	0.32967
2005.70703	0.32691
2003.77847	0.32420
2001.84990	0.32154
1999.92134	0.31891
1997.99277	0.31630
1996.06421	0.31381
1994.13564	0.31149
1992.20708	0.30910
1990.27852	0.30653
1988.34995	0.30402
1986.42139	0.30159
1984.49282	0.29914
1982.56426	0.29660
1980.63569	0.29414
1978.70713	0.29194
1976.77856	0.28987
1974.85000	0.28775
1972.92144	0.28556
1970.99287	0.28340
1969.06431	0.28129
1967.13574	0.27921
1965.20718	0.27715
1963.27861	0.27518
1961.35005	0.27330
1959.42148	0.27148
1957.49292	0.26969
1955.56436	0.26785
1953.63579	0.26607
1951.70723	0.26441
1949.77866	0.26281
1947.85010	0.26122
1945.92153	0.25970
1943.99297	0.25837
1942.06440	0.25704
1940.13584	0.25545
1938.20728	0.25378
1936.27871	0.25236
1934.35015	0.25120
1932.42158	0.25004
1930.49302	0.24872
1928.56445	0.24752
1926.63589	0.24656
1924.70732	0.24574
1922.77876	0.24491
1920.85020	0.24399
1918.92163	0.24313
1916.99307	0.24226
1915.06450	0.24124
1913.13594	0.24027
1911.20737	0.23959
1909.27881	0.23900
1907.35024	0.23831
1905.42168	0.23760
1903.49312	0.23703
1901.56455	0.23657
1899.63599	0.23611
1897.70742	0.23573
1895.77886	0.23548
1893.85029	0.23524
1891.92173	0.23486
1889.99316	0.23457
1888.06460	0.23430
1886.13604	0.23393
1884.20747	0.23361
1882.27891	0.23344
1880.35034	0.23341
1878.42178	0.23334
1876.49321	0.23331
1874.56465	0.23336
1872.63608	0.23354
1870.70752	0.23383
1868.77896	0.23430
1866.85039	0.23459
1864.92183	0.23455
1862.99326	0.23456
1861.06470	0.23483
1859.13613	0.23530
1857.20757	0.23569
1855.27900	0.23611
1853.35044	0.23660
1851.42187	0.23715
1849.49331	0.23777
1847.56475	0.23851
1845.63618	0.23937
1843.70762	0.24029
1841.77905	0.24103
1839.85049	0.24154
1837.92192	0.24236
1835.99336	0.24335
1834.06479	0.24429
1832.13623	0.24530
1830.20767	0.24672
1828.27910	0.24818
1826.35054	0.24926
1824.42197	0.25054
1822.49341	0.25190
1820.56484	0.25321
1818.63628	0.25460
1816.70771	0.25621
1814.77915	0.25786
1812.85059	0.25967
1810.92202	0.26171
1808.99346	0.26372
1807.06489	0.26557
1805.13633	0.26741
1803.20776	0.26966
1801.27920	0.27232
1799.35063	0.27521
1797.42207	0.27780
1795.49351	0.28027
1793.56494	0.28310
1791.63638	0.28660
1789.70781	0.28999
1787.77925	0.29267
1785.85068	0.29583
1783.92212	0.29956
1781.99355	0.30356
1780.06499	0.30778
1778.13643	0.31206
1776.20786	0.31613
1774.27930	0.32059
1772.35073	0.32656
1770.42217	0.33278
1768.49360	0.33790
1766.56504	0.34303
1764.63647	0.34847
1762.70791	0.35441
1760.77935	0.36181
1758.85078	0.36877
1756.92222	0.37585
1754.99365	0.38378
1753.06509	0.39103
1751.13652	0.39932
1749.20796	0.40972
1747.27939	0.42033
1745.35083	0.42984
1743.42227	0.43970
1741.49370	0.45028
1739.56514	0.46260
1737.63657	0.47511
1735.70801	0.48616
1733.77944	0.50248
1731.85088	0.52221
1729.92231	0.53823
1727.99375	0.55435
1726.06519	0.57144
1724.13662	0.58993
1722.20806	0.60982
1720.27949	0.62821
1718.35093	0.64953
1716.42236	0.68101
1714.49380	0.71144
1712.56523	0.73653
1710.63667	0.76106
1708.70811	0.78723
1706.77954	0.81642
1704.85098	0.85097
1702.92241	0.88192
1700.99385	0.91269
1699.06528	0.95837
1697.13672	1.00036
1695.20815	1.04322
1693.27959	1.08491
1691.35103	1.11860
1689.42246	1.15719
1687.49390	1.19759
1685.56533	1.23651
1683.63677	1.29611
1681.70820	1.35776
1679.77964	1.39783
1677.85107	1.43623
1675.92251	1.48004
1673.99395	1.53344
1672.06538	1.58032
1670.13682	1.62586
1668.20825	1.68580
1666.27969	1.73511
1664.35112	1.77554
1662.42256	1.82464
1660.49399	1.88010
1658.56543	1.92384
1656.63687	1.95883
1654.70830	1.99076
1652.77974	2.04379
1650.85117	2.09655
1648.92261	2.11625
1646.99404	2.14069
1645.06548	2.17001
1643.13691	2.19144
1641.20835	2.20543
1639.27979	2.21656
1637.35122	2.22127
1635.42266	2.21825
1633.49409	2.21144
1631.56553	2.20156
1629.63696	2.18809
1627.70840	2.16307
1625.77983	2.13208
1623.85127	2.09339
1621.92271	2.04697
1619.99414	2.00566
1618.06558	1.96417
1616.13701	1.90350
1614.20845	1.84148
1612.27988	1.79459
1610.35132	1.74607
1608.42275	1.69333
1606.49419	1.64126
1604.56562	1.59369
1602.63706	1.54789
1600.70850	1.50233
1598.77993	1.45960
1596.85137	1.41943
1594.92280	1.38048
1592.99424	1.34239
1591.06567	1.30712
1589.13711	1.27414
1587.20854	1.24321
1585.27998	1.21404
1583.35142	1.18655
1581.42285	1.16124
1579.49429	1.13902
1577.56572	1.11860
1575.63716	1.09404
1573.70859	1.07283
1571.78003	1.05918
1569.85146	1.04454
1567.92290	1.02762
1565.99434	1.01427
1564.06577	1.00354
1562.13721	0.99506
1560.20864	0.98844
1558.28008	0.97836
1556.35151	0.96954
1554.42295	0.96394
1552.49438	0.95805
1550.56582	0.95148
1548.63726	0.94397
1546.70869	0.93639
1544.78013	0.92804
1542.85156	0.91826
1540.92300	0.90566
1538.99443	0.88665
1537.06587	0.87248
1535.13730	0.86292
1533.20874	0.85060
1531.28018	0.83749
1529.35161	0.82796
1527.42305	0.81919
1525.49448	0.81007
1523.56592	0.80170
1521.63735	0.79315
1519.70879	0.78468
1517.78022	0.77773
1515.85166	0.76995
1513.92310	0.76195
1511.99453	0.75512
1510.06597	0.74896
1508.13740	0.74300
1506.20884	0.73403
1504.28027	0.72598
1502.35171	0.72128
1500.42314	0.71714
1498.49458	0.71269
1496.56602	0.70762
1494.63745	0.70282
1492.70889	0.69931
1490.78032	0.69635
1488.85176	0.69264
1486.92319	0.68873
1484.99463	0.68551
1483.06606	0.68288
1481.13750	0.68060
1479.20894	0.67864
1477.28037	0.67722
1475.35181	0.67640
1473.42324	0.67579
1471.49468	0.67402
1469.56611	0.67141
1467.63755	0.66920
1465.70898	0.66739
1463.78042	0.66563
1461.85186	0.66402
1459.92329	0.66275
1457.99473	0.66151
1456.06616	0.65956
1454.13760	0.65708
1452.20903	0.65478
1450.28047	0.65255
1448.35190	0.65027
1446.42334	0.64796
1444.49478	0.64578
1442.56621	0.64355
1440.63765	0.64118
1438.70908	0.63886
1436.78052	0.63633
1434.85195	0.63376
1432.92339	0.63173
1430.99482	0.62997
1429.06626	0.62828
1427.13770	0.62696
1425.20913	0.62607
1423.28057	0.62521
1421.35200	0.62421
1419.42344	0.62336
1417.49487	0.62234
1415.56631	0.62080
1413.63774	0.61939
1411.70918	0.61847
1409.78062	0.61792
1407.85205	0.61753
1405.92349	0.61720
1403.99492	0.61666
1402.06636	0.61582
1400.13779	0.61485
1398.20923	0.61364
1396.28066	0.61211
1394.35210	0.61000
1392.42354	0.60735
1390.49497	0.60488
1388.56641	0.60281
1386.63784	0.60055
1384.70928	0.59770
1382.78071	0.59483
1380.85215	0.59248
1378.92358	0.59085
1376.99502	0.58963
1375.06646	0.58864
1373.13789	0.58774
1371.20933	0.58679
1369.28076	0.58587
1367.35220	0.58489
1365.42363	0.58377
1363.49507	0.58256
1361.56650	0.58123
1359.63794	0.57994
1357.70937	0.57876
1355.78081	0.57753
1353.85225	0.57634
1351.92368	0.57533
1349.99512	0.57449
1348.06655	0.57360
1346.13799	0.57252
1344.20942	0.57141
1342.28086	0.57045
1340.35229	0.56970
1338.42373	0.56896
1336.49517	0.56809
1334.56660	0.56703
1332.63804	0.56600
1330.70947	0.56538
1328.78091	0.56508
1326.85234	0.56484
1324.92378	0.56473
1322.99521	0.56460
1321.06665	0.56428
1319.13809	0.56387
1317.20952	0.56343
1315.28096	0.56291
1313.35239	0.56235
1311.42383	0.56162
1309.49526	0.56066
1307.56670	0.55973
1305.63813	0.55908
1303.70957	0.55850
1301.78101	0.55775
1299.85244	0.55691
1297.92388	0.55609
1295.99531	0.55525
1294.06675	0.55431
1292.13818	0.55334
1290.20962	0.55253
1288.28105	0.55188
1286.35249	0.55109
1284.42393	0.55014
1282.49536	0.54930
1280.56680	0.54851
1278.63823	0.54758
1276.70967	0.54669
1274.78110	0.54606
1272.85254	0.54550
1270.92397	0.54480
1268.99541	0.54409
1267.06685	0.54347
1265.13828	0.54298
1263.20972	0.54257
1261.28115	0.54207
1259.35259	0.54156
1257.42402	0.54109
1255.49546	0.54059
1253.56689	0.54031
1251.63833	0.54027
1249.70977	0.54011
1247.78120	0.53970
1245.85264	0.53919
1243.92407	0.53859
1241.99551	0.53795
1240.06694	0.53722
1238.13838	0.53628
1236.20981	0.53516
1234.28125	0.53395
1232.35269	0.53274
1230.42412	0.53151
1228.49556	0.53025
1226.56699	0.52905
1224.63843	0.52790
1222.70986	0.52665
1220.78130	0.52538
1218.85273	0.52432
1216.92417	0.52351
1214.99561	0.52273
1213.06704	0.52187
1211.13848	0.52104
1209.20991	0.52042
1207.28135	0.51999
1205.35278	0.51945
1203.42422	0.51867
1201.49565	0.51784
1199.56709	0.51708
1197.63853	0.51627
1195.70996	0.51540
1193.78140	0.51463
1191.85283	0.51399
1189.92427	0.51349
1187.99570	0.51319
1186.06714	0.51304
1184.13857	0.51299
1182.21001	0.51322
1180.28145	0.51381
1178.35288	0.51445
1176.42432	0.51508
1174.49575	0.51583
1172.56719	0.51674
1170.63862	0.51769
1168.71006	0.51854
1166.78149	0.51932
1164.85293	0.52009
1162.92437	0.52079
1160.99580	0.52134
1159.06724	0.52157
1157.13867	0.52137
1155.21011	0.52093
1153.28154	0.52028
1151.35298	0.51911
1149.42441	0.51723
1147.49585	0.51485
1145.56729	0.51222
1143.63872	0.50947
1141.71016	0.50678
1139.78159	0.50451
1137.85303	0.50275
1135.92446	0.50132
1133.99590	0.50010
1132.06733	0.49900
1130.13877	0.49794
1128.21021	0.49702
1126.28164	0.49637
1124.35308	0.49593
1122.42451	0.49561
1120.49595	0.49542
1118.56738	0.49561
1116.63882	0.49613
1114.71025	0.49671
1112.78169	0.49751
1110.85312	0.49860
1108.92456	0.49961
1106.99600	0.50045
1105.06743	0.50129
1103.13887	0.50222
1101.21030	0.50331
1099.28174	0.50467
1097.35317	0.50642
1095.42461	0.50886
1093.49604	0.51232
1091.56748	0.51708
1089.63892	0.52331
1087.71035	0.53105
1085.78179	0.53996
1083.85322	0.54895
1081.92466	0.55681
1079.99609	0.56284
1078.06753	0.56612
1076.13896	0.56619
1074.21040	0.56359
1072.28184	0.55847
1070.35327	0.55115
1068.42471	0.54329
1066.49614	0.53632
1064.56758	0.53033
1062.63901	0.52493
1060.71045	0.52013
1058.78188	0.51602
1056.85332	0.51245
1054.92476	0.50926
1052.99619	0.50638
1051.06763	0.50393
1049.13906	0.50227
1047.21050	0.50153
1045.28193	0.50152
1043.35337	0.50200
1041.42480	0.50254
1039.49624	0.50287
1037.56768	0.50307
1035.63911	0.50303
1033.71055	0.50267
1031.78198	0.50185
1029.85342	0.50043
1027.92485	0.49880
1025.99629	0.49749
1024.06772	0.49656
1022.13916	0.49575
1020.21060	0.49508
1018.28203	0.49466
1016.35347	0.49444
1014.42490	0.49430
1012.49634	0.49411
1010.56777	0.49396
1008.63921	0.49405
1006.71064	0.49455
1004.78208	0.49558
1002.85352	0.49734
1000.92495	0.49994
998.99639	0.50333
997.06782	0.50723
995.13926	0.51134
993.21069	0.51530
991.28213	0.51851
989.35356	0.52042
987.42500	0.52098
985.49644	0.52068
983.56787	0.52025
981.63931	0.52037
979.71074	0.52129
977.78218	0.52282
975.85361	0.52500
973.92505	0.52782
971.99648	0.53094
970.06792	0.53421
968.13936	0.53782
966.21079	0.54193
964.28223	0.54635
962.35366	0.55094
960.42510	0.55596
958.49653	0.56149
956.56797	0.56744
954.63940	0.57356
952.71084	0.57956
950.78228	0.58555
948.85371	0.59170
946.92515	0.59787
944.99658	0.60414
943.06802	0.61062
941.13945	0.61681
939.21089	0.62262
937.28232	0.62862
935.35376	0.63463
933.42520	0.64040
931.49663	0.64616
929.56807	0.65180
927.63950	0.65772
925.71094	0.66386
923.78237	0.66953
921.85381	0.67575
919.92524	0.68312
917.99668	0.69049
916.06812	0.69756
914.13955	0.70487
912.21099	0.71267
910.28242	0.72089
908.35386	0.72918
906.42529	0.73799
904.49673	0.74764
902.56816	0.75698
900.63960	0.76573
898.71104	0.77507
896.78247	0.78525
894.85391	0.79526
892.92534	0.80450
890.99678	0.81425
889.06821	0.82602
887.13965	0.83773
885.21108	0.84740
883.28252	0.85703
881.35396	0.86759
879.42539	0.87933
877.49683	0.89289
875.56826	0.90615
873.63970	0.91743
871.71113	0.92885
869.78257	0.94087
867.85400	0.95143
865.92544	0.96195
863.99687	0.97371
862.06831	0.98461
860.13975	0.99440
858.21118	1.00413
856.28262	1.01424
854.35405	1.02631
852.42549	1.04009
850.49692	1.05357
848.56836	1.06624
846.63979	1.07736
844.71123	1.08697
842.78267	1.09620
840.85410	1.10603
838.92554	1.11894
836.99697	1.13516
835.06841	1.14878
833.13984	1.15733
831.21128	1.16616
829.28271	1.17553
827.35415	1.18403
825.42559	1.19662
823.49702	1.20703
821.56846	1.20821
819.63989	1.21453
817.71133	1.23290
815.78276	1.25352
813.85420	1.26694
811.92563	1.27139
809.99707	1.27725
808.06851	1.28302
806.13994	1.27266
804.21138	1.26012
802.28281	1.26683
800.35425	1.27774
798.42568	1.28244
796.49712	1.28387
794.56855	1.26555
792.63999	1.24247
790.71143	1.24638
788.78286	1.26600
786.85430	1.27648
784.92573	1.29537
782.99717	1.33499
781.06860	1.35544
779.14004	1.32921
777.21147	1.27962
775.28291	1.23002
773.35435	1.18451
771.42578	1.14745
769.49722	1.14500
767.56865	1.17425
765.64009	1.18824
763.71152	1.18562
761.78296	1.17886
759.85439	1.15899
757.92583	1.08847
755.99727	0.99559
754.06870	0.98231
752.14014	1.05508
750.21157	1.09919
748.28301	1.06508
746.35444	1.06059
744.42588	1.13247
742.49731	1.16053
740.56875	1.01174
738.64019	0.87819
736.71162	0.80215
734.78306	0.69706
732.85449	0.58309
730.92593	0.50430
728.99736	0.48798
727.06880	0.54056
725.14023	0.53098
723.21167	0.40555
721.28311	0.36309
719.35454	0.45868
717.42598	0.52911
715.49741	0.40574
713.56885	0.28246
711.64028	0.25056
709.71172	0.24893
707.78315	0.22905
705.85459	0.21497
703.92603	0.18981
701.99746	0.14151
700.06890	0.10283
698.14033	0.08122
696.21177	0.01903
694.28320	-0.02208
692.35464	0.02558
690.42607	0.06625
688.49751	0.08509
686.56895	0.15495
684.64038	0.28083
682.71182	0.31438
680.78325	0.18498
678.85469	0.04335
676.92612	0.01714
674.99756	0.08623
673.06899	0.12860
671.14043	0.12143
669.21187	0.10521
667.28330	0.07226
665.35474	0.03425
663.42617	-0.00374
661.49761	-0.01781
659.56904	-0.00189
657.64048	-0.05419
655.71191	-0.15164
653.78335	-0.12586
651.85479	-0.01590
649.92622	0.03752
647.99766	0.01244
646.06909	0.03264
644.14053	0.10875
642.21196	0.21814
640.28340	0.29670
638.35483	0.17002
636.42627	-0.01628
634.49771	-0.04586
632.56914	0.04553
630.64058	0.11596
628.71201	0.08862
626.78345	0.05204
624.85488	0.04819
622.92632	0.03295
620.99775	0.00527
619.06919	0.01546
617.14062	0.06957
615.21206	0.11600
613.28350	0.12103
611.35493	0.09561
609.42637	0.02757
607.49780	-0.01913
605.56924	0.00314
603.64067	-0.00001
601.71211	-0.03420
599.78354	-0.00932
597.85498	0.04212
595.92642	0.07635
593.99785	0.14339
592.06929	0.15420
590.14072	0.07466
588.21216	0.03905
586.28359	0.05509
584.35503	0.05350
582.42646	0.06252
580.49790	0.08363
578.56934	0.08725
576.64077	0.10484
574.71221	0.11266
572.78364	0.11584
570.85508	0.12412
568.92651	0.08716
566.99795	0.06242
565.06938	0.12686
563.14082	0.24064
561.21226	0.22624
559.28369	0.10969
557.35513	0.03334
555.42656	0.03318
553.49800	0.06668
551.56943	0.12454
549.64087	0.15669
547.71230	0.16554
545.78374	0.16482
543.85518	0.08880
541.92661	-0.01106
539.99805	-0.05205
538.06948	-0.02327
536.14092	0.04840
534.21235	0.12940
532.28379	0.19445
530.35522	0.22661
528.42666	0.16810
526.49810	0.08237
524.56953	0.07517
522.64097	0.10376
520.71240	0.09637
518.78384	0.04829
516.85527	0.04510
514.92671	0.08446
512.99814	0.09801
511.06958	0.07045
509.14102	0.03927
507.21245	0.03859
505.28389	0.09249
503.35532	0.18868
501.42676	0.26014
499.49819	0.20162
