3997.91411	0.07525
3995.98555	0.07555
3994.05698	0.07642
3992.12842	0.07720
3990.19985	0.07760
3988.27129	0.07778
3986.34272	0.07815
3984.41416	0.07856
3982.48560	0.07838
3980.55703	0.07807
3978.62847	0.07835
3976.69990	0.07867
3974.77134	0.07840
3972.84277	0.07809
3970.91421	0.07826
3968.98564	0.07878
3967.05708	0.07939
3965.12852	0.07990
3963.19995	0.08013
3961.27139	0.08018
3959.34282	0.08032
3957.41426	0.08033
3955.48569	0.07989
3953.55713	0.07953
3951.62856	0.07979
3949.70000	0.08044
3947.77144	0.08096
3945.84287	0.08098
3943.91431	0.08101
3941.98574	0.08139
3940.05718	0.08126
3938.12861	0.08053
3936.20005	0.08012
3934.27148	0.08037
3932.34292	0.08099
3930.41436	0.08124
3928.48579	0.08067
3926.55723	0.08009
3924.62866	0.07997
3922.70010	0.07984
3920.77153	0.07972
3918.84297	0.07998
3916.91440	0.08019
3914.98584	0.07960
3913.05728	0.07871
3911.12871	0.07841
3909.20015	0.07868
3907.27158	0.07939
3905.34302	0.08044
3903.41445	0.08147
3901.48589	0.08198
3899.55732	0.08173
3897.62876	0.08077
3895.70020	0.07978
3893.77163	0.07963
3891.84307	0.08010
3889.91450	0.07996
3887.98594	0.07952
3886.05737	0.07998
3884.12881	0.08044
3882.20024	0.08008
3880.27168	0.08000
3878.34312	0.08016
3876.41455	0.08024
3874.48599	0.08081
3872.55742	0.08163
3870.62886	0.08231
3868.70029	0.08286
3866.77173	0.08280
3864.84316	0.08281
3862.91460	0.08336
3860.98604	0.08348
3859.05747	0.08329
3857.12891	0.08380
3855.20034	0.08537
3853.27178	0.08756
3851.34321	0.08778
3849.41465	0.08606
3847.48608	0.08540
3845.55752	0.08591
3843.62896	0.08660
3841.70039	0.08698
3839.77183	0.08759
3837.84326	0.08880
3835.91470	0.09030
3833.98613	0.09144
3832.05757	0.09180
3830.12900	0.09172
3828.20044	0.09173
3826.27187	0.09205
3824.34331	0.09288
3822.41475	0.09461
3820.48618	0.09724
3818.55762	0.09872
3816.62905	0.09889
3814.70049	0.09934
3812.77192	0.09968
3810.84336	0.09967
3808.91479	0.09989
3806.98623	0.10077
3805.05767	0.10200
3803.12910	0.10326
3801.20054	0.10527
3799.27197	0.10708
3797.34341	0.10745
3795.41484	0.10766
3793.48628	0.10830
3791.55771	0.10941
3789.62915	0.11079
3787.70059	0.11214
3785.77202	0.11356
3783.84346	0.11505
3781.91489	0.11657
3779.98633	0.11842
3778.05776	0.12012
3776.12920	0.12107
3774.20063	0.12227
3772.27207	0.12417
3770.34351	0.12658
3768.41494	0.12890
3766.48638	0.13045
3764.55781	0.13204
3762.62925	0.13401
3760.70068	0.13622
3758.77212	0.13888
3756.84355	0.14133
3754.91499	0.14339
3752.98643	0.14627
3751.05786	0.15029
3749.12930	0.15365
3747.20073	0.15551
3745.27217	0.15813
3743.34360	0.16204
3741.41504	0.16469
3739.48647	0.16686
3737.55791	0.17056
3735.62935	0.17602
3733.70078	0.18198
3731.77222	0.18652
3729.84365	0.19003
3727.91509	0.19377
3725.98652	0.19900
3724.05796	0.20559
3722.12939	0.21238
3720.20083	0.21908
3718.27227	0.22585
3716.34370	0.23292
3714.41514	0.24014
3712.48657	0.24897
3710.55801	0.26198
3708.62944	0.27627
3706.70088	0.28765
3704.77231	0.29816
3702.84375	0.31078
3700.91519	0.32754
3698.98662	0.34540
3697.05806	0.36188
3695.12949	0.37988
3693.20093	0.39939
3691.27236	0.42015
3689.34380	0.44686
3687.41523	0.48090
3685.48667	0.51145
3683.55811	0.53733
3681.62954	0.56455
3679.70098	0.59509
3677.77241	0.62728
3675.84385	0.66542
3673.91528	0.71705
3671.98672	0.76004
3670.05815	0.79833
3668.12959	0.85022
3666.20103	0.89740
3664.27246	0.93694
3662.34390	0.97986
3660.41533	1.02655
3658.48677	1.07241
3656.55820	1.12077
3654.62964	1.17457
3652.70107	1.22033
3650.77251	1.26036
3648.84395	1.31467
3646.91538	1.38137
3644.98682	1.43123
3643.05825	1.46979
3641.12969	1.50914
3639.20112	1.55221
3637.27256	1.59554
3635.34399	1.63797
3633.41543	1.68044
3631.48687	1.72015
3629.55830	1.76048
3627.62974	1.81342
3625.70117	1.86313
3623.77261	1.89700
3621.84404	1.92923
3619.91548	1.96571
3617.98691	2.01046
3616.05835	2.05509
3614.12979	2.09263
3612.20122	2.13156
3610.27266	2.17138
3608.34409	2.21173
3606.41553	2.25398
3604.48696	2.29339
3602.55840	2.32881
3600.62983	2.36538
3598.70127	2.40426
3596.77271	2.44470
3594.84414	2.48818
3592.91558	2.53187
3590.98701	2.57044
3589.05845	2.60574
3587.12988	2.64914
3585.20132	2.69722
3583.27275	2.73687
3581.34419	2.77329
3579.41562	2.81275
3577.48706	2.85385
3575.55850	2.89539
3573.62993	2.94018
3571.70137	2.98516
3569.77280	3.02678
3567.84424	3.06992
3565.91567	3.12304
3563.98711	3.17344
3562.05854	3.21315
3560.12998	3.25375
3558.20142	3.29805
3556.27285	3.34397
3554.34429	3.38878
3552.41572	3.43322
3550.48716	3.47906
3548.55859	3.52551
3546.63003	3.57340
3544.70146	3.62405
3542.77290	3.67405
3540.84434	3.72245
3538.91577	3.77009
3536.98721	3.81557
3535.05864	3.86180
3533.13008	3.90928
3531.20151	3.95696
3529.27295	4.00613
3527.34438	4.05711
3525.41582	4.10746
3523.48726	4.15728
3521.55869	4.20602
3519.63013	4.24942
3517.70156	4.29252
3515.77300	4.34090
3513.84443	4.39214
3511.91587	4.44217
3509.98730	4.48987
3508.05874	4.53699
3506.13018	4.58628
3504.20161	4.63752
3502.27305	4.68870
3500.34448	4.73808
3498.41592	4.78353
3496.48735	4.83032
3494.55879	4.88308
3492.63022	4.93379
3490.70166	4.97947
3488.77310	5.02781
3486.84453	5.07983
3484.91597	5.13038
3482.98740	5.17363
3481.05884	5.21669
3479.13027	5.27277
3477.20171	5.33061
3475.27314	5.38126
3473.34458	5.43286
3471.41602	5.47465
3469.48745	5.50169
3467.55889	5.54285
3465.63032	5.60529
3463.70176	5.66552
3461.77319	5.72222
3459.84463	5.78234
3457.91606	5.83489
3455.98750	5.88032
3454.05894	5.92341
3452.13037	5.96523
3450.20181	6.01026
3448.27324	6.06137
3446.34468	6.12341
3444.41611	6.18484
3442.48755	6.23975
3440.55898	6.29520
3438.63042	6.34298
3436.70186	6.38239
3434.77329	6.42931
3432.84473	6.47875
3430.91616	6.53761
3428.98760	6.62703
3427.05903	6.70089
3425.13047	6.72986
3423.20190	6.74980
3421.27334	6.77706
3419.34478	6.80955
3417.41621	6.86066
3415.48765	6.92296
3413.55908	6.96778
3411.63052	7.00531
3409.70195	7.06121
3407.77339	7.13125
3405.84482	7.18240
3403.91626	7.22531
3401.98770	7.28852
3400.05913	7.38127
3398.13057	7.46851
3396.20200	7.49242
3394.27344	7.46685
3392.34487	7.42864
3390.41631	7.44499
3388.48774	7.51840
3386.55918	7.57546
3384.63062	7.61028
3382.70205	7.68173
3380.77349	7.79669
3378.84492	7.86666
3376.91636	7.86458
3374.98779	7.86235
3373.05923	7.87016
3371.13066	7.84762
3369.20210	7.86583
3367.27354	7.98239
3365.34497	8.13048
3363.41641	8.21703
3361.48784	8.23831
3359.55928	8.19941
3357.63071	8.08202
3355.70215	8.00714
3353.77358	8.03253
3351.84502	8.09901
3349.91646	8.19242
3347.98789	8.29350
3346.05933	8.33054
3344.13076	8.32473
3342.20220	8.32830
3340.27363	8.34749
3338.34507	8.36625
3336.41650	8.36202
3334.48794	8.39813
3332.55937	8.47459
3330.63081	8.55269
3328.70225	8.58849
3326.77368	8.55109
3324.84512	8.50873
3322.91655	8.54330
3320.98799	8.62764
3319.05942	8.58759
3317.13086	8.48492
3315.20229	8.46950
3313.27373	8.48993
3311.34517	8.42256
3309.41660	8.32021
3307.48804	8.32970
3305.55947	8.43602
3303.63091	8.56572
3301.70234	8.66947
3299.77378	8.65268
3297.84521	8.52022
3295.91665	8.43410
3293.98809	8.39911
3292.05952	8.39940
3290.13096	8.44385
3288.20239	8.44082
3286.27383	8.45054
3284.34526	8.52109
3282.41670	8.62013
3280.48813	8.75426
3278.55957	8.78482
3276.63101	8.69072
3274.70244	8.64510
3272.77388	8.55972
3270.84531	8.41128
3268.91675	8.38128
3266.98818	8.49477
3265.05962	8.60725
3263.13105	8.58363
3261.20249	8.54951
3259.27393	8.55573
3257.34536	8.52382
3255.41680	8.52499
3253.48823	8.65144
3251.55967	8.82201
3249.63110	8.86143
3247.70254	8.83797
3245.77397	8.78225
3243.84541	8.67872
3241.91685	8.69104
3239.98828	8.86069
3238.05972	8.96266
3236.13115	8.77503
3234.20259	8.51695
3232.27402	8.41653
3230.34546	8.43506
3228.41689	8.42890
3226.48833	8.37977
3224.55977	8.39394
3222.63120	8.41562
3220.70264	8.30224
3218.77407	8.16924
3216.84551	8.15863
3214.91694	8.21699
3212.98838	8.25178
3211.05981	8.24615
3209.13125	8.24559
3207.20269	8.32205
3205.27412	8.41444
3203.34556	8.37151
3201.41699	8.26099
3199.48843	8.16465
3197.55986	8.05466
3195.63130	7.98148
3193.70273	7.96569
3191.77417	7.92374
3189.84561	7.83278
3187.91704	7.74928
3185.98848	7.71859
3184.05991	7.74593
3182.13135	7.76724
3180.20278	7.72819
3178.27422	7.61941
3176.34565	7.46024
3174.41709	7.32035
3172.48853	7.22927
3170.55996	7.18956
3168.63140	7.19576
3166.70283	7.16490
3164.77427	7.06590
3162.84570	6.99116
3160.91714	6.96764
3158.98857	6.93013
3157.06001	6.84753
3155.13145	6.74278
3153.20288	6.63951
3151.27432	6.56031
3149.34575	6.50297
3147.41719	6.44010
3145.48862	6.35748
3143.56006	6.26508
3141.63149	6.18440
3139.70293	6.12177
3137.77437	6.06744
3135.84580	5.99535
3133.91724	5.89393
3131.98867	5.79753
3130.06011	5.73424
3128.13154	5.68648
3126.20298	5.62809
3124.27441	5.55833
3122.34585	5.47690
3120.41729	5.38197
3118.48872	5.29321
3116.56016	5.22525
3114.63159	5.16476
3112.70303	5.10014
3110.77446	5.03207
3108.84590	4.95887
3106.91733	4.88450
3104.98877	4.81285
3103.06021	4.73984
3101.13164	4.66622
3099.20308	4.59863
3097.27451	4.53307
3095.34595	4.46378
3093.41738	4.39522
3091.48882	4.32822
3089.56025	4.26194
3087.63169	4.19815
3085.70312	4.13602
3083.77456	4.07304
3081.84600	4.00874
3079.91743	3.94466
3077.98887	3.88031
3076.06030	3.81614
3074.13174	3.75377
3072.20317	3.69192
3070.27461	3.63133
3068.34604	3.57348
3066.41748	3.51548
3064.48892	3.45627
3062.56035	3.39864
3060.63179	3.34342
3058.70322	3.28872
3056.77466	3.23367
3054.84609	3.17884
3052.91753	3.12447
3050.98896	3.07110
3049.06040	3.01915
3047.13184	2.96895
3045.20327	2.92008
3043.27471	2.87034
3041.34614	2.81962
3039.41758	2.77077
3037.48901	2.72391
3035.56045	2.67700
3033.63188	2.63031
3031.70332	2.58449
3029.77476	2.53899
3027.84619	2.49418
3025.91763	2.45029
3023.98906	2.40671
3022.06050	2.36380
3020.13193	2.32155
3018.20337	2.28015
3016.27480	2.24090
3014.34624	2.20282
3012.41768	2.16370
3010.48911	2.12373
3008.56055	2.08479
3006.63198	2.04790
3004.70342	2.01184
3002.77485	1.97584
3000.84629	1.94076
2998.91772	1.90681
2996.98916	1.87370
2995.06060	1.84111
2993.13203	1.80862
2991.20347	1.77634
2989.27490	1.74459
2987.34634	1.71366
2985.41777	1.68352
2983.48921	1.65402
2981.56064	1.62548
2979.63208	1.59767
2977.70352	1.56970
2975.77495	1.54185
2973.84639	1.51482
2971.91782	1.48842
2969.98926	1.46218
2968.06069	1.43619
2966.13213	1.41102
2964.20356	1.38663
2962.27500	1.36262
2960.34644	1.33907
2958.41787	1.31550
2956.48931	1.29142
2954.56074	1.26748
2952.63218	1.24436
2950.70361	1.22230
2948.77505	1.20125
2946.84648	1.18042
2944.91792	1.15942
2942.98936	1.13863
2941.06079	1.11831
2939.13223	1.09843
2937.20366	1.07892
2935.27510	1.05978
2933.34653	1.04124
2931.41797	1.02307
2929.48940	1.00490
2927.56084	0.98690
2925.63228	0.96938
2923.70371	0.95265
2921.77515	0.93597
2919.84658	0.91862
2917.91802	0.90127
2915.98945	0.88459
2914.06089	0.86880
2912.13232	0.85318
2910.20376	0.83733
2908.27520	0.82221
2906.34663	0.80831
2904.41807	0.79486
2902.48950	0.78123
2900.56094	0.76758
2898.63237	0.75420
2896.70381	0.74119
2894.77524	0.72852
2892.84668	0.71623
2890.91812	0.70427
2888.98955	0.69252
2887.06099	0.68108
2885.13242	0.67009
2883.20386	0.65963
2881.27529	0.64949
2879.34673	0.63934
2877.41816	0.62928
2875.48960	0.61913
2873.56104	0.60850
2871.63247	0.59786
2869.70391	0.58774
2867.77534	0.57790
2865.84678	0.56800
2863.91821	0.55778
2861.98965	0.54750
2860.06108	0.53797
2858.13252	0.52915
2856.20396	0.52037
2854.27539	0.51147
2852.34683	0.50276
2850.41826	0.49452
2848.48970	0.48658
2846.56113	0.47858
2844.63257	0.47071
2842.70400	0.46341
2840.77544	0.45669
2838.84687	0.45022
2836.91831	0.44362
2834.98975	0.43689
2833.06118	0.43038
2831.13262	0.42440
2829.20405	0.41873
2827.27549	0.41286
2825.34692	0.40675
2823.41836	0.40052
2821.48979	0.39432
2819.56123	0.38844
2817.63267	0.38296
2815.70410	0.37767
2813.77554	0.37230
2811.84697	0.36678
2809.91841	0.36140
2807.98984	0.35628
2806.06128	0.35123
2804.13271	0.34633
2802.20415	0.34157
2800.27559	0.33685
2798.34702	0.33211
2796.41846	0.32719
2794.48989	0.32241
2792.56133	0.31798
2790.63276	0.31367
2788.70420	0.30945
2786.77563	0.30543
2784.84707	0.30152
2782.91851	0.29757
2780.98994	0.29353
2779.06138	0.28955
2777.13281	0.28573
2775.20425	0.28203
2773.27568	0.27841
2771.34712	0.27488
2769.41855	0.27140
2767.48999	0.26800
2765.56143	0.26474
2763.63286	0.26167
2761.70430	0.25865
2759.77573	0.25551
2757.84717	0.25234
2755.91860	0.24939
2753.99004	0.24664
2752.06147	0.24376
2750.13291	0.24074
2748.20435	0.23795
2746.27578	0.23553
2744.34722	0.23319
2742.41865	0.23053
2740.49009	0.22770
2738.56152	0.22515
2736.63296	0.22291
2734.70439	0.22066
2732.77583	0.21845
2730.84727	0.21643
2728.91870	0.21430
2726.99014	0.21203
2725.06157	0.20998
2723.13301	0.20804
2721.20444	0.20597
2719.27588	0.20400
2717.34731	0.20218
2715.41875	0.20032
2713.49019	0.19839
2711.56162	0.19650
2709.63306	0.19472
2707.70449	0.19315
2705.77593	0.19171
2703.84736	0.19019
2701.91880	0.18865
2699.99023	0.18726
2698.06167	0.18589
2696.13311	0.18450
2694.20454	0.18315
2692.27598	0.18182
2690.34741	0.18058
2688.41885	0.17937
2686.49028	0.17812
2684.56172	0.17684
2682.63315	0.17546
2680.70459	0.17408
2678.77603	0.17300
2676.84746	0.17219
2674.91890	0.17145
2672.99033	0.17059
2671.06177	0.16949
2669.13320	0.16839
2667.20464	0.16758
2665.27607	0.16683
2663.34751	0.16587
2661.41895	0.16494
2659.49038	0.16422
2657.56182	0.16360
2655.63325	0.16291
2653.70469	0.16216
2651.77612	0.16141
2649.84756	0.16065
2647.91899	0.15999
2645.99043	0.15948
2644.06187	0.15895
2642.13330	0.15831
2640.20474	0.15766
2638.27617	0.15716
2636.34761	0.15681
2634.41904	0.15643
2632.49048	0.15602
2630.56191	0.15560
2628.63335	0.15515
2626.70479	0.15478
2624.77622	0.15460
2622.84766	0.15439
2620.91909	0.15406
2618.99053	0.15383
2617.06196	0.15372
2615.13340	0.15365
2613.20483	0.15363
2611.27627	0.15350
2609.34771	0.15316
2607.41914	0.15285
2605.49058	0.15281
2603.56201	0.15294
2601.63345	0.15312
2599.70488	0.15332
2597.77632	0.15351
2595.84775	0.15373
2593.91919	0.15396
2591.99062	0.15409
2590.06206	0.15418
2588.13350	0.15434
2586.20493	0.15447
2584.27637	0.15457
2582.34780	0.15477
2580.41924	0.15511
2578.49067	0.15543
2576.56211	0.15568
2574.63354	0.15598
2572.70498	0.15636
2570.77642	0.15677
2568.84785	0.15720
2566.91929	0.15759
2564.99072	0.15796
2563.06216	0.15836
2561.13359	0.15874
2559.20503	0.15915
2557.27646	0.15972
2555.34790	0.16038
2553.41934	0.16101
2551.49077	0.16159
2549.56221	0.16218
2547.63364	0.16284
2545.70508	0.16352
2543.77651	0.16412
2541.84795	0.16467
2539.91938	0.16537
2537.99082	0.16615
2536.06226	0.16685
2534.13369	0.16752
2532.20513	0.16817
2530.27656	0.16876
2528.34800	0.16947
2526.41943	0.17027
2524.49087	0.17105
2522.56230	0.17183
2520.63374	0.17260
2518.70518	0.17337
2516.77661	0.17409
2514.84805	0.17470
2512.91948	0.17542
2510.99092	0.17639
2509.06235	0.17737
2507.13379	0.17812
2505.20522	0.17882
2503.27666	0.17969
2501.34810	0.18058
2499.41953	0.18140
2497.49097	0.18222
2495.56240	0.18307
2493.63384	0.18397
2491.70527	0.18489
2489.77671	0.18578
2487.84814	0.18671
2485.91958	0.18767
2483.99102	0.18854
2482.06245	0.18931
2480.13389	0.19013
2478.20532	0.19111
2476.27676	0.19213
2474.34819	0.19305
2472.41963	0.19387
2470.49106	0.19474
2468.56250	0.19574
2466.63394	0.19673
2464.70537	0.19764
2462.77681	0.19860
2460.84824	0.19961
2458.91968	0.20053
2456.99111	0.20140
2455.06255	0.20235
2453.13398	0.20340
2451.20542	0.20455
2449.27686	0.20552
2447.34829	0.20627
2445.41973	0.20721
2443.49116	0.20839
2441.56260	0.20947
2439.63403	0.21043
2437.70547	0.21147
2435.77690	0.21259
2433.84834	0.21367
2431.91978	0.21467
2429.99121	0.21566
2428.06265	0.21665
2426.13408	0.21773
2424.20552	0.21892
2422.27695	0.22017
2420.34839	0.22135
2418.41982	0.22239
2416.49126	0.22350
2414.56270	0.22477
2412.63413	0.22602
2410.70557	0.22710
2408.77700	0.22809
2406.84844	0.22922
2404.91987	0.23047
2402.99131	0.23160
2401.06274	0.23265
2399.13418	0.23389
2397.20562	0.23529
2395.27705	0.23658
2393.34849	0.23777
2391.41992	0.23909
2389.49136	0.24056
2387.56279	0.24200
2385.63423	0.24346
2383.70566	0.24514
2381.77710	0.24719
2379.84854	0.24956
2377.91997	0.25201
2375.99141	0.25454
2374.06284	0.25746
2372.13428	0.26104
2370.20571	0.26513
2368.27715	0.26928
2366.34858	0.27347
2364.42002	0.27706
2362.49146	0.27933
2360.56289	0.28123
2358.63433	0.28243
2356.70576	0.28204
2354.77720	0.28112
2352.84863	0.28054
2350.92007	0.28012
2348.99150	0.27995
2347.06294	0.28072
2345.13437	0.28338
2343.20581	0.28763
2341.27725	0.29103
2339.34868	0.29293
2337.42012	0.29419
2335.49155	0.29516
2333.56299	0.29636
2331.63442	0.29788
2329.70586	0.29871
2327.77729	0.29904
2325.84873	0.30013
2323.92017	0.30184
2321.99160	0.30287
2320.06304	0.30312
2318.13447	0.30346
2316.20591	0.30408
2314.27734	0.30509
2312.34878	0.30652
2310.42021	0.30797
2308.49165	0.30920
2306.56309	0.31042
2304.63452	0.31191
2302.70596	0.31362
2300.77739	0.31525
2298.84883	0.31665
2296.92026	0.31811
2294.99170	0.31984
2293.06313	0.32160
2291.13457	0.32320
2289.20601	0.32485
2287.27744	0.32653
2285.34888	0.32815
2283.42031	0.32986
2281.49175	0.33177
2279.56318	0.33393
2277.63462	0.33623
2275.70605	0.33829
2273.77749	0.34017
2271.84893	0.34215
2269.92036	0.34414
2267.99180	0.34619
2266.06323	0.34845
2264.13467	0.35084
2262.20610	0.35311
2260.27754	0.35521
2258.34897	0.35721
2256.42041	0.35923
2254.49185	0.36139
2252.56328	0.36352
2250.63472	0.36548
2248.70615	0.36741
2246.77759	0.36954
2244.84902	0.37186
2242.92046	0.37412
2240.99189	0.37621
2239.06333	0.37830
2237.13477	0.38063
2235.20620	0.38302
2233.27764	0.38529
2231.34907	0.38754
2229.42051	0.38983
2227.49194	0.39215
2225.56338	0.39445
2223.63481	0.39663
2221.70625	0.39876
2219.77769	0.40097
2217.84912	0.40314
2215.92056	0.40527
2213.99199	0.40746
2212.06343	0.40973
2210.13486	0.41185
2208.20630	0.41379
2206.27773	0.41580
2204.34917	0.41800
2202.42061	0.42029
2200.49204	0.42243
2198.56348	0.42432
2196.63491	0.42615
2194.70635	0.42811
2192.77778	0.43017
2190.84922	0.43221
2188.92065	0.43407
2186.99209	0.43573
2185.06353	0.43733
2183.13496	0.43893
2181.20640	0.44048
2179.27783	0.44206
2177.34927	0.44379
2175.42070	0.44552
2173.49214	0.44708
2171.56357	0.44852
2169.63501	0.44997
2167.70645	0.45132
2165.77788	0.45257
2163.84932	0.45383
2161.92075	0.45492
2159.99219	0.45580
2158.06362	0.45668
2156.13506	0.45759
2154.20649	0.45840
2152.27793	0.45914
2150.34937	0.45990
2148.42080	0.46065
2146.49224	0.46127
2144.56367	0.46167
2142.63511	0.46199
2140.70654	0.46238
2138.77798	0.46272
2136.84941	0.46289
2134.92085	0.46298
2132.99229	0.46292
2131.06372	0.46273
2129.13516	0.46244
2127.20659	0.46204
2125.27803	0.46164
2123.34946	0.46123
2121.42090	0.46083
2119.49233	0.46047
2117.56377	0.46000
2115.63521	0.45921
2113.70664	0.45819
2111.77808	0.45718
2109.84951	0.45621
2107.92095	0.45519
2105.99238	0.45404
2104.06382	0.45270
2102.13525	0.45120
2100.20669	0.44973
2098.27812	0.44832
2096.34956	0.44684
2094.42100	0.44532
2092.49243	0.44376
2090.56387	0.44212
2088.63530	0.44036
2086.70674	0.43852
2084.77817	0.43665
2082.84961	0.43471
2080.92104	0.43258
2078.99248	0.43036
2077.06392	0.42825
2075.13535	0.42616
2073.20679	0.42401
2071.27822	0.42186
2069.34966	0.41970
2067.42109	0.41742
2065.49253	0.41500
2063.56396	0.41252
2061.63540	0.41007
2059.70684	0.40767
2057.77827	0.40515
2055.84971	0.40242
2053.92114	0.39965
2051.99258	0.39707
2050.06401	0.39459
2048.13545	0.39201
2046.20688	0.38935
2044.27832	0.38670
2042.34976	0.38400
2040.42119	0.38111
2038.49263	0.37818
2036.56406	0.37545
2034.63550	0.37278
2032.70693	0.37003
2030.77837	0.36733
2028.84980	0.36462
2026.92124	0.36177
2024.99268	0.35893
2023.06411	0.35623
2021.13555	0.35353
2019.20698	0.35078
2017.27842	0.34802
2015.34985	0.34518
2013.42129	0.34229
2011.49272	0.33947
2009.56416	0.33680
2007.63560	0.33425
2005.70703	0.33171
2003.77847	0.32911
2001.84990	0.32643
1999.92134	0.32369
1997.99277	0.32096
1996.06421	0.31837
1994.13564	0.31596
1992.20708	0.31356
1990.27852	0.31101
1988.34995	0.30842
1986.42139	0.30580
1984.49282	0.30324
1982.56426	0.30086
1980.63569	0.29866
1978.70713	0.29651
1976.77856	0.29432
1974.85000	0.29214
1972.92144	0.28997
1970.99287	0.28784
1969.06431	0.28582
1967.13574	0.28383
1965.20718	0.28172
1963.27861	0.27969
1961.35005	0.27781
1959.42148	0.27595
1957.49292	0.27413
1955.56436	0.27234
1953.63579	0.27054
1951.70723	0.26879
1949.77866	0.26719
1947.85010	0.26568
1945.92153	0.26417
1943.99297	0.26268
1942.06440	0.26125
1940.13584	0.25983
1938.20728	0.25849
1936.27871	0.25718
1934.35015	0.25586
1932.42158	0.25466
1930.49302	0.25353
1928.56445	0.25236
1926.63589	0.25119
1924.70732	0.25019
1922.77876	0.24927
1920.85020	0.24833
1918.92163	0.24747
1916.99307	0.24660
1915.06450	0.24568
1913.13594	0.24488
1911.20737	0.24425
1909.27881	0.24359
1907.35024	0.24284
1905.42168	0.24209
1903.49312	0.24140
1901.56455	0.24080
1899.63599	0.24028
1897.70742	0.23985
1895.77886	0.23946
1893.85029	0.23911
1891.92173	0.23882
1889.99316	0.23860
1888.06460	0.23840
1886.13604	0.23826
1884.20747	0.23812
1882.27891	0.23791
1880.35034	0.23772
1878.42178	0.23756
1876.49321	0.23753
1874.56465	0.23767
1872.63608	0.23793
1870.70752	0.23819
1868.77896	0.23859
1866.85039	0.23892
1864.92183	0.23894
1862.99326	0.23896
1861.06470	0.23922
1859.13613	0.23961
1857.20757	0.23990
1855.27900	0.24025
1853.35044	0.24073
1851.42187	0.24133
1849.49331	0.24190
1847.56475	0.24245
1845.63618	0.24315
1843.70762	0.24415
1841.77905	0.24509
1839.85049	0.24573
1837.92192	0.24653
1835.99336	0.24738
1834.06479	0.24821
1832.13623	0.24919
1830.20767	0.25063
1828.27910	0.25218
1826.35054	0.25334
1824.42197	0.25454
1822.49341	0.25568
1820.56484	0.25690
1818.63628	0.25836
1816.70771	0.25999
1814.77915	0.26160
1812.85059	0.26345
1810.92202	0.26560
1808.99346	0.26768
1807.06489	0.26961
1805.13633	0.27153
1803.20776	0.27373
1801.27920	0.27619
1799.35063	0.27898
1797.42207	0.28158
1795.49351	0.28401
1793.56494	0.28674
1791.63638	0.29029
1789.70781	0.29384
1787.77925	0.29661
1785.85068	0.29974
1783.92212	0.30338
1781.99355	0.30732
1780.06499	0.31154
1778.13643	0.31595
1776.20786	0.32013
1774.27930	0.32446
1772.35073	0.33011
1770.42217	0.33635
1768.49360	0.34183
1766.56504	0.34716
1764.63647	0.35256
1762.70791	0.35841
1760.77935	0.36580
1758.85078	0.37280
1756.92222	0.37988
1754.99365	0.38775
1753.06509	0.39496
1751.13652	0.40331
1749.20796	0.41377
1747.27939	0.42431
1745.35083	0.43364
1743.42227	0.44346
1741.49370	0.45426
1739.56514	0.46689
1737.63657	0.47946
1735.70801	0.49044
1733.77944	0.50676
1731.85088	0.52643
1729.92231	0.54235
1727.99375	0.55847
1726.06519	0.57554
1724.13662	0.59390
1722.20806	0.61364
1720.27949	0.63191
1718.35093	0.65325
1716.42236	0.68490
1714.49380	0.71543
1712.56523	0.74031
1710.63667	0.76438
1708.70811	0.79013
1706.77954	0.81924
1704.85098	0.85403
1702.92241	0.88527
1700.99385	0.91607
1699.06528	0.96096
1697.13672	1.00175
1695.20815	1.04427
1693.27959	1.08637
1691.35103	1.12020
1689.42246	1.15847
1687.49390	1.19853
1685.56533	1.23698
1683.63677	1.29610
1681.70820	1.35766
1679.77964	1.39776
1677.85107	1.43663
1675.92251	1.48109
1673.99395	1.53474
1672.06538	1.58196
1670.13682	1.62843
1668.20825	1.68833
1666.27969	1.73622
1664.35112	1.77631
1662.42256	1.82648
1660.49399	1.88253
1658.56543	1.92574
1656.63687	1.96122
1654.70830	1.99630
1652.77974	2.05279
1650.85117	2.10260
1648.92261	2.12104
1646.99404	2.14848
1645.06548	2.17894
1643.13691	2.19685
1641.20835	2.20765
1639.27979	2.21848
1637.35122	2.22594
1635.42266	2.22762
1633.49409	2.22304
1631.56553	2.21196
1629.63696	2.19663
1627.70840	2.17145
1625.77983	2.14190
1623.85127	2.10252
1621.92271	2.05357
1619.99414	2.01134
1618.06558	1.97007
1616.13701	1.90905
1614.20845	1.84656
1612.27988	1.80024
1610.35132	1.75237
1608.42275	1.69963
1606.49419	1.64722
1604.56562	1.59897
1602.63706	1.55201
1600.70850	1.50589
1598.77993	1.46362
1596.85137	1.42351
1594.92280	1.38398
1592.99424	1.34576
1591.06567	1.31049
1589.13711	1.27697
1587.20854	1.24568
1585.27998	1.21672
1583.35142	1.18921
1581.42285	1.16370
1579.49429	1.14186
1577.56572	1.12209
1575.63716	1.09742
1573.70859	1.07543
1571.78003	1.06122
1569.85146	1.04624
1567.92290	1.02931
1565.99434	1.01610
1564.06577	1.00507
1562.13721	0.99612
1560.20864	0.98962
1558.28008	0.98015
1556.35151	0.97085
1554.42295	0.96454
1552.49438	0.95827
1550.56582	0.95145
1548.63726	0.94354
1546.70869	0.93551
1544.78013	0.92701
1542.85156	0.91719
1540.92300	0.90436
1538.99443	0.88551
1537.06587	0.87179
1535.13730	0.86260
1533.20874	0.85050
1531.28018	0.83739
1529.35161	0.82795
1527.42305	0.81918
1525.49448	0.80985
1523.56592	0.80156
1521.63735	0.79338
1519.70879	0.78495
1517.78022	0.77797
1515.85166	0.77033
1513.92310	0.76246
1511.99453	0.75573
1510.06597	0.74980
1508.13740	0.74448
1506.20884	0.73603
1504.28027	0.72753
1502.35171	0.72255
1500.42314	0.71854
1498.49458	0.71437
1496.56602	0.70939
1494.63745	0.70438
1492.70889	0.70058
1490.78032	0.69745
1488.85176	0.69383
1486.92319	0.69011
1484.99463	0.68711
1483.06606	0.68472
1481.13750	0.68262
1479.20894	0.68084
1477.28037	0.67953
1475.35181	0.67842
1473.42324	0.67729
1471.49468	0.67560
1469.56611	0.67350
1467.63755	0.67150
1465.70898	0.66969
1463.78042	0.66786
1461.85186	0.66620
1459.92329	0.66499
1457.99473	0.66399
1456.06616	0.66223
1454.13760	0.65951
1452.20903	0.65686
1450.28047	0.65433
1448.35190	0.65201
1446.42334	0.64961
1444.49478	0.64717
1442.56621	0.64501
1440.63765	0.64304
1438.70908	0.64113
1436.78052	0.63889
1434.85195	0.63617
1432.92339	0.63367
1430.99482	0.63176
1429.06626	0.63024
1427.13770	0.62893
1425.20913	0.62797
1423.28057	0.62728
1421.35200	0.62665
1419.42344	0.62584
1417.49487	0.62447
1415.56631	0.62278
1413.63774	0.62142
1411.70918	0.62040
1409.78062	0.61963
1407.85205	0.61917
1405.92349	0.61903
1403.99492	0.61870
1402.06636	0.61773
1400.13779	0.61648
1398.20923	0.61504
1396.28066	0.61334
1394.35210	0.61128
1392.42354	0.60908
1390.49497	0.60700
1388.56641	0.60466
1386.63784	0.60181
1384.70928	0.59912
1382.78071	0.59696
1380.85215	0.59495
1378.92358	0.59306
1376.99502	0.59159
1375.06646	0.59068
1373.13789	0.58998
1371.20933	0.58910
1369.28076	0.58813
1367.35220	0.58708
1365.42363	0.58600
1363.49507	0.58490
1361.56650	0.58371
1359.63794	0.58244
1357.70937	0.58114
1355.78081	0.57993
1353.85225	0.57892
1351.92368	0.57796
1349.99512	0.57698
1348.06655	0.57596
1346.13799	0.57490
1344.20942	0.57386
1342.28086	0.57290
1340.35229	0.57203
1338.42373	0.57124
1336.49517	0.57050
1334.56660	0.56968
1332.63804	0.56879
1330.70947	0.56811
1328.78091	0.56773
1326.85234	0.56739
1324.92378	0.56690
1322.99521	0.56643
1321.06665	0.56613
1319.13809	0.56590
1317.20952	0.56561
1315.28096	0.56524
1313.35239	0.56461
1311.42383	0.56370
1309.49526	0.56265
1307.56670	0.56173
1305.63813	0.56115
1303.70957	0.56071
1301.78101	0.56012
1299.85244	0.55933
1297.92388	0.55850
1295.99531	0.55771
1294.06675	0.55685
1292.13818	0.55594
1290.20962	0.55507
1288.28105	0.55428
1286.35249	0.55350
1284.42393	0.55274
1282.49536	0.55196
1280.56680	0.55113
1278.63823	0.55038
1276.70967	0.54956
1274.78110	0.54855
1272.85254	0.54771
1270.92397	0.54712
1268.99541	0.54650
1267.06685	0.54595
1265.13828	0.54558
1263.20972	0.54522
1261.28115	0.54478
1259.35259	0.54427
1257.42402	0.54376
1255.49546	0.54338
1253.56689	0.54311
1251.63833	0.54283
1249.70977	0.54249
1247.78120	0.54199
1245.85264	0.54135
1243.92407	0.54086
1241.99551	0.54052
1240.06694	0.53994
1238.13838	0.53895
1236.20981	0.53771
1234.28125	0.53643
1232.35269	0.53524
1230.42412	0.53413
1228.49556	0.53298
1226.56699	0.53170
1224.63843	0.53032
1222.70986	0.52910
1220.78130	0.52819
1218.85273	0.52727
1216.92417	0.52609
1214.99561	0.52493
1213.06704	0.52418
1211.13848	0.52393
1209.20991	0.52378
1207.28135	0.52325
1205.35278	0.52234
1203.42422	0.52153
1201.49565	0.52086
1199.56709	0.51998
1197.63853	0.51896
1195.70996	0.51825
1193.78140	0.51783
1191.85283	0.51735
1189.92427	0.51681
1187.99570	0.51644
1186.06714	0.51615
1184.13857	0.51588
1182.21001	0.51601
1180.28145	0.51660
1178.35288	0.51743
1176.42432	0.51836
1174.49575	0.51936
1172.56719	0.52032
1170.63862	0.52106
1168.71006	0.52168
1166.78149	0.52251
1164.85293	0.52358
1162.92437	0.52444
1160.99580	0.52490
1159.06724	0.52510
1157.13867	0.52507
1155.21011	0.52465
1153.28154	0.52370
1151.35298	0.52218
1149.42441	0.52010
1147.49585	0.51755
1145.56729	0.51496
1143.63872	0.51244
1141.71016	0.50979
1139.78159	0.50734
1137.85303	0.50562
1135.92446	0.50455
1133.99590	0.50373
1132.06733	0.50277
1130.13877	0.50163
1128.21021	0.50055
1126.28164	0.49971
1124.35308	0.49914
1122.42451	0.49899
1120.49595	0.49931
1118.56738	0.49990
1116.63882	0.50057
1114.71025	0.50126
1112.78169	0.50187
1110.85312	0.50242
1108.92456	0.50316
1106.99600	0.50415
1105.06743	0.50510
1103.13887	0.50582
1101.21030	0.50663
1099.28174	0.50799
1097.35317	0.50998
1095.42461	0.51257
1093.49604	0.51595
1091.56748	0.52060
1089.63892	0.52690
1087.71035	0.53480
1085.78179	0.54370
1083.85322	0.55262
1081.92466	0.56063
1079.99609	0.56676
1078.06753	0.57002
1076.13896	0.57001
1074.21040	0.56705
1072.28184	0.56182
1070.35327	0.55525
1068.42471	0.54822
1066.49614	0.54137
1064.56758	0.53498
1062.63901	0.52926
1060.71045	0.52438
1058.78188	0.52009
1056.85332	0.51608
1054.92476	0.51252
1052.99619	0.50977
1051.06763	0.50772
1049.13906	0.50616
1047.21050	0.50527
1045.28193	0.50519
1043.35337	0.50559
1041.42480	0.50595
1039.49624	0.50613
1037.56768	0.50646
1035.63911	0.50685
1033.71055	0.50676
1031.78198	0.50593
1029.85342	0.50447
1027.92485	0.50285
1025.99629	0.50146
1024.06772	0.50028
1022.13916	0.49935
1020.21060	0.49881
1018.28203	0.49850
1016.35347	0.49835
1014.42490	0.49829
1012.49634	0.49806
1010.56777	0.49774
1008.63921	0.49764
1006.71064	0.49797
1004.78208	0.49893
1002.85352	0.50067
1000.92495	0.50307
998.99639	0.50614
997.06782	0.51007
995.13926	0.51463
993.21069	0.51885
991.28213	0.52181
989.35356	0.52340
987.42500	0.52397
985.49644	0.52392
983.56787	0.52377
981.63931	0.52401
979.71074	0.52489
977.78218	0.52648
975.85361	0.52869
973.92505	0.53142
971.99648	0.53454
970.06792	0.53790
968.13936	0.54144
966.21079	0.54533
964.28223	0.54979
962.35366	0.55474
960.42510	0.55983
958.49653	0.56504
956.56797	0.57075
954.63940	0.57705
952.71084	0.58356
950.78228	0.58986
948.85371	0.59597
946.92515	0.60229
944.99658	0.60885
943.06802	0.61528
941.13945	0.62136
939.21089	0.62730
937.28232	0.63325
935.35376	0.63932
933.42520	0.64544
931.49663	0.65121
929.56807	0.65695
927.63950	0.66309
925.71094	0.66944
923.78237	0.67620
921.85381	0.68350
919.92524	0.69074
917.99668	0.69783
916.06812	0.70525
914.13955	0.71290
912.21099	0.72033
910.28242	0.72732
908.35386	0.73469
906.42529	0.74370
904.49673	0.75388
902.56816	0.76391
900.63960	0.77357
898.71104	0.78376
896.78247	0.79465
894.85391	0.80499
892.92534	0.81476
890.99678	0.82517
889.06821	0.83671
887.13965	0.84851
885.21108	0.85972
883.28252	0.87145
881.35396	0.88358
879.42539	0.89512
877.49683	0.90673
875.56826	0.91810
873.63970	0.92824
871.71113	0.93839
869.78257	0.95067
867.85400	0.96406
865.92544	0.97573
863.99687	0.98590
862.06831	0.99686
860.13975	1.00942
858.21118	1.02333
856.28262	1.03713
854.35405	1.04875
852.42549	1.05909
850.49692	1.07005
848.56836	1.08075
846.63979	1.09096
844.71123	1.10334
842.78267	1.11871
840.85410	1.13255
838.92554	1.14160
836.99697	1.15206
835.06841	1.16879
833.13984	1.18762
831.21128	1.20462
829.28271	1.21824
827.35415	1.23025
825.42559	1.24250
823.49702	1.25167
821.56846	1.26299
819.63989	1.28464
817.71133	1.30959
815.78276	1.33034
813.85420	1.34557
811.92563	1.35485
809.99707	1.36150
808.06851	1.36631
806.13994	1.37664
804.21138	1.40387
802.28281	1.44898
800.35425	1.49415
798.42568	1.51209
796.49712	1.51149
794.56855	1.55258
792.63999	1.71874
790.71143	2.30420
788.78286	4.73270
786.85430	4.72113
784.92573	4.70955
782.99717	2.18161
781.06860	1.78806
779.14004	1.67221
777.21147	1.80046
775.28291	2.02976
773.35435	2.04110
771.42578	2.24857
769.49722	4.61698
767.56865	2.56543
765.64009	1.73389
763.71152	1.39640
761.78296	1.28985
759.85439	1.30257
757.92583	1.31783
755.99727	1.33074
754.06870	1.29477
752.14014	1.20157
750.21157	1.15058
748.28301	1.15930
746.35444	1.16303
744.42588	1.16517
742.49731	1.24229
740.56875	1.32362
738.64019	1.18791
736.71162	0.99339
734.78306	0.84585
732.85449	0.71338
730.92593	0.63279
728.99736	0.59754
727.06880	0.50513
725.14023	0.38047
723.21167	0.29213
721.28311	0.25298
719.35454	0.27903
717.42598	0.33443
715.49741	0.33601
713.56885	0.28203
711.64028	0.22289
709.71172	0.18451
707.78315	0.14578
705.85459	0.09562
703.92603	0.12182
701.99746	0.23944
700.06890	0.26560
698.14033	0.15841
696.21177	0.08296
694.28320	0.13446
692.35464	0.21664
690.42607	0.20304
688.49751	0.13223
686.56895	0.11251
684.64038	0.12337
682.71182	0.13221
680.78325	0.15698
678.85469	0.23062
676.92612	0.26498
674.99756	0.21263
673.06899	0.12886
671.14043	0.03556
669.21187	0.00147
667.28330	0.07732
665.35474	0.17263
663.42617	0.15097
661.49761	0.09176
659.56904	0.07081
657.64048	0.08288
655.71191	0.11950
653.78335	0.13372
651.85479	0.15595
649.92622	0.23050
647.99766	0.24008
646.06909	0.18701
644.14053	0.16520
642.21196	0.14607
640.28340	0.10914
638.35483	0.11369
636.42627	0.16447
634.49771	0.20607
632.56914	0.25355
630.64058	0.28807
628.71201	0.26904
626.78345	0.21727
624.85488	0.17258
622.92632	0.20241
620.99775	0.26710
619.06919	0.30089
617.14062	0.29101
615.21206	0.26370
613.28350	0.25543
611.35493	0.23493
609.42637	0.18966
607.49780	0.14425
605.56924	0.13916
603.64067	0.17178
601.71211	0.17548
599.78354	0.13918
597.85498	0.12389
595.92642	0.13744
593.99785	0.18215
592.06929	0.22241
590.14072	0.15471
588.21216	0.08660
586.28359	0.08615
584.35503	0.08911
582.42646	0.10875
580.49790	0.15956
578.56934	0.13246
576.64077	0.07503
574.71221	0.08438
572.78364	0.10885
570.85508	0.09203
568.92651	0.06341
566.99795	0.07076
565.06938	0.11165
563.14082	0.16363
561.21226	0.17561
559.28369	0.13254
557.35513	0.08027
555.42656	0.05167
553.49800	0.07044
551.56943	0.11018
549.64087	0.14957
547.71230	0.18258
545.78374	0.19420
543.85518	0.16038
541.92661	0.11987
539.99805	0.11397
538.06948	0.14981
536.14092	0.20986
534.21235	0.22797
532.28379	0.21111
530.35522	0.18089
528.42666	0.13677
526.49810	0.10837
524.56953	0.10401
522.64097	0.10609
520.71240	0.10738
518.78384	0.09928
516.85527	0.09481
514.92671	0.12113
512.99814	0.17320
511.06958	0.19348
509.14102	0.15788
507.21245	0.12377
505.28389	0.11579
503.35532	0.13388
501.42676	0.13533
499.49819	0.11653
