3997.91411	0.07184
3995.98555	0.07114
3994.05698	0.07086
3992.12842	0.07161
3990.19985	0.07278
3988.27129	0.07361
3986.34272	0.07399
3984.41416	0.07397
3982.48560	0.07363
3980.55703	0.07332
3978.62847	0.07326
3976.69990	0.07345
3974.77134	0.07369
3972.84277	0.07371
3970.91421	0.07380
3968.98564	0.07422
3967.05708	0.07459
3965.12852	0.07455
3963.19995	0.07457
3961.27139	0.07492
3959.34282	0.07519
3957.41426	0.07529
3955.48569	0.07549
3953.55713	0.07560
3951.62856	0.07548
3949.70000	0.07549
3947.77144	0.07581
3945.84287	0.07607
3943.91431	0.07605
3941.98574	0.07604
3940.05718	0.07595
3938.12861	0.07563
3936.20005	0.07551
3934.27148	0.07565
3932.34292	0.07561
3930.41436	0.07529
3928.48579	0.07492
3926.55723	0.07453
3924.62866	0.07434
3922.70010	0.07465
3920.77153	0.07527
3918.84297	0.07551
3916.91440	0.07529
3914.98584	0.07514
3913.05728	0.07528
3911.12871	0.07539
3909.20015	0.07509
3907.27158	0.07437
3905.34302	0.07383
3903.41445	0.07424
3901.48589	0.07500
3899.55732	0.07505
3897.62876	0.07519
3895.70020	0.07533
3893.77163	0.07483
3891.84307	0.07454
3889.91450	0.07480
3887.98594	0.07454
3886.05737	0.07442
3884.12881	0.07506
3882.20024	0.07526
3880.27168	0.07513
3878.34312	0.07525
3876.41455	0.07506
3874.48599	0.07475
3872.55742	0.07475
3870.62886	0.07500
3868.70029	0.07548
3866.77173	0.07564
3864.84316	0.07542
3862.91460	0.07569
3860.98604	0.07665
3859.05747	0.07745
3857.12891	0.07760
3855.20034	0.07723
3853.27178	0.07736
3851.34321	0.07916
3849.41465	0.08035
3847.48608	0.08050
3845.55752	0.08063
3843.62896	0.08094
3841.70039	0.08115
3839.77183	0.08121
3837.84326	0.08200
3835.91470	0.08384
3833.98613	0.08499
3832.05757	0.08502
3830.12900	0.08494
3828.20044	0.08524
3826.27187	0.08609
3824.34331	0.08698
3822.41475	0.08720
3820.48618	0.08794
3818.55762	0.08953
3816.62905	0.09072
3814.70049	0.09222
3812.77192	0.09345
3810.84336	0.09373
3808.91479	0.09412
3806.98623	0.09522
3805.05767	0.09627
3803.12910	0.09683
3801.20054	0.09794
3799.27197	0.09938
3797.34341	0.09989
3795.41484	0.10076
3793.48628	0.10270
3791.55771	0.10471
3789.62915	0.10619
3787.70059	0.10729
3785.77202	0.10842
3783.84346	0.10981
3781.91489	0.11147
3779.98633	0.11334
3778.05776	0.11535
3776.12920	0.11693
3774.20063	0.11809
3772.27207	0.11939
3770.34351	0.12118
3768.41494	0.12328
3766.48638	0.12507
3764.55781	0.12688
3762.62925	0.12855
3760.70068	0.12991
3758.77212	0.13192
3756.84355	0.13458
3754.91499	0.13661
3752.98643	0.13845
3751.05786	0.14125
3749.12930	0.14473
3747.20073	0.14708
3745.27217	0.14920
3743.34360	0.15334
3741.41504	0.15755
3739.48647	0.15977
3737.55791	0.16176
3735.62935	0.16557
3733.70078	0.17198
3731.77222	0.17854
3729.84365	0.18348
3727.91509	0.18714
3725.98652	0.19121
3724.05796	0.19706
3722.12939	0.20423
3720.20083	0.21172
3718.27227	0.21910
3716.34370	0.22673
3714.41514	0.23412
3712.48657	0.24207
3710.55801	0.25392
3708.62944	0.26853
3706.70088	0.28093
3704.77231	0.29197
3702.84375	0.30443
3700.91519	0.32078
3698.98662	0.33903
3697.05806	0.35612
3695.12949	0.37357
3693.20093	0.39180
3691.27236	0.41174
3689.34380	0.43797
3687.41523	0.47122
3685.48667	0.50197
3683.55811	0.52910
3681.62954	0.55715
3679.70098	0.58729
3677.77241	0.61821
3675.84385	0.65499
3673.91528	0.70650
3671.98672	0.75053
3670.05815	0.78921
3668.12959	0.84111
3666.20103	0.88905
3664.27246	0.92938
3662.34390	0.97245
3660.41533	1.01880
3658.48677	1.06418
3656.55820	1.11211
3654.62964	1.16556
3652.70107	1.21024
3650.77251	1.24771
3648.84395	1.29963
3646.91538	1.36760
3644.98682	1.41997
3643.05825	1.45914
3641.12969	1.49815
3639.20112	1.54121
3637.27256	1.58472
3635.34399	1.62718
3633.41543	1.66971
3631.48687	1.70870
3629.55830	1.74675
3627.62974	1.79734
3625.70117	1.84768
3623.77261	1.88317
3621.84404	1.91621
3619.91548	1.95338
3617.98691	1.99859
3616.05835	2.04222
3614.12979	2.07781
3612.20122	2.11503
3610.27266	2.15385
3608.34409	2.19370
3606.41553	2.23584
3604.48696	2.27564
3602.55840	2.31254
3600.62983	2.35178
3598.70127	2.39285
3596.77271	2.43170
3594.84414	2.47013
3592.91558	2.51122
3590.98701	2.55094
3589.05845	2.58563
3587.12988	2.62551
3585.20132	2.67342
3583.27275	2.71719
3581.34419	2.75634
3579.41562	2.79681
3577.48706	2.84036
3575.55850	2.88460
3573.62993	2.92794
3571.70137	2.96901
3569.77280	3.00872
3567.84424	3.05065
3565.91567	3.10081
3563.98711	3.15107
3562.05854	3.19454
3560.12998	3.23747
3558.20142	3.28078
3556.27285	3.32391
3554.34429	3.36836
3552.41572	3.41658
3550.48716	3.46514
3548.55859	3.50942
3546.63003	3.55293
3544.70146	3.60095
3542.77290	3.65002
3540.84434	3.69738
3538.91577	3.74545
3536.98721	3.79388
3535.05864	3.84429
3533.13008	3.89361
3531.20151	3.93753
3529.27295	3.98271
3527.34438	4.03454
3525.41582	4.08245
3523.48726	4.12408
3521.55869	4.17192
3519.63013	4.22581
3517.70156	4.27542
3515.77300	4.31902
3513.84443	4.36467
3511.91587	4.41303
3509.98730	4.46046
3508.05874	4.50803
3506.13018	4.55614
3504.20161	4.60331
3502.27305	4.65286
3500.34448	4.70718
3498.41592	4.75877
3496.48735	4.80563
3494.55879	4.85419
3492.63022	4.90627
3490.70166	4.95445
3488.77310	4.99710
3486.84453	5.04093
3484.91597	5.08682
3482.98740	5.13294
3481.05884	5.17720
3479.13027	5.22041
3477.20171	5.27045
3475.27314	5.32708
3473.34458	5.38081
3471.41602	5.42431
3469.48745	5.45902
3467.55889	5.49679
3465.63032	5.54172
3463.70176	5.58734
3461.77319	5.63609
3459.84463	5.68989
3457.91606	5.74140
3455.98750	5.79552
3454.05894	5.85203
3452.13037	5.90086
3450.20181	5.94882
3448.27324	6.00720
3446.34468	6.07495
3444.41611	6.13213
3442.48755	6.17234
3440.55898	6.20890
3438.63042	6.25400
3436.70186	6.31007
3434.77329	6.37018
3432.84473	6.42449
3430.91616	6.46091
3428.98760	6.49608
3427.05903	6.55964
3425.13047	6.64295
3423.20190	6.69904
3421.27334	6.72398
3419.34478	6.75957
3417.41621	6.80662
3415.48765	6.83475
3413.55908	6.85711
3411.63052	6.90534
3409.70195	6.96658
3407.77339	7.02278
3405.84482	7.05845
3403.91626	7.09589
3401.98770	7.15913
3400.05913	7.22007
3398.13057	7.26077
3396.20200	7.26230
3394.27344	7.24717
3392.34487	7.29253
3390.41631	7.38244
3388.48774	7.41857
3386.55918	7.41955
3384.63062	7.41974
3382.70205	7.41352
3380.77349	7.42861
3378.84492	7.47648
3376.91636	7.54142
3374.98779	7.58616
3373.05923	7.61334
3371.13066	7.61904
3369.20210	7.62156
3367.27354	7.65152
3365.34497	7.67443
3363.41641	7.69493
3361.48784	7.74186
3359.55928	7.78917
3357.63071	7.80984
3355.70215	7.81897
3353.77358	7.83587
3351.84502	7.88458
3349.91646	7.93655
3347.98789	7.95243
3346.05933	7.93030
3344.13076	7.91107
3342.20220	7.99125
3340.27363	8.13519
3338.34507	8.19015
3336.41650	8.12722
3334.48794	8.02579
3332.55937	7.96365
3330.63081	8.00003
3328.70225	8.09503
3326.77368	8.16495
3324.84512	8.20945
3322.91655	8.23806
3320.98799	8.23132
3319.05942	8.19740
3317.13086	8.12797
3315.20229	7.97930
3313.27373	7.85916
3311.34517	7.88135
3309.41660	7.98715
3307.48804	8.05905
3305.55947	8.07187
3303.63091	8.05909
3301.70234	8.04280
3299.77378	8.07287
3297.84521	8.13404
3295.91665	8.16345
3293.98809	8.15379
3292.05952	8.14305
3290.13096	8.18586
3288.20239	8.25112
3286.27383	8.25793
3284.34526	8.23734
3282.41670	8.21129
3280.48813	8.17056
3278.55957	8.18226
3276.63101	8.22794
3274.70244	8.26607
3272.77388	8.30035
3270.84531	8.26076
3268.91675	8.14258
3266.98818	8.06062
3265.05962	8.04529
3263.13105	8.05728
3261.20249	8.13438
3259.27393	8.25697
3257.34536	8.36852
3255.41680	8.43062
3253.48823	8.35770
3251.55967	8.20359
3249.63110	8.11267
3247.70254	8.18581
3245.77397	8.34917
3243.84541	8.36465
3241.91685	8.25412
3239.98828	8.19302
3238.05972	8.17337
3236.13115	8.13808
3234.20259	8.05684
3232.27402	7.94929
3230.34546	7.90863
3228.41689	7.98134
3226.48833	8.08350
3224.55977	8.10137
3222.63120	8.07185
3220.70264	8.05739
3218.77407	8.08540
3216.84551	8.14194
3214.91694	8.08535
3212.98838	7.92515
3211.05981	7.84539
3209.13125	7.84562
3207.20269	7.79282
3205.27412	7.68839
3203.34556	7.61911
3201.41699	7.62315
3199.48843	7.68816
3197.55986	7.72880
3195.63130	7.68455
3193.70273	7.62717
3191.77417	7.61155
3189.84561	7.63176
3187.91704	7.65030
3185.98848	7.59449
3184.05991	7.48246
3182.13135	7.38446
3180.20278	7.32679
3178.27422	7.29570
3176.34565	7.25032
3174.41709	7.18934
3172.48853	7.13547
3170.55996	7.09565
3168.63140	7.04502
3166.70283	6.95873
3164.77427	6.88338
3162.84570	6.84163
3160.91714	6.79522
3158.98857	6.72913
3157.06001	6.65816
3155.13145	6.58755
3153.20288	6.49983
3151.27432	6.41584
3149.34575	6.36507
3147.41719	6.31812
3145.48862	6.24855
3143.56006	6.16856
3141.63149	6.09733
3139.70293	6.03557
3137.77437	5.96705
3135.84580	5.89180
3133.91724	5.82306
3131.98867	5.75666
3130.06011	5.68896
3128.13154	5.62087
3126.20298	5.54961
3124.27441	5.47917
3122.34585	5.40774
3120.41729	5.33544
3118.48872	5.26587
3116.56016	5.19793
3114.63159	5.13253
3112.70303	5.07019
3110.77446	5.00555
3108.84590	4.92943
3106.91733	4.84533
3104.98877	4.76915
3103.06021	4.70628
3101.13164	4.64533
3099.20308	4.58032
3097.27451	4.51423
3095.34595	4.44633
3093.41738	4.37964
3091.48882	4.31547
3089.56025	4.24798
3087.63169	4.17937
3085.70312	4.11571
3083.77456	4.05350
3081.84600	3.98949
3079.91743	3.92476
3077.98887	3.86068
3076.06030	3.80083
3074.13174	3.74477
3072.20317	3.68872
3070.27461	3.63160
3068.34604	3.57356
3066.41748	3.51544
3064.48892	3.45816
3062.56035	3.40193
3060.63179	3.34702
3058.70322	3.29276
3056.77466	3.23830
3054.84609	3.18418
3052.91753	3.13051
3050.98896	3.07716
3049.06040	3.02479
3047.13184	2.97392
3045.20327	2.92426
3043.27471	2.87453
3041.34614	2.82415
3039.41758	2.77543
3037.48901	2.72968
3035.56045	2.68455
3033.63188	2.63867
3031.70332	2.59246
3029.77476	2.54674
3027.84619	2.50312
3025.91763	2.46072
3023.98906	2.41740
3022.06050	2.37437
3020.13193	2.33275
3018.20337	2.29125
3016.27480	2.25023
3014.34624	2.21117
3012.41768	2.17285
3010.48911	2.13385
3008.56055	2.09543
3006.63198	2.05857
3004.70342	2.02255
3002.77485	1.98717
3000.84629	1.95284
2998.91772	1.91937
2996.98916	1.88596
2995.06060	1.85244
2993.13203	1.81975
2991.20347	1.78841
2989.27490	1.75781
2987.34634	1.72779
2985.41777	1.69879
2983.48921	1.67059
2981.56064	1.64258
2979.63208	1.61471
2977.70352	1.58773
2975.77495	1.56161
2973.84639	1.53569
2971.91782	1.51016
2969.98926	1.48531
2968.06069	1.46097
2966.13213	1.43717
2964.20356	1.41358
2962.27500	1.38971
2960.34644	1.36585
2958.41787	1.34204
2956.48931	1.31783
2954.56074	1.29358
2952.63218	1.26996
2950.70361	1.24722
2948.77505	1.22490
2946.84648	1.20221
2944.91792	1.17996
2942.98936	1.15957
2941.06079	1.14052
2939.13223	1.12116
2937.20366	1.10126
2935.27510	1.08167
2933.34653	1.06270
2931.41797	1.04420
2929.48940	1.02588
2927.56084	1.00762
2925.63228	0.98941
2923.70371	0.97116
2921.77515	0.95295
2919.84658	0.93491
2917.91802	0.91719
2915.98945	0.90009
2914.06089	0.88350
2912.13232	0.86683
2910.20376	0.85024
2908.27520	0.83423
2906.34663	0.81887
2904.41807	0.80405
2902.48950	0.78977
2900.56094	0.77590
2898.63237	0.76217
2896.70381	0.74859
2894.77524	0.73538
2892.84668	0.72248
2890.91812	0.70965
2888.98955	0.69723
2887.06099	0.68586
2885.13242	0.67550
2883.20386	0.66533
2881.27529	0.65502
2879.34673	0.64509
2877.41816	0.63561
2875.48960	0.62603
2873.56104	0.61615
2871.63247	0.60600
2869.70391	0.59554
2867.77534	0.58473
2865.84678	0.57379
2863.91821	0.56317
2861.98965	0.55291
2860.06108	0.54275
2858.13252	0.53270
2856.20396	0.52330
2854.27539	0.51474
2852.34683	0.50655
2850.41826	0.49837
2848.48970	0.48988
2846.56113	0.48088
2844.63257	0.47206
2842.70400	0.46420
2840.77544	0.45722
2838.84687	0.45067
2836.91831	0.44435
2834.98975	0.43824
2833.06118	0.43231
2831.13262	0.42631
2829.20405	0.42005
2827.27549	0.41377
2825.34692	0.40772
2823.41836	0.40182
2821.48979	0.39593
2819.56123	0.39008
2817.63267	0.38445
2815.70410	0.37907
2813.77554	0.37388
2811.84697	0.36872
2809.91841	0.36338
2807.98984	0.35793
2806.06128	0.35251
2804.13271	0.34723
2802.20415	0.34220
2800.27559	0.33745
2798.34702	0.33283
2796.41846	0.32817
2794.48989	0.32356
2792.56133	0.31912
2790.63276	0.31462
2788.70420	0.31014
2786.77563	0.30595
2784.84707	0.30197
2782.91851	0.29800
2780.98994	0.29413
2779.06138	0.29041
2777.13281	0.28669
2775.20425	0.28284
2773.27568	0.27899
2771.34712	0.27522
2769.41855	0.27142
2767.48999	0.26766
2765.56143	0.26412
2763.63286	0.26082
2761.70430	0.25775
2759.77573	0.25473
2757.84717	0.25162
2755.91860	0.24867
2753.99004	0.24585
2752.06147	0.24303
2750.13291	0.24028
2748.20435	0.23749
2746.27578	0.23457
2744.34722	0.23174
2742.41865	0.22912
2740.49009	0.22655
2738.56152	0.22398
2736.63296	0.22164
2734.70439	0.21936
2732.77583	0.21690
2730.84727	0.21448
2728.91870	0.21232
2726.99014	0.21032
2725.06157	0.20828
2723.13301	0.20621
2721.20444	0.20410
2719.27588	0.20192
2717.34731	0.19988
2715.41875	0.19815
2713.49019	0.19661
2711.56162	0.19502
2709.63306	0.19334
2707.70449	0.19164
2705.77593	0.18999
2703.84736	0.18845
2701.91880	0.18695
2699.99023	0.18537
2698.06167	0.18377
2696.13311	0.18234
2694.20454	0.18111
2692.27598	0.17977
2690.34741	0.17832
2688.41885	0.17710
2686.49028	0.17607
2684.56172	0.17510
2682.63315	0.17415
2680.70459	0.17317
2678.77603	0.17211
2676.84746	0.17087
2674.91890	0.16958
2672.99033	0.16848
2671.06177	0.16766
2669.13320	0.16698
2667.20464	0.16632
2665.27607	0.16561
2663.34751	0.16481
2661.41895	0.16393
2659.49038	0.16300
2657.56182	0.16204
2655.63325	0.16113
2653.70469	0.16042
2651.77612	0.15984
2649.84756	0.15924
2647.91899	0.15868
2645.99043	0.15819
2644.06187	0.15770
2642.13330	0.15714
2640.20474	0.15659
2638.27617	0.15617
2636.34761	0.15583
2634.41904	0.15549
2632.49048	0.15509
2630.56191	0.15466
2628.63335	0.15435
2626.70479	0.15417
2624.77622	0.15399
2622.84766	0.15373
2620.91909	0.15344
2618.99053	0.15320
2617.06196	0.15307
2615.13340	0.15298
2613.20483	0.15283
2611.27627	0.15270
2609.34771	0.15261
2607.41914	0.15240
2605.49058	0.15214
2603.56201	0.15210
2601.63345	0.15229
2599.70488	0.15242
2597.77632	0.15239
2595.84775	0.15238
2593.91919	0.15254
2591.99062	0.15288
2590.06206	0.15317
2588.13350	0.15333
2586.20493	0.15353
2584.27637	0.15373
2582.34780	0.15379
2580.41924	0.15391
2578.49067	0.15425
2576.56211	0.15463
2574.63354	0.15503
2572.70498	0.15551
2570.77642	0.15595
2568.84785	0.15636
2566.91929	0.15677
2564.99072	0.15710
2563.06216	0.15733
2561.13359	0.15763
2559.20503	0.15807
2557.27646	0.15859
2555.34790	0.15922
2553.41934	0.15985
2551.49077	0.16034
2549.56221	0.16076
2547.63364	0.16116
2545.70508	0.16161
2543.77651	0.16222
2541.84795	0.16298
2539.91938	0.16375
2537.99082	0.16452
2536.06226	0.16529
2534.13369	0.16599
2532.20513	0.16662
2530.27656	0.16731
2528.34800	0.16806
2526.41943	0.16878
2524.49087	0.16958
2522.56230	0.17036
2520.63374	0.17099
2518.70518	0.17161
2516.77661	0.17236
2514.84805	0.17312
2512.91948	0.17382
2510.99092	0.17460
2509.06235	0.17543
2507.13379	0.17617
2505.20522	0.17697
2503.27666	0.17799
2501.34810	0.17906
2499.41953	0.17993
2497.49097	0.18062
2495.56240	0.18131
2493.63384	0.18206
2491.70527	0.18283
2489.77671	0.18374
2487.84814	0.18477
2485.91958	0.18580
2483.99102	0.18675
2482.06245	0.18760
2480.13389	0.18839
2478.20532	0.18923
2476.27676	0.19019
2474.34819	0.19116
2472.41963	0.19200
2470.49106	0.19278
2468.56250	0.19377
2466.63394	0.19493
2464.70537	0.19592
2462.77681	0.19665
2460.84824	0.19743
2458.91968	0.19844
2456.99111	0.19953
2455.06255	0.20054
2453.13398	0.20136
2451.20542	0.20220
2449.27686	0.20332
2447.34829	0.20449
2445.41973	0.20548
2443.49116	0.20641
2441.56260	0.20732
2439.63403	0.20820
2437.70547	0.20911
2435.77690	0.21009
2433.84834	0.21118
2431.91978	0.21228
2429.99121	0.21332
2428.06265	0.21433
2426.13408	0.21544
2424.20552	0.21660
2422.27695	0.21772
2420.34839	0.21883
2418.41982	0.21998
2416.49126	0.22112
2414.56270	0.22221
2412.63413	0.22329
2410.70557	0.22443
2408.77700	0.22560
2406.84844	0.22675
2404.91987	0.22787
2402.99131	0.22913
2401.06274	0.23059
2399.13418	0.23205
2397.20562	0.23334
2395.27705	0.23443
2393.34849	0.23548
2391.41992	0.23672
2389.49136	0.23813
2387.56279	0.23941
2385.63423	0.24053
2383.70566	0.24189
2381.77710	0.24365
2379.84854	0.24561
2377.91997	0.24758
2375.99141	0.24956
2374.06284	0.25171
2372.13428	0.25399
2370.20571	0.25583
2368.27715	0.25728
2366.34858	0.25971
2364.42002	0.26304
2362.49146	0.26491
2360.56289	0.26535
2358.63433	0.26656
2356.70576	0.26857
2354.77720	0.27065
2352.84863	0.27226
2350.92007	0.27270
2348.99150	0.27249
2347.06294	0.27258
2345.13437	0.27385
2343.20581	0.27660
2341.27725	0.27969
2339.34868	0.28212
2337.42012	0.28387
2335.49155	0.28533
2333.56299	0.28669
2331.63442	0.28789
2329.70586	0.28877
2327.77729	0.28975
2325.84873	0.29128
2323.92017	0.29314
2321.99160	0.29492
2320.06304	0.29635
2318.13447	0.29743
2316.20591	0.29846
2314.27734	0.29979
2312.34878	0.30150
2310.42021	0.30342
2308.49165	0.30516
2306.56309	0.30657
2304.63452	0.30790
2302.70596	0.30941
2300.77739	0.31119
2298.84883	0.31304
2296.92026	0.31485
2294.99170	0.31678
2293.06313	0.31879
2291.13457	0.32060
2289.20601	0.32229
2287.27744	0.32397
2285.34888	0.32561
2283.42031	0.32728
2281.49175	0.32930
2279.56318	0.33167
2277.63462	0.33399
2275.70605	0.33602
2273.77749	0.33795
2271.84893	0.33994
2269.92036	0.34195
2267.99180	0.34399
2266.06323	0.34611
2264.13467	0.34825
2262.20610	0.35034
2260.27754	0.35239
2258.34897	0.35450
2256.42041	0.35669
2254.49185	0.35890
2252.56328	0.36112
2250.63472	0.36337
2248.70615	0.36568
2246.77759	0.36801
2244.84902	0.37021
2242.92046	0.37217
2240.99189	0.37418
2239.06333	0.37642
2237.13477	0.37871
2235.20620	0.38083
2233.27764	0.38297
2231.34907	0.38531
2229.42051	0.38768
2227.49194	0.38984
2225.56338	0.39189
2223.63481	0.39411
2221.70625	0.39647
2219.77769	0.39882
2217.84912	0.40110
2215.92056	0.40337
2213.99199	0.40555
2212.06343	0.40760
2210.13486	0.40968
2208.20630	0.41182
2206.27773	0.41389
2204.34917	0.41588
2202.42061	0.41781
2200.49204	0.41968
2198.56348	0.42157
2196.63491	0.42359
2194.70635	0.42566
2192.77778	0.42761
2190.84922	0.42952
2188.92065	0.43145
2186.99209	0.43322
2185.06353	0.43476
2183.13496	0.43633
2181.20640	0.43802
2179.27783	0.43978
2177.34927	0.44155
2175.42070	0.44306
2173.49214	0.44424
2171.56357	0.44547
2169.63501	0.44695
2167.70645	0.44839
2165.77788	0.44964
2163.84932	0.45076
2161.92075	0.45186
2159.99219	0.45306
2158.06362	0.45423
2156.13506	0.45520
2154.20649	0.45604
2152.27793	0.45682
2150.34937	0.45752
2148.42080	0.45810
2146.49224	0.45854
2144.56367	0.45894
2142.63511	0.45943
2140.70654	0.45985
2138.77798	0.45998
2136.84941	0.45998
2134.92085	0.46014
2132.99229	0.46031
2131.06372	0.46015
2129.13516	0.45968
2127.20659	0.45915
2125.27803	0.45869
2123.34946	0.45836
2121.42090	0.45811
2119.49233	0.45762
2117.56377	0.45686
2115.63521	0.45600
2113.70664	0.45505
2111.77808	0.45405
2109.84951	0.45304
2107.92095	0.45201
2105.99238	0.45100
2104.06382	0.44997
2102.13525	0.44861
2100.20669	0.44699
2098.27812	0.44538
2096.34956	0.44377
2094.42100	0.44206
2092.49243	0.44043
2090.56387	0.43888
2088.63530	0.43714
2086.70674	0.43527
2084.77817	0.43345
2082.84961	0.43151
2080.92104	0.42939
2078.99248	0.42731
2077.06392	0.42521
2075.13535	0.42295
2073.20679	0.42053
2071.27822	0.41807
2069.34966	0.41571
2067.42109	0.41344
2065.49253	0.41116
2063.56396	0.40879
2061.63540	0.40645
2059.70684	0.40417
2057.77827	0.40179
2055.84971	0.39918
2053.92114	0.39640
2051.99258	0.39370
2050.06401	0.39104
2048.13545	0.38829
2046.20688	0.38550
2044.27832	0.38280
2042.34976	0.38010
2040.42119	0.37731
2038.49263	0.37457
2036.56406	0.37186
2034.63550	0.36905
2032.70693	0.36619
2030.77837	0.36340
2028.84980	0.36065
2026.92124	0.35788
2024.99268	0.35510
2023.06411	0.35228
2021.13555	0.34940
2019.20698	0.34661
2017.27842	0.34394
2015.34985	0.34121
2013.42129	0.33838
2011.49272	0.33560
2009.56416	0.33298
2007.63560	0.33034
2005.70703	0.32765
2003.77847	0.32504
2001.84990	0.32248
1999.92134	0.31985
1997.99277	0.31711
1996.06421	0.31440
1994.13564	0.31183
1992.20708	0.30933
1990.27852	0.30687
1988.34995	0.30455
1986.42139	0.30226
1984.49282	0.29990
1982.56426	0.29757
1980.63569	0.29523
1978.70713	0.29286
1976.77856	0.29053
1974.85000	0.28835
1972.92144	0.28623
1970.99287	0.28408
1969.06431	0.28197
1967.13574	0.27998
1965.20718	0.27803
1963.27861	0.27608
1961.35005	0.27418
1959.42148	0.27231
1957.49292	0.27044
1955.56436	0.26865
1953.63579	0.26698
1951.70723	0.26534
1949.77866	0.26364
1947.85010	0.26197
1945.92153	0.26040
1943.99297	0.25892
1942.06440	0.25739
1940.13584	0.25589
1938.20728	0.25455
1936.27871	0.25334
1934.35015	0.25217
1932.42158	0.25091
1930.49302	0.24957
1928.56445	0.24839
1926.63589	0.24742
1924.70732	0.24653
1922.77876	0.24556
1920.85020	0.24451
1918.92163	0.24356
1916.99307	0.24271
1915.06450	0.24189
1913.13594	0.24108
1911.20737	0.24035
1909.27881	0.23965
1907.35024	0.23902
1905.42168	0.23849
1903.49312	0.23799
1901.56455	0.23748
1899.63599	0.23694
1897.70742	0.23644
1895.77886	0.23598
1893.85029	0.23564
1891.92173	0.23534
1889.99316	0.23504
1888.06460	0.23470
1886.13604	0.23446
1884.20747	0.23432
1882.27891	0.23424
1880.35034	0.23424
1878.42178	0.23426
1876.49321	0.23431
1874.56465	0.23432
1872.63608	0.23433
1870.70752	0.23431
1868.77896	0.23447
1866.85039	0.23477
1864.92183	0.23500
1862.99326	0.23526
1861.06470	0.23560
1859.13613	0.23598
1857.20757	0.23625
1855.27900	0.23660
1853.35044	0.23710
1851.42187	0.23773
1849.49331	0.23839
1847.56475	0.23895
1845.63618	0.23945
1843.70762	0.24025
1841.77905	0.24127
1839.85049	0.24200
1837.92192	0.24279
1835.99336	0.24377
1834.06479	0.24486
1832.13623	0.24576
1830.20767	0.24677
1828.27910	0.24815
1826.35054	0.24942
1824.42197	0.25077
1822.49341	0.25213
1820.56484	0.25348
1818.63628	0.25495
1816.70771	0.25661
1814.77915	0.25817
1812.85059	0.25974
1810.92202	0.26159
1808.99346	0.26371
1807.06489	0.26589
1805.13633	0.26795
1803.20776	0.27005
1801.27920	0.27233
1799.35063	0.27508
1797.42207	0.27771
1795.49351	0.28007
1793.56494	0.28265
1791.63638	0.28614
1789.70781	0.28989
1787.77925	0.29285
1785.85068	0.29608
1783.92212	0.29977
1781.99355	0.30360
1780.06499	0.30760
1778.13643	0.31188
1776.20786	0.31588
1774.27930	0.31988
1772.35073	0.32525
1770.42217	0.33164
1768.49360	0.33751
1766.56504	0.34317
1764.63647	0.34868
1762.70791	0.35435
1760.77935	0.36162
1758.85078	0.36869
1756.92222	0.37584
1754.99365	0.38371
1753.06509	0.39080
1751.13652	0.39887
1749.20796	0.40909
1747.27939	0.41976
1745.35083	0.42946
1743.42227	0.43945
1741.49370	0.45004
1739.56514	0.46235
1737.63657	0.47483
1735.70801	0.48572
1733.77944	0.50191
1731.85088	0.52169
1729.92231	0.53768
1727.99375	0.55384
1726.06519	0.57107
1724.13662	0.58952
1722.20806	0.60920
1720.27949	0.62719
1718.35093	0.64796
1716.42236	0.67914
1714.49380	0.70994
1712.56523	0.73544
1710.63667	0.75995
1708.70811	0.78579
1706.77954	0.81459
1704.85098	0.84907
1702.92241	0.88030
1700.99385	0.91141
1699.06528	0.95768
1697.13672	1.00081
1695.20815	1.04561
1693.27959	1.08899
1691.35103	1.12370
1689.42246	1.16377
1687.49390	1.20600
1685.56533	1.24632
1683.63677	1.30876
1681.70820	1.37509
1679.77964	1.41838
1677.85107	1.45904
1675.92251	1.50504
1673.99395	1.56153
1672.06538	1.61232
1670.13682	1.66243
1668.20825	1.72776
1666.27969	1.78202
1664.35112	1.82826
1662.42256	1.88659
1660.49399	1.95251
1658.56543	2.00321
1656.63687	2.04339
1654.70830	2.07937
1652.77974	2.13483
1650.85117	2.18857
1648.92261	2.20756
1646.99404	2.23036
1645.06548	2.25787
1643.13691	2.27712
1641.20835	2.28607
1639.27979	2.29129
1637.35122	2.29245
1635.42266	2.29006
1633.49409	2.28442
1631.56553	2.27221
1629.63696	2.25412
1627.70840	2.22423
1625.77983	2.18989
1623.85127	2.14693
1621.92271	2.09550
1619.99414	2.05079
1618.06558	2.00701
1616.13701	1.94503
1614.20845	1.88248
1612.27988	1.83415
1610.35132	1.78299
1608.42275	1.72806
1606.49419	1.67483
1604.56562	1.62576
1602.63706	1.57830
1600.70850	1.53216
1598.77993	1.48939
1596.85137	1.44889
1594.92280	1.40981
1592.99424	1.37241
1591.06567	1.33814
1589.13711	1.30587
1587.20854	1.27597
1585.27998	1.24863
1583.35142	1.22311
1581.42285	1.19992
1579.49429	1.18020
1577.56572	1.16230
1575.63716	1.14090
1573.70859	1.12276
1571.78003	1.11121
1569.85146	1.09936
1567.92290	1.08659
1565.99434	1.07721
1564.06577	1.07019
1562.13721	1.06474
1560.20864	1.06106
1558.28008	1.05915
1556.35151	1.05952
1554.42295	1.05985
1552.49438	1.06006
1550.56582	1.05833
1548.63726	1.05345
1546.70869	1.04646
1544.78013	1.03710
1542.85156	1.02443
1540.92300	1.00623
1538.99443	0.98076
1537.06587	0.96316
1535.13730	0.95066
1533.20874	0.93337
1531.28018	0.91463
1529.35161	0.90076
1527.42305	0.88757
1525.49448	0.87379
1523.56592	0.86174
1521.63735	0.85042
1519.70879	0.83974
1517.78022	0.83076
1515.85166	0.82038
1513.92310	0.80973
1511.99453	0.80029
1510.06597	0.79111
1508.13740	0.78160
1506.20884	0.76848
1504.28027	0.75804
1502.35171	0.75190
1500.42314	0.74609
1498.49458	0.73962
1496.56602	0.73230
1494.63745	0.72549
1492.70889	0.72028
1490.78032	0.71549
1488.85176	0.71008
1486.92319	0.70538
1484.99463	0.70169
1483.06606	0.69848
1481.13750	0.69568
1479.20894	0.69356
1477.28037	0.69227
1475.35181	0.69141
1473.42324	0.69057
1471.49468	0.68981
1469.56611	0.68893
1467.63755	0.68733
1465.70898	0.68519
1463.78042	0.68322
1461.85186	0.68201
1459.92329	0.68136
1457.99473	0.68092
1456.06616	0.67973
1454.13760	0.67744
1452.20903	0.67503
1450.28047	0.67244
1448.35190	0.66970
1446.42334	0.66693
1444.49478	0.66423
1442.56621	0.66150
1440.63765	0.65868
1438.70908	0.65580
1436.78052	0.65234
1434.85195	0.64851
1432.92339	0.64546
1430.99482	0.64344
1429.06626	0.64253
1427.13770	0.64239
1425.20913	0.64252
1423.28057	0.64285
1421.35200	0.64294
1419.42344	0.64266
1417.49487	0.64242
1415.56631	0.64203
1413.63774	0.64146
1411.70918	0.64115
1409.78062	0.64159
1407.85205	0.64251
1405.92349	0.64342
1403.99492	0.64422
1402.06636	0.64433
1400.13779	0.64349
1398.20923	0.64181
1396.28066	0.63938
1394.35210	0.63614
1392.42354	0.63251
1390.49497	0.62902
1388.56641	0.62535
1386.63784	0.62104
1384.70928	0.61655
1382.78071	0.61222
1380.85215	0.60803
1378.92358	0.60453
1376.99502	0.60190
1375.06646	0.59974
1373.13789	0.59802
1371.20933	0.59693
1369.28076	0.59602
1367.35220	0.59485
1365.42363	0.59347
1363.49507	0.59204
1361.56650	0.59072
1359.63794	0.58954
1357.70937	0.58837
1355.78081	0.58717
1353.85225	0.58613
1351.92368	0.58545
1349.99512	0.58493
1348.06655	0.58423
1346.13799	0.58334
1344.20942	0.58250
1342.28086	0.58178
1340.35229	0.58112
1338.42373	0.58029
1336.49517	0.57948
1334.56660	0.57910
1332.63804	0.57903
1330.70947	0.57914
1328.78091	0.57937
1326.85234	0.57964
1324.92378	0.57998
1322.99521	0.58049
1321.06665	0.58104
1319.13809	0.58142
1317.20952	0.58154
1315.28096	0.58148
1313.35239	0.58125
1311.42383	0.58066
1309.49526	0.57981
1307.56670	0.57916
1305.63813	0.57879
1303.70957	0.57836
1301.78101	0.57773
1299.85244	0.57682
1297.92388	0.57572
1295.99531	0.57460
1294.06675	0.57357
1292.13818	0.57251
1290.20962	0.57126
1288.28105	0.57001
1286.35249	0.56888
1284.42393	0.56774
1282.49536	0.56649
1280.56680	0.56528
1278.63823	0.56417
1276.70967	0.56301
1274.78110	0.56190
1272.85254	0.56106
1270.92397	0.56038
1268.99541	0.55950
1267.06685	0.55853
1265.13828	0.55772
1263.20972	0.55714
1261.28115	0.55673
1259.35259	0.55627
1257.42402	0.55561
1255.49546	0.55502
1253.56689	0.55469
1251.63833	0.55450
1249.70977	0.55435
1247.78120	0.55419
1245.85264	0.55401
1243.92407	0.55371
1241.99551	0.55298
1240.06694	0.55169
1238.13838	0.55013
1236.20981	0.54841
1234.28125	0.54648
1232.35269	0.54448
1230.42412	0.54250
1228.49556	0.54070
1226.56699	0.53923
1224.63843	0.53786
1222.70986	0.53630
1220.78130	0.53477
1218.85273	0.53351
1216.92417	0.53244
1214.99561	0.53160
1213.06704	0.53078
1211.13848	0.52981
1209.20991	0.52891
1207.28135	0.52812
1205.35278	0.52730
1203.42422	0.52646
1201.49565	0.52558
1199.56709	0.52470
1197.63853	0.52392
1195.70996	0.52337
1193.78140	0.52299
1191.85283	0.52261
1189.92427	0.52232
1187.99570	0.52215
1186.06714	0.52196
1184.13857	0.52192
1182.21001	0.52231
1180.28145	0.52304
1178.35288	0.52406
1176.42432	0.52529
1174.49575	0.52630
1172.56719	0.52682
1170.63862	0.52693
1168.71006	0.52678
1166.78149	0.52652
1164.85293	0.52616
1162.92437	0.52575
1160.99580	0.52537
1159.06724	0.52489
1157.13867	0.52409
1155.21011	0.52300
1153.28154	0.52165
1151.35298	0.51991
1149.42441	0.51772
1147.49585	0.51536
1145.56729	0.51308
1143.63872	0.51080
1141.71016	0.50861
1139.78159	0.50668
1137.85303	0.50492
1135.92446	0.50329
1133.99590	0.50209
1132.06733	0.50141
1130.13877	0.50071
1128.21021	0.49975
1126.28164	0.49874
1124.35308	0.49770
1122.42451	0.49669
1120.49595	0.49592
1118.56738	0.49518
1116.63882	0.49443
1114.71025	0.49404
1112.78169	0.49417
1110.85312	0.49452
1108.92456	0.49501
1106.99600	0.49582
1105.06743	0.49701
1103.13887	0.49840
1101.21030	0.49989
1099.28174	0.50159
1097.35317	0.50381
1095.42461	0.50669
1093.49604	0.51017
1091.56748	0.51434
1089.63892	0.51913
1087.71035	0.52433
1085.78179	0.53001
1083.85322	0.53643
1081.92466	0.54296
1079.99609	0.54828
1078.06753	0.55154
1076.13896	0.55243
1074.21040	0.55066
1072.28184	0.54634
1070.35327	0.54042
1068.42471	0.53373
1066.49614	0.52679
1064.56758	0.52031
1062.63901	0.51459
1060.71045	0.50943
1058.78188	0.50483
1056.85332	0.50084
1054.92476	0.49741
1052.99619	0.49450
1051.06763	0.49188
1049.13906	0.48944
1047.21050	0.48729
1045.28193	0.48549
1043.35337	0.48391
1041.42480	0.48246
1039.49624	0.48120
1037.56768	0.48023
1035.63911	0.47968
1033.71055	0.47942
1031.78198	0.47910
1029.85342	0.47889
1027.92485	0.47889
1025.99629	0.47894
1024.06772	0.47908
1022.13916	0.47946
1020.21060	0.48015
1018.28203	0.48096
1016.35347	0.48180
1014.42490	0.48277
1012.49634	0.48370
1010.56777	0.48459
1008.63921	0.48585
1006.71064	0.48765
1004.78208	0.48976
1002.85352	0.49198
1000.92495	0.49460
998.99639	0.49794
997.06782	0.50178
995.13926	0.50568
993.21069	0.50941
991.28213	0.51278
989.35356	0.51548
987.42500	0.51727
985.49644	0.51835
983.56787	0.51915
981.63931	0.52015
979.71074	0.52165
977.78218	0.52359
975.85361	0.52591
973.92505	0.52879
971.99648	0.53216
970.06792	0.53573
968.13936	0.53943
966.21079	0.54349
964.28223	0.54804
962.35366	0.55300
960.42510	0.55825
958.49653	0.56367
956.56797	0.56931
954.63940	0.57538
952.71084	0.58173
950.78228	0.58812
948.85371	0.59444
946.92515	0.60087
944.99658	0.60751
943.06802	0.61374
941.13945	0.61929
939.21089	0.62466
937.28232	0.63038
935.35376	0.63613
933.42520	0.64167
931.49663	0.64767
929.56807	0.65435
927.63950	0.66115
925.71094	0.66735
923.78237	0.67316
921.85381	0.67971
919.92524	0.68675
917.99668	0.69344
916.06812	0.70028
914.13955	0.70795
912.21099	0.71589
910.28242	0.72380
908.35386	0.73226
906.42529	0.74087
904.49673	0.74885
902.56816	0.75683
900.63960	0.76582
898.71104	0.77585
896.78247	0.78615
894.85391	0.79579
892.92534	0.80541
890.99678	0.81600
889.06821	0.82677
887.13965	0.83752
885.21108	0.84874
883.28252	0.86049
881.35396	0.87290
879.42539	0.88579
877.49683	0.89853
875.56826	0.91068
873.63970	0.92149
871.71113	0.93104
869.78257	0.94150
867.85400	0.95297
865.92544	0.96417
863.99687	0.97580
862.06831	0.98787
860.13975	0.99935
858.21118	1.00994
856.28262	1.02067
854.35405	1.03352
852.42549	1.04773
850.49692	1.06048
848.56836	1.07001
846.63979	1.07846
844.71123	1.09044
842.78267	1.10376
840.85410	1.11282
838.92554	1.11992
836.99697	1.12995
835.06841	1.14182
833.13984	1.15417
831.21128	1.16875
829.28271	1.18247
827.35415	1.19188
825.42559	1.19968
823.49702	1.20582
821.56846	1.21150
819.63989	1.22249
817.71133	1.23437
815.78276	1.24117
813.85420	1.24572
811.92563	1.24714
809.99707	1.24525
808.06851	1.25283
806.13994	1.27782
804.21138	1.29984
802.28281	1.30153
800.35425	1.29201
798.42568	1.28889
796.49712	1.30599
794.56855	1.32117
792.63999	1.32363
790.71143	1.34557
788.78286	1.36171
786.85430	1.34710
784.92573	1.33266
782.99717	1.32371
781.06860	1.33207
779.14004	1.33404
777.21147	1.31873
775.28291	1.28928
773.35435	1.20995
771.42578	1.13303
769.49722	1.10182
767.56865	1.12016
765.64009	1.16906
763.71152	1.17040
761.78296	1.12463
759.85439	1.11136
757.92583	1.11187
755.99727	1.10265
754.06870	1.13115
752.14014	1.15473
750.21157	1.11830
748.28301	1.06864
746.35444	1.02349
744.42588	0.97627
742.49731	0.93195
740.56875	0.92386
738.64019	0.92417
736.71162	0.84137
734.78306	0.74222
732.85449	0.71520
730.92593	0.72753
728.99736	0.73364
727.06880	0.74145
725.14023	0.69826
723.21167	0.57081
721.28311	0.44912
719.35454	0.37871
717.42598	0.35015
715.49741	0.35227
713.56885	0.37027
711.64028	0.36070
709.71172	0.33141
707.78315	0.33322
705.85459	0.28202
703.92603	0.12427
701.99746	-0.01778
700.06890	-0.01640
698.14033	0.08890
696.21177	0.19991
694.28320	0.21954
692.35464	0.15270
690.42607	0.08771
688.49751	0.07701
686.56895	0.13489
684.64038	0.18575
682.71182	0.20770
680.78325	0.22271
678.85469	0.20826
676.92612	0.18909
674.99756	0.20186
673.06899	0.21814
671.14043	0.22537
669.21187	0.21547
667.28330	0.18643
665.35474	0.20696
663.42617	0.23844
661.49761	0.15049
659.56904	0.01172
657.64048	0.02102
655.71191	0.11715
653.78335	0.11732
651.85479	0.03187
649.92622	0.04550
647.99766	0.17043
646.06909	0.24699
644.14053	0.18026
642.21196	0.10954
640.28340	0.12696
638.35483	0.24998
636.42627	0.33589
634.49771	0.21718
632.56914	0.09755
630.64058	0.06876
628.71201	0.08756
626.78345	0.08197
624.85488	0.05568
622.92632	0.05844
620.99775	0.06916
619.06919	0.08269
617.14062	0.09251
615.21206	0.08874
613.28350	0.08855
611.35493	0.09144
609.42637	0.14047
607.49780	0.26591
605.56924	0.30675
603.64067	0.24941
601.71211	0.24275
599.78354	0.26871
597.85498	0.27436
595.92642	0.22769
593.99785	0.13039
592.06929	0.06404
590.14072	0.08249
588.21216	0.17348
586.28359	0.26762
584.35503	0.27901
582.42646	0.25458
580.49790	0.20293
578.56934	0.15133
576.64077	0.16945
574.71221	0.16133
572.78364	0.10317
570.85508	0.10525
568.92651	0.12593
566.99795	0.09643
565.06938	0.09782
563.14082	0.12965
561.21226	0.15808
559.28369	0.18597
557.35513	0.20889
555.42656	0.23274
553.49800	0.24037
551.56943	0.18155
549.64087	0.09032
547.71230	0.06700
545.78374	0.11247
543.85518	0.13231
541.92661	0.10574
539.99805	0.09271
538.06948	0.11831
536.14092	0.13432
534.21235	0.12884
532.28379	0.17272
530.35522	0.22353
528.42666	0.15284
526.49810	0.04355
524.56953	0.02788
522.64097	0.06983
520.71240	0.07720
518.78384	0.05660
516.85527	0.05192
514.92671	0.08931
512.99814	0.17005
511.06958	0.22190
509.14102	0.18386
507.21245	0.12120
505.28389	0.11412
503.35532	0.15212
501.42676	0.19268
499.49819	0.20832
