3997.91411	0.06271
3995.98555	0.06272
3994.05698	0.06295
3992.12842	0.06377
3990.19985	0.06461
3988.27129	0.06456
3986.34272	0.06407
3984.41416	0.06413
3982.48560	0.06449
3980.55703	0.06474
3978.62847	0.06507
3976.69990	0.06555
3974.77134	0.06592
3972.84277	0.06604
3970.91421	0.06603
3968.98564	0.06587
3967.05708	0.06574
3965.12852	0.06596
3963.19995	0.06624
3961.27139	0.06647
3959.34282	0.06691
3957.41426	0.06729
3955.48569	0.06724
3953.55713	0.06699
3951.62856	0.06694
3949.70000	0.06721
3947.77144	0.06758
3945.84287	0.06774
3943.91431	0.06765
3941.98574	0.06729
3940.05718	0.06672
3938.12861	0.06645
3936.20005	0.06679
3934.27148	0.06737
3932.34292	0.06764
3930.41436	0.06743
3928.48579	0.06725
3926.55723	0.06735
3924.62866	0.06730
3922.70010	0.06661
3920.77153	0.06568
3918.84297	0.06560
3916.91440	0.06629
3914.98584	0.06631
3913.05728	0.06565
3911.12871	0.06521
3909.20015	0.06510
3907.27158	0.06555
3905.34302	0.06680
3903.41445	0.06813
3901.48589	0.06822
3899.55732	0.06762
3897.62876	0.06727
3895.70020	0.06689
3893.77163	0.06693
3891.84307	0.06747
3889.91450	0.06767
3887.98594	0.06742
3886.05737	0.06718
3884.12881	0.06705
3882.20024	0.06711
3880.27168	0.06726
3878.34312	0.06733
3876.41455	0.06761
3874.48599	0.06823
3872.55742	0.06868
3870.62886	0.06889
3868.70029	0.06929
3866.77173	0.06966
3864.84316	0.07028
3862.91460	0.07108
3860.98604	0.07121
3859.05747	0.07110
3857.12891	0.07149
3855.20034	0.07235
3853.27178	0.07318
3851.34321	0.07297
3849.41465	0.07232
3847.48608	0.07219
3845.55752	0.07250
3843.62896	0.07346
3841.70039	0.07505
3839.77183	0.07639
3837.84326	0.07683
3835.91470	0.07663
3833.98613	0.07662
3832.05757	0.07684
3830.12900	0.07706
3828.20044	0.07757
3826.27187	0.07863
3824.34331	0.08010
3822.41475	0.08183
3820.48618	0.08352
3818.55762	0.08377
3816.62905	0.08354
3814.70049	0.08406
3812.77192	0.08431
3810.84336	0.08458
3808.91479	0.08562
3806.98623	0.08731
3805.05767	0.08941
3803.12910	0.09139
3801.20054	0.09296
3799.27197	0.09388
3797.34341	0.09445
3795.41484	0.09534
3793.48628	0.09622
3791.55771	0.09680
3789.62915	0.09728
3787.70059	0.09817
3785.77202	0.09999
3783.84346	0.10209
3781.91489	0.10364
3779.98633	0.10516
3778.05776	0.10715
3776.12920	0.10880
3774.20063	0.10988
3772.27207	0.11108
3770.34351	0.11279
3768.41494	0.11490
3766.48638	0.11698
3764.55781	0.11886
3762.62925	0.12051
3760.70068	0.12255
3758.77212	0.12542
3756.84355	0.12807
3754.91499	0.12994
3752.98643	0.13225
3751.05786	0.13607
3749.12930	0.14030
3747.20073	0.14252
3745.27217	0.14436
3743.34360	0.14794
3741.41504	0.15175
3739.48647	0.15478
3737.55791	0.15830
3735.62935	0.16293
3733.70078	0.16842
3731.77222	0.17331
3729.84365	0.17743
3727.91509	0.18133
3725.98652	0.18588
3724.05796	0.19169
3722.12939	0.19832
3720.20083	0.20508
3718.27227	0.21181
3716.34370	0.21884
3714.41514	0.22642
3712.48657	0.23574
3710.55801	0.24819
3708.62944	0.26124
3706.70088	0.27243
3704.77231	0.28364
3702.84375	0.29694
3700.91519	0.31349
3698.98662	0.33123
3697.05806	0.34858
3695.12949	0.36705
3693.20093	0.38643
3691.27236	0.40737
3689.34380	0.43403
3687.41523	0.46671
3685.48667	0.49627
3683.55811	0.52242
3681.62954	0.55038
3679.70098	0.58165
3677.77241	0.61438
3675.84385	0.65226
3673.91528	0.70277
3671.98672	0.74529
3670.05815	0.78355
3668.12959	0.83532
3666.20103	0.88285
3664.27246	0.92278
3662.34390	0.96528
3660.41533	1.01099
3658.48677	1.05637
3656.55820	1.10486
3654.62964	1.15856
3652.70107	1.20356
3650.77251	1.24262
3648.84395	1.29655
3646.91538	1.36384
3644.98682	1.41438
3643.05825	1.45316
3641.12969	1.49226
3639.20112	1.53513
3637.27256	1.57892
3635.34399	1.62220
3633.41543	1.66525
3631.48687	1.70519
3629.55830	1.74478
3627.62974	1.79564
3625.70117	1.84484
3623.77261	1.88009
3621.84404	1.91392
3619.91548	1.95182
3617.98691	1.99718
3616.05835	2.04133
3614.12979	2.07822
3612.20122	2.11601
3610.27266	2.15366
3608.34409	2.19216
3606.41553	2.23422
3604.48696	2.27405
3602.55840	2.30916
3600.62983	2.34558
3598.70127	2.38538
3596.77271	2.42652
3594.84414	2.46903
3592.91558	2.51093
3590.98701	2.54847
3589.05845	2.58329
3587.12988	2.62669
3585.20132	2.67685
3583.27275	2.72037
3581.34419	2.76049
3579.41562	2.80218
3577.48706	2.84401
3575.55850	2.88447
3573.62993	2.92621
3571.70137	2.96862
3569.77280	3.00977
3567.84424	3.05324
3565.91567	3.10586
3563.98711	3.15645
3562.05854	3.19820
3560.12998	3.24079
3558.20142	3.28546
3556.27285	3.32910
3554.34429	3.37308
3552.41572	3.42148
3550.48716	3.46967
3548.55859	3.51260
3546.63003	3.55591
3544.70146	3.60565
3542.77290	3.65620
3540.84434	3.70215
3538.91577	3.74759
3536.98721	3.79455
3535.05864	3.84231
3533.13008	3.88833
3531.20151	3.93373
3529.27295	3.98189
3527.34438	4.03232
3525.41582	4.08094
3523.48726	4.12788
3521.55869	4.17319
3519.63013	4.21570
3517.70156	4.26166
3515.77300	4.31363
3513.84443	4.36780
3511.91587	4.41801
3509.98730	4.46333
3508.05874	4.50955
3506.13018	4.55789
3504.20161	4.60350
3502.27305	4.64458
3500.34448	4.68886
3498.41592	4.74215
3496.48735	4.79891
3494.55879	4.85084
3492.63022	4.89634
3490.70166	4.93797
3488.77310	4.97742
3486.84453	5.02011
3484.91597	5.07580
3482.98740	5.14092
3481.05884	5.19969
3479.13027	5.24649
3477.20171	5.29006
3475.27314	5.33965
3473.34458	5.39075
3471.41602	5.43277
3469.48745	5.46995
3467.55889	5.51152
3465.63032	5.56155
3463.70176	5.62011
3461.77319	5.67697
3459.84463	5.73200
3457.91606	5.78680
3455.98750	5.82902
3454.05894	5.86261
3452.13037	5.89840
3450.20181	5.92955
3448.27324	5.96585
3446.34468	6.03450
3444.41611	6.11809
3442.48755	6.18185
3440.55898	6.23080
3438.63042	6.28138
3436.70186	6.32723
3434.77329	6.37068
3432.84473	6.42264
3430.91616	6.46058
3428.98760	6.48038
3427.05903	6.51413
3425.13047	6.57452
3423.20190	6.63598
3421.27334	6.69013
3419.34478	6.74158
3417.41621	6.77410
3415.48765	6.79675
3413.55908	6.83860
3411.63052	6.89597
3409.70195	6.94889
3407.77339	7.00304
3405.84482	7.05207
3403.91626	7.11165
3401.98770	7.16709
3400.05913	7.18351
3398.13057	7.20335
3396.20200	7.22783
3394.27344	7.24157
3392.34487	7.27306
3390.41631	7.32599
3388.48774	7.37788
3386.55918	7.43636
3384.63062	7.51461
3382.70205	7.58921
3380.77349	7.57929
3378.84492	7.49854
3376.91636	7.47375
3374.98779	7.51874
3373.05923	7.59263
3371.13066	7.65498
3369.20210	7.68706
3367.27354	7.71733
3365.34497	7.72625
3363.41641	7.66860
3361.48784	7.63020
3359.55928	7.71614
3357.63071	7.81327
3355.70215	7.77038
3353.77358	7.67428
3351.84502	7.68611
3349.91646	7.79534
3347.98789	7.87187
3346.05933	7.91565
3344.13076	7.94528
3342.20220	7.89954
3340.27363	7.86215
3338.34507	7.91535
3336.41650	7.99532
3334.48794	8.04122
3332.55937	8.05218
3330.63081	8.07720
3328.70225	8.08327
3326.77368	8.03337
3324.84512	7.98465
3322.91655	7.97216
3320.98799	7.97406
3319.05942	7.93807
3317.13086	7.94246
3315.20229	8.01823
3313.27373	8.01866
3311.34517	7.93061
3309.41660	7.92592
3307.48804	8.03451
3305.55947	8.11033
3303.63091	8.09349
3301.70234	8.05088
3299.77378	8.02930
3297.84521	8.02602
3295.91665	8.03802
3293.98809	8.03601
3292.05952	8.01382
3290.13096	8.01985
3288.20239	8.06792
3286.27383	8.10640
3284.34526	8.15986
3282.41670	8.29617
3280.48813	8.37508
3278.55957	8.32566
3276.63101	8.23973
3274.70244	8.14829
3272.77388	8.11220
3270.84531	8.16964
3268.91675	8.22434
3266.98818	8.18436
3265.05962	8.13488
3263.13105	8.12520
3261.20249	8.18277
3259.27393	8.29332
3257.34536	8.29449
3255.41680	8.20072
3253.48823	8.12140
3251.55967	8.04070
3249.63110	8.03590
3247.70254	8.11596
3245.77397	8.12868
3243.84541	8.08983
3241.91685	8.05360
3239.98828	8.02601
3238.05972	8.05860
3236.13115	8.12834
3234.20259	8.14320
3232.27402	8.08351
3230.34546	8.05457
3228.41689	8.12992
3226.48833	8.24461
3224.55977	8.22692
3222.63120	8.07044
3220.70264	7.94795
3218.77407	7.92088
3216.84551	7.92104
3214.91694	7.87077
3212.98838	7.79195
3211.05981	7.76339
3209.13125	7.79300
3207.20269	7.82222
3205.27412	7.82270
3203.34556	7.80090
3201.41699	7.74429
3199.48843	7.64759
3197.55986	7.55551
3195.63130	7.51481
3193.70273	7.51709
3191.77417	7.50689
3189.84561	7.47907
3187.91704	7.47707
3185.98848	7.45060
3184.05991	7.36713
3182.13135	7.33151
3180.20278	7.35492
3178.27422	7.30319
3176.34565	7.17022
3174.41709	7.07610
3172.48853	7.03768
3170.55996	6.99460
3168.63140	6.94961
3166.70283	6.94500
3164.77427	6.95131
3162.84570	6.90994
3160.91714	6.82515
3158.98857	6.72968
3157.06001	6.63578
3155.13145	6.54562
3153.20288	6.46716
3151.27432	6.40464
3149.34575	6.33680
3147.41719	6.25458
3145.48862	6.18239
3143.56006	6.13399
3141.63149	6.09603
3139.70293	6.03379
3137.77437	5.94719
3135.84580	5.87598
3133.91724	5.81928
3131.98867	5.74894
3130.06011	5.67088
3128.13154	5.59883
3126.20298	5.52758
3124.27441	5.45673
3122.34585	5.39094
3120.41729	5.32737
3118.48872	5.26026
3116.56016	5.18984
3114.63159	5.11352
3112.70303	5.03269
3110.77446	4.95934
3108.84590	4.89351
3106.91733	4.82523
3104.98877	4.75267
3103.06021	4.68310
3101.13164	4.61591
3099.20308	4.54490
3097.27451	4.47562
3095.34595	4.41339
3093.41738	4.35152
3091.48882	4.28772
3089.56025	4.22862
3087.63169	4.17341
3085.70312	4.11618
3083.77456	4.05276
3081.84600	3.98388
3079.91743	3.91847
3077.98887	3.86045
3076.06030	3.80281
3074.13174	3.74232
3072.20317	3.68248
3070.27461	3.62354
3068.34604	3.56523
3066.41748	3.50865
3064.48892	3.45290
3062.56035	3.39709
3060.63179	3.34166
3058.70322	3.28831
3056.77466	3.23691
3054.84609	3.18538
3052.91753	3.13359
3050.98896	3.08252
3049.06040	3.03120
3047.13184	2.97844
3045.20327	2.92592
3043.27471	2.87630
3041.34614	2.82944
3039.41758	2.78235
3037.48901	2.73344
3035.56045	2.68504
3033.63188	2.63900
3031.70332	2.59392
3029.77476	2.54909
3027.84619	2.50486
3025.91763	2.46090
3023.98906	2.41811
3022.06050	2.37694
3020.13193	2.33590
3018.20337	2.29481
3016.27480	2.25474
3014.34624	2.21521
3012.41768	2.17531
3010.48911	2.13624
3008.56055	2.09877
3006.63198	2.06193
3004.70342	2.02555
3002.77485	1.99016
3000.84629	1.95590
2998.91772	1.92229
2996.98916	1.88879
2995.06060	1.85585
2993.13203	1.82389
2991.20347	1.79294
2989.27490	1.76331
2987.34634	1.73483
2985.41777	1.70665
2983.48921	1.67832
2981.56064	1.64991
2979.63208	1.62200
2977.70352	1.59522
2975.77495	1.56952
2973.84639	1.54431
2971.91782	1.51929
2969.98926	1.49460
2968.06069	1.47034
2966.13213	1.44655
2964.20356	1.42345
2962.27500	1.40057
2960.34644	1.37712
2958.41787	1.35313
2956.48931	1.32884
2954.56074	1.30452
2952.63218	1.28076
2950.70361	1.25778
2948.77505	1.23510
2946.84648	1.21278
2944.91792	1.19168
2942.98936	1.17153
2941.06079	1.15140
2939.13223	1.13141
2937.20366	1.11196
2935.27510	1.09245
2933.34653	1.07239
2931.41797	1.05257
2929.48940	1.03339
2927.56084	1.01503
2925.63228	0.99761
2923.70371	0.98004
2921.77515	0.96159
2919.84658	0.94327
2917.91802	0.92571
2915.98945	0.90848
2914.06089	0.89157
2912.13232	0.87522
2910.20376	0.85935
2908.27520	0.84367
2906.34663	0.82805
2904.41807	0.81312
2902.48950	0.79925
2900.56094	0.78573
2898.63237	0.77230
2896.70381	0.75897
2894.77524	0.74556
2892.84668	0.73248
2890.91812	0.72027
2888.98955	0.70881
2887.06099	0.69779
2885.13242	0.68709
2883.20386	0.67670
2881.27529	0.66669
2879.34673	0.65711
2877.41816	0.64783
2875.48960	0.63852
2873.56104	0.62857
2871.63247	0.61788
2869.70391	0.60676
2867.77534	0.59534
2865.84678	0.58392
2863.91821	0.57277
2861.98965	0.56203
2860.06108	0.55178
2858.13252	0.54161
2856.20396	0.53131
2854.27539	0.52148
2852.34683	0.51276
2850.41826	0.50474
2848.48970	0.49627
2846.56113	0.48724
2844.63257	0.47866
2842.70400	0.47123
2840.77544	0.46459
2838.84687	0.45821
2836.91831	0.45192
2834.98975	0.44558
2833.06118	0.43922
2831.13262	0.43307
2829.20405	0.42706
2827.27549	0.42097
2825.34692	0.41489
2823.41836	0.40903
2821.48979	0.40338
2819.56123	0.39768
2817.63267	0.39180
2815.70410	0.38595
2813.77554	0.38021
2811.84697	0.37438
2809.91841	0.36867
2807.98984	0.36343
2806.06128	0.35872
2804.13271	0.35400
2802.20415	0.34870
2800.27559	0.34326
2798.34702	0.33832
2796.41846	0.33365
2794.48989	0.32885
2792.56133	0.32410
2790.63276	0.31963
2788.70420	0.31532
2786.77563	0.31107
2784.84707	0.30680
2782.91851	0.30253
2780.98994	0.29849
2779.06138	0.29461
2777.13281	0.29061
2775.20425	0.28649
2773.27568	0.28265
2771.34712	0.27921
2769.41855	0.27571
2767.48999	0.27201
2765.56143	0.26842
2763.63286	0.26510
2761.70430	0.26196
2759.77573	0.25883
2757.84717	0.25556
2755.91860	0.25212
2753.99004	0.24877
2752.06147	0.24573
2750.13291	0.24282
2748.20435	0.24001
2746.27578	0.23732
2744.34722	0.23467
2742.41865	0.23217
2740.49009	0.22963
2738.56152	0.22691
2736.63296	0.22432
2734.70439	0.22186
2732.77583	0.21932
2730.84727	0.21689
2728.91870	0.21462
2726.99014	0.21239
2725.06157	0.21020
2723.13301	0.20815
2721.20444	0.20607
2719.27588	0.20387
2717.34731	0.20188
2715.41875	0.20021
2713.49019	0.19837
2711.56162	0.19634
2709.63306	0.19467
2707.70449	0.19324
2705.77593	0.19159
2703.84736	0.18989
2701.91880	0.18830
2699.99023	0.18679
2698.06167	0.18550
2696.13311	0.18427
2694.20454	0.18280
2692.27598	0.18116
2690.34741	0.17960
2688.41885	0.17826
2686.49028	0.17719
2684.56172	0.17627
2682.63315	0.17517
2680.70459	0.17385
2678.77603	0.17258
2676.84746	0.17149
2674.91890	0.17058
2672.99033	0.16959
2671.06177	0.16843
2669.13320	0.16734
2667.20464	0.16639
2665.27607	0.16548
2663.34751	0.16465
2661.41895	0.16382
2659.49038	0.16297
2657.56182	0.16216
2655.63325	0.16132
2653.70469	0.16042
2651.77612	0.15969
2649.84756	0.15917
2647.91899	0.15862
2645.99043	0.15798
2644.06187	0.15733
2642.13330	0.15672
2640.20474	0.15613
2638.27617	0.15556
2636.34761	0.15515
2634.41904	0.15485
2632.49048	0.15452
2630.56191	0.15416
2628.63335	0.15385
2626.70479	0.15349
2624.77622	0.15287
2622.84766	0.15214
2620.91909	0.15171
2618.99053	0.15163
2617.06196	0.15159
2615.13340	0.15148
2613.20483	0.15133
2611.27627	0.15120
2609.34771	0.15110
2607.41914	0.15099
2605.49058	0.15082
2603.56201	0.15064
2601.63345	0.15070
2599.70488	0.15100
2597.77632	0.15122
2595.84775	0.15115
2593.91919	0.15094
2591.99062	0.15090
2590.06206	0.15110
2588.13350	0.15134
2586.20493	0.15146
2584.27637	0.15151
2582.34780	0.15161
2580.41924	0.15185
2578.49067	0.15219
2576.56211	0.15245
2574.63354	0.15272
2572.70498	0.15317
2570.77642	0.15360
2568.84785	0.15381
2566.91929	0.15404
2564.99072	0.15452
2563.06216	0.15499
2561.13359	0.15525
2559.20503	0.15546
2557.27646	0.15586
2555.34790	0.15640
2553.41934	0.15694
2551.49077	0.15748
2549.56221	0.15804
2547.63364	0.15860
2545.70508	0.15919
2543.77651	0.15979
2541.84795	0.16029
2539.91938	0.16089
2537.99082	0.16166
2536.06226	0.16239
2534.13369	0.16312
2532.20513	0.16384
2530.27656	0.16446
2528.34800	0.16515
2526.41943	0.16587
2524.49087	0.16638
2522.56230	0.16680
2520.63374	0.16754
2518.70518	0.16855
2516.77661	0.16941
2514.84805	0.17003
2512.91948	0.17065
2510.99092	0.17140
2509.06235	0.17228
2507.13379	0.17324
2505.20522	0.17418
2503.27666	0.17490
2501.34810	0.17541
2499.41953	0.17591
2497.49097	0.17661
2495.56240	0.17761
2493.63384	0.17863
2491.70527	0.17937
2489.77671	0.18007
2487.84814	0.18096
2485.91958	0.18180
2483.99102	0.18263
2482.06245	0.18366
2480.13389	0.18463
2478.20532	0.18542
2476.27676	0.18624
2474.34819	0.18715
2472.41963	0.18804
2470.49106	0.18892
2468.56250	0.18979
2466.63394	0.19058
2464.70537	0.19144
2462.77681	0.19244
2460.84824	0.19347
2458.91968	0.19438
2456.99111	0.19525
2455.06255	0.19617
2453.13398	0.19717
2451.20542	0.19821
2449.27686	0.19925
2447.34829	0.20020
2445.41973	0.20111
2443.49116	0.20212
2441.56260	0.20325
2439.63403	0.20437
2437.70547	0.20538
2435.77690	0.20618
2433.84834	0.20692
2431.91978	0.20787
2429.99121	0.20894
2428.06265	0.21003
2426.13408	0.21122
2424.20552	0.21244
2422.27695	0.21350
2420.34839	0.21443
2418.41982	0.21538
2416.49126	0.21632
2414.56270	0.21740
2412.63413	0.21875
2410.70557	0.22015
2408.77700	0.22142
2406.84844	0.22256
2404.91987	0.22367
2402.99131	0.22477
2401.06274	0.22579
2399.13418	0.22688
2397.20562	0.22824
2395.27705	0.22972
2393.34849	0.23101
2391.41992	0.23213
2389.49136	0.23329
2387.56279	0.23466
2385.63423	0.23621
2383.70566	0.23792
2381.77710	0.23998
2379.84854	0.24224
2377.91997	0.24433
2375.99141	0.24639
2374.06284	0.24891
2372.13428	0.25198
2370.20571	0.25514
2368.27715	0.25741
2366.34858	0.25844
2364.42002	0.25996
2362.49146	0.26261
2360.56289	0.26467
2358.63433	0.26675
2356.70576	0.26964
2354.77720	0.27109
2352.84863	0.27079
2350.92007	0.27065
2348.99150	0.27118
2347.06294	0.27228
2345.13437	0.27434
2343.20581	0.27703
2341.27725	0.27882
2339.34868	0.27996
2337.42012	0.28175
2335.49155	0.28383
2333.56299	0.28494
2331.63442	0.28581
2329.70586	0.28713
2327.77729	0.28832
2325.84873	0.28939
2323.92017	0.29074
2321.99160	0.29231
2320.06304	0.29378
2318.13447	0.29496
2316.20591	0.29605
2314.27734	0.29747
2312.34878	0.29919
2310.42021	0.30075
2308.49165	0.30191
2306.56309	0.30289
2304.63452	0.30409
2302.70596	0.30564
2300.77739	0.30733
2298.84883	0.30893
2296.92026	0.31043
2294.99170	0.31202
2293.06313	0.31379
2291.13457	0.31555
2289.20601	0.31717
2287.27744	0.31882
2285.34888	0.32050
2283.42031	0.32206
2281.49175	0.32373
2279.56318	0.32581
2277.63462	0.32808
2275.70605	0.33015
2273.77749	0.33213
2271.84893	0.33430
2269.92036	0.33649
2267.99180	0.33859
2266.06323	0.34073
2264.13467	0.34290
2262.20610	0.34498
2260.27754	0.34685
2258.34897	0.34875
2256.42041	0.35093
2254.49185	0.35333
2252.56328	0.35574
2250.63472	0.35798
2248.70615	0.36000
2246.77759	0.36200
2244.84902	0.36412
2242.92046	0.36624
2240.99189	0.36834
2239.06333	0.37059
2237.13477	0.37294
2235.20620	0.37511
2233.27764	0.37717
2231.34907	0.37933
2229.42051	0.38161
2227.49194	0.38400
2225.56338	0.38627
2223.63481	0.38832
2221.70625	0.39038
2219.77769	0.39252
2217.84912	0.39466
2215.92056	0.39686
2213.99199	0.39910
2212.06343	0.40137
2210.13486	0.40364
2208.20630	0.40580
2206.27773	0.40780
2204.34917	0.40973
2202.42061	0.41178
2200.49204	0.41393
2198.56348	0.41599
2196.63491	0.41794
2194.70635	0.41990
2192.77778	0.42187
2190.84922	0.42369
2188.92065	0.42539
2186.99209	0.42713
2185.06353	0.42904
2183.13496	0.43093
2181.20640	0.43248
2179.27783	0.43390
2177.34927	0.43557
2175.42070	0.43737
2173.49214	0.43894
2171.56357	0.44021
2169.63501	0.44143
2167.70645	0.44279
2165.77788	0.44419
2163.84932	0.44535
2161.92075	0.44630
2159.99219	0.44728
2158.06362	0.44830
2156.13506	0.44931
2154.20649	0.45031
2152.27793	0.45119
2150.34937	0.45184
2148.42080	0.45239
2146.49224	0.45292
2144.56367	0.45333
2142.63511	0.45363
2140.70654	0.45393
2138.77798	0.45426
2136.84941	0.45448
2134.92085	0.45455
2132.99229	0.45447
2131.06372	0.45430
2129.13516	0.45411
2127.20659	0.45399
2125.27803	0.45378
2123.34946	0.45331
2121.42090	0.45268
2119.49233	0.45195
2117.56377	0.45116
2115.63521	0.45042
2113.70664	0.44969
2111.77808	0.44880
2109.84951	0.44771
2107.92095	0.44658
2105.99238	0.44546
2104.06382	0.44426
2102.13525	0.44295
2100.20669	0.44166
2098.27812	0.44029
2096.34956	0.43861
2094.42100	0.43689
2092.49243	0.43540
2090.56387	0.43382
2088.63530	0.43193
2086.70674	0.43003
2084.77817	0.42816
2082.84961	0.42621
2080.92104	0.42415
2078.99248	0.42206
2077.06392	0.41994
2075.13535	0.41771
2073.20679	0.41541
2071.27822	0.41314
2069.34966	0.41081
2067.42109	0.40841
2065.49253	0.40613
2063.56396	0.40389
2061.63540	0.40149
2059.70684	0.39898
2057.77827	0.39646
2055.84971	0.39392
2053.92114	0.39129
2051.99258	0.38853
2050.06401	0.38575
2048.13545	0.38307
2046.20688	0.38050
2044.27832	0.37791
2042.34976	0.37524
2040.42119	0.37258
2038.49263	0.36983
2036.56406	0.36692
2034.63550	0.36408
2032.70693	0.36140
2030.77837	0.35882
2028.84980	0.35619
2026.92124	0.35343
2024.99268	0.35060
2023.06411	0.34775
2021.13555	0.34493
2019.20698	0.34221
2017.27842	0.33953
2015.34985	0.33670
2013.42129	0.33385
2011.49272	0.33122
2009.56416	0.32870
2007.63560	0.32596
2005.70703	0.32307
2003.77847	0.32023
2001.84990	0.31754
1999.92134	0.31495
1997.99277	0.31238
1996.06421	0.30991
1994.13564	0.30760
1992.20708	0.30522
1990.27852	0.30262
1988.34995	0.30003
1986.42139	0.29759
1984.49282	0.29525
1982.56426	0.29297
1980.63569	0.29064
1978.70713	0.28833
1976.77856	0.28618
1974.85000	0.28411
1972.92144	0.28195
1970.99287	0.27975
1969.06431	0.27761
1967.13574	0.27558
1965.20718	0.27358
1963.27861	0.27175
1961.35005	0.27003
1959.42148	0.26814
1957.49292	0.26622
1955.56436	0.26446
1953.63579	0.26282
1951.70723	0.26119
1949.77866	0.25950
1947.85010	0.25777
1945.92153	0.25625
1943.99297	0.25492
1942.06440	0.25347
1940.13584	0.25184
1938.20728	0.25029
1936.27871	0.24894
1934.35015	0.24769
1932.42158	0.24652
1930.49302	0.24542
1928.56445	0.24432
1926.63589	0.24316
1924.70732	0.24216
1922.77876	0.24133
1920.85020	0.24054
1918.92163	0.23976
1916.99307	0.23887
1915.06450	0.23787
1913.13594	0.23695
1911.20737	0.23628
1909.27881	0.23571
1907.35024	0.23498
1905.42168	0.23414
1903.49312	0.23354
1901.56455	0.23306
1899.63599	0.23249
1897.70742	0.23204
1895.77886	0.23184
1893.85029	0.23169
1891.92173	0.23139
1889.99316	0.23115
1888.06460	0.23092
1886.13604	0.23052
1884.20747	0.23012
1882.27891	0.22989
1880.35034	0.22986
1878.42178	0.22990
1876.49321	0.22994
1874.56465	0.22986
1872.63608	0.22993
1870.70752	0.23034
1868.77896	0.23098
1866.85039	0.23121
1864.92183	0.23108
1862.99326	0.23118
1861.06470	0.23150
1859.13613	0.23184
1857.20757	0.23215
1855.27900	0.23257
1853.35044	0.23302
1851.42187	0.23352
1849.49331	0.23413
1847.56475	0.23489
1845.63618	0.23566
1843.70762	0.23647
1841.77905	0.23727
1839.85049	0.23786
1837.92192	0.23859
1835.99336	0.23948
1834.06479	0.24050
1832.13623	0.24164
1830.20767	0.24312
1828.27910	0.24461
1826.35054	0.24569
1824.42197	0.24697
1822.49341	0.24820
1820.56484	0.24935
1818.63628	0.25068
1816.70771	0.25234
1814.77915	0.25405
1812.85059	0.25588
1810.92202	0.25797
1808.99346	0.25999
1807.06489	0.26182
1805.13633	0.26366
1803.20776	0.26594
1801.27920	0.26855
1799.35063	0.27138
1797.42207	0.27397
1795.49351	0.27650
1793.56494	0.27934
1791.63638	0.28280
1789.70781	0.28613
1787.77925	0.28880
1785.85068	0.29188
1783.92212	0.29544
1781.99355	0.29932
1780.06499	0.30353
1778.13643	0.30788
1776.20786	0.31201
1774.27930	0.31637
1772.35073	0.32198
1770.42217	0.32812
1768.49360	0.33360
1766.56504	0.33887
1764.63647	0.34416
1762.70791	0.34995
1760.77935	0.35731
1758.85078	0.36440
1756.92222	0.37165
1754.99365	0.37949
1753.06509	0.38648
1751.13652	0.39468
1749.20796	0.40508
1747.27939	0.41556
1745.35083	0.42502
1743.42227	0.43492
1741.49370	0.44546
1739.56514	0.45774
1737.63657	0.47017
1735.70801	0.48107
1733.77944	0.49741
1731.85088	0.51719
1729.92231	0.53288
1727.99375	0.54851
1726.06519	0.56523
1724.13662	0.58353
1722.20806	0.60329
1720.27949	0.62149
1718.35093	0.64287
1716.42236	0.67482
1714.49380	0.70550
1712.56523	0.73028
1710.63667	0.75406
1708.70811	0.77947
1706.77954	0.80837
1704.85098	0.84336
1702.92241	0.87495
1700.99385	0.90614
1699.06528	0.95258
1697.13672	0.99580
1695.20815	1.04037
1693.27959	1.08400
1691.35103	1.11969
1689.42246	1.16106
1687.49390	1.20439
1685.56533	1.24554
1683.63677	1.30950
1681.70820	1.37732
1679.77964	1.42075
1677.85107	1.46109
1675.92251	1.50753
1673.99395	1.56605
1672.06538	1.61870
1670.13682	1.66986
1668.20825	1.73615
1666.27969	1.79166
1664.35112	1.84011
1662.42256	1.90116
1660.49399	1.96983
1658.56543	2.02353
1656.63687	2.06692
1654.70830	2.10447
1652.77974	2.15874
1650.85117	2.21459
1648.92261	2.23621
1646.99404	2.25812
1645.06548	2.28117
1643.13691	2.29730
1641.20835	2.30615
1639.27979	2.31400
1637.35122	2.31827
1635.42266	2.31498
1633.49409	2.30322
1631.56553	2.28678
1629.63696	2.26720
1627.70840	2.23588
1625.77983	2.20056
1623.85127	2.15806
1621.92271	2.10580
1619.99414	2.05901
1618.06558	2.01296
1616.13701	1.94761
1614.20845	1.88295
1612.27988	1.83417
1610.35132	1.78227
1608.42275	1.72549
1606.49419	1.66989
1604.56562	1.61882
1602.63706	1.56979
1600.70850	1.52273
1598.77993	1.47984
1596.85137	1.43915
1594.92280	1.39933
1592.99424	1.36137
1591.06567	1.32716
1589.13711	1.29532
1587.20854	1.26592
1585.27998	1.23940
1583.35142	1.21521
1581.42285	1.19338
1579.49429	1.17496
1577.56572	1.15867
1575.63716	1.13933
1573.70859	1.12285
1571.78003	1.11256
1569.85146	1.10252
1567.92290	1.09218
1565.99434	1.08532
1564.06577	1.08112
1562.13721	1.07835
1560.20864	1.07743
1558.28008	1.08064
1556.35151	1.08510
1554.42295	1.08709
1552.49438	1.08904
1550.56582	1.08981
1548.63726	1.08755
1546.70869	1.08217
1544.78013	1.07368
1542.85156	1.06177
1540.92300	1.04382
1538.99443	1.01550
1537.06587	0.99420
1535.13730	0.97937
1533.20874	0.95940
1531.28018	0.93785
1529.35161	0.92222
1527.42305	0.90768
1525.49448	0.89272
1523.56592	0.88007
1521.63735	0.86843
1519.70879	0.85716
1517.78022	0.84747
1515.85166	0.83578
1513.92310	0.82326
1511.99453	0.81220
1510.06597	0.80238
1508.13740	0.79304
1506.20884	0.77794
1504.28027	0.76440
1502.35171	0.75710
1500.42314	0.75100
1498.49458	0.74449
1496.56602	0.73656
1494.63745	0.72844
1492.70889	0.72220
1490.78032	0.71680
1488.85176	0.71047
1486.92319	0.70448
1484.99463	0.69998
1483.06606	0.69652
1481.13750	0.69360
1479.20894	0.69131
1477.28037	0.69001
1475.35181	0.68959
1473.42324	0.68970
1471.49468	0.68934
1469.56611	0.68800
1467.63755	0.68624
1465.70898	0.68455
1463.78042	0.68324
1461.85186	0.68267
1459.92329	0.68277
1457.99473	0.68314
1456.06616	0.68280
1454.13760	0.68103
1452.20903	0.67874
1450.28047	0.67630
1448.35190	0.67392
1446.42334	0.67127
1444.49478	0.66854
1442.56621	0.66613
1440.63765	0.66388
1438.70908	0.66152
1436.78052	0.65815
1434.85195	0.65395
1432.92339	0.65076
1430.99482	0.64875
1429.06626	0.64771
1427.13770	0.64748
1425.20913	0.64766
1423.28057	0.64819
1421.35200	0.64885
1419.42344	0.64941
1417.49487	0.64938
1415.56631	0.64863
1413.63774	0.64803
1411.70918	0.64802
1409.78062	0.64871
1407.85205	0.64995
1405.92349	0.65154
1403.99492	0.65304
1402.06636	0.65366
1400.13779	0.65328
1398.20923	0.65191
1396.28066	0.64954
1394.35210	0.64605
1392.42354	0.64188
1390.49497	0.63786
1388.56641	0.63371
1386.63784	0.62872
1384.70928	0.62341
1382.78071	0.61857
1380.85215	0.61407
1378.92358	0.61008
1376.99502	0.60707
1375.06646	0.60515
1373.13789	0.60394
1371.20933	0.60303
1369.28076	0.60221
1367.35220	0.60109
1365.42363	0.59959
1363.49507	0.59798
1361.56650	0.59643
1359.63794	0.59502
1357.70937	0.59365
1355.78081	0.59223
1353.85225	0.59092
1351.92368	0.58991
1349.99512	0.58918
1348.06655	0.58853
1346.13799	0.58771
1344.20942	0.58679
1342.28086	0.58602
1340.35229	0.58548
1338.42373	0.58495
1336.49517	0.58434
1334.56660	0.58380
1332.63804	0.58358
1330.70947	0.58374
1328.78091	0.58411
1326.85234	0.58461
1324.92378	0.58521
1322.99521	0.58593
1321.06665	0.58676
1319.13809	0.58744
1317.20952	0.58773
1315.28096	0.58784
1313.35239	0.58772
1311.42383	0.58717
1309.49526	0.58642
1307.56670	0.58579
1305.63813	0.58529
1303.70957	0.58475
1301.78101	0.58415
1299.85244	0.58344
1297.92388	0.58256
1295.99531	0.58146
1294.06675	0.58017
1292.13818	0.57882
1290.20962	0.57756
1288.28105	0.57635
1286.35249	0.57511
1284.42393	0.57391
1282.49536	0.57270
1280.56680	0.57134
1278.63823	0.57002
1276.70967	0.56887
1274.78110	0.56773
1272.85254	0.56663
1270.92397	0.56565
1268.99541	0.56484
1267.06685	0.56413
1265.13828	0.56333
1263.20972	0.56250
1261.28115	0.56174
1259.35259	0.56108
1257.42402	0.56039
1255.49546	0.55964
1253.56689	0.55927
1251.63833	0.55941
1249.70977	0.55965
1247.78120	0.55965
1245.85264	0.55930
1243.92407	0.55869
1241.99551	0.55787
1240.06694	0.55656
1238.13838	0.55466
1236.20981	0.55248
1234.28125	0.55022
1232.35269	0.54788
1230.42412	0.54554
1228.49556	0.54340
1226.56699	0.54140
1224.63843	0.53959
1222.70986	0.53813
1220.78130	0.53679
1218.85273	0.53529
1216.92417	0.53379
1214.99561	0.53250
1213.06704	0.53155
1211.13848	0.53091
1209.20991	0.53028
1207.28135	0.52951
1205.35278	0.52865
1203.42422	0.52774
1201.49565	0.52677
1199.56709	0.52574
1197.63853	0.52470
1195.70996	0.52375
1193.78140	0.52303
1191.85283	0.52252
1189.92427	0.52211
1187.99570	0.52174
1186.06714	0.52148
1184.13857	0.52148
1182.21001	0.52179
1180.28145	0.52261
1178.35288	0.52392
1176.42432	0.52530
1174.49575	0.52643
1172.56719	0.52725
1170.63862	0.52768
1168.71006	0.52779
1166.78149	0.52769
1164.85293	0.52757
1162.92437	0.52752
1160.99580	0.52732
1159.06724	0.52691
1157.13867	0.52625
1155.21011	0.52538
1153.28154	0.52424
1151.35298	0.52263
1149.42441	0.52054
1147.49585	0.51820
1145.56729	0.51564
1143.63872	0.51284
1141.71016	0.51017
1139.78159	0.50806
1137.85303	0.50663
1135.92446	0.50581
1133.99590	0.50531
1132.06733	0.50483
1130.13877	0.50427
1128.21021	0.50381
1126.28164	0.50344
1124.35308	0.50290
1122.42451	0.50231
1120.49595	0.50202
1118.56738	0.50209
1116.63882	0.50237
1114.71025	0.50273
1112.78169	0.50312
1110.85312	0.50365
1108.92456	0.50443
1106.99600	0.50539
1105.06743	0.50635
1103.13887	0.50728
1101.21030	0.50844
1099.28174	0.51013
1097.35317	0.51245
1095.42461	0.51533
1093.49604	0.51881
1091.56748	0.52329
1089.63892	0.52899
1087.71035	0.53570
1085.78179	0.54320
1083.85322	0.55077
1081.92466	0.55737
1079.99609	0.56242
1078.06753	0.56526
1076.13896	0.56508
1074.21040	0.56223
1072.28184	0.55763
1070.35327	0.55172
1068.42471	0.54498
1066.49614	0.53798
1064.56758	0.53122
1062.63901	0.52519
1060.71045	0.52012
1058.78188	0.51582
1056.85332	0.51193
1054.92476	0.50836
1052.99619	0.50524
1051.06763	0.50254
1049.13906	0.50041
1047.21050	0.49913
1045.28193	0.49836
1043.35337	0.49759
1041.42480	0.49694
1039.49624	0.49669
1037.56768	0.49658
1035.63911	0.49624
1033.71055	0.49573
1031.78198	0.49517
1029.85342	0.49428
1027.92485	0.49279
1025.99629	0.49117
1024.06772	0.49020
1022.13916	0.48998
1020.21060	0.49003
1018.28203	0.49019
1016.35347	0.49042
1014.42490	0.49054
1012.49634	0.49070
1010.56777	0.49126
1008.63921	0.49215
1006.71064	0.49318
1004.78208	0.49438
1002.85352	0.49590
1000.92495	0.49818
998.99639	0.50161
997.06782	0.50576
995.13926	0.50995
993.21069	0.51399
991.28213	0.51746
989.35356	0.51963
987.42500	0.52047
985.49644	0.52074
983.56787	0.52103
981.63931	0.52162
979.71074	0.52265
977.78218	0.52411
975.85361	0.52600
973.92505	0.52836
971.99648	0.53132
970.06792	0.53500
968.13936	0.53919
966.21079	0.54357
964.28223	0.54795
962.35366	0.55235
960.42510	0.55691
958.49653	0.56207
956.56797	0.56785
954.63940	0.57382
952.71084	0.57990
950.78228	0.58612
948.85371	0.59246
946.92515	0.59916
944.99658	0.60603
943.06802	0.61244
941.13945	0.61798
939.21089	0.62295
937.28232	0.62827
935.35376	0.63430
933.42520	0.64010
931.49663	0.64522
929.56807	0.65069
927.63950	0.65725
925.71094	0.66399
923.78237	0.67005
921.85381	0.67607
919.92524	0.68316
917.99668	0.69119
916.06812	0.69905
914.13955	0.70602
912.21099	0.71229
910.28242	0.71925
908.35386	0.72778
906.42529	0.73666
904.49673	0.74509
902.56816	0.75363
900.63960	0.76294
898.71104	0.77300
896.78247	0.78356
894.85391	0.79440
892.92534	0.80496
890.99678	0.81480
889.06821	0.82416
887.13965	0.83364
885.21108	0.84376
883.28252	0.85511
881.35396	0.86741
879.42539	0.87928
877.49683	0.89078
875.56826	0.90282
873.63970	0.91529
871.71113	0.92781
869.78257	0.93970
867.85400	0.95059
865.92544	0.96110
863.99687	0.97146
862.06831	0.98167
860.13975	0.99214
858.21118	1.00372
856.28262	1.01605
854.35405	1.02705
852.42549	1.03744
850.49692	1.04967
848.56836	1.06300
846.63979	1.07419
844.71123	1.08209
842.78267	1.09124
840.85410	1.10464
838.92554	1.11741
836.99697	1.12753
835.06841	1.13990
833.13984	1.15474
831.21128	1.16470
829.28271	1.16815
827.35415	1.17241
825.42559	1.18057
823.49702	1.19098
821.56846	1.20090
819.63989	1.21052
817.71133	1.22881
815.78276	1.25858
813.85420	1.27795
811.92563	1.27119
809.99707	1.25735
808.06851	1.24697
806.13994	1.23966
804.21138	1.24499
802.28281	1.26186
800.35425	1.27840
798.42568	1.29231
796.49712	1.30170
794.56855	1.31410
792.63999	1.32712
790.71143	1.31223
788.78286	1.27200
786.85430	1.22558
784.92573	1.20216
782.99717	1.20845
781.06860	1.21495
779.14004	1.21172
777.21147	1.20051
775.28291	1.20666
773.35435	1.26208
771.42578	1.31820
769.49722	1.29662
767.56865	1.21298
765.64009	1.09897
763.71152	1.02186
761.78296	1.02705
759.85439	1.08730
757.92583	1.11720
755.99727	1.08882
754.06870	1.07282
752.14014	1.07975
750.21157	1.07715
748.28301	1.03299
746.35444	0.92671
744.42588	0.82024
742.49731	0.76747
740.56875	0.75497
738.64019	0.75775
736.71162	0.75724
734.78306	0.66341
732.85449	0.47561
730.92593	0.29016
728.99736	0.12747
727.06880	-0.09963
725.14023	-1.08869
723.21167	4.33927
721.28311	4.32770
719.35454	4.31613
717.42598	-0.55830
715.49741	-0.21557
713.56885	-0.00083
711.64028	0.11909
709.71172	0.13629
707.78315	0.13621
705.85459	0.15454
703.92603	0.20007
701.99746	0.29299
700.06890	0.36009
698.14033	0.36494
696.21177	0.32260
694.28320	0.22642
692.35464	0.16003
690.42607	0.15247
688.49751	0.12876
686.56895	0.12348
684.64038	0.20844
682.71182	0.26134
680.78325	0.19018
678.85469	0.15371
676.92612	0.27035
674.99756	0.41420
673.06899	0.39908
671.14043	0.35121
669.21187	0.30619
667.28330	0.24438
665.35474	0.23975
663.42617	0.27153
661.49761	0.25931
659.56904	0.25638
657.64048	0.31112
655.71191	0.37242
653.78335	0.37614
651.85479	0.32152
649.92622	0.26496
647.99766	0.23703
646.06909	0.20715
644.14053	0.14479
642.21196	0.08814
640.28340	0.08976
638.35483	0.14885
636.42627	0.16106
634.49771	0.11676
632.56914	0.10595
630.64058	0.15074
628.71201	0.20286
626.78345	0.21034
624.85488	0.18619
622.92632	0.18848
620.99775	0.25754
619.06919	0.34223
617.14062	0.36489
615.21206	0.35289
613.28350	0.31411
611.35493	0.30414
609.42637	0.34845
607.49780	0.39235
605.56924	0.35017
603.64067	0.26207
601.71211	0.20164
599.78354	0.20498
597.85498	0.22717
595.92642	0.18106
593.99785	0.15520
592.06929	0.19386
590.14072	0.19495
588.21216	0.17090
586.28359	0.20662
584.35503	0.26760
582.42646	0.25848
580.49790	0.21149
578.56934	0.20044
576.64077	0.21968
574.71221	0.22914
572.78364	0.20963
570.85508	0.19139
568.92651	0.21814
566.99795	0.27550
565.06938	0.29695
563.14082	0.26658
561.21226	0.22864
559.28369	0.20248
557.35513	0.19865
555.42656	0.22533
553.49800	0.26441
551.56943	0.29203
549.64087	0.27624
547.71230	0.22788
545.78374	0.18004
543.85518	0.15123
541.92661	0.15299
539.99805	0.18459
538.06948	0.22527
536.14092	0.26183
534.21235	0.24788
532.28379	0.23622
530.35522	0.28491
528.42666	0.30329
526.49810	0.29284
524.56953	0.30272
522.64097	0.28735
520.71240	0.26561
518.78384	0.26308
516.85527	0.26403
514.92671	0.24376
512.99814	0.21854
511.06958	0.22647
509.14102	0.24070
507.21245	0.23435
505.28389	0.22581
503.35532	0.21544
501.42676	0.19090
499.49819	0.17441
