3997.91411	0.06582
3995.98555	0.06590
3994.05698	0.06633
3992.12842	0.06717
3990.19985	0.06793
3988.27129	0.06801
3986.34272	0.06765
3984.41416	0.06757
3982.48560	0.06786
3980.55703	0.06821
3978.62847	0.06854
3976.69990	0.06890
3974.77134	0.06924
3972.84277	0.06945
3970.91421	0.06932
3968.98564	0.06920
3967.05708	0.06927
3965.12852	0.06934
3963.19995	0.06962
3961.27139	0.07009
3959.34282	0.07038
3957.41426	0.07032
3955.48569	0.07013
3953.55713	0.06999
3951.62856	0.06991
3949.70000	0.07009
3947.77144	0.07050
3945.84287	0.07034
3943.91431	0.06949
3941.98574	0.06913
3940.05718	0.06966
3938.12861	0.07025
3936.20005	0.07048
3934.27148	0.07035
3932.34292	0.07011
3930.41436	0.07006
3928.48579	0.06983
3926.55723	0.06925
3924.62866	0.06899
3922.70010	0.06933
3920.77153	0.06980
3918.84297	0.06997
3916.91440	0.07000
3914.98584	0.07018
3913.05728	0.07010
3911.12871	0.06965
3909.20015	0.06911
3907.27158	0.06862
3905.34302	0.06828
3903.41445	0.06805
3901.48589	0.06777
3899.55732	0.06793
3897.62876	0.06850
3895.70020	0.06892
3893.77163	0.06926
3891.84307	0.06968
3889.91450	0.07003
3887.98594	0.06984
3886.05737	0.06926
3884.12881	0.06895
3882.20024	0.06892
3880.27168	0.06900
3878.34312	0.06941
3876.41455	0.06953
3874.48599	0.06921
3872.55742	0.06940
3870.62886	0.07050
3868.70029	0.07163
3866.77173	0.07174
3864.84316	0.07140
3862.91460	0.07159
3860.98604	0.07194
3859.05747	0.07180
3857.12891	0.07117
3855.20034	0.07022
3853.27178	0.07002
3851.34321	0.07224
3849.41465	0.07420
3847.48608	0.07494
3845.55752	0.07557
3843.62896	0.07640
3841.70039	0.07713
3839.77183	0.07773
3837.84326	0.07851
3835.91470	0.07882
3833.98613	0.07846
3832.05757	0.07841
3830.12900	0.07899
3828.20044	0.07948
3826.27187	0.07988
3824.34331	0.08065
3822.41475	0.08160
3820.48618	0.08292
3818.55762	0.08424
3816.62905	0.08504
3814.70049	0.08640
3812.77192	0.08778
3810.84336	0.08828
3808.91479	0.08857
3806.98623	0.08926
3805.05767	0.09027
3803.12910	0.09104
3801.20054	0.09189
3799.27197	0.09320
3797.34341	0.09419
3795.41484	0.09512
3793.48628	0.09660
3791.55771	0.09845
3789.62915	0.10035
3787.70059	0.10220
3785.77202	0.10390
3783.84346	0.10509
3781.91489	0.10591
3779.98633	0.10687
3778.05776	0.10826
3776.12920	0.11008
3774.20063	0.11181
3772.27207	0.11318
3770.34351	0.11476
3768.41494	0.11698
3766.48638	0.11915
3764.55781	0.12119
3762.62925	0.12316
3760.70068	0.12504
3758.77212	0.12739
3756.84355	0.13003
3754.91499	0.13204
3752.98643	0.13372
3751.05786	0.13622
3749.12930	0.13988
3747.20073	0.14236
3745.27217	0.14381
3743.34360	0.14707
3741.41504	0.15156
3739.48647	0.15476
3737.55791	0.15757
3735.62935	0.16144
3733.70078	0.16677
3731.77222	0.17197
3729.84365	0.17609
3727.91509	0.17984
3725.98652	0.18475
3724.05796	0.19130
3722.12939	0.19833
3720.20083	0.20553
3718.27227	0.21295
3716.34370	0.22026
3714.41514	0.22711
3712.48657	0.23516
3710.55801	0.24743
3708.62944	0.26192
3706.70088	0.27448
3704.77231	0.28607
3702.84375	0.29865
3700.91519	0.31449
3698.98662	0.33254
3697.05806	0.35031
3695.12949	0.36891
3693.20093	0.38814
3691.27236	0.40821
3689.34380	0.43409
3687.41523	0.46794
3685.48667	0.49921
3683.55811	0.52576
3681.62954	0.55313
3679.70098	0.58348
3677.77241	0.61560
3675.84385	0.65352
3673.91528	0.70417
3671.98672	0.74639
3670.05815	0.78461
3668.12959	0.83766
3666.20103	0.88676
3664.27246	0.92712
3662.34390	0.96986
3660.41533	1.01643
3658.48677	1.06229
3656.55820	1.11041
3654.62964	1.16369
3652.70107	1.20834
3650.77251	1.24674
3648.84395	1.29969
3646.91538	1.36610
3644.98682	1.41678
3643.05825	1.45674
3641.12969	1.49730
3639.20112	1.54095
3637.27256	1.58447
3635.34399	1.62671
3633.41543	1.66868
3631.48687	1.70822
3629.55830	1.74789
3627.62974	1.79910
3625.70117	1.84855
3623.77261	1.88305
3621.84404	1.91578
3619.91548	1.95349
3617.98691	1.99899
3616.05835	2.04295
3614.12979	2.08042
3612.20122	2.11938
3610.27266	2.15782
3608.34409	2.19686
3606.41553	2.23940
3604.48696	2.27863
3602.55840	2.31268
3600.62983	2.34897
3598.70127	2.38881
3596.77271	2.42858
3594.84414	2.46964
3592.91558	2.51229
3590.98701	2.55213
3589.05845	2.58800
3587.12988	2.62908
3585.20132	2.67655
3583.27275	2.72042
3581.34419	2.76116
3579.41562	2.80354
3577.48706	2.84684
3575.55850	2.88793
3573.62993	2.92920
3571.70137	2.97053
3569.77280	3.01001
3567.84424	3.05230
3565.91567	3.10374
3563.98711	3.15314
3562.05854	3.19675
3560.12998	3.24247
3558.20142	3.28843
3556.27285	3.33112
3554.34429	3.37233
3552.41572	3.41882
3550.48716	3.46926
3548.55859	3.51665
3546.63003	3.56136
3544.70146	3.60767
3542.77290	3.65422
3540.84434	3.69918
3538.91577	3.74552
3536.98721	3.79351
3535.05864	3.84261
3533.13008	3.89019
3531.20151	3.93648
3529.27295	3.98604
3527.34438	4.03942
3525.41582	4.08788
3523.48726	4.13082
3521.55869	4.17996
3519.63013	4.23296
3517.70156	4.28151
3515.77300	4.32600
3513.84443	4.37016
3511.91587	4.41919
3509.98730	4.47452
3508.05874	4.52465
3506.13018	4.56455
3504.20161	4.60671
3502.27305	4.65467
3500.34448	4.70264
3498.41592	4.75120
3496.48735	4.80389
3494.55879	4.86035
3492.63022	4.91409
3490.70166	4.96009
3488.77310	5.00185
3486.84453	5.04509
3484.91597	5.09393
3482.98740	5.14438
3481.05884	5.19025
3479.13027	5.23780
3477.20171	5.29195
3475.27314	5.34402
3473.34458	5.38884
3471.41602	5.43234
3469.48745	5.47896
3467.55889	5.52723
3465.63032	5.57440
3463.70176	5.62336
3461.77319	5.68120
3459.84463	5.74870
3457.91606	5.81305
3455.98750	5.86223
3454.05894	5.89802
3452.13037	5.93559
3450.20181	5.98026
3448.27324	6.02438
3446.34468	6.07344
3444.41611	6.12865
3442.48755	6.18788
3440.55898	6.25265
3438.63042	6.31005
3436.70186	6.34505
3434.77329	6.37842
3432.84473	6.43063
3430.91616	6.49046
3428.98760	6.55944
3427.05903	6.62901
3425.13047	6.66965
3423.20190	6.69165
3421.27334	6.74302
3419.34478	6.81556
3417.41621	6.88054
3415.48765	6.93345
3413.55908	6.96068
3411.63052	6.98931
3409.70195	7.03680
3407.77339	7.08731
3405.84482	7.12276
3403.91626	7.13862
3401.98770	7.16230
3400.05913	7.22726
3398.13057	7.30190
3396.20200	7.34580
3394.27344	7.36975
3392.34487	7.36798
3390.41631	7.37214
3388.48774	7.40891
3386.55918	7.46751
3384.63062	7.52550
3382.70205	7.57870
3380.77349	7.61880
3378.84492	7.63368
3376.91636	7.67024
3374.98779	7.75360
3373.05923	7.85849
3371.13066	7.90969
3369.20210	7.91528
3367.27354	7.92358
3365.34497	7.91278
3363.41641	7.86754
3361.48784	7.83139
3359.55928	7.83885
3357.63071	7.84529
3355.70215	7.87953
3353.77358	7.97102
3351.84502	8.07366
3349.91646	8.14744
3347.98789	8.17991
3346.05933	8.18715
3344.13076	8.17398
3342.20220	8.12042
3340.27363	8.06308
3338.34507	8.05519
3336.41650	8.06387
3334.48794	8.13174
3332.55937	8.26160
3330.63081	8.33264
3328.70225	8.28023
3326.77368	8.14968
3324.84512	8.08296
3322.91655	8.16077
3320.98799	8.29792
3319.05942	8.29753
3317.13086	8.20045
3315.20229	8.16871
3313.27373	8.19034
3311.34517	8.21087
3309.41660	8.23689
3307.48804	8.26913
3305.55947	8.33389
3303.63091	8.41779
3301.70234	8.36078
3299.77378	8.25890
3297.84521	8.28326
3295.91665	8.34120
3293.98809	8.36712
3292.05952	8.44258
3290.13096	8.52197
3288.20239	8.48971
3286.27383	8.41242
3284.34526	8.37848
3282.41670	8.39831
3280.48813	8.41393
3278.55957	8.40387
3276.63101	8.40894
3274.70244	8.44391
3272.77388	8.47174
3270.84531	8.46947
3268.91675	8.48923
3266.98818	8.45254
3265.05962	8.30899
3263.13105	8.24305
3261.20249	8.35530
3259.27393	8.52359
3257.34536	8.55557
3255.41680	8.43505
3253.48823	8.35696
3251.55967	8.41120
3249.63110	8.46038
3247.70254	8.43098
3245.77397	8.41044
3243.84541	8.43270
3241.91685	8.44354
3239.98828	8.44544
3238.05972	8.46555
3236.13115	8.45816
3234.20259	8.46216
3232.27402	8.55028
3230.34546	8.61961
3228.41689	8.51497
3226.48833	8.32935
3224.55977	8.23821
3222.63120	8.21409
3220.70264	8.14385
3218.77407	8.10241
3216.84551	8.18401
3214.91694	8.28092
3212.98838	8.27466
3211.05981	8.23999
3209.13125	8.22563
3207.20269	8.18578
3205.27412	8.12999
3203.34556	8.10327
3201.41699	8.11090
3199.48843	8.06410
3197.55986	7.94346
3195.63130	7.83942
3193.70273	7.75707
3191.77417	7.70823
3189.84561	7.72297
3187.91704	7.73730
3185.98848	7.67578
3184.05991	7.55542
3182.13135	7.43259
3180.20278	7.34059
3178.27422	7.30134
3176.34565	7.30734
3174.41709	7.29936
3172.48853	7.23162
3170.55996	7.13546
3168.63140	7.06327
3166.70283	7.00467
3164.77427	6.94628
3162.84570	6.90363
3160.91714	6.84977
3158.98857	6.76177
3157.06001	6.67199
3155.13145	6.60894
3153.20288	6.56246
3151.27432	6.51475
3149.34575	6.45814
3147.41719	6.38331
3145.48862	6.29315
3143.56006	6.20936
3141.63149	6.13419
3139.70293	6.05517
3137.77437	5.97752
3135.84580	5.90574
3133.91724	5.84245
3131.98867	5.78149
3130.06011	5.70684
3128.13154	5.62059
3126.20298	5.53937
3124.27441	5.46832
3122.34585	5.39570
3120.41729	5.32178
3118.48872	5.25280
3116.56016	5.18686
3114.63159	5.11944
3112.70303	5.04438
3110.77446	4.96638
3108.84590	4.89573
3106.91733	4.83098
3104.98877	4.76430
3103.06021	4.69529
3101.13164	4.62522
3099.20308	4.55420
3097.27451	4.48515
3095.34595	4.41881
3093.41738	4.35540
3091.48882	4.29514
3089.56025	4.23224
3087.63169	4.16394
3085.70312	4.09754
3083.77456	4.03599
3081.84600	3.97384
3079.91743	3.90952
3077.98887	3.84655
3076.06030	3.78553
3074.13174	3.72649
3072.20317	3.66975
3070.27461	3.61301
3068.34604	3.55645
3066.41748	3.50115
3064.48892	3.44581
3062.56035	3.38908
3060.63179	3.33214
3058.70322	3.27703
3056.77466	3.22299
3054.84609	3.16952
3052.91753	3.11702
3050.98896	3.06431
3049.06040	3.01123
3047.13184	2.95918
3045.20327	2.90824
3043.27471	2.85782
3041.34614	2.80839
3039.41758	2.76087
3037.48901	2.71449
3035.56045	2.66741
3033.63188	2.62014
3031.70332	2.57437
3029.77476	2.53020
3027.84619	2.48687
3025.91763	2.44361
3023.98906	2.39977
3022.06050	2.35614
3020.13193	2.31446
3018.20337	2.27427
3016.27480	2.23402
3014.34624	2.19424
3012.41768	2.15595
3010.48911	2.11864
3008.56055	2.08149
3006.63198	2.04438
3004.70342	2.00770
3002.77485	1.97210
3000.84629	1.93803
2998.91772	1.90481
2996.98916	1.87155
2995.06060	1.83858
2993.13203	1.80661
2991.20347	1.77525
2989.27490	1.74395
2987.34634	1.71338
2985.41777	1.68371
2983.48921	1.65461
2981.56064	1.62640
2979.63208	1.59878
2977.70352	1.57100
2975.77495	1.54330
2973.84639	1.51673
2971.91782	1.49142
2969.98926	1.46653
2968.06069	1.44182
2966.13213	1.41721
2964.20356	1.39264
2962.27500	1.36831
2960.34644	1.34442
2958.41787	1.32068
2956.48931	1.29674
2954.56074	1.27302
2952.63218	1.24990
2950.70361	1.22728
2948.77505	1.20514
2946.84648	1.18350
2944.91792	1.16242
2942.98936	1.14171
2941.06079	1.12095
2939.13223	1.10023
2937.20366	1.08020
2935.27510	1.06091
2933.34653	1.04186
2931.41797	1.02266
2929.48940	1.00335
2927.56084	0.98435
2925.63228	0.96598
2923.70371	0.94833
2921.77515	0.93120
2919.84658	0.91421
2917.91802	0.89740
2915.98945	0.88096
2914.06089	0.86485
2912.13232	0.84939
2910.20376	0.83449
2908.27520	0.81934
2906.34663	0.80406
2904.41807	0.78957
2902.48950	0.77605
2900.56094	0.76277
2898.63237	0.74946
2896.70381	0.73641
2894.77524	0.72347
2892.84668	0.71066
2890.91812	0.69871
2888.98955	0.68777
2887.06099	0.67693
2885.13242	0.66594
2883.20386	0.65537
2881.27529	0.64523
2879.34673	0.63504
2877.41816	0.62497
2875.48960	0.61542
2873.56104	0.60588
2871.63247	0.59571
2869.70391	0.58495
2867.77534	0.57407
2865.84678	0.56330
2863.91821	0.55254
2861.98965	0.54184
2860.06108	0.53144
2858.13252	0.52154
2856.20396	0.51226
2854.27539	0.50354
2852.34683	0.49522
2850.41826	0.48708
2848.48970	0.47917
2846.56113	0.47168
2844.63257	0.46433
2842.70400	0.45717
2840.77544	0.45053
2838.84687	0.44423
2836.91831	0.43801
2834.98975	0.43191
2833.06118	0.42596
2831.13262	0.42010
2829.20405	0.41422
2827.27549	0.40821
2825.34692	0.40196
2823.41836	0.39571
2821.48979	0.38982
2819.56123	0.38433
2817.63267	0.37906
2815.70410	0.37363
2813.77554	0.36797
2811.84697	0.36236
2809.91841	0.35699
2807.98984	0.35178
2806.06128	0.34680
2804.13271	0.34205
2802.20415	0.33730
2800.27559	0.33240
2798.34702	0.32756
2796.41846	0.32304
2794.48989	0.31868
2792.56133	0.31425
2790.63276	0.30989
2788.70420	0.30562
2786.77563	0.30140
2784.84707	0.29730
2782.91851	0.29324
2780.98994	0.28923
2779.06138	0.28533
2777.13281	0.28162
2775.20425	0.27802
2773.27568	0.27437
2771.34712	0.27051
2769.41855	0.26667
2767.48999	0.26324
2765.56143	0.26024
2763.63286	0.25716
2761.70430	0.25386
2759.77573	0.25065
2757.84717	0.24749
2755.91860	0.24428
2753.99004	0.24127
2752.06147	0.23859
2750.13291	0.23600
2748.20435	0.23328
2746.27578	0.23052
2744.34722	0.22780
2742.41865	0.22512
2740.49009	0.22260
2738.56152	0.22028
2736.63296	0.21793
2734.70439	0.21541
2732.77583	0.21291
2730.84727	0.21068
2728.91870	0.20864
2726.99014	0.20652
2725.06157	0.20438
2723.13301	0.20228
2721.20444	0.20001
2719.27588	0.19778
2717.34731	0.19600
2715.41875	0.19444
2713.49019	0.19270
2711.56162	0.19082
2709.63306	0.18903
2707.70449	0.18741
2705.77593	0.18591
2703.84736	0.18445
2701.91880	0.18298
2699.99023	0.18150
2698.06167	0.18010
2696.13311	0.17877
2694.20454	0.17736
2692.27598	0.17591
2690.34741	0.17458
2688.41885	0.17344
2686.49028	0.17245
2684.56172	0.17146
2682.63315	0.17032
2680.70459	0.16909
2678.77603	0.16797
2676.84746	0.16700
2674.91890	0.16602
2672.99033	0.16498
2671.06177	0.16403
2669.13320	0.16313
2667.20464	0.16210
2665.27607	0.16104
2663.34751	0.16019
2661.41895	0.15941
2659.49038	0.15851
2657.56182	0.15756
2655.63325	0.15678
2653.70469	0.15615
2651.77612	0.15553
2649.84756	0.15504
2647.91899	0.15466
2645.99043	0.15423
2644.06187	0.15374
2642.13330	0.15325
2640.20474	0.15272
2638.27617	0.15209
2636.34761	0.15151
2634.41904	0.15109
2632.49048	0.15070
2630.56191	0.15036
2628.63335	0.15013
2626.70479	0.14989
2624.77622	0.14958
2622.84766	0.14926
2620.91909	0.14896
2618.99053	0.14881
2617.06196	0.14885
2615.13340	0.14876
2613.20483	0.14844
2611.27627	0.14811
2609.34771	0.14800
2607.41914	0.14811
2605.49058	0.14830
2603.56201	0.14840
2601.63345	0.14828
2599.70488	0.14812
2597.77632	0.14829
2595.84775	0.14856
2593.91919	0.14856
2591.99062	0.14853
2590.06206	0.14871
2588.13350	0.14889
2586.20493	0.14893
2584.27637	0.14898
2582.34780	0.14920
2580.41924	0.14957
2578.49067	0.14991
2576.56211	0.15016
2574.63354	0.15035
2572.70498	0.15051
2570.77642	0.15075
2568.84785	0.15120
2566.91929	0.15186
2564.99072	0.15248
2563.06216	0.15290
2561.13359	0.15323
2559.20503	0.15372
2557.27646	0.15439
2555.34790	0.15498
2553.41934	0.15537
2551.49077	0.15571
2549.56221	0.15625
2547.63364	0.15700
2545.70508	0.15771
2543.77651	0.15830
2541.84795	0.15889
2539.91938	0.15940
2537.99082	0.15985
2536.06226	0.16043
2534.13369	0.16122
2532.20513	0.16200
2530.27656	0.16268
2528.34800	0.16345
2526.41943	0.16434
2524.49087	0.16511
2522.56230	0.16562
2520.63374	0.16613
2518.70518	0.16687
2516.77661	0.16769
2514.84805	0.16849
2512.91948	0.16932
2510.99092	0.17011
2509.06235	0.17096
2507.13379	0.17186
2505.20522	0.17268
2503.27666	0.17347
2501.34810	0.17439
2499.41953	0.17537
2497.49097	0.17618
2495.56240	0.17679
2493.63384	0.17748
2491.70527	0.17844
2489.77671	0.17954
2487.84814	0.18052
2485.91958	0.18136
2483.99102	0.18212
2482.06245	0.18286
2480.13389	0.18371
2478.20532	0.18469
2476.27676	0.18569
2474.34819	0.18667
2472.41963	0.18750
2470.49106	0.18824
2468.56250	0.18917
2466.63394	0.19020
2464.70537	0.19113
2462.77681	0.19202
2460.84824	0.19296
2458.91968	0.19390
2456.99111	0.19482
2455.06255	0.19585
2453.13398	0.19695
2451.20542	0.19796
2449.27686	0.19890
2447.34829	0.19989
2445.41973	0.20091
2443.49116	0.20191
2441.56260	0.20288
2439.63403	0.20376
2437.70547	0.20471
2435.77690	0.20587
2433.84834	0.20705
2431.91978	0.20802
2429.99121	0.20899
2428.06265	0.21014
2426.13408	0.21137
2424.20552	0.21253
2422.27695	0.21357
2420.34839	0.21458
2418.41982	0.21569
2416.49126	0.21681
2414.56270	0.21790
2412.63413	0.21894
2410.70557	0.22002
2408.77700	0.22121
2406.84844	0.22246
2404.91987	0.22372
2402.99131	0.22486
2401.06274	0.22591
2399.13418	0.22705
2397.20562	0.22834
2395.27705	0.22966
2393.34849	0.23098
2391.41992	0.23230
2389.49136	0.23348
2387.56279	0.23455
2385.63423	0.23562
2383.70566	0.23666
2381.77710	0.23760
2379.84854	0.23846
2377.91997	0.23920
2375.99141	0.23979
2374.06284	0.24042
2372.13428	0.24123
2370.20571	0.24214
2368.27715	0.24295
2366.34858	0.24358
2364.42002	0.24445
2362.49146	0.24579
2360.56289	0.24757
2358.63433	0.24996
2356.70576	0.25255
2354.77720	0.25490
2352.84863	0.25679
2350.92007	0.25840
2348.99150	0.25980
2347.06294	0.26076
2345.13437	0.26153
2343.20581	0.26273
2341.27725	0.26442
2339.34868	0.26627
2337.42012	0.26813
2335.49155	0.27006
2333.56299	0.27160
2331.63442	0.27272
2329.70586	0.27442
2327.77729	0.27704
2325.84873	0.27962
2323.92017	0.28203
2321.99160	0.28430
2320.06304	0.28598
2318.13447	0.28750
2316.20591	0.28932
2314.27734	0.29115
2312.34878	0.29288
2310.42021	0.29470
2308.49165	0.29653
2306.56309	0.29836
2304.63452	0.30027
2302.70596	0.30220
2300.77739	0.30410
2298.84883	0.30593
2296.92026	0.30779
2294.99170	0.30978
2293.06313	0.31194
2291.13457	0.31414
2289.20601	0.31625
2287.27744	0.31831
2285.34888	0.32022
2283.42031	0.32204
2281.49175	0.32400
2279.56318	0.32611
2277.63462	0.32819
2275.70605	0.33021
2273.77749	0.33228
2271.84893	0.33431
2269.92036	0.33618
2267.99180	0.33811
2266.06323	0.34029
2264.13467	0.34255
2262.20610	0.34477
2260.27754	0.34687
2258.34897	0.34892
2256.42041	0.35111
2254.49185	0.35337
2252.56328	0.35560
2250.63472	0.35787
2248.70615	0.36011
2246.77759	0.36228
2244.84902	0.36446
2242.92046	0.36658
2240.99189	0.36867
2239.06333	0.37088
2237.13477	0.37306
2235.20620	0.37517
2233.27764	0.37744
2231.34907	0.37987
2229.42051	0.38220
2227.49194	0.38434
2225.56338	0.38647
2223.63481	0.38873
2221.70625	0.39097
2219.77769	0.39316
2217.84912	0.39534
2215.92056	0.39754
2213.99199	0.39975
2212.06343	0.40186
2210.13486	0.40388
2208.20630	0.40603
2206.27773	0.40825
2204.34917	0.41031
2202.42061	0.41226
2200.49204	0.41427
2198.56348	0.41631
2196.63491	0.41833
2194.70635	0.42037
2192.77778	0.42236
2190.84922	0.42412
2188.92065	0.42578
2186.99209	0.42757
2185.06353	0.42943
2183.13496	0.43121
2181.20640	0.43296
2179.27783	0.43475
2177.34927	0.43644
2175.42070	0.43795
2173.49214	0.43946
2171.56357	0.44091
2169.63501	0.44218
2167.70645	0.44341
2165.77788	0.44464
2163.84932	0.44585
2161.92075	0.44698
2159.99219	0.44799
2158.06362	0.44886
2156.13506	0.44974
2154.20649	0.45071
2152.27793	0.45168
2150.34937	0.45242
2148.42080	0.45283
2146.49224	0.45317
2144.56367	0.45367
2142.63511	0.45418
2140.70654	0.45454
2138.77798	0.45480
2136.84941	0.45496
2134.92085	0.45493
2132.99229	0.45476
2131.06372	0.45457
2129.13516	0.45436
2127.20659	0.45407
2125.27803	0.45382
2123.34946	0.45353
2121.42090	0.45303
2119.49233	0.45250
2117.56377	0.45203
2115.63521	0.45131
2113.70664	0.45035
2111.77808	0.44938
2109.84951	0.44833
2107.92095	0.44710
2105.99238	0.44580
2104.06382	0.44462
2102.13525	0.44349
2100.20669	0.44226
2098.27812	0.44088
2096.34956	0.43938
2094.42100	0.43786
2092.49243	0.43638
2090.56387	0.43470
2088.63530	0.43269
2086.70674	0.43062
2084.77817	0.42871
2082.84961	0.42689
2080.92104	0.42497
2078.99248	0.42297
2077.06392	0.42094
2075.13535	0.41875
2073.20679	0.41643
2071.27822	0.41420
2069.34966	0.41197
2067.42109	0.40956
2065.49253	0.40713
2063.56396	0.40479
2061.63540	0.40248
2059.70684	0.40005
2057.77827	0.39743
2055.84971	0.39477
2053.92114	0.39220
2051.99258	0.38972
2050.06401	0.38713
2048.13545	0.38442
2046.20688	0.38175
2044.27832	0.37912
2042.34976	0.37652
2040.42119	0.37398
2038.49263	0.37131
2036.56406	0.36844
2034.63550	0.36552
2032.70693	0.36263
2030.77837	0.35981
2028.84980	0.35705
2026.92124	0.35437
2024.99268	0.35175
2023.06411	0.34908
2021.13555	0.34620
2019.20698	0.34326
2017.27842	0.34050
2015.34985	0.33789
2013.42129	0.33519
2011.49272	0.33241
2009.56416	0.32971
2007.63560	0.32703
2005.70703	0.32432
2003.77847	0.32166
2001.84990	0.31903
1999.92134	0.31641
1997.99277	0.31389
1996.06421	0.31143
1994.13564	0.30892
1992.20708	0.30630
1990.27852	0.30368
1988.34995	0.30118
1986.42139	0.29877
1984.49282	0.29643
1982.56426	0.29415
1980.63569	0.29185
1978.70713	0.28951
1976.77856	0.28721
1974.85000	0.28507
1972.92144	0.28298
1970.99287	0.28080
1969.06431	0.27862
1967.13574	0.27657
1965.20718	0.27466
1963.27861	0.27282
1961.35005	0.27097
1959.42148	0.26912
1957.49292	0.26724
1955.56436	0.26533
1953.63579	0.26356
1951.70723	0.26195
1949.77866	0.26035
1947.85010	0.25875
1945.92153	0.25726
1943.99297	0.25584
1942.06440	0.25434
1940.13584	0.25282
1938.20728	0.25147
1936.27871	0.25028
1934.35015	0.24903
1932.42158	0.24768
1930.49302	0.24636
1928.56445	0.24515
1926.63589	0.24400
1924.70732	0.24292
1922.77876	0.24193
1920.85020	0.24105
1918.92163	0.24025
1916.99307	0.23940
1915.06450	0.23860
1913.13594	0.23786
1911.20737	0.23712
1909.27881	0.23633
1907.35024	0.23560
1905.42168	0.23499
1903.49312	0.23452
1901.56455	0.23419
1899.63599	0.23383
1897.70742	0.23332
1895.77886	0.23276
1893.85029	0.23234
1891.92173	0.23203
1889.99316	0.23181
1888.06460	0.23157
1886.13604	0.23131
1884.20747	0.23105
1882.27891	0.23082
1880.35034	0.23075
1878.42178	0.23081
1876.49321	0.23086
1874.56465	0.23082
1872.63608	0.23083
1870.70752	0.23084
1868.77896	0.23111
1866.85039	0.23152
1864.92183	0.23173
1862.99326	0.23190
1861.06470	0.23212
1859.13613	0.23246
1857.20757	0.23290
1855.27900	0.23345
1853.35044	0.23396
1851.42187	0.23450
1849.49331	0.23501
1847.56475	0.23547
1845.63618	0.23609
1843.70762	0.23709
1841.77905	0.23808
1839.85049	0.23865
1837.92192	0.23931
1835.99336	0.24020
1834.06479	0.24124
1832.13623	0.24219
1830.20767	0.24335
1828.27910	0.24471
1826.35054	0.24583
1824.42197	0.24718
1822.49341	0.24864
1820.56484	0.24999
1818.63628	0.25134
1816.70771	0.25293
1814.77915	0.25462
1812.85059	0.25641
1810.92202	0.25834
1808.99346	0.26035
1807.06489	0.26243
1805.13633	0.26447
1803.20776	0.26659
1801.27920	0.26885
1799.35063	0.27155
1797.42207	0.27419
1795.49351	0.27666
1793.56494	0.27936
1791.63638	0.28281
1789.70781	0.28638
1787.77925	0.28921
1785.85068	0.29232
1783.92212	0.29592
1781.99355	0.29988
1780.06499	0.30414
1778.13643	0.30849
1776.20786	0.31246
1774.27930	0.31649
1772.35073	0.32197
1770.42217	0.32823
1768.49360	0.33375
1766.56504	0.33918
1764.63647	0.34469
1762.70791	0.35048
1760.77935	0.35786
1758.85078	0.36502
1756.92222	0.37222
1754.99365	0.38001
1753.06509	0.38694
1751.13652	0.39500
1749.20796	0.40523
1747.27939	0.41559
1745.35083	0.42487
1743.42227	0.43463
1741.49370	0.44525
1739.56514	0.45780
1737.63657	0.47040
1735.70801	0.48106
1733.77944	0.49691
1731.85088	0.51672
1729.92231	0.53286
1727.99375	0.54897
1726.06519	0.56617
1724.13662	0.58482
1722.20806	0.60472
1720.27949	0.62277
1718.35093	0.64354
1716.42236	0.67482
1714.49380	0.70553
1712.56523	0.73084
1710.63667	0.75529
1708.70811	0.78107
1706.77954	0.80980
1704.85098	0.84421
1702.92241	0.87538
1700.99385	0.90641
1699.06528	0.95227
1697.13672	0.99443
1695.20815	1.03837
1693.27959	1.08167
1691.35103	1.11645
1689.42246	1.15612
1687.49390	1.19780
1685.56533	1.23774
1683.63677	1.29944
1681.70820	1.36403
1679.77964	1.40580
1677.85107	1.44571
1675.92251	1.49126
1673.99395	1.54688
1672.06538	1.59658
1670.13682	1.64598
1668.20825	1.70993
1666.27969	1.76172
1664.35112	1.80568
1662.42256	1.86104
1660.49399	1.92334
1658.56543	1.97164
1656.63687	2.01035
1654.70830	2.04568
1652.77974	2.10200
1650.85117	2.15798
1648.92261	2.17967
1646.99404	2.20478
1645.06548	2.23133
1643.13691	2.24841
1641.20835	2.25829
1639.27979	2.26752
1637.35122	2.27323
1635.42266	2.27292
1633.49409	2.26510
1631.56553	2.25048
1629.63696	2.23224
1627.70840	2.20335
1625.77983	2.17028
1623.85127	2.12996
1621.92271	2.07990
1619.99414	2.03437
1618.06558	1.99035
1616.13701	1.92847
1614.20845	1.86548
1612.27988	1.81729
1610.35132	1.76657
1608.42275	1.71147
1606.49419	1.65781
1604.56562	1.60875
1602.63706	1.56090
1600.70850	1.51358
1598.77993	1.47003
1596.85137	1.42935
1594.92280	1.39010
1592.99424	1.35236
1591.06567	1.31752
1589.13711	1.28483
1587.20854	1.25456
1585.27998	1.22671
1583.35142	1.20067
1581.42285	1.17663
1579.49429	1.15579
1577.56572	1.13690
1575.63716	1.11431
1573.70859	1.09508
1571.78003	1.08302
1569.85146	1.07068
1567.92290	1.05715
1565.99434	1.04682
1564.06577	1.03849
1562.13721	1.03208
1560.20864	1.02831
1558.28008	1.02514
1556.35151	1.02227
1554.42295	1.02001
1552.49438	1.01804
1550.56582	1.01503
1548.63726	1.00984
1546.70869	1.00306
1544.78013	0.99421
1542.85156	0.98289
1540.92300	0.96716
1538.99443	0.94341
1537.06587	0.92631
1535.13730	0.91460
1533.20874	0.89881
1531.28018	0.88182
1529.35161	0.86940
1527.42305	0.85760
1525.49448	0.84526
1523.56592	0.83477
1521.63735	0.82480
1519.70879	0.81468
1517.78022	0.80628
1515.85166	0.79701
1513.92310	0.78739
1511.99453	0.77875
1510.06597	0.77044
1508.13740	0.76199
1506.20884	0.75035
1504.28027	0.74116
1502.35171	0.73563
1500.42314	0.73033
1498.49458	0.72459
1496.56602	0.71820
1494.63745	0.71224
1492.70889	0.70742
1490.78032	0.70254
1488.85176	0.69698
1486.92319	0.69262
1484.99463	0.68949
1483.06606	0.68658
1481.13750	0.68377
1479.20894	0.68163
1477.28037	0.68034
1475.35181	0.67938
1473.42324	0.67827
1471.49468	0.67673
1469.56611	0.67498
1467.63755	0.67300
1465.70898	0.67095
1463.78042	0.66917
1461.85186	0.66785
1459.92329	0.66697
1457.99473	0.66615
1456.06616	0.66475
1454.13760	0.66283
1452.20903	0.66077
1450.28047	0.65850
1448.35190	0.65603
1446.42334	0.65352
1444.49478	0.65126
1442.56621	0.64899
1440.63765	0.64636
1438.70908	0.64359
1436.78052	0.64049
1434.85195	0.63728
1432.92339	0.63464
1430.99482	0.63253
1429.06626	0.63110
1427.13770	0.63052
1425.20913	0.63039
1423.28057	0.63039
1421.35200	0.63022
1419.42344	0.62977
1417.49487	0.62894
1415.56631	0.62787
1413.63774	0.62718
1411.70918	0.62704
1409.78062	0.62735
1407.85205	0.62800
1405.92349	0.62882
1403.99492	0.62941
1402.06636	0.62926
1400.13779	0.62844
1398.20923	0.62690
1396.28066	0.62456
1394.35210	0.62156
1392.42354	0.61847
1390.49497	0.61551
1388.56641	0.61218
1386.63784	0.60824
1384.70928	0.60446
1382.78071	0.60108
1380.85215	0.59768
1378.92358	0.59449
1376.99502	0.59189
1375.06646	0.58991
1373.13789	0.58849
1371.20933	0.58761
1369.28076	0.58680
1367.35220	0.58564
1365.42363	0.58427
1363.49507	0.58288
1361.56650	0.58163
1359.63794	0.58055
1357.70937	0.57948
1355.78081	0.57832
1353.85225	0.57728
1351.92368	0.57656
1349.99512	0.57597
1348.06655	0.57529
1346.13799	0.57453
1344.20942	0.57366
1342.28086	0.57258
1340.35229	0.57154
1338.42373	0.57080
1336.49517	0.57026
1334.56660	0.56977
1332.63804	0.56940
1330.70947	0.56924
1328.78091	0.56923
1326.85234	0.56934
1324.92378	0.56953
1322.99521	0.56975
1321.06665	0.56993
1319.13809	0.57006
1317.20952	0.57014
1315.28096	0.57004
1313.35239	0.56964
1311.42383	0.56910
1309.49526	0.56863
1307.56670	0.56818
1305.63813	0.56754
1303.70957	0.56679
1301.78101	0.56609
1299.85244	0.56529
1297.92388	0.56438
1295.99531	0.56351
1294.06675	0.56254
1292.13818	0.56138
1290.20962	0.56030
1288.28105	0.55932
1286.35249	0.55822
1284.42393	0.55713
1282.49536	0.55619
1280.56680	0.55527
1278.63823	0.55428
1276.70967	0.55331
1274.78110	0.55248
1272.85254	0.55181
1270.92397	0.55123
1268.99541	0.55055
1267.06685	0.54972
1265.13828	0.54875
1263.20972	0.54782
1261.28115	0.54719
1259.35259	0.54685
1257.42402	0.54653
1255.49546	0.54607
1253.56689	0.54566
1251.63833	0.54555
1249.70977	0.54559
1247.78120	0.54549
1245.85264	0.54529
1243.92407	0.54490
1241.99551	0.54412
1240.06694	0.54302
1238.13838	0.54167
1236.20981	0.54007
1234.28125	0.53832
1232.35269	0.53660
1230.42412	0.53511
1228.49556	0.53385
1226.56699	0.53260
1224.63843	0.53123
1222.70986	0.52973
1220.78130	0.52832
1218.85273	0.52714
1216.92417	0.52602
1214.99561	0.52491
1213.06704	0.52402
1211.13848	0.52340
1209.20991	0.52282
1207.28135	0.52210
1205.35278	0.52116
1203.42422	0.52014
1201.49565	0.51941
1199.56709	0.51898
1197.63853	0.51852
1195.70996	0.51791
1193.78140	0.51732
1191.85283	0.51678
1189.92427	0.51619
1187.99570	0.51566
1186.06714	0.51548
1184.13857	0.51566
1182.21001	0.51609
1180.28145	0.51678
1178.35288	0.51770
1176.42432	0.51879
1174.49575	0.51980
1172.56719	0.52035
1170.63862	0.52048
1168.71006	0.52057
1166.78149	0.52081
1164.85293	0.52108
1162.92437	0.52100
1160.99580	0.52060
1159.06724	0.52015
1157.13867	0.51958
1155.21011	0.51871
1153.28154	0.51750
1151.35298	0.51596
1149.42441	0.51413
1147.49585	0.51192
1145.56729	0.50942
1143.63872	0.50690
1141.71016	0.50467
1139.78159	0.50274
1137.85303	0.50093
1135.92446	0.49922
1133.99590	0.49787
1132.06733	0.49699
1130.13877	0.49622
1128.21021	0.49527
1126.28164	0.49429
1124.35308	0.49341
1122.42451	0.49265
1120.49595	0.49215
1118.56738	0.49186
1116.63882	0.49167
1114.71025	0.49172
1112.78169	0.49217
1110.85312	0.49296
1108.92456	0.49391
1106.99600	0.49477
1105.06743	0.49557
1103.13887	0.49657
1101.21030	0.49791
1099.28174	0.49977
1097.35317	0.50225
1095.42461	0.50525
1093.49604	0.50874
1091.56748	0.51273
1089.63892	0.51758
1087.71035	0.52371
1085.78179	0.53065
1083.85322	0.53769
1081.92466	0.54439
1079.99609	0.54996
1078.06753	0.55341
1076.13896	0.55414
1074.21040	0.55198
1072.28184	0.54721
1070.35327	0.54083
1068.42471	0.53407
1066.49614	0.52760
1064.56758	0.52166
1062.63901	0.51609
1060.71045	0.51067
1058.78188	0.50581
1056.85332	0.50186
1054.92476	0.49849
1052.99619	0.49551
1051.06763	0.49278
1049.13906	0.49012
1047.21050	0.48797
1045.28193	0.48683
1043.35337	0.48620
1041.42480	0.48538
1039.49624	0.48456
1037.56768	0.48404
1035.63911	0.48363
1033.71055	0.48322
1031.78198	0.48278
1029.85342	0.48243
1027.92485	0.48211
1025.99629	0.48162
1024.06772	0.48115
1022.13916	0.48108
1020.21060	0.48160
1018.28203	0.48251
1016.35347	0.48332
1014.42490	0.48385
1012.49634	0.48436
1010.56777	0.48521
1008.63921	0.48630
1006.71064	0.48756
1004.78208	0.48918
1002.85352	0.49115
1000.92495	0.49358
998.99639	0.49682
997.06782	0.50079
995.13926	0.50508
993.21069	0.50920
991.28213	0.51262
989.35356	0.51498
987.42500	0.51633
985.49644	0.51709
983.56787	0.51781
981.63931	0.51872
979.71074	0.51998
977.78218	0.52175
975.85361	0.52389
973.92505	0.52640
971.99648	0.52945
970.06792	0.53298
968.13936	0.53694
966.21079	0.54116
964.28223	0.54539
962.35366	0.54989
960.42510	0.55484
958.49653	0.56009
956.56797	0.56565
954.63940	0.57180
952.71084	0.57840
950.78228	0.58476
948.85371	0.59066
946.92515	0.59666
944.99658	0.60302
943.06802	0.60942
941.13945	0.61571
939.21089	0.62222
937.28232	0.62894
935.35376	0.63510
933.42520	0.64046
931.49663	0.64564
929.56807	0.65117
927.63950	0.65740
925.71094	0.66412
923.78237	0.67052
921.85381	0.67658
919.92524	0.68350
917.99668	0.69095
916.06812	0.69813
914.13955	0.70590
912.21099	0.71405
910.28242	0.72204
908.35386	0.73032
906.42529	0.73848
904.49673	0.74640
902.56816	0.75539
900.63960	0.76589
898.71104	0.77656
896.78247	0.78680
894.85391	0.79686
892.92534	0.80655
890.99678	0.81696
889.06821	0.82900
887.13965	0.84075
885.21108	0.85076
883.28252	0.86034
881.35396	0.87145
879.42539	0.88455
877.49683	0.89773
875.56826	0.90890
873.63970	0.91863
871.71113	0.92991
869.78257	0.94320
867.85400	0.95649
865.92544	0.96942
863.99687	0.98130
862.06831	0.99242
860.13975	1.00434
858.21118	1.01596
856.28262	1.02575
854.35405	1.03464
852.42549	1.04437
850.49692	1.05624
848.56836	1.06997
846.63979	1.08420
844.71123	1.09787
842.78267	1.10884
840.85410	1.11759
838.92554	1.12887
836.99697	1.14381
835.06841	1.15879
833.13984	1.17343
831.21128	1.18648
829.28271	1.19372
827.35415	1.20042
825.42559	1.20889
823.49702	1.21410
821.56846	1.22240
819.63989	1.23397
817.71133	1.24370
815.78276	1.26486
813.85420	1.29350
811.92563	1.31082
809.99707	1.32646
808.06851	1.34038
806.13994	1.33877
804.21138	1.33845
802.28281	1.35896
800.35425	1.38964
798.42568	1.42738
796.49712	1.47711
794.56855	1.50925
792.63999	1.51956
790.71143	1.56311
788.78286	1.68891
786.85430	1.77446
784.92573	1.67943
782.99717	1.58848
781.06860	1.54174
779.14004	1.51891
777.21147	1.52676
775.28291	1.58310
773.35435	1.65869
771.42578	1.58514
769.49722	1.46335
767.56865	1.48208
765.64009	1.64051
763.71152	1.72485
761.78296	1.79086
759.85439	2.61556
757.92583	4.54755
755.99727	1.89637
754.06870	1.53483
752.14014	1.36136
750.21157	1.28767
748.28301	1.43889
746.35444	2.18846
744.42588	1.88575
742.49731	1.39158
740.56875	1.11976
738.64019	0.88961
736.71162	0.79204
734.78306	0.86487
732.85449	0.98037
730.92593	0.97786
728.99736	0.91820
727.06880	0.70932
725.14023	0.46891
723.21167	0.29372
721.28311	-0.05738
719.35454	4.31613
717.42598	4.30456
715.49741	-0.02038
713.56885	0.21444
711.64028	0.35240
709.71172	0.36979
707.78315	0.22856
705.85459	0.10287
703.92603	0.13781
701.99746	0.27504
700.06890	0.36117
698.14033	0.38960
696.21177	0.48774
694.28320	0.55795
692.35464	0.50097
690.42607	0.48452
688.49751	0.51271
686.56895	0.47624
684.64038	0.38540
682.71182	0.29498
680.78325	0.27122
678.85469	0.31808
676.92612	0.39127
674.99756	0.47670
673.06899	0.59292
671.14043	0.56813
669.21187	0.38702
667.28330	0.29074
665.35474	0.29417
663.42617	0.32087
661.49761	0.34428
659.56904	0.45283
657.64048	0.77028
655.71191	1.76805
653.78335	1.32993
651.85479	0.89800
649.92622	0.59374
647.99766	0.42798
646.06909	0.35817
644.14053	0.33270
642.21196	0.30900
640.28340	0.27220
638.35483	0.24785
636.42627	0.25646
634.49771	0.30353
632.56914	0.42093
630.64058	0.65700
628.71201	0.65813
626.78345	0.39260
624.85488	0.29866
622.92632	0.35184
620.99775	0.40819
619.06919	0.44698
617.14062	0.54752
615.21206	0.66288
613.28350	0.53869
611.35493	0.39660
609.42637	0.34073
607.49780	0.30784
605.56924	0.28384
603.64067	0.32865
601.71211	0.40789
599.78354	0.37254
597.85498	0.32192
595.92642	0.38746
593.99785	0.47564
592.06929	0.44073
590.14072	0.43328
588.21216	0.52434
586.28359	0.57703
584.35503	0.56067
582.42646	0.57316
580.49790	0.58883
578.56934	0.57315
576.64077	0.64250
574.71221	0.76287
572.78364	0.60678
570.85508	0.47398
568.92651	0.42714
566.99795	0.37982
565.06938	0.33967
563.14082	0.31773
561.21226	0.28131
559.28369	0.22848
557.35513	0.21848
555.42656	0.23494
553.49800	0.21894
551.56943	0.22693
549.64087	0.27422
547.71230	0.27815
545.78374	0.23269
543.85518	0.21483
541.92661	0.26874
539.99805	0.33855
538.06948	0.30006
536.14092	0.23664
534.21235	0.25635
532.28379	0.29489
530.35522	0.27171
528.42666	0.26400
526.49810	0.29240
524.56953	0.27796
522.64097	0.22562
520.71240	0.20925
518.78384	0.26781
516.85527	0.37030
514.92671	0.37288
512.99814	0.34958
511.06958	0.36257
509.14102	0.32510
507.21245	0.23578
505.28389	0.18028
503.35532	0.17254
501.42676	0.22409
499.49819	0.32270
