3997.91411	0.06088
3995.98555	0.06081
3994.05698	0.06127
3992.12842	0.06190
3990.19985	0.06253
3988.27129	0.06329
3986.34272	0.06365
3984.41416	0.06377
3982.48560	0.06408
3980.55703	0.06406
3978.62847	0.06375
3976.69990	0.06387
3974.77134	0.06464
3972.84277	0.06556
3970.91421	0.06569
3968.98564	0.06509
3967.05708	0.06507
3965.12852	0.06576
3963.19995	0.06619
3961.27139	0.06623
3959.34282	0.06628
3957.41426	0.06623
3955.48569	0.06605
3953.55713	0.06626
3951.62856	0.06689
3949.70000	0.06757
3947.77144	0.06788
3945.84287	0.06734
3943.91431	0.06674
3941.98574	0.06689
3940.05718	0.06699
3938.12861	0.06657
3936.20005	0.06607
3934.27148	0.06611
3932.34292	0.06676
3930.41436	0.06709
3928.48579	0.06680
3926.55723	0.06658
3924.62866	0.06666
3922.70010	0.06657
3920.77153	0.06619
3918.84297	0.06606
3916.91440	0.06622
3914.98584	0.06604
3913.05728	0.06537
3911.12871	0.06479
3909.20015	0.06485
3907.27158	0.06543
3905.34302	0.06629
3903.41445	0.06748
3901.48589	0.06820
3899.55732	0.06802
3897.62876	0.06766
3895.70020	0.06708
3893.77163	0.06653
3891.84307	0.06660
3889.91450	0.06658
3887.98594	0.06603
3886.05737	0.06628
3884.12881	0.06727
3882.20024	0.06771
3880.27168	0.06803
3878.34312	0.06774
3876.41455	0.06698
3874.48599	0.06770
3872.55742	0.06936
3870.62886	0.07027
3868.70029	0.07054
3866.77173	0.07018
3864.84316	0.07021
3862.91460	0.07107
3860.98604	0.07097
3859.05747	0.07002
3857.12891	0.06996
3855.20034	0.07132
3853.27178	0.07405
3851.34321	0.07614
3849.41465	0.07509
3847.48608	0.07340
3845.55752	0.07299
3843.62896	0.07420
3841.70039	0.07587
3839.77183	0.07721
3837.84326	0.07838
3835.91470	0.07853
3833.98613	0.07803
3832.05757	0.07800
3830.12900	0.07826
3828.20044	0.07866
3826.27187	0.07947
3824.34331	0.08029
3822.41475	0.08142
3820.48618	0.08400
3818.55762	0.08588
3816.62905	0.08589
3814.70049	0.08562
3812.77192	0.08522
3810.84336	0.08510
3808.91479	0.08577
3806.98623	0.08749
3805.05767	0.08968
3803.12910	0.09173
3801.20054	0.09396
3799.27197	0.09487
3797.34341	0.09463
3795.41484	0.09508
3793.48628	0.09544
3791.55771	0.09562
3789.62915	0.09646
3787.70059	0.09777
3785.77202	0.09939
3783.84346	0.10121
3781.91489	0.10287
3779.98633	0.10478
3778.05776	0.10698
3776.12920	0.10846
3774.20063	0.10942
3772.27207	0.11073
3770.34351	0.11297
3768.41494	0.11597
3766.48638	0.11858
3764.55781	0.12047
3762.62925	0.12177
3760.70068	0.12344
3758.77212	0.12622
3756.84355	0.12902
3754.91499	0.13105
3752.98643	0.13334
3751.05786	0.13711
3749.12930	0.14182
3747.20073	0.14457
3745.27217	0.14654
3743.34360	0.15023
3741.41504	0.15383
3739.48647	0.15639
3737.55791	0.15998
3735.62935	0.16554
3733.70078	0.17189
3731.77222	0.17651
3729.84365	0.17943
3727.91509	0.18229
3725.98652	0.18703
3724.05796	0.19412
3722.12939	0.20189
3720.20083	0.20897
3718.27227	0.21502
3716.34370	0.22093
3714.41514	0.22787
3712.48657	0.23739
3710.55801	0.25096
3708.62944	0.26530
3706.70088	0.27660
3704.77231	0.28681
3702.84375	0.29889
3700.91519	0.31534
3698.98662	0.33386
3697.05806	0.35119
3695.12949	0.36923
3693.20093	0.38873
3691.27236	0.41031
3689.34380	0.43788
3687.41523	0.47131
3685.48667	0.50075
3683.55811	0.52613
3681.62954	0.55362
3679.70098	0.58548
3677.77241	0.61934
3675.84385	0.65834
3673.91528	0.70964
3671.98672	0.75212
3670.05815	0.79044
3668.12959	0.84230
3666.20103	0.88958
3664.27246	0.92973
3662.34390	0.97284
3660.41533	1.01896
3658.48677	1.06436
3656.55820	1.11273
3654.62964	1.16672
3652.70107	1.21275
3650.77251	1.25321
3648.84395	1.30836
3646.91538	1.37569
3644.98682	1.42492
3643.05825	1.46245
3641.12969	1.50093
3639.20112	1.54364
3637.27256	1.58738
3635.34399	1.63044
3633.41543	1.67340
3631.48687	1.71368
3629.55830	1.75446
3627.62974	1.80713
3625.70117	1.85659
3623.77261	1.89126
3621.84404	1.92471
3619.91548	1.96224
3617.98691	2.00666
3616.05835	2.04843
3614.12979	2.08350
3612.20122	2.12215
3610.27266	2.16141
3608.34409	2.20008
3606.41553	2.24196
3604.48696	2.28183
3602.55840	2.31722
3600.62983	2.35521
3598.70127	2.39685
3596.77271	2.43739
3594.84414	2.47811
3592.91558	2.52036
3590.98701	2.55972
3589.05845	2.59496
3587.12988	2.63615
3585.20132	2.68329
3583.27275	2.72447
3581.34419	2.76159
3579.41562	2.80202
3577.48706	2.84637
3575.55850	2.88977
3573.62993	2.93204
3571.70137	2.97326
3569.77280	3.01241
3567.84424	3.05277
3565.91567	3.10370
3563.98711	3.15581
3562.05854	3.19732
3560.12998	3.23684
3558.20142	3.28009
3556.27285	3.32675
3554.34429	3.37319
3552.41572	3.41896
3550.48716	3.46503
3548.55859	3.51100
3546.63003	3.55572
3544.70146	3.60085
3542.77290	3.64769
3540.84434	3.69469
3538.91577	3.74167
3536.98721	3.78802
3535.05864	3.83477
3533.13008	3.88241
3531.20151	3.93162
3529.27295	3.98154
3527.34438	4.03122
3525.41582	4.07953
3523.48726	4.12662
3521.55869	4.17542
3519.63013	4.22285
3517.70156	4.26722
3515.77300	4.31061
3513.84443	4.35553
3511.91587	4.40511
3509.98730	4.45796
3508.05874	4.50681
3506.13018	4.55041
3504.20161	4.59498
3502.27305	4.64454
3500.34448	4.69614
3498.41592	4.74187
3496.48735	4.78630
3494.55879	4.84007
3492.63022	4.89791
3490.70166	4.94933
3488.77310	4.99558
3486.84453	5.03945
3484.91597	5.08240
3482.98740	5.13095
3481.05884	5.18413
3479.13027	5.23231
3477.20171	5.27726
3475.27314	5.32274
3473.34458	5.37075
3471.41602	5.42500
3469.48745	5.47538
3467.55889	5.51574
3465.63032	5.55773
3463.70176	5.60985
3461.77319	5.66954
3459.84463	5.72691
3457.91606	5.76880
3455.98750	5.80751
3454.05894	5.85787
3452.13037	5.91098
3450.20181	5.97004
3448.27324	6.03279
3446.34468	6.07418
3444.41611	6.09347
3442.48755	6.12632
3440.55898	6.18377
3438.63042	6.24995
3436.70186	6.30680
3434.77329	6.33922
3432.84473	6.35838
3430.91616	6.39213
3428.98760	6.45164
3427.05903	6.53225
3425.13047	6.62069
3423.20190	6.67831
3421.27334	6.71766
3419.34478	6.77847
3417.41621	6.82279
3415.48765	6.82091
3413.55908	6.81933
3411.63052	6.86072
3409.70195	6.92237
3407.77339	6.97426
3405.84482	7.01226
3403.91626	7.04015
3401.98770	7.06363
3400.05913	7.10429
3398.13057	7.15874
3396.20200	7.19824
3394.27344	7.24838
3392.34487	7.32351
3390.41631	7.39600
3388.48774	7.44685
3386.55918	7.45448
3384.63062	7.40314
3382.70205	7.38307
3380.77349	7.44932
3378.84492	7.50563
3376.91636	7.50417
3374.98779	7.51652
3373.05923	7.57834
3371.13066	7.62381
3369.20210	7.61574
3367.27354	7.60399
3365.34497	7.65524
3363.41641	7.74514
3361.48784	7.77890
3359.55928	7.76146
3357.63071	7.79336
3355.70215	7.87238
3353.77358	7.86742
3351.84502	7.81573
3349.91646	7.80623
3347.98789	7.85708
3346.05933	7.96001
3344.13076	8.04785
3342.20220	8.05169
3340.27363	7.96242
3338.34507	7.87761
3336.41650	7.84923
3334.48794	7.90337
3332.55937	8.04242
3330.63081	8.12657
3328.70225	8.03876
3326.77368	7.91263
3324.84512	7.90141
3322.91655	7.98905
3320.98799	8.04037
3319.05942	8.00839
3317.13086	7.98961
3315.20229	7.95602
3313.27373	7.92160
3311.34517	7.95241
3309.41660	7.97901
3307.48804	7.95987
3305.55947	7.96881
3303.63091	8.06823
3301.70234	8.17251
3299.77378	8.17659
3297.84521	8.12552
3295.91665	8.11665
3293.98809	8.13844
3292.05952	8.13037
3290.13096	8.10340
3288.20239	8.09146
3286.27383	8.11533
3284.34526	8.16897
3282.41670	8.18944
3280.48813	8.12474
3278.55957	8.09749
3276.63101	8.15326
3274.70244	8.17307
3272.77388	8.09824
3270.84531	8.00347
3268.91675	8.00316
3266.98818	8.08247
3265.05962	8.12183
3263.13105	8.06567
3261.20249	7.97939
3259.27393	7.92864
3257.34536	7.96646
3255.41680	8.10384
3253.48823	8.23181
3251.55967	8.22303
3249.63110	8.09777
3247.70254	7.97573
3245.77397	7.92391
3243.84541	7.91757
3241.91685	7.90519
3239.98828	7.96430
3238.05972	8.11741
3236.13115	8.19049
3234.20259	8.16305
3232.27402	8.12517
3230.34546	8.03906
3228.41689	7.93683
3226.48833	7.92513
3224.55977	7.95733
3222.63120	7.95113
3220.70264	7.93390
3218.77407	7.91684
3216.84551	7.89663
3214.91694	7.85606
3212.98838	7.82845
3211.05981	7.88614
3209.13125	7.95195
3207.20269	7.91504
3205.27412	7.84211
3203.34556	7.79772
3201.41699	7.73470
3199.48843	7.65109
3197.55986	7.61639
3195.63130	7.62306
3193.70273	7.60782
3191.77417	7.55464
3189.84561	7.46959
3187.91704	7.36806
3185.98848	7.28036
3184.05991	7.24152
3182.13135	7.26787
3180.20278	7.31236
3178.27422	7.33214
3176.34565	7.34107
3174.41709	7.31488
3172.48853	7.22835
3170.55996	7.11476
3168.63140	7.01679
3166.70283	6.95536
3164.77427	6.92276
3162.84570	6.89019
3160.91714	6.83054
3158.98857	6.74958
3157.06001	6.65776
3155.13145	6.55082
3153.20288	6.44720
3151.27432	6.39114
3149.34575	6.37381
3147.41719	6.33556
3145.48862	6.28071
3143.56006	6.23069
3141.63149	6.15947
3139.70293	6.06639
3137.77437	5.98019
3135.84580	5.90689
3133.91724	5.83529
3131.98867	5.76363
3130.06011	5.69169
3128.13154	5.61817
3126.20298	5.54901
3124.27441	5.47782
3122.34585	5.40085
3120.41729	5.32984
3118.48872	5.26297
3116.56016	5.19572
3114.63159	5.13073
3112.70303	5.06756
3110.77446	5.00071
3108.84590	4.92737
3106.91733	4.85522
3104.98877	4.78430
3103.06021	4.70938
3101.13164	4.63375
3099.20308	4.56078
3097.27451	4.49124
3095.34595	4.42693
3093.41738	4.36511
3091.48882	4.29729
3089.56025	4.22316
3087.63169	4.15342
3085.70312	4.09180
3083.77456	4.02971
3081.84600	3.96518
3079.91743	3.90427
3077.98887	3.84549
3076.06030	3.78383
3074.13174	3.72106
3072.20317	3.66053
3070.27461	3.60143
3068.34604	3.54186
3066.41748	3.48261
3064.48892	3.42566
3062.56035	3.36988
3060.63179	3.31417
3058.70322	3.25932
3056.77466	3.20526
3054.84609	3.15097
3052.91753	3.09546
3050.98896	3.03989
3049.06040	2.98659
3047.13184	2.93614
3045.20327	2.88647
3043.27471	2.83608
3041.34614	2.78597
3039.41758	2.73780
3037.48901	2.69175
3035.56045	2.64518
3033.63188	2.59724
3031.70332	2.55054
3029.77476	2.50558
3027.84619	2.46120
3025.91763	2.41785
3023.98906	2.37601
3022.06050	2.33496
3020.13193	2.29408
3018.20337	2.25361
3016.27480	2.21348
3014.34624	2.17325
3012.41768	2.13356
3010.48911	2.09506
3008.56055	2.05743
3006.63198	2.02040
3004.70342	1.98338
3002.77485	1.94619
3000.84629	1.91019
2998.91772	1.87624
2996.98916	1.84349
2995.06060	1.81087
2993.13203	1.77821
2991.20347	1.74565
2989.27490	1.71339
2987.34634	1.68171
2985.41777	1.65062
2983.48921	1.62010
2981.56064	1.59045
2979.63208	1.56128
2977.70352	1.53218
2975.77495	1.50333
2973.84639	1.47459
2971.91782	1.44633
2969.98926	1.41927
2968.06069	1.39320
2966.13213	1.36728
2964.20356	1.34155
2962.27500	1.31662
2960.34644	1.29212
2958.41787	1.26772
2956.48931	1.24392
2954.56074	1.22090
2952.63218	1.19840
2950.70361	1.17615
2948.77505	1.15400
2946.84648	1.13237
2944.91792	1.11156
2942.98936	1.09089
2941.06079	1.07045
2939.13223	1.05107
2937.20366	1.03183
2935.27510	1.01171
2933.34653	0.99192
2931.41797	0.97332
2929.48940	0.95539
2927.56084	0.93802
2925.63228	0.92130
2923.70371	0.90506
2921.77515	0.88910
2919.84658	0.87332
2917.91802	0.85779
2915.98945	0.84207
2914.06089	0.82638
2912.13232	0.81150
2910.20376	0.79689
2908.27520	0.78220
2906.34663	0.76813
2904.41807	0.75461
2902.48950	0.74111
2900.56094	0.72782
2898.63237	0.71520
2896.70381	0.70317
2894.77524	0.69123
2892.84668	0.67933
2890.91812	0.66755
2888.98955	0.65589
2887.06099	0.64454
2885.13242	0.63365
2883.20386	0.62281
2881.27529	0.61187
2879.34673	0.60129
2877.41816	0.59099
2875.48960	0.58075
2873.56104	0.57070
2871.63247	0.56078
2869.70391	0.55089
2867.77534	0.54127
2865.84678	0.53183
2863.91821	0.52227
2861.98965	0.51297
2860.06108	0.50409
2858.13252	0.49521
2856.20396	0.48635
2854.27539	0.47799
2852.34683	0.47027
2850.41826	0.46274
2848.48970	0.45491
2846.56113	0.44700
2844.63257	0.43967
2842.70400	0.43322
2840.77544	0.42725
2838.84687	0.42130
2836.91831	0.41541
2834.98975	0.40940
2833.06118	0.40312
2831.13262	0.39688
2829.20405	0.39089
2827.27549	0.38515
2825.34692	0.37948
2823.41836	0.37370
2821.48979	0.36797
2819.56123	0.36248
2817.63267	0.35715
2815.70410	0.35188
2813.77554	0.34655
2811.84697	0.34119
2809.91841	0.33588
2807.98984	0.33077
2806.06128	0.32595
2804.13271	0.32118
2802.20415	0.31628
2800.27559	0.31151
2798.34702	0.30710
2796.41846	0.30279
2794.48989	0.29841
2792.56133	0.29414
2790.63276	0.29004
2788.70420	0.28614
2786.77563	0.28240
2784.84707	0.27864
2782.91851	0.27478
2780.98994	0.27083
2779.06138	0.26700
2777.13281	0.26337
2775.20425	0.25980
2773.27568	0.25627
2771.34712	0.25288
2769.41855	0.24964
2767.48999	0.24646
2765.56143	0.24333
2763.63286	0.24021
2761.70430	0.23716
2759.77573	0.23427
2757.84717	0.23143
2755.91860	0.22862
2753.99004	0.22589
2752.06147	0.22315
2750.13291	0.22050
2748.20435	0.21803
2746.27578	0.21553
2744.34722	0.21285
2742.41865	0.21017
2740.49009	0.20773
2738.56152	0.20551
2736.63296	0.20329
2734.70439	0.20105
2732.77583	0.19887
2730.84727	0.19678
2728.91870	0.19476
2726.99014	0.19286
2725.06157	0.19090
2723.13301	0.18881
2721.20444	0.18682
2719.27588	0.18495
2717.34731	0.18312
2715.41875	0.18149
2713.49019	0.18014
2711.56162	0.17877
2709.63306	0.17707
2707.70449	0.17525
2705.77593	0.17373
2703.84736	0.17251
2701.91880	0.17119
2699.99023	0.16962
2698.06167	0.16806
2696.13311	0.16669
2694.20454	0.16537
2692.27598	0.16406
2690.34741	0.16290
2688.41885	0.16180
2686.49028	0.16053
2684.56172	0.15929
2682.63315	0.15836
2680.70459	0.15750
2678.77603	0.15639
2676.84746	0.15514
2674.91890	0.15408
2672.99033	0.15321
2671.06177	0.15234
2669.13320	0.15146
2667.20464	0.15051
2665.27607	0.14959
2663.34751	0.14876
2661.41895	0.14794
2659.49038	0.14723
2657.56182	0.14666
2655.63325	0.14599
2653.70469	0.14519
2651.77612	0.14455
2649.84756	0.14415
2647.91899	0.14377
2645.99043	0.14331
2644.06187	0.14279
2642.13330	0.14222
2640.20474	0.14184
2638.27617	0.14166
2636.34761	0.14144
2634.41904	0.14114
2632.49048	0.14081
2630.56191	0.14045
2628.63335	0.14007
2626.70479	0.13963
2624.77622	0.13917
2622.84766	0.13886
2620.91909	0.13875
2618.99053	0.13871
2617.06196	0.13870
2615.13340	0.13866
2613.20483	0.13861
2611.27627	0.13866
2609.34771	0.13870
2607.41914	0.13866
2605.49058	0.13855
2603.56201	0.13847
2601.63345	0.13857
2599.70488	0.13876
2597.77632	0.13892
2595.84775	0.13902
2593.91919	0.13899
2591.99062	0.13900
2590.06206	0.13922
2588.13350	0.13954
2586.20493	0.13986
2584.27637	0.14027
2582.34780	0.14071
2580.41924	0.14101
2578.49067	0.14121
2576.56211	0.14154
2574.63354	0.14199
2572.70498	0.14238
2570.77642	0.14280
2568.84785	0.14338
2566.91929	0.14397
2564.99072	0.14452
2563.06216	0.14510
2561.13359	0.14562
2559.20503	0.14595
2557.27646	0.14628
2555.34790	0.14689
2553.41934	0.14768
2551.49077	0.14836
2549.56221	0.14905
2547.63364	0.14985
2545.70508	0.15043
2543.77651	0.15084
2541.84795	0.15154
2539.91938	0.15243
2537.99082	0.15315
2536.06226	0.15381
2534.13369	0.15453
2532.20513	0.15528
2530.27656	0.15605
2528.34800	0.15685
2526.41943	0.15760
2524.49087	0.15837
2522.56230	0.15931
2520.63374	0.16032
2518.70518	0.16118
2516.77661	0.16187
2514.84805	0.16258
2512.91948	0.16342
2510.99092	0.16431
2509.06235	0.16518
2507.13379	0.16607
2505.20522	0.16697
2503.27666	0.16787
2501.34810	0.16879
2499.41953	0.16962
2497.49097	0.17031
2495.56240	0.17115
2493.63384	0.17225
2491.70527	0.17336
2489.77671	0.17432
2487.84814	0.17516
2485.91958	0.17609
2483.99102	0.17714
2482.06245	0.17808
2480.13389	0.17893
2478.20532	0.17981
2476.27676	0.18079
2474.34819	0.18177
2472.41963	0.18272
2470.49106	0.18377
2468.56250	0.18486
2466.63394	0.18588
2464.70537	0.18691
2462.77681	0.18798
2460.84824	0.18894
2458.91968	0.18987
2456.99111	0.19095
2455.06255	0.19196
2453.13398	0.19280
2451.20542	0.19375
2449.27686	0.19479
2447.34829	0.19585
2445.41973	0.19701
2443.49116	0.19819
2441.56260	0.19930
2439.63403	0.20039
2437.70547	0.20146
2435.77690	0.20241
2433.84834	0.20332
2431.91978	0.20425
2429.99121	0.20528
2428.06265	0.20647
2426.13408	0.20777
2424.20552	0.20903
2422.27695	0.21013
2420.34839	0.21112
2418.41982	0.21219
2416.49126	0.21343
2414.56270	0.21473
2412.63413	0.21601
2410.70557	0.21725
2408.77700	0.21841
2406.84844	0.21955
2404.91987	0.22074
2402.99131	0.22188
2401.06274	0.22293
2399.13418	0.22407
2397.20562	0.22538
2395.27705	0.22678
2393.34849	0.22816
2391.41992	0.22939
2389.49136	0.23058
2387.56279	0.23204
2385.63423	0.23388
2383.70566	0.23602
2381.77710	0.23841
2379.84854	0.24110
2377.91997	0.24421
2375.99141	0.24769
2374.06284	0.25144
2372.13428	0.25559
2370.20571	0.26038
2368.27715	0.26524
2366.34858	0.26929
2364.42002	0.27289
2362.49146	0.27605
2360.56289	0.27779
2358.63433	0.27892
2356.70576	0.27976
2354.77720	0.27916
2352.84863	0.27762
2350.92007	0.27604
2348.99150	0.27530
2347.06294	0.27619
2345.13437	0.27930
2343.20581	0.28396
2341.27725	0.28758
2339.34868	0.28925
2337.42012	0.29003
2335.49155	0.29119
2333.56299	0.29250
2331.63442	0.29322
2329.70586	0.29391
2327.77729	0.29512
2325.84873	0.29619
2323.92017	0.29673
2321.99160	0.29708
2320.06304	0.29756
2318.13447	0.29814
2316.20591	0.29878
2314.27734	0.29958
2312.34878	0.30053
2310.42021	0.30162
2308.49165	0.30281
2306.56309	0.30399
2304.63452	0.30512
2302.70596	0.30631
2300.77739	0.30760
2298.84883	0.30890
2296.92026	0.31033
2294.99170	0.31197
2293.06313	0.31358
2291.13457	0.31494
2289.20601	0.31636
2287.27744	0.31815
2285.34888	0.32004
2283.42031	0.32166
2281.49175	0.32330
2279.56318	0.32535
2277.63462	0.32771
2275.70605	0.32999
2273.77749	0.33205
2271.84893	0.33409
2269.92036	0.33613
2267.99180	0.33821
2266.06323	0.34040
2264.13467	0.34266
2262.20610	0.34494
2260.27754	0.34712
2258.34897	0.34918
2256.42041	0.35119
2254.49185	0.35313
2252.56328	0.35521
2250.63472	0.35756
2248.70615	0.35979
2246.77759	0.36183
2244.84902	0.36395
2242.92046	0.36610
2240.99189	0.36826
2239.06333	0.37049
2237.13477	0.37278
2235.20620	0.37506
2233.27764	0.37723
2231.34907	0.37935
2229.42051	0.38158
2227.49194	0.38391
2225.56338	0.38619
2223.63481	0.38828
2221.70625	0.39043
2219.77769	0.39279
2217.84912	0.39515
2215.92056	0.39736
2213.99199	0.39951
2212.06343	0.40164
2210.13486	0.40373
2208.20630	0.40579
2206.27773	0.40793
2204.34917	0.41006
2202.42061	0.41213
2200.49204	0.41419
2198.56348	0.41620
2196.63491	0.41823
2194.70635	0.42038
2192.77778	0.42239
2190.84922	0.42415
2188.92065	0.42588
2186.99209	0.42771
2185.06353	0.42954
2183.13496	0.43130
2181.20640	0.43307
2179.27783	0.43477
2177.34927	0.43633
2175.42070	0.43783
2173.49214	0.43931
2171.56357	0.44069
2169.63501	0.44201
2167.70645	0.44336
2165.77788	0.44466
2163.84932	0.44586
2161.92075	0.44702
2159.99219	0.44817
2158.06362	0.44924
2156.13506	0.45014
2154.20649	0.45094
2152.27793	0.45176
2150.34937	0.45262
2148.42080	0.45336
2146.49224	0.45384
2144.56367	0.45420
2142.63511	0.45462
2140.70654	0.45500
2138.77798	0.45525
2136.84941	0.45545
2134.92085	0.45557
2132.99229	0.45553
2131.06372	0.45536
2129.13516	0.45505
2127.20659	0.45467
2125.27803	0.45435
2123.34946	0.45401
2121.42090	0.45358
2119.49233	0.45307
2117.56377	0.45240
2115.63521	0.45155
2113.70664	0.45062
2111.77808	0.44969
2109.84951	0.44874
2107.92095	0.44774
2105.99238	0.44666
2104.06382	0.44549
2102.13525	0.44421
2100.20669	0.44286
2098.27812	0.44140
2096.34956	0.43987
2094.42100	0.43833
2092.49243	0.43675
2090.56387	0.43505
2088.63530	0.43330
2086.70674	0.43158
2084.77817	0.42983
2082.84961	0.42788
2080.92104	0.42573
2078.99248	0.42364
2077.06392	0.42160
2075.13535	0.41945
2073.20679	0.41724
2071.27822	0.41502
2069.34966	0.41268
2067.42109	0.41027
2065.49253	0.40792
2063.56396	0.40561
2061.63540	0.40320
2059.70684	0.40058
2057.77827	0.39793
2055.84971	0.39540
2053.92114	0.39292
2051.99258	0.39042
2050.06401	0.38781
2048.13545	0.38503
2046.20688	0.38222
2044.27832	0.37956
2042.34976	0.37702
2040.42119	0.37446
2038.49263	0.37176
2036.56406	0.36896
2034.63550	0.36607
2032.70693	0.36321
2030.77837	0.36044
2028.84980	0.35767
2026.92124	0.35494
2024.99268	0.35217
2023.06411	0.34929
2021.13555	0.34652
2019.20698	0.34384
2017.27842	0.34110
2015.34985	0.33832
2013.42129	0.33563
2011.49272	0.33290
2009.56416	0.33012
2007.63560	0.32734
2005.70703	0.32455
2003.77847	0.32186
2001.84990	0.31934
1999.92134	0.31687
1997.99277	0.31429
1996.06421	0.31168
1994.13564	0.30914
1992.20708	0.30662
1990.27852	0.30397
1988.34995	0.30141
1986.42139	0.29903
1984.49282	0.29670
1982.56426	0.29431
1980.63569	0.29191
1978.70713	0.28956
1976.77856	0.28728
1974.85000	0.28500
1972.92144	0.28275
1970.99287	0.28075
1969.06431	0.27895
1967.13574	0.27705
1965.20718	0.27488
1963.27861	0.27275
1961.35005	0.27087
1959.42148	0.26905
1957.49292	0.26727
1955.56436	0.26550
1953.63579	0.26368
1951.70723	0.26189
1949.77866	0.26023
1947.85010	0.25874
1945.92153	0.25742
1943.99297	0.25615
1942.06440	0.25474
1940.13584	0.25312
1938.20728	0.25151
1936.27871	0.25008
1934.35015	0.24878
1932.42158	0.24750
1930.49302	0.24629
1928.56445	0.24522
1926.63589	0.24428
1924.70732	0.24351
1922.77876	0.24270
1920.85020	0.24170
1918.92163	0.24085
1916.99307	0.24003
1915.06450	0.23895
1913.13594	0.23788
1911.20737	0.23719
1909.27881	0.23667
1907.35024	0.23595
1905.42168	0.23514
1903.49312	0.23451
1901.56455	0.23400
1899.63599	0.23351
1897.70742	0.23311
1895.77886	0.23283
1893.85029	0.23256
1891.92173	0.23226
1889.99316	0.23212
1888.06460	0.23189
1886.13604	0.23140
1884.20747	0.23099
1882.27891	0.23080
1880.35034	0.23073
1878.42178	0.23066
1876.49321	0.23059
1874.56465	0.23053
1872.63608	0.23073
1870.70752	0.23131
1868.77896	0.23213
1866.85039	0.23240
1864.92183	0.23210
1862.99326	0.23197
1861.06470	0.23214
1859.13613	0.23251
1857.20757	0.23286
1855.27900	0.23330
1853.35044	0.23385
1851.42187	0.23454
1849.49331	0.23526
1847.56475	0.23605
1845.63618	0.23704
1843.70762	0.23811
1841.77905	0.23874
1839.85049	0.23902
1837.92192	0.23971
1835.99336	0.24069
1834.06479	0.24169
1832.13623	0.24276
1830.20767	0.24430
1828.27910	0.24583
1826.35054	0.24680
1824.42197	0.24797
1822.49341	0.24916
1820.56484	0.25024
1818.63628	0.25155
1816.70771	0.25326
1814.77915	0.25501
1812.85059	0.25683
1810.92202	0.25886
1808.99346	0.26084
1807.06489	0.26273
1805.13633	0.26471
1803.20776	0.26709
1801.27920	0.26980
1799.35063	0.27270
1797.42207	0.27532
1795.49351	0.27786
1793.56494	0.28080
1791.63638	0.28447
1789.70781	0.28779
1787.77925	0.29025
1785.85068	0.29335
1783.92212	0.29711
1781.99355	0.30109
1780.06499	0.30532
1778.13643	0.30971
1776.20786	0.31383
1774.27930	0.31831
1772.35073	0.32435
1770.42217	0.33065
1768.49360	0.33582
1766.56504	0.34087
1764.63647	0.34612
1762.70791	0.35198
1760.77935	0.35952
1758.85078	0.36681
1756.92222	0.37423
1754.99365	0.38211
1753.06509	0.38909
1751.13652	0.39756
1749.20796	0.40859
1747.27939	0.41945
1745.35083	0.42872
1743.42227	0.43836
1741.49370	0.44896
1739.56514	0.46145
1737.63657	0.47406
1735.70801	0.48529
1733.77944	0.50209
1731.85088	0.52182
1729.92231	0.53727
1727.99375	0.55311
1726.06519	0.57022
1724.13662	0.58869
1722.20806	0.60847
1720.27949	0.62682
1718.35093	0.64858
1716.42236	0.68083
1714.49380	0.71137
1712.56523	0.73591
1710.63667	0.75964
1708.70811	0.78521
1706.77954	0.81421
1704.85098	0.84861
1702.92241	0.87934
1700.99385	0.90969
1699.06528	0.95452
1697.13672	0.99541
1695.20815	1.03655
1693.27959	1.07589
1691.35103	1.10730
1689.42246	1.14340
1687.49390	1.18106
1685.56533	1.21671
1683.63677	1.27183
1681.70820	1.33002
1679.77964	1.36749
1677.85107	1.40280
1675.92251	1.44325
1673.99395	1.49278
1672.06538	1.53664
1670.13682	1.57916
1668.20825	1.63272
1666.27969	1.67498
1664.35112	1.70990
1662.42256	1.75339
1660.49399	1.80236
1658.56543	1.84026
1656.63687	1.87086
1654.70830	1.89994
1652.77974	1.94890
1650.85117	1.99732
1648.92261	2.01681
1646.99404	2.04358
1645.06548	2.07774
1643.13691	2.10194
1641.20835	2.11682
1639.27979	2.12875
1637.35122	2.13561
1635.42266	2.13626
1633.49409	2.13360
1631.56553	2.12699
1629.63696	2.11584
1627.70840	2.09370
1625.77983	2.06647
1623.85127	2.03131
1621.92271	1.98769
1619.99414	1.94902
1618.06558	1.91105
1616.13701	1.85525
1614.20845	1.79688
1612.27988	1.75277
1610.35132	1.70721
1608.42275	1.65652
1606.49419	1.60526
1604.56562	1.55813
1602.63706	1.51291
1600.70850	1.46839
1598.77993	1.42724
1596.85137	1.38836
1594.92280	1.34984
1592.99424	1.31199
1591.06567	1.27711
1589.13711	1.24421
1587.20854	1.21327
1585.27998	1.18428
1583.35142	1.15629
1581.42285	1.12977
1579.49429	1.10656
1577.56572	1.08521
1575.63716	1.05880
1573.70859	1.03519
1571.78003	1.01902
1569.85146	1.00074
1567.92290	0.97973
1565.99434	0.96317
1564.06577	0.94878
1562.13721	0.93638
1560.20864	0.92515
1558.28008	0.90472
1556.35151	0.88660
1554.42295	0.87610
1552.49438	0.86559
1550.56582	0.85503
1548.63726	0.84425
1546.70869	0.83481
1544.78013	0.82666
1542.85156	0.81879
1540.92300	0.80980
1538.99443	0.79723
1537.06587	0.78824
1535.13730	0.78260
1533.20874	0.77547
1531.28018	0.76727
1529.35161	0.76114
1527.42305	0.75565
1525.49448	0.74972
1523.56592	0.74412
1521.63735	0.73839
1519.70879	0.73188
1517.78022	0.72621
1515.85166	0.72079
1513.92310	0.71571
1511.99453	0.71164
1510.06597	0.70826
1508.13740	0.70527
1506.20884	0.70011
1504.28027	0.69434
1502.35171	0.69055
1500.42314	0.68749
1498.49458	0.68464
1496.56602	0.68139
1494.63745	0.67788
1492.70889	0.67508
1490.78032	0.67296
1488.85176	0.67046
1486.92319	0.66742
1484.99463	0.66453
1483.06606	0.66193
1481.13750	0.65956
1479.20894	0.65740
1477.28037	0.65546
1475.35181	0.65355
1473.42324	0.65153
1471.49468	0.64882
1469.56611	0.64592
1467.63755	0.64361
1465.70898	0.64163
1463.78042	0.63944
1461.85186	0.63733
1459.92329	0.63585
1457.99473	0.63438
1456.06616	0.63139
1454.13760	0.62812
1452.20903	0.62577
1450.28047	0.62365
1448.35190	0.62159
1446.42334	0.61958
1444.49478	0.61764
1442.56621	0.61579
1440.63765	0.61408
1438.70908	0.61273
1436.78052	0.61147
1434.85195	0.60986
1432.92339	0.60823
1430.99482	0.60687
1429.06626	0.60537
1427.13770	0.60366
1425.20913	0.60226
1423.28057	0.60108
1421.35200	0.59982
1419.42344	0.59850
1417.49487	0.59695
1415.56631	0.59522
1413.63774	0.59358
1411.70918	0.59186
1409.78062	0.59009
1407.85205	0.58845
1405.92349	0.58695
1403.99492	0.58544
1402.06636	0.58389
1400.13779	0.58256
1398.20923	0.58139
1396.28066	0.58014
1394.35210	0.57865
1392.42354	0.57708
1390.49497	0.57579
1388.56641	0.57478
1386.63784	0.57361
1384.70928	0.57222
1382.78071	0.57111
1380.85215	0.57036
1378.92358	0.56972
1376.99502	0.56906
1375.06646	0.56837
1373.13789	0.56750
1371.20933	0.56659
1369.28076	0.56590
1367.35220	0.56523
1365.42363	0.56444
1363.49507	0.56362
1361.56650	0.56266
1359.63794	0.56151
1357.70937	0.56045
1355.78081	0.55943
1353.85225	0.55825
1351.92368	0.55710
1349.99512	0.55617
1348.06655	0.55522
1346.13799	0.55419
1344.20942	0.55328
1342.28086	0.55248
1340.35229	0.55172
1338.42373	0.55083
1336.49517	0.54971
1334.56660	0.54854
1332.63804	0.54746
1330.70947	0.54662
1328.78091	0.54596
1326.85234	0.54519
1324.92378	0.54429
1322.99521	0.54346
1321.06665	0.54274
1319.13809	0.54205
1317.20952	0.54129
1315.28096	0.54051
1313.35239	0.53977
1311.42383	0.53892
1309.49526	0.53789
1307.56670	0.53682
1305.63813	0.53585
1303.70957	0.53493
1301.78101	0.53404
1299.85244	0.53329
1297.92388	0.53269
1295.99531	0.53201
1294.06675	0.53123
1292.13818	0.53051
1290.20962	0.52991
1288.28105	0.52939
1286.35249	0.52887
1284.42393	0.52815
1282.49536	0.52735
1280.56680	0.52685
1278.63823	0.52660
1276.70967	0.52624
1274.78110	0.52576
1272.85254	0.52530
1270.92397	0.52480
1268.99541	0.52428
1267.06685	0.52380
1265.13828	0.52338
1263.20972	0.52306
1261.28115	0.52266
1259.35259	0.52216
1257.42402	0.52177
1255.49546	0.52146
1253.56689	0.52112
1251.63833	0.52077
1249.70977	0.52042
1247.78120	0.52012
1245.85264	0.51971
1243.92407	0.51903
1241.99551	0.51837
1240.06694	0.51796
1238.13838	0.51756
1236.20981	0.51699
1234.28125	0.51639
1232.35269	0.51581
1230.42412	0.51517
1228.49556	0.51457
1226.56699	0.51403
1224.63843	0.51342
1222.70986	0.51267
1220.78130	0.51185
1218.85273	0.51113
1216.92417	0.51055
1214.99561	0.51005
1213.06704	0.50941
1211.13848	0.50868
1209.20991	0.50805
1207.28135	0.50748
1205.35278	0.50686
1203.42422	0.50614
1201.49565	0.50539
1199.56709	0.50475
1197.63853	0.50415
1195.70996	0.50351
1193.78140	0.50293
1191.85283	0.50256
1189.92427	0.50226
1187.99570	0.50186
1186.06714	0.50164
1184.13857	0.50152
1182.21001	0.50125
1180.28145	0.50113
1178.35288	0.50147
1176.42432	0.50205
1174.49575	0.50255
1172.56719	0.50308
1170.63862	0.50381
1168.71006	0.50463
1166.78149	0.50548
1164.85293	0.50642
1162.92437	0.50726
1160.99580	0.50774
1159.06724	0.50797
1157.13867	0.50787
1155.21011	0.50728
1153.28154	0.50633
1151.35298	0.50518
1149.42441	0.50370
1147.49585	0.50177
1145.56729	0.49925
1143.63872	0.49636
1141.71016	0.49371
1139.78159	0.49152
1137.85303	0.48965
1135.92446	0.48796
1133.99590	0.48638
1132.06733	0.48518
1130.13877	0.48440
1128.21021	0.48352
1126.28164	0.48258
1124.35308	0.48188
1122.42451	0.48130
1120.49595	0.48087
1118.56738	0.48060
1116.63882	0.48051
1114.71025	0.48072
1112.78169	0.48118
1110.85312	0.48169
1108.92456	0.48220
1106.99600	0.48278
1105.06743	0.48353
1103.13887	0.48453
1101.21030	0.48588
1099.28174	0.48762
1097.35317	0.48965
1095.42461	0.49224
1093.49604	0.49577
1091.56748	0.50032
1089.63892	0.50608
1087.71035	0.51317
1085.78179	0.52101
1083.85322	0.52895
1081.92466	0.53628
1079.99609	0.54202
1078.06753	0.54551
1076.13896	0.54623
1074.21040	0.54379
1072.28184	0.53884
1070.35327	0.53248
1068.42471	0.52559
1066.49614	0.51904
1064.56758	0.51324
1062.63901	0.50787
1060.71045	0.50284
1058.78188	0.49852
1056.85332	0.49495
1054.92476	0.49178
1052.99619	0.48890
1051.06763	0.48674
1049.13906	0.48553
1047.21050	0.48494
1045.28193	0.48466
1043.35337	0.48472
1041.42480	0.48487
1039.49624	0.48486
1037.56768	0.48483
1035.63911	0.48478
1033.71055	0.48452
1031.78198	0.48412
1029.85342	0.48358
1027.92485	0.48267
1025.99629	0.48163
1024.06772	0.48107
1022.13916	0.48089
1020.21060	0.48084
1018.28203	0.48101
1016.35347	0.48140
1014.42490	0.48182
1012.49634	0.48221
1010.56777	0.48278
1008.63921	0.48369
1006.71064	0.48488
1004.78208	0.48629
1002.85352	0.48812
1000.92495	0.49068
998.99639	0.49393
997.06782	0.49769
995.13926	0.50172
993.21069	0.50555
991.28213	0.50863
989.35356	0.51072
987.42500	0.51180
985.49644	0.51223
983.56787	0.51267
981.63931	0.51341
979.71074	0.51451
977.78218	0.51615
975.85361	0.51846
973.92505	0.52125
971.99648	0.52424
970.06792	0.52775
968.13936	0.53195
966.21079	0.53633
964.28223	0.54055
962.35366	0.54493
960.42510	0.54981
958.49653	0.55521
956.56797	0.56108
954.63940	0.56712
952.71084	0.57307
950.78228	0.57908
948.85371	0.58521
946.92515	0.59147
944.99658	0.59782
943.06802	0.60412
941.13945	0.61043
939.21089	0.61629
937.28232	0.62131
935.35376	0.62645
933.42520	0.63232
931.49663	0.63845
929.56807	0.64437
927.63950	0.65004
925.71094	0.65621
923.78237	0.66304
921.85381	0.66947
919.92524	0.67555
917.99668	0.68235
916.06812	0.68972
914.13955	0.69708
912.21099	0.70511
910.28242	0.71362
908.35386	0.72190
906.42529	0.73065
904.49673	0.73972
902.56816	0.74826
900.63960	0.75698
898.71104	0.76632
896.78247	0.77606
894.85391	0.78630
892.92534	0.79596
890.99678	0.80538
889.06821	0.81645
887.13965	0.82762
885.21108	0.83807
883.28252	0.84997
881.35396	0.86259
879.42539	0.87361
877.49683	0.88308
875.56826	0.89337
873.63970	0.90506
871.71113	0.91566
869.78257	0.92615
867.85400	0.93887
865.92544	0.95235
863.99687	0.96451
862.06831	0.97459
860.13975	0.98419
858.21118	0.99606
856.28262	1.00978
854.35405	1.02321
852.42549	1.03397
850.49692	1.04220
848.56836	1.05220
846.63979	1.06519
844.71123	1.07834
842.78267	1.09061
840.85410	1.10182
838.92554	1.11023
836.99697	1.11857
835.06841	1.13013
833.13984	1.14145
831.21128	1.15023
829.28271	1.15820
827.35415	1.16715
825.42559	1.17431
823.49702	1.17822
821.56846	1.18545
819.63989	1.19667
817.71133	1.20323
815.78276	1.20491
813.85420	1.20888
811.92563	1.21812
809.99707	1.23252
808.06851	1.24757
806.13994	1.26393
804.21138	1.28105
802.28281	1.28258
800.35425	1.26368
798.42568	1.25177
796.49712	1.27868
794.56855	1.33078
792.63999	1.34637
790.71143	1.31155
788.78286	1.26120
786.85430	1.21795
784.92573	1.20521
782.99717	1.21464
781.06860	1.21533
779.14004	1.22843
777.21147	1.28380
775.28291	1.32071
773.35435	1.23058
771.42578	1.10149
769.49722	1.06253
767.56865	1.11425
765.64009	1.14860
763.71152	1.13932
761.78296	1.15471
759.85439	1.13748
757.92583	1.04114
755.99727	0.94918
754.06870	0.93218
752.14014	0.99707
750.21157	1.08976
748.28301	1.06269
746.35444	0.92348
744.42588	0.81767
742.49731	0.75348
740.56875	0.70095
738.64019	0.65964
736.71162	0.59265
734.78306	0.46487
732.85449	0.33695
730.92593	0.24290
728.99736	0.16679
727.06880	0.06261
725.14023	-0.09091
723.21167	-0.21825
721.28311	-0.30951
719.35454	-0.33315
717.42598	-0.31414
715.49741	-0.24369
713.56885	-0.17498
711.64028	-0.14076
709.71172	-0.02446
707.78315	0.06856
705.85459	0.09322
703.92603	0.09098
701.99746	0.13150
700.06890	0.16541
698.14033	0.15905
696.21177	0.14623
694.28320	0.13755
692.35464	0.14513
690.42607	0.18620
688.49751	0.26798
686.56895	0.33301
684.64038	0.29638
682.71182	0.17660
680.78325	0.09641
678.85469	0.08474
676.92612	0.10192
674.99756	0.15925
673.06899	0.25353
671.14043	0.33380
669.21187	0.31907
667.28330	0.23997
665.35474	0.19951
663.42617	0.16065
661.49761	0.13132
659.56904	0.17529
657.64048	0.24302
655.71191	0.26735
653.78335	0.22158
651.85479	0.14223
649.92622	0.07749
647.99766	0.05061
646.06909	0.06959
644.14053	0.12698
642.21196	0.19911
640.28340	0.22148
638.35483	0.18599
636.42627	0.15518
634.49771	0.16736
632.56914	0.18652
630.64058	0.22419
628.71201	0.30297
626.78345	0.35444
624.85488	0.35199
622.92632	0.33303
620.99775	0.29336
619.06919	0.23670
617.14062	0.19218
615.21206	0.16981
613.28350	0.13711
611.35493	0.08468
609.42637	0.05175
607.49780	0.03937
605.56924	0.05517
603.64067	0.11470
601.71211	0.17155
599.78354	0.20365
597.85498	0.22796
595.92642	0.19076
593.99785	0.12256
592.06929	0.11326
590.14072	0.15400
588.21216	0.19044
586.28359	0.21230
584.35503	0.23775
582.42646	0.24121
580.49790	0.21820
578.56934	0.22019
576.64077	0.23771
574.71221	0.22773
572.78364	0.19638
570.85508	0.18251
568.92651	0.19391
566.99795	0.22524
565.06938	0.24681
563.14082	0.24421
561.21226	0.22085
559.28369	0.17268
557.35513	0.16967
555.42656	0.24762
553.49800	0.35031
551.56943	0.37463
549.64087	0.32067
547.71230	0.24618
545.78374	0.20304
543.85518	0.22941
541.92661	0.29938
539.99805	0.33161
538.06948	0.29265
536.14092	0.21298
534.21235	0.15211
532.28379	0.12787
530.35522	0.13036
528.42666	0.14874
526.49810	0.16441
524.56953	0.16828
522.64097	0.17950
520.71240	0.19852
518.78384	0.21391
516.85527	0.25369
514.92671	0.31886
512.99814	0.34719
511.06958	0.31728
509.14102	0.27982
507.21245	0.22692
505.28389	0.18161
503.35532	0.19832
501.42676	0.27005
499.49819	0.31587
