3997.91411	0.06741
3995.98555	0.06796
3994.05698	0.06827
3992.12842	0.06850
3990.19985	0.06868
3988.27129	0.06860
3986.34272	0.06827
3984.41416	0.06826
3982.48560	0.06875
3980.55703	0.06898
3978.62847	0.06900
3976.69990	0.06939
3974.77134	0.06995
3972.84277	0.07048
3970.91421	0.07088
3968.98564	0.07096
3967.05708	0.07070
3965.12852	0.07054
3963.19995	0.07092
3961.27139	0.07149
3959.34282	0.07165
3957.41426	0.07129
3955.48569	0.07064
3953.55713	0.07029
3951.62856	0.07075
3949.70000	0.07164
3947.77144	0.07221
3945.84287	0.07199
3943.91431	0.07140
3941.98574	0.07129
3940.05718	0.07165
3938.12861	0.07172
3936.20005	0.07151
3934.27148	0.07163
3932.34292	0.07209
3930.41436	0.07231
3928.48579	0.07187
3926.55723	0.07105
3924.62866	0.07084
3922.70010	0.07134
3920.77153	0.07164
3918.84297	0.07153
3916.91440	0.07151
3914.98584	0.07143
3913.05728	0.07082
3911.12871	0.07039
3909.20015	0.07043
3907.27158	0.07052
3905.34302	0.07081
3903.41445	0.07162
3901.48589	0.07242
3899.55732	0.07263
3897.62876	0.07200
3895.70020	0.07107
3893.77163	0.07084
3891.84307	0.07120
3889.91450	0.07156
3887.98594	0.07170
3886.05737	0.07183
3884.12881	0.07211
3882.20024	0.07199
3880.27168	0.07173
3878.34312	0.07200
3876.41455	0.07236
3874.48599	0.07296
3872.55742	0.07406
3870.62886	0.07495
3868.70029	0.07536
3866.77173	0.07536
3864.84316	0.07548
3862.91460	0.07587
3860.98604	0.07556
3859.05747	0.07473
3857.12891	0.07433
3855.20034	0.07467
3853.27178	0.07638
3851.34321	0.07880
3849.41465	0.07885
3847.48608	0.07808
3845.55752	0.07797
3843.62896	0.07848
3841.70039	0.07939
3839.77183	0.08078
3837.84326	0.08247
3835.91470	0.08315
3833.98613	0.08244
3832.05757	0.08181
3830.12900	0.08204
3828.20044	0.08272
3826.27187	0.08342
3824.34331	0.08399
3822.41475	0.08474
3820.48618	0.08680
3818.55762	0.08899
3816.62905	0.08965
3814.70049	0.09006
3812.77192	0.09039
3810.84336	0.09047
3808.91479	0.09080
3806.98623	0.09179
3805.05767	0.09320
3803.12910	0.09477
3801.20054	0.09703
3799.27197	0.09873
3797.34341	0.09912
3795.41484	0.09996
3793.48628	0.10118
3791.55771	0.10221
3789.62915	0.10326
3787.70059	0.10457
3785.77202	0.10613
3783.84346	0.10743
3781.91489	0.10828
3779.98633	0.10937
3778.05776	0.11118
3776.12920	0.11311
3774.20063	0.11461
3772.27207	0.11598
3770.34351	0.11804
3768.41494	0.12084
3766.48638	0.12308
3764.55781	0.12495
3762.62925	0.12673
3760.70068	0.12865
3758.77212	0.13130
3756.84355	0.13399
3754.91499	0.13609
3752.98643	0.13849
3751.05786	0.14199
3749.12930	0.14597
3747.20073	0.14861
3745.27217	0.15084
3743.34360	0.15463
3741.41504	0.15845
3739.48647	0.16152
3737.55791	0.16576
3735.62935	0.17179
3733.70078	0.17815
3731.77222	0.18264
3729.84365	0.18583
3727.91509	0.18932
3725.98652	0.19453
3724.05796	0.20132
3722.12939	0.20829
3720.20083	0.21496
3718.27227	0.22103
3716.34370	0.22689
3714.41514	0.23342
3712.48657	0.24237
3710.55801	0.25579
3708.62944	0.27038
3706.70088	0.28222
3704.77231	0.29317
3702.84375	0.30553
3700.91519	0.32160
3698.98662	0.33993
3697.05806	0.35758
3695.12949	0.37577
3693.20093	0.39488
3691.27236	0.41558
3689.34380	0.44209
3687.41523	0.47559
3685.48667	0.50606
3683.55811	0.53187
3681.62954	0.55871
3679.70098	0.58894
3677.77241	0.62124
3675.84385	0.65986
3673.91528	0.71178
3671.98672	0.75433
3670.05815	0.79259
3668.12959	0.84537
3666.20103	0.89321
3664.27246	0.93282
3662.34390	0.97562
3660.41533	1.02223
3658.48677	1.06800
3656.55820	1.11630
3654.62964	1.17007
3652.70107	1.21521
3650.77251	1.25432
3648.84395	1.30829
3646.91538	1.37514
3644.98682	1.42538
3643.05825	1.46453
3641.12969	1.50443
3639.20112	1.54799
3637.27256	1.59169
3635.34399	1.63398
3633.41543	1.67600
3631.48687	1.71565
3629.55830	1.75618
3627.62974	1.80984
3625.70117	1.86001
3623.77261	1.89285
3621.84404	1.92474
3619.91548	1.96304
3617.98691	2.00931
3616.05835	2.05223
3614.12979	2.08628
3612.20122	2.12266
3610.27266	2.16188
3608.34409	2.20228
3606.41553	2.24508
3604.48696	2.28497
3602.55840	2.32016
3600.62983	2.35670
3598.70127	2.39517
3596.77271	2.43442
3594.84414	2.47708
3592.91558	2.52022
3590.98701	2.55835
3589.05845	2.59272
3587.12988	2.63475
3585.20132	2.68379
3583.27275	2.72584
3581.34419	2.76313
3579.41562	2.80325
3577.48706	2.84702
3575.55850	2.89114
3573.62993	2.93577
3571.70137	2.97828
3569.77280	3.01665
3567.84424	3.05783
3565.91567	3.11122
3563.98711	3.16225
3562.05854	3.20169
3560.12998	3.24073
3558.20142	3.28294
3556.27285	3.32841
3554.34429	3.37566
3552.41572	3.42365
3550.48716	3.46980
3548.55859	3.51287
3546.63003	3.55683
3544.70146	3.60544
3542.77290	3.65604
3540.84434	3.70344
3538.91577	3.74805
3536.98721	3.79340
3535.05864	3.84151
3533.13008	3.88802
3531.20151	3.93309
3529.27295	3.98231
3527.34438	4.03465
3525.41582	4.08361
3523.48726	4.13001
3521.55869	4.17654
3519.63013	4.22117
3517.70156	4.26934
3515.77300	4.32244
3513.84443	4.37250
3511.91587	4.41859
3509.98730	4.46681
3508.05874	4.52038
3506.13018	4.57422
3504.20161	4.61983
3502.27305	4.66032
3500.34448	4.70922
3498.41592	4.76731
3496.48735	4.82054
3494.55879	4.86396
3492.63022	4.90484
3490.70166	4.94592
3488.77310	4.99107
3486.84453	5.04445
3484.91597	5.09975
3482.98740	5.15460
3481.05884	5.21250
3479.13027	5.25934
3477.20171	5.29163
3475.27314	5.32979
3473.34458	5.37618
3471.41602	5.42253
3469.48745	5.46882
3467.55889	5.51412
3465.63032	5.56262
3463.70176	5.61951
3461.77319	5.67856
3459.84463	5.74133
3457.91606	5.80410
3455.98750	5.85540
3454.05894	5.89662
3452.13037	5.92977
3450.20181	5.96744
3448.27324	6.02229
3446.34468	6.08236
3444.41611	6.13479
3442.48755	6.18366
3440.55898	6.21988
3438.63042	6.25088
3436.70186	6.30002
3434.77329	6.35945
3432.84473	6.41685
3430.91616	6.46698
3428.98760	6.50643
3427.05903	6.55099
3425.13047	6.61747
3423.20190	6.68624
3421.27334	6.74748
3419.34478	6.80125
3417.41621	6.83484
3415.48765	6.85159
3413.55908	6.87119
3411.63052	6.92326
3409.70195	6.98773
3407.77339	7.02873
3405.84482	7.05601
3403.91626	7.09676
3401.98770	7.14119
3400.05913	7.17303
3398.13057	7.22494
3396.20200	7.31071
3394.27344	7.39505
3392.34487	7.45017
3390.41631	7.49466
3388.48774	7.53477
3386.55918	7.56078
3384.63062	7.55976
3382.70205	7.54522
3380.77349	7.55617
3378.84492	7.59340
3376.91636	7.63897
3374.98779	7.68502
3373.05923	7.72696
3371.13066	7.73727
3369.20210	7.71276
3367.27354	7.67724
3365.34497	7.68863
3363.41641	7.75280
3361.48784	7.80829
3359.55928	7.84811
3357.63071	7.87909
3355.70215	7.90442
3353.77358	7.89488
3351.84502	7.87234
3349.91646	7.90566
3347.98789	7.96609
3346.05933	7.98537
3344.13076	7.97343
3342.20220	7.95434
3340.27363	7.95526
3338.34507	7.99226
3336.41650	7.98493
3334.48794	7.96748
3332.55937	8.02907
3330.63081	8.11529
3328.70225	8.13253
3326.77368	8.10787
3324.84512	8.09764
3322.91655	8.05622
3320.98799	7.98912
3319.05942	7.97108
3317.13086	8.04932
3315.20229	8.18099
3313.27373	8.25147
3311.34517	8.19358
3309.41660	8.09341
3307.48804	8.06018
3305.55947	8.11616
3303.63091	8.21360
3301.70234	8.21759
3299.77378	8.14590
3297.84521	8.11903
3295.91665	8.12030
3293.98809	8.11665
3292.05952	8.12284
3290.13096	8.11502
3288.20239	8.08223
3286.27383	8.08657
3284.34526	8.16834
3282.41670	8.26435
3280.48813	8.27222
3278.55957	8.23577
3276.63101	8.20172
3274.70244	8.17245
3272.77388	8.15662
3270.84531	8.08708
3268.91675	8.04303
3266.98818	8.16365
3265.05962	8.32217
3263.13105	8.35229
3261.20249	8.35435
3259.27393	8.32502
3257.34536	8.21248
3255.41680	8.14719
3253.48823	8.21299
3251.55967	8.29679
3249.63110	8.24391
3247.70254	8.12179
3245.77397	8.05631
3243.84541	8.08787
3241.91685	8.19811
3239.98828	8.28850
3238.05972	8.29160
3236.13115	8.26525
3234.20259	8.23465
3232.27402	8.20584
3230.34546	8.18935
3228.41689	8.16908
3226.48833	8.14549
3224.55977	8.11432
3222.63120	8.10917
3220.70264	8.10028
3218.77407	8.02635
3216.84551	7.95353
3214.91694	7.91702
3212.98838	7.92108
3211.05981	7.97095
3209.13125	7.95851
3207.20269	7.87568
3205.27412	7.86608
3203.34556	7.90135
3201.41699	7.86244
3199.48843	7.80207
3197.55986	7.80045
3195.63130	7.80673
3193.70273	7.78276
3191.77417	7.75523
3189.84561	7.70295
3187.91704	7.62986
3185.98848	7.58899
3184.05991	7.54012
3182.13135	7.42385
3180.20278	7.31930
3178.27422	7.28511
3176.34565	7.27671
3174.41709	7.25061
3172.48853	7.20593
3170.55996	7.15588
3168.63140	7.10481
3166.70283	7.04712
3164.77427	6.98152
3162.84570	6.89236
3160.91714	6.77227
3158.98857	6.66988
3157.06001	6.61554
3155.13145	6.57815
3153.20288	6.52025
3151.27432	6.45009
3149.34575	6.39541
3147.41719	6.35029
3145.48862	6.29076
3143.56006	6.21078
3141.63149	6.13189
3139.70293	6.07031
3137.77437	6.00823
3135.84580	5.91973
3133.91724	5.81450
3131.98867	5.72758
3130.06011	5.66992
3128.13154	5.61936
3126.20298	5.55791
3124.27441	5.48906
3122.34585	5.41845
3120.41729	5.34956
3118.48872	5.28296
3116.56016	5.21293
3114.63159	5.13712
3112.70303	5.06382
3110.77446	4.99544
3108.84590	4.92081
3106.91733	4.84338
3104.98877	4.77538
3103.06021	4.71083
3101.13164	4.63847
3099.20308	4.56134
3097.27451	4.49006
3095.34595	4.42872
3093.41738	4.37083
3091.48882	4.30619
3089.56025	4.23399
3087.63169	4.16342
3085.70312	4.09903
3083.77456	4.03619
3081.84600	3.97248
3079.91743	3.90915
3077.98887	3.84720
3076.06030	3.78713
3074.13174	3.72703
3072.20317	3.66607
3070.27461	3.60677
3068.34604	3.54915
3066.41748	3.48976
3064.48892	3.42945
3062.56035	3.37262
3060.63179	3.31945
3058.70322	3.26670
3056.77466	3.21230
3054.84609	3.15676
3052.91753	3.10269
3050.98896	3.05087
3049.06040	2.99889
3047.13184	2.94714
3045.20327	2.89733
3043.27471	2.84835
3041.34614	2.79919
3039.41758	2.74971
3037.48901	2.70015
3035.56045	2.65151
3033.63188	2.60465
3031.70332	2.55935
3029.77476	2.51513
3027.84619	2.47206
3025.91763	2.42911
3023.98906	2.38579
3022.06050	2.34333
3020.13193	2.30189
3018.20337	2.26087
3016.27480	2.22057
3014.34624	2.18136
3012.41768	2.14275
3010.48911	2.10422
3008.56055	2.06596
3006.63198	2.02858
3004.70342	1.99231
3002.77485	1.95681
3000.84629	1.92162
2998.91772	1.88681
2996.98916	1.85266
2995.06060	1.81911
2993.13203	1.78638
2991.20347	1.75483
2989.27490	1.72342
2987.34634	1.69147
2985.41777	1.66041
2983.48921	1.63129
2981.56064	1.60333
2979.63208	1.57512
2977.70352	1.54599
2975.77495	1.51691
2973.84639	1.48855
2971.91782	1.46048
2969.98926	1.43313
2968.06069	1.40690
2966.13213	1.38132
2964.20356	1.35609
2962.27500	1.33107
2960.34644	1.30605
2958.41787	1.28124
2956.48931	1.25724
2954.56074	1.23403
2952.63218	1.21117
2950.70361	1.18843
2948.77505	1.16613
2946.84648	1.14444
2944.91792	1.12309
2942.98936	1.10207
2941.06079	1.08123
2939.13223	1.06020
2937.20366	1.03934
2935.27510	1.01922
2933.34653	0.99970
2931.41797	0.98042
2929.48940	0.96142
2927.56084	0.94274
2925.63228	0.92444
2923.70371	0.90701
2921.77515	0.89046
2919.84658	0.87430
2917.91802	0.85851
2915.98945	0.84303
2914.06089	0.82781
2912.13232	0.81360
2910.20376	0.80057
2908.27520	0.78732
2906.34663	0.77327
2904.41807	0.75962
2902.48950	0.74698
2900.56094	0.73452
2898.63237	0.72181
2896.70381	0.70936
2894.77524	0.69744
2892.84668	0.68569
2890.91812	0.67399
2888.98955	0.66251
2887.06099	0.65117
2885.13242	0.64009
2883.20386	0.62944
2881.27529	0.61885
2879.34673	0.60831
2877.41816	0.59820
2875.48960	0.58822
2873.56104	0.57803
2871.63247	0.56778
2869.70391	0.55745
2867.77534	0.54712
2865.84678	0.53709
2863.91821	0.52725
2861.98965	0.51734
2860.06108	0.50734
2858.13252	0.49759
2856.20396	0.48842
2854.27539	0.47988
2852.34683	0.47167
2850.41826	0.46386
2848.48970	0.45691
2846.56113	0.45073
2844.63257	0.44474
2842.70400	0.43875
2840.77544	0.43266
2838.84687	0.42658
2836.91831	0.42081
2834.98975	0.41518
2833.06118	0.40946
2831.13262	0.40370
2829.20405	0.39798
2827.27549	0.39229
2825.34692	0.38648
2823.41836	0.38067
2821.48979	0.37507
2819.56123	0.36962
2817.63267	0.36427
2815.70410	0.35902
2813.77554	0.35367
2811.84697	0.34824
2809.91841	0.34303
2807.98984	0.33812
2806.06128	0.33336
2804.13271	0.32868
2802.20415	0.32395
2800.27559	0.31917
2798.34702	0.31463
2796.41846	0.31030
2794.48989	0.30579
2792.56133	0.30120
2790.63276	0.29695
2788.70420	0.29300
2786.77563	0.28902
2784.84707	0.28496
2782.91851	0.28105
2780.98994	0.27723
2779.06138	0.27355
2777.13281	0.27010
2775.20425	0.26669
2773.27568	0.26320
2771.34712	0.25969
2769.41855	0.25621
2767.48999	0.25295
2765.56143	0.24992
2763.63286	0.24672
2761.70430	0.24342
2759.77573	0.24044
2757.84717	0.23758
2755.91860	0.23462
2753.99004	0.23173
2752.06147	0.22905
2750.13291	0.22650
2748.20435	0.22400
2746.27578	0.22153
2744.34722	0.21901
2742.41865	0.21641
2740.49009	0.21386
2738.56152	0.21153
2736.63296	0.20922
2734.70439	0.20679
2732.77583	0.20452
2730.84727	0.20257
2728.91870	0.20067
2726.99014	0.19851
2725.06157	0.19632
2723.13301	0.19439
2721.20444	0.19263
2719.27588	0.19088
2717.34731	0.18914
2715.41875	0.18742
2713.49019	0.18567
2711.56162	0.18383
2709.63306	0.18202
2707.70449	0.18042
2705.77593	0.17901
2703.84736	0.17767
2701.91880	0.17633
2699.99023	0.17495
2698.06167	0.17350
2696.13311	0.17211
2694.20454	0.17086
2692.27598	0.16974
2690.34741	0.16859
2688.41885	0.16737
2686.49028	0.16628
2684.56172	0.16530
2682.63315	0.16412
2680.70459	0.16284
2678.77603	0.16171
2676.84746	0.16077
2674.91890	0.16003
2672.99033	0.15932
2671.06177	0.15831
2669.13320	0.15710
2667.20464	0.15597
2665.27607	0.15505
2663.34751	0.15443
2661.41895	0.15383
2659.49038	0.15296
2657.56182	0.15205
2655.63325	0.15144
2653.70469	0.15098
2651.77612	0.15053
2649.84756	0.15011
2647.91899	0.14964
2645.99043	0.14912
2644.06187	0.14865
2642.13330	0.14822
2640.20474	0.14779
2638.27617	0.14725
2636.34761	0.14672
2634.41904	0.14627
2632.49048	0.14584
2630.56191	0.14551
2628.63335	0.14528
2626.70479	0.14510
2624.77622	0.14493
2622.84766	0.14477
2620.91909	0.14458
2618.99053	0.14441
2617.06196	0.14438
2615.13340	0.14429
2613.20483	0.14409
2611.27627	0.14403
2609.34771	0.14418
2607.41914	0.14435
2605.49058	0.14447
2603.56201	0.14452
2601.63345	0.14446
2599.70488	0.14439
2597.77632	0.14448
2595.84775	0.14471
2593.91919	0.14500
2591.99062	0.14523
2590.06206	0.14527
2588.13350	0.14525
2586.20493	0.14535
2584.27637	0.14551
2582.34780	0.14576
2580.41924	0.14617
2578.49067	0.14657
2576.56211	0.14698
2574.63354	0.14743
2572.70498	0.14777
2570.77642	0.14807
2568.84785	0.14855
2566.91929	0.14916
2564.99072	0.14974
2563.06216	0.15023
2561.13359	0.15067
2559.20503	0.15112
2557.27646	0.15156
2555.34790	0.15205
2553.41934	0.15268
2551.49077	0.15333
2549.56221	0.15396
2547.63364	0.15465
2545.70508	0.15537
2543.77651	0.15601
2541.84795	0.15664
2539.91938	0.15726
2537.99082	0.15783
2536.06226	0.15854
2534.13369	0.15943
2532.20513	0.16024
2530.27656	0.16093
2528.34800	0.16177
2526.41943	0.16274
2524.49087	0.16352
2522.56230	0.16402
2520.63374	0.16456
2518.70518	0.16536
2516.77661	0.16627
2514.84805	0.16715
2512.91948	0.16791
2510.99092	0.16865
2509.06235	0.16947
2507.13379	0.17030
2505.20522	0.17122
2503.27666	0.17221
2501.34810	0.17316
2499.41953	0.17411
2497.49097	0.17498
2495.56240	0.17572
2493.63384	0.17653
2491.70527	0.17761
2489.77671	0.17885
2487.84814	0.17993
2485.91958	0.18081
2483.99102	0.18168
2482.06245	0.18249
2480.13389	0.18319
2478.20532	0.18402
2476.27676	0.18511
2474.34819	0.18622
2472.41963	0.18714
2470.49106	0.18802
2468.56250	0.18899
2466.63394	0.18991
2464.70537	0.19079
2462.77681	0.19180
2460.84824	0.19292
2458.91968	0.19401
2456.99111	0.19508
2455.06255	0.19607
2453.13398	0.19705
2451.20542	0.19804
2449.27686	0.19900
2447.34829	0.19999
2445.41973	0.20110
2443.49116	0.20230
2441.56260	0.20349
2439.63403	0.20458
2437.70547	0.20559
2435.77690	0.20657
2433.84834	0.20756
2431.91978	0.20857
2429.99121	0.20963
2428.06265	0.21073
2426.13408	0.21189
2424.20552	0.21310
2422.27695	0.21429
2420.34839	0.21540
2418.41982	0.21646
2416.49126	0.21757
2414.56270	0.21871
2412.63413	0.21979
2410.70557	0.22090
2408.77700	0.22215
2406.84844	0.22347
2404.91987	0.22472
2402.99131	0.22583
2401.06274	0.22699
2399.13418	0.22827
2397.20562	0.22954
2395.27705	0.23076
2393.34849	0.23205
2391.41992	0.23346
2389.49136	0.23482
2387.56279	0.23626
2385.63423	0.23822
2383.70566	0.24097
2381.77710	0.24441
2379.84854	0.24854
2377.91997	0.25325
2375.99141	0.25820
2374.06284	0.26356
2372.13428	0.26985
2370.20571	0.27729
2368.27715	0.28495
2366.34858	0.29151
2364.42002	0.29709
2362.49146	0.30176
2360.56289	0.30465
2358.63433	0.30593
2356.70576	0.30553
2354.77720	0.30310
2352.84863	0.29943
2350.92007	0.29490
2348.99150	0.29168
2347.06294	0.29208
2345.13437	0.29681
2343.20581	0.30332
2341.27725	0.30730
2339.34868	0.30919
2337.42012	0.31108
2335.49155	0.31281
2333.56299	0.31325
2331.63442	0.31296
2329.70586	0.31308
2327.77729	0.31360
2325.84873	0.31369
2323.92017	0.31307
2321.99160	0.31203
2320.06304	0.31105
2318.13447	0.31053
2316.20591	0.31038
2314.27734	0.31064
2312.34878	0.31120
2310.42021	0.31163
2308.49165	0.31173
2306.56309	0.31168
2304.63452	0.31186
2302.70596	0.31263
2300.77739	0.31377
2298.84883	0.31489
2296.92026	0.31601
2294.99170	0.31728
2293.06313	0.31864
2291.13457	0.31990
2289.20601	0.32125
2287.27744	0.32276
2285.34888	0.32423
2283.42031	0.32579
2281.49175	0.32767
2279.56318	0.32979
2277.63462	0.33192
2275.70605	0.33403
2273.77749	0.33622
2271.84893	0.33845
2269.92036	0.34058
2267.99180	0.34266
2266.06323	0.34471
2264.13467	0.34671
2262.20610	0.34878
2260.27754	0.35093
2258.34897	0.35310
2256.42041	0.35519
2254.49185	0.35716
2252.56328	0.35917
2250.63472	0.36125
2248.70615	0.36324
2246.77759	0.36523
2244.84902	0.36734
2242.92046	0.36939
2240.99189	0.37148
2239.06333	0.37379
2237.13477	0.37617
2235.20620	0.37840
2233.27764	0.38051
2231.34907	0.38270
2229.42051	0.38497
2227.49194	0.38724
2225.56338	0.38951
2223.63481	0.39175
2221.70625	0.39394
2219.77769	0.39611
2217.84912	0.39828
2215.92056	0.40046
2213.99199	0.40268
2212.06343	0.40485
2210.13486	0.40695
2208.20630	0.40912
2206.27773	0.41125
2204.34917	0.41330
2202.42061	0.41545
2200.49204	0.41759
2198.56348	0.41956
2196.63491	0.42146
2194.70635	0.42333
2192.77778	0.42516
2190.84922	0.42699
2188.92065	0.42880
2186.99209	0.43065
2185.06353	0.43253
2183.13496	0.43432
2181.20640	0.43598
2179.27783	0.43762
2177.34927	0.43934
2175.42070	0.44094
2173.49214	0.44236
2171.56357	0.44370
2169.63501	0.44500
2167.70645	0.44624
2165.77788	0.44748
2163.84932	0.44881
2161.92075	0.45014
2159.99219	0.45128
2158.06362	0.45223
2156.13506	0.45315
2154.20649	0.45414
2152.27793	0.45514
2150.34937	0.45590
2148.42080	0.45635
2146.49224	0.45668
2144.56367	0.45701
2142.63511	0.45736
2140.70654	0.45774
2138.77798	0.45814
2136.84941	0.45840
2134.92085	0.45840
2132.99229	0.45817
2131.06372	0.45791
2129.13516	0.45778
2127.20659	0.45767
2125.27803	0.45736
2123.34946	0.45683
2121.42090	0.45623
2119.49233	0.45558
2117.56377	0.45487
2115.63521	0.45410
2113.70664	0.45330
2111.77808	0.45247
2109.84951	0.45151
2107.92095	0.45043
2105.99238	0.44928
2104.06382	0.44804
2102.13525	0.44673
2100.20669	0.44539
2098.27812	0.44395
2096.34956	0.44246
2094.42100	0.44104
2092.49243	0.43965
2090.56387	0.43807
2088.63530	0.43612
2086.70674	0.43398
2084.77817	0.43194
2082.84961	0.42999
2080.92104	0.42798
2078.99248	0.42591
2077.06392	0.42379
2075.13535	0.42168
2073.20679	0.41956
2071.27822	0.41735
2069.34966	0.41510
2067.42109	0.41280
2065.49253	0.41040
2063.56396	0.40792
2061.63540	0.40548
2059.70684	0.40307
2057.77827	0.40058
2055.84971	0.39791
2053.92114	0.39521
2051.99258	0.39272
2050.06401	0.39026
2048.13545	0.38764
2046.20688	0.38487
2044.27832	0.38199
2042.34976	0.37912
2040.42119	0.37644
2038.49263	0.37385
2036.56406	0.37107
2034.63550	0.36822
2032.70693	0.36551
2030.77837	0.36284
2028.84980	0.36000
2026.92124	0.35706
2024.99268	0.35425
2023.06411	0.35159
2021.13555	0.34888
2019.20698	0.34610
2017.27842	0.34334
2015.34985	0.34055
2013.42129	0.33775
2011.49272	0.33508
2009.56416	0.33256
2007.63560	0.32991
2005.70703	0.32705
2003.77847	0.32422
2001.84990	0.32151
1999.92134	0.31889
1997.99277	0.31631
1996.06421	0.31370
1994.13564	0.31113
1992.20708	0.30872
1990.27852	0.30630
1988.34995	0.30382
1986.42139	0.30137
1984.49282	0.29900
1982.56426	0.29665
1980.63569	0.29433
1978.70713	0.29201
1976.77856	0.28972
1974.85000	0.28752
1972.92144	0.28533
1970.99287	0.28315
1969.06431	0.28113
1967.13574	0.27924
1965.20718	0.27724
1963.27861	0.27517
1961.35005	0.27317
1959.42148	0.27133
1957.49292	0.26956
1955.56436	0.26777
1953.63579	0.26604
1951.70723	0.26433
1949.77866	0.26261
1947.85010	0.26096
1945.92153	0.25949
1943.99297	0.25815
1942.06440	0.25677
1940.13584	0.25519
1938.20728	0.25356
1936.27871	0.25210
1934.35015	0.25085
1932.42158	0.24969
1930.49302	0.24850
1928.56445	0.24742
1926.63589	0.24646
1924.70732	0.24559
1922.77876	0.24470
1920.85020	0.24363
1918.92163	0.24258
1916.99307	0.24167
1915.06450	0.24082
1913.13594	0.24002
1911.20737	0.23932
1909.27881	0.23863
1907.35024	0.23790
1905.42168	0.23719
1903.49312	0.23665
1901.56455	0.23620
1899.63599	0.23576
1897.70742	0.23531
1895.77886	0.23489
1893.85029	0.23449
1891.92173	0.23414
1889.99316	0.23402
1888.06460	0.23391
1886.13604	0.23359
1884.20747	0.23321
1882.27891	0.23295
1880.35034	0.23287
1878.42178	0.23285
1876.49321	0.23280
1874.56465	0.23273
1872.63608	0.23282
1870.70752	0.23321
1868.77896	0.23391
1866.85039	0.23430
1864.92183	0.23419
1862.99326	0.23419
1861.06470	0.23440
1859.13613	0.23476
1857.20757	0.23517
1855.27900	0.23564
1853.35044	0.23605
1851.42187	0.23650
1849.49331	0.23715
1847.56475	0.23796
1845.63618	0.23893
1843.70762	0.24000
1841.77905	0.24071
1839.85049	0.24114
1837.92192	0.24191
1835.99336	0.24277
1834.06479	0.24356
1832.13623	0.24452
1830.20767	0.24607
1828.27910	0.24768
1826.35054	0.24872
1824.42197	0.24990
1822.49341	0.25113
1820.56484	0.25236
1818.63628	0.25379
1816.70771	0.25542
1814.77915	0.25706
1812.85059	0.25890
1810.92202	0.26097
1808.99346	0.26296
1807.06489	0.26487
1805.13633	0.26682
1803.20776	0.26905
1801.27920	0.27156
1799.35063	0.27441
1797.42207	0.27707
1795.49351	0.27956
1793.56494	0.28239
1791.63638	0.28603
1789.70781	0.28954
1787.77925	0.29219
1785.85068	0.29530
1783.92212	0.29904
1781.99355	0.30310
1780.06499	0.30735
1778.13643	0.31164
1776.20786	0.31567
1774.27930	0.32006
1772.35073	0.32599
1770.42217	0.33227
1768.49360	0.33756
1766.56504	0.34276
1764.63647	0.34809
1762.70791	0.35393
1760.77935	0.36140
1758.85078	0.36849
1756.92222	0.37558
1754.99365	0.38324
1753.06509	0.39012
1751.13652	0.39841
1749.20796	0.40915
1747.27939	0.41987
1745.35083	0.42918
1743.42227	0.43888
1741.49370	0.44961
1739.56514	0.46237
1737.63657	0.47517
1735.70801	0.48627
1733.77944	0.50282
1731.85088	0.52279
1729.92231	0.53853
1727.99375	0.55431
1726.06519	0.57132
1724.13662	0.58991
1722.20806	0.60993
1720.27949	0.62833
1718.35093	0.64985
1716.42236	0.68179
1714.49380	0.71224
1712.56523	0.73692
1710.63667	0.76094
1708.70811	0.78684
1706.77954	0.81618
1704.85098	0.85094
1702.92241	0.88174
1700.99385	0.91187
1699.06528	0.95676
1697.13672	0.99842
1695.20815	1.04089
1693.27959	1.08180
1691.35103	1.11483
1689.42246	1.15290
1687.49390	1.19273
1685.56533	1.23083
1683.63677	1.28893
1681.70820	1.34840
1679.77964	1.38653
1677.85107	1.42345
1675.92251	1.46654
1673.99395	1.51957
1672.06538	1.56608
1670.13682	1.61108
1668.20825	1.66786
1666.27969	1.71273
1664.35112	1.75082
1662.42256	1.79841
1660.49399	1.85140
1658.56543	1.89312
1656.63687	1.92716
1654.70830	1.95787
1652.77974	2.00814
1650.85117	2.05963
1648.92261	2.07909
1646.99404	2.10196
1645.06548	2.13096
1643.13691	2.15412
1641.20835	2.17047
1639.27979	2.18467
1637.35122	2.19281
1635.42266	2.19206
1633.49409	2.18529
1631.56553	2.17583
1629.63696	2.16438
1627.70840	2.14262
1625.77983	2.11454
1623.85127	2.07716
1621.92271	2.03030
1619.99414	1.98855
1618.06558	1.94738
1616.13701	1.88798
1614.20845	1.82802
1612.27988	1.78308
1610.35132	1.73623
1608.42275	1.68479
1606.49419	1.63389
1604.56562	1.58740
1602.63706	1.54196
1600.70850	1.49656
1598.77993	1.45447
1596.85137	1.41465
1594.92280	1.37553
1592.99424	1.33744
1591.06567	1.30237
1589.13711	1.26923
1587.20854	1.23770
1585.27998	1.20782
1583.35142	1.17961
1581.42285	1.15380
1579.49429	1.13142
1577.56572	1.11052
1575.63716	1.08428
1573.70859	1.06117
1571.78003	1.04608
1569.85146	1.02959
1567.92290	1.01076
1565.99434	0.99613
1564.06577	0.98381
1562.13721	0.97332
1560.20864	0.96447
1558.28008	0.94984
1556.35151	0.93658
1554.42295	0.92845
1552.49438	0.92018
1550.56582	0.91136
1548.63726	0.90186
1546.70869	0.89311
1544.78013	0.88462
1542.85156	0.87551
1540.92300	0.86455
1538.99443	0.84860
1537.06587	0.83659
1535.13730	0.82843
1533.20874	0.81819
1531.28018	0.80742
1529.35161	0.79973
1527.42305	0.79267
1525.49448	0.78510
1523.56592	0.77806
1521.63735	0.77080
1519.70879	0.76297
1517.78022	0.75618
1515.85166	0.74914
1513.92310	0.74231
1511.99453	0.73672
1510.06597	0.73196
1508.13740	0.72744
1506.20884	0.71987
1504.28027	0.71283
1502.35171	0.70891
1500.42314	0.70561
1498.49458	0.70199
1496.56602	0.69753
1494.63745	0.69317
1492.70889	0.68991
1490.78032	0.68711
1488.85176	0.68377
1486.92319	0.68027
1484.99463	0.67731
1483.06606	0.67489
1481.13750	0.67275
1479.20894	0.67075
1477.28037	0.66908
1475.35181	0.66773
1473.42324	0.66624
1471.49468	0.66349
1469.56611	0.66029
1467.63755	0.65779
1465.70898	0.65563
1463.78042	0.65319
1461.85186	0.65093
1459.92329	0.64931
1457.99473	0.64770
1456.06616	0.64515
1454.13760	0.64233
1452.20903	0.63977
1450.28047	0.63715
1448.35190	0.63456
1446.42334	0.63209
1444.49478	0.62987
1442.56621	0.62791
1440.63765	0.62608
1438.70908	0.62429
1436.78052	0.62223
1434.85195	0.61985
1432.92339	0.61761
1430.99482	0.61573
1429.06626	0.61417
1427.13770	0.61288
1425.20913	0.61191
1423.28057	0.61116
1421.35200	0.61028
1419.42344	0.60920
1417.49487	0.60788
1415.56631	0.60622
1413.63774	0.60461
1411.70918	0.60325
1409.78062	0.60213
1407.85205	0.60124
1405.92349	0.60061
1403.99492	0.60000
1402.06636	0.59893
1400.13779	0.59753
1398.20923	0.59612
1396.28066	0.59468
1394.35210	0.59283
1392.42354	0.59069
1390.49497	0.58868
1388.56641	0.58681
1386.63784	0.58482
1384.70928	0.58265
1382.78071	0.58059
1380.85215	0.57881
1378.92358	0.57726
1376.99502	0.57597
1375.06646	0.57490
1373.13789	0.57373
1371.20933	0.57262
1369.28076	0.57179
1367.35220	0.57096
1365.42363	0.56997
1363.49507	0.56893
1361.56650	0.56785
1359.63794	0.56665
1357.70937	0.56553
1355.78081	0.56457
1353.85225	0.56368
1351.92368	0.56287
1349.99512	0.56212
1348.06655	0.56130
1346.13799	0.56039
1344.20942	0.55945
1342.28086	0.55860
1340.35229	0.55796
1338.42373	0.55723
1336.49517	0.55618
1334.56660	0.55505
1332.63804	0.55415
1330.70947	0.55355
1328.78091	0.55321
1326.85234	0.55295
1324.92378	0.55261
1322.99521	0.55204
1321.06665	0.55139
1319.13809	0.55090
1317.20952	0.55047
1315.28096	0.54987
1313.35239	0.54917
1311.42383	0.54848
1309.49526	0.54763
1307.56670	0.54662
1305.63813	0.54571
1303.70957	0.54493
1301.78101	0.54424
1299.85244	0.54361
1297.92388	0.54298
1295.99531	0.54220
1294.06675	0.54131
1292.13818	0.54050
1290.20962	0.53979
1288.28105	0.53911
1286.35249	0.53843
1284.42393	0.53768
1282.49536	0.53688
1280.56680	0.53624
1278.63823	0.53574
1276.70967	0.53517
1274.78110	0.53451
1272.85254	0.53388
1270.92397	0.53326
1268.99541	0.53258
1267.06685	0.53192
1265.13828	0.53137
1263.20972	0.53087
1261.28115	0.53038
1259.35259	0.53000
1257.42402	0.52975
1255.49546	0.52956
1253.56689	0.52932
1251.63833	0.52900
1249.70977	0.52870
1247.78120	0.52844
1245.85264	0.52813
1243.92407	0.52771
1241.99551	0.52722
1240.06694	0.52670
1238.13838	0.52600
1236.20981	0.52514
1234.28125	0.52427
1232.35269	0.52330
1230.42412	0.52222
1228.49556	0.52122
1226.56699	0.52027
1224.63843	0.51936
1222.70986	0.51852
1220.78130	0.51766
1218.85273	0.51682
1216.92417	0.51597
1214.99561	0.51511
1213.06704	0.51446
1211.13848	0.51393
1209.20991	0.51336
1207.28135	0.51282
1205.35278	0.51223
1203.42422	0.51137
1201.49565	0.51053
1199.56709	0.51005
1197.63853	0.50972
1195.70996	0.50928
1193.78140	0.50873
1191.85283	0.50823
1189.92427	0.50787
1187.99570	0.50766
1186.06714	0.50756
1184.13857	0.50740
1182.21001	0.50722
1180.28145	0.50735
1178.35288	0.50782
1176.42432	0.50847
1174.49575	0.50928
1172.56719	0.51021
1170.63862	0.51099
1168.71006	0.51151
1166.78149	0.51196
1164.85293	0.51238
1162.92437	0.51267
1160.99580	0.51281
1159.06724	0.51271
1157.13867	0.51218
1155.21011	0.51133
1153.28154	0.51032
1151.35298	0.50893
1149.42441	0.50696
1147.49585	0.50471
1145.56729	0.50238
1143.63872	0.50000
1141.71016	0.49775
1139.78159	0.49559
1137.85303	0.49339
1135.92446	0.49131
1133.99590	0.48946
1132.06733	0.48792
1130.13877	0.48676
1128.21021	0.48571
1126.28164	0.48453
1124.35308	0.48331
1122.42451	0.48234
1120.49595	0.48181
1118.56738	0.48145
1116.63882	0.48101
1114.71025	0.48065
1112.78169	0.48069
1110.85312	0.48116
1108.92456	0.48191
1106.99600	0.48285
1105.06743	0.48401
1103.13887	0.48535
1101.21030	0.48686
1099.28174	0.48858
1097.35317	0.49075
1095.42461	0.49369
1093.49604	0.49747
1091.56748	0.50186
1089.63892	0.50689
1087.71035	0.51284
1085.78179	0.51959
1083.85322	0.52663
1081.92466	0.53339
1079.99609	0.53908
1078.06753	0.54276
1076.13896	0.54387
1074.21040	0.54236
1072.28184	0.53844
1070.35327	0.53254
1068.42471	0.52569
1066.49614	0.51894
1064.56758	0.51255
1062.63901	0.50673
1060.71045	0.50176
1058.78188	0.49734
1056.85332	0.49325
1054.92476	0.48974
1052.99619	0.48680
1051.06763	0.48414
1049.13906	0.48192
1047.21050	0.48044
1045.28193	0.47938
1043.35337	0.47854
1041.42480	0.47796
1039.49624	0.47733
1037.56768	0.47652
1035.63911	0.47589
1033.71055	0.47556
1031.78198	0.47538
1029.85342	0.47527
1027.92485	0.47517
1025.99629	0.47508
1024.06772	0.47520
1022.13916	0.47550
1020.21060	0.47600
1018.28203	0.47695
1016.35347	0.47797
1014.42490	0.47870
1012.49634	0.47952
1010.56777	0.48056
1008.63921	0.48160
1006.71064	0.48280
1004.78208	0.48443
1002.85352	0.48674
1000.92495	0.48972
998.99639	0.49318
997.06782	0.49703
995.13926	0.50106
993.21069	0.50488
991.28213	0.50815
989.35356	0.51052
987.42500	0.51193
985.49644	0.51267
983.56787	0.51320
981.63931	0.51400
979.71074	0.51535
977.78218	0.51727
975.85361	0.51968
973.92505	0.52253
971.99648	0.52576
970.06792	0.52927
968.13936	0.53311
966.21079	0.53734
964.28223	0.54197
962.35366	0.54710
960.42510	0.55244
958.49653	0.55766
956.56797	0.56304
954.63940	0.56892
952.71084	0.57501
950.78228	0.58107
948.85371	0.58756
946.92515	0.59442
944.99658	0.60084
943.06802	0.60679
941.13945	0.61285
939.21089	0.61892
937.28232	0.62466
935.35376	0.62995
933.42520	0.63510
931.49663	0.64071
929.56807	0.64672
927.63950	0.65282
925.71094	0.65889
923.78237	0.66451
921.85381	0.66999
919.92524	0.67621
917.99668	0.68348
916.06812	0.69168
914.13955	0.69987
912.21099	0.70747
910.28242	0.71588
908.35386	0.72583
906.42529	0.73511
904.49673	0.74252
902.56816	0.75004
900.63960	0.75925
898.71104	0.76966
896.78247	0.78032
894.85391	0.79094
892.92534	0.80137
890.99678	0.81091
889.06821	0.82055
887.13965	0.83170
885.21108	0.84324
883.28252	0.85396
881.35396	0.86498
879.42539	0.87856
877.49683	0.89299
875.56826	0.90410
873.63970	0.91283
871.71113	0.92320
869.78257	0.93513
867.85400	0.94632
865.92544	0.95729
863.99687	0.96848
862.06831	0.98050
860.13975	0.99440
858.21118	1.00758
856.28262	1.01772
854.35405	1.02659
852.42549	1.03605
850.49692	1.04660
848.56836	1.05752
846.63979	1.06697
844.71123	1.07502
842.78267	1.08483
840.85410	1.09793
838.92554	1.11027
836.99697	1.12059
835.06841	1.13196
833.13984	1.14230
831.21128	1.14957
829.28271	1.15786
827.35415	1.17315
825.42559	1.19485
823.49702	1.21199
821.56846	1.21734
819.63989	1.21658
817.71133	1.21724
815.78276	1.22550
813.85420	1.24363
811.92563	1.26186
809.99707	1.27249
808.06851	1.28232
806.13994	1.29033
804.21138	1.28781
802.28281	1.28860
800.35425	1.30285
798.42568	1.31953
796.49712	1.32914
794.56855	1.32813
792.63999	1.32106
790.71143	1.29353
788.78286	1.23500
786.85430	1.19749
784.92573	1.21599
782.99717	1.25465
781.06860	1.28673
779.14004	1.29054
777.21147	1.22024
775.28291	1.15736
773.35435	1.16385
771.42578	1.21451
769.49722	1.24804
767.56865	1.24206
765.64009	1.23574
763.71152	1.24632
761.78296	1.23416
759.85439	1.17978
757.92583	1.13724
755.99727	1.10048
754.06870	1.04155
752.14014	1.01249
750.21157	1.02807
748.28301	1.00815
746.35444	0.93773
744.42588	0.89290
742.49731	0.87078
740.56875	0.85279
738.64019	0.85137
736.71162	0.79821
734.78306	0.66890
732.85449	0.52024
730.92593	0.37479
728.99736	0.25955
727.06880	0.18514
725.14023	0.12705
723.21167	0.02163
721.28311	-0.41632
719.35454	4.31613
717.42598	4.30456
715.49741	-0.40287
713.56885	-0.23254
711.64028	-0.01734
709.71172	0.12001
707.78315	0.18543
705.85459	0.24861
703.92603	0.20727
701.99746	0.18387
700.06890	0.21825
698.14033	0.23626
696.21177	0.28384
694.28320	0.35602
692.35464	0.33444
690.42607	0.26691
688.49751	0.20567
686.56895	0.12169
684.64038	0.08563
682.71182	0.18180
680.78325	0.32155
678.85469	0.34650
676.92612	0.34031
674.99756	0.41569
673.06899	0.47732
671.14043	0.37033
669.21187	0.28667
667.28330	0.27841
665.35474	0.27750
663.42617	0.26730
661.49761	0.26929
659.56904	0.33683
657.64048	0.45306
655.71191	0.45536
653.78335	0.38121
651.85479	0.35429
649.92622	0.38525
647.99766	0.43023
646.06909	0.41668
644.14053	0.39826
642.21196	0.37958
640.28340	0.29068
638.35483	0.19543
636.42627	0.16178
634.49771	0.13230
632.56914	0.11662
630.64058	0.17629
628.71201	0.25906
626.78345	0.34096
624.85488	0.44690
622.92632	0.46039
620.99775	0.41024
619.06919	0.32400
617.14062	0.23666
615.21206	0.19273
613.28350	0.21160
611.35493	0.26948
609.42637	0.29800
607.49780	0.28799
605.56924	0.29463
603.64067	0.30572
601.71211	0.29684
599.78354	0.31879
597.85498	0.42918
595.92642	0.57238
593.99785	0.55418
592.06929	0.47656
590.14072	0.43687
588.21216	0.41935
586.28359	0.44798
584.35503	0.47933
582.42646	0.38754
580.49790	0.26595
578.56934	0.23644
576.64077	0.28890
574.71221	0.32059
572.78364	0.26962
570.85508	0.22182
568.92651	0.21784
566.99795	0.22707
565.06938	0.25743
563.14082	0.26879
561.21226	0.22044
559.28369	0.19359
557.35513	0.22401
555.42656	0.26147
553.49800	0.27877
551.56943	0.28505
549.64087	0.25212
547.71230	0.18047
545.78374	0.12451
543.85518	0.14567
541.92661	0.24172
539.99805	0.31469
538.06948	0.30166
536.14092	0.26623
534.21235	0.28718
532.28379	0.34308
530.35522	0.32333
528.42666	0.27522
526.49810	0.24127
524.56953	0.20621
522.64097	0.20796
520.71240	0.22731
518.78384	0.22751
516.85527	0.20428
514.92671	0.18633
512.99814	0.19288
511.06958	0.20218
509.14102	0.22475
507.21245	0.26356
505.28389	0.26804
503.35532	0.27859
501.42676	0.30224
499.49819	0.27741
