3997.91411	0.07111
3995.98555	0.07137
3994.05698	0.07129
3992.12842	0.07156
3990.19985	0.07192
3988.27129	0.07211
3986.34272	0.07247
3984.41416	0.07308
3982.48560	0.07373
3980.55703	0.07417
3978.62847	0.07421
3976.69990	0.07414
3974.77134	0.07428
3972.84277	0.07448
3970.91421	0.07454
3968.98564	0.07455
3967.05708	0.07469
3965.12852	0.07481
3963.19995	0.07490
3961.27139	0.07513
3959.34282	0.07521
3957.41426	0.07477
3955.48569	0.07433
3953.55713	0.07446
3951.62856	0.07501
3949.70000	0.07558
3947.77144	0.07580
3945.84287	0.07566
3943.91431	0.07571
3941.98574	0.07581
3940.05718	0.07523
3938.12861	0.07441
3936.20005	0.07424
3934.27148	0.07497
3932.34292	0.07618
3930.41436	0.07693
3928.48579	0.07670
3926.55723	0.07612
3924.62866	0.07565
3922.70010	0.07487
3920.77153	0.07400
3918.84297	0.07403
3916.91440	0.07515
3914.98584	0.07584
3913.05728	0.07517
3911.12871	0.07442
3909.20015	0.07432
3907.27158	0.07447
3905.34302	0.07479
3903.41445	0.07534
3901.48589	0.07610
3899.55732	0.07697
3897.62876	0.07719
3895.70020	0.07646
3893.77163	0.07577
3891.84307	0.07572
3889.91450	0.07564
3887.98594	0.07512
3886.05737	0.07506
3884.12881	0.07564
3882.20024	0.07616
3880.27168	0.07648
3878.34312	0.07606
3876.41455	0.07536
3874.48599	0.07599
3872.55742	0.07736
3870.62886	0.07784
3868.70029	0.07755
3866.77173	0.07700
3864.84316	0.07738
3862.91460	0.07869
3860.98604	0.07887
3859.05747	0.07822
3857.12891	0.07801
3855.20034	0.07857
3853.27178	0.08071
3851.34321	0.08305
3849.41465	0.08258
3847.48608	0.08135
3845.55752	0.08080
3843.62896	0.08131
3841.70039	0.08266
3839.77183	0.08432
3837.84326	0.08584
3835.91470	0.08645
3833.98613	0.08655
3832.05757	0.08677
3830.12900	0.08713
3828.20044	0.08775
3826.27187	0.08858
3824.34331	0.08912
3822.41475	0.08994
3820.48618	0.09231
3818.55762	0.09377
3816.62905	0.09316
3814.70049	0.09304
3812.77192	0.09329
3810.84336	0.09336
3808.91479	0.09400
3806.98623	0.09581
3805.05767	0.09814
3803.12910	0.09984
3801.20054	0.10153
3799.27197	0.10284
3797.34341	0.10331
3795.41484	0.10392
3793.48628	0.10416
3791.55771	0.10409
3789.62915	0.10485
3787.70059	0.10648
3785.77202	0.10835
3783.84346	0.11010
3781.91489	0.11146
3779.98633	0.11245
3778.05776	0.11371
3776.12920	0.11531
3774.20063	0.11697
3772.27207	0.11867
3770.34351	0.12088
3768.41494	0.12358
3766.48638	0.12564
3764.55781	0.12709
3762.62925	0.12849
3760.70068	0.13050
3758.77212	0.13355
3756.84355	0.13654
3754.91499	0.13855
3752.98643	0.14083
3751.05786	0.14523
3749.12930	0.15095
3747.20073	0.15393
3745.27217	0.15552
3743.34360	0.15792
3741.41504	0.15994
3739.48647	0.16200
3737.55791	0.16574
3735.62935	0.17146
3733.70078	0.17741
3731.77222	0.18136
3729.84365	0.18454
3727.91509	0.18811
3725.98652	0.19281
3724.05796	0.19901
3722.12939	0.20611
3720.20083	0.21336
3718.27227	0.22016
3716.34370	0.22697
3714.41514	0.23419
3712.48657	0.24322
3710.55801	0.25625
3708.62944	0.27011
3706.70088	0.28128
3704.77231	0.29178
3702.84375	0.30392
3700.91519	0.31986
3698.98662	0.33754
3697.05806	0.35460
3695.12949	0.37304
3693.20093	0.39273
3691.27236	0.41395
3689.34380	0.44116
3687.41523	0.47461
3685.48667	0.50412
3683.55811	0.52954
3681.62954	0.55695
3679.70098	0.58823
3677.77241	0.62113
3675.84385	0.65943
3673.91528	0.71058
3671.98672	0.75289
3670.05815	0.79107
3668.12959	0.84342
3666.20103	0.89109
3664.27246	0.93068
3662.34390	0.97276
3660.41533	1.01783
3658.48677	1.06253
3656.55820	1.11124
3654.62964	1.16577
3652.70107	1.21086
3650.77251	1.24957
3648.84395	1.30358
3646.91538	1.37110
3644.98682	1.42150
3643.05825	1.46047
3641.12969	1.50011
3639.20112	1.54336
3637.27256	1.58706
3635.34399	1.62999
3633.41543	1.67308
3631.48687	1.71327
3629.55830	1.75278
3627.62974	1.80455
3625.70117	1.85520
3623.77261	1.88960
3621.84404	1.92164
3619.91548	1.95866
3617.98691	2.00352
3616.05835	2.04762
3614.12979	2.08607
3612.20122	2.12573
3610.27266	2.16369
3608.34409	2.20242
3606.41553	2.24607
3604.48696	2.28651
3602.55840	2.32147
3600.62983	2.35939
3598.70127	2.40121
3596.77271	2.44225
3594.84414	2.48373
3592.91558	2.52571
3590.98701	2.56441
3589.05845	2.60080
3587.12988	2.64362
3585.20132	2.68954
3583.27275	2.72940
3581.34419	2.76784
3579.41562	2.80948
3577.48706	2.85332
3575.55850	2.89701
3573.62993	2.94070
3571.70137	2.98306
3569.77280	3.02383
3567.84424	3.06685
3565.91567	3.11890
3563.98711	3.16937
3562.05854	3.21022
3560.12998	3.25012
3558.20142	3.29422
3556.27285	3.34249
3554.34429	3.38906
3552.41572	3.43354
3550.48716	3.47859
3548.55859	3.52354
3546.63003	3.56951
3544.70146	3.61940
3542.77290	3.66990
3540.84434	3.71712
3538.91577	3.76260
3536.98721	3.80875
3535.05864	3.85983
3533.13008	3.91346
3531.20151	3.96374
3529.27295	4.00877
3527.34438	4.05265
3525.41582	4.10048
3523.48726	4.15088
3521.55869	4.19866
3519.63013	4.24291
3517.70156	4.29069
3515.77300	4.34014
3513.84443	4.38421
3511.91587	4.42729
3509.98730	4.47857
3508.05874	4.53840
3506.13018	4.59430
3504.20161	4.63559
3502.27305	4.67316
3500.34448	4.72198
3498.41592	4.77236
3496.48735	4.81662
3494.55879	4.86107
3492.63022	4.90786
3490.70166	4.95505
3488.77310	5.00225
3486.84453	5.05230
3484.91597	5.10489
3482.98740	5.15486
3481.05884	5.20275
3479.13027	5.25208
3477.20171	5.30689
3475.27314	5.36146
3473.34458	5.40866
3471.41602	5.45695
3469.48745	5.50034
3467.55889	5.53098
3465.63032	5.56644
3463.70176	5.61786
3461.77319	5.67800
3459.84463	5.73701
3457.91606	5.79046
3455.98750	5.84223
3454.05894	5.88730
3452.13037	5.92749
3450.20181	5.98252
3448.27324	6.04197
3446.34468	6.08387
3444.41611	6.12211
3442.48755	6.16756
3440.55898	6.20934
3438.63042	6.25507
3436.70186	6.30684
3434.77329	6.35833
3432.84473	6.41324
3430.91616	6.45924
3428.98760	6.49442
3427.05903	6.54582
3425.13047	6.61454
3423.20190	6.67054
3421.27334	6.73299
3419.34478	6.81137
3417.41621	6.87120
3415.48765	6.91165
3413.55908	6.94884
3411.63052	6.98961
3409.70195	7.02880
3407.77339	7.05656
3405.84482	7.05315
3403.91626	7.04787
3401.98770	7.08424
3400.05913	7.16703
3398.13057	7.24912
3396.20200	7.27499
3394.27344	7.26871
3392.34487	7.25184
3390.41631	7.27009
3388.48774	7.34207
3386.55918	7.40535
3384.63062	7.43007
3382.70205	7.44689
3380.77349	7.48381
3378.84492	7.54009
3376.91636	7.59312
3374.98779	7.63963
3373.05923	7.70844
3371.13066	7.76626
3369.20210	7.81021
3367.27354	7.84553
3365.34497	7.83448
3363.41641	7.81181
3361.48784	7.82364
3359.55928	7.82827
3357.63071	7.79976
3355.70215	7.82172
3353.77358	7.86911
3351.84502	7.89138
3349.91646	7.92928
3347.98789	7.94547
3346.05933	7.89873
3344.13076	7.86866
3342.20220	7.89140
3340.27363	7.88715
3338.34507	7.85453
3336.41650	7.85407
3334.48794	7.90127
3332.55937	7.96320
3330.63081	8.02226
3328.70225	8.07659
3326.77368	8.08253
3324.84512	8.03303
3322.91655	8.01599
3320.98799	8.06730
3319.05942	8.08234
3317.13086	8.04515
3315.20229	8.01271
3313.27373	8.02177
3311.34517	8.11652
3309.41660	8.21405
3307.48804	8.17216
3305.55947	8.07341
3303.63091	8.06766
3301.70234	8.15101
3299.77378	8.25752
3297.84521	8.27308
3295.91665	8.15030
3293.98809	8.04219
3292.05952	8.06717
3290.13096	8.16692
3288.20239	8.23650
3286.27383	8.21435
3284.34526	8.10922
3282.41670	8.01195
3280.48813	7.96356
3278.55957	8.02763
3276.63101	8.19672
3274.70244	8.27959
3272.77388	8.20080
3270.84531	8.11192
3268.91675	8.07797
3266.98818	8.07172
3265.05962	8.14181
3263.13105	8.23548
3261.20249	8.21789
3259.27393	8.17554
3257.34536	8.17875
3255.41680	8.16107
3253.48823	8.18246
3251.55967	8.26860
3249.63110	8.28164
3247.70254	8.19871
3245.77397	8.10104
3243.84541	8.07183
3241.91685	8.11279
3239.98828	8.14432
3238.05972	8.12978
3236.13115	8.08799
3234.20259	8.09347
3232.27402	8.16040
3230.34546	8.18563
3228.41689	8.14542
3226.48833	8.12132
3224.55977	8.12007
3222.63120	8.07407
3220.70264	7.97533
3218.77407	7.91086
3216.84551	7.91651
3214.91694	7.94682
3212.98838	7.94900
3211.05981	7.87817
3209.13125	7.78063
3207.20269	7.73144
3205.27412	7.70781
3203.34556	7.70644
3201.41699	7.73257
3199.48843	7.68364
3197.55986	7.58007
3195.63130	7.56453
3193.70273	7.62489
3191.77417	7.65058
3189.84561	7.62031
3187.91704	7.56987
3185.98848	7.53332
3184.05991	7.50398
3182.13135	7.42876
3180.20278	7.35494
3178.27422	7.30685
3176.34565	7.20658
3174.41709	7.08364
3172.48853	7.03217
3170.55996	7.05100
3168.63140	7.04222
3166.70283	6.95312
3164.77427	6.85735
3162.84570	6.80534
3160.91714	6.74816
3158.98857	6.64423
3157.06001	6.54587
3155.13145	6.50134
3153.20288	6.47887
3151.27432	6.43994
3149.34575	6.38391
3147.41719	6.31666
3145.48862	6.23882
3143.56006	6.15422
3141.63149	6.08073
3139.70293	6.02501
3137.77437	5.97129
3135.84580	5.90327
3133.91724	5.81867
3131.98867	5.73538
3130.06011	5.66426
3128.13154	5.59315
3126.20298	5.51749
3124.27441	5.44329
3122.34585	5.37131
3120.41729	5.30347
3118.48872	5.24049
3116.56016	5.17557
3114.63159	5.10491
3112.70303	5.03575
3110.77446	4.97079
3108.84590	4.90670
3106.91733	4.84540
3104.98877	4.78487
3103.06021	4.71608
3101.13164	4.63864
3099.20308	4.56582
3097.27451	4.50158
3095.34595	4.43726
3093.41738	4.36985
3091.48882	4.30301
3089.56025	4.24147
3087.63169	4.18436
3085.70312	4.12528
3083.77456	4.06115
3081.84600	3.99521
3079.91743	3.93212
3077.98887	3.87230
3076.06030	3.81318
3074.13174	3.75481
3072.20317	3.69747
3070.27461	3.63995
3068.34604	3.58250
3066.41748	3.52652
3064.48892	3.47219
3062.56035	3.41709
3060.63179	3.36142
3058.70322	3.30721
3056.77466	3.25370
3054.84609	3.20032
3052.91753	3.14695
3050.98896	3.09454
3049.06040	3.04432
3047.13184	2.99461
3045.20327	2.94483
3043.27471	2.89645
3041.34614	2.84846
3039.41758	2.79999
3037.48901	2.75176
3035.56045	2.70410
3033.63188	2.65788
3031.70332	2.61285
3029.77476	2.56767
3027.84619	2.52331
3025.91763	2.48083
3023.98906	2.43904
3022.06050	2.39706
3020.13193	2.35529
3018.20337	2.31368
3016.27480	2.27200
3014.34624	2.23120
3012.41768	2.19224
3010.48911	2.15488
3008.56055	2.11831
3006.63198	2.08154
3004.70342	2.04506
3002.77485	2.00991
3000.84629	1.97550
2998.91772	1.94150
2996.98916	1.90837
2995.06060	1.87615
2993.13203	1.84469
2991.20347	1.81364
2989.27490	1.78314
2987.34634	1.75401
2985.41777	1.72637
2983.48921	1.69918
2981.56064	1.67176
2979.63208	1.64453
2977.70352	1.61814
2975.77495	1.59269
2973.84639	1.56763
2971.91782	1.54271
2969.98926	1.51855
2968.06069	1.49534
2966.13213	1.47216
2964.20356	1.44876
2962.27500	1.42558
2960.34644	1.40264
2958.41787	1.37947
2956.48931	1.35580
2954.56074	1.33192
2952.63218	1.30813
2950.70361	1.28489
2948.77505	1.26232
2946.84648	1.24009
2944.91792	1.21813
2942.98936	1.19667
2941.06079	1.17626
2939.13223	1.15707
2937.20366	1.13820
2935.27510	1.11835
2933.34653	1.09744
2931.41797	1.07709
2929.48940	1.05781
2927.56084	1.03830
2925.63228	1.01831
2923.70371	0.99897
2921.77515	0.98123
2919.84658	0.96501
2917.91802	0.94880
2915.98945	0.93160
2914.06089	0.91401
2912.13232	0.89672
2910.20376	0.88035
2908.27520	0.86517
2906.34663	0.85055
2904.41807	0.83605
2902.48950	0.82177
2900.56094	0.80765
2898.63237	0.79363
2896.70381	0.78013
2894.77524	0.76731
2892.84668	0.75475
2890.91812	0.74249
2888.98955	0.73093
2887.06099	0.71985
2885.13242	0.70932
2883.20386	0.69942
2881.27529	0.68966
2879.34673	0.68000
2877.41816	0.67050
2875.48960	0.66082
2873.56104	0.65084
2871.63247	0.64049
2869.70391	0.62960
2867.77534	0.61800
2865.84678	0.60561
2863.91821	0.59309
2861.98965	0.58110
2860.06108	0.56963
2858.13252	0.55880
2856.20396	0.54876
2854.27539	0.53909
2852.34683	0.52976
2850.41826	0.52126
2848.48970	0.51319
2846.56113	0.50511
2844.63257	0.49742
2842.70400	0.49012
2840.77544	0.48275
2838.84687	0.47566
2836.91831	0.46942
2834.98975	0.46357
2833.06118	0.45742
2831.13262	0.45097
2829.20405	0.44456
2827.27549	0.43830
2825.34692	0.43213
2823.41836	0.42615
2821.48979	0.42030
2819.56123	0.41441
2817.63267	0.40855
2815.70410	0.40279
2813.77554	0.39716
2811.84697	0.39158
2809.91841	0.38598
2807.98984	0.38048
2806.06128	0.37509
2804.13271	0.36979
2802.20415	0.36468
2800.27559	0.35970
2798.34702	0.35469
2796.41846	0.34966
2794.48989	0.34477
2792.56133	0.34012
2790.63276	0.33577
2788.70420	0.33142
2786.77563	0.32680
2784.84707	0.32213
2782.91851	0.31777
2780.98994	0.31360
2779.06138	0.30951
2777.13281	0.30564
2775.20425	0.30193
2773.27568	0.29810
2771.34712	0.29415
2769.41855	0.29033
2767.48999	0.28677
2765.56143	0.28328
2763.63286	0.27967
2761.70430	0.27608
2759.77573	0.27269
2757.84717	0.26944
2755.91860	0.26620
2753.99004	0.26307
2752.06147	0.26010
2750.13291	0.25697
2748.20435	0.25367
2746.27578	0.25060
2744.34722	0.24786
2742.41865	0.24531
2740.49009	0.24277
2738.56152	0.24007
2736.63296	0.23723
2734.70439	0.23452
2732.77583	0.23216
2730.84727	0.23005
2728.91870	0.22792
2726.99014	0.22562
2725.06157	0.22323
2723.13301	0.22081
2721.20444	0.21847
2719.27588	0.21633
2717.34731	0.21430
2715.41875	0.21226
2713.49019	0.21028
2711.56162	0.20841
2709.63306	0.20662
2707.70449	0.20486
2705.77593	0.20323
2703.84736	0.20179
2701.91880	0.20035
2699.99023	0.19885
2698.06167	0.19744
2696.13311	0.19609
2694.20454	0.19464
2692.27598	0.19311
2690.34741	0.19156
2688.41885	0.19007
2686.49028	0.18879
2684.56172	0.18770
2682.63315	0.18645
2680.70459	0.18496
2678.77603	0.18352
2676.84746	0.18233
2674.91890	0.18127
2672.99033	0.18016
2671.06177	0.17912
2669.13320	0.17825
2667.20464	0.17738
2665.27607	0.17641
2663.34751	0.17542
2661.41895	0.17462
2659.49038	0.17392
2657.56182	0.17293
2655.63325	0.17176
2653.70469	0.17080
2651.77612	0.17014
2649.84756	0.16952
2647.91899	0.16880
2645.99043	0.16808
2644.06187	0.16746
2642.13330	0.16686
2640.20474	0.16630
2638.27617	0.16575
2636.34761	0.16512
2634.41904	0.16457
2632.49048	0.16415
2630.56191	0.16362
2628.63335	0.16305
2626.70479	0.16270
2624.77622	0.16250
2622.84766	0.16218
2620.91909	0.16171
2618.99053	0.16123
2617.06196	0.16085
2615.13340	0.16067
2613.20483	0.16062
2611.27627	0.16053
2609.34771	0.16034
2607.41914	0.16010
2605.49058	0.15995
2603.56201	0.15982
2601.63345	0.15968
2599.70488	0.15971
2597.77632	0.15982
2595.84775	0.15978
2593.91919	0.15963
2591.99062	0.15958
2590.06206	0.15967
2588.13350	0.15980
2586.20493	0.15993
2584.27637	0.16004
2582.34780	0.16017
2580.41924	0.16036
2578.49067	0.16059
2576.56211	0.16088
2574.63354	0.16122
2572.70498	0.16146
2570.77642	0.16162
2568.84785	0.16191
2566.91929	0.16235
2564.99072	0.16284
2563.06216	0.16331
2561.13359	0.16368
2559.20503	0.16403
2557.27646	0.16439
2555.34790	0.16478
2553.41934	0.16527
2551.49077	0.16570
2549.56221	0.16609
2547.63364	0.16662
2545.70508	0.16722
2543.77651	0.16780
2541.84795	0.16850
2539.91938	0.16922
2537.99082	0.16976
2536.06226	0.17028
2534.13369	0.17100
2532.20513	0.17166
2530.27656	0.17217
2528.34800	0.17272
2526.41943	0.17330
2524.49087	0.17389
2522.56230	0.17462
2520.63374	0.17549
2518.70518	0.17637
2516.77661	0.17713
2514.84805	0.17766
2512.91948	0.17812
2510.99092	0.17877
2509.06235	0.17962
2507.13379	0.18051
2505.20522	0.18123
2503.27666	0.18176
2501.34810	0.18236
2499.41953	0.18321
2497.49097	0.18421
2495.56240	0.18519
2493.63384	0.18601
2491.70527	0.18666
2489.77671	0.18739
2487.84814	0.18823
2485.91958	0.18907
2483.99102	0.19001
2482.06245	0.19094
2480.13389	0.19163
2478.20532	0.19228
2476.27676	0.19315
2474.34819	0.19408
2472.41963	0.19489
2470.49106	0.19582
2468.56250	0.19689
2466.63394	0.19786
2464.70537	0.19869
2462.77681	0.19949
2460.84824	0.20033
2458.91968	0.20117
2456.99111	0.20199
2455.06255	0.20285
2453.13398	0.20373
2451.20542	0.20458
2449.27686	0.20546
2447.34829	0.20644
2445.41973	0.20747
2443.49116	0.20844
2441.56260	0.20937
2439.63403	0.21032
2437.70547	0.21128
2435.77690	0.21223
2433.84834	0.21322
2431.91978	0.21429
2429.99121	0.21544
2428.06265	0.21654
2426.13408	0.21754
2424.20552	0.21853
2422.27695	0.21957
2420.34839	0.22064
2418.41982	0.22186
2416.49126	0.22313
2414.56270	0.22417
2412.63413	0.22503
2410.70557	0.22594
2408.77700	0.22698
2406.84844	0.22810
2404.91987	0.22926
2402.99131	0.23050
2401.06274	0.23178
2399.13418	0.23298
2397.20562	0.23397
2395.27705	0.23497
2393.34849	0.23624
2391.41992	0.23757
2389.49136	0.23873
2387.56279	0.23998
2385.63423	0.24140
2383.70566	0.24277
2381.77710	0.24407
2379.84854	0.24532
2377.91997	0.24653
2375.99141	0.24786
2374.06284	0.24935
2372.13428	0.25080
2370.20571	0.25230
2368.27715	0.25402
2366.34858	0.25583
2364.42002	0.25740
2362.49146	0.25907
2360.56289	0.26069
2358.63433	0.26156
2356.70576	0.26296
2354.77720	0.26539
2352.84863	0.26730
2350.92007	0.26822
2348.99150	0.26886
2347.06294	0.26962
2345.13437	0.27107
2343.20581	0.27363
2341.27725	0.27586
2339.34868	0.27682
2337.42012	0.27806
2335.49155	0.28027
2333.56299	0.28214
2331.63442	0.28344
2329.70586	0.28490
2327.77729	0.28679
2325.84873	0.28884
2323.92017	0.29047
2321.99160	0.29168
2320.06304	0.29321
2318.13447	0.29501
2316.20591	0.29652
2314.27734	0.29802
2312.34878	0.30004
2310.42021	0.30220
2308.49165	0.30392
2306.56309	0.30547
2304.63452	0.30706
2302.70596	0.30860
2300.77739	0.31023
2298.84883	0.31203
2296.92026	0.31391
2294.99170	0.31578
2293.06313	0.31768
2291.13457	0.31964
2289.20601	0.32155
2287.27744	0.32340
2285.34888	0.32528
2283.42031	0.32725
2281.49175	0.32922
2279.56318	0.33104
2277.63462	0.33282
2275.70605	0.33486
2273.77749	0.33709
2271.84893	0.33936
2269.92036	0.34158
2267.99180	0.34357
2266.06323	0.34550
2264.13467	0.34749
2262.20610	0.34935
2260.27754	0.35124
2258.34897	0.35348
2256.42041	0.35580
2254.49185	0.35796
2252.56328	0.36012
2250.63472	0.36236
2248.70615	0.36462
2246.77759	0.36694
2244.84902	0.36921
2242.92046	0.37129
2240.99189	0.37332
2239.06333	0.37543
2237.13477	0.37763
2235.20620	0.37986
2233.27764	0.38206
2231.34907	0.38429
2229.42051	0.38650
2227.49194	0.38860
2225.56338	0.39071
2223.63481	0.39302
2221.70625	0.39538
2219.77769	0.39761
2217.84912	0.39968
2215.92056	0.40174
2213.99199	0.40392
2212.06343	0.40619
2210.13486	0.40845
2208.20630	0.41058
2206.27773	0.41270
2204.34917	0.41485
2202.42061	0.41687
2200.49204	0.41875
2198.56348	0.42069
2196.63491	0.42266
2194.70635	0.42454
2192.77778	0.42639
2190.84922	0.42822
2188.92065	0.42998
2186.99209	0.43174
2185.06353	0.43350
2183.13496	0.43524
2181.20640	0.43698
2179.27783	0.43862
2177.34927	0.44006
2175.42070	0.44142
2173.49214	0.44299
2171.56357	0.44468
2169.63501	0.44615
2167.70645	0.44732
2165.77788	0.44845
2163.84932	0.44968
2161.92075	0.45086
2159.99219	0.45190
2158.06362	0.45274
2156.13506	0.45347
2154.20649	0.45431
2152.27793	0.45523
2150.34937	0.45604
2148.42080	0.45673
2146.49224	0.45724
2144.56367	0.45754
2142.63511	0.45782
2140.70654	0.45813
2138.77798	0.45844
2136.84941	0.45872
2134.92085	0.45888
2132.99229	0.45882
2131.06372	0.45857
2129.13516	0.45829
2127.20659	0.45805
2125.27803	0.45782
2123.34946	0.45751
2121.42090	0.45705
2119.49233	0.45632
2117.56377	0.45540
2115.63521	0.45455
2113.70664	0.45371
2111.77808	0.45269
2109.84951	0.45164
2107.92095	0.45070
2105.99238	0.44969
2104.06382	0.44854
2102.13525	0.44734
2100.20669	0.44597
2098.27812	0.44439
2096.34956	0.44283
2094.42100	0.44130
2092.49243	0.43967
2090.56387	0.43790
2088.63530	0.43608
2086.70674	0.43433
2084.77817	0.43248
2082.84961	0.43043
2080.92104	0.42828
2078.99248	0.42622
2077.06392	0.42422
2075.13535	0.42212
2073.20679	0.41987
2071.27822	0.41754
2069.34966	0.41525
2067.42109	0.41297
2065.49253	0.41062
2063.56396	0.40811
2061.63540	0.40554
2059.70684	0.40295
2057.77827	0.40041
2055.84971	0.39795
2053.92114	0.39538
2051.99258	0.39267
2050.06401	0.39001
2048.13545	0.38737
2046.20688	0.38462
2044.27832	0.38191
2042.34976	0.37929
2040.42119	0.37664
2038.49263	0.37390
2036.56406	0.37106
2034.63550	0.36824
2032.70693	0.36555
2030.77837	0.36284
2028.84980	0.35992
2026.92124	0.35699
2024.99268	0.35426
2023.06411	0.35166
2021.13555	0.34903
2019.20698	0.34636
2017.27842	0.34357
2015.34985	0.34064
2013.42129	0.33775
2011.49272	0.33501
2009.56416	0.33237
2007.63560	0.32969
2005.70703	0.32702
2003.77847	0.32448
2001.84990	0.32196
1999.92134	0.31932
1997.99277	0.31664
1996.06421	0.31410
1994.13564	0.31166
1992.20708	0.30919
1990.27852	0.30661
1988.34995	0.30410
1986.42139	0.30164
1984.49282	0.29921
1982.56426	0.29695
1980.63569	0.29474
1978.70713	0.29250
1976.77856	0.29030
1974.85000	0.28817
1972.92144	0.28595
1970.99287	0.28371
1969.06431	0.28164
1967.13574	0.27972
1965.20718	0.27774
1963.27861	0.27574
1961.35005	0.27382
1959.42148	0.27197
1957.49292	0.27022
1955.56436	0.26845
1953.63579	0.26659
1951.70723	0.26481
1949.77866	0.26320
1947.85010	0.26162
1945.92153	0.26018
1943.99297	0.25893
1942.06440	0.25766
1940.13584	0.25615
1938.20728	0.25453
1936.27871	0.25297
1934.35015	0.25163
1932.42158	0.25053
1930.49302	0.24945
1928.56445	0.24841
1926.63589	0.24745
1924.70732	0.24654
1922.77876	0.24561
1920.85020	0.24469
1918.92163	0.24395
1916.99307	0.24319
1915.06450	0.24216
1913.13594	0.24115
1911.20737	0.24046
1909.27881	0.23990
1907.35024	0.23922
1905.42168	0.23844
1903.49312	0.23776
1901.56455	0.23715
1899.63599	0.23662
1897.70742	0.23626
1895.77886	0.23601
1893.85029	0.23569
1891.92173	0.23529
1889.99316	0.23510
1888.06460	0.23496
1886.13604	0.23465
1884.20747	0.23435
1882.27891	0.23420
1880.35034	0.23413
1878.42178	0.23405
1876.49321	0.23396
1874.56465	0.23390
1872.63608	0.23410
1870.70752	0.23456
1868.77896	0.23520
1866.85039	0.23544
1864.92183	0.23524
1862.99326	0.23522
1861.06470	0.23549
1859.13613	0.23590
1857.20757	0.23625
1855.27900	0.23664
1853.35044	0.23709
1851.42187	0.23761
1849.49331	0.23820
1847.56475	0.23893
1845.63618	0.23981
1843.70762	0.24084
1841.77905	0.24157
1839.85049	0.24197
1837.92192	0.24272
1835.99336	0.24367
1834.06479	0.24459
1832.13623	0.24563
1830.20767	0.24722
1828.27910	0.24882
1826.35054	0.24977
1824.42197	0.25086
1822.49341	0.25209
1820.56484	0.25332
1818.63628	0.25473
1816.70771	0.25645
1814.77915	0.25817
1812.85059	0.25994
1810.92202	0.26200
1808.99346	0.26415
1807.06489	0.26608
1805.13633	0.26786
1803.20776	0.27002
1801.27920	0.27254
1799.35063	0.27534
1797.42207	0.27798
1795.49351	0.28048
1793.56494	0.28327
1791.63638	0.28680
1789.70781	0.29011
1787.77925	0.29261
1785.85068	0.29566
1783.92212	0.29927
1781.99355	0.30320
1780.06499	0.30741
1778.13643	0.31170
1776.20786	0.31574
1774.27930	0.32014
1772.35073	0.32606
1770.42217	0.33237
1768.49360	0.33759
1766.56504	0.34251
1764.63647	0.34756
1762.70791	0.35332
1760.77935	0.36079
1758.85078	0.36787
1756.92222	0.37496
1754.99365	0.38266
1753.06509	0.38969
1751.13652	0.39808
1749.20796	0.40854
1747.27939	0.41881
1745.35083	0.42789
1743.42227	0.43750
1741.49370	0.44807
1739.56514	0.46063
1737.63657	0.47330
1735.70801	0.48431
1733.77944	0.50064
1731.85088	0.52024
1729.92231	0.53579
1727.99375	0.55130
1726.06519	0.56799
1724.13662	0.58646
1722.20806	0.60638
1720.27949	0.62441
1718.35093	0.64541
1716.42236	0.67721
1714.49380	0.70794
1712.56523	0.73272
1710.63667	0.75657
1708.70811	0.78222
1706.77954	0.81146
1704.85098	0.84668
1702.92241	0.87832
1700.99385	0.90962
1699.06528	0.95643
1697.13672	1.00043
1695.20815	1.04624
1693.27959	1.09061
1691.35103	1.12659
1689.42246	1.16863
1687.49390	1.21306
1685.56533	1.25560
1683.63677	1.32163
1681.70820	1.39096
1679.77964	1.43558
1677.85107	1.47811
1675.92251	1.52707
1673.99395	1.58751
1672.06538	1.64147
1670.13682	1.69490
1668.20825	1.76578
1666.27969	1.82530
1664.35112	1.87655
1662.42256	1.94107
1660.49399	2.01428
1658.56543	2.07135
1656.63687	2.11578
1654.70830	2.15311
1652.77974	2.20927
1650.85117	2.26762
1648.92261	2.29110
1646.99404	2.31809
1645.06548	2.34400
1643.13691	2.35704
1641.20835	2.36074
1639.27979	2.36339
1637.35122	2.36402
1635.42266	2.35972
1633.49409	2.34698
1631.56553	2.32833
1629.63696	2.30776
1627.70840	2.27714
1625.77983	2.24189
1623.85127	2.19698
1621.92271	2.14112
1619.99414	2.09158
1618.06558	2.04420
1616.13701	1.97759
1614.20845	1.91005
1612.27988	1.85910
1610.35132	1.80691
1608.42275	1.75001
1606.49419	1.69297
1604.56562	1.64047
1602.63706	1.59089
1600.70850	1.54294
1598.77993	1.49839
1596.85137	1.45660
1594.92280	1.41669
1592.99424	1.37873
1591.06567	1.34448
1589.13711	1.31317
1587.20854	1.28470
1585.27998	1.25892
1583.35142	1.23528
1581.42285	1.21423
1579.49429	1.19675
1577.56572	1.18152
1575.63716	1.16365
1573.70859	1.14837
1571.78003	1.13891
1569.85146	1.13053
1567.92290	1.12273
1565.99434	1.11780
1564.06577	1.11505
1562.13721	1.11373
1560.20864	1.11513
1558.28008	1.12396
1556.35151	1.13300
1554.42295	1.13772
1552.49438	1.14290
1550.56582	1.14643
1548.63726	1.14610
1546.70869	1.14144
1544.78013	1.13263
1542.85156	1.11992
1540.92300	1.09982
1538.99443	1.06814
1537.06587	1.04501
1535.13730	1.02852
1533.20874	1.00597
1531.28018	0.98200
1529.35161	0.96474
1527.42305	0.94856
1525.49448	0.93168
1523.56592	0.91734
1521.63735	0.90402
1519.70879	0.89097
1517.78022	0.88006
1515.85166	0.86695
1513.92310	0.85253
1511.99453	0.83952
1510.06597	0.82775
1508.13740	0.81655
1506.20884	0.79972
1504.28027	0.78522
1502.35171	0.77720
1500.42314	0.77019
1498.49458	0.76259
1496.56602	0.75363
1494.63745	0.74475
1492.70889	0.73795
1490.78032	0.73208
1488.85176	0.72523
1486.92319	0.71846
1484.99463	0.71312
1483.06606	0.70920
1481.13750	0.70631
1479.20894	0.70439
1477.28037	0.70362
1475.35181	0.70374
1473.42324	0.70440
1471.49468	0.70465
1469.56611	0.70343
1467.63755	0.70142
1465.70898	0.69981
1463.78042	0.69910
1461.85186	0.69898
1459.92329	0.69961
1457.99473	0.70133
1456.06616	0.70215
1454.13760	0.70003
1452.20903	0.69742
1450.28047	0.69498
1448.35190	0.69273
1446.42334	0.69037
1444.49478	0.68767
1442.56621	0.68470
1440.63765	0.68160
1438.70908	0.67844
1436.78052	0.67452
1434.85195	0.67013
1432.92339	0.66687
1430.99482	0.66478
1429.06626	0.66363
1427.13770	0.66345
1425.20913	0.66423
1423.28057	0.66573
1421.35200	0.66698
1419.42344	0.66780
1417.49487	0.66807
1415.56631	0.66732
1413.63774	0.66658
1411.70918	0.66682
1409.78062	0.66824
1407.85205	0.67032
1405.92349	0.67275
1403.99492	0.67506
1402.06636	0.67605
1400.13779	0.67556
1398.20923	0.67400
1396.28066	0.67136
1394.35210	0.66724
1392.42354	0.66227
1390.49497	0.65765
1388.56641	0.65311
1386.63784	0.64760
1384.70928	0.64130
1382.78071	0.63530
1380.85215	0.62990
1378.92358	0.62554
1376.99502	0.62256
1375.06646	0.62055
1373.13789	0.61893
1371.20933	0.61779
1369.28076	0.61699
1367.35220	0.61576
1365.42363	0.61400
1363.49507	0.61233
1361.56650	0.61085
1359.63794	0.60914
1357.70937	0.60749
1355.78081	0.60616
1353.85225	0.60495
1351.92368	0.60382
1349.99512	0.60307
1348.06655	0.60258
1346.13799	0.60184
1344.20942	0.60074
1342.28086	0.59981
1340.35229	0.59937
1338.42373	0.59890
1336.49517	0.59816
1334.56660	0.59766
1332.63804	0.59768
1330.70947	0.59815
1328.78091	0.59888
1326.85234	0.59976
1324.92378	0.60069
1322.99521	0.60163
1321.06665	0.60266
1319.13809	0.60361
1317.20952	0.60402
1315.28096	0.60396
1313.35239	0.60382
1311.42383	0.60352
1309.49526	0.60294
1307.56670	0.60230
1305.63813	0.60194
1303.70957	0.60172
1301.78101	0.60124
1299.85244	0.60036
1297.92388	0.59921
1295.99531	0.59789
1294.06675	0.59649
1292.13818	0.59517
1290.20962	0.59397
1288.28105	0.59272
1286.35249	0.59124
1284.42393	0.58961
1282.49536	0.58805
1280.56680	0.58655
1278.63823	0.58492
1276.70967	0.58327
1274.78110	0.58186
1272.85254	0.58084
1270.92397	0.58004
1268.99541	0.57929
1267.06685	0.57856
1265.13828	0.57766
1263.20972	0.57647
1261.28115	0.57517
1259.35259	0.57409
1257.42402	0.57350
1255.49546	0.57330
1253.56689	0.57318
1251.63833	0.57316
1249.70977	0.57330
1247.78120	0.57332
1245.85264	0.57309
1243.92407	0.57251
1241.99551	0.57137
1240.06694	0.56971
1238.13838	0.56770
1236.20981	0.56544
1234.28125	0.56297
1232.35269	0.56030
1230.42412	0.55754
1228.49556	0.55499
1226.56699	0.55260
1224.63843	0.55021
1222.70986	0.54806
1220.78130	0.54636
1218.85273	0.54496
1216.92417	0.54362
1214.99561	0.54229
1213.06704	0.54120
1211.13848	0.54038
1209.20991	0.53962
1207.28135	0.53877
1205.35278	0.53782
1203.42422	0.53678
1201.49565	0.53567
1199.56709	0.53461
1197.63853	0.53373
1195.70996	0.53292
1193.78140	0.53220
1191.85283	0.53164
1189.92427	0.53116
1187.99570	0.53081
1186.06714	0.53058
1184.13857	0.53041
1182.21001	0.53070
1180.28145	0.53175
1178.35288	0.53331
1176.42432	0.53500
1174.49575	0.53644
1172.56719	0.53737
1170.63862	0.53773
1168.71006	0.53770
1166.78149	0.53755
1164.85293	0.53747
1162.92437	0.53747
1160.99580	0.53745
1159.06724	0.53729
1157.13867	0.53691
1155.21011	0.53632
1153.28154	0.53540
1151.35298	0.53376
1149.42441	0.53142
1147.49585	0.52886
1145.56729	0.52626
1143.63872	0.52357
1141.71016	0.52121
1139.78159	0.51948
1137.85303	0.51837
1135.92446	0.51776
1133.99590	0.51742
1132.06733	0.51737
1130.13877	0.51756
1128.21021	0.51749
1126.28164	0.51715
1124.35308	0.51680
1122.42451	0.51655
1120.49595	0.51669
1118.56738	0.51707
1116.63882	0.51746
1114.71025	0.51796
1112.78169	0.51864
1110.85312	0.51947
1108.92456	0.52040
1106.99600	0.52138
1105.06743	0.52244
1103.13887	0.52352
1101.21030	0.52452
1099.28174	0.52569
1097.35317	0.52744
1095.42461	0.53009
1093.49604	0.53388
1091.56748	0.53888
1089.63892	0.54498
1087.71035	0.55224
1085.78179	0.56050
1083.85322	0.56901
1081.92466	0.57659
1079.99609	0.58203
1078.06753	0.58462
1076.13896	0.58416
1074.21040	0.58077
1072.28184	0.57524
1070.35327	0.56849
1068.42471	0.56103
1066.49614	0.55354
1064.56758	0.54682
1062.63901	0.54104
1060.71045	0.53623
1058.78188	0.53238
1056.85332	0.52876
1054.92476	0.52483
1052.99619	0.52116
1051.06763	0.51841
1049.13906	0.51667
1047.21050	0.51564
1045.28193	0.51502
1043.35337	0.51466
1041.42480	0.51424
1039.49624	0.51377
1037.56768	0.51358
1035.63911	0.51345
1033.71055	0.51302
1031.78198	0.51208
1029.85342	0.51035
1027.92485	0.50811
1025.99629	0.50636
1024.06772	0.50545
1022.13916	0.50489
1020.21060	0.50427
1018.28203	0.50370
1016.35347	0.50358
1014.42490	0.50373
1012.49634	0.50358
1010.56777	0.50323
1008.63921	0.50311
1006.71064	0.50337
1004.78208	0.50413
1002.85352	0.50571
1000.92495	0.50844
998.99639	0.51216
997.06782	0.51635
995.13926	0.52073
993.21069	0.52492
991.28213	0.52820
989.35356	0.53011
987.42500	0.53066
985.49644	0.53047
983.56787	0.53027
981.63931	0.53035
979.71074	0.53079
977.78218	0.53179
975.85361	0.53346
973.92505	0.53591
971.99648	0.53890
970.06792	0.54206
968.13936	0.54552
966.21079	0.54951
964.28223	0.55401
962.35366	0.55882
960.42510	0.56383
958.49653	0.56911
956.56797	0.57462
954.63940	0.58040
952.71084	0.58644
950.78228	0.59255
948.85371	0.59907
946.92515	0.60601
944.99658	0.61234
943.06802	0.61781
941.13945	0.62335
939.21089	0.62933
937.28232	0.63540
935.35376	0.64153
933.42520	0.64767
931.49663	0.65361
929.56807	0.65942
927.63950	0.66515
925.71094	0.67091
923.78237	0.67714
921.85381	0.68379
919.92524	0.69061
917.99668	0.69779
916.06812	0.70551
914.13955	0.71363
912.21099	0.72167
910.28242	0.72952
908.35386	0.73740
906.42529	0.74534
904.49673	0.75389
902.56816	0.76354
900.63960	0.77373
898.71104	0.78388
896.78247	0.79355
894.85391	0.80258
892.92534	0.81129
890.99678	0.82038
889.06821	0.83026
887.13965	0.84001
885.21108	0.85035
883.28252	0.86319
881.35396	0.87733
879.42539	0.89050
877.49683	0.90191
875.56826	0.91276
873.63970	0.92441
871.71113	0.93621
869.78257	0.94717
867.85400	0.95668
865.92544	0.96597
863.99687	0.97713
862.06831	0.98973
860.13975	1.00205
858.21118	1.01270
856.28262	1.02259
854.35405	1.03471
852.42549	1.04899
850.49692	1.06344
848.56836	1.07764
846.63979	1.09003
844.71123	1.09983
842.78267	1.11009
840.85410	1.12206
838.92554	1.13407
836.99697	1.14454
835.06841	1.15186
833.13984	1.15913
831.21128	1.17005
829.28271	1.18327
827.35415	1.19637
825.42559	1.20783
823.49702	1.21628
821.56846	1.22287
819.63989	1.23652
817.71133	1.25137
815.78276	1.25070
813.85420	1.24939
811.92563	1.26061
809.99707	1.26767
808.06851	1.26509
806.13994	1.26683
804.21138	1.27855
802.28281	1.29172
800.35425	1.29497
798.42568	1.29543
796.49712	1.29507
794.56855	1.28581
792.63999	1.28324
790.71143	1.30103
788.78286	1.32045
786.85430	1.33056
784.92573	1.37019
782.99717	1.42743
781.06860	1.42027
779.14004	1.39593
777.21147	1.41530
775.28291	1.38652
773.35435	1.30171
771.42578	1.27449
769.49722	1.29463
767.56865	1.30398
765.64009	1.30992
763.71152	1.33487
761.78296	1.34025
759.85439	1.26295
757.92583	1.19239
755.99727	1.21256
754.06870	1.25397
752.14014	1.22128
750.21157	1.16871
748.28301	1.08122
746.35444	0.96572
744.42588	0.90354
742.49731	0.93580
740.56875	1.05821
738.64019	1.23520
736.71162	1.31465
734.78306	1.03350
732.85449	0.69803
730.92593	0.48474
728.99736	0.41809
727.06880	0.45980
725.14023	0.43855
723.21167	0.27761
721.28311	0.14986
719.35454	0.16306
717.42598	0.22631
715.49741	0.27551
713.56885	0.34518
711.64028	0.35352
709.71172	0.26578
707.78315	0.21862
705.85459	0.25754
703.92603	0.30666
701.99746	0.32562
700.06890	0.32107
698.14033	0.36525
696.21177	0.47529
694.28320	0.52371
692.35464	0.47091
690.42607	0.48190
688.49751	0.55168
686.56895	0.49704
684.64038	0.38133
682.71182	0.35031
680.78325	0.37161
678.85469	0.37440
676.92612	0.36400
674.99756	0.35304
673.06899	0.34122
671.14043	0.34886
669.21187	0.33844
667.28330	0.27034
665.35474	0.27118
663.42617	0.44930
661.49761	0.59957
659.56904	0.43430
657.64048	0.36158
655.71191	0.38855
653.78335	0.37215
651.85479	0.34054
649.92622	0.35787
647.99766	0.37305
646.06909	0.34146
644.14053	0.28440
642.21196	0.20847
640.28340	0.16612
638.35483	0.22190
636.42627	0.39599
634.49771	0.53899
632.56914	0.42811
630.64058	0.32455
628.71201	0.36057
626.78345	0.47337
624.85488	0.46132
622.92632	0.33195
620.99775	0.27025
619.06919	0.30277
617.14062	0.29470
615.21206	0.20899
613.28350	0.18002
611.35493	0.22370
609.42637	0.27076
607.49780	0.30775
605.56924	0.35533
603.64067	0.37607
601.71211	0.33859
599.78354	0.29593
597.85498	0.27849
595.92642	0.29442
593.99785	0.35260
592.06929	0.41929
590.14072	0.42189
588.21216	0.40846
586.28359	0.44046
584.35503	0.46728
582.42646	0.49091
580.49790	0.51008
578.56934	0.42701
576.64077	0.36918
574.71221	0.38957
572.78364	0.36144
570.85508	0.24812
568.92651	0.19453
566.99795	0.24779
565.06938	0.34108
563.14082	0.36021
561.21226	0.33957
559.28369	0.38440
557.35513	0.54057
555.42656	0.74390
553.49800	0.68070
551.56943	0.52185
549.64087	0.40102
547.71230	0.34243
545.78374	0.36000
543.85518	0.39933
541.92661	0.38769
539.99805	0.35405
538.06948	0.36062
536.14092	0.39644
534.21235	0.37968
532.28379	0.29911
530.35522	0.24970
528.42666	0.24474
526.49810	0.26468
524.56953	0.33040
522.64097	0.43410
520.71240	0.45958
518.78384	0.37773
516.85527	0.28481
514.92671	0.21844
512.99814	0.19527
511.06958	0.20470
509.14102	0.22854
507.21245	0.28826
505.28389	0.36966
503.35532	0.38352
501.42676	0.33532
499.49819	0.29059
