3997.91411	0.06175
3995.98555	0.06210
3994.05698	0.06270
3992.12842	0.06345
3990.19985	0.06397
3988.27129	0.06412
3986.34272	0.06382
3984.41416	0.06368
3982.48560	0.06405
3980.55703	0.06444
3978.62847	0.06465
3976.69990	0.06485
3974.77134	0.06502
3972.84277	0.06501
3970.91421	0.06484
3968.98564	0.06485
3967.05708	0.06521
3965.12852	0.06564
3963.19995	0.06602
3961.27139	0.06636
3959.34282	0.06645
3957.41426	0.06620
3955.48569	0.06598
3953.55713	0.06589
3951.62856	0.06559
3949.70000	0.06524
3947.77144	0.06541
3945.84287	0.06603
3943.91431	0.06650
3941.98574	0.06636
3940.05718	0.06583
3938.12861	0.06566
3936.20005	0.06590
3934.27148	0.06604
3932.34292	0.06588
3930.41436	0.06572
3928.48579	0.06595
3926.55723	0.06616
3924.62866	0.06585
3922.70010	0.06518
3920.77153	0.06439
3918.84297	0.06385
3916.91440	0.06398
3914.98584	0.06427
3913.05728	0.06441
3911.12871	0.06465
3909.20015	0.06485
3907.27158	0.06474
3905.34302	0.06442
3903.41445	0.06426
3901.48589	0.06423
3899.55732	0.06413
3897.62876	0.06421
3895.70020	0.06445
3893.77163	0.06461
3891.84307	0.06458
3889.91450	0.06451
3887.98594	0.06445
3886.05737	0.06448
3884.12881	0.06489
3882.20024	0.06508
3880.27168	0.06468
3878.34312	0.06478
3876.41455	0.06541
3874.48599	0.06560
3872.55742	0.06533
3870.62886	0.06540
3868.70029	0.06599
3866.77173	0.06645
3864.84316	0.06684
3862.91460	0.06725
3860.98604	0.06749
3859.05747	0.06775
3857.12891	0.06809
3855.20034	0.06838
3853.27178	0.06838
3851.34321	0.06844
3849.41465	0.06894
3847.48608	0.06946
3845.55752	0.06999
3843.62896	0.07087
3841.70039	0.07179
3839.77183	0.07188
3837.84326	0.07157
3835.91470	0.07209
3833.98613	0.07325
3832.05757	0.07437
3830.12900	0.07532
3828.20044	0.07580
3826.27187	0.07595
3824.34331	0.07636
3822.41475	0.07724
3820.48618	0.07868
3818.55762	0.07954
3816.62905	0.07974
3814.70049	0.08101
3812.77192	0.08271
3810.84336	0.08369
3808.91479	0.08450
3806.98623	0.08561
3805.05767	0.08690
3803.12910	0.08779
3801.20054	0.08848
3799.27197	0.08952
3797.34341	0.09083
3795.41484	0.09242
3793.48628	0.09376
3791.55771	0.09476
3789.62915	0.09601
3787.70059	0.09746
3785.77202	0.09879
3783.84346	0.10027
3781.91489	0.10190
3779.98633	0.10335
3778.05776	0.10505
3776.12920	0.10680
3774.20063	0.10822
3772.27207	0.10944
3770.34351	0.11049
3768.41494	0.11194
3766.48638	0.11398
3764.55781	0.11614
3762.62925	0.11816
3760.70068	0.11999
3758.77212	0.12213
3756.84355	0.12470
3754.91499	0.12674
3752.98643	0.12816
3751.05786	0.13018
3749.12930	0.13353
3747.20073	0.13628
3745.27217	0.13839
3743.34360	0.14237
3741.41504	0.14695
3739.48647	0.14989
3737.55791	0.15240
3735.62935	0.15551
3733.70078	0.15976
3731.77222	0.16495
3729.84365	0.17013
3727.91509	0.17460
3725.98652	0.17936
3724.05796	0.18535
3722.12939	0.19219
3720.20083	0.19991
3718.27227	0.20825
3716.34370	0.21653
3714.41514	0.22416
3712.48657	0.23198
3710.55801	0.24265
3708.62944	0.25630
3706.70088	0.26905
3704.77231	0.28060
3702.84375	0.29329
3700.91519	0.30954
3698.98662	0.32771
3697.05806	0.34529
3695.12949	0.36342
3693.20093	0.38184
3691.27236	0.40146
3689.34380	0.42773
3687.41523	0.46214
3685.48667	0.49378
3683.55811	0.52082
3681.62954	0.54860
3679.70098	0.57888
3677.77241	0.61016
3675.84385	0.64713
3673.91528	0.69867
3671.98672	0.74242
3670.05815	0.78060
3668.12959	0.83309
3666.20103	0.88273
3664.27246	0.92408
3662.34390	0.96700
3660.41533	1.01273
3658.48677	1.05799
3656.55820	1.10609
3654.62964	1.15981
3652.70107	1.20541
3650.77251	1.24433
3648.84395	1.29668
3646.91538	1.36294
3644.98682	1.41499
3643.05825	1.45594
3641.12969	1.49615
3639.20112	1.53848
3637.27256	1.58103
3635.34399	1.62337
3633.41543	1.66546
3631.48687	1.70397
3629.55830	1.74257
3627.62974	1.79461
3625.70117	1.84617
3623.77261	1.88196
3621.84404	1.91501
3619.91548	1.95169
3617.98691	1.99490
3616.05835	2.03740
3614.12979	2.07409
3612.20122	2.11189
3610.27266	2.15057
3608.34409	2.19129
3606.41553	2.23513
3604.48696	2.27582
3602.55840	2.31161
3600.62983	2.34929
3598.70127	2.39014
3596.77271	2.43042
3594.84414	2.47180
3592.91558	2.51425
3590.98701	2.55256
3589.05845	2.58655
3587.12988	2.62749
3585.20132	2.67639
3583.27275	2.72047
3581.34419	2.75971
3579.41562	2.79978
3577.48706	2.84199
3575.55850	2.88503
3573.62993	2.92918
3571.70137	2.97180
3569.77280	3.01116
3567.84424	3.05244
3565.91567	3.10377
3563.98711	3.15330
3562.05854	3.19386
3560.12998	3.23524
3558.20142	3.27960
3556.27285	3.32645
3554.34429	3.37424
3552.41572	3.42141
3550.48716	3.46617
3548.55859	3.51043
3546.63003	3.55652
3544.70146	3.60285
3542.77290	3.64969
3540.84434	3.69979
3538.91577	3.75014
3536.98721	3.79690
3535.05864	3.84394
3533.13008	3.89189
3531.20151	3.93849
3529.27295	3.98473
3527.34438	4.03468
3525.41582	4.08520
3523.48726	4.13215
3521.55869	4.18100
3519.63013	4.22802
3517.70156	4.26998
3515.77300	4.31627
3513.84443	4.36948
3511.91587	4.41879
3509.98730	4.46230
3508.05874	4.50688
3506.13018	4.55299
3504.20161	4.60155
3502.27305	4.65288
3500.34448	4.70264
3498.41592	4.75195
3496.48735	4.80336
3494.55879	4.85227
3492.63022	4.89883
3490.70166	4.94607
3488.77310	4.99193
3486.84453	5.04058
3484.91597	5.09740
3482.98740	5.15294
3481.05884	5.19577
3479.13027	5.23306
3477.20171	5.27712
3475.27314	5.32682
3473.34458	5.37816
3471.41602	5.42553
3469.48745	5.46808
3467.55889	5.51427
3465.63032	5.56725
3463.70176	5.62757
3461.77319	5.68610
3459.84463	5.72941
3457.91606	5.76778
3455.98750	5.82049
3454.05894	5.87820
3452.13037	5.92905
3450.20181	5.97726
3448.27324	6.01907
3446.34468	6.06978
3444.41611	6.14244
3442.48755	6.20820
3440.55898	6.25195
3438.63042	6.30052
3436.70186	6.35090
3434.77329	6.38541
3432.84473	6.42005
3430.91616	6.45463
3428.98760	6.49110
3427.05903	6.53957
3425.13047	6.59483
3423.20190	6.65585
3421.27334	6.72218
3419.34478	6.77949
3417.41621	6.82680
3415.48765	6.88279
3413.55908	6.96426
3411.63052	7.04796
3409.70195	7.08910
3407.77339	7.12127
3405.84482	7.16633
3403.91626	7.19250
3401.98770	7.20109
3400.05913	7.22250
3398.13057	7.25597
3396.20200	7.30075
3394.27344	7.36452
3392.34487	7.43358
3390.41631	7.50812
3388.48774	7.53228
3386.55918	7.51673
3384.63062	7.54236
3382.70205	7.59334
3380.77349	7.60888
3378.84492	7.60240
3376.91636	7.63144
3374.98779	7.67451
3373.05923	7.71248
3371.13066	7.76068
3369.20210	7.80290
3367.27354	7.81345
3365.34497	7.83036
3363.41641	7.85873
3361.48784	7.87415
3359.55928	7.89890
3357.63071	7.92189
3355.70215	7.95720
3353.77358	7.96898
3351.84502	7.93819
3349.91646	7.94062
3347.98789	7.97213
3346.05933	7.96446
3344.13076	7.97476
3342.20220	8.06365
3340.27363	8.13341
3338.34507	8.15522
3336.41650	8.16945
3334.48794	8.18918
3332.55937	8.18071
3330.63081	8.12254
3328.70225	8.10651
3326.77368	8.16793
3324.84512	8.17421
3322.91655	8.07684
3320.98799	8.04435
3319.05942	8.12424
3317.13086	8.19131
3315.20229	8.14264
3313.27373	8.06847
3311.34517	8.06109
3309.41660	8.06025
3307.48804	8.05836
3305.55947	8.13698
3303.63091	8.25295
3301.70234	8.27660
3299.77378	8.23579
3297.84521	8.16242
3295.91665	8.09263
3293.98809	8.10893
3292.05952	8.16271
3290.13096	8.16832
3288.20239	8.16902
3286.27383	8.22332
3284.34526	8.29648
3282.41670	8.30480
3280.48813	8.25746
3278.55957	8.27722
3276.63101	8.30439
3274.70244	8.21752
3272.77388	8.08292
3270.84531	7.98249
3268.91675	7.95560
3266.98818	8.01648
3265.05962	8.17112
3263.13105	8.35615
3261.20249	8.46692
3259.27393	8.44247
3257.34536	8.34361
3255.41680	8.29961
3253.48823	8.30525
3251.55967	8.32903
3249.63110	8.38412
3247.70254	8.42409
3245.77397	8.41451
3243.84541	8.41411
3241.91685	8.42259
3239.98828	8.34687
3238.05972	8.22712
3236.13115	8.18165
3234.20259	8.20393
3232.27402	8.25591
3230.34546	8.26019
3228.41689	8.15721
3226.48833	8.10284
3224.55977	8.12933
3222.63120	8.14468
3220.70264	8.17611
3218.77407	8.22010
3216.84551	8.23169
3214.91694	8.18596
3212.98838	8.09239
3211.05981	8.01203
3209.13125	7.95923
3207.20269	7.92702
3205.27412	7.88202
3203.34556	7.78529
3201.41699	7.70841
3199.48843	7.73528
3197.55986	7.81067
3195.63130	7.78988
3193.70273	7.68167
3191.77417	7.59660
3189.84561	7.57882
3187.91704	7.62656
3185.98848	7.65588
3184.05991	7.56766
3182.13135	7.41582
3180.20278	7.32016
3178.27422	7.31067
3176.34565	7.31777
3174.41709	7.26762
3172.48853	7.17071
3170.55996	7.08730
3168.63140	7.04899
3166.70283	7.03356
3164.77427	7.01113
3162.84570	6.96270
3160.91714	6.87527
3158.98857	6.76867
3157.06001	6.68757
3155.13145	6.63980
3153.20288	6.58056
3151.27432	6.50952
3149.34575	6.45478
3147.41719	6.39585
3145.48862	6.31467
3143.56006	6.22411
3141.63149	6.13192
3139.70293	6.04048
3137.77437	5.97125
3135.84580	5.92477
3133.91724	5.86887
3131.98867	5.79015
3130.06011	5.70243
3128.13154	5.62596
3126.20298	5.56391
3124.27441	5.49897
3122.34585	5.42471
3120.41729	5.34964
3118.48872	5.27586
3116.56016	5.20530
3114.63159	5.13790
3112.70303	5.06823
3110.77446	4.99258
3108.84590	4.91359
3106.91733	4.84131
3104.98877	4.77431
3103.06021	4.70447
3101.13164	4.63242
3099.20308	4.55952
3097.27451	4.48888
3095.34595	4.42535
3093.41738	4.36589
3091.48882	4.30401
3089.56025	4.23823
3087.63169	4.17093
3085.70312	4.10390
3083.77456	4.03783
3081.84600	3.97525
3079.91743	3.91573
3077.98887	3.85564
3076.06030	3.79484
3074.13174	3.73469
3072.20317	3.67436
3070.27461	3.61402
3068.34604	3.55514
3066.41748	3.49733
3064.48892	3.44020
3062.56035	3.38314
3060.63179	3.32615
3058.70322	3.27011
3056.77466	3.21465
3054.84609	3.16103
3052.91753	3.11101
3050.98896	3.06200
3049.06040	3.01084
3047.13184	2.95893
3045.20327	2.90763
3043.27471	2.85645
3041.34614	2.80622
3039.41758	2.75757
3037.48901	2.70967
3035.56045	2.66279
3033.63188	2.61787
3031.70332	2.57338
3029.77476	2.52828
3027.84619	2.48444
3025.91763	2.44158
3023.98906	2.39818
3022.06050	2.35519
3020.13193	2.31311
3018.20337	2.27179
3016.27480	2.23178
3014.34624	2.19272
3012.41768	2.15366
3010.48911	2.11475
3008.56055	2.07704
3006.63198	2.04038
3004.70342	2.00378
3002.77485	1.96734
3000.84629	1.93158
2998.91772	1.89691
2996.98916	1.86333
2995.06060	1.83017
2993.13203	1.79734
2991.20347	1.76537
2989.27490	1.73445
2987.34634	1.70417
2985.41777	1.67406
2983.48921	1.64435
2981.56064	1.61564
2979.63208	1.58811
2977.70352	1.56087
2975.77495	1.53311
2973.84639	1.50572
2971.91782	1.47949
2969.98926	1.45380
2968.06069	1.42854
2966.13213	1.40377
2964.20356	1.37872
2962.27500	1.35350
2960.34644	1.32918
2958.41787	1.30592
2956.48931	1.28256
2954.56074	1.25894
2952.63218	1.23614
2950.70361	1.21408
2948.77505	1.19226
2946.84648	1.17080
2944.91792	1.14986
2942.98936	1.12925
2941.06079	1.10858
2939.13223	1.08793
2937.20366	1.06794
2935.27510	1.04873
2933.34653	1.02995
2931.41797	1.01123
2929.48940	0.99255
2927.56084	0.97429
2925.63228	0.95630
2923.70371	0.93833
2921.77515	0.92113
2919.84658	0.90511
2917.91802	0.88949
2915.98945	0.87356
2914.06089	0.85746
2912.13232	0.84182
2910.20376	0.82691
2908.27520	0.81214
2906.34663	0.79733
2904.41807	0.78326
2902.48950	0.76982
2900.56094	0.75618
2898.63237	0.74265
2896.70381	0.72977
2894.77524	0.71734
2892.84668	0.70525
2890.91812	0.69378
2888.98955	0.68271
2887.06099	0.67149
2885.13242	0.66055
2883.20386	0.65024
2881.27529	0.64002
2879.34673	0.62961
2877.41816	0.61940
2875.48960	0.60951
2873.56104	0.59948
2871.63247	0.58919
2869.70391	0.57890
2867.77534	0.56851
2865.84678	0.55809
2863.91821	0.54788
2861.98965	0.53800
2860.06108	0.52848
2858.13252	0.51911
2856.20396	0.50994
2854.27539	0.50121
2852.34683	0.49269
2850.41826	0.48415
2848.48970	0.47584
2846.56113	0.46790
2844.63257	0.46039
2842.70400	0.45337
2840.77544	0.44681
2838.84687	0.44046
2836.91831	0.43411
2834.98975	0.42765
2833.06118	0.42109
2831.13262	0.41488
2829.20405	0.40926
2827.27549	0.40356
2825.34692	0.39744
2823.41836	0.39142
2821.48979	0.38574
2819.56123	0.38011
2817.63267	0.37437
2815.70410	0.36869
2813.77554	0.36320
2811.84697	0.35775
2809.91841	0.35230
2807.98984	0.34697
2806.06128	0.34201
2804.13271	0.33734
2802.20415	0.33245
2800.27559	0.32730
2798.34702	0.32241
2796.41846	0.31803
2794.48989	0.31389
2792.56133	0.30963
2790.63276	0.30523
2788.70420	0.30073
2786.77563	0.29630
2784.84707	0.29215
2782.91851	0.28822
2780.98994	0.28430
2779.06138	0.28026
2777.13281	0.27639
2775.20425	0.27281
2773.27568	0.26933
2771.34712	0.26584
2769.41855	0.26228
2767.48999	0.25878
2765.56143	0.25548
2763.63286	0.25234
2761.70430	0.24932
2759.77573	0.24631
2757.84717	0.24316
2755.91860	0.23996
2753.99004	0.23695
2752.06147	0.23409
2750.13291	0.23123
2748.20435	0.22846
2746.27578	0.22582
2744.34722	0.22327
2742.41865	0.22096
2740.49009	0.21872
2738.56152	0.21630
2736.63296	0.21387
2734.70439	0.21157
2732.77583	0.20931
2730.84727	0.20712
2728.91870	0.20495
2726.99014	0.20265
2725.06157	0.20042
2723.13301	0.19840
2721.20444	0.19644
2719.27588	0.19454
2717.34731	0.19290
2715.41875	0.19128
2713.49019	0.18944
2711.56162	0.18764
2709.63306	0.18600
2707.70449	0.18429
2705.77593	0.18265
2703.84736	0.18120
2701.91880	0.17978
2699.99023	0.17837
2698.06167	0.17701
2696.13311	0.17562
2694.20454	0.17418
2692.27598	0.17271
2690.34741	0.17125
2688.41885	0.16989
2686.49028	0.16874
2684.56172	0.16772
2682.63315	0.16654
2680.70459	0.16527
2678.77603	0.16417
2676.84746	0.16323
2674.91890	0.16225
2672.99033	0.16109
2671.06177	0.15996
2669.13320	0.15908
2667.20464	0.15825
2665.27607	0.15731
2663.34751	0.15635
2661.41895	0.15542
2659.49038	0.15453
2657.56182	0.15370
2655.63325	0.15292
2653.70469	0.15220
2651.77612	0.15159
2649.84756	0.15108
2647.91899	0.15047
2645.99043	0.14980
2644.06187	0.14931
2642.13330	0.14884
2640.20474	0.14823
2638.27617	0.14766
2636.34761	0.14727
2634.41904	0.14704
2632.49048	0.14681
2630.56191	0.14645
2628.63335	0.14602
2626.70479	0.14561
2624.77622	0.14522
2622.84766	0.14482
2620.91909	0.14461
2618.99053	0.14462
2617.06196	0.14448
2615.13340	0.14420
2613.20483	0.14401
2611.27627	0.14397
2609.34771	0.14405
2607.41914	0.14420
2605.49058	0.14421
2603.56201	0.14393
2601.63345	0.14372
2599.70488	0.14387
2597.77632	0.14416
2595.84775	0.14439
2593.91919	0.14453
2591.99062	0.14464
2590.06206	0.14476
2588.13350	0.14486
2586.20493	0.14499
2584.27637	0.14525
2582.34780	0.14551
2580.41924	0.14568
2578.49067	0.14587
2576.56211	0.14613
2574.63354	0.14650
2572.70498	0.14706
2570.77642	0.14752
2568.84785	0.14771
2566.91929	0.14804
2564.99072	0.14865
2563.06216	0.14921
2561.13359	0.14954
2559.20503	0.14980
2557.27646	0.15027
2555.34790	0.15090
2553.41934	0.15149
2551.49077	0.15198
2549.56221	0.15239
2547.63364	0.15283
2545.70508	0.15353
2543.77651	0.15442
2541.84795	0.15518
2539.91938	0.15583
2537.99082	0.15652
2536.06226	0.15723
2534.13369	0.15794
2532.20513	0.15848
2530.27656	0.15896
2528.34800	0.15979
2526.41943	0.16083
2524.49087	0.16164
2522.56230	0.16222
2520.63374	0.16286
2518.70518	0.16360
2516.77661	0.16435
2514.84805	0.16512
2512.91948	0.16601
2510.99092	0.16702
2509.06235	0.16797
2507.13379	0.16884
2505.20522	0.16968
2503.27666	0.17041
2501.34810	0.17105
2499.41953	0.17180
2497.49097	0.17272
2495.56240	0.17371
2493.63384	0.17460
2491.70527	0.17531
2489.77671	0.17604
2487.84814	0.17690
2485.91958	0.17784
2483.99102	0.17878
2482.06245	0.17968
2480.13389	0.18055
2478.20532	0.18139
2476.27676	0.18227
2474.34819	0.18329
2472.41963	0.18437
2470.49106	0.18532
2468.56250	0.18620
2466.63394	0.18712
2464.70537	0.18808
2462.77681	0.18905
2460.84824	0.18995
2458.91968	0.19079
2456.99111	0.19171
2455.06255	0.19272
2453.13398	0.19376
2451.20542	0.19482
2449.27686	0.19584
2447.34829	0.19669
2445.41973	0.19754
2443.49116	0.19865
2441.56260	0.19991
2439.63403	0.20106
2437.70547	0.20213
2435.77690	0.20320
2433.84834	0.20424
2431.91978	0.20524
2429.99121	0.20620
2428.06265	0.20710
2426.13408	0.20810
2424.20552	0.20930
2422.27695	0.21045
2420.34839	0.21141
2418.41982	0.21230
2416.49126	0.21332
2414.56270	0.21455
2412.63413	0.21593
2410.70557	0.21731
2408.77700	0.21864
2406.84844	0.21988
2404.91987	0.22097
2402.99131	0.22208
2401.06274	0.22325
2399.13418	0.22435
2397.20562	0.22546
2395.27705	0.22672
2393.34849	0.22802
2391.41992	0.22932
2389.49136	0.23061
2387.56279	0.23177
2385.63423	0.23269
2383.70566	0.23339
2381.77710	0.23388
2379.84854	0.23415
2377.91997	0.23415
2375.99141	0.23371
2374.06284	0.23291
2372.13428	0.23209
2370.20571	0.23131
2368.27715	0.23024
2366.34858	0.22862
2364.42002	0.22682
2362.49146	0.22564
2360.56289	0.22566
2358.63433	0.22779
2356.70576	0.23196
2354.77720	0.23664
2352.84863	0.24159
2350.92007	0.24674
2348.99150	0.25027
2347.06294	0.25147
2345.13437	0.25125
2343.20581	0.25091
2341.27725	0.25116
2339.34868	0.25219
2337.42012	0.25420
2335.49155	0.25684
2333.56299	0.25887
2331.63442	0.25996
2329.70586	0.26152
2327.77729	0.26451
2325.84873	0.26806
2323.92017	0.27106
2321.99160	0.27351
2320.06304	0.27595
2318.13447	0.27870
2316.20591	0.28146
2314.27734	0.28412
2312.34878	0.28674
2310.42021	0.28904
2308.49165	0.29096
2306.56309	0.29311
2304.63452	0.29580
2302.70596	0.29847
2300.77739	0.30067
2298.84883	0.30258
2296.92026	0.30459
2294.99170	0.30679
2293.06313	0.30896
2291.13457	0.31110
2289.20601	0.31327
2287.27744	0.31547
2285.34888	0.31766
2283.42031	0.31970
2281.49175	0.32163
2279.56318	0.32357
2277.63462	0.32547
2275.70605	0.32735
2273.77749	0.32937
2271.84893	0.33150
2269.92036	0.33366
2267.99180	0.33584
2266.06323	0.33806
2264.13467	0.34030
2262.20610	0.34251
2260.27754	0.34467
2258.34897	0.34688
2256.42041	0.34911
2254.49185	0.35129
2252.56328	0.35351
2250.63472	0.35584
2248.70615	0.35814
2246.77759	0.36035
2244.84902	0.36255
2242.92046	0.36474
2240.99189	0.36688
2239.06333	0.36906
2237.13477	0.37134
2235.20620	0.37370
2233.27764	0.37612
2231.34907	0.37845
2229.42051	0.38061
2227.49194	0.38279
2225.56338	0.38503
2223.63481	0.38711
2221.70625	0.38923
2219.77769	0.39147
2217.84912	0.39363
2215.92056	0.39580
2213.99199	0.39807
2212.06343	0.40027
2210.13486	0.40230
2208.20630	0.40437
2206.27773	0.40650
2204.34917	0.40860
2202.42061	0.41074
2200.49204	0.41282
2198.56348	0.41478
2196.63491	0.41678
2194.70635	0.41882
2192.77778	0.42075
2190.84922	0.42261
2188.92065	0.42447
2186.99209	0.42628
2185.06353	0.42801
2183.13496	0.42973
2181.20640	0.43155
2179.27783	0.43325
2177.34927	0.43475
2175.42070	0.43625
2173.49214	0.43779
2171.56357	0.43921
2169.63501	0.44046
2167.70645	0.44160
2165.77788	0.44278
2163.84932	0.44409
2161.92075	0.44543
2159.99219	0.44665
2158.06362	0.44775
2156.13506	0.44875
2154.20649	0.44961
2152.27793	0.45034
2150.34937	0.45099
2148.42080	0.45158
2146.49224	0.45212
2144.56367	0.45259
2142.63511	0.45301
2140.70654	0.45336
2138.77798	0.45365
2136.84941	0.45391
2134.92085	0.45410
2132.99229	0.45414
2131.06372	0.45404
2129.13516	0.45381
2127.20659	0.45338
2125.27803	0.45292
2123.34946	0.45255
2121.42090	0.45212
2119.49233	0.45151
2117.56377	0.45079
2115.63521	0.45004
2113.70664	0.44933
2111.77808	0.44845
2109.84951	0.44726
2107.92095	0.44609
2105.99238	0.44498
2104.06382	0.44374
2102.13525	0.44239
2100.20669	0.44102
2098.27812	0.43952
2096.34956	0.43796
2094.42100	0.43652
2092.49243	0.43508
2090.56387	0.43344
2088.63530	0.43161
2086.70674	0.42967
2084.77817	0.42771
2082.84961	0.42578
2080.92104	0.42385
2078.99248	0.42193
2077.06392	0.42000
2075.13535	0.41790
2073.20679	0.41565
2071.27822	0.41335
2069.34966	0.41105
2067.42109	0.40871
2065.49253	0.40637
2063.56396	0.40398
2061.63540	0.40147
2059.70684	0.39900
2057.77827	0.39661
2055.84971	0.39411
2053.92114	0.39145
2051.99258	0.38879
2050.06401	0.38606
2048.13545	0.38328
2046.20688	0.38064
2044.27832	0.37801
2042.34976	0.37523
2040.42119	0.37243
2038.49263	0.36970
2036.56406	0.36700
2034.63550	0.36431
2032.70693	0.36149
2030.77837	0.35860
2028.84980	0.35586
2026.92124	0.35322
2024.99268	0.35046
2023.06411	0.34760
2021.13555	0.34481
2019.20698	0.34205
2017.27842	0.33935
2015.34985	0.33669
2013.42129	0.33403
2011.49272	0.33136
2009.56416	0.32867
2007.63560	0.32591
2005.70703	0.32317
2003.77847	0.32047
2001.84990	0.31780
1999.92134	0.31516
1997.99277	0.31254
1996.06421	0.31005
1994.13564	0.30764
1992.20708	0.30507
1990.27852	0.30235
1988.34995	0.29980
1986.42139	0.29745
1984.49282	0.29524
1982.56426	0.29313
1980.63569	0.29090
1978.70713	0.28853
1976.77856	0.28620
1974.85000	0.28399
1972.92144	0.28178
1970.99287	0.27949
1969.06431	0.27719
1967.13574	0.27506
1965.20718	0.27315
1963.27861	0.27141
1961.35005	0.26968
1959.42148	0.26785
1957.49292	0.26590
1955.56436	0.26399
1953.63579	0.26226
1951.70723	0.26061
1949.77866	0.25894
1947.85010	0.25735
1945.92153	0.25591
1943.99297	0.25442
1942.06440	0.25287
1940.13584	0.25142
1938.20728	0.25010
1936.27871	0.24882
1934.35015	0.24750
1932.42158	0.24625
1930.49302	0.24514
1928.56445	0.24404
1926.63589	0.24287
1924.70732	0.24176
1922.77876	0.24077
1920.85020	0.23990
1918.92163	0.23906
1916.99307	0.23821
1915.06450	0.23747
1913.13594	0.23669
1911.20737	0.23587
1909.27881	0.23506
1907.35024	0.23429
1905.42168	0.23358
1903.49312	0.23299
1901.56455	0.23251
1899.63599	0.23209
1897.70742	0.23175
1895.77886	0.23145
1893.85029	0.23120
1891.92173	0.23089
1889.99316	0.23057
1888.06460	0.23032
1886.13604	0.23006
1884.20747	0.22976
1882.27891	0.22951
1880.35034	0.22940
1878.42178	0.22935
1876.49321	0.22936
1874.56465	0.22940
1872.63608	0.22946
1870.70752	0.22948
1868.77896	0.22961
1866.85039	0.22986
1864.92183	0.23012
1862.99326	0.23046
1861.06470	0.23087
1859.13613	0.23131
1857.20757	0.23175
1855.27900	0.23228
1853.35044	0.23275
1851.42187	0.23317
1849.49331	0.23364
1847.56475	0.23424
1845.63618	0.23493
1843.70762	0.23574
1841.77905	0.23661
1839.85049	0.23725
1837.92192	0.23807
1835.99336	0.23901
1834.06479	0.23993
1832.13623	0.24083
1830.20767	0.24208
1828.27910	0.24363
1826.35054	0.24485
1824.42197	0.24613
1822.49341	0.24752
1820.56484	0.24891
1818.63628	0.25035
1816.70771	0.25205
1814.77915	0.25368
1812.85059	0.25527
1810.92202	0.25723
1808.99346	0.25943
1807.06489	0.26146
1805.13633	0.26327
1803.20776	0.26531
1801.27920	0.26771
1799.35063	0.27058
1797.42207	0.27330
1795.49351	0.27571
1793.56494	0.27828
1791.63638	0.28173
1789.70781	0.28552
1787.77925	0.28858
1785.85068	0.29183
1783.92212	0.29546
1781.99355	0.29925
1780.06499	0.30326
1778.13643	0.30751
1776.20786	0.31147
1774.27930	0.31541
1772.35073	0.32078
1770.42217	0.32725
1768.49360	0.33312
1766.56504	0.33859
1764.63647	0.34399
1762.70791	0.34975
1760.77935	0.35705
1758.85078	0.36412
1756.92222	0.37140
1754.99365	0.37939
1753.06509	0.38641
1751.13652	0.39433
1749.20796	0.40435
1747.27939	0.41479
1745.35083	0.42447
1743.42227	0.43460
1741.49370	0.44533
1739.56514	0.45779
1737.63657	0.47039
1735.70801	0.48117
1733.77944	0.49697
1731.85088	0.51678
1729.92231	0.53319
1727.99375	0.54948
1726.06519	0.56662
1724.13662	0.58521
1722.20806	0.60512
1720.27949	0.62313
1718.35093	0.64371
1716.42236	0.67466
1714.49380	0.70551
1712.56523	0.73116
1710.63667	0.75570
1708.70811	0.78152
1706.77954	0.81035
1704.85098	0.84468
1702.92241	0.87546
1700.99385	0.90549
1699.06528	0.94983
1697.13672	0.99142
1695.20815	1.03533
1693.27959	1.07860
1691.35103	1.11320
1689.42246	1.15201
1687.49390	1.19213
1685.56533	1.23007
1683.63677	1.28881
1681.70820	1.35146
1679.77964	1.39241
1677.85107	1.43079
1675.92251	1.47423
1673.99395	1.52755
1672.06538	1.57504
1670.13682	1.62150
1668.20825	1.68133
1666.27969	1.73016
1664.35112	1.77154
1662.42256	1.82233
1660.49399	1.87850
1658.56543	1.92238
1656.63687	1.95817
1654.70830	1.99091
1652.77974	2.04303
1650.85117	2.09541
1648.92261	2.11741
1646.99404	2.14548
1645.06548	2.17527
1643.13691	2.19328
1641.20835	2.20473
1639.27979	2.21552
1637.35122	2.22119
1635.42266	2.22059
1633.49409	2.21598
1631.56553	2.20517
1629.63696	2.18922
1627.70840	2.16210
1625.77983	2.13112
1623.85127	2.09423
1621.92271	2.04893
1619.99414	2.00712
1618.06558	1.96478
1616.13701	1.90358
1614.20845	1.84175
1612.27988	1.79522
1610.35132	1.74647
1608.42275	1.69342
1606.49419	1.64128
1604.56562	1.59316
1602.63706	1.54642
1600.70850	1.50008
1598.77993	1.45667
1596.85137	1.41597
1594.92280	1.37702
1592.99424	1.33926
1591.06567	1.30426
1589.13711	1.27134
1587.20854	1.24012
1585.27998	1.21068
1583.35142	1.18319
1581.42285	1.15804
1579.49429	1.13612
1577.56572	1.11577
1575.63716	1.09066
1573.70859	1.06901
1571.78003	1.05498
1569.85146	1.03994
1567.92290	1.02354
1565.99434	1.01103
1564.06577	1.00036
1562.13721	0.99122
1560.20864	0.98322
1558.28008	0.97141
1556.35151	0.96319
1554.42295	0.95885
1552.49438	0.95379
1550.56582	0.94772
1548.63726	0.94047
1546.70869	0.93269
1544.78013	0.92356
1542.85156	0.91251
1540.92300	0.89885
1538.99443	0.88068
1537.06587	0.86785
1535.13730	0.85850
1533.20874	0.84596
1531.28018	0.83289
1529.35161	0.82337
1527.42305	0.81428
1525.49448	0.80477
1523.56592	0.79603
1521.63735	0.78720
1519.70879	0.77902
1517.78022	0.77246
1515.85166	0.76481
1513.92310	0.75709
1511.99453	0.75062
1510.06597	0.74445
1508.13740	0.73775
1506.20884	0.72807
1504.28027	0.72077
1502.35171	0.71678
1500.42314	0.71280
1498.49458	0.70811
1496.56602	0.70286
1494.63745	0.69828
1492.70889	0.69466
1490.78032	0.69096
1488.85176	0.68678
1486.92319	0.68343
1484.99463	0.68091
1483.06606	0.67853
1481.13750	0.67611
1479.20894	0.67397
1477.28037	0.67235
1475.35181	0.67096
1473.42324	0.66957
1471.49468	0.66810
1469.56611	0.66673
1467.63755	0.66505
1465.70898	0.66299
1463.78042	0.66112
1461.85186	0.65975
1459.92329	0.65843
1457.99473	0.65669
1456.06616	0.65435
1454.13760	0.65208
1452.20903	0.65005
1450.28047	0.64790
1448.35190	0.64559
1446.42334	0.64323
1444.49478	0.64111
1442.56621	0.63917
1440.63765	0.63716
1438.70908	0.63502
1436.78052	0.63231
1434.85195	0.62941
1432.92339	0.62720
1430.99482	0.62545
1429.06626	0.62399
1427.13770	0.62284
1425.20913	0.62193
1423.28057	0.62120
1421.35200	0.62057
1419.42344	0.61973
1417.49487	0.61847
1415.56631	0.61698
1413.63774	0.61557
1411.70918	0.61438
1409.78062	0.61365
1407.85205	0.61334
1405.92349	0.61319
1403.99492	0.61294
1402.06636	0.61233
1400.13779	0.61118
1398.20923	0.60951
1396.28066	0.60765
1394.35210	0.60558
1392.42354	0.60334
1390.49497	0.60120
1388.56641	0.59901
1386.63784	0.59636
1384.70928	0.59360
1382.78071	0.59122
1380.85215	0.58912
1378.92358	0.58724
1376.99502	0.58564
1375.06646	0.58446
1373.13789	0.58363
1371.20933	0.58294
1369.28076	0.58218
1367.35220	0.58126
1365.42363	0.58012
1363.49507	0.57880
1361.56650	0.57751
1359.63794	0.57650
1357.70937	0.57547
1355.78081	0.57422
1353.85225	0.57301
1351.92368	0.57192
1349.99512	0.57087
1348.06655	0.56987
1346.13799	0.56888
1344.20942	0.56786
1342.28086	0.56682
1340.35229	0.56591
1338.42373	0.56506
1336.49517	0.56419
1334.56660	0.56339
1332.63804	0.56275
1330.70947	0.56222
1328.78091	0.56182
1326.85234	0.56158
1324.92378	0.56142
1322.99521	0.56115
1321.06665	0.56064
1319.13809	0.56016
1317.20952	0.55988
1315.28096	0.55953
1313.35239	0.55888
1311.42383	0.55810
1309.49526	0.55735
1307.56670	0.55663
1305.63813	0.55590
1303.70957	0.55512
1301.78101	0.55442
1299.85244	0.55376
1297.92388	0.55292
1295.99531	0.55195
1294.06675	0.55106
1292.13818	0.55027
1290.20962	0.54957
1288.28105	0.54896
1286.35249	0.54824
1284.42393	0.54731
1282.49536	0.54628
1280.56680	0.54531
1278.63823	0.54458
1276.70967	0.54404
1274.78110	0.54344
1272.85254	0.54269
1270.92397	0.54186
1268.99541	0.54104
1267.06685	0.54043
1265.13828	0.54015
1263.20972	0.53985
1261.28115	0.53928
1259.35259	0.53875
1257.42402	0.53827
1255.49546	0.53779
1253.56689	0.53753
1251.63833	0.53751
1249.70977	0.53745
1247.78120	0.53708
1245.85264	0.53649
1243.92407	0.53596
1241.99551	0.53542
1240.06694	0.53456
1238.13838	0.53336
1236.20981	0.53217
1234.28125	0.53106
1232.35269	0.52986
1230.42412	0.52853
1228.49556	0.52724
1226.56699	0.52599
1224.63843	0.52477
1222.70986	0.52373
1220.78130	0.52275
1218.85273	0.52159
1216.92417	0.52044
1214.99561	0.51951
1213.06704	0.51882
1211.13848	0.51834
1209.20991	0.51787
1207.28135	0.51720
1205.35278	0.51651
1203.42422	0.51599
1201.49565	0.51544
1199.56709	0.51472
1197.63853	0.51392
1195.70996	0.51310
1193.78140	0.51227
1191.85283	0.51145
1189.92427	0.51071
1187.99570	0.51016
1186.06714	0.50990
1184.13857	0.51012
1182.21001	0.51070
1180.28145	0.51131
1178.35288	0.51198
1176.42432	0.51281
1174.49575	0.51367
1172.56719	0.51451
1170.63862	0.51529
1168.71006	0.51609
1166.78149	0.51688
1164.85293	0.51764
1162.92437	0.51832
1160.99580	0.51884
1159.06724	0.51908
1157.13867	0.51893
1155.21011	0.51839
1153.28154	0.51747
1151.35298	0.51601
1149.42441	0.51393
1147.49585	0.51139
1145.56729	0.50869
1143.63872	0.50604
1141.71016	0.50357
1139.78159	0.50128
1137.85303	0.49927
1135.92446	0.49772
1133.99590	0.49669
1132.06733	0.49585
1130.13877	0.49491
1128.21021	0.49404
1126.28164	0.49344
1124.35308	0.49294
1122.42451	0.49251
1120.49595	0.49238
1118.56738	0.49265
1116.63882	0.49308
1114.71025	0.49345
1112.78169	0.49412
1110.85312	0.49532
1108.92456	0.49658
1106.99600	0.49750
1105.06743	0.49823
1103.13887	0.49914
1101.21030	0.50018
1099.28174	0.50126
1097.35317	0.50288
1095.42461	0.50555
1093.49604	0.50940
1091.56748	0.51434
1089.63892	0.52058
1087.71035	0.52834
1085.78179	0.53695
1083.85322	0.54560
1081.92466	0.55362
1079.99609	0.55965
1078.06753	0.56258
1076.13896	0.56238
1074.21040	0.55924
1072.28184	0.55380
1070.35327	0.54715
1068.42471	0.53998
1066.49614	0.53289
1064.56758	0.52665
1062.63901	0.52151
1060.71045	0.51704
1058.78188	0.51290
1056.85332	0.50917
1054.92476	0.50592
1052.99619	0.50292
1051.06763	0.50036
1049.13906	0.49883
1047.21050	0.49828
1045.28193	0.49818
1043.35337	0.49841
1041.42480	0.49889
1039.49624	0.49943
1037.56768	0.49992
1035.63911	0.50011
1033.71055	0.49973
1031.78198	0.49893
1029.85342	0.49777
1027.92485	0.49617
1025.99629	0.49440
1024.06772	0.49299
1022.13916	0.49214
1020.21060	0.49168
1018.28203	0.49151
1016.35347	0.49149
1014.42490	0.49148
1012.49634	0.49131
1010.56777	0.49099
1008.63921	0.49086
1006.71064	0.49127
1004.78208	0.49226
1002.85352	0.49377
1000.92495	0.49610
998.99639	0.49959
997.06782	0.50390
995.13926	0.50824
993.21069	0.51202
991.28213	0.51494
989.35356	0.51697
987.42500	0.51791
985.49644	0.51786
983.56787	0.51761
981.63931	0.51795
979.71074	0.51915
977.78218	0.52094
975.85361	0.52292
973.92505	0.52514
971.99648	0.52780
970.06792	0.53111
968.13936	0.53513
966.21079	0.53943
964.28223	0.54375
962.35366	0.54836
960.42510	0.55329
958.49653	0.55853
956.56797	0.56438
954.63940	0.57092
952.71084	0.57744
950.78228	0.58345
948.85371	0.58968
946.92515	0.59653
944.99658	0.60306
943.06802	0.60897
941.13945	0.61492
939.21089	0.62071
937.28232	0.62589
935.35376	0.63103
933.42520	0.63685
931.49663	0.64306
929.56807	0.64895
927.63950	0.65458
925.71094	0.66027
923.78237	0.66645
921.85381	0.67357
919.92524	0.68112
917.99668	0.68847
916.06812	0.69578
914.13955	0.70263
912.21099	0.70863
910.28242	0.71535
908.35386	0.72402
906.42529	0.73379
904.49673	0.74369
902.56816	0.75402
900.63960	0.76457
898.71104	0.77454
896.78247	0.78424
894.85391	0.79405
892.92534	0.80366
890.99678	0.81267
889.06821	0.82228
887.13965	0.83401
885.21108	0.84656
883.28252	0.85793
881.35396	0.86893
879.42539	0.88112
877.49683	0.89324
875.56826	0.90504
873.63970	0.91801
871.71113	0.93026
869.78257	0.93967
867.85400	0.94917
865.92544	0.96113
863.99687	0.97331
862.06831	0.98392
860.13975	0.99453
858.21118	1.00665
856.28262	1.01876
854.35405	1.03081
852.42549	1.04264
850.49692	1.05179
848.56836	1.06081
846.63979	1.07318
844.71123	1.08782
842.78267	1.10172
840.85410	1.11277
838.92554	1.12216
836.99697	1.13331
835.06841	1.14711
833.13984	1.16018
831.21128	1.16988
829.28271	1.17946
827.35415	1.19154
825.42559	1.20177
823.49702	1.21408
821.56846	1.23251
819.63989	1.24259
817.71133	1.24475
815.78276	1.25616
813.85420	1.27014
811.92563	1.27957
809.99707	1.28864
808.06851	1.29351
806.13994	1.30622
804.21138	1.32981
802.28281	1.34964
800.35425	1.36100
798.42568	1.35491
796.49712	1.33484
794.56855	1.33303
792.63999	1.38002
790.71143	1.45941
788.78286	1.48799
786.85430	1.42194
784.92573	1.33365
782.99717	1.32130
781.06860	1.33591
779.14004	1.34310
777.21147	1.36943
775.28291	1.33261
773.35435	1.24908
771.42578	1.24383
769.49722	1.27939
767.56865	1.24599
765.64009	1.17058
763.71152	1.12707
761.78296	1.09694
759.85439	1.07977
757.92583	1.09055
755.99727	1.09250
754.06870	1.06300
752.14014	1.01390
750.21157	0.92278
748.28301	0.83629
746.35444	0.81470
744.42588	0.83020
742.49731	0.80656
740.56875	0.73523
738.64019	0.65112
736.71162	0.57624
734.78306	0.51845
732.85449	0.42572
730.92593	0.27685
728.99736	0.11965
727.06880	-0.11298
725.14023	-1.13679
723.21167	4.33927
721.28311	4.32770
719.35454	4.31613
717.42598	-0.67913
715.49741	-0.35179
713.56885	-0.20152
711.64028	-0.11826
709.71172	-0.03795
707.78315	0.03158
705.85459	0.08597
703.92603	0.12117
701.99746	0.18624
700.06890	0.24923
698.14033	0.24893
696.21177	0.21792
694.28320	0.20328
692.35464	0.21036
690.42607	0.19593
688.49751	0.15385
686.56895	0.14213
684.64038	0.15163
682.71182	0.13498
680.78325	0.09984
678.85469	0.08842
676.92612	0.11838
674.99756	0.15236
673.06899	0.17029
671.14043	0.18060
669.21187	0.19522
667.28330	0.18878
665.35474	0.16554
663.42617	0.14060
661.49761	0.11600
659.56904	0.12549
657.64048	0.18028
655.71191	0.23126
653.78335	0.26253
651.85479	0.30722
649.92622	0.29195
647.99766	0.19363
646.06909	0.13541
644.14053	0.14899
642.21196	0.17273
640.28340	0.17859
638.35483	0.18520
636.42627	0.19961
634.49771	0.21061
632.56914	0.20646
630.64058	0.21059
628.71201	0.20049
626.78345	0.16746
624.85488	0.16785
622.92632	0.18700
620.99775	0.16643
619.06919	0.14197
617.14062	0.15304
615.21206	0.16288
613.28350	0.14909
611.35493	0.12724
609.42637	0.12380
607.49780	0.13752
605.56924	0.15581
603.64067	0.15011
601.71211	0.10823
599.78354	0.08846
597.85498	0.12120
595.92642	0.16171
593.99785	0.18437
592.06929	0.19071
590.14072	0.19684
588.21216	0.21009
586.28359	0.20699
584.35503	0.19821
582.42646	0.20778
580.49790	0.23699
578.56934	0.24885
576.64077	0.20202
574.71221	0.15832
572.78364	0.16086
570.85508	0.15848
568.92651	0.12922
566.99795	0.14956
565.06938	0.20475
563.14082	0.20561
561.21226	0.15173
559.28369	0.11607
557.35513	0.12595
555.42656	0.15427
553.49800	0.17245
551.56943	0.18981
549.64087	0.19083
547.71230	0.15773
545.78374	0.12205
543.85518	0.09885
541.92661	0.08240
539.99805	0.09128
538.06948	0.09859
536.14092	0.06066
534.21235	0.04015
532.28379	0.08144
530.35522	0.12921
528.42666	0.15277
526.49810	0.17265
524.56953	0.20487
522.64097	0.25876
520.71240	0.26360
518.78384	0.21128
516.85527	0.17140
514.92671	0.16621
512.99814	0.18635
511.06958	0.22243
509.14102	0.26172
507.21245	0.24926
505.28389	0.20130
503.35532	0.17242
501.42676	0.14462
499.49819	0.10695
