3997.91411	0.07137
3995.98555	0.07158
3994.05698	0.07203
3992.12842	0.07225
3990.19985	0.07247
3988.27129	0.07292
3986.34272	0.07327
3984.41416	0.07348
3982.48560	0.07369
3980.55703	0.07394
3978.62847	0.07407
3976.69990	0.07390
3974.77134	0.07366
3972.84277	0.07374
3970.91421	0.07397
3968.98564	0.07419
3967.05708	0.07490
3965.12852	0.07592
3963.19995	0.07630
3961.27139	0.07600
3959.34282	0.07577
3957.41426	0.07565
3955.48569	0.07538
3953.55713	0.07521
3951.62856	0.07543
3949.70000	0.07605
3947.77144	0.07672
3945.84287	0.07675
3943.91431	0.07645
3941.98574	0.07644
3940.05718	0.07624
3938.12861	0.07564
3936.20005	0.07517
3934.27148	0.07540
3932.34292	0.07639
3930.41436	0.07716
3928.48579	0.07691
3926.55723	0.07636
3924.62866	0.07595
3922.70010	0.07551
3920.77153	0.07561
3918.84297	0.07626
3916.91440	0.07627
3914.98584	0.07524
3913.05728	0.07437
3911.12871	0.07443
3909.20015	0.07483
3907.27158	0.07529
3905.34302	0.07606
3903.41445	0.07663
3901.48589	0.07622
3899.55732	0.07543
3897.62876	0.07525
3895.70020	0.07534
3893.77163	0.07541
3891.84307	0.07573
3889.91450	0.07605
3887.98594	0.07630
3886.05737	0.07677
3884.12881	0.07692
3882.20024	0.07658
3880.27168	0.07617
3878.34312	0.07546
3876.41455	0.07507
3874.48599	0.07578
3872.55742	0.07714
3870.62886	0.07829
3868.70029	0.07907
3866.77173	0.07907
3864.84316	0.07859
3862.91460	0.07846
3860.98604	0.07865
3859.05747	0.07870
3857.12891	0.07888
3855.20034	0.07968
3853.27178	0.08130
3851.34321	0.08259
3849.41465	0.08225
3847.48608	0.08179
3845.55752	0.08191
3843.62896	0.08219
3841.70039	0.08231
3839.77183	0.08288
3837.84326	0.08441
3835.91470	0.08607
3833.98613	0.08700
3832.05757	0.08740
3830.12900	0.08764
3828.20044	0.08800
3826.27187	0.08864
3824.34331	0.08933
3822.41475	0.09022
3820.48618	0.09163
3818.55762	0.09230
3816.62905	0.09247
3814.70049	0.09337
3812.77192	0.09421
3810.84336	0.09475
3808.91479	0.09548
3806.98623	0.09653
3805.05767	0.09771
3803.12910	0.09881
3801.20054	0.10055
3799.27197	0.10266
3797.34341	0.10351
3795.41484	0.10354
3793.48628	0.10392
3791.55771	0.10525
3789.62915	0.10710
3787.70059	0.10894
3785.77202	0.11071
3783.84346	0.11200
3781.91489	0.11265
3779.98633	0.11372
3778.05776	0.11579
3776.12920	0.11768
3774.20063	0.11889
3772.27207	0.12026
3770.34351	0.12226
3768.41494	0.12445
3766.48638	0.12628
3764.55781	0.12818
3762.62925	0.12999
3760.70068	0.13183
3758.77212	0.13431
3756.84355	0.13689
3754.91499	0.13902
3752.98643	0.14164
3751.05786	0.14558
3749.12930	0.14948
3747.20073	0.15181
3745.27217	0.15443
3743.34360	0.15814
3741.41504	0.16084
3739.48647	0.16295
3737.55791	0.16613
3735.62935	0.17101
3733.70078	0.17678
3731.77222	0.18097
3729.84365	0.18407
3727.91509	0.18766
3725.98652	0.19266
3724.05796	0.19913
3722.12939	0.20619
3720.20083	0.21344
3718.27227	0.22072
3716.34370	0.22799
3714.41514	0.23537
3712.48657	0.24447
3710.55801	0.25731
3708.62944	0.27115
3706.70088	0.28281
3704.77231	0.29389
3702.84375	0.30635
3700.91519	0.32232
3698.98662	0.34029
3697.05806	0.35756
3695.12949	0.37588
3693.20093	0.39552
3691.27236	0.41647
3689.34380	0.44326
3687.41523	0.47774
3685.48667	0.50914
3683.55811	0.53557
3681.62954	0.56291
3679.70098	0.59318
3677.77241	0.62509
3675.84385	0.66345
3673.91528	0.71540
3671.98672	0.75828
3670.05815	0.79654
3668.12959	0.84865
3666.20103	0.89633
3664.27246	0.93627
3662.34390	0.97899
3660.41533	1.02512
3658.48677	1.07074
3656.55820	1.11955
3654.62964	1.17415
3652.70107	1.21981
3650.77251	1.25914
3648.84395	1.31352
3646.91538	1.37983
3644.98682	1.42846
3643.05825	1.46694
3641.12969	1.50691
3639.20112	1.55061
3637.27256	1.59441
3635.34399	1.63690
3633.41543	1.67909
3631.48687	1.71841
3629.55830	1.75786
3627.62974	1.80885
3625.70117	1.85754
3623.77261	1.89192
3621.84404	1.92504
3619.91548	1.96279
3617.98691	2.00837
3616.05835	2.05208
3614.12979	2.08867
3612.20122	2.12775
3610.27266	2.16706
3608.34409	2.20627
3606.41553	2.24884
3604.48696	2.28876
3602.55840	2.32351
3600.62983	2.35994
3598.70127	2.40050
3596.77271	2.44151
3594.84414	2.48162
3592.91558	2.52147
3590.98701	2.56038
3589.05845	2.59827
3587.12988	2.64241
3585.20132	2.69060
3583.27275	2.73279
3581.34419	2.77127
3579.41562	2.81056
3577.48706	2.85193
3575.55850	2.89473
3573.62993	2.93856
3571.70137	2.98070
3569.77280	3.02081
3567.84424	3.06300
3565.91567	3.11291
3563.98711	3.16196
3562.05854	3.20390
3560.12998	3.24598
3558.20142	3.29145
3556.27285	3.33772
3554.34429	3.38128
3552.41572	3.42636
3550.48716	3.47468
3548.55859	3.52219
3546.63003	3.56799
3544.70146	3.61389
3542.77290	3.66021
3540.84434	3.70728
3538.91577	3.75379
3536.98721	3.79807
3535.05864	3.84684
3533.13008	3.90030
3531.20151	3.94857
3529.27295	3.99077
3527.34438	4.03548
3525.41582	4.08260
3523.48726	4.12870
3521.55869	4.17852
3519.63013	4.23171
3517.70156	4.28393
3515.77300	4.33415
3513.84443	4.38228
3511.91587	4.42772
3509.98730	4.47710
3508.05874	4.53553
3506.13018	4.58968
3504.20161	4.62889
3502.27305	4.66400
3500.34448	4.70502
3498.41592	4.75079
3496.48735	4.80590
3494.55879	4.86751
3492.63022	4.92011
3490.70166	4.96227
3488.77310	5.00485
3486.84453	5.05530
3484.91597	5.11152
3482.98740	5.16211
3481.05884	5.20943
3479.13027	5.26370
3477.20171	5.31815
3475.27314	5.36372
3473.34458	5.40456
3471.41602	5.44779
3469.48745	5.49238
3467.55889	5.53988
3465.63032	5.59367
3463.70176	5.64964
3461.77319	5.70534
3459.84463	5.76101
3457.91606	5.81420
3455.98750	5.87038
3454.05894	5.92584
3452.13037	5.96841
3450.20181	6.00826
3448.27324	6.06172
3446.34468	6.12068
3444.41611	6.16426
3442.48755	6.20941
3440.55898	6.27069
3438.63042	6.32880
3436.70186	6.37706
3434.77329	6.43166
3432.84473	6.48508
3430.91616	6.50764
3428.98760	6.52513
3427.05903	6.56924
3425.13047	6.62630
3423.20190	6.68483
3421.27334	6.75027
3419.34478	6.82735
3417.41621	6.89473
3415.48765	6.90849
3413.55908	6.90860
3411.63052	6.95884
3409.70195	7.01064
3407.77339	7.05317
3405.84482	7.13031
3403.91626	7.19969
3401.98770	7.19980
3400.05913	7.18818
3398.13057	7.24079
3396.20200	7.31483
3394.27344	7.34879
3392.34487	7.35554
3390.41631	7.38959
3388.48774	7.46826
3386.55918	7.56844
3384.63062	7.65550
3382.70205	7.70746
3380.77349	7.73698
3378.84492	7.76105
3376.91636	7.78447
3374.98779	7.81534
3373.05923	7.83385
3371.13066	7.80242
3369.20210	7.80139
3367.27354	7.87955
3365.34497	7.97243
3363.41641	7.99801
3361.48784	7.95281
3359.55928	7.93086
3357.63071	7.96255
3355.70215	8.03523
3353.77358	8.11699
3351.84502	8.14551
3349.91646	8.12285
3347.98789	8.13042
3346.05933	8.17191
3344.13076	8.19491
3342.20220	8.20070
3340.27363	8.19483
3338.34507	8.18565
3336.41650	8.17638
3334.48794	8.15376
3332.55937	8.10361
3330.63081	8.08168
3328.70225	8.10630
3326.77368	8.15192
3324.84512	8.20931
3322.91655	8.25109
3320.98799	8.30629
3319.05942	8.37418
3317.13086	8.36523
3315.20229	8.27856
3313.27373	8.25761
3311.34517	8.28460
3309.41660	8.27381
3307.48804	8.26278
3305.55947	8.25527
3303.63091	8.31439
3301.70234	8.46620
3299.77378	8.54683
3297.84521	8.47208
3295.91665	8.39113
3293.98809	8.36059
3292.05952	8.33871
3290.13096	8.30601
3288.20239	8.26470
3286.27383	8.26763
3284.34526	8.30549
3282.41670	8.34479
3280.48813	8.42578
3278.55957	8.49813
3276.63101	8.41900
3274.70244	8.32375
3272.77388	8.37302
3270.84531	8.43351
3268.91675	8.36342
3266.98818	8.27476
3265.05962	8.26630
3263.13105	8.30497
3261.20249	8.37162
3259.27393	8.35145
3257.34536	8.23780
3255.41680	8.18568
3253.48823	8.17245
3251.55967	8.21686
3249.63110	8.34917
3247.70254	8.43066
3245.77397	8.44195
3243.84541	8.47718
3241.91685	8.44850
3239.98828	8.27843
3238.05972	8.15320
3236.13115	8.23417
3234.20259	8.43960
3232.27402	8.56659
3230.34546	8.59582
3228.41689	8.55896
3226.48833	8.38570
3224.55977	8.20294
3222.63120	8.13881
3220.70264	8.14901
3218.77407	8.21476
3216.84551	8.30490
3214.91694	8.30886
3212.98838	8.16137
3211.05981	8.01289
3209.13125	8.04419
3207.20269	8.18099
3205.27412	8.23380
3203.34556	8.15479
3201.41699	8.02381
3199.48843	7.95092
3197.55986	7.93368
3195.63130	7.89725
3193.70273	7.88199
3191.77417	7.89768
3189.84561	7.84748
3187.91704	7.76462
3185.98848	7.72229
3184.05991	7.66296
3182.13135	7.53960
3180.20278	7.43417
3178.27422	7.41197
3176.34565	7.40880
3174.41709	7.33610
3172.48853	7.23728
3170.55996	7.17522
3168.63140	7.12692
3166.70283	7.07385
3164.77427	7.01978
3162.84570	6.94615
3160.91714	6.85348
3158.98857	6.76568
3157.06001	6.67718
3155.13145	6.59655
3153.20288	6.54502
3151.27432	6.48869
3149.34575	6.41457
3147.41719	6.35638
3145.48862	6.30198
3143.56006	6.22956
3141.63149	6.15644
3139.70293	6.09423
3137.77437	6.03629
3135.84580	5.96572
3133.91724	5.87708
3131.98867	5.78927
3130.06011	5.71465
3128.13154	5.64953
3126.20298	5.58507
3124.27441	5.50864
3122.34585	5.41965
3120.41729	5.33645
3118.48872	5.26717
3116.56016	5.20170
3114.63159	5.13388
3112.70303	5.06884
3110.77446	5.00346
3108.84590	4.92687
3106.91733	4.84797
3104.98877	4.77979
3103.06021	4.71461
3101.13164	4.64323
3099.20308	4.57057
3097.27451	4.50093
3095.34595	4.43311
3093.41738	4.36858
3091.48882	4.30663
3089.56025	4.24192
3087.63169	4.17366
3085.70312	4.10741
3083.77456	4.04528
3081.84600	3.98330
3079.91743	3.91900
3077.98887	3.85431
3076.06030	3.79176
3074.13174	3.73244
3072.20317	3.67447
3070.27461	3.61535
3068.34604	3.55633
3066.41748	3.49878
3064.48892	3.44191
3062.56035	3.38487
3060.63179	3.32839
3058.70322	3.27326
3056.77466	3.21828
3054.84609	3.16312
3052.91753	3.10910
3050.98896	3.05648
3049.06040	3.00478
3047.13184	2.95391
3045.20327	2.90381
3043.27471	2.85415
3041.34614	2.80469
3039.41758	2.75568
3037.48901	2.70738
3035.56045	2.66000
3033.63188	2.61398
3031.70332	2.56911
3029.77476	2.52541
3027.84619	2.48281
3025.91763	2.43972
3023.98906	2.39639
3022.06050	2.35448
3020.13193	2.31294
3018.20337	2.27099
3016.27480	2.22973
3014.34624	2.18951
3012.41768	2.15033
3010.48911	2.11228
3008.56055	2.07527
3006.63198	2.03863
3004.70342	2.00161
3002.77485	1.96503
3000.84629	1.92991
2998.91772	1.89589
2996.98916	1.86244
2995.06060	1.82969
2993.13203	1.79749
2991.20347	1.76584
2989.27490	1.73502
2987.34634	1.70466
2985.41777	1.67411
2983.48921	1.64377
2981.56064	1.61446
2979.63208	1.58605
2977.70352	1.55821
2975.77495	1.53113
2973.84639	1.50474
2971.91782	1.47838
2969.98926	1.45186
2968.06069	1.42592
2966.13213	1.40091
2964.20356	1.37639
2962.27500	1.35204
2960.34644	1.32777
2958.41787	1.30369
2956.48931	1.27978
2954.56074	1.25624
2952.63218	1.23363
2950.70361	1.21187
2948.77505	1.19047
2946.84648	1.16887
2944.91792	1.14689
2942.98936	1.12553
2941.06079	1.10527
2939.13223	1.08527
2937.20366	1.06546
2935.27510	1.04661
2933.34653	1.02890
2931.41797	1.01134
2929.48940	0.99279
2927.56084	0.97368
2925.63228	0.95540
2923.70371	0.93852
2921.77515	0.92207
2919.84658	0.90513
2917.91802	0.88822
2915.98945	0.87201
2914.06089	0.85635
2912.13232	0.84061
2910.20376	0.82477
2908.27520	0.80960
2906.34663	0.79547
2904.41807	0.78160
2902.48950	0.76742
2900.56094	0.75353
2898.63237	0.74040
2896.70381	0.72781
2894.77524	0.71546
2892.84668	0.70316
2890.91812	0.69078
2888.98955	0.67876
2887.06099	0.66761
2885.13242	0.65695
2883.20386	0.64648
2881.27529	0.63638
2879.34673	0.62628
2877.41816	0.61604
2875.48960	0.60587
2873.56104	0.59563
2871.63247	0.58541
2869.70391	0.57544
2867.77534	0.56554
2865.84678	0.55546
2863.91821	0.54519
2861.98965	0.53525
2860.06108	0.52612
2858.13252	0.51740
2856.20396	0.50860
2854.27539	0.49983
2852.34683	0.49139
2850.41826	0.48340
2848.48970	0.47558
2846.56113	0.46761
2844.63257	0.45978
2842.70400	0.45256
2840.77544	0.44580
2838.84687	0.43929
2836.91831	0.43301
2834.98975	0.42694
2833.06118	0.42099
2831.13262	0.41496
2829.20405	0.40888
2827.27549	0.40289
2825.34692	0.39696
2823.41836	0.39092
2821.48979	0.38492
2819.56123	0.37919
2817.63267	0.37369
2815.70410	0.36835
2813.77554	0.36301
2811.84697	0.35764
2809.91841	0.35242
2807.98984	0.34743
2806.06128	0.34248
2804.13271	0.33752
2802.20415	0.33261
2800.27559	0.32781
2798.34702	0.32305
2796.41846	0.31842
2794.48989	0.31411
2792.56133	0.30993
2790.63276	0.30566
2788.70420	0.30142
2786.77563	0.29731
2784.84707	0.29332
2782.91851	0.28930
2780.98994	0.28525
2779.06138	0.28137
2777.13281	0.27779
2775.20425	0.27443
2773.27568	0.27100
2771.34712	0.26737
2769.41855	0.26385
2767.48999	0.26060
2765.56143	0.25747
2763.63286	0.25431
2761.70430	0.25112
2759.77573	0.24799
2757.84717	0.24497
2755.91860	0.24201
2753.99004	0.23911
2752.06147	0.23629
2750.13291	0.23354
2748.20435	0.23091
2746.27578	0.22843
2744.34722	0.22595
2742.41865	0.22334
2740.49009	0.22073
2738.56152	0.21827
2736.63296	0.21594
2734.70439	0.21360
2732.77583	0.21134
2730.84727	0.20929
2728.91870	0.20720
2726.99014	0.20514
2725.06157	0.20333
2723.13301	0.20150
2721.20444	0.19947
2719.27588	0.19741
2717.34731	0.19548
2715.41875	0.19367
2713.49019	0.19180
2711.56162	0.18984
2709.63306	0.18802
2707.70449	0.18642
2705.77593	0.18504
2703.84736	0.18376
2701.91880	0.18238
2699.99023	0.18082
2698.06167	0.17935
2696.13311	0.17815
2694.20454	0.17698
2692.27598	0.17571
2690.34741	0.17453
2688.41885	0.17342
2686.49028	0.17216
2684.56172	0.17078
2682.63315	0.16945
2680.70459	0.16825
2678.77603	0.16727
2676.84746	0.16646
2674.91890	0.16560
2672.99033	0.16456
2671.06177	0.16351
2669.13320	0.16262
2667.20464	0.16182
2665.27607	0.16091
2663.34751	0.15995
2661.41895	0.15920
2659.49038	0.15867
2657.56182	0.15814
2655.63325	0.15744
2653.70469	0.15663
2651.77612	0.15599
2649.84756	0.15562
2647.91899	0.15531
2645.99043	0.15485
2644.06187	0.15421
2642.13330	0.15347
2640.20474	0.15282
2638.27617	0.15236
2636.34761	0.15200
2634.41904	0.15164
2632.49048	0.15129
2630.56191	0.15095
2628.63335	0.15059
2626.70479	0.15025
2624.77622	0.15005
2622.84766	0.14997
2620.91909	0.14985
2618.99053	0.14970
2617.06196	0.14951
2615.13340	0.14932
2613.20483	0.14921
2611.27627	0.14913
2609.34771	0.14896
2607.41914	0.14886
2605.49058	0.14900
2603.56201	0.14921
2601.63345	0.14929
2599.70488	0.14928
2597.77632	0.14935
2595.84775	0.14965
2593.91919	0.14997
2591.99062	0.15004
2590.06206	0.15004
2588.13350	0.15011
2586.20493	0.15018
2584.27637	0.15036
2582.34780	0.15066
2580.41924	0.15098
2578.49067	0.15139
2576.56211	0.15185
2574.63354	0.15231
2572.70498	0.15270
2570.77642	0.15304
2568.84785	0.15347
2566.91929	0.15401
2564.99072	0.15454
2563.06216	0.15496
2561.13359	0.15520
2559.20503	0.15548
2557.27646	0.15607
2555.34790	0.15681
2553.41934	0.15738
2551.49077	0.15786
2549.56221	0.15842
2547.63364	0.15908
2545.70508	0.15977
2543.77651	0.16047
2541.84795	0.16115
2539.91938	0.16179
2537.99082	0.16244
2536.06226	0.16314
2534.13369	0.16389
2532.20513	0.16460
2530.27656	0.16539
2528.34800	0.16630
2526.41943	0.16699
2524.49087	0.16749
2522.56230	0.16818
2520.63374	0.16914
2518.70518	0.17014
2516.77661	0.17098
2514.84805	0.17163
2512.91948	0.17238
2510.99092	0.17327
2509.06235	0.17411
2507.13379	0.17491
2505.20522	0.17579
2503.27666	0.17663
2501.34810	0.17742
2499.41953	0.17840
2497.49097	0.17945
2495.56240	0.18023
2493.63384	0.18085
2491.70527	0.18159
2489.77671	0.18251
2487.84814	0.18356
2485.91958	0.18461
2483.99102	0.18550
2482.06245	0.18632
2480.13389	0.18716
2478.20532	0.18804
2476.27676	0.18898
2474.34819	0.18995
2472.41963	0.19086
2470.49106	0.19177
2468.56250	0.19281
2466.63394	0.19389
2464.70537	0.19489
2462.77681	0.19582
2460.84824	0.19679
2458.91968	0.19779
2456.99111	0.19880
2455.06255	0.19982
2453.13398	0.20078
2451.20542	0.20169
2449.27686	0.20259
2447.34829	0.20349
2445.41973	0.20439
2443.49116	0.20539
2441.56260	0.20654
2439.63403	0.20770
2437.70547	0.20877
2435.77690	0.20973
2433.84834	0.21066
2431.91978	0.21172
2429.99121	0.21290
2428.06265	0.21405
2426.13408	0.21517
2424.20552	0.21628
2422.27695	0.21739
2420.34839	0.21858
2418.41982	0.21976
2416.49126	0.22091
2414.56270	0.22214
2412.63413	0.22340
2410.70557	0.22449
2408.77700	0.22549
2406.84844	0.22657
2404.91987	0.22772
2402.99131	0.22890
2401.06274	0.23015
2399.13418	0.23146
2397.20562	0.23272
2395.27705	0.23389
2393.34849	0.23521
2391.41992	0.23664
2389.49136	0.23792
2387.56279	0.23904
2385.63423	0.24024
2383.70566	0.24154
2381.77710	0.24280
2379.84854	0.24399
2377.91997	0.24510
2375.99141	0.24625
2374.06284	0.24760
2372.13428	0.24907
2370.20571	0.25062
2368.27715	0.25244
2366.34858	0.25460
2364.42002	0.25642
2362.49146	0.25740
2360.56289	0.25842
2358.63433	0.25917
2356.70576	0.25942
2354.77720	0.26118
2352.84863	0.26432
2350.92007	0.26680
2348.99150	0.26802
2347.06294	0.26864
2345.13437	0.26983
2343.20581	0.27227
2341.27725	0.27439
2339.34868	0.27561
2337.42012	0.27722
2335.49155	0.27887
2333.56299	0.28024
2331.63442	0.28235
2329.70586	0.28488
2327.77729	0.28658
2325.84873	0.28790
2323.92017	0.28978
2321.99160	0.29171
2320.06304	0.29314
2318.13447	0.29441
2316.20591	0.29566
2314.27734	0.29698
2312.34878	0.29861
2310.42021	0.30062
2308.49165	0.30279
2306.56309	0.30486
2304.63452	0.30678
2302.70596	0.30864
2300.77739	0.31051
2298.84883	0.31241
2296.92026	0.31430
2294.99170	0.31606
2293.06313	0.31781
2291.13457	0.31971
2289.20601	0.32171
2287.27744	0.32367
2285.34888	0.32566
2283.42031	0.32765
2281.49175	0.32954
2279.56318	0.33141
2277.63462	0.33338
2275.70605	0.33539
2273.77749	0.33744
2271.84893	0.33949
2269.92036	0.34142
2267.99180	0.34347
2266.06323	0.34593
2264.13467	0.34842
2262.20610	0.35054
2260.27754	0.35249
2258.34897	0.35460
2256.42041	0.35683
2254.49185	0.35904
2252.56328	0.36122
2250.63472	0.36338
2248.70615	0.36552
2246.77759	0.36770
2244.84902	0.36996
2242.92046	0.37212
2240.99189	0.37420
2239.06333	0.37639
2237.13477	0.37866
2235.20620	0.38088
2233.27764	0.38307
2231.34907	0.38532
2229.42051	0.38765
2227.49194	0.38997
2225.56338	0.39223
2223.63481	0.39455
2221.70625	0.39683
2219.77769	0.39891
2217.84912	0.40095
2215.92056	0.40312
2213.99199	0.40530
2212.06343	0.40741
2210.13486	0.40949
2208.20630	0.41158
2206.27773	0.41367
2204.34917	0.41577
2202.42061	0.41793
2200.49204	0.42010
2198.56348	0.42217
2196.63491	0.42421
2194.70635	0.42626
2192.77778	0.42820
2190.84922	0.43006
2188.92065	0.43193
2186.99209	0.43365
2185.06353	0.43520
2183.13496	0.43675
2181.20640	0.43841
2179.27783	0.44014
2177.34927	0.44184
2175.42070	0.44348
2173.49214	0.44507
2171.56357	0.44651
2169.63501	0.44770
2167.70645	0.44884
2165.77788	0.45024
2163.84932	0.45168
2161.92075	0.45277
2159.99219	0.45364
2158.06362	0.45461
2156.13506	0.45560
2154.20649	0.45640
2152.27793	0.45710
2150.34937	0.45784
2148.42080	0.45867
2146.49224	0.45946
2144.56367	0.46000
2142.63511	0.46028
2140.70654	0.46050
2138.77798	0.46074
2136.84941	0.46081
2134.92085	0.46078
2132.99229	0.46078
2131.06372	0.46071
2129.13516	0.46051
2127.20659	0.46026
2125.27803	0.46001
2123.34946	0.45957
2121.42090	0.45896
2119.49233	0.45832
2117.56377	0.45765
2115.63521	0.45689
2113.70664	0.45611
2111.77808	0.45528
2109.84951	0.45434
2107.92095	0.45334
2105.99238	0.45221
2104.06382	0.45090
2102.13525	0.44951
2100.20669	0.44814
2098.27812	0.44667
2096.34956	0.44514
2094.42100	0.44362
2092.49243	0.44197
2090.56387	0.44012
2088.63530	0.43824
2086.70674	0.43641
2084.77817	0.43461
2082.84961	0.43278
2080.92104	0.43079
2078.99248	0.42863
2077.06392	0.42640
2075.13535	0.42426
2073.20679	0.42215
2071.27822	0.41997
2069.34966	0.41771
2067.42109	0.41541
2065.49253	0.41305
2063.56396	0.41057
2061.63540	0.40809
2059.70684	0.40569
2057.77827	0.40314
2055.84971	0.40035
2053.92114	0.39758
2051.99258	0.39511
2050.06401	0.39281
2048.13545	0.39035
2046.20688	0.38762
2044.27832	0.38481
2042.34976	0.38206
2040.42119	0.37939
2038.49263	0.37671
2036.56406	0.37392
2034.63550	0.37105
2032.70693	0.36824
2030.77837	0.36566
2028.84980	0.36313
2026.92124	0.36040
2024.99268	0.35752
2023.06411	0.35465
2021.13555	0.35178
2019.20698	0.34901
2017.27842	0.34632
2015.34985	0.34351
2013.42129	0.34064
2011.49272	0.33785
2009.56416	0.33514
2007.63560	0.33244
2005.70703	0.32977
2003.77847	0.32713
2001.84990	0.32450
1999.92134	0.32185
1997.99277	0.31918
1996.06421	0.31655
1994.13564	0.31412
1992.20708	0.31180
1990.27852	0.30932
1988.34995	0.30672
1986.42139	0.30408
1984.49282	0.30151
1982.56426	0.29916
1980.63569	0.29698
1978.70713	0.29488
1976.77856	0.29274
1974.85000	0.29050
1972.92144	0.28825
1970.99287	0.28614
1969.06431	0.28414
1967.13574	0.28207
1965.20718	0.27995
1963.27861	0.27800
1961.35005	0.27618
1959.42148	0.27437
1957.49292	0.27257
1955.56436	0.27076
1953.63579	0.26895
1951.70723	0.26724
1949.77866	0.26562
1947.85010	0.26403
1945.92153	0.26253
1943.99297	0.26109
1942.06440	0.25964
1940.13584	0.25818
1938.20728	0.25675
1936.27871	0.25533
1934.35015	0.25397
1932.42158	0.25284
1930.49302	0.25180
1928.56445	0.25063
1926.63589	0.24944
1924.70732	0.24844
1922.77876	0.24755
1920.85020	0.24663
1918.92163	0.24578
1916.99307	0.24497
1915.06450	0.24410
1913.13594	0.24326
1911.20737	0.24260
1909.27881	0.24197
1907.35024	0.24125
1905.42168	0.24051
1903.49312	0.23984
1901.56455	0.23929
1899.63599	0.23886
1897.70742	0.23847
1895.77886	0.23801
1893.85029	0.23756
1891.92173	0.23720
1889.99316	0.23697
1888.06460	0.23682
1886.13604	0.23669
1884.20747	0.23660
1882.27891	0.23652
1880.35034	0.23641
1878.42178	0.23626
1876.49321	0.23614
1874.56465	0.23612
1872.63608	0.23625
1870.70752	0.23646
1868.77896	0.23682
1866.85039	0.23716
1864.92183	0.23729
1862.99326	0.23742
1861.06470	0.23764
1859.13613	0.23798
1857.20757	0.23827
1855.27900	0.23864
1853.35044	0.23911
1851.42187	0.23967
1849.49331	0.24023
1847.56475	0.24084
1845.63618	0.24165
1843.70762	0.24268
1841.77905	0.24352
1839.85049	0.24405
1837.92192	0.24488
1835.99336	0.24585
1834.06479	0.24675
1832.13623	0.24760
1830.20767	0.24888
1828.27910	0.25040
1826.35054	0.25154
1824.42197	0.25273
1822.49341	0.25402
1820.56484	0.25541
1818.63628	0.25687
1816.70771	0.25846
1814.77915	0.26004
1812.85059	0.26175
1810.92202	0.26378
1808.99346	0.26585
1807.06489	0.26787
1805.13633	0.26988
1803.20776	0.27212
1801.27920	0.27457
1799.35063	0.27727
1797.42207	0.27974
1795.49351	0.28208
1793.56494	0.28481
1791.63638	0.28840
1789.70781	0.29201
1787.77925	0.29483
1785.85068	0.29807
1783.92212	0.30180
1781.99355	0.30568
1780.06499	0.30978
1778.13643	0.31417
1776.20786	0.31844
1774.27930	0.32288
1772.35073	0.32850
1770.42217	0.33470
1768.49360	0.34029
1766.56504	0.34567
1764.63647	0.35102
1762.70791	0.35676
1760.77935	0.36409
1758.85078	0.37121
1756.92222	0.37847
1754.99365	0.38643
1753.06509	0.39364
1751.13652	0.40187
1749.20796	0.41217
1747.27939	0.42271
1745.35083	0.43220
1743.42227	0.44216
1741.49370	0.45304
1739.56514	0.46564
1737.63657	0.47823
1735.70801	0.48934
1733.77944	0.50582
1731.85088	0.52555
1729.92231	0.54121
1727.99375	0.55694
1726.06519	0.57387
1724.13662	0.59239
1722.20806	0.61235
1720.27949	0.63067
1718.35093	0.65180
1716.42236	0.68308
1714.49380	0.71358
1712.56523	0.73861
1710.63667	0.76267
1708.70811	0.78829
1706.77954	0.81706
1704.85098	0.85137
1702.92241	0.88245
1700.99385	0.91307
1699.06528	0.95744
1697.13672	0.99839
1695.20815	1.04160
1693.27959	1.08357
1691.35103	1.11674
1689.42246	1.15441
1687.49390	1.19396
1685.56533	1.23191
1683.63677	1.29018
1681.70820	1.35114
1679.77964	1.39099
1677.85107	1.42909
1675.92251	1.47247
1673.99395	1.52530
1672.06538	1.57214
1670.13682	1.61775
1668.20825	1.67634
1666.27969	1.72464
1664.35112	1.76581
1662.42256	1.81579
1660.49399	1.87099
1658.56543	1.91465
1656.63687	1.95062
1654.70830	1.98416
1652.77974	2.03817
1650.85117	2.09022
1648.92261	2.11010
1646.99404	2.13532
1645.06548	2.16445
1643.13691	2.18416
1641.20835	2.19593
1639.27979	2.20641
1637.35122	2.21332
1635.42266	2.21294
1633.49409	2.20478
1631.56553	2.19218
1629.63696	2.17631
1627.70840	2.14983
1625.77983	2.11904
1623.85127	2.08082
1621.92271	2.03398
1619.99414	1.99192
1618.06558	1.95073
1616.13701	1.89185
1614.20845	1.83089
1612.27988	1.78395
1610.35132	1.73512
1608.42275	1.68216
1606.49419	1.62986
1604.56562	1.58150
1602.63706	1.53464
1600.70850	1.48886
1598.77993	1.44660
1596.85137	1.40611
1594.92280	1.36613
1592.99424	1.32769
1591.06567	1.29277
1589.13711	1.26037
1587.20854	1.23046
1585.27998	1.20264
1583.35142	1.17613
1581.42285	1.15160
1579.49429	1.13036
1577.56572	1.11098
1575.63716	1.08751
1573.70859	1.06702
1571.78003	1.05354
1569.85146	1.03892
1567.92290	1.02235
1565.99434	1.00978
1564.06577	0.99969
1562.13721	0.99120
1560.20864	0.98404
1558.28008	0.97372
1556.35151	0.96558
1554.42295	0.96060
1552.49438	0.95516
1550.56582	0.94873
1548.63726	0.94113
1546.70869	0.93348
1544.78013	0.92498
1542.85156	0.91486
1540.92300	0.90230
1538.99443	0.88366
1537.06587	0.86952
1535.13730	0.85999
1533.20874	0.84763
1531.28018	0.83438
1529.35161	0.82498
1527.42305	0.81622
1525.49448	0.80681
1523.56592	0.79864
1521.63735	0.79075
1519.70879	0.78206
1517.78022	0.77453
1515.85166	0.76668
1513.92310	0.75894
1511.99453	0.75239
1510.06597	0.74639
1508.13740	0.74035
1506.20884	0.73109
1504.28027	0.72307
1502.35171	0.71844
1500.42314	0.71411
1498.49458	0.70945
1496.56602	0.70448
1494.63745	0.69969
1492.70889	0.69573
1490.78032	0.69200
1488.85176	0.68744
1486.92319	0.68291
1484.99463	0.67930
1483.06606	0.67634
1481.13750	0.67362
1479.20894	0.67118
1477.28037	0.66928
1475.35181	0.66772
1473.42324	0.66623
1471.49468	0.66418
1469.56611	0.66188
1467.63755	0.65972
1465.70898	0.65753
1463.78042	0.65532
1461.85186	0.65367
1459.92329	0.65279
1457.99473	0.65220
1456.06616	0.65070
1454.13760	0.64842
1452.20903	0.64626
1450.28047	0.64405
1448.35190	0.64201
1446.42334	0.64016
1444.49478	0.63822
1442.56621	0.63623
1440.63765	0.63437
1438.70908	0.63264
1436.78052	0.63053
1434.85195	0.62799
1432.92339	0.62575
1430.99482	0.62398
1429.06626	0.62248
1427.13770	0.62127
1425.20913	0.62042
1423.28057	0.61982
1421.35200	0.61922
1419.42344	0.61855
1417.49487	0.61758
1415.56631	0.61626
1413.63774	0.61503
1411.70918	0.61418
1409.78062	0.61376
1407.85205	0.61353
1405.92349	0.61332
1403.99492	0.61302
1402.06636	0.61244
1400.13779	0.61157
1398.20923	0.61023
1396.28066	0.60839
1394.35210	0.60606
1392.42354	0.60344
1390.49497	0.60100
1388.56641	0.59875
1386.63784	0.59625
1384.70928	0.59352
1382.78071	0.59098
1380.85215	0.58868
1378.92358	0.58664
1376.99502	0.58491
1375.06646	0.58357
1373.13789	0.58249
1371.20933	0.58147
1369.28076	0.58041
1367.35220	0.57916
1365.42363	0.57787
1363.49507	0.57677
1361.56650	0.57581
1359.63794	0.57475
1357.70937	0.57365
1355.78081	0.57267
1353.85225	0.57172
1351.92368	0.57075
1349.99512	0.56990
1348.06655	0.56916
1346.13799	0.56835
1344.20942	0.56745
1342.28086	0.56648
1340.35229	0.56557
1338.42373	0.56475
1336.49517	0.56392
1334.56660	0.56311
1332.63804	0.56248
1330.70947	0.56205
1328.78091	0.56181
1326.85234	0.56163
1324.92378	0.56134
1322.99521	0.56107
1321.06665	0.56098
1319.13809	0.56091
1317.20952	0.56058
1315.28096	0.56001
1313.35239	0.55939
1311.42383	0.55874
1309.49526	0.55800
1307.56670	0.55726
1305.63813	0.55663
1303.70957	0.55606
1301.78101	0.55552
1299.85244	0.55494
1297.92388	0.55417
1295.99531	0.55325
1294.06675	0.55229
1292.13818	0.55134
1290.20962	0.55047
1288.28105	0.54978
1286.35249	0.54912
1284.42393	0.54837
1282.49536	0.54745
1280.56680	0.54638
1278.63823	0.54542
1276.70967	0.54477
1274.78110	0.54425
1272.85254	0.54365
1270.92397	0.54294
1268.99541	0.54230
1267.06685	0.54176
1265.13828	0.54113
1263.20972	0.54053
1261.28115	0.54013
1259.35259	0.53977
1257.42402	0.53927
1255.49546	0.53869
1253.56689	0.53829
1251.63833	0.53815
1249.70977	0.53808
1247.78120	0.53791
1245.85264	0.53760
1243.92407	0.53711
1241.99551	0.53656
1240.06694	0.53588
1238.13838	0.53490
1236.20981	0.53368
1234.28125	0.53247
1232.35269	0.53140
1230.42412	0.53030
1228.49556	0.52915
1226.56699	0.52798
1224.63843	0.52674
1222.70986	0.52546
1220.78130	0.52439
1218.85273	0.52357
1216.92417	0.52275
1214.99561	0.52187
1213.06704	0.52109
1211.13848	0.52050
1209.20991	0.51996
1207.28135	0.51918
1205.35278	0.51816
1203.42422	0.51739
1201.49565	0.51697
1199.56709	0.51644
1197.63853	0.51571
1195.70996	0.51501
1193.78140	0.51442
1191.85283	0.51397
1189.92427	0.51356
1187.99570	0.51320
1186.06714	0.51302
1184.13857	0.51302
1182.21001	0.51319
1180.28145	0.51347
1178.35288	0.51388
1176.42432	0.51458
1174.49575	0.51539
1172.56719	0.51595
1170.63862	0.51626
1168.71006	0.51656
1166.78149	0.51692
1164.85293	0.51719
1162.92437	0.51717
1160.99580	0.51699
1159.06724	0.51691
1157.13867	0.51672
1155.21011	0.51609
1153.28154	0.51498
1151.35298	0.51359
1149.42441	0.51193
1147.49585	0.50981
1145.56729	0.50734
1143.63872	0.50479
1141.71016	0.50229
1139.78159	0.50012
1137.85303	0.49855
1135.92446	0.49724
1133.99590	0.49583
1132.06733	0.49447
1130.13877	0.49319
1128.21021	0.49191
1126.28164	0.49080
1124.35308	0.48994
1122.42451	0.48930
1120.49595	0.48887
1118.56738	0.48858
1116.63882	0.48854
1114.71025	0.48881
1112.78169	0.48923
1110.85312	0.48976
1108.92456	0.49036
1106.99600	0.49117
1105.06743	0.49243
1103.13887	0.49401
1101.21030	0.49566
1099.28174	0.49746
1097.35317	0.49981
1095.42461	0.50280
1093.49604	0.50639
1091.56748	0.51073
1089.63892	0.51582
1087.71035	0.52169
1085.78179	0.52837
1083.85322	0.53553
1081.92466	0.54268
1079.99609	0.54884
1078.06753	0.55272
1076.13896	0.55357
1074.21040	0.55139
1072.28184	0.54672
1070.35327	0.54060
1068.42471	0.53379
1066.49614	0.52687
1064.56758	0.52045
1062.63901	0.51476
1060.71045	0.50979
1058.78188	0.50542
1056.85332	0.50125
1054.92476	0.49740
1052.99619	0.49425
1051.06763	0.49177
1049.13906	0.48997
1047.21050	0.48881
1045.28193	0.48779
1043.35337	0.48670
1041.42480	0.48586
1039.49624	0.48546
1037.56768	0.48535
1035.63911	0.48531
1033.71055	0.48521
1031.78198	0.48485
1029.85342	0.48419
1027.92485	0.48351
1025.99629	0.48303
1024.06772	0.48292
1022.13916	0.48313
1020.21060	0.48348
1018.28203	0.48400
1016.35347	0.48471
1014.42490	0.48532
1012.49634	0.48577
1010.56777	0.48634
1008.63921	0.48720
1006.71064	0.48840
1004.78208	0.49005
1002.85352	0.49221
1000.92495	0.49485
998.99639	0.49805
997.06782	0.50195
995.13926	0.50629
993.21069	0.51043
991.28213	0.51371
989.35356	0.51598
987.42500	0.51729
985.49644	0.51783
983.56787	0.51823
981.63931	0.51901
979.71074	0.52018
977.78218	0.52178
975.85361	0.52396
973.92505	0.52674
971.99648	0.53001
970.06792	0.53374
968.13936	0.53784
966.21079	0.54202
964.28223	0.54639
962.35366	0.55133
960.42510	0.55658
958.49653	0.56184
956.56797	0.56733
954.63940	0.57320
952.71084	0.57938
950.78228	0.58586
948.85371	0.59265
946.92515	0.59953
944.99658	0.60602
943.06802	0.61210
941.13945	0.61817
939.21089	0.62420
937.28232	0.63004
935.35376	0.63595
933.42520	0.64205
931.49663	0.64776
929.56807	0.65299
927.63950	0.65864
925.71094	0.66535
923.78237	0.67250
921.85381	0.67932
919.92524	0.68594
917.99668	0.69262
916.06812	0.69946
914.13955	0.70695
912.21099	0.71523
910.28242	0.72339
908.35386	0.73116
906.42529	0.73936
904.49673	0.74755
902.56816	0.75585
900.63960	0.76600
898.71104	0.77816
896.78247	0.79050
894.85391	0.80101
892.92534	0.80990
890.99678	0.81932
889.06821	0.82999
887.13965	0.84127
885.21108	0.85275
883.28252	0.86432
881.35396	0.87524
879.42539	0.88543
877.49683	0.89654
875.56826	0.90907
873.63970	0.92173
871.71113	0.93291
869.78257	0.94288
867.85400	0.95390
865.92544	0.96653
863.99687	0.98052
862.06831	0.99409
860.13975	1.00533
858.21118	1.01694
856.28262	1.02946
854.35405	1.03990
852.42549	1.04897
850.49692	1.05965
848.56836	1.07129
846.63979	1.08167
844.71123	1.09199
842.78267	1.10406
840.85410	1.11743
838.92554	1.12946
836.99697	1.14090
835.06841	1.15524
833.13984	1.16927
831.21128	1.17986
829.28271	1.19090
827.35415	1.20468
825.42559	1.21900
823.49702	1.23199
821.56846	1.24455
819.63989	1.26107
817.71133	1.28360
815.78276	1.30215
813.85420	1.29826
811.92563	1.28166
809.99707	1.28284
808.06851	1.30504
806.13994	1.32875
804.21138	1.33838
802.28281	1.34447
800.35425	1.36405
798.42568	1.37789
796.49712	1.36899
794.56855	1.38013
792.63999	1.43020
790.71143	1.46540
788.78286	1.49363
786.85430	1.53921
784.92573	1.50414
782.99717	1.42832
781.06860	1.43752
779.14004	1.51330
777.21147	1.59182
775.28291	1.74485
773.35435	1.86458
771.42578	1.69232
769.49722	1.56978
767.56865	1.58815
765.64009	1.63824
763.71152	1.71223
761.78296	2.09276
759.85439	1.77997
757.92583	1.33218
755.99727	1.22890
754.06870	1.22673
752.14014	1.26065
750.21157	1.33573
748.28301	1.49604
746.35444	1.69611
744.42588	1.32962
742.49731	1.01806
740.56875	0.92079
738.64019	0.94863
736.71162	1.05512
734.78306	1.45824
732.85449	4.39713
730.92593	1.23087
728.99736	0.84342
727.06880	0.80404
725.14023	0.80364
723.21167	0.70607
721.28311	0.58401
719.35454	0.49788
717.42598	0.50880
715.49741	0.57206
713.56885	0.56664
711.64028	0.48686
709.71172	0.45405
707.78315	0.54491
705.85459	0.65063
703.92603	0.45520
701.99746	0.29914
700.06890	0.25250
698.14033	0.22395
696.21177	0.18123
694.28320	0.22085
692.35464	0.32466
690.42607	0.36679
688.49751	0.31534
686.56895	0.28549
684.64038	0.30978
682.71182	0.35886
680.78325	0.39053
678.85469	0.36825
676.92612	0.32650
674.99756	0.31424
673.06899	0.36128
671.14043	0.46340
669.21187	0.62603
667.28330	0.77022
665.35474	0.58750
663.42617	0.38608
661.49761	0.32785
659.56904	0.50149
657.64048	0.76930
655.71191	0.40272
653.78335	0.21117
651.85479	0.22221
649.92622	0.36686
647.99766	0.42837
646.06909	0.42494
644.14053	0.43201
642.21196	0.38007
640.28340	0.37819
638.35483	0.44414
636.42627	0.39519
634.49771	0.24548
632.56914	0.17720
630.64058	0.25063
628.71201	0.35826
626.78345	0.40240
624.85488	0.49726
622.92632	0.74704
620.99775	0.58541
619.06919	0.35032
617.14062	0.23813
615.21206	0.19335
613.28350	0.20215
611.35493	0.29025
609.42637	0.39742
607.49780	0.35787
605.56924	0.29175
603.64067	0.27894
601.71211	0.24981
599.78354	0.24055
597.85498	0.30944
595.92642	0.34671
593.99785	0.32044
592.06929	0.39283
590.14072	0.44212
588.21216	0.33924
586.28359	0.29419
584.35503	0.29546
582.42646	0.28683
580.49790	0.34738
578.56934	0.35976
576.64077	0.25984
574.71221	0.23730
572.78364	0.25747
570.85508	0.26865
568.92651	0.25761
566.99795	0.22201
565.06938	0.19512
563.14082	0.18724
561.21226	0.19278
559.28369	0.20716
557.35513	0.22108
555.42656	0.26919
553.49800	0.36435
551.56943	0.40699
549.64087	0.36493
547.71230	0.37242
545.78374	0.48796
543.85518	0.52898
541.92661	0.46822
539.99805	0.36698
538.06948	0.19900
536.14092	0.16750
534.21235	0.31722
532.28379	0.42621
530.35522	0.31694
528.42666	0.21567
526.49810	0.17374
524.56953	0.14301
522.64097	0.13158
520.71240	0.14870
518.78384	0.16181
516.85527	0.20137
514.92671	0.26932
512.99814	0.27335
511.06958	0.22533
509.14102	0.17536
507.21245	0.13304
505.28389	0.13961
503.35532	0.21123
501.42676	0.28879
499.49819	0.34737
