3997.91411	0.06895
3995.98555	0.06878
3994.05698	0.06874
3992.12842	0.06939
3990.19985	0.07031
3988.27129	0.07050
3986.34272	0.07003
3984.41416	0.06990
3982.48560	0.07038
3980.55703	0.07086
3978.62847	0.07104
3976.69990	0.07139
3974.77134	0.07210
3972.84277	0.07254
3970.91421	0.07260
3968.98564	0.07270
3967.05708	0.07287
3965.12852	0.07306
3963.19995	0.07318
3961.27139	0.07321
3959.34282	0.07319
3957.41426	0.07306
3955.48569	0.07280
3953.55713	0.07257
3951.62856	0.07258
3949.70000	0.07293
3947.77144	0.07335
3945.84287	0.07359
3943.91431	0.07396
3941.98574	0.07440
3940.05718	0.07415
3938.12861	0.07348
3936.20005	0.07312
3934.27148	0.07301
3932.34292	0.07296
3930.41436	0.07287
3928.48579	0.07285
3926.55723	0.07307
3924.62866	0.07331
3922.70010	0.07311
3920.77153	0.07247
3918.84297	0.07200
3916.91440	0.07205
3914.98584	0.07216
3913.05728	0.07207
3911.12871	0.07192
3909.20015	0.07187
3907.27158	0.07225
3905.34302	0.07305
3903.41445	0.07349
3901.48589	0.07305
3899.55732	0.07265
3897.62876	0.07281
3895.70020	0.07304
3893.77163	0.07328
3891.84307	0.07341
3889.91450	0.07317
3887.98594	0.07297
3886.05737	0.07309
3884.12881	0.07322
3882.20024	0.07331
3880.27168	0.07345
3878.34312	0.07350
3876.41455	0.07366
3874.48599	0.07405
3872.55742	0.07445
3870.62886	0.07482
3868.70029	0.07515
3866.77173	0.07534
3864.84316	0.07580
3862.91460	0.07642
3860.98604	0.07679
3859.05747	0.07698
3857.12891	0.07713
3855.20034	0.07744
3853.27178	0.07815
3851.34321	0.07857
3849.41465	0.07828
3847.48608	0.07812
3845.55752	0.07825
3843.62896	0.07892
3841.70039	0.08006
3839.77183	0.08086
3837.84326	0.08137
3835.91470	0.08215
3833.98613	0.08286
3832.05757	0.08333
3830.12900	0.08369
3828.20044	0.08390
3826.27187	0.08443
3824.34331	0.08563
3822.41475	0.08701
3820.48618	0.08850
3818.55762	0.08944
3816.62905	0.08972
3814.70049	0.09032
3812.77192	0.09080
3810.84336	0.09102
3808.91479	0.09170
3806.98623	0.09317
3805.05767	0.09512
3803.12910	0.09685
3801.20054	0.09833
3799.27197	0.09935
3797.34341	0.09995
3795.41484	0.10096
3793.48628	0.10219
3791.55771	0.10310
3789.62915	0.10384
3787.70059	0.10482
3785.77202	0.10626
3783.84346	0.10788
3781.91489	0.10940
3779.98633	0.11092
3778.05776	0.11270
3776.12920	0.11448
3774.20063	0.11628
3772.27207	0.11818
3770.34351	0.11979
3768.41494	0.12120
3766.48638	0.12288
3764.55781	0.12485
3762.62925	0.12694
3760.70068	0.12915
3758.77212	0.13135
3756.84355	0.13316
3754.91499	0.13484
3752.98643	0.13725
3751.05786	0.14107
3749.12930	0.14499
3747.20073	0.14708
3745.27217	0.14963
3743.34360	0.15420
3741.41504	0.15797
3739.48647	0.16046
3737.55791	0.16355
3735.62935	0.16801
3733.70078	0.17323
3731.77222	0.17790
3729.84365	0.18268
3727.91509	0.18744
3725.98652	0.19235
3724.05796	0.19796
3722.12939	0.20439
3720.20083	0.21140
3718.27227	0.21856
3716.34370	0.22608
3714.41514	0.23391
3712.48657	0.24288
3710.55801	0.25488
3708.62944	0.26818
3706.70088	0.27971
3704.77231	0.29085
3702.84375	0.30391
3700.91519	0.32041
3698.98662	0.33817
3697.05806	0.35542
3695.12949	0.37401
3693.20093	0.39339
3691.27236	0.41369
3689.34380	0.44029
3687.41523	0.47474
3685.48667	0.50575
3683.55811	0.53185
3681.62954	0.55899
3679.70098	0.58936
3677.77241	0.62144
3675.84385	0.65910
3673.91528	0.71050
3671.98672	0.75438
3670.05815	0.79319
3668.12959	0.84487
3666.20103	0.89235
3664.27246	0.93258
3662.34390	0.97586
3660.41533	1.02272
3658.48677	1.06866
3656.55820	1.11664
3654.62964	1.17026
3652.70107	1.21639
3650.77251	1.25628
3648.84395	1.30932
3646.91538	1.37472
3644.98682	1.42505
3643.05825	1.46507
3641.12969	1.50584
3639.20112	1.54977
3637.27256	1.59334
3635.34399	1.63580
3633.41543	1.67822
3631.48687	1.71763
3629.55830	1.75715
3627.62974	1.80852
3625.70117	1.85753
3623.77261	1.89165
3621.84404	1.92443
3619.91548	1.96232
3617.98691	2.00818
3616.05835	2.05124
3614.12979	2.08627
3612.20122	2.12431
3610.27266	2.16373
3608.34409	2.20291
3606.41553	2.24546
3604.48696	2.28637
3602.55840	2.32260
3600.62983	2.36003
3598.70127	2.39968
3596.77271	2.43986
3594.84414	2.48238
3592.91558	2.52436
3590.98701	2.56078
3589.05845	2.59448
3587.12988	2.63748
3585.20132	2.68695
3583.27275	2.72921
3581.34419	2.76762
3579.41562	2.80733
3577.48706	2.84958
3575.55850	2.89355
3573.62993	2.93778
3571.70137	2.97983
3569.77280	3.01919
3567.84424	3.06023
3565.91567	3.11221
3563.98711	3.16575
3562.05854	3.21020
3560.12998	3.25240
3558.20142	3.29511
3556.27285	3.33876
3554.34429	3.38344
3552.41572	3.43073
3550.48716	3.47773
3548.55859	3.52114
3546.63003	3.56532
3544.70146	3.61440
3542.77290	3.66583
3540.84434	3.71494
3538.91577	3.75936
3536.98721	3.80184
3535.05864	3.84828
3533.13008	3.89601
3531.20151	3.94282
3529.27295	3.98996
3527.34438	4.03812
3525.41582	4.08721
3523.48726	4.13637
3521.55869	4.18705
3519.63013	4.23902
3517.70156	4.28986
3515.77300	4.33658
3513.84443	4.38164
3511.91587	4.42967
3509.98730	4.47976
3508.05874	4.52920
3506.13018	4.57500
3504.20161	4.61557
3502.27305	4.65765
3500.34448	4.71033
3498.41592	4.77150
3496.48735	4.83202
3494.55879	4.88696
3492.63022	4.93767
3490.70166	4.98592
3488.77310	5.03491
3486.84453	5.08528
3484.91597	5.13506
3482.98740	5.18536
3481.05884	5.23746
3479.13027	5.28740
3477.20171	5.32856
3475.27314	5.36516
3473.34458	5.40724
3471.41602	5.45548
3469.48745	5.50971
3467.55889	5.56808
3465.63032	5.61323
3463.70176	5.64051
3461.77319	5.67582
3459.84463	5.73679
3457.91606	5.81106
3455.98750	5.88170
3454.05894	5.93553
3452.13037	5.97952
3450.20181	6.03708
3448.27324	6.09865
3446.34468	6.13815
3444.41611	6.16476
3442.48755	6.21495
3440.55898	6.28065
3438.63042	6.33106
3436.70186	6.36482
3434.77329	6.39235
3432.84473	6.42869
3430.91616	6.48424
3428.98760	6.55644
3427.05903	6.62859
3425.13047	6.68862
3423.20190	6.73233
3421.27334	6.76969
3419.34478	6.80540
3417.41621	6.83680
3415.48765	6.87650
3413.55908	6.93909
3411.63052	7.02431
3409.70195	7.08917
3407.77339	7.12958
3405.84482	7.17780
3403.91626	7.21241
3401.98770	7.21562
3400.05913	7.24479
3398.13057	7.33899
3396.20200	7.43814
3394.27344	7.48104
3392.34487	7.50963
3390.41631	7.56368
3388.48774	7.59965
3386.55918	7.62518
3384.63062	7.64270
3382.70205	7.65887
3380.77349	7.74415
3378.84492	7.85333
3376.91636	7.83490
3374.98779	7.73648
3373.05923	7.76058
3371.13066	7.87875
3369.20210	7.92718
3367.27354	7.92328
3365.34497	7.98304
3363.41641	8.08506
3361.48784	8.11195
3359.55928	8.06147
3357.63071	8.01640
3355.70215	8.02334
3353.77358	8.03837
3351.84502	8.00905
3349.91646	7.96697
3347.98789	8.00710
3346.05933	8.12715
3344.13076	8.24849
3342.20220	8.30112
3340.27363	8.23176
3338.34507	8.15112
3336.41650	8.15942
3334.48794	8.25443
3332.55937	8.32579
3330.63081	8.29110
3328.70225	8.26448
3326.77368	8.31129
3324.84512	8.33754
3322.91655	8.32948
3320.98799	8.36011
3319.05942	8.36961
3317.13086	8.32124
3315.20229	8.26233
3313.27373	8.24756
3311.34517	8.26224
3309.41660	8.25427
3307.48804	8.25311
3305.55947	8.32502
3303.63091	8.43102
3301.70234	8.45571
3299.77378	8.44569
3297.84521	8.42578
3295.91665	8.38080
3293.98809	8.34910
3292.05952	8.35918
3290.13096	8.34011
3288.20239	8.21846
3286.27383	8.17792
3284.34526	8.26805
3282.41670	8.28099
3280.48813	8.25088
3278.55957	8.37118
3276.63101	8.50716
3274.70244	8.49125
3272.77388	8.45073
3270.84531	8.44304
3268.91675	8.41288
3266.98818	8.34023
3265.05962	8.34656
3263.13105	8.49033
3261.20249	8.66465
3259.27393	8.69765
3257.34536	8.49104
3255.41680	8.23770
3253.48823	8.21728
3251.55967	8.47728
3249.63110	8.71848
3247.70254	8.67773
3245.77397	8.54544
3243.84541	8.52165
3241.91685	8.58282
3239.98828	8.55990
3238.05972	8.42349
3236.13115	8.36091
3234.20259	8.45446
3232.27402	8.48906
3230.34546	8.36796
3228.41689	8.32066
3226.48833	8.40208
3224.55977	8.46413
3222.63120	8.41949
3220.70264	8.32383
3218.77407	8.20900
3216.84551	8.10831
3214.91694	8.09464
3212.98838	8.12636
3211.05981	8.10211
3209.13125	8.01377
3207.20269	7.98547
3205.27412	8.09202
3203.34556	8.17853
3201.41699	8.11082
3199.48843	7.99343
3197.55986	7.93510
3195.63130	7.95050
3193.70273	7.98389
3191.77417	7.95124
3189.84561	7.81781
3187.91704	7.65001
3185.98848	7.55616
3184.05991	7.56601
3182.13135	7.58662
3180.20278	7.53933
3178.27422	7.46887
3176.34565	7.44197
3174.41709	7.45071
3172.48853	7.43212
3170.55996	7.34192
3168.63140	7.19350
3166.70283	7.04863
3164.77427	6.97238
3162.84570	6.95568
3160.91714	6.91243
3158.98857	6.82090
3157.06001	6.72954
3155.13145	6.64828
3153.20288	6.56409
3151.27432	6.48758
3149.34575	6.44362
3147.41719	6.41452
3145.48862	6.35705
3143.56006	6.26590
3141.63149	6.15976
3139.70293	6.06684
3137.77437	5.99706
3135.84580	5.92740
3133.91724	5.85515
3131.98867	5.78596
3130.06011	5.71299
3128.13154	5.64547
3126.20298	5.58598
3124.27441	5.52114
3122.34585	5.44871
3120.41729	5.36981
3118.48872	5.28509
3116.56016	5.20852
3114.63159	5.14663
3112.70303	5.08812
3110.77446	5.02351
3108.84590	4.95095
3106.91733	4.87357
3104.98877	4.79689
3103.06021	4.72402
3101.13164	4.65208
3099.20308	4.58070
3097.27451	4.51347
3095.34595	4.44771
3093.41738	4.37889
3091.48882	4.30897
3089.56025	4.24235
3087.63169	4.17945
3085.70312	4.11676
3083.77456	4.05197
3081.84600	3.98696
3079.91743	3.92285
3077.98887	3.85902
3076.06030	3.79534
3074.13174	3.73343
3072.20317	3.67651
3070.27461	3.62174
3068.34604	3.56301
3066.41748	3.50165
3064.48892	3.44254
3062.56035	3.38696
3060.63179	3.33294
3058.70322	3.27828
3056.77466	3.22363
3054.84609	3.16990
3052.91753	3.11665
3050.98896	3.06418
3049.06040	3.01226
3047.13184	2.96046
3045.20327	2.90987
3043.27471	2.86099
3041.34614	2.81244
3039.41758	2.76392
3037.48901	2.71588
3035.56045	2.66795
3033.63188	2.62119
3031.70332	2.57588
3029.77476	2.53075
3027.84619	2.48602
3025.91763	2.44186
3023.98906	2.39835
3022.06050	2.35629
3020.13193	2.31515
3018.20337	2.27447
3016.27480	2.23469
3014.34624	2.19526
3012.41768	2.15579
3010.48911	2.11682
3008.56055	2.07871
3006.63198	2.04126
3004.70342	2.00426
3002.77485	1.96861
3000.84629	1.93462
2998.91772	1.90084
2996.98916	1.86650
2995.06060	1.83243
2993.13203	1.79963
2991.20347	1.76822
2989.27490	1.73764
2987.34634	1.70748
2985.41777	1.67773
2983.48921	1.64860
2981.56064	1.62020
2979.63208	1.59215
2977.70352	1.56386
2975.77495	1.53575
2973.84639	1.50869
2971.91782	1.48245
2969.98926	1.45613
2968.06069	1.42967
2966.13213	1.40382
2964.20356	1.37888
2962.27500	1.35427
2960.34644	1.32978
2958.41787	1.30605
2956.48931	1.28282
2954.56074	1.25951
2952.63218	1.23635
2950.70361	1.21353
2948.77505	1.19122
2946.84648	1.16952
2944.91792	1.14827
2942.98936	1.12733
2941.06079	1.10687
2939.13223	1.08698
2937.20366	1.06734
2935.27510	1.04777
2933.34653	1.02821
2931.41797	1.00864
2929.48940	0.98950
2927.56084	0.97165
2925.63228	0.95483
2923.70371	0.93783
2921.77515	0.92027
2919.84658	0.90257
2917.91802	0.88571
2915.98945	0.87012
2914.06089	0.85480
2912.13232	0.83928
2910.20376	0.82384
2908.27520	0.80883
2906.34663	0.79440
2904.41807	0.78025
2902.48950	0.76650
2900.56094	0.75342
2898.63237	0.74069
2896.70381	0.72790
2894.77524	0.71510
2892.84668	0.70254
2890.91812	0.69050
2888.98955	0.67912
2887.06099	0.66815
2885.13242	0.65733
2883.20386	0.64689
2881.27529	0.63658
2879.34673	0.62605
2877.41816	0.61566
2875.48960	0.60556
2873.56104	0.59538
2871.63247	0.58527
2869.70391	0.57520
2867.77534	0.56484
2865.84678	0.55455
2863.91821	0.54460
2861.98965	0.53476
2860.06108	0.52527
2858.13252	0.51621
2856.20396	0.50716
2854.27539	0.49816
2852.34683	0.48970
2850.41826	0.48176
2848.48970	0.47378
2846.56113	0.46567
2844.63257	0.45801
2842.70400	0.45087
2840.77544	0.44415
2838.84687	0.43788
2836.91831	0.43179
2834.98975	0.42564
2833.06118	0.41949
2831.13262	0.41356
2829.20405	0.40782
2827.27549	0.40203
2825.34692	0.39607
2823.41836	0.39021
2821.48979	0.38460
2819.56123	0.37902
2817.63267	0.37336
2815.70410	0.36787
2813.77554	0.36248
2811.84697	0.35695
2809.91841	0.35143
2807.98984	0.34626
2806.06128	0.34158
2804.13271	0.33704
2802.20415	0.33228
2800.27559	0.32733
2798.34702	0.32241
2796.41846	0.31766
2794.48989	0.31326
2792.56133	0.30927
2790.63276	0.30522
2788.70420	0.30085
2786.77563	0.29650
2784.84707	0.29241
2782.91851	0.28850
2780.98994	0.28469
2779.06138	0.28082
2777.13281	0.27690
2775.20425	0.27316
2773.27568	0.26964
2771.34712	0.26619
2769.41855	0.26270
2767.48999	0.25931
2765.56143	0.25617
2763.63286	0.25315
2761.70430	0.25006
2759.77573	0.24698
2757.84717	0.24395
2755.91860	0.24094
2753.99004	0.23789
2752.06147	0.23488
2750.13291	0.23204
2748.20435	0.22945
2746.27578	0.22695
2744.34722	0.22442
2742.41865	0.22200
2740.49009	0.21968
2738.56152	0.21722
2736.63296	0.21475
2734.70439	0.21244
2732.77583	0.21008
2730.84727	0.20783
2728.91870	0.20587
2726.99014	0.20380
2725.06157	0.20150
2723.13301	0.19928
2721.20444	0.19722
2719.27588	0.19533
2717.34731	0.19375
2715.41875	0.19225
2713.49019	0.19047
2711.56162	0.18852
2709.63306	0.18680
2707.70449	0.18534
2705.77593	0.18395
2703.84736	0.18248
2701.91880	0.18089
2699.99023	0.17940
2698.06167	0.17814
2696.13311	0.17689
2694.20454	0.17545
2692.27598	0.17398
2690.34741	0.17266
2688.41885	0.17149
2686.49028	0.17041
2684.56172	0.16941
2682.63315	0.16839
2680.70459	0.16729
2678.77603	0.16610
2676.84746	0.16496
2674.91890	0.16392
2672.99033	0.16291
2671.06177	0.16200
2669.13320	0.16121
2667.20464	0.16040
2665.27607	0.15951
2663.34751	0.15855
2661.41895	0.15764
2659.49038	0.15694
2657.56182	0.15633
2655.63325	0.15556
2653.70469	0.15478
2651.77612	0.15426
2649.84756	0.15384
2647.91899	0.15336
2645.99043	0.15285
2644.06187	0.15223
2642.13330	0.15151
2640.20474	0.15092
2638.27617	0.15047
2636.34761	0.15007
2634.41904	0.14974
2632.49048	0.14954
2630.56191	0.14936
2628.63335	0.14905
2626.70479	0.14870
2624.77622	0.14831
2622.84766	0.14786
2620.91909	0.14763
2618.99053	0.14771
2617.06196	0.14780
2615.13340	0.14767
2613.20483	0.14744
2611.27627	0.14725
2609.34771	0.14714
2607.41914	0.14719
2605.49058	0.14730
2603.56201	0.14726
2601.63345	0.14730
2599.70488	0.14753
2597.77632	0.14776
2595.84775	0.14793
2593.91919	0.14803
2591.99062	0.14810
2590.06206	0.14826
2588.13350	0.14837
2586.20493	0.14847
2584.27637	0.14872
2582.34780	0.14898
2580.41924	0.14917
2578.49067	0.14938
2576.56211	0.14965
2574.63354	0.15009
2572.70498	0.15068
2570.77642	0.15104
2568.84785	0.15115
2566.91929	0.15145
2564.99072	0.15212
2563.06216	0.15281
2561.13359	0.15332
2559.20503	0.15376
2557.27646	0.15424
2555.34790	0.15478
2553.41934	0.15528
2551.49077	0.15574
2549.56221	0.15635
2547.63364	0.15706
2545.70508	0.15775
2543.77651	0.15847
2541.84795	0.15917
2539.91938	0.15982
2537.99082	0.16054
2536.06226	0.16126
2534.13369	0.16189
2532.20513	0.16250
2530.27656	0.16315
2528.34800	0.16392
2526.41943	0.16474
2524.49087	0.16548
2522.56230	0.16615
2520.63374	0.16689
2518.70518	0.16765
2516.77661	0.16839
2514.84805	0.16923
2512.91948	0.17020
2510.99092	0.17118
2509.06235	0.17206
2507.13379	0.17288
2505.20522	0.17371
2503.27666	0.17453
2501.34810	0.17527
2499.41953	0.17597
2497.49097	0.17682
2495.56240	0.17786
2493.63384	0.17880
2491.70527	0.17948
2489.77671	0.18016
2487.84814	0.18100
2485.91958	0.18201
2483.99102	0.18308
2482.06245	0.18406
2480.13389	0.18491
2478.20532	0.18571
2476.27676	0.18654
2474.34819	0.18743
2472.41963	0.18834
2470.49106	0.18926
2468.56250	0.19024
2466.63394	0.19126
2464.70537	0.19223
2462.77681	0.19319
2460.84824	0.19426
2458.91968	0.19531
2456.99111	0.19636
2455.06255	0.19746
2453.13398	0.19847
2451.20542	0.19942
2449.27686	0.20042
2447.34829	0.20133
2445.41973	0.20218
2443.49116	0.20323
2441.56260	0.20448
2439.63403	0.20573
2437.70547	0.20680
2435.77690	0.20763
2433.84834	0.20841
2431.91978	0.20935
2429.99121	0.21043
2428.06265	0.21149
2426.13408	0.21264
2424.20552	0.21391
2422.27695	0.21513
2420.34839	0.21626
2418.41982	0.21742
2416.49126	0.21861
2414.56270	0.21980
2412.63413	0.22102
2410.70557	0.22228
2408.77700	0.22350
2406.84844	0.22467
2404.91987	0.22591
2402.99131	0.22711
2401.06274	0.22817
2399.13418	0.22924
2397.20562	0.23043
2395.27705	0.23174
2393.34849	0.23309
2391.41992	0.23440
2389.49136	0.23568
2387.56279	0.23704
2385.63423	0.23856
2383.70566	0.24026
2381.77710	0.24208
2379.84854	0.24397
2377.91997	0.24592
2375.99141	0.24796
2374.06284	0.25023
2372.13428	0.25278
2370.20571	0.25563
2368.27715	0.25860
2366.34858	0.26067
2364.42002	0.26166
2362.49146	0.26279
2360.56289	0.26402
2358.63433	0.26561
2356.70576	0.26859
2354.77720	0.27102
2352.84863	0.27155
2350.92007	0.27177
2348.99150	0.27259
2347.06294	0.27395
2345.13437	0.27607
2343.20581	0.27882
2341.27725	0.28095
2339.34868	0.28195
2337.42012	0.28320
2335.49155	0.28518
2333.56299	0.28655
2331.63442	0.28728
2329.70586	0.28845
2327.77729	0.29027
2325.84873	0.29213
2323.92017	0.29349
2321.99160	0.29432
2320.06304	0.29529
2318.13447	0.29661
2316.20591	0.29786
2314.27734	0.29922
2312.34878	0.30094
2310.42021	0.30263
2308.49165	0.30384
2306.56309	0.30489
2304.63452	0.30626
2302.70596	0.30802
2300.77739	0.30984
2298.84883	0.31137
2296.92026	0.31290
2294.99170	0.31473
2293.06313	0.31658
2291.13457	0.31834
2289.20601	0.32009
2287.27744	0.32182
2285.34888	0.32348
2283.42031	0.32514
2281.49175	0.32697
2279.56318	0.32904
2277.63462	0.33118
2275.70605	0.33322
2273.77749	0.33525
2271.84893	0.33736
2269.92036	0.33951
2267.99180	0.34174
2266.06323	0.34398
2264.13467	0.34606
2262.20610	0.34802
2260.27754	0.35005
2258.34897	0.35228
2256.42041	0.35459
2254.49185	0.35683
2252.56328	0.35905
2250.63472	0.36124
2248.70615	0.36337
2246.77759	0.36553
2244.84902	0.36770
2242.92046	0.36973
2240.99189	0.37170
2239.06333	0.37388
2237.13477	0.37633
2235.20620	0.37885
2233.27764	0.38129
2231.34907	0.38353
2229.42051	0.38557
2227.49194	0.38757
2225.56338	0.38966
2223.63481	0.39176
2221.70625	0.39383
2219.77769	0.39597
2217.84912	0.39831
2215.92056	0.40078
2213.99199	0.40313
2212.06343	0.40522
2210.13486	0.40720
2208.20630	0.40932
2206.27773	0.41153
2204.34917	0.41369
2202.42061	0.41579
2200.49204	0.41779
2198.56348	0.41964
2196.63491	0.42149
2194.70635	0.42340
2192.77778	0.42535
2190.84922	0.42744
2188.92065	0.42946
2186.99209	0.43122
2185.06353	0.43285
2183.13496	0.43449
2181.20640	0.43616
2179.27783	0.43786
2177.34927	0.43947
2175.42070	0.44096
2173.49214	0.44255
2171.56357	0.44416
2169.63501	0.44553
2167.70645	0.44675
2165.77788	0.44803
2163.84932	0.44931
2161.92075	0.45040
2159.99219	0.45137
2158.06362	0.45239
2156.13506	0.45347
2154.20649	0.45448
2152.27793	0.45526
2150.34937	0.45581
2148.42080	0.45629
2146.49224	0.45674
2144.56367	0.45716
2142.63511	0.45762
2140.70654	0.45808
2138.77798	0.45845
2136.84941	0.45866
2134.92085	0.45878
2132.99229	0.45883
2131.06372	0.45877
2129.13516	0.45862
2127.20659	0.45833
2125.27803	0.45793
2123.34946	0.45743
2121.42090	0.45682
2119.49233	0.45615
2117.56377	0.45551
2115.63521	0.45481
2113.70664	0.45401
2111.77808	0.45316
2109.84951	0.45218
2107.92095	0.45105
2105.99238	0.44990
2104.06382	0.44881
2102.13525	0.44757
2100.20669	0.44607
2098.27812	0.44441
2096.34956	0.44277
2094.42100	0.44119
2092.49243	0.43963
2090.56387	0.43797
2088.63530	0.43607
2086.70674	0.43412
2084.77817	0.43229
2082.84961	0.43048
2080.92104	0.42855
2078.99248	0.42650
2077.06392	0.42429
2075.13535	0.42195
2073.20679	0.41971
2071.27822	0.41763
2069.34966	0.41557
2067.42109	0.41332
2065.49253	0.41088
2063.56396	0.40834
2061.63540	0.40582
2059.70684	0.40341
2057.77827	0.40109
2055.84971	0.39857
2053.92114	0.39580
2051.99258	0.39301
2050.06401	0.39033
2048.13545	0.38774
2046.20688	0.38501
2044.27832	0.38211
2042.34976	0.37925
2040.42119	0.37657
2038.49263	0.37388
2036.56406	0.37109
2034.63550	0.36825
2032.70693	0.36550
2030.77837	0.36289
2028.84980	0.36026
2026.92124	0.35755
2024.99268	0.35476
2023.06411	0.35192
2021.13555	0.34914
2019.20698	0.34643
2017.27842	0.34368
2015.34985	0.34089
2013.42129	0.33815
2011.49272	0.33547
2009.56416	0.33281
2007.63560	0.33007
2005.70703	0.32729
2003.77847	0.32451
2001.84990	0.32179
1999.92134	0.31920
1997.99277	0.31667
1996.06421	0.31417
1994.13564	0.31177
1992.20708	0.30930
1990.27852	0.30659
1988.34995	0.30393
1986.42139	0.30148
1984.49282	0.29917
1982.56426	0.29689
1980.63569	0.29457
1978.70713	0.29223
1976.77856	0.28997
1974.85000	0.28783
1972.92144	0.28568
1970.99287	0.28349
1969.06431	0.28139
1967.13574	0.27936
1965.20718	0.27730
1963.27861	0.27539
1961.35005	0.27368
1959.42148	0.27188
1957.49292	0.26992
1955.56436	0.26802
1953.63579	0.26632
1951.70723	0.26469
1949.77866	0.26304
1947.85010	0.26140
1945.92153	0.25992
1943.99297	0.25861
1942.06440	0.25724
1940.13584	0.25574
1938.20728	0.25426
1936.27871	0.25291
1934.35015	0.25154
1932.42158	0.25021
1930.49302	0.24901
1928.56445	0.24793
1926.63589	0.24685
1924.70732	0.24580
1922.77876	0.24481
1920.85020	0.24391
1918.92163	0.24306
1916.99307	0.24214
1915.06450	0.24123
1913.13594	0.24042
1911.20737	0.23971
1909.27881	0.23903
1907.35024	0.23832
1905.42168	0.23760
1903.49312	0.23694
1901.56455	0.23637
1899.63599	0.23590
1897.70742	0.23556
1895.77886	0.23529
1893.85029	0.23499
1891.92173	0.23462
1889.99316	0.23435
1888.06460	0.23411
1886.13604	0.23376
1884.20747	0.23339
1882.27891	0.23319
1880.35034	0.23319
1878.42178	0.23322
1876.49321	0.23328
1874.56465	0.23337
1872.63608	0.23354
1870.70752	0.23377
1868.77896	0.23415
1866.85039	0.23439
1864.92183	0.23443
1862.99326	0.23461
1861.06470	0.23494
1859.13613	0.23529
1857.20757	0.23558
1855.27900	0.23594
1853.35044	0.23635
1851.42187	0.23684
1849.49331	0.23742
1847.56475	0.23822
1845.63618	0.23913
1843.70762	0.23997
1841.77905	0.24057
1839.85049	0.24098
1837.92192	0.24177
1835.99336	0.24287
1834.06479	0.24398
1832.13623	0.24506
1830.20767	0.24645
1828.27910	0.24782
1826.35054	0.24883
1824.42197	0.25011
1822.49341	0.25145
1820.56484	0.25271
1818.63628	0.25411
1816.70771	0.25576
1814.77915	0.25740
1812.85059	0.25924
1810.92202	0.26146
1808.99346	0.26363
1807.06489	0.26548
1805.13633	0.26721
1803.20776	0.26929
1801.27920	0.27181
1799.35063	0.27472
1797.42207	0.27738
1795.49351	0.27986
1793.56494	0.28260
1791.63638	0.28601
1789.70781	0.28943
1787.77925	0.29225
1785.85068	0.29552
1783.92212	0.29919
1781.99355	0.30307
1780.06499	0.30726
1778.13643	0.31159
1776.20786	0.31560
1774.27930	0.31987
1772.35073	0.32563
1770.42217	0.33198
1768.49360	0.33751
1766.56504	0.34282
1764.63647	0.34820
1762.70791	0.35404
1760.77935	0.36144
1758.85078	0.36850
1756.92222	0.37562
1754.99365	0.38340
1753.06509	0.39053
1751.13652	0.39887
1749.20796	0.40928
1747.27939	0.41995
1745.35083	0.42967
1743.42227	0.43960
1741.49370	0.45012
1739.56514	0.46270
1737.63657	0.47547
1735.70801	0.48632
1733.77944	0.50250
1731.85088	0.52251
1729.92231	0.53847
1727.99375	0.55426
1726.06519	0.57110
1724.13662	0.58950
1722.20806	0.60943
1720.27949	0.62788
1718.35093	0.64940
1716.42236	0.68130
1714.49380	0.71195
1712.56523	0.73672
1710.63667	0.76051
1708.70811	0.78611
1706.77954	0.81535
1704.85098	0.85040
1702.92241	0.88158
1700.99385	0.91191
1699.06528	0.95666
1697.13672	0.99795
1695.20815	1.04056
1693.27959	1.08246
1691.35103	1.11645
1689.42246	1.15493
1687.49390	1.19484
1685.56533	1.23348
1683.63677	1.29321
1681.70820	1.35445
1679.77964	1.39376
1677.85107	1.43147
1675.92251	1.47451
1673.99395	1.52731
1672.06538	1.57442
1670.13682	1.62100
1668.20825	1.68156
1666.27969	1.73056
1664.35112	1.77112
1662.42256	1.82137
1660.49399	1.87859
1658.56543	1.92402
1656.63687	1.96087
1654.70830	1.99479
1652.77974	2.04844
1650.85117	2.09915
1648.92261	2.11725
1646.99404	2.14051
1645.06548	2.16858
1643.13691	2.18871
1641.20835	2.20131
1639.27979	2.21177
1637.35122	2.21820
1635.42266	2.21794
1633.49409	2.20931
1631.56553	2.19690
1629.63696	2.18296
1627.70840	2.15742
1625.77983	2.12511
1623.85127	2.08651
1621.92271	2.04064
1619.99414	1.99826
1618.06558	1.95671
1616.13701	1.89826
1614.20845	1.83662
1612.27988	1.78862
1610.35132	1.73919
1608.42275	1.68576
1606.49419	1.63346
1604.56562	1.58537
1602.63706	1.53846
1600.70850	1.49204
1598.77993	1.44865
1596.85137	1.40751
1594.92280	1.36787
1592.99424	1.33018
1591.06567	1.29594
1589.13711	1.26384
1587.20854	1.23395
1585.27998	1.20626
1583.35142	1.17990
1581.42285	1.15542
1579.49429	1.13444
1577.56572	1.11530
1575.63716	1.09159
1573.70859	1.07056
1571.78003	1.05669
1569.85146	1.04208
1567.92290	1.02611
1565.99434	1.01402
1564.06577	1.00420
1562.13721	0.99618
1560.20864	0.98982
1558.28008	0.97980
1556.35151	0.97042
1554.42295	0.96463
1552.49438	0.95921
1550.56582	0.95327
1548.63726	0.94601
1546.70869	0.93813
1544.78013	0.92931
1542.85156	0.91930
1540.92300	0.90650
1538.99443	0.88714
1537.06587	0.87311
1535.13730	0.86397
1533.20874	0.85197
1531.28018	0.83878
1529.35161	0.82892
1527.42305	0.81964
1525.49448	0.80993
1523.56592	0.80140
1521.63735	0.79321
1519.70879	0.78495
1517.78022	0.77776
1515.85166	0.76950
1513.92310	0.76112
1511.99453	0.75423
1510.06597	0.74814
1508.13740	0.74203
1506.20884	0.73248
1504.28027	0.72419
1502.35171	0.71953
1500.42314	0.71542
1498.49458	0.71086
1496.56602	0.70532
1494.63745	0.69987
1492.70889	0.69559
1490.78032	0.69169
1488.85176	0.68730
1486.92319	0.68306
1484.99463	0.67934
1483.06606	0.67620
1481.13750	0.67345
1479.20894	0.67104
1477.28037	0.66926
1475.35181	0.66791
1473.42324	0.66633
1471.49468	0.66375
1469.56611	0.66106
1467.63755	0.65887
1465.70898	0.65696
1463.78042	0.65524
1461.85186	0.65398
1459.92329	0.65313
1457.99473	0.65207
1456.06616	0.65026
1454.13760	0.64823
1452.20903	0.64628
1450.28047	0.64428
1448.35190	0.64231
1446.42334	0.64034
1444.49478	0.63829
1442.56621	0.63608
1440.63765	0.63384
1438.70908	0.63182
1436.78052	0.62956
1434.85195	0.62703
1432.92339	0.62499
1430.99482	0.62342
1429.06626	0.62210
1427.13770	0.62112
1425.20913	0.62048
1423.28057	0.62002
1421.35200	0.61948
1419.42344	0.61885
1417.49487	0.61800
1415.56631	0.61672
1413.63774	0.61539
1411.70918	0.61436
1409.78062	0.61381
1407.85205	0.61364
1405.92349	0.61359
1403.99492	0.61332
1402.06636	0.61247
1400.13779	0.61128
1398.20923	0.61003
1396.28066	0.60867
1394.35210	0.60672
1392.42354	0.60415
1390.49497	0.60154
1388.56641	0.59902
1386.63784	0.59625
1384.70928	0.59336
1382.78071	0.59070
1380.85215	0.58825
1378.92358	0.58614
1376.99502	0.58439
1375.06646	0.58296
1373.13789	0.58190
1371.20933	0.58116
1369.28076	0.58043
1367.35220	0.57940
1365.42363	0.57811
1363.49507	0.57684
1361.56650	0.57561
1359.63794	0.57441
1357.70937	0.57332
1355.78081	0.57216
1353.85225	0.57097
1351.92368	0.57005
1349.99512	0.56944
1348.06655	0.56873
1346.13799	0.56779
1344.20942	0.56696
1342.28086	0.56633
1340.35229	0.56573
1338.42373	0.56491
1336.49517	0.56383
1334.56660	0.56273
1332.63804	0.56195
1330.70947	0.56157
1328.78091	0.56134
1326.85234	0.56110
1324.92378	0.56083
1322.99521	0.56061
1321.06665	0.56053
1319.13809	0.56050
1317.20952	0.56022
1315.28096	0.55973
1313.35239	0.55913
1311.42383	0.55848
1309.49526	0.55787
1307.56670	0.55727
1305.63813	0.55656
1303.70957	0.55572
1301.78101	0.55487
1299.85244	0.55413
1297.92388	0.55344
1295.99531	0.55259
1294.06675	0.55161
1292.13818	0.55059
1290.20962	0.54963
1288.28105	0.54882
1286.35249	0.54815
1284.42393	0.54746
1282.49536	0.54662
1280.56680	0.54578
1278.63823	0.54503
1276.70967	0.54416
1274.78110	0.54319
1272.85254	0.54234
1270.92397	0.54171
1268.99541	0.54128
1267.06685	0.54095
1265.13828	0.54045
1263.20972	0.53984
1261.28115	0.53935
1259.35259	0.53889
1257.42402	0.53832
1255.49546	0.53776
1253.56689	0.53737
1251.63833	0.53719
1249.70977	0.53712
1247.78120	0.53699
1245.85264	0.53663
1243.92407	0.53606
1241.99551	0.53538
1240.06694	0.53458
1238.13838	0.53371
1236.20981	0.53270
1234.28125	0.53139
1232.35269	0.52997
1230.42412	0.52866
1228.49556	0.52746
1226.56699	0.52635
1224.63843	0.52529
1222.70986	0.52422
1220.78130	0.52329
1218.85273	0.52262
1216.92417	0.52183
1214.99561	0.52077
1213.06704	0.51974
1211.13848	0.51893
1209.20991	0.51826
1207.28135	0.51752
1205.35278	0.51672
1203.42422	0.51607
1201.49565	0.51542
1199.56709	0.51468
1197.63853	0.51402
1195.70996	0.51329
1193.78140	0.51254
1191.85283	0.51206
1189.92427	0.51172
1187.99570	0.51137
1186.06714	0.51119
1184.13857	0.51123
1182.21001	0.51132
1180.28145	0.51154
1178.35288	0.51214
1176.42432	0.51294
1174.49575	0.51355
1172.56719	0.51398
1170.63862	0.51445
1168.71006	0.51494
1166.78149	0.51531
1164.85293	0.51557
1162.92437	0.51568
1160.99580	0.51561
1159.06724	0.51541
1157.13867	0.51488
1155.21011	0.51381
1153.28154	0.51239
1151.35298	0.51100
1149.42441	0.50939
1147.49585	0.50722
1145.56729	0.50488
1143.63872	0.50272
1141.71016	0.50051
1139.78159	0.49822
1137.85303	0.49631
1135.92446	0.49477
1133.99590	0.49325
1132.06733	0.49179
1130.13877	0.49060
1128.21021	0.48983
1126.28164	0.48932
1124.35308	0.48841
1122.42451	0.48712
1120.49595	0.48630
1118.56738	0.48617
1116.63882	0.48632
1114.71025	0.48653
1112.78169	0.48681
1110.85312	0.48721
1108.92456	0.48785
1106.99600	0.48882
1105.06743	0.48992
1103.13887	0.49107
1101.21030	0.49259
1099.28174	0.49454
1097.35317	0.49674
1095.42461	0.49947
1093.49604	0.50305
1091.56748	0.50747
1089.63892	0.51277
1087.71035	0.51909
1085.78179	0.52618
1083.85322	0.53340
1081.92466	0.54014
1079.99609	0.54558
1078.06753	0.54898
1076.13896	0.54993
1074.21040	0.54813
1072.28184	0.54360
1070.35327	0.53735
1068.42471	0.53054
1066.49614	0.52377
1064.56758	0.51732
1062.63901	0.51138
1060.71045	0.50628
1058.78188	0.50217
1056.85332	0.49844
1054.92476	0.49481
1052.99619	0.49178
1051.06763	0.48941
1049.13906	0.48736
1047.21050	0.48573
1045.28193	0.48465
1043.35337	0.48398
1041.42480	0.48369
1039.49624	0.48374
1037.56768	0.48371
1035.63911	0.48325
1033.71055	0.48255
1031.78198	0.48207
1029.85342	0.48171
1027.92485	0.48125
1025.99629	0.48082
1024.06772	0.48050
1022.13916	0.48049
1020.21060	0.48092
1018.28203	0.48157
1016.35347	0.48222
1014.42490	0.48286
1012.49634	0.48360
1010.56777	0.48455
1008.63921	0.48573
1006.71064	0.48688
1004.78208	0.48811
1002.85352	0.48996
1000.92495	0.49268
998.99639	0.49603
997.06782	0.49982
995.13926	0.50388
993.21069	0.50779
991.28213	0.51102
989.35356	0.51321
987.42500	0.51430
985.49644	0.51490
983.56787	0.51564
981.63931	0.51655
979.71074	0.51770
977.78218	0.51953
975.85361	0.52200
973.92505	0.52484
971.99648	0.52807
970.06792	0.53162
968.13936	0.53541
966.21079	0.53955
964.28223	0.54413
962.35366	0.54920
960.42510	0.55461
958.49653	0.56014
956.56797	0.56581
954.63940	0.57170
952.71084	0.57771
950.78228	0.58410
948.85371	0.59087
946.92515	0.59736
944.99658	0.60352
943.06802	0.60959
941.13945	0.61563
939.21089	0.62201
937.28232	0.62860
935.35376	0.63465
933.42520	0.63995
931.49663	0.64509
929.56807	0.65075
927.63950	0.65687
925.71094	0.66316
923.78237	0.66962
921.85381	0.67633
919.92524	0.68320
917.99668	0.68995
916.06812	0.69631
914.13955	0.70248
912.21099	0.70944
910.28242	0.71853
908.35386	0.72899
906.42529	0.73855
904.49673	0.74732
902.56816	0.75650
900.63960	0.76543
898.71104	0.77426
896.78247	0.78449
894.85391	0.79597
892.92534	0.80704
890.99678	0.81713
889.06821	0.82754
887.13965	0.83877
885.21108	0.85010
883.28252	0.86122
881.35396	0.87187
879.42539	0.88346
877.49683	0.89714
875.56826	0.91058
873.63970	0.92175
871.71113	0.93192
869.78257	0.94297
867.85400	0.95491
865.92544	0.96741
863.99687	0.98098
862.06831	0.99325
860.13975	1.00155
858.21118	1.00984
856.28262	1.02266
854.35405	1.03861
852.42549	1.05277
850.49692	1.06376
848.56836	1.07496
846.63979	1.08632
844.71123	1.09623
842.78267	1.10550
840.85410	1.11565
838.92554	1.12900
836.99697	1.14551
835.06841	1.16155
833.13984	1.17264
831.21128	1.17945
829.28271	1.19024
827.35415	1.20578
825.42559	1.21813
823.49702	1.22610
821.56846	1.23128
819.63989	1.24557
817.71133	1.27170
815.78276	1.28675
813.85420	1.29093
811.92563	1.29931
809.99707	1.30848
808.06851	1.31681
806.13994	1.32639
804.21138	1.33201
802.28281	1.33746
800.35425	1.34872
798.42568	1.36776
796.49712	1.41551
794.56855	1.48714
792.63999	1.51873
790.71143	1.50425
788.78286	1.50998
786.85430	1.57178
784.92573	1.66151
782.99717	1.64915
781.06860	1.65362
779.14004	1.71425
777.21147	1.68760
775.28291	1.61010
773.35435	1.47401
771.42578	1.38499
769.49722	1.38210
767.56865	1.37545
765.64009	1.32419
763.71152	1.40048
761.78296	1.77459
759.85439	1.61899
757.92583	1.27866
755.99727	1.18248
754.06870	1.13451
752.14014	1.06369
750.21157	1.02063
748.28301	1.03493
746.35444	1.10655
744.42588	1.18319
742.49731	1.19858
740.56875	1.16929
738.64019	0.96759
736.71162	0.75685
734.78306	0.67714
732.85449	0.66817
730.92593	0.68366
728.99736	0.63907
727.06880	0.26538
725.14023	-0.91857
723.21167	4.33927
721.28311	4.32770
719.35454	4.31613
717.42598	-0.53247
715.49741	-0.18351
713.56885	0.06521
711.64028	0.29259
709.71172	0.37259
707.78315	0.33391
705.85459	0.31657
703.92603	0.28251
701.99746	0.29483
700.06890	0.39284
698.14033	0.45168
696.21177	0.35059
694.28320	0.28986
692.35464	0.32919
690.42607	0.32589
688.49751	0.20998
686.56895	0.16313
684.64038	0.22112
682.71182	0.25321
680.78325	0.25707
678.85469	0.36869
676.92612	0.63309
674.99756	0.70222
673.06899	0.62685
671.14043	0.67766
669.21187	0.67785
667.28330	0.58519
665.35474	0.49413
663.42617	0.38133
661.49761	0.28690
659.56904	0.27101
657.64048	0.28463
655.71191	0.27499
653.78335	0.32994
651.85479	0.53199
649.92622	0.86656
647.99766	0.86735
646.06909	0.67099
644.14053	0.53530
642.21196	0.38666
640.28340	0.31847
638.35483	0.33785
636.42627	0.30008
634.49771	0.19651
632.56914	0.14728
630.64058	0.19538
628.71201	0.27299
626.78345	0.28912
624.85488	0.30207
622.92632	0.35605
620.99775	0.43853
619.06919	0.52582
617.14062	0.42856
615.21206	0.30152
613.28350	0.27668
611.35493	0.35112
609.42637	0.43087
607.49780	0.40085
605.56924	0.31478
603.64067	0.29841
601.71211	0.32971
599.78354	0.29841
597.85498	0.23517
595.92642	0.21855
593.99785	0.28577
592.06929	0.41187
590.14072	0.46744
588.21216	0.45826
586.28359	0.43890
584.35503	0.38780
582.42646	0.30477
580.49790	0.24274
578.56934	0.27316
576.64077	0.34328
574.71221	0.33319
572.78364	0.28114
570.85508	0.25732
568.92651	0.26629
566.99795	0.30186
565.06938	0.33363
563.14082	0.32342
561.21226	0.26662
559.28369	0.21908
557.35513	0.23544
555.42656	0.28595
553.49800	0.29481
551.56943	0.27421
549.64087	0.26949
547.71230	0.30609
545.78374	0.35237
543.85518	0.32820
541.92661	0.29591
539.99805	0.30492
538.06948	0.28188
536.14092	0.21007
534.21235	0.13943
532.28379	0.11280
530.35522	0.14378
528.42666	0.22830
526.49810	0.29656
524.56953	0.24852
522.64097	0.20955
520.71240	0.26975
518.78384	0.34388
516.85527	0.31973
514.92671	0.26082
512.99814	0.23864
511.06958	0.23863
509.14102	0.23386
507.21245	0.21380
505.28389	0.21262
503.35532	0.23902
501.42676	0.23368
499.49819	0.20221
