3997.91411	0.07317
3995.98555	0.07333
3994.05698	0.07356
3992.12842	0.07372
3990.19985	0.07420
3988.27129	0.07528
3986.34272	0.07628
3984.41416	0.07666
3982.48560	0.07645
3980.55703	0.07570
3978.62847	0.07493
3976.69990	0.07511
3974.77134	0.07625
3972.84277	0.07739
3970.91421	0.07797
3968.98564	0.07786
3967.05708	0.07742
3965.12852	0.07761
3963.19995	0.07846
3961.27139	0.07880
3959.34282	0.07840
3957.41426	0.07788
3955.48569	0.07759
3953.55713	0.07771
3951.62856	0.07829
3949.70000	0.07909
3947.77144	0.07953
3945.84287	0.07928
3943.91431	0.07935
3941.98574	0.07979
3940.05718	0.07936
3938.12861	0.07849
3936.20005	0.07806
3934.27148	0.07826
3932.34292	0.07927
3930.41436	0.08013
3928.48579	0.07984
3926.55723	0.07923
3924.62866	0.07909
3922.70010	0.07902
3920.77153	0.07889
3918.84297	0.07909
3916.91440	0.07922
3914.98584	0.07854
3913.05728	0.07722
3911.12871	0.07613
3909.20015	0.07605
3907.27158	0.07707
3905.34302	0.07931
3903.41445	0.08217
3901.48589	0.08309
3899.55732	0.08179
3897.62876	0.08027
3895.70020	0.07906
3893.77163	0.07881
3891.84307	0.07973
3889.91450	0.07993
3887.98594	0.07870
3886.05737	0.07851
3884.12881	0.07984
3882.20024	0.08100
3880.27168	0.08150
3878.34312	0.08067
3876.41455	0.07946
3874.48599	0.07999
3872.55742	0.08174
3870.62886	0.08320
3868.70029	0.08389
3866.77173	0.08342
3864.84316	0.08320
3862.91460	0.08370
3860.98604	0.08327
3859.05747	0.08217
3857.12891	0.08181
3855.20034	0.08329
3853.27178	0.08754
3851.34321	0.09049
3849.41465	0.08811
3847.48608	0.08532
3845.55752	0.08464
3843.62896	0.08628
3841.70039	0.08905
3839.77183	0.09146
3837.84326	0.09281
3835.91470	0.09268
3833.98613	0.09178
3832.05757	0.09112
3830.12900	0.09076
3828.20044	0.09092
3826.27187	0.09195
3824.34331	0.09306
3822.41475	0.09448
3820.48618	0.09760
3818.55762	0.09949
3816.62905	0.09893
3814.70049	0.09819
3812.77192	0.09727
3810.84336	0.09688
3808.91479	0.09791
3806.98623	0.10036
3805.05767	0.10303
3803.12910	0.10533
3801.20054	0.10799
3799.27197	0.10887
3797.34341	0.10795
3795.41484	0.10774
3793.48628	0.10762
3791.55771	0.10753
3789.62915	0.10829
3787.70059	0.10974
3785.77202	0.11194
3783.84346	0.11432
3781.91489	0.11588
3779.98633	0.11757
3778.05776	0.11964
3776.12920	0.12045
3774.20063	0.12067
3772.27207	0.12177
3770.34351	0.12426
3768.41494	0.12736
3766.48638	0.12966
3764.55781	0.13144
3762.62925	0.13293
3760.70068	0.13495
3758.77212	0.13852
3756.84355	0.14178
3754.91499	0.14345
3752.98643	0.14613
3751.05786	0.15220
3749.12930	0.15874
3747.20073	0.16051
3745.27217	0.16130
3743.34360	0.16455
3741.41504	0.16769
3739.48647	0.16990
3737.55791	0.17371
3735.62935	0.18014
3733.70078	0.18689
3731.77222	0.19062
3729.84365	0.19256
3727.91509	0.19532
3725.98652	0.20069
3724.05796	0.20810
3722.12939	0.21534
3720.20083	0.22168
3718.27227	0.22737
3716.34370	0.23342
3714.41514	0.24077
3712.48657	0.25093
3710.55801	0.26513
3708.62944	0.27929
3706.70088	0.29020
3704.77231	0.30058
3702.84375	0.31330
3700.91519	0.33016
3698.98662	0.34837
3697.05806	0.36553
3695.12949	0.38386
3693.20093	0.40377
3691.27236	0.42623
3689.34380	0.45537
3687.41523	0.48946
3685.48667	0.51792
3683.55811	0.54259
3681.62954	0.57025
3679.70098	0.60252
3677.77241	0.63669
3675.84385	0.67650
3673.91528	0.72932
3671.98672	0.77241
3670.05815	0.81063
3668.12959	0.86215
3666.20103	0.90885
3664.27246	0.94862
3662.34390	0.99148
3660.41533	1.03743
3658.48677	1.08321
3656.55820	1.13288
3654.62964	1.18815
3652.70107	1.23398
3650.77251	1.27402
3648.84395	1.32986
3646.91538	1.39689
3644.98682	1.44447
3643.05825	1.48131
3641.12969	1.52012
3639.20112	1.56284
3637.27256	1.60548
3635.34399	1.64740
3633.41543	1.69000
3631.48687	1.73064
3629.55830	1.77247
3627.62974	1.82611
3625.70117	1.87457
3623.77261	1.90702
3621.84404	1.93951
3619.91548	1.97834
3617.98691	2.02537
3616.05835	2.06950
3614.12979	2.10482
3612.20122	2.14088
3610.27266	2.17736
3608.34409	2.21631
3606.41553	2.26066
3604.48696	2.30131
3602.55840	2.33503
3600.62983	2.37079
3598.70127	2.41071
3596.77271	2.45050
3594.84414	2.49148
3592.91558	2.53404
3590.98701	2.57389
3589.05845	2.61000
3587.12988	2.65145
3585.20132	2.69841
3583.27275	2.73884
3581.34419	2.77434
3579.41562	2.81315
3577.48706	2.85639
3575.55850	2.89978
3573.62993	2.94249
3571.70137	2.98400
3569.77280	3.02525
3567.84424	3.06977
3565.91567	3.12240
3563.98711	3.17270
3562.05854	3.21415
3560.12998	3.25469
3558.20142	3.29771
3556.27285	3.34310
3554.34429	3.38813
3552.41572	3.43456
3550.48716	3.48200
3548.55859	3.52612
3546.63003	3.57095
3544.70146	3.62263
3542.77290	3.67466
3540.84434	3.72160
3538.91577	3.76757
3536.98721	3.81403
3535.05864	3.86216
3533.13008	3.91062
3531.20151	3.95583
3529.27295	3.99973
3527.34438	4.05074
3525.41582	4.10558
3523.48726	4.15589
3521.55869	4.20369
3519.63013	4.24826
3517.70156	4.29233
3515.77300	4.33944
3513.84443	4.38966
3511.91587	4.44350
3509.98730	4.49651
3508.05874	4.54597
3506.13018	4.59487
3504.20161	4.64276
3502.27305	4.68988
3500.34448	4.73683
3498.41592	4.78213
3496.48735	4.83070
3494.55879	4.88575
3492.63022	4.93734
3490.70166	4.97870
3488.77310	5.02020
3486.84453	5.06956
3484.91597	5.12330
3482.98740	5.17771
3481.05884	5.23131
3479.13027	5.27872
3477.20171	5.32196
3475.27314	5.37493
3473.34458	5.43710
3471.41602	5.49691
3469.48745	5.54680
3467.55889	5.58390
3465.63032	5.62368
3463.70176	5.68179
3461.77319	5.74397
3459.84463	5.79075
3457.91606	5.82756
3455.98750	5.87629
3454.05894	5.93391
3452.13037	5.97947
3450.20181	6.02067
3448.27324	6.07467
3446.34468	6.14096
3444.41611	6.20198
3442.48755	6.25151
3440.55898	6.30018
3438.63042	6.35324
3436.70186	6.39946
3434.77329	6.44922
3432.84473	6.52683
3430.91616	6.60090
3428.98760	6.65181
3427.05903	6.70642
3425.13047	6.75834
3423.20190	6.79150
3421.27334	6.83781
3419.34478	6.90482
3417.41621	6.96493
3415.48765	7.00850
3413.55908	7.03846
3411.63052	7.07935
3409.70195	7.13744
3407.77339	7.20079
3405.84482	7.24410
3403.91626	7.26886
3401.98770	7.31984
3400.05913	7.41134
3398.13057	7.49671
3396.20200	7.52782
3394.27344	7.54949
3392.34487	7.62078
3390.41631	7.70745
3388.48774	7.73185
3386.55918	7.72055
3384.63062	7.73091
3382.70205	7.78687
3380.77349	7.86107
3378.84492	7.90489
3376.91636	7.97202
3374.98779	8.07966
3373.05923	8.11377
3371.13066	8.02071
3369.20210	7.97005
3367.27354	8.07679
3365.34497	8.26033
3363.41641	8.35452
3361.48784	8.32406
3359.55928	8.28431
3357.63071	8.27534
3355.70215	8.28912
3353.77358	8.28880
3351.84502	8.26503
3349.91646	8.29768
3347.98789	8.42445
3346.05933	8.44619
3344.13076	8.31544
3342.20220	8.26441
3340.27363	8.29870
3338.34507	8.34862
3336.41650	8.36351
3334.48794	8.32172
3332.55937	8.27448
3330.63081	8.29641
3328.70225	8.46565
3326.77368	8.67217
3324.84512	8.68735
3322.91655	8.58255
3320.98799	8.52643
3319.05942	8.55111
3317.13086	8.62152
3315.20229	8.67438
3313.27373	8.73379
3311.34517	8.77126
3309.41660	8.74589
3307.48804	8.69661
3305.55947	8.65134
3303.63091	8.65407
3301.70234	8.68643
3299.77378	8.70072
3297.84521	8.62429
3295.91665	8.54862
3293.98809	8.59995
3292.05952	8.69811
3290.13096	8.71019
3288.20239	8.63076
3286.27383	8.59153
3284.34526	8.61277
3282.41670	8.62153
3280.48813	8.63399
3278.55957	8.65677
3276.63101	8.69684
3274.70244	8.79989
3272.77388	8.89897
3270.84531	8.91414
3268.91675	8.81330
3266.98818	8.73766
3265.05962	8.88145
3263.13105	9.00000
3261.20249	8.90112
3259.27393	8.92610
3257.34536	9.15821
3255.41680	9.27945
3253.48823	9.04692
3251.55967	8.69088
3249.63110	8.54665
3247.70254	8.66757
3245.77397	8.87728
3243.84541	9.05870
3241.91685	9.16746
3239.98828	9.15622
3238.05972	8.99418
3236.13115	8.79139
3234.20259	8.73238
3232.27402	8.73401
3230.34546	8.67070
3228.41689	8.67487
3226.48833	8.76691
3224.55977	8.72175
3222.63120	8.52157
3220.70264	8.35305
3218.77407	8.32030
3216.84551	8.38124
3214.91694	8.43561
3212.98838	8.50180
3211.05981	8.53431
3209.13125	8.44614
3207.20269	8.38326
3205.27412	8.42335
3203.34556	8.43132
3201.41699	8.33097
3199.48843	8.17054
3197.55986	8.05211
3195.63130	8.06066
3193.70273	8.10370
3191.77417	8.01955
3189.84561	7.89168
3187.91704	7.85354
3185.98848	7.85379
3184.05991	7.81684
3182.13135	7.75063
3180.20278	7.67607
3178.27422	7.59106
3176.34565	7.48512
3174.41709	7.38617
3172.48853	7.32574
3170.55996	7.30050
3168.63140	7.28964
3166.70283	7.26205
3164.77427	7.19821
3162.84570	7.08890
3160.91714	6.95747
3158.98857	6.86575
3157.06001	6.82323
3155.13145	6.77379
3153.20288	6.68835
3151.27432	6.60292
3149.34575	6.52810
3147.41719	6.44235
3145.48862	6.35864
3143.56006	6.28188
3141.63149	6.19745
3139.70293	6.11147
3137.77437	6.03306
3135.84580	5.95815
3133.91724	5.88558
3131.98867	5.81001
3130.06011	5.72517
3128.13154	5.64279
3126.20298	5.57021
3124.27441	5.49662
3122.34585	5.41413
3120.41729	5.33135
3118.48872	5.25779
3116.56016	5.18965
3114.63159	5.11769
3112.70303	5.04261
3110.77446	4.96926
3108.84590	4.89456
3106.91733	4.81812
3104.98877	4.74454
3103.06021	4.67371
3101.13164	4.60309
3099.20308	4.53197
3097.27451	4.45804
3095.34595	4.38296
3093.41738	4.31369
3091.48882	4.24814
3089.56025	4.17959
3087.63169	4.11104
3085.70312	4.04613
3083.77456	3.98115
3081.84600	3.91503
3079.91743	3.84970
3077.98887	3.78667
3076.06030	3.72677
3074.13174	3.66704
3072.20317	3.60481
3070.27461	3.54135
3068.34604	3.47920
3066.41748	3.42023
3064.48892	3.36387
3062.56035	3.30695
3060.63179	3.24870
3058.70322	3.19079
3056.77466	3.13467
3054.84609	3.08071
3052.91753	3.02751
3050.98896	2.97480
3049.06040	2.92264
3047.13184	2.87012
3045.20327	2.81817
3043.27471	2.76725
3041.34614	2.71599
3039.41758	2.66568
3037.48901	2.61853
3035.56045	2.57305
3033.63188	2.52761
3031.70332	2.48235
3029.77476	2.43729
3027.84619	2.39272
3025.91763	2.34889
3023.98906	2.30609
3022.06050	2.26459
3020.13193	2.22310
3018.20337	2.18067
3016.27480	2.13903
3014.34624	2.09928
3012.41768	2.06056
3010.48911	2.02284
3008.56055	1.98603
3006.63198	1.94942
3004.70342	1.91321
3002.77485	1.87752
3000.84629	1.84209
2998.91772	1.80731
2996.98916	1.77338
2995.06060	1.73957
2993.13203	1.70591
2991.20347	1.67348
2989.27490	1.64220
2987.34634	1.61126
2985.41777	1.58081
2983.48921	1.55077
2981.56064	1.52053
2979.63208	1.49059
2977.70352	1.46162
2975.77495	1.43328
2973.84639	1.40521
2971.91782	1.37759
2969.98926	1.35059
2968.06069	1.32394
2966.13213	1.29768
2964.20356	1.27246
2962.27500	1.24817
2960.34644	1.22423
2958.41787	1.20072
2956.48931	1.17758
2954.56074	1.15452
2952.63218	1.13204
2950.70361	1.11035
2948.77505	1.08869
2946.84648	1.06700
2944.91792	1.04620
2942.98936	1.02642
2941.06079	1.00678
2939.13223	0.98672
2937.20366	0.96663
2935.27510	0.94720
2933.34653	0.92892
2931.41797	0.91166
2929.48940	0.89459
2927.56084	0.87723
2925.63228	0.85988
2923.70371	0.84316
2921.77515	0.82734
2919.84658	0.81243
2917.91802	0.79824
2915.98945	0.78368
2914.06089	0.76806
2912.13232	0.75238
2910.20376	0.73755
2908.27520	0.72346
2906.34663	0.71022
2904.41807	0.69776
2902.48950	0.68531
2900.56094	0.67262
2898.63237	0.66032
2896.70381	0.64859
2894.77524	0.63694
2892.84668	0.62513
2890.91812	0.61356
2888.98955	0.60241
2887.06099	0.59157
2885.13242	0.58100
2883.20386	0.57031
2881.27529	0.55969
2879.34673	0.54977
2877.41816	0.54005
2875.48960	0.53013
2873.56104	0.52045
2871.63247	0.51120
2869.70391	0.50217
2867.77534	0.49325
2865.84678	0.48434
2863.91821	0.47543
2861.98965	0.46665
2860.06108	0.45800
2858.13252	0.44949
2856.20396	0.44133
2854.27539	0.43370
2852.34683	0.42659
2850.41826	0.41975
2848.48970	0.41266
2846.56113	0.40523
2844.63257	0.39827
2842.70400	0.39235
2840.77544	0.38690
2838.84687	0.38141
2836.91831	0.37592
2834.98975	0.37038
2833.06118	0.36477
2831.13262	0.35929
2829.20405	0.35383
2827.27549	0.34839
2825.34692	0.34306
2823.41836	0.33770
2821.48979	0.33244
2819.56123	0.32742
2817.63267	0.32240
2815.70410	0.31738
2813.77554	0.31254
2811.84697	0.30783
2809.91841	0.30300
2807.98984	0.29814
2806.06128	0.29377
2804.13271	0.28974
2802.20415	0.28542
2800.27559	0.28099
2798.34702	0.27683
2796.41846	0.27286
2794.48989	0.26903
2792.56133	0.26537
2790.63276	0.26176
2788.70420	0.25827
2786.77563	0.25490
2784.84707	0.25142
2782.91851	0.24774
2780.98994	0.24409
2779.06138	0.24070
2777.13281	0.23757
2775.20425	0.23459
2773.27568	0.23161
2771.34712	0.22862
2769.41855	0.22566
2767.48999	0.22261
2765.56143	0.21965
2763.63286	0.21696
2761.70430	0.21432
2759.77573	0.21171
2757.84717	0.20918
2755.91860	0.20664
2753.99004	0.20419
2752.06147	0.20183
2750.13291	0.19952
2748.20435	0.19740
2746.27578	0.19534
2744.34722	0.19311
2742.41865	0.19080
2740.49009	0.18860
2738.56152	0.18664
2736.63296	0.18469
2734.70439	0.18258
2732.77583	0.18053
2730.84727	0.17868
2728.91870	0.17695
2726.99014	0.17528
2725.06157	0.17356
2723.13301	0.17176
2721.20444	0.17005
2719.27588	0.16838
2717.34731	0.16675
2715.41875	0.16540
2713.49019	0.16424
2711.56162	0.16288
2709.63306	0.16136
2707.70449	0.15990
2705.77593	0.15870
2703.84736	0.15775
2701.91880	0.15668
2699.99023	0.15539
2698.06167	0.15413
2696.13311	0.15292
2694.20454	0.15171
2692.27598	0.15066
2690.34741	0.14988
2688.41885	0.14902
2686.49028	0.14784
2684.56172	0.14678
2682.63315	0.14608
2680.70459	0.14535
2678.77603	0.14444
2676.84746	0.14349
2674.91890	0.14270
2672.99033	0.14206
2671.06177	0.14144
2669.13320	0.14075
2667.20464	0.14000
2665.27607	0.13931
2663.34751	0.13863
2661.41895	0.13792
2659.49038	0.13736
2657.56182	0.13699
2655.63325	0.13658
2653.70469	0.13604
2651.77612	0.13560
2649.84756	0.13525
2647.91899	0.13487
2645.99043	0.13464
2644.06187	0.13444
2642.13330	0.13403
2640.20474	0.13359
2638.27617	0.13331
2636.34761	0.13319
2634.41904	0.13323
2632.49048	0.13318
2630.56191	0.13290
2628.63335	0.13258
2626.70479	0.13230
2624.77622	0.13202
2622.84766	0.13198
2620.91909	0.13216
2618.99053	0.13235
2617.06196	0.13248
2615.13340	0.13248
2613.20483	0.13242
2611.27627	0.13238
2609.34771	0.13238
2607.41914	0.13249
2605.49058	0.13262
2603.56201	0.13275
2601.63345	0.13302
2599.70488	0.13321
2597.77632	0.13323
2595.84775	0.13335
2593.91919	0.13355
2591.99062	0.13375
2590.06206	0.13407
2588.13350	0.13447
2586.20493	0.13493
2584.27637	0.13548
2582.34780	0.13596
2580.41924	0.13629
2578.49067	0.13655
2576.56211	0.13685
2574.63354	0.13729
2572.70498	0.13782
2570.77642	0.13832
2568.84785	0.13876
2566.91929	0.13925
2564.99072	0.13984
2563.06216	0.14045
2561.13359	0.14101
2559.20503	0.14147
2557.27646	0.14189
2555.34790	0.14252
2553.41934	0.14329
2551.49077	0.14387
2549.56221	0.14442
2547.63364	0.14521
2545.70508	0.14599
2543.77651	0.14657
2541.84795	0.14722
2539.91938	0.14802
2537.99082	0.14884
2536.06226	0.14967
2534.13369	0.15044
2532.20513	0.15115
2530.27656	0.15189
2528.34800	0.15264
2526.41943	0.15345
2524.49087	0.15435
2522.56230	0.15519
2520.63374	0.15592
2518.70518	0.15668
2516.77661	0.15761
2514.84805	0.15863
2512.91948	0.15947
2510.99092	0.16016
2509.06235	0.16094
2507.13379	0.16182
2505.20522	0.16269
2503.27666	0.16355
2501.34810	0.16448
2499.41953	0.16537
2497.49097	0.16619
2495.56240	0.16714
2493.63384	0.16815
2491.70527	0.16911
2489.77671	0.17008
2487.84814	0.17095
2485.91958	0.17182
2483.99102	0.17288
2482.06245	0.17397
2480.13389	0.17487
2478.20532	0.17568
2476.27676	0.17663
2474.34819	0.17770
2472.41963	0.17867
2470.49106	0.17958
2468.56250	0.18056
2466.63394	0.18165
2464.70537	0.18278
2462.77681	0.18389
2460.84824	0.18494
2458.91968	0.18595
2456.99111	0.18695
2455.06255	0.18784
2453.13398	0.18875
2451.20542	0.18988
2449.27686	0.19105
2447.34829	0.19211
2445.41973	0.19314
2443.49116	0.19425
2441.56260	0.19541
2439.63403	0.19656
2437.70547	0.19762
2435.77690	0.19872
2433.84834	0.19987
2431.91978	0.20094
2429.99121	0.20198
2428.06265	0.20314
2426.13408	0.20433
2424.20552	0.20549
2422.27695	0.20665
2420.34839	0.20783
2418.41982	0.20905
2416.49126	0.21036
2414.56270	0.21170
2412.63413	0.21298
2410.70557	0.21418
2408.77700	0.21528
2406.84844	0.21634
2404.91987	0.21756
2402.99131	0.21894
2401.06274	0.22032
2399.13418	0.22168
2397.20562	0.22302
2395.27705	0.22428
2393.34849	0.22554
2391.41992	0.22685
2389.49136	0.22824
2387.56279	0.22980
2385.63423	0.23163
2383.70566	0.23387
2381.77710	0.23655
2379.84854	0.23962
2377.91997	0.24300
2375.99141	0.24657
2374.06284	0.25044
2372.13428	0.25525
2370.20571	0.26132
2368.27715	0.26752
2366.34858	0.27268
2364.42002	0.27723
2362.49146	0.28026
2360.56289	0.28081
2358.63433	0.28173
2356.70576	0.28315
2354.77720	0.28208
2352.84863	0.27941
2350.92007	0.27675
2348.99150	0.27528
2347.06294	0.27609
2345.13437	0.27984
2343.20581	0.28543
2341.27725	0.28922
2339.34868	0.29064
2337.42012	0.29157
2335.49155	0.29250
2333.56299	0.29347
2331.63442	0.29482
2329.70586	0.29603
2327.77729	0.29697
2325.84873	0.29779
2323.92017	0.29823
2321.99160	0.29852
2320.06304	0.29887
2318.13447	0.29919
2316.20591	0.29961
2314.27734	0.30033
2312.34878	0.30139
2310.42021	0.30252
2308.49165	0.30351
2306.56309	0.30460
2304.63452	0.30575
2302.70596	0.30679
2300.77739	0.30792
2298.84883	0.30933
2296.92026	0.31097
2294.99170	0.31260
2293.06313	0.31406
2291.13457	0.31545
2289.20601	0.31693
2287.27744	0.31858
2285.34888	0.32036
2283.42031	0.32213
2281.49175	0.32403
2279.56318	0.32630
2277.63462	0.32865
2275.70605	0.33075
2273.77749	0.33276
2271.84893	0.33488
2269.92036	0.33693
2267.99180	0.33894
2266.06323	0.34111
2264.13467	0.34337
2262.20610	0.34560
2260.27754	0.34776
2258.34897	0.34982
2256.42041	0.35195
2254.49185	0.35423
2252.56328	0.35650
2250.63472	0.35872
2248.70615	0.36082
2246.77759	0.36290
2244.84902	0.36508
2242.92046	0.36728
2240.99189	0.36951
2239.06333	0.37183
2237.13477	0.37413
2235.20620	0.37631
2233.27764	0.37844
2231.34907	0.38066
2229.42051	0.38301
2227.49194	0.38530
2225.56338	0.38745
2223.63481	0.38956
2221.70625	0.39180
2219.77769	0.39416
2217.84912	0.39645
2215.92056	0.39866
2213.99199	0.40089
2212.06343	0.40317
2210.13486	0.40542
2208.20630	0.40757
2206.27773	0.40967
2204.34917	0.41180
2202.42061	0.41399
2200.49204	0.41615
2198.56348	0.41813
2196.63491	0.41999
2194.70635	0.42199
2192.77778	0.42409
2190.84922	0.42611
2188.92065	0.42809
2186.99209	0.43003
2185.06353	0.43183
2183.13496	0.43351
2181.20640	0.43514
2179.27783	0.43681
2177.34927	0.43856
2175.42070	0.44028
2173.49214	0.44199
2171.56357	0.44363
2169.63501	0.44501
2167.70645	0.44625
2165.77788	0.44748
2163.84932	0.44865
2161.92075	0.44981
2159.99219	0.45092
2158.06362	0.45190
2156.13506	0.45282
2154.20649	0.45370
2152.27793	0.45458
2150.34937	0.45539
2148.42080	0.45604
2146.49224	0.45659
2144.56367	0.45722
2142.63511	0.45798
2140.70654	0.45862
2138.77798	0.45891
2136.84941	0.45889
2134.92085	0.45876
2132.99229	0.45859
2131.06372	0.45836
2129.13516	0.45801
2127.20659	0.45773
2125.27803	0.45760
2123.34946	0.45732
2121.42090	0.45678
2119.49233	0.45620
2117.56377	0.45559
2115.63521	0.45485
2113.70664	0.45407
2111.77808	0.45333
2109.84951	0.45253
2107.92095	0.45150
2105.99238	0.45023
2104.06382	0.44895
2102.13525	0.44769
2100.20669	0.44634
2098.27812	0.44491
2096.34956	0.44342
2094.42100	0.44190
2092.49243	0.44032
2090.56387	0.43867
2088.63530	0.43690
2086.70674	0.43507
2084.77817	0.43324
2082.84961	0.43134
2080.92104	0.42928
2078.99248	0.42721
2077.06392	0.42519
2075.13535	0.42312
2073.20679	0.42088
2071.27822	0.41854
2069.34966	0.41619
2067.42109	0.41385
2065.49253	0.41157
2063.56396	0.40926
2061.63540	0.40681
2059.70684	0.40430
2057.77827	0.40178
2055.84971	0.39925
2053.92114	0.39671
2051.99258	0.39414
2050.06401	0.39151
2048.13545	0.38880
2046.20688	0.38606
2044.27832	0.38341
2042.34976	0.38075
2040.42119	0.37801
2038.49263	0.37533
2036.56406	0.37264
2034.63550	0.36986
2032.70693	0.36706
2030.77837	0.36432
2028.84980	0.36157
2026.92124	0.35883
2024.99268	0.35602
2023.06411	0.35316
2021.13555	0.35039
2019.20698	0.34778
2017.27842	0.34523
2015.34985	0.34252
2013.42129	0.33965
2011.49272	0.33673
2009.56416	0.33395
2007.63560	0.33131
2005.70703	0.32862
2003.77847	0.32587
2001.84990	0.32326
1999.92134	0.32077
1997.99277	0.31823
1996.06421	0.31564
1994.13564	0.31316
1992.20708	0.31075
1990.27852	0.30818
1988.34995	0.30560
1986.42139	0.30311
1984.49282	0.30055
1982.56426	0.29798
1980.63569	0.29558
1978.70713	0.29329
1976.77856	0.29102
1974.85000	0.28883
1972.92144	0.28671
1970.99287	0.28463
1969.06431	0.28266
1967.13574	0.28072
1965.20718	0.27856
1963.27861	0.27643
1961.35005	0.27453
1959.42148	0.27268
1957.49292	0.27085
1955.56436	0.26910
1953.63579	0.26737
1951.70723	0.26562
1949.77866	0.26393
1947.85010	0.26237
1945.92153	0.26102
1943.99297	0.25983
1942.06440	0.25844
1940.13584	0.25669
1938.20728	0.25505
1936.27871	0.25371
1934.35015	0.25246
1932.42158	0.25116
1930.49302	0.24990
1928.56445	0.24879
1926.63589	0.24790
1924.70732	0.24724
1922.77876	0.24653
1920.85020	0.24551
1918.92163	0.24448
1916.99307	0.24353
1915.06450	0.24251
1913.13594	0.24153
1911.20737	0.24079
1909.27881	0.24020
1907.35024	0.23956
1905.42168	0.23881
1903.49312	0.23808
1901.56455	0.23747
1899.63599	0.23702
1897.70742	0.23668
1895.77886	0.23642
1893.85029	0.23611
1891.92173	0.23570
1889.99316	0.23553
1888.06460	0.23536
1886.13604	0.23499
1884.20747	0.23466
1882.27891	0.23439
1880.35034	0.23422
1878.42178	0.23414
1876.49321	0.23409
1874.56465	0.23407
1872.63608	0.23435
1870.70752	0.23500
1868.77896	0.23590
1866.85039	0.23613
1864.92183	0.23561
1862.99326	0.23537
1861.06470	0.23565
1859.13613	0.23606
1857.20757	0.23632
1855.27900	0.23667
1853.35044	0.23722
1851.42187	0.23788
1849.49331	0.23861
1847.56475	0.23955
1845.63618	0.24079
1843.70762	0.24200
1841.77905	0.24242
1839.85049	0.24243
1837.92192	0.24303
1835.99336	0.24400
1834.06479	0.24502
1832.13623	0.24618
1830.20767	0.24787
1828.27910	0.24942
1826.35054	0.25028
1824.42197	0.25136
1822.49341	0.25246
1820.56484	0.25347
1818.63628	0.25478
1816.70771	0.25649
1814.77915	0.25818
1812.85059	0.26002
1810.92202	0.26222
1808.99346	0.26431
1807.06489	0.26612
1805.13633	0.26799
1803.20776	0.27033
1801.27920	0.27303
1799.35063	0.27585
1797.42207	0.27834
1795.49351	0.28091
1793.56494	0.28407
1791.63638	0.28791
1789.70781	0.29108
1787.77925	0.29336
1785.85068	0.29647
1783.92212	0.30033
1781.99355	0.30435
1780.06499	0.30850
1778.13643	0.31279
1776.20786	0.31705
1774.27930	0.32190
1772.35073	0.32835
1770.42217	0.33470
1768.49360	0.33955
1766.56504	0.34435
1764.63647	0.34955
1762.70791	0.35547
1760.77935	0.36305
1758.85078	0.37027
1756.92222	0.37761
1754.99365	0.38551
1753.06509	0.39266
1751.13652	0.40140
1749.20796	0.41256
1747.27939	0.42334
1745.35083	0.43250
1743.42227	0.44218
1741.49370	0.45300
1739.56514	0.46566
1737.63657	0.47826
1735.70801	0.48951
1733.77944	0.50646
1731.85088	0.52616
1729.92231	0.54141
1727.99375	0.55693
1726.06519	0.57380
1724.13662	0.59229
1722.20806	0.61215
1720.27949	0.63069
1718.35093	0.65291
1716.42236	0.68530
1714.49380	0.71522
1712.56523	0.73917
1710.63667	0.76254
1708.70811	0.78786
1706.77954	0.81685
1704.85098	0.85157
1702.92241	0.88261
1700.99385	0.91312
1699.06528	0.95775
1697.13672	0.99804
1695.20815	1.03848
1693.27959	1.07718
1691.35103	1.10840
1689.42246	1.14475
1687.49390	1.18272
1685.56533	1.21897
1683.63677	1.27456
1681.70820	1.33117
1679.77964	1.36673
1677.85107	1.40084
1675.92251	1.44101
1673.99395	1.49083
1672.06538	1.53423
1670.13682	1.57606
1668.20825	1.62948
1666.27969	1.67167
1664.35112	1.70693
1662.42256	1.75004
1660.49399	1.79604
1658.56543	1.83130
1656.63687	1.86200
1654.70830	1.89390
1652.77974	1.94762
1650.85117	1.99735
1648.92261	2.01599
1646.99404	2.04154
1645.06548	2.07374
1643.13691	2.09724
1641.20835	2.11267
1639.27979	2.12555
1637.35122	2.13414
1635.42266	2.13764
1633.49409	2.13446
1631.56553	2.12411
1629.63696	2.11028
1627.70840	2.08780
1625.77983	2.06170
1623.85127	2.02850
1621.92271	1.98560
1619.99414	1.94599
1618.06558	1.90785
1616.13701	1.85232
1614.20845	1.79268
1612.27988	1.74701
1610.35132	1.70085
1608.42275	1.65060
1606.49419	1.59970
1604.56562	1.55196
1602.63706	1.50554
1600.70850	1.45972
1598.77993	1.41747
1596.85137	1.37803
1594.92280	1.33954
1592.99424	1.30149
1591.06567	1.26604
1589.13711	1.23291
1587.20854	1.20183
1585.27998	1.17251
1583.35142	1.14439
1581.42285	1.11818
1579.49429	1.09576
1577.56572	1.07547
1575.63716	1.04932
1573.70859	1.02521
1571.78003	1.00946
1569.85146	0.99230
1567.92290	0.97166
1565.99434	0.95473
1564.06577	0.94055
1562.13721	0.92923
1560.20864	0.92007
1558.28008	0.90222
1556.35151	0.88404
1554.42295	0.87262
1552.49438	0.86140
1550.56582	0.85058
1548.63726	0.83996
1546.70869	0.83102
1544.78013	0.82374
1542.85156	0.81695
1540.92300	0.80931
1538.99443	0.79735
1537.06587	0.78727
1535.13730	0.78072
1533.20874	0.77341
1531.28018	0.76556
1529.35161	0.75987
1527.42305	0.75487
1525.49448	0.74959
1523.56592	0.74480
1521.63735	0.73979
1519.70879	0.73331
1517.78022	0.72708
1515.85166	0.72082
1513.92310	0.71511
1511.99453	0.71098
1510.06597	0.70805
1508.13740	0.70596
1506.20884	0.70107
1504.28027	0.69439
1502.35171	0.69020
1500.42314	0.68715
1498.49458	0.68444
1496.56602	0.68115
1494.63745	0.67714
1492.70889	0.67390
1490.78032	0.67167
1488.85176	0.66903
1486.92319	0.66536
1484.99463	0.66182
1483.06606	0.65886
1481.13750	0.65613
1479.20894	0.65357
1477.28037	0.65152
1475.35181	0.64984
1473.42324	0.64777
1471.49468	0.64410
1469.56611	0.64005
1467.63755	0.63706
1465.70898	0.63480
1463.78042	0.63249
1461.85186	0.63034
1459.92329	0.62901
1457.99473	0.62814
1456.06616	0.62583
1454.13760	0.62229
1452.20903	0.61963
1450.28047	0.61783
1448.35190	0.61635
1446.42334	0.61447
1444.49478	0.61231
1442.56621	0.61037
1440.63765	0.60887
1438.70908	0.60793
1436.78052	0.60709
1434.85195	0.60553
1432.92339	0.60374
1430.99482	0.60227
1429.06626	0.60069
1427.13770	0.59903
1425.20913	0.59782
1423.28057	0.59680
1421.35200	0.59571
1419.42344	0.59458
1417.49487	0.59276
1415.56631	0.59053
1413.63774	0.58879
1411.70918	0.58734
1409.78062	0.58590
1407.85205	0.58454
1405.92349	0.58347
1403.99492	0.58241
1402.06636	0.58114
1400.13779	0.58019
1398.20923	0.57944
1396.28066	0.57832
1394.35210	0.57667
1392.42354	0.57470
1390.49497	0.57306
1388.56641	0.57193
1386.63784	0.57090
1384.70928	0.56963
1382.78071	0.56842
1380.85215	0.56738
1378.92358	0.56643
1376.99502	0.56568
1375.06646	0.56505
1373.13789	0.56402
1371.20933	0.56269
1369.28076	0.56163
1367.35220	0.56069
1365.42363	0.55979
1363.49507	0.55909
1361.56650	0.55822
1359.63794	0.55698
1357.70937	0.55586
1355.78081	0.55501
1353.85225	0.55419
1351.92368	0.55321
1349.99512	0.55221
1348.06655	0.55130
1346.13799	0.55050
1344.20942	0.54978
1342.28086	0.54904
1340.35229	0.54843
1338.42373	0.54772
1336.49517	0.54654
1334.56660	0.54524
1332.63804	0.54415
1330.70947	0.54329
1328.78091	0.54252
1326.85234	0.54161
1324.92378	0.54058
1322.99521	0.53966
1321.06665	0.53893
1319.13809	0.53818
1317.20952	0.53728
1315.28096	0.53646
1313.35239	0.53574
1311.42383	0.53492
1309.49526	0.53394
1307.56670	0.53288
1305.63813	0.53190
1303.70957	0.53105
1301.78101	0.53024
1299.85244	0.52942
1297.92388	0.52859
1295.99531	0.52775
1294.06675	0.52688
1292.13818	0.52594
1290.20962	0.52513
1288.28105	0.52458
1286.35249	0.52407
1284.42393	0.52333
1282.49536	0.52237
1280.56680	0.52137
1278.63823	0.52042
1276.70967	0.51967
1274.78110	0.51910
1272.85254	0.51839
1270.92397	0.51758
1268.99541	0.51696
1267.06685	0.51645
1265.13828	0.51584
1263.20972	0.51508
1261.28115	0.51417
1259.35259	0.51324
1257.42402	0.51246
1255.49546	0.51174
1253.56689	0.51105
1251.63833	0.51037
1249.70977	0.50970
1247.78120	0.50914
1245.85264	0.50862
1243.92407	0.50794
1241.99551	0.50710
1240.06694	0.50631
1238.13838	0.50565
1236.20981	0.50499
1234.28125	0.50417
1232.35269	0.50322
1230.42412	0.50234
1228.49556	0.50148
1226.56699	0.50057
1224.63843	0.49978
1222.70986	0.49905
1220.78130	0.49816
1218.85273	0.49724
1216.92417	0.49637
1214.99561	0.49552
1213.06704	0.49474
1211.13848	0.49392
1209.20991	0.49293
1207.28135	0.49189
1205.35278	0.49101
1203.42422	0.49026
1201.49565	0.48935
1199.56709	0.48830
1197.63853	0.48738
1195.70996	0.48649
1193.78140	0.48555
1191.85283	0.48464
1189.92427	0.48366
1187.99570	0.48255
1186.06714	0.48140
1184.13857	0.48019
1182.21001	0.47898
1180.28145	0.47803
1178.35288	0.47742
1176.42432	0.47684
1174.49575	0.47598
1172.56719	0.47490
1170.63862	0.47391
1168.71006	0.47316
1166.78149	0.47248
1164.85293	0.47162
1162.92437	0.47061
1160.99580	0.46970
1159.06724	0.46885
1157.13867	0.46792
1155.21011	0.46699
1153.28154	0.46626
1151.35298	0.46581
1149.42441	0.46525
1147.49585	0.46431
1145.56729	0.46324
1143.63872	0.46234
1141.71016	0.46153
1139.78159	0.46073
1137.85303	0.46006
1135.92446	0.45942
1133.99590	0.45863
1132.06733	0.45777
1130.13877	0.45692
1128.21021	0.45605
1126.28164	0.45521
1124.35308	0.45452
1122.42451	0.45393
1120.49595	0.45343
1118.56738	0.45301
1116.63882	0.45256
1114.71025	0.45201
1112.78169	0.45139
1110.85312	0.45077
1108.92456	0.45037
1106.99600	0.45023
1105.06743	0.44991
1103.13887	0.44918
1101.21030	0.44866
1099.28174	0.44855
1097.35317	0.44830
1095.42461	0.44778
1093.49604	0.44726
1091.56748	0.44701
1089.63892	0.44698
1087.71035	0.44676
1085.78179	0.44631
1083.85322	0.44600
1081.92466	0.44602
1079.99609	0.44623
1078.06753	0.44625
1076.13896	0.44598
1074.21040	0.44578
1072.28184	0.44576
1070.35327	0.44572
1068.42471	0.44571
1066.49614	0.44586
1064.56758	0.44604
1062.63901	0.44613
1060.71045	0.44623
1058.78188	0.44652
1056.85332	0.44695
1054.92476	0.44728
1052.99619	0.44745
1051.06763	0.44764
1049.13906	0.44800
1047.21050	0.44850
1045.28193	0.44893
1043.35337	0.44935
1041.42480	0.44989
1039.49624	0.45044
1037.56768	0.45109
1035.63911	0.45188
1033.71055	0.45275
1031.78198	0.45383
1029.85342	0.45499
1027.92485	0.45590
1025.99629	0.45672
1024.06772	0.45782
1022.13916	0.45899
1020.21060	0.46004
1018.28203	0.46117
1016.35347	0.46245
1014.42490	0.46390
1012.49634	0.46549
1010.56777	0.46713
1008.63921	0.46880
1006.71064	0.47039
1004.78208	0.47202
1002.85352	0.47385
1000.92495	0.47584
998.99639	0.47773
997.06782	0.47946
995.13926	0.48127
993.21069	0.48340
991.28213	0.48588
989.35356	0.48851
987.42500	0.49100
985.49644	0.49350
983.56787	0.49647
981.63931	0.49977
979.71074	0.50286
977.78218	0.50556
975.85361	0.50834
973.92505	0.51159
971.99648	0.51521
970.06792	0.51893
968.13936	0.52270
966.21079	0.52666
964.28223	0.53073
962.35366	0.53471
960.42510	0.53888
958.49653	0.54345
956.56797	0.54809
954.63940	0.55259
952.71084	0.55716
950.78228	0.56220
948.85371	0.56758
946.92515	0.57265
944.99658	0.57753
943.06802	0.58299
941.13945	0.58912
939.21089	0.59545
937.28232	0.60165
935.35376	0.60752
933.42520	0.61362
931.49663	0.62070
929.56807	0.62855
927.63950	0.63667
925.71094	0.64451
923.78237	0.65165
921.85381	0.65862
919.92524	0.66620
917.99668	0.67458
916.06812	0.68319
914.13955	0.69153
912.21099	0.70011
910.28242	0.70950
908.35386	0.71956
906.42529	0.72974
904.49673	0.73899
902.56816	0.74695
900.63960	0.75536
898.71104	0.76546
896.78247	0.77597
894.85391	0.78653
892.92534	0.79704
890.99678	0.80616
889.06821	0.81488
887.13965	0.82506
885.21108	0.83679
883.28252	0.84894
881.35396	0.86011
879.42539	0.87067
877.49683	0.88251
875.56826	0.89555
873.63970	0.90782
871.71113	0.91936
869.78257	0.93158
867.85400	0.94460
865.92544	0.95766
863.99687	0.97033
862.06831	0.98160
860.13975	0.99074
858.21118	0.99984
856.28262	1.01124
854.35405	1.02517
852.42549	1.03975
850.49692	1.05343
848.56836	1.06631
846.63979	1.07794
844.71123	1.08857
842.78267	1.09922
840.85410	1.10996
838.92554	1.12186
836.99697	1.13659
835.06841	1.15168
833.13984	1.16496
831.21128	1.17877
829.28271	1.19422
827.35415	1.20966
825.42559	1.22555
823.49702	1.24515
821.56846	1.26454
819.63989	1.27699
817.71133	1.28746
815.78276	1.30113
813.85420	1.31326
811.92563	1.33227
809.99707	1.36240
808.06851	1.37710
806.13994	1.37009
804.21138	1.36761
802.28281	1.39619
800.35425	1.45229
798.42568	1.50776
796.49712	1.57298
794.56855	1.65411
792.63999	1.69330
790.71143	1.68905
788.78286	1.70343
786.85430	1.71041
784.92573	1.66312
782.99717	1.65764
781.06860	1.83302
779.14004	2.22288
777.21147	4.66327
775.28291	4.65170
773.35435	3.05280
771.42578	1.64872
769.49722	1.54434
767.56865	1.61084
765.64009	1.74554
763.71152	1.67134
761.78296	1.40798
759.85439	1.24586
757.92583	1.16056
755.99727	1.12534
754.06870	1.17662
752.14014	1.29706
750.21157	1.29433
748.28301	1.15813
746.35444	1.03605
744.42588	0.98981
742.49731	1.02885
740.56875	0.98267
738.64019	0.79122
736.71162	0.63931
734.78306	0.57392
732.85449	0.56003
730.92593	0.52987
728.99736	0.40036
727.06880	0.20841
725.14023	-0.01565
723.21167	-0.20251
721.28311	-0.29441
719.35454	-0.29728
717.42598	-0.24035
715.49741	-0.03518
713.56885	0.01409
711.64028	-0.08150
709.71172	0.03632
707.78315	0.20360
705.85459	0.30304
703.92603	0.30034
701.99746	0.25550
700.06890	0.21082
698.14033	0.14584
696.21177	0.13331
694.28320	0.19421
692.35464	0.22939
690.42607	0.20453
688.49751	0.19637
686.56895	0.22233
684.64038	0.23746
682.71182	0.23459
680.78325	0.25702
678.85469	0.27630
676.92612	0.23549
674.99756	0.19589
673.06899	0.22976
671.14043	0.24938
669.21187	0.18437
667.28330	0.14354
665.35474	0.17743
663.42617	0.19678
661.49761	0.17508
659.56904	0.19645
657.64048	0.25656
655.71191	0.28381
653.78335	0.24203
651.85479	0.20629
649.92622	0.18559
647.99766	0.10391
646.06909	0.04115
644.14053	0.09158
642.21196	0.23418
640.28340	0.29641
638.35483	0.23774
636.42627	0.20126
634.49771	0.23825
632.56914	0.30228
630.64058	0.33493
628.71201	0.30607
626.78345	0.25210
624.85488	0.23471
622.92632	0.26328
620.99775	0.27710
619.06919	0.25244
617.14062	0.22127
615.21206	0.22576
613.28350	0.23700
611.35493	0.15692
609.42637	0.08699
607.49780	0.10236
605.56924	0.18198
603.64067	0.27282
601.71211	0.31864
599.78354	0.34010
597.85498	0.37572
595.92642	0.35013
593.99785	0.28092
592.06929	0.25218
590.14072	0.24893
588.21216	0.22855
586.28359	0.19684
584.35503	0.17987
582.42646	0.17456
580.49790	0.17472
578.56934	0.19066
576.64077	0.20137
574.71221	0.18541
572.78364	0.18590
570.85508	0.20647
568.92651	0.17766
566.99795	0.14447
565.06938	0.15031
563.14082	0.14581
561.21226	0.11247
559.28369	0.10503
557.35513	0.15646
555.42656	0.18896
553.49800	0.18016
551.56943	0.18869
549.64087	0.23176
547.71230	0.28845
545.78374	0.32254
543.85518	0.29810
541.92661	0.26482
539.99805	0.25562
538.06948	0.23186
536.14092	0.18553
534.21235	0.16104
532.28379	0.15479
530.35522	0.15103
528.42666	0.15530
526.49810	0.14294
524.56953	0.11353
522.64097	0.10044
520.71240	0.10890
518.78384	0.13319
516.85527	0.14641
514.92671	0.12602
512.99814	0.10236
511.06958	0.12341
509.14102	0.16556
507.21245	0.19439
505.28389	0.22973
503.35532	0.22125
501.42676	0.15662
499.49819	0.13846
