3997.91411	0.06242
3995.98555	0.06257
3994.05698	0.06299
3992.12842	0.06365
3990.19985	0.06401
3988.27129	0.06394
3986.34272	0.06380
3984.41416	0.06409
3982.48560	0.06470
3980.55703	0.06511
3978.62847	0.06511
3976.69990	0.06505
3974.77134	0.06529
3972.84277	0.06587
3970.91421	0.06629
3968.98564	0.06636
3967.05708	0.06623
3965.12852	0.06607
3963.19995	0.06627
3961.27139	0.06661
3959.34282	0.06661
3957.41426	0.06636
3955.48569	0.06610
3953.55713	0.06601
3951.62856	0.06606
3949.70000	0.06621
3947.77144	0.06672
3945.84287	0.06729
3943.91431	0.06724
3941.98574	0.06700
3940.05718	0.06716
3938.12861	0.06731
3936.20005	0.06715
3934.27148	0.06679
3932.34292	0.06644
3930.41436	0.06626
3928.48579	0.06626
3926.55723	0.06620
3924.62866	0.06615
3922.70010	0.06611
3920.77153	0.06592
3918.84297	0.06566
3916.91440	0.06578
3914.98584	0.06663
3913.05728	0.06722
3911.12871	0.06695
3909.20015	0.06633
3907.27158	0.06555
3905.34302	0.06473
3903.41445	0.06425
3901.48589	0.06421
3899.55732	0.06472
3897.62876	0.06546
3895.70020	0.06568
3893.77163	0.06542
3891.84307	0.06507
3889.91450	0.06509
3887.98594	0.06520
3886.05737	0.06524
3884.12881	0.06569
3882.20024	0.06605
3880.27168	0.06613
3878.34312	0.06671
3876.41455	0.06710
3874.48599	0.06697
3872.55742	0.06702
3870.62886	0.06728
3868.70029	0.06749
3866.77173	0.06751
3864.84316	0.06755
3862.91460	0.06807
3860.98604	0.06888
3859.05747	0.06918
3857.12891	0.06849
3855.20034	0.06710
3853.27178	0.06677
3851.34321	0.06968
3849.41465	0.07195
3847.48608	0.07251
3845.55752	0.07264
3843.62896	0.07254
3841.70039	0.07239
3839.77183	0.07261
3837.84326	0.07368
3835.91470	0.07493
3833.98613	0.07543
3832.05757	0.07596
3830.12900	0.07675
3828.20044	0.07720
3826.27187	0.07741
3824.34331	0.07774
3822.41475	0.07827
3820.48618	0.07992
3818.55762	0.08242
3816.62905	0.08403
3814.70049	0.08511
3812.77192	0.08571
3810.84336	0.08593
3808.91479	0.08598
3806.98623	0.08611
3805.05767	0.08706
3803.12910	0.08840
3801.20054	0.08982
3799.27197	0.09170
3797.34341	0.09286
3795.41484	0.09370
3793.48628	0.09531
3791.55771	0.09726
3789.62915	0.09878
3787.70059	0.09996
3785.77202	0.10119
3783.84346	0.10223
3781.91489	0.10301
3779.98633	0.10398
3778.05776	0.10573
3776.12920	0.10813
3774.20063	0.11032
3772.27207	0.11187
3770.34351	0.11319
3768.41494	0.11509
3766.48638	0.11719
3764.55781	0.11905
3762.62925	0.12067
3760.70068	0.12234
3758.77212	0.12473
3756.84355	0.12746
3754.91499	0.12953
3752.98643	0.13105
3751.05786	0.13278
3749.12930	0.13605
3747.20073	0.13928
3745.27217	0.14136
3743.34360	0.14520
3741.41504	0.15012
3739.48647	0.15302
3737.55791	0.15487
3735.62935	0.15763
3733.70078	0.16275
3731.77222	0.16853
3729.84365	0.17335
3727.91509	0.17776
3725.98652	0.18301
3724.05796	0.18961
3722.12939	0.19675
3720.20083	0.20403
3718.27227	0.21154
3716.34370	0.21938
3714.41514	0.22685
3712.48657	0.23488
3710.55801	0.24662
3708.62944	0.26106
3706.70088	0.27384
3704.77231	0.28529
3702.84375	0.29779
3700.91519	0.31411
3698.98662	0.33264
3697.05806	0.35038
3695.12949	0.36878
3693.20093	0.38773
3691.27236	0.40754
3689.34380	0.43352
3687.41523	0.46787
3685.48667	0.49951
3683.55811	0.52615
3681.62954	0.55354
3679.70098	0.58382
3677.77241	0.61544
3675.84385	0.65237
3673.91528	0.70287
3671.98672	0.74592
3670.05815	0.78477
3668.12959	0.83870
3666.20103	0.88895
3664.27246	0.93049
3662.34390	0.97384
3660.41533	1.01992
3658.48677	1.06528
3656.55820	1.11338
3654.62964	1.16673
3652.70107	1.21137
3650.77251	1.24919
3648.84395	1.30130
3646.91538	1.36795
3644.98682	1.41953
3643.05825	1.45981
3641.12969	1.50029
3639.20112	1.54421
3637.27256	1.58831
3635.34399	1.63102
3633.41543	1.67293
3631.48687	1.71094
3629.55830	1.74786
3627.62974	1.79841
3625.70117	1.85056
3623.77261	1.88674
3621.84404	1.91921
3619.91548	1.95547
3617.98691	2.00012
3616.05835	2.04448
3614.12979	2.08149
3612.20122	2.11915
3610.27266	2.15734
3608.34409	2.19720
3606.41553	2.24052
3604.48696	2.28072
3602.55840	2.31542
3600.62983	2.35127
3598.70127	2.39057
3596.77271	2.43018
3594.84414	2.47107
3592.91558	2.51443
3590.98701	2.55518
3589.05845	2.59093
3587.12988	2.63220
3585.20132	2.68000
3583.27275	2.72262
3581.34419	2.76204
3579.41562	2.80330
3577.48706	2.84533
3575.55850	2.88678
3573.62993	2.92929
3571.70137	2.97073
3569.77280	3.00884
3567.84424	3.04695
3565.91567	3.09564
3563.98711	3.14784
3562.05854	3.19159
3560.12998	3.23411
3558.20142	3.27996
3556.27285	3.32732
3554.34429	3.37186
3552.41572	3.41563
3550.48716	3.46150
3548.55859	3.50598
3546.63003	3.54801
3544.70146	3.59475
3542.77290	3.64704
3540.84434	3.69833
3538.91577	3.74739
3536.98721	3.79388
3535.05864	3.84015
3533.13008	3.88595
3531.20151	3.93101
3529.27295	3.98000
3527.34438	4.03208
3525.41582	4.07834
3523.48726	4.12134
3521.55869	4.17140
3519.63013	4.22384
3517.70156	4.27070
3515.77300	4.31491
3513.84443	4.36280
3511.91587	4.41097
3509.98730	4.45477
3508.05874	4.50045
3506.13018	4.55105
3504.20161	4.60289
3502.27305	4.65573
3500.34448	4.70466
3498.41592	4.74662
3496.48735	4.78871
3494.55879	4.83431
3492.63022	4.88240
3490.70166	4.93100
3488.77310	4.98119
3486.84453	5.03448
3484.91597	5.08455
3482.98740	5.12786
3481.05884	5.17155
3479.13027	5.21822
3477.20171	5.26636
3475.27314	5.32208
3473.34458	5.38419
3471.41602	5.43951
3469.48745	5.48257
3467.55889	5.51872
3465.63032	5.55787
3463.70176	5.60717
3461.77319	5.66136
3459.84463	5.71612
3457.91606	5.77159
3455.98750	5.82586
3454.05894	5.86881
3452.13037	5.89928
3450.20181	5.94052
3448.27324	5.99560
3446.34468	6.04936
3444.41611	6.10560
3442.48755	6.16467
3440.55898	6.20719
3438.63042	6.23657
3436.70186	6.27115
3434.77329	6.32113
3432.84473	6.38411
3430.91616	6.43661
3428.98760	6.47225
3427.05903	6.50669
3425.13047	6.55852
3423.20190	6.62959
3421.27334	6.70448
3419.34478	6.76337
3417.41621	6.80138
3415.48765	6.81859
3413.55908	6.82529
3411.63052	6.87021
3409.70195	6.95495
3407.77339	7.02097
3405.84482	7.04130
3403.91626	7.05184
3401.98770	7.07495
3400.05913	7.10799
3398.13057	7.15000
3396.20200	7.20389
3394.27344	7.27682
3392.34487	7.33388
3390.41631	7.36034
3388.48774	7.39194
3386.55918	7.44202
3384.63062	7.47328
3382.70205	7.48147
3380.77349	7.50717
3378.84492	7.58048
3376.91636	7.68594
3374.98779	7.73326
3373.05923	7.70601
3371.13066	7.66993
3369.20210	7.68814
3367.27354	7.74620
3365.34497	7.77925
3363.41641	7.75082
3361.48784	7.67802
3359.55928	7.66267
3357.63071	7.72445
3355.70215	7.79745
3353.77358	7.86099
3351.84502	7.89036
3349.91646	7.89608
3347.98789	7.95456
3346.05933	7.98268
3344.13076	7.93187
3342.20220	7.94464
3340.27363	8.00578
3338.34507	7.99355
3336.41650	7.91025
3334.48794	7.85206
3332.55937	7.85883
3330.63081	7.92835
3328.70225	8.04203
3326.77368	8.10253
3324.84512	8.01657
3322.91655	7.87669
3320.98799	7.82366
3319.05942	7.86971
3317.13086	7.96634
3315.20229	8.01779
3313.27373	7.98957
3311.34517	7.94760
3309.41660	7.94262
3307.48804	7.98508
3305.55947	8.02840
3303.63091	8.03311
3301.70234	8.00856
3299.77378	7.98774
3297.84521	7.98236
3295.91665	7.99732
3293.98809	8.02340
3292.05952	8.05408
3290.13096	8.07581
3288.20239	8.07755
3286.27383	8.11783
3284.34526	8.17617
3282.41670	8.17087
3280.48813	8.13342
3278.55957	8.08601
3276.63101	8.01128
3274.70244	7.96084
3272.77388	7.93303
3270.84531	7.90633
3268.91675	7.90064
3266.98818	7.92311
3265.05962	7.97435
3263.13105	7.97239
3261.20249	7.89843
3259.27393	7.89967
3257.34536	8.01494
3255.41680	8.11169
3253.48823	8.17360
3251.55967	8.22392
3249.63110	8.18636
3247.70254	8.09975
3245.77397	8.01407
3243.84541	7.99190
3241.91685	8.08545
3239.98828	8.18894
3238.05972	8.17364
3236.13115	8.12210
3234.20259	8.13259
3232.27402	8.15303
3230.34546	8.15282
3228.41689	8.13208
3226.48833	8.06218
3224.55977	7.96940
3222.63120	7.89154
3220.70264	7.84413
3218.77407	7.86646
3216.84551	7.93522
3214.91694	7.96387
3212.98838	7.91086
3211.05981	7.80024
3209.13125	7.74028
3207.20269	7.79182
3205.27412	7.87841
3203.34556	7.88010
3201.41699	7.74982
3199.48843	7.61456
3197.55986	7.62135
3195.63130	7.67956
3193.70273	7.62969
3191.77417	7.55961
3189.84561	7.52550
3187.91704	7.44799
3185.98848	7.36695
3184.05991	7.34748
3182.13135	7.33032
3180.20278	7.28816
3178.27422	7.23874
3176.34565	7.17446
3174.41709	7.14223
3172.48853	7.14138
3170.55996	7.07892
3168.63140	6.97936
3166.70283	6.92862
3164.77427	6.88506
3162.84570	6.80291
3160.91714	6.74236
3158.98857	6.70941
3157.06001	6.63871
3155.13145	6.54479
3153.20288	6.46197
3151.27432	6.38269
3149.34575	6.31569
3147.41719	6.26398
3145.48862	6.21631
3143.56006	6.17115
3141.63149	6.11403
3139.70293	6.03688
3137.77437	5.96348
3135.84580	5.90073
3133.91724	5.83711
3131.98867	5.76337
3130.06011	5.68038
3128.13154	5.60609
3126.20298	5.53912
3124.27441	5.46841
3122.34585	5.39932
3120.41729	5.33411
3118.48872	5.27088
3116.56016	5.20847
3114.63159	5.14180
3112.70303	5.07188
3110.77446	5.00188
3108.84590	4.92884
3106.91733	4.85239
3104.98877	4.77759
3103.06021	4.70886
3101.13164	4.64142
3099.20308	4.57158
3097.27451	4.50320
3095.34595	4.43474
3093.41738	4.36525
3091.48882	4.29759
3089.56025	4.22974
3087.63169	4.16096
3085.70312	4.09478
3083.77456	4.03208
3081.84600	3.97172
3079.91743	3.91119
3077.98887	3.84755
3076.06030	3.78210
3074.13174	3.71913
3072.20317	3.66012
3070.27461	3.60187
3068.34604	3.54278
3066.41748	3.48439
3064.48892	3.42620
3062.56035	3.36864
3060.63179	3.31388
3058.70322	3.26026
3056.77466	3.20512
3054.84609	3.14896
3052.91753	3.09345
3050.98896	3.04028
3049.06040	2.99011
3047.13184	2.94131
3045.20327	2.89143
3043.27471	2.84023
3041.34614	2.78990
3039.41758	2.74199
3037.48901	2.69493
3035.56045	2.64747
3033.63188	2.60031
3031.70332	2.55357
3029.77476	2.50793
3027.84619	2.46406
3025.91763	2.42090
3023.98906	2.37794
3022.06050	2.33570
3020.13193	2.29453
3018.20337	2.25418
3016.27480	2.21395
3014.34624	2.17409
3012.41768	2.13503
3010.48911	2.09650
3008.56055	2.05883
3006.63198	2.02200
3004.70342	1.98535
3002.77485	1.94911
3000.84629	1.91374
2998.91772	1.87928
2996.98916	1.84552
2995.06060	1.81198
2993.13203	1.77859
2991.20347	1.74616
2989.27490	1.71457
2987.34634	1.68302
2985.41777	1.65162
2983.48921	1.62092
2981.56064	1.59106
2979.63208	1.56174
2977.70352	1.53243
2975.77495	1.50310
2973.84639	1.47452
2971.91782	1.44683
2969.98926	1.41953
2968.06069	1.39251
2966.13213	1.36595
2964.20356	1.34028
2962.27500	1.31515
2960.34644	1.28995
2958.41787	1.26518
2956.48931	1.24143
2954.56074	1.21876
2952.63218	1.19672
2950.70361	1.17474
2948.77505	1.15277
2946.84648	1.13128
2944.91792	1.11039
2942.98936	1.08954
2941.06079	1.06873
2939.13223	1.04820
2937.20366	1.02769
2935.27510	1.00729
2933.34653	0.98748
2931.41797	0.96820
2929.48940	0.94944
2927.56084	0.93122
2925.63228	0.91326
2923.70371	0.89588
2921.77515	0.87942
2919.84658	0.86365
2917.91802	0.84858
2915.98945	0.83392
2914.06089	0.81934
2912.13232	0.80544
2910.20376	0.79202
2908.27520	0.77825
2906.34663	0.76469
2904.41807	0.75210
2902.48950	0.74016
2900.56094	0.72786
2898.63237	0.71512
2896.70381	0.70292
2894.77524	0.69122
2892.84668	0.67937
2890.91812	0.66770
2888.98955	0.65639
2887.06099	0.64497
2885.13242	0.63359
2883.20386	0.62273
2881.27529	0.61221
2879.34673	0.60148
2877.41816	0.59081
2875.48960	0.58067
2873.56104	0.57051
2871.63247	0.55999
2869.70391	0.54975
2867.77534	0.54012
2865.84678	0.53090
2863.91821	0.52144
2861.98965	0.51156
2860.06108	0.50190
2858.13252	0.49268
2856.20396	0.48372
2854.27539	0.47520
2852.34683	0.46707
2850.41826	0.45928
2848.48970	0.45221
2846.56113	0.44584
2844.63257	0.43978
2842.70400	0.43370
2840.77544	0.42740
2838.84687	0.42131
2836.91831	0.41556
2834.98975	0.40964
2833.06118	0.40368
2831.13262	0.39800
2829.20405	0.39230
2827.27549	0.38639
2825.34692	0.38041
2823.41836	0.37448
2821.48979	0.36882
2819.56123	0.36352
2817.63267	0.35827
2815.70410	0.35294
2813.77554	0.34763
2811.84697	0.34244
2809.91841	0.33736
2807.98984	0.33224
2806.06128	0.32718
2804.13271	0.32228
2802.20415	0.31746
2800.27559	0.31288
2798.34702	0.30858
2796.41846	0.30435
2794.48989	0.29989
2792.56133	0.29532
2790.63276	0.29112
2788.70420	0.28724
2786.77563	0.28339
2784.84707	0.27957
2782.91851	0.27576
2780.98994	0.27194
2779.06138	0.26821
2777.13281	0.26467
2775.20425	0.26123
2773.27568	0.25778
2771.34712	0.25431
2769.41855	0.25089
2767.48999	0.24766
2765.56143	0.24465
2763.63286	0.24156
2761.70430	0.23835
2759.77573	0.23535
2757.84717	0.23249
2755.91860	0.22965
2753.99004	0.22697
2752.06147	0.22433
2750.13291	0.22165
2748.20435	0.21911
2746.27578	0.21666
2744.34722	0.21415
2742.41865	0.21167
2740.49009	0.20940
2738.56152	0.20720
2736.63296	0.20488
2734.70439	0.20248
2732.77583	0.20024
2730.84727	0.19827
2728.91870	0.19641
2726.99014	0.19435
2725.06157	0.19220
2723.13301	0.19016
2721.20444	0.18817
2719.27588	0.18628
2717.34731	0.18468
2715.41875	0.18324
2713.49019	0.18165
2711.56162	0.17984
2709.63306	0.17804
2707.70449	0.17653
2705.77593	0.17528
2703.84736	0.17399
2701.91880	0.17255
2699.99023	0.17099
2698.06167	0.16938
2696.13311	0.16785
2694.20454	0.16644
2692.27598	0.16513
2690.34741	0.16388
2688.41885	0.16277
2686.49028	0.16173
2684.56172	0.16061
2682.63315	0.15943
2680.70459	0.15832
2678.77603	0.15734
2676.84746	0.15645
2674.91890	0.15554
2672.99033	0.15456
2671.06177	0.15356
2669.13320	0.15253
2667.20464	0.15157
2665.27607	0.15077
2663.34751	0.15003
2661.41895	0.14929
2659.49038	0.14858
2657.56182	0.14779
2655.63325	0.14698
2653.70469	0.14625
2651.77612	0.14567
2649.84756	0.14535
2647.91899	0.14506
2645.99043	0.14452
2644.06187	0.14389
2642.13330	0.14341
2640.20474	0.14298
2638.27617	0.14251
2636.34761	0.14213
2634.41904	0.14181
2632.49048	0.14145
2630.56191	0.14121
2628.63335	0.14106
2626.70479	0.14090
2624.77622	0.14077
2622.84766	0.14071
2620.91909	0.14054
2618.99053	0.14017
2617.06196	0.13994
2615.13340	0.13999
2613.20483	0.13994
2611.27627	0.13969
2609.34771	0.13948
2607.41914	0.13948
2605.49058	0.13975
2603.56201	0.14008
2601.63345	0.14017
2599.70488	0.14015
2597.77632	0.14039
2595.84775	0.14075
2593.91919	0.14091
2591.99062	0.14096
2590.06206	0.14105
2588.13350	0.14120
2586.20493	0.14134
2584.27637	0.14145
2582.34780	0.14164
2580.41924	0.14200
2578.49067	0.14242
2576.56211	0.14276
2574.63354	0.14315
2572.70498	0.14374
2570.77642	0.14432
2568.84785	0.14475
2566.91929	0.14526
2564.99072	0.14595
2563.06216	0.14654
2561.13359	0.14698
2559.20503	0.14745
2557.27646	0.14801
2555.34790	0.14861
2553.41934	0.14916
2551.49077	0.14962
2549.56221	0.15023
2547.63364	0.15098
2545.70508	0.15176
2543.77651	0.15259
2541.84795	0.15337
2539.91938	0.15400
2537.99082	0.15465
2536.06226	0.15550
2534.13369	0.15638
2532.20513	0.15704
2530.27656	0.15764
2528.34800	0.15844
2526.41943	0.15932
2524.49087	0.16008
2522.56230	0.16078
2520.63374	0.16148
2518.70518	0.16225
2516.77661	0.16320
2514.84805	0.16418
2512.91948	0.16492
2510.99092	0.16558
2509.06235	0.16641
2507.13379	0.16734
2505.20522	0.16826
2503.27666	0.16920
2501.34810	0.17014
2499.41953	0.17108
2497.49097	0.17207
2495.56240	0.17302
2493.63384	0.17385
2491.70527	0.17473
2489.77671	0.17574
2487.84814	0.17668
2485.91958	0.17753
2483.99102	0.17839
2482.06245	0.17925
2480.13389	0.18011
2478.20532	0.18110
2476.27676	0.18222
2474.34819	0.18332
2472.41963	0.18426
2470.49106	0.18515
2468.56250	0.18617
2466.63394	0.18719
2464.70537	0.18808
2462.77681	0.18892
2460.84824	0.18987
2458.91968	0.19093
2456.99111	0.19207
2455.06255	0.19318
2453.13398	0.19427
2451.20542	0.19534
2449.27686	0.19632
2447.34829	0.19730
2445.41973	0.19843
2443.49116	0.19965
2441.56260	0.20077
2439.63403	0.20169
2437.70547	0.20256
2435.77690	0.20358
2433.84834	0.20474
2431.91978	0.20589
2429.99121	0.20705
2428.06265	0.20828
2426.13408	0.20945
2424.20552	0.21056
2422.27695	0.21164
2420.34839	0.21264
2418.41982	0.21373
2416.49126	0.21495
2414.56270	0.21606
2412.63413	0.21712
2410.70557	0.21828
2408.77700	0.21950
2406.84844	0.22077
2404.91987	0.22212
2402.99131	0.22332
2401.06274	0.22444
2399.13418	0.22565
2397.20562	0.22689
2395.27705	0.22807
2393.34849	0.22925
2391.41992	0.23055
2389.49136	0.23199
2387.56279	0.23331
2385.63423	0.23446
2383.70566	0.23561
2381.77710	0.23675
2379.84854	0.23779
2377.91997	0.23867
2375.99141	0.23923
2374.06284	0.23951
2372.13428	0.23975
2370.20571	0.24012
2368.27715	0.24035
2366.34858	0.24023
2364.42002	0.24038
2362.49146	0.24151
2360.56289	0.24378
2358.63433	0.24685
2356.70576	0.24987
2354.77720	0.25274
2352.84863	0.25587
2350.92007	0.25844
2348.99150	0.25976
2347.06294	0.26027
2345.13437	0.26082
2343.20581	0.26190
2341.27725	0.26332
2339.34868	0.26517
2337.42012	0.26735
2335.49155	0.26956
2333.56299	0.27123
2331.63442	0.27235
2329.70586	0.27396
2327.77729	0.27633
2325.84873	0.27847
2323.92017	0.28040
2321.99160	0.28259
2320.06304	0.28475
2318.13447	0.28685
2316.20591	0.28892
2314.27734	0.29080
2312.34878	0.29258
2310.42021	0.29445
2308.49165	0.29635
2306.56309	0.29824
2304.63452	0.30021
2302.70596	0.30223
2300.77739	0.30418
2298.84883	0.30610
2296.92026	0.30806
2294.99170	0.31008
2293.06313	0.31217
2291.13457	0.31419
2289.20601	0.31617
2287.27744	0.31823
2285.34888	0.32028
2283.42031	0.32232
2281.49175	0.32449
2279.56318	0.32673
2277.63462	0.32887
2275.70605	0.33085
2273.77749	0.33280
2271.84893	0.33477
2269.92036	0.33676
2267.99180	0.33883
2266.06323	0.34099
2264.13467	0.34322
2262.20610	0.34545
2260.27754	0.34763
2258.34897	0.34985
2256.42041	0.35211
2254.49185	0.35430
2252.56328	0.35652
2250.63472	0.35889
2248.70615	0.36113
2246.77759	0.36318
2244.84902	0.36538
2242.92046	0.36770
2240.99189	0.36984
2239.06333	0.37187
2237.13477	0.37402
2235.20620	0.37628
2233.27764	0.37856
2231.34907	0.38083
2229.42051	0.38311
2227.49194	0.38550
2225.56338	0.38789
2223.63481	0.39012
2221.70625	0.39222
2219.77769	0.39429
2217.84912	0.39640
2215.92056	0.39861
2213.99199	0.40087
2212.06343	0.40305
2210.13486	0.40514
2208.20630	0.40725
2206.27773	0.40941
2204.34917	0.41159
2202.42061	0.41384
2200.49204	0.41603
2198.56348	0.41800
2196.63491	0.41983
2194.70635	0.42171
2192.77778	0.42368
2190.84922	0.42563
2188.92065	0.42743
2186.99209	0.42914
2185.06353	0.43089
2183.13496	0.43268
2181.20640	0.43449
2179.27783	0.43623
2177.34927	0.43782
2175.42070	0.43929
2173.49214	0.44078
2171.56357	0.44232
2169.63501	0.44375
2167.70645	0.44498
2165.77788	0.44609
2163.84932	0.44728
2161.92075	0.44856
2159.99219	0.44976
2158.06362	0.45078
2156.13506	0.45170
2154.20649	0.45255
2152.27793	0.45336
2150.34937	0.45412
2148.42080	0.45476
2146.49224	0.45525
2144.56367	0.45564
2142.63511	0.45596
2140.70654	0.45627
2138.77798	0.45660
2136.84941	0.45682
2134.92085	0.45691
2132.99229	0.45681
2131.06372	0.45655
2129.13516	0.45631
2127.20659	0.45608
2125.27803	0.45578
2123.34946	0.45540
2121.42090	0.45501
2119.49233	0.45453
2117.56377	0.45380
2115.63521	0.45294
2113.70664	0.45208
2111.77808	0.45122
2109.84951	0.45031
2107.92095	0.44927
2105.99238	0.44809
2104.06382	0.44682
2102.13525	0.44546
2100.20669	0.44416
2098.27812	0.44291
2096.34956	0.44150
2094.42100	0.43984
2092.49243	0.43807
2090.56387	0.43630
2088.63530	0.43456
2086.70674	0.43274
2084.77817	0.43079
2082.84961	0.42880
2080.92104	0.42677
2078.99248	0.42463
2077.06392	0.42248
2075.13535	0.42036
2073.20679	0.41819
2071.27822	0.41592
2069.34966	0.41364
2067.42109	0.41133
2065.49253	0.40903
2063.56396	0.40663
2061.63540	0.40410
2059.70684	0.40160
2057.77827	0.39911
2055.84971	0.39654
2053.92114	0.39397
2051.99258	0.39149
2050.06401	0.38896
2048.13545	0.38630
2046.20688	0.38348
2044.27832	0.38055
2042.34976	0.37771
2040.42119	0.37505
2038.49263	0.37243
2036.56406	0.36972
2034.63550	0.36696
2032.70693	0.36415
2030.77837	0.36128
2028.84980	0.35845
2026.92124	0.35570
2024.99268	0.35293
2023.06411	0.35011
2021.13555	0.34727
2019.20698	0.34447
2017.27842	0.34181
2015.34985	0.33920
2013.42129	0.33647
2011.49272	0.33367
2009.56416	0.33096
2007.63560	0.32822
2005.70703	0.32544
2003.77847	0.32278
2001.84990	0.32013
1999.92134	0.31733
1997.99277	0.31461
1996.06421	0.31217
1994.13564	0.30984
1992.20708	0.30744
1990.27852	0.30490
1988.34995	0.30241
1986.42139	0.30002
1984.49282	0.29758
1982.56426	0.29505
1980.63569	0.29265
1978.70713	0.29045
1976.77856	0.28837
1974.85000	0.28630
1972.92144	0.28410
1970.99287	0.28180
1969.06431	0.27957
1967.13574	0.27744
1965.20718	0.27539
1963.27861	0.27351
1961.35005	0.27171
1959.42148	0.26989
1957.49292	0.26807
1955.56436	0.26629
1953.63579	0.26451
1951.70723	0.26276
1949.77866	0.26108
1947.85010	0.25947
1945.92153	0.25794
1943.99297	0.25648
1942.06440	0.25506
1940.13584	0.25366
1938.20728	0.25235
1936.27871	0.25111
1934.35015	0.24981
1932.42158	0.24841
1930.49302	0.24702
1928.56445	0.24584
1926.63589	0.24482
1924.70732	0.24377
1922.77876	0.24266
1920.85020	0.24168
1918.92163	0.24087
1916.99307	0.24008
1915.06450	0.23936
1913.13594	0.23866
1911.20737	0.23787
1909.27881	0.23704
1907.35024	0.23631
1905.42168	0.23571
1903.49312	0.23523
1901.56455	0.23487
1899.63599	0.23446
1897.70742	0.23394
1895.77886	0.23337
1893.85029	0.23295
1891.92173	0.23264
1889.99316	0.23242
1888.06460	0.23224
1886.13604	0.23207
1884.20747	0.23183
1882.27891	0.23160
1880.35034	0.23152
1878.42178	0.23151
1876.49321	0.23154
1874.56465	0.23153
1872.63608	0.23154
1870.70752	0.23158
1868.77896	0.23185
1866.85039	0.23223
1864.92183	0.23245
1862.99326	0.23266
1861.06470	0.23294
1859.13613	0.23334
1857.20757	0.23380
1855.27900	0.23431
1853.35044	0.23475
1851.42187	0.23523
1849.49331	0.23576
1847.56475	0.23627
1845.63618	0.23687
1843.70762	0.23779
1841.77905	0.23884
1839.85049	0.23959
1837.92192	0.24037
1835.99336	0.24122
1834.06479	0.24212
1832.13623	0.24299
1830.20767	0.24415
1828.27910	0.24561
1826.35054	0.24687
1824.42197	0.24826
1822.49341	0.24967
1820.56484	0.25099
1818.63628	0.25240
1816.70771	0.25403
1814.77915	0.25569
1812.85059	0.25741
1810.92202	0.25931
1808.99346	0.26139
1807.06489	0.26359
1805.13633	0.26566
1803.20776	0.26774
1801.27920	0.27000
1799.35063	0.27269
1797.42207	0.27529
1795.49351	0.27770
1793.56494	0.28028
1791.63638	0.28378
1789.70781	0.28769
1787.77925	0.29071
1785.85068	0.29381
1783.92212	0.29739
1781.99355	0.30134
1780.06499	0.30566
1778.13643	0.31011
1776.20786	0.31403
1774.27930	0.31790
1772.35073	0.32329
1770.42217	0.32986
1768.49360	0.33580
1766.56504	0.34134
1764.63647	0.34674
1762.70791	0.35251
1760.77935	0.35997
1758.85078	0.36710
1756.92222	0.37421
1754.99365	0.38204
1753.06509	0.38898
1751.13652	0.39684
1749.20796	0.40684
1747.27939	0.41732
1745.35083	0.42705
1743.42227	0.43720
1741.49370	0.44798
1739.56514	0.46063
1737.63657	0.47337
1735.70801	0.48404
1733.77944	0.49999
1731.85088	0.52025
1729.92231	0.53666
1727.99375	0.55297
1726.06519	0.57044
1724.13662	0.58923
1722.20806	0.60920
1720.27949	0.62729
1718.35093	0.64797
1716.42236	0.67901
1714.49380	0.70982
1712.56523	0.73534
1710.63667	0.75971
1708.70811	0.78542
1706.77954	0.81425
1704.85098	0.84839
1702.92241	0.87855
1700.99385	0.90776
1699.06528	0.95131
1697.13672	0.99201
1695.20815	1.03434
1693.27959	1.07554
1691.35103	1.10793
1689.42246	1.14402
1687.49390	1.18124
1685.56533	1.21643
1683.63677	1.27136
1681.70820	1.32980
1679.77964	1.36772
1677.85107	1.40316
1675.92251	1.44292
1673.99395	1.49155
1672.06538	1.53457
1670.13682	1.57637
1668.20825	1.63121
1666.27969	1.67579
1664.35112	1.71150
1662.42256	1.75350
1660.49399	1.80011
1658.56543	1.83646
1656.63687	1.86529
1654.70830	1.89184
1652.77974	1.94093
1650.85117	1.99464
1648.92261	2.01659
1646.99404	2.04372
1645.06548	2.07721
1643.13691	2.09984
1641.20835	2.11372
1639.27979	2.12535
1637.35122	2.13193
1635.42266	2.13354
1633.49409	2.13247
1631.56553	2.12494
1629.63696	2.11168
1627.70840	2.08903
1625.77983	2.06316
1623.85127	2.02901
1621.92271	1.98636
1619.99414	1.94870
1618.06558	1.91010
1616.13701	1.85322
1614.20845	1.79563
1612.27988	1.75160
1610.35132	1.70501
1608.42275	1.65478
1606.49419	1.60559
1604.56562	1.55966
1602.63706	1.51441
1600.70850	1.46936
1598.77993	1.42764
1596.85137	1.38875
1594.92280	1.35097
1592.99424	1.31378
1591.06567	1.27903
1589.13711	1.24595
1587.20854	1.21449
1585.27998	1.18483
1583.35142	1.15675
1581.42285	1.13070
1579.49429	1.10754
1577.56572	1.08539
1575.63716	1.05798
1573.70859	1.03429
1571.78003	1.01846
1569.85146	1.00065
1567.92290	0.98020
1565.99434	0.96372
1564.06577	0.94902
1562.13721	0.93594
1560.20864	0.92338
1558.28008	0.90242
1556.35151	0.88549
1554.42295	0.87549
1552.49438	0.86515
1550.56582	0.85464
1548.63726	0.84402
1546.70869	0.83478
1544.78013	0.82598
1542.85156	0.81644
1540.92300	0.80613
1538.99443	0.79472
1537.06587	0.78725
1535.13730	0.78163
1533.20874	0.77417
1531.28018	0.76634
1529.35161	0.76050
1527.42305	0.75480
1525.49448	0.74867
1523.56592	0.74295
1521.63735	0.73683
1519.70879	0.73035
1517.78022	0.72514
1515.85166	0.72001
1513.92310	0.71517
1511.99453	0.71116
1510.06597	0.70737
1508.13740	0.70345
1506.20884	0.69827
1504.28027	0.69409
1502.35171	0.69111
1500.42314	0.68798
1498.49458	0.68443
1496.56602	0.68068
1494.63745	0.67768
1492.70889	0.67531
1490.78032	0.67287
1488.85176	0.67005
1486.92319	0.66745
1484.99463	0.66515
1483.06606	0.66291
1481.13750	0.66049
1479.20894	0.65799
1477.28037	0.65565
1475.35181	0.65340
1473.42324	0.65115
1471.49468	0.64854
1469.56611	0.64597
1467.63755	0.64368
1465.70898	0.64136
1463.78042	0.63897
1461.85186	0.63691
1459.92329	0.63488
1457.99473	0.63212
1456.06616	0.62937
1454.13760	0.62777
1452.20903	0.62602
1450.28047	0.62382
1448.35190	0.62167
1446.42334	0.61972
1444.49478	0.61798
1442.56621	0.61636
1440.63765	0.61469
1438.70908	0.61289
1436.78052	0.61103
1434.85195	0.60944
1432.92339	0.60818
1430.99482	0.60707
1429.06626	0.60587
1427.13770	0.60440
1425.20913	0.60287
1423.28057	0.60147
1421.35200	0.60016
1419.42344	0.59869
1417.49487	0.59709
1415.56631	0.59553
1413.63774	0.59401
1411.70918	0.59247
1409.78062	0.59094
1407.85205	0.58938
1405.92349	0.58780
1403.99492	0.58623
1402.06636	0.58456
1400.13779	0.58289
1398.20923	0.58139
1396.28066	0.58006
1394.35210	0.57874
1392.42354	0.57753
1390.49497	0.57633
1388.56641	0.57507
1386.63784	0.57398
1384.70928	0.57308
1382.78071	0.57214
1380.85215	0.57103
1378.92358	0.57000
1376.99502	0.56912
1375.06646	0.56825
1373.13789	0.56754
1371.20933	0.56706
1369.28076	0.56652
1367.35220	0.56566
1365.42363	0.56458
1363.49507	0.56357
1361.56650	0.56272
1359.63794	0.56189
1357.70937	0.56105
1355.78081	0.56008
1353.85225	0.55904
1351.92368	0.55808
1349.99512	0.55705
1348.06655	0.55585
1346.13799	0.55478
1344.20942	0.55388
1342.28086	0.55295
1340.35229	0.55194
1338.42373	0.55088
1336.49517	0.54990
1334.56660	0.54899
1332.63804	0.54805
1330.70947	0.54713
1328.78091	0.54634
1326.85234	0.54561
1324.92378	0.54488
1322.99521	0.54412
1321.06665	0.54340
1319.13809	0.54273
1317.20952	0.54198
1315.28096	0.54118
1313.35239	0.54045
1311.42383	0.53964
1309.49526	0.53868
1307.56670	0.53770
1305.63813	0.53678
1303.70957	0.53584
1301.78101	0.53493
1299.85244	0.53411
1297.92388	0.53338
1295.99531	0.53257
1294.06675	0.53172
1292.13818	0.53103
1290.20962	0.53051
1288.28105	0.52994
1286.35249	0.52922
1284.42393	0.52853
1282.49536	0.52791
1280.56680	0.52736
1278.63823	0.52687
1276.70967	0.52642
1274.78110	0.52601
1272.85254	0.52564
1270.92397	0.52522
1268.99541	0.52480
1267.06685	0.52446
1265.13828	0.52403
1263.20972	0.52332
1261.28115	0.52258
1259.35259	0.52226
1257.42402	0.52207
1255.49546	0.52170
1253.56689	0.52139
1251.63833	0.52120
1249.70977	0.52094
1247.78120	0.52053
1245.85264	0.52004
1243.92407	0.51956
1241.99551	0.51907
1240.06694	0.51859
1238.13838	0.51811
1236.20981	0.51759
1234.28125	0.51706
1232.35269	0.51647
1230.42412	0.51584
1228.49556	0.51528
1226.56699	0.51472
1224.63843	0.51406
1222.70986	0.51318
1220.78130	0.51217
1218.85273	0.51135
1216.92417	0.51065
1214.99561	0.51000
1213.06704	0.50947
1211.13848	0.50889
1209.20991	0.50815
1207.28135	0.50746
1205.35278	0.50699
1203.42422	0.50651
1201.49565	0.50579
1199.56709	0.50502
1197.63853	0.50445
1195.70996	0.50406
1193.78140	0.50366
1191.85283	0.50307
1189.92427	0.50242
1187.99570	0.50195
1186.06714	0.50164
1184.13857	0.50141
1182.21001	0.50138
1180.28145	0.50156
1178.35288	0.50182
1176.42432	0.50228
1174.49575	0.50293
1172.56719	0.50351
1170.63862	0.50412
1168.71006	0.50504
1166.78149	0.50608
1164.85293	0.50696
1162.92437	0.50766
1160.99580	0.50824
1159.06724	0.50861
1157.13867	0.50861
1155.21011	0.50822
1153.28154	0.50731
1151.35298	0.50588
1149.42441	0.50415
1147.49585	0.50229
1145.56729	0.50019
1143.63872	0.49771
1141.71016	0.49504
1139.78159	0.49246
1137.85303	0.49018
1135.92446	0.48839
1133.99590	0.48705
1132.06733	0.48597
1130.13877	0.48511
1128.21021	0.48439
1126.28164	0.48359
1124.35308	0.48261
1122.42451	0.48178
1120.49595	0.48143
1118.56738	0.48140
1116.63882	0.48133
1114.71025	0.48127
1112.78169	0.48166
1110.85312	0.48262
1108.92456	0.48361
1106.99600	0.48440
1105.06743	0.48520
1103.13887	0.48614
1101.21030	0.48729
1099.28174	0.48889
1097.35317	0.49106
1095.42461	0.49382
1093.49604	0.49745
1091.56748	0.50228
1089.63892	0.50827
1087.71035	0.51534
1085.78179	0.52296
1083.85322	0.53049
1081.92466	0.53780
1079.99609	0.54412
1078.06753	0.54798
1076.13896	0.54858
1074.21040	0.54610
1072.28184	0.54124
1070.35327	0.53463
1068.42471	0.52738
1066.49614	0.52071
1064.56758	0.51486
1062.63901	0.50950
1060.71045	0.50444
1058.78188	0.49989
1056.85332	0.49618
1054.92476	0.49322
1052.99619	0.49073
1051.06763	0.48863
1049.13906	0.48706
1047.21050	0.48631
1045.28193	0.48630
1043.35337	0.48652
1041.42480	0.48665
1039.49624	0.48663
1037.56768	0.48660
1035.63911	0.48665
1033.71055	0.48649
1031.78198	0.48577
1029.85342	0.48472
1027.92485	0.48370
1025.99629	0.48287
1024.06772	0.48225
1022.13916	0.48192
1020.21060	0.48201
1018.28203	0.48236
1016.35347	0.48270
1014.42490	0.48293
1012.49634	0.48330
1010.56777	0.48395
1008.63921	0.48456
1006.71064	0.48514
1004.78208	0.48620
1002.85352	0.48818
1000.92495	0.49103
998.99639	0.49436
997.06782	0.49797
995.13926	0.50196
993.21069	0.50601
991.28213	0.50925
989.35356	0.51117
987.42500	0.51206
985.49644	0.51244
983.56787	0.51265
981.63931	0.51304
979.71074	0.51394
977.78218	0.51561
975.85361	0.51807
973.92505	0.52102
971.99648	0.52415
970.06792	0.52757
968.13936	0.53146
966.21079	0.53568
964.28223	0.53994
962.35366	0.54448
960.42510	0.54962
958.49653	0.55524
956.56797	0.56112
954.63940	0.56714
952.71084	0.57315
950.78228	0.57918
948.85371	0.58542
946.92515	0.59158
944.99658	0.59730
943.06802	0.60306
941.13945	0.60893
939.21089	0.61455
937.28232	0.62052
935.35376	0.62693
933.42520	0.63301
931.49663	0.63864
929.56807	0.64434
927.63950	0.65031
925.71094	0.65643
923.78237	0.66254
921.85381	0.66827
919.92524	0.67414
917.99668	0.68114
916.06812	0.68885
914.13955	0.69629
912.21099	0.70355
910.28242	0.71123
908.35386	0.71989
906.42529	0.72877
904.49673	0.73654
902.56816	0.74489
900.63960	0.75498
898.71104	0.76471
896.78247	0.77412
894.85391	0.78437
892.92534	0.79412
890.99678	0.80296
889.06821	0.81245
887.13965	0.82372
885.21108	0.83624
883.28252	0.84852
881.35396	0.86018
879.42539	0.87181
877.49683	0.88345
875.56826	0.89467
873.63970	0.90501
871.71113	0.91502
869.78257	0.92526
867.85400	0.93536
865.92544	0.94565
863.99687	0.95685
862.06831	0.96863
860.13975	0.98108
858.21118	0.99485
856.28262	1.00922
854.35405	1.02335
852.42549	1.03655
850.49692	1.04662
848.56836	1.05363
846.63979	1.06185
844.71123	1.07256
842.78267	1.08267
840.85410	1.09234
838.92554	1.10314
836.99697	1.11444
835.06841	1.12607
833.13984	1.13792
831.21128	1.14845
829.28271	1.15583
827.35415	1.16198
825.42559	1.17109
823.49702	1.18222
821.56846	1.19062
819.63989	1.19655
817.71133	1.20349
815.78276	1.21422
813.85420	1.22660
811.92563	1.23620
809.99707	1.24440
808.06851	1.24838
806.13994	1.24928
804.21138	1.25131
802.28281	1.24735
800.35425	1.23724
798.42568	1.22827
796.49712	1.21992
794.56855	1.21346
792.63999	1.21202
790.71143	1.21502
788.78286	1.21942
786.85430	1.22697
784.92573	1.24247
782.99717	1.22747
781.06860	1.16922
779.14004	1.12685
777.21147	1.11849
775.28291	1.11476
773.35435	1.09308
771.42578	1.07530
769.49722	1.08168
767.56865	1.09124
765.64009	1.09637
763.71152	1.10864
761.78296	1.09838
759.85439	1.06850
757.92583	1.05912
755.99727	1.04391
754.06870	1.00393
752.14014	0.98557
750.21157	0.98170
748.28301	0.93892
746.35444	0.89081
744.42588	0.85604
742.49731	0.79528
740.56875	0.69571
738.64019	0.58460
736.71162	0.51983
734.78306	0.50426
732.85449	0.44609
730.92593	0.33036
728.99736	0.22331
727.06880	0.14933
725.14023	0.07245
723.21167	-0.12296
721.28311	-0.69200
719.35454	4.31613
717.42598	4.30456
715.49741	-0.59460
713.56885	-0.41860
711.64028	-0.19742
709.71172	-0.04504
707.78315	0.01075
705.85459	0.06434
703.92603	0.12665
701.99746	0.13265
700.06890	0.08898
698.14033	0.06066
696.21177	0.08347
694.28320	0.11930
692.35464	0.15296
690.42607	0.22200
688.49751	0.23327
686.56895	0.09946
684.64038	-0.00136
682.71182	0.02457
680.78325	0.12674
678.85469	0.21367
676.92612	0.27124
674.99756	0.30962
673.06899	0.27615
671.14043	0.20058
669.21187	0.16278
667.28330	0.19305
665.35474	0.23464
663.42617	0.19858
661.49761	0.12809
659.56904	0.11990
657.64048	0.14989
655.71191	0.15573
653.78335	0.14309
651.85479	0.14346
649.92622	0.17355
647.99766	0.22632
646.06909	0.23369
644.14053	0.21941
642.21196	0.20722
640.28340	0.14438
638.35483	0.07995
636.42627	0.08716
634.49771	0.13899
632.56914	0.16678
630.64058	0.15251
628.71201	0.11280
626.78345	0.05077
624.85488	0.01927
622.92632	0.06094
620.99775	0.13702
619.06919	0.19679
617.14062	0.18451
615.21206	0.13258
613.28350	0.13618
611.35493	0.20442
609.42637	0.23803
607.49780	0.19879
605.56924	0.17106
603.64067	0.15687
601.71211	0.11259
599.78354	0.09491
597.85498	0.16148
595.92642	0.24500
593.99785	0.23862
592.06929	0.19340
590.14072	0.17584
588.21216	0.18821
586.28359	0.20989
584.35503	0.22927
582.42646	0.21448
580.49790	0.16789
578.56934	0.15535
576.64077	0.16841
574.71221	0.15062
572.78364	0.14111
570.85508	0.16079
568.92651	0.16394
566.99795	0.13945
565.06938	0.12019
563.14082	0.12159
561.21226	0.12456
559.28369	0.12167
557.35513	0.14183
555.42656	0.20033
553.49800	0.27778
551.56943	0.29107
549.64087	0.23753
547.71230	0.19367
545.78374	0.14968
543.85518	0.12722
541.92661	0.17032
539.99805	0.21422
538.06948	0.18579
536.14092	0.14372
534.21235	0.13527
532.28379	0.13290
530.35522	0.12920
528.42666	0.13714
526.49810	0.14539
524.56953	0.17013
522.64097	0.21295
520.71240	0.19562
518.78384	0.11341
516.85527	0.05250
514.92671	0.06392
512.99814	0.14005
511.06958	0.22505
509.14102	0.22260
507.21245	0.18374
505.28389	0.20215
503.35532	0.22940
501.42676	0.22621
499.49819	0.21301
