3997.91411	0.07824
3995.98555	0.07861
3994.05698	0.07830
3992.12842	0.07804
3990.19985	0.07805
3988.27129	0.07822
3986.34272	0.07857
3984.41416	0.07883
3982.48560	0.07920
3980.55703	0.07996
3978.62847	0.08055
3976.69990	0.08067
3974.77134	0.08065
3972.84277	0.08073
3970.91421	0.08086
3968.98564	0.08093
3967.05708	0.08096
3965.12852	0.08125
3963.19995	0.08196
3961.27139	0.08247
3959.34282	0.08236
3957.41426	0.08211
3955.48569	0.08196
3953.55713	0.08165
3951.62856	0.08158
3949.70000	0.08212
3947.77144	0.08249
3945.84287	0.08232
3943.91431	0.08222
3941.98574	0.08217
3940.05718	0.08177
3938.12861	0.08126
3936.20005	0.08115
3934.27148	0.08152
3932.34292	0.08185
3930.41436	0.08181
3928.48579	0.08197
3926.55723	0.08239
3924.62866	0.08239
3922.70010	0.08162
3920.77153	0.08080
3918.84297	0.08078
3916.91440	0.08146
3914.98584	0.08188
3913.05728	0.08153
3911.12871	0.08134
3909.20015	0.08165
3907.27158	0.08168
3905.34302	0.08128
3903.41445	0.08124
3901.48589	0.08164
3899.55732	0.08198
3897.62876	0.08227
3895.70020	0.08204
3893.77163	0.08148
3891.84307	0.08137
3889.91450	0.08153
3887.98594	0.08121
3886.05737	0.08096
3884.12881	0.08143
3882.20024	0.08211
3880.27168	0.08229
3878.34312	0.08176
3876.41455	0.08118
3874.48599	0.08160
3872.55742	0.08249
3870.62886	0.08295
3868.70029	0.08331
3866.77173	0.08335
3864.84316	0.08354
3862.91460	0.08397
3860.98604	0.08391
3859.05747	0.08415
3857.12891	0.08473
3855.20034	0.08529
3853.27178	0.08685
3851.34321	0.08882
3849.41465	0.08860
3847.48608	0.08789
3845.55752	0.08765
3843.62896	0.08780
3841.70039	0.08842
3839.77183	0.08944
3837.84326	0.09086
3835.91470	0.09221
3833.98613	0.09280
3832.05757	0.09291
3830.12900	0.09305
3828.20044	0.09350
3826.27187	0.09428
3824.34331	0.09518
3822.41475	0.09636
3820.48618	0.09819
3818.55762	0.09886
3816.62905	0.09818
3814.70049	0.09828
3812.77192	0.09915
3810.84336	0.10002
3808.91479	0.10103
3806.98623	0.10266
3805.05767	0.10445
3803.12910	0.10552
3801.20054	0.10662
3799.27197	0.10752
3797.34341	0.10807
3795.41484	0.10959
3793.48628	0.11102
3791.55771	0.11125
3789.62915	0.11150
3787.70059	0.11278
3785.77202	0.11494
3783.84346	0.11720
3781.91489	0.11874
3779.98633	0.11966
3778.05776	0.12074
3776.12920	0.12199
3774.20063	0.12321
3772.27207	0.12467
3770.34351	0.12659
3768.41494	0.12877
3766.48638	0.13096
3764.55781	0.13329
3762.62925	0.13529
3760.70068	0.13717
3758.77212	0.13959
3756.84355	0.14204
3754.91499	0.14406
3752.98643	0.14621
3751.05786	0.14954
3749.12930	0.15422
3747.20073	0.15749
3745.27217	0.15948
3743.34360	0.16231
3741.41504	0.16544
3739.48647	0.16804
3737.55791	0.17102
3735.62935	0.17515
3733.70078	0.18023
3731.77222	0.18503
3729.84365	0.18940
3727.91509	0.19364
3725.98652	0.19886
3724.05796	0.20547
3722.12939	0.21245
3720.20083	0.21943
3718.27227	0.22643
3716.34370	0.23372
3714.41514	0.24128
3712.48657	0.25003
3710.55801	0.26205
3708.62944	0.27568
3706.70088	0.28758
3704.77231	0.29882
3702.84375	0.31144
3700.91519	0.32760
3698.98662	0.34569
3697.05806	0.36327
3695.12949	0.38199
3693.20093	0.40165
3691.27236	0.42267
3689.34380	0.44992
3687.41523	0.48390
3685.48667	0.51408
3683.55811	0.54010
3681.62954	0.56781
3679.70098	0.59889
3677.77241	0.63137
3675.84385	0.66916
3673.91528	0.71989
3671.98672	0.76280
3670.05815	0.80185
3668.12959	0.85461
3666.20103	0.90286
3664.27246	0.94341
3662.34390	0.98644
3660.41533	1.03257
3658.48677	1.07818
3656.55820	1.12689
3654.62964	1.18097
3652.70107	1.22616
3650.77251	1.26535
3648.84395	1.32014
3646.91538	1.38839
3644.98682	1.43853
3643.05825	1.47683
3641.12969	1.51649
3639.20112	1.56028
3637.27256	1.60355
3635.34399	1.64524
3633.41543	1.68775
3631.48687	1.72840
3629.55830	1.76956
3627.62974	1.82247
3625.70117	1.87169
3623.77261	1.90545
3621.84404	1.93794
3619.91548	1.97484
3617.98691	2.01928
3616.05835	2.06284
3614.12979	2.09975
3612.20122	2.13848
3610.27266	2.17811
3608.34409	2.21761
3606.41553	2.25919
3604.48696	2.29900
3602.55840	2.33512
3600.62983	2.37338
3598.70127	2.41381
3596.77271	2.45261
3594.84414	2.49264
3592.91558	2.53422
3590.98701	2.57334
3589.05845	2.61060
3587.12988	2.65435
3585.20132	2.70212
3583.27275	2.74422
3581.34419	2.78351
3579.41562	2.82390
3577.48706	2.86500
3575.55850	2.90632
3573.62993	2.94962
3571.70137	2.99311
3569.77280	3.03453
3567.84424	3.07650
3565.91567	3.12768
3563.98711	3.17951
3562.05854	3.22275
3560.12998	3.26595
3558.20142	3.31013
3556.27285	3.35270
3554.34429	3.39629
3552.41572	3.44497
3550.48716	3.49325
3548.55859	3.53598
3546.63003	3.57907
3544.70146	3.62796
3542.77290	3.67844
3540.84434	3.72621
3538.91577	3.77278
3536.98721	3.81836
3535.05864	3.86562
3533.13008	3.91597
3531.20151	3.96521
3529.27295	4.01007
3527.34438	4.05443
3525.41582	4.10074
3523.48726	4.14824
3521.55869	4.19974
3519.63013	4.25590
3517.70156	4.31062
3515.77300	4.35942
3513.84443	4.40764
3511.91587	4.45479
3509.98730	4.49866
3508.05874	4.54484
3506.13018	4.59183
3504.20161	4.63610
3502.27305	4.68376
3500.34448	4.73742
3498.41592	4.79225
3496.48735	4.84849
3494.55879	4.90352
3492.63022	4.95280
3490.70166	4.99907
3488.77310	5.04642
3486.84453	5.09158
3484.91597	5.13085
3482.98740	5.17407
3481.05884	5.22922
3479.13027	5.28556
3477.20171	5.33705
3475.27314	5.38856
3473.34458	5.43736
3471.41602	5.48620
3469.48745	5.54199
3467.55889	5.59853
3465.63032	5.64093
3463.70176	5.66858
3461.77319	5.70605
3459.84463	5.76381
3457.91606	5.81736
3455.98750	5.86007
3454.05894	5.90806
3452.13037	5.96618
3450.20181	6.03332
3448.27324	6.09916
3446.34468	6.15476
3444.41611	6.20550
3442.48755	6.25335
3440.55898	6.30131
3438.63042	6.36197
3436.70186	6.42690
3434.77329	6.48556
3432.84473	6.53183
3430.91616	6.56045
3428.98760	6.59616
3427.05903	6.65531
3425.13047	6.72401
3423.20190	6.77809
3421.27334	6.83545
3419.34478	6.90821
3417.41621	6.96548
3415.48765	7.00199
3413.55908	7.02223
3411.63052	7.02774
3409.70195	7.03681
3407.77339	7.07700
3405.84482	7.13284
3403.91626	7.19424
3401.98770	7.26402
3400.05913	7.31634
3398.13057	7.35143
3396.20200	7.37589
3394.27344	7.39584
3392.34487	7.45047
3390.41631	7.55565
3388.48774	7.65564
3386.55918	7.71500
3384.63062	7.70163
3382.70205	7.64800
3380.77349	7.66086
3378.84492	7.71898
3376.91636	7.74857
3374.98779	7.78091
3373.05923	7.82878
3371.13066	7.84140
3369.20210	7.86671
3367.27354	7.91578
3365.34497	7.93896
3363.41641	7.94819
3361.48784	7.97450
3359.55928	8.03976
3357.63071	8.12630
3355.70215	8.18670
3353.77358	8.18947
3351.84502	8.20418
3349.91646	8.25997
3347.98789	8.30195
3346.05933	8.29064
3344.13076	8.27452
3342.20220	8.28330
3340.27363	8.26383
3338.34507	8.29096
3336.41650	8.37707
3334.48794	8.38312
3332.55937	8.29838
3330.63081	8.25542
3328.70225	8.27114
3326.77368	8.28541
3324.84512	8.32758
3322.91655	8.38642
3320.98799	8.38155
3319.05942	8.36402
3317.13086	8.38714
3315.20229	8.33657
3313.27373	8.26790
3311.34517	8.27979
3309.41660	8.35730
3307.48804	8.50598
3305.55947	8.57712
3303.63091	8.47746
3301.70234	8.40322
3299.77378	8.43376
3297.84521	8.39158
3295.91665	8.28679
3293.98809	8.29317
3292.05952	8.36441
3290.13096	8.35501
3288.20239	8.25617
3286.27383	8.23313
3284.34526	8.38395
3282.41670	8.57968
3280.48813	8.64858
3278.55957	8.68441
3276.63101	8.79979
3274.70244	8.90319
3272.77388	8.87392
3270.84531	8.73510
3268.91675	8.57550
3266.98818	8.50782
3265.05962	8.58998
3263.13105	8.68766
3261.20249	8.71931
3259.27393	8.80468
3257.34536	8.87513
3255.41680	8.72671
3253.48823	8.54822
3251.55967	8.50925
3249.63110	8.48610
3247.70254	8.42718
3245.77397	8.39276
3243.84541	8.42921
3241.91685	8.56280
3239.98828	8.68661
3238.05972	8.64717
3236.13115	8.53068
3234.20259	8.45913
3232.27402	8.44716
3230.34546	8.47776
3228.41689	8.49503
3226.48833	8.48537
3224.55977	8.47729
3222.63120	8.47123
3220.70264	8.42482
3218.77407	8.33757
3216.84551	8.27718
3214.91694	8.30553
3212.98838	8.40107
3211.05981	8.43511
3209.13125	8.37936
3207.20269	8.30484
3205.27412	8.25225
3203.34556	8.23830
3201.41699	8.22705
3199.48843	8.18295
3197.55986	8.10835
3195.63130	8.05813
3193.70273	8.07166
3191.77417	8.03538
3189.84561	7.85948
3187.91704	7.68962
3185.98848	7.64234
3184.05991	7.65871
3182.13135	7.64372
3180.20278	7.57081
3178.27422	7.46071
3176.34565	7.36944
3174.41709	7.34083
3172.48853	7.33812
3170.55996	7.27488
3168.63140	7.16924
3166.70283	7.08408
3164.77427	7.00846
3162.84570	6.93644
3160.91714	6.88892
3158.98857	6.86052
3157.06001	6.81270
3155.13145	6.73280
3153.20288	6.64395
3151.27432	6.55965
3149.34575	6.48277
3147.41719	6.41318
3145.48862	6.33656
3143.56006	6.25276
3141.63149	6.17825
3139.70293	6.10177
3137.77437	6.02497
3135.84580	5.95512
3133.91724	5.87910
3131.98867	5.80648
3130.06011	5.75567
3128.13154	5.71226
3126.20298	5.64024
3124.27441	5.54093
3122.34585	5.44994
3120.41729	5.38337
3118.48872	5.32511
3116.56016	5.25649
3114.63159	5.17927
3112.70303	5.10137
3110.77446	5.02839
3108.84590	4.95814
3106.91733	4.88490
3104.98877	4.80844
3103.06021	4.72891
3101.13164	4.65268
3099.20308	4.58584
3097.27451	4.52037
3095.34595	4.45091
3093.41738	4.38209
3091.48882	4.31485
3089.56025	4.24692
3087.63169	4.17869
3085.70312	4.11244
3083.77456	4.05038
3081.84600	3.99139
3079.91743	3.93139
3077.98887	3.86870
3076.06030	3.80432
3074.13174	3.74028
3072.20317	3.67859
3070.27461	3.62026
3068.34604	3.56434
3066.41748	3.50790
3064.48892	3.45002
3062.56035	3.39195
3060.63179	3.33467
3058.70322	3.27856
3056.77466	3.22424
3054.84609	3.17163
3052.91753	3.11819
3050.98896	3.06290
3049.06040	3.00812
3047.13184	2.95608
3045.20327	2.90724
3043.27471	2.86015
3041.34614	2.81187
3039.41758	2.76178
3037.48901	2.71243
3035.56045	2.66555
3033.63188	2.62057
3031.70332	2.57535
3029.77476	2.52926
3027.84619	2.48443
3025.91763	2.44162
3023.98906	2.39961
3022.06050	2.35752
3020.13193	2.31479
3018.20337	2.27250
3016.27480	2.23202
3014.34624	2.19265
3012.41768	2.15378
3010.48911	2.11537
3008.56055	2.07746
3006.63198	2.04103
3004.70342	2.00566
3002.77485	1.96996
3000.84629	1.93438
2998.91772	1.89971
2996.98916	1.86563
2995.06060	1.83218
2993.13203	1.79971
2991.20347	1.76806
2989.27490	1.73686
2987.34634	1.70579
2985.41777	1.67517
2983.48921	1.64553
2981.56064	1.61628
2979.63208	1.58671
2977.70352	1.55753
2975.77495	1.52956
2973.84639	1.50241
2971.91782	1.47527
2969.98926	1.44820
2968.06069	1.42201
2966.13213	1.39676
2964.20356	1.37166
2962.27500	1.34685
2960.34644	1.32282
2958.41787	1.29907
2956.48931	1.27551
2954.56074	1.25263
2952.63218	1.23011
2950.70361	1.20744
2948.77505	1.18505
2946.84648	1.16324
2944.91792	1.14152
2942.98936	1.11983
2941.06079	1.09886
2939.13223	1.07910
2937.20366	1.06004
2935.27510	1.04104
2933.34653	1.02183
2931.41797	1.00198
2929.48940	0.98214
2927.56084	0.96357
2925.63228	0.94620
2923.70371	0.92949
2921.77515	0.91338
2919.84658	0.89785
2917.91802	0.88233
2915.98945	0.86627
2914.06089	0.85028
2912.13232	0.83500
2910.20376	0.82048
2908.27520	0.80658
2906.34663	0.79288
2904.41807	0.77914
2902.48950	0.76541
2900.56094	0.75198
2898.63237	0.73934
2896.70381	0.72744
2894.77524	0.71577
2892.84668	0.70371
2890.91812	0.69148
2888.98955	0.67979
2887.06099	0.66862
2885.13242	0.65766
2883.20386	0.64690
2881.27529	0.63628
2879.34673	0.62567
2877.41816	0.61498
2875.48960	0.60462
2873.56104	0.59481
2871.63247	0.58508
2869.70391	0.57517
2867.77534	0.56510
2865.84678	0.55496
2863.91821	0.54516
2861.98965	0.53552
2860.06108	0.52566
2858.13252	0.51589
2856.20396	0.50664
2854.27539	0.49798
2852.34683	0.48963
2850.41826	0.48169
2848.48970	0.47445
2846.56113	0.46750
2844.63257	0.46068
2842.70400	0.45427
2840.77544	0.44789
2838.84687	0.44143
2836.91831	0.43540
2834.98975	0.42980
2833.06118	0.42390
2831.13262	0.41733
2829.20405	0.41094
2827.27549	0.40526
2825.34692	0.39985
2823.41836	0.39434
2821.48979	0.38857
2819.56123	0.38260
2817.63267	0.37678
2815.70410	0.37130
2813.77554	0.36606
2811.84697	0.36095
2809.91841	0.35592
2807.98984	0.35078
2806.06128	0.34551
2804.13271	0.34028
2802.20415	0.33540
2800.27559	0.33097
2798.34702	0.32677
2796.41846	0.32244
2794.48989	0.31787
2792.56133	0.31332
2790.63276	0.30905
2788.70420	0.30499
2786.77563	0.30085
2784.84707	0.29655
2782.91851	0.29239
2780.98994	0.28857
2779.06138	0.28504
2777.13281	0.28173
2775.20425	0.27842
2773.27568	0.27489
2771.34712	0.27121
2769.41855	0.26756
2767.48999	0.26402
2765.56143	0.26066
2763.63286	0.25743
2761.70430	0.25429
2759.77573	0.25125
2757.84717	0.24832
2755.91860	0.24545
2753.99004	0.24269
2752.06147	0.23996
2750.13291	0.23706
2748.20435	0.23409
2746.27578	0.23130
2744.34722	0.22887
2742.41865	0.22676
2740.49009	0.22453
2738.56152	0.22203
2736.63296	0.21962
2734.70439	0.21728
2732.77583	0.21499
2730.84727	0.21298
2728.91870	0.21115
2726.99014	0.20926
2725.06157	0.20721
2723.13301	0.20496
2721.20444	0.20262
2719.27588	0.20056
2717.34731	0.19892
2715.41875	0.19732
2713.49019	0.19554
2711.56162	0.19368
2709.63306	0.19204
2707.70449	0.19060
2705.77593	0.18908
2703.84736	0.18753
2701.91880	0.18605
2699.99023	0.18459
2698.06167	0.18319
2696.13311	0.18183
2694.20454	0.18050
2692.27598	0.17927
2690.34741	0.17799
2688.41885	0.17664
2686.49028	0.17549
2684.56172	0.17445
2682.63315	0.17319
2680.70459	0.17184
2678.77603	0.17062
2676.84746	0.16953
2674.91890	0.16855
2672.99033	0.16767
2671.06177	0.16677
2669.13320	0.16585
2667.20464	0.16507
2665.27607	0.16434
2663.34751	0.16346
2661.41895	0.16263
2659.49038	0.16197
2657.56182	0.16122
2655.63325	0.16030
2653.70469	0.15951
2651.77612	0.15891
2649.84756	0.15834
2647.91899	0.15768
2645.99043	0.15703
2644.06187	0.15650
2642.13330	0.15599
2640.20474	0.15546
2638.27617	0.15496
2636.34761	0.15450
2634.41904	0.15417
2632.49048	0.15391
2630.56191	0.15356
2628.63335	0.15323
2626.70479	0.15301
2624.77622	0.15282
2622.84766	0.15252
2620.91909	0.15214
2618.99053	0.15187
2617.06196	0.15179
2615.13340	0.15184
2613.20483	0.15186
2611.27627	0.15174
2609.34771	0.15155
2607.41914	0.15129
2605.49058	0.15108
2603.56201	0.15114
2601.63345	0.15143
2599.70488	0.15167
2597.77632	0.15173
2595.84775	0.15175
2593.91919	0.15181
2591.99062	0.15186
2590.06206	0.15203
2588.13350	0.15238
2586.20493	0.15278
2584.27637	0.15306
2582.34780	0.15322
2580.41924	0.15341
2578.49067	0.15365
2576.56211	0.15398
2574.63354	0.15437
2572.70498	0.15476
2570.77642	0.15512
2568.84785	0.15555
2566.91929	0.15609
2564.99072	0.15660
2563.06216	0.15706
2561.13359	0.15748
2559.20503	0.15796
2557.27646	0.15855
2555.34790	0.15917
2553.41934	0.15979
2551.49077	0.16040
2549.56221	0.16091
2547.63364	0.16138
2545.70508	0.16195
2543.77651	0.16266
2541.84795	0.16346
2539.91938	0.16417
2537.99082	0.16468
2536.06226	0.16528
2534.13369	0.16606
2532.20513	0.16681
2530.27656	0.16751
2528.34800	0.16826
2526.41943	0.16900
2524.49087	0.16976
2522.56230	0.17055
2520.63374	0.17142
2518.70518	0.17224
2516.77661	0.17294
2514.84805	0.17363
2512.91948	0.17442
2510.99092	0.17525
2509.06235	0.17608
2507.13379	0.17692
2505.20522	0.17777
2503.27666	0.17863
2501.34810	0.17943
2499.41953	0.18021
2497.49097	0.18103
2495.56240	0.18197
2493.63384	0.18292
2491.70527	0.18388
2489.77671	0.18491
2487.84814	0.18579
2485.91958	0.18650
2483.99102	0.18738
2482.06245	0.18844
2480.13389	0.18942
2478.20532	0.19033
2476.27676	0.19127
2474.34819	0.19217
2472.41963	0.19297
2470.49106	0.19382
2468.56250	0.19481
2466.63394	0.19588
2464.70537	0.19689
2462.77681	0.19778
2460.84824	0.19867
2458.91968	0.19967
2456.99111	0.20076
2455.06255	0.20186
2453.13398	0.20290
2451.20542	0.20384
2449.27686	0.20467
2447.34829	0.20551
2445.41973	0.20646
2443.49116	0.20755
2441.56260	0.20872
2439.63403	0.20984
2437.70547	0.21085
2435.77690	0.21182
2433.84834	0.21287
2431.91978	0.21400
2429.99121	0.21513
2428.06265	0.21627
2426.13408	0.21743
2424.20552	0.21852
2422.27695	0.21951
2420.34839	0.22052
2418.41982	0.22171
2416.49126	0.22296
2414.56270	0.22408
2412.63413	0.22513
2410.70557	0.22629
2408.77700	0.22753
2406.84844	0.22863
2404.91987	0.22967
2402.99131	0.23089
2401.06274	0.23226
2399.13418	0.23358
2397.20562	0.23477
2395.27705	0.23592
2393.34849	0.23716
2391.41992	0.23842
2389.49136	0.23955
2387.56279	0.24073
2385.63423	0.24192
2383.70566	0.24289
2381.77710	0.24361
2379.84854	0.24412
2377.91997	0.24447
2375.99141	0.24474
2374.06284	0.24491
2372.13428	0.24491
2370.20571	0.24500
2368.27715	0.24549
2366.34858	0.24619
2364.42002	0.24657
2362.49146	0.24738
2360.56289	0.24947
2358.63433	0.25150
2356.70576	0.25340
2354.77720	0.25618
2352.84863	0.25901
2350.92007	0.26142
2348.99150	0.26314
2347.06294	0.26371
2345.13437	0.26352
2343.20581	0.26416
2341.27725	0.26610
2339.34868	0.26787
2337.42012	0.26969
2335.49155	0.27180
2333.56299	0.27360
2331.63442	0.27567
2329.70586	0.27813
2327.77729	0.28020
2325.84873	0.28194
2323.92017	0.28373
2321.99160	0.28589
2320.06304	0.28845
2318.13447	0.29089
2316.20591	0.29283
2314.27734	0.29488
2312.34878	0.29730
2310.42021	0.29968
2308.49165	0.30188
2306.56309	0.30407
2304.63452	0.30621
2302.70596	0.30816
2300.77739	0.31003
2298.84883	0.31199
2296.92026	0.31399
2294.99170	0.31608
2293.06313	0.31832
2291.13457	0.32049
2289.20601	0.32253
2287.27744	0.32455
2285.34888	0.32664
2283.42031	0.32882
2281.49175	0.33095
2279.56318	0.33291
2277.63462	0.33485
2275.70605	0.33685
2273.77749	0.33887
2271.84893	0.34101
2269.92036	0.34327
2267.99180	0.34545
2266.06323	0.34749
2264.13467	0.34959
2262.20610	0.35172
2260.27754	0.35382
2258.34897	0.35597
2256.42041	0.35811
2254.49185	0.36027
2252.56328	0.36253
2250.63472	0.36478
2248.70615	0.36696
2246.77759	0.36912
2244.84902	0.37125
2242.92046	0.37338
2240.99189	0.37553
2239.06333	0.37774
2237.13477	0.38018
2235.20620	0.38265
2233.27764	0.38485
2231.34907	0.38694
2229.42051	0.38910
2227.49194	0.39128
2225.56338	0.39348
2223.63481	0.39583
2221.70625	0.39823
2219.77769	0.40045
2217.84912	0.40250
2215.92056	0.40457
2213.99199	0.40681
2212.06343	0.40912
2210.13486	0.41129
2208.20630	0.41335
2206.27773	0.41542
2204.34917	0.41749
2202.42061	0.41952
2200.49204	0.42149
2198.56348	0.42344
2196.63491	0.42531
2194.70635	0.42716
2192.77778	0.42915
2190.84922	0.43117
2188.92065	0.43311
2186.99209	0.43496
2185.06353	0.43666
2183.13496	0.43836
2181.20640	0.44014
2179.27783	0.44174
2177.34927	0.44311
2175.42070	0.44460
2173.49214	0.44636
2171.56357	0.44803
2169.63501	0.44942
2167.70645	0.45059
2165.77788	0.45171
2163.84932	0.45291
2161.92075	0.45410
2159.99219	0.45522
2158.06362	0.45617
2156.13506	0.45700
2154.20649	0.45783
2152.27793	0.45869
2150.34937	0.45949
2148.42080	0.46017
2146.49224	0.46077
2144.56367	0.46133
2142.63511	0.46181
2140.70654	0.46207
2138.77798	0.46220
2136.84941	0.46231
2134.92085	0.46237
2132.99229	0.46230
2131.06372	0.46212
2129.13516	0.46188
2127.20659	0.46166
2125.27803	0.46144
2123.34946	0.46097
2121.42090	0.46026
2119.49233	0.45955
2117.56377	0.45901
2115.63521	0.45846
2113.70664	0.45765
2111.77808	0.45667
2109.84951	0.45570
2107.92095	0.45470
2105.99238	0.45358
2104.06382	0.45230
2102.13525	0.45087
2100.20669	0.44945
2098.27812	0.44802
2096.34956	0.44657
2094.42100	0.44508
2092.49243	0.44344
2090.56387	0.44168
2088.63530	0.43984
2086.70674	0.43796
2084.77817	0.43610
2082.84961	0.43420
2080.92104	0.43227
2078.99248	0.43040
2077.06392	0.42841
2075.13535	0.42615
2073.20679	0.42384
2071.27822	0.42155
2069.34966	0.41925
2067.42109	0.41693
2065.49253	0.41458
2063.56396	0.41213
2061.63540	0.40965
2059.70684	0.40717
2057.77827	0.40460
2055.84971	0.40205
2053.92114	0.39949
2051.99258	0.39682
2050.06401	0.39417
2048.13545	0.39162
2046.20688	0.38892
2044.27832	0.38604
2042.34976	0.38327
2040.42119	0.38063
2038.49263	0.37795
2036.56406	0.37525
2034.63550	0.37259
2032.70693	0.36986
2030.77837	0.36704
2028.84980	0.36417
2026.92124	0.36128
2024.99268	0.35842
2023.06411	0.35572
2021.13555	0.35312
2019.20698	0.35044
2017.27842	0.34757
2015.34985	0.34462
2013.42129	0.34189
2011.49272	0.33939
2009.56416	0.33678
2007.63560	0.33395
2005.70703	0.33115
2003.77847	0.32848
2001.84990	0.32589
1999.92134	0.32325
1997.99277	0.32053
1996.06421	0.31796
1994.13564	0.31553
1992.20708	0.31299
1990.27852	0.31036
1988.34995	0.30787
1986.42139	0.30542
1984.49282	0.30300
1982.56426	0.30071
1980.63569	0.29845
1978.70713	0.29612
1976.77856	0.29380
1974.85000	0.29161
1972.92144	0.28948
1970.99287	0.28728
1969.06431	0.28513
1967.13574	0.28319
1965.20718	0.28132
1963.27861	0.27940
1961.35005	0.27746
1959.42148	0.27557
1957.49292	0.27378
1955.56436	0.27196
1953.63579	0.27012
1951.70723	0.26834
1949.77866	0.26669
1947.85010	0.26517
1945.92153	0.26374
1943.99297	0.26234
1942.06440	0.26091
1940.13584	0.25941
1938.20728	0.25789
1936.27871	0.25635
1934.35015	0.25493
1932.42158	0.25380
1930.49302	0.25283
1928.56445	0.25185
1926.63589	0.25078
1924.70732	0.24975
1922.77876	0.24878
1920.85020	0.24777
1918.92163	0.24677
1916.99307	0.24582
1915.06450	0.24490
1913.13594	0.24401
1911.20737	0.24333
1909.27881	0.24281
1907.35024	0.24221
1905.42168	0.24148
1903.49312	0.24075
1901.56455	0.24012
1899.63599	0.23957
1897.70742	0.23912
1895.77886	0.23876
1893.85029	0.23844
1891.92173	0.23811
1889.99316	0.23794
1888.06460	0.23779
1886.13604	0.23755
1884.20747	0.23730
1882.27891	0.23711
1880.35034	0.23695
1878.42178	0.23683
1876.49321	0.23685
1874.56465	0.23689
1872.63608	0.23702
1870.70752	0.23727
1868.77896	0.23768
1866.85039	0.23805
1864.92183	0.23812
1862.99326	0.23811
1861.06470	0.23832
1859.13613	0.23879
1857.20757	0.23917
1855.27900	0.23954
1853.35044	0.24003
1851.42187	0.24061
1849.49331	0.24114
1847.56475	0.24173
1845.63618	0.24251
1843.70762	0.24353
1841.77905	0.24442
1839.85049	0.24501
1837.92192	0.24583
1835.99336	0.24673
1834.06479	0.24756
1832.13623	0.24846
1830.20767	0.24982
1828.27910	0.25131
1826.35054	0.25236
1824.42197	0.25358
1822.49341	0.25495
1820.56484	0.25629
1818.63628	0.25768
1816.70771	0.25929
1814.77915	0.26090
1812.85059	0.26252
1810.92202	0.26440
1808.99346	0.26655
1807.06489	0.26867
1805.13633	0.27060
1803.20776	0.27274
1801.27920	0.27527
1799.35063	0.27820
1797.42207	0.28087
1795.49351	0.28328
1793.56494	0.28590
1791.63638	0.28933
1789.70781	0.29292
1787.77925	0.29574
1785.85068	0.29887
1783.92212	0.30255
1781.99355	0.30658
1780.06499	0.31084
1778.13643	0.31514
1776.20786	0.31907
1774.27930	0.32322
1772.35073	0.32893
1770.42217	0.33531
1768.49360	0.34087
1766.56504	0.34622
1764.63647	0.35153
1762.70791	0.35724
1760.77935	0.36466
1758.85078	0.37185
1756.92222	0.37906
1754.99365	0.38685
1753.06509	0.39391
1751.13652	0.40232
1749.20796	0.41294
1747.27939	0.42348
1745.35083	0.43282
1743.42227	0.44260
1741.49370	0.45333
1739.56514	0.46605
1737.63657	0.47879
1735.70801	0.48978
1733.77944	0.50608
1731.85088	0.52578
1729.92231	0.54144
1727.99375	0.55719
1726.06519	0.57430
1724.13662	0.59311
1722.20806	0.61323
1720.27949	0.63157
1718.35093	0.65280
1716.42236	0.68437
1714.49380	0.71505
1712.56523	0.74021
1710.63667	0.76437
1708.70811	0.79004
1706.77954	0.81900
1704.85098	0.85355
1702.92241	0.88450
1700.99385	0.91494
1699.06528	0.96000
1697.13672	1.00181
1695.20815	1.04510
1693.27959	1.08683
1691.35103	1.11992
1689.42246	1.15770
1687.49390	1.19735
1685.56533	1.23544
1683.63677	1.29414
1681.70820	1.35529
1679.77964	1.39468
1677.85107	1.43227
1675.92251	1.47561
1673.99395	1.52866
1672.06538	1.57550
1670.13682	1.62124
1668.20825	1.67889
1666.27969	1.72443
1664.35112	1.76342
1662.42256	1.81245
1660.49399	1.86644
1658.56543	1.90801
1656.63687	1.94197
1654.70830	1.97425
1652.77974	2.02780
1650.85117	2.07992
1648.92261	2.10026
1646.99404	2.12711
1645.06548	2.15745
1643.13691	2.17624
1641.20835	2.18754
1639.27979	2.19801
1637.35122	2.20505
1635.42266	2.20704
1633.49409	2.20317
1631.56553	2.19385
1629.63696	2.18109
1627.70840	2.15705
1625.77983	2.12673
1623.85127	2.08894
1621.92271	2.04390
1619.99414	2.00330
1618.06558	1.96265
1616.13701	1.90354
1614.20845	1.84208
1612.27988	1.79522
1610.35132	1.74714
1608.42275	1.69534
1606.49419	1.64383
1604.56562	1.59600
1602.63706	1.54984
1600.70850	1.50450
1598.77993	1.46227
1596.85137	1.42216
1594.92280	1.38281
1592.99424	1.34441
1591.06567	1.30903
1589.13711	1.27575
1587.20854	1.24447
1585.27998	1.21518
1583.35142	1.18717
1581.42285	1.16109
1579.49429	1.13876
1577.56572	1.11837
1575.63716	1.09268
1573.70859	1.06968
1571.78003	1.05444
1569.85146	1.03793
1567.92290	1.01913
1565.99434	1.00425
1564.06577	0.99167
1562.13721	0.98131
1560.20864	0.97246
1558.28008	0.95725
1556.35151	0.94415
1554.42295	0.93653
1552.49438	0.92877
1550.56582	0.92068
1548.63726	0.91182
1546.70869	0.90314
1544.78013	0.89440
1542.85156	0.88488
1540.92300	0.87290
1538.99443	0.85592
1537.06587	0.84395
1535.13730	0.83606
1533.20874	0.82602
1531.28018	0.81529
1529.35161	0.80732
1527.42305	0.79958
1525.49448	0.79138
1523.56592	0.78402
1521.63735	0.77632
1519.70879	0.76836
1517.78022	0.76205
1515.85166	0.75532
1513.92310	0.74847
1511.99453	0.74252
1510.06597	0.73694
1508.13740	0.73174
1506.20884	0.72473
1504.28027	0.71815
1502.35171	0.71390
1500.42314	0.71011
1498.49458	0.70621
1496.56602	0.70200
1494.63745	0.69785
1492.70889	0.69432
1490.78032	0.69120
1488.85176	0.68796
1486.92319	0.68494
1484.99463	0.68235
1483.06606	0.68003
1481.13750	0.67779
1479.20894	0.67574
1477.28037	0.67416
1475.35181	0.67292
1473.42324	0.67167
1471.49468	0.66960
1469.56611	0.66711
1467.63755	0.66481
1465.70898	0.66260
1463.78042	0.66029
1461.85186	0.65823
1459.92329	0.65668
1457.99473	0.65522
1456.06616	0.65287
1454.13760	0.65016
1452.20903	0.64795
1450.28047	0.64570
1448.35190	0.64311
1446.42334	0.64028
1444.49478	0.63783
1442.56621	0.63579
1440.63765	0.63375
1438.70908	0.63164
1436.78052	0.62939
1434.85195	0.62723
1432.92339	0.62545
1430.99482	0.62389
1429.06626	0.62231
1427.13770	0.62079
1425.20913	0.61950
1423.28057	0.61845
1421.35200	0.61762
1419.42344	0.61685
1417.49487	0.61575
1415.56631	0.61419
1413.63774	0.61255
1411.70918	0.61104
1409.78062	0.60981
1407.85205	0.60883
1405.92349	0.60798
1403.99492	0.60710
1402.06636	0.60607
1400.13779	0.60493
1398.20923	0.60356
1396.28066	0.60194
1394.35210	0.60012
1392.42354	0.59822
1390.49497	0.59638
1388.56641	0.59447
1386.63784	0.59227
1384.70928	0.58993
1382.78071	0.58785
1380.85215	0.58612
1378.92358	0.58463
1376.99502	0.58333
1375.06646	0.58239
1373.13789	0.58169
1371.20933	0.58086
1369.28076	0.57990
1367.35220	0.57890
1365.42363	0.57792
1363.49507	0.57701
1361.56650	0.57600
1359.63794	0.57473
1357.70937	0.57351
1355.78081	0.57242
1353.85225	0.57134
1351.92368	0.57030
1349.99512	0.56944
1348.06655	0.56861
1346.13799	0.56768
1344.20942	0.56661
1342.28086	0.56551
1340.35229	0.56459
1338.42373	0.56370
1336.49517	0.56273
1334.56660	0.56192
1332.63804	0.56124
1330.70947	0.56057
1328.78091	0.56000
1326.85234	0.55960
1324.92378	0.55922
1322.99521	0.55876
1321.06665	0.55828
1319.13809	0.55783
1317.20952	0.55731
1315.28096	0.55666
1313.35239	0.55588
1311.42383	0.55509
1309.49526	0.55435
1307.56670	0.55354
1305.63813	0.55260
1303.70957	0.55161
1301.78101	0.55074
1299.85244	0.55003
1297.92388	0.54932
1295.99531	0.54844
1294.06675	0.54753
1292.13818	0.54678
1290.20962	0.54611
1288.28105	0.54539
1286.35249	0.54460
1284.42393	0.54386
1282.49536	0.54331
1280.56680	0.54281
1278.63823	0.54208
1276.70967	0.54128
1274.78110	0.54065
1272.85254	0.54005
1270.92397	0.53937
1268.99541	0.53882
1267.06685	0.53845
1265.13828	0.53802
1263.20972	0.53743
1261.28115	0.53684
1259.35259	0.53637
1257.42402	0.53600
1255.49546	0.53568
1253.56689	0.53542
1251.63833	0.53518
1249.70977	0.53490
1247.78120	0.53465
1245.85264	0.53444
1243.92407	0.53400
1241.99551	0.53328
1240.06694	0.53252
1238.13838	0.53181
1236.20981	0.53096
1234.28125	0.52999
1232.35269	0.52900
1230.42412	0.52791
1228.49556	0.52674
1226.56699	0.52570
1224.63843	0.52474
1222.70986	0.52383
1220.78130	0.52302
1218.85273	0.52220
1216.92417	0.52132
1214.99561	0.52044
1213.06704	0.51961
1211.13848	0.51891
1209.20991	0.51834
1207.28135	0.51774
1205.35278	0.51702
1203.42422	0.51626
1201.49565	0.51570
1199.56709	0.51542
1197.63853	0.51503
1195.70996	0.51433
1193.78140	0.51359
1191.85283	0.51301
1189.92427	0.51257
1187.99570	0.51218
1186.06714	0.51186
1184.13857	0.51165
1182.21001	0.51157
1180.28145	0.51172
1178.35288	0.51230
1176.42432	0.51319
1174.49575	0.51414
1172.56719	0.51500
1170.63862	0.51564
1168.71006	0.51634
1166.78149	0.51731
1164.85293	0.51831
1162.92437	0.51909
1160.99580	0.51964
1159.06724	0.51988
1157.13867	0.51964
1155.21011	0.51906
1153.28154	0.51810
1151.35298	0.51653
1149.42441	0.51453
1147.49585	0.51224
1145.56729	0.50965
1143.63872	0.50694
1141.71016	0.50435
1139.78159	0.50219
1137.85303	0.50054
1135.92446	0.49902
1133.99590	0.49760
1132.06733	0.49663
1130.13877	0.49587
1128.21021	0.49500
1126.28164	0.49431
1124.35308	0.49384
1122.42451	0.49323
1120.49595	0.49248
1118.56738	0.49202
1116.63882	0.49204
1114.71025	0.49237
1112.78169	0.49278
1110.85312	0.49301
1108.92456	0.49322
1106.99600	0.49393
1105.06743	0.49523
1103.13887	0.49680
1101.21030	0.49836
1099.28174	0.49996
1097.35317	0.50199
1095.42461	0.50475
1093.49604	0.50834
1091.56748	0.51294
1089.63892	0.51878
1087.71035	0.52572
1085.78179	0.53343
1083.85322	0.54142
1081.92466	0.54866
1079.99609	0.55423
1078.06753	0.55778
1076.13896	0.55875
1074.21040	0.55657
1072.28184	0.55160
1070.35327	0.54504
1068.42471	0.53792
1066.49614	0.53084
1064.56758	0.52436
1062.63901	0.51883
1060.71045	0.51412
1058.78188	0.50992
1056.85332	0.50622
1054.92476	0.50314
1052.99619	0.50031
1051.06763	0.49762
1049.13906	0.49574
1047.21050	0.49487
1045.28193	0.49458
1043.35337	0.49458
1041.42480	0.49477
1039.49624	0.49486
1037.56768	0.49459
1035.63911	0.49406
1033.71055	0.49361
1031.78198	0.49328
1029.85342	0.49269
1027.92485	0.49162
1025.99629	0.49051
1024.06772	0.48987
1022.13916	0.48968
1020.21060	0.48969
1018.28203	0.48968
1016.35347	0.48957
1014.42490	0.48967
1012.49634	0.49022
1010.56777	0.49086
1008.63921	0.49138
1006.71064	0.49227
1004.78208	0.49387
1002.85352	0.49599
1000.92495	0.49852
998.99639	0.50157
997.06782	0.50514
995.13926	0.50910
993.21069	0.51317
991.28213	0.51667
989.35356	0.51880
987.42500	0.51948
985.49644	0.51949
983.56787	0.51964
981.63931	0.52030
979.71074	0.52153
977.78218	0.52330
975.85361	0.52554
973.92505	0.52803
971.99648	0.53069
970.06792	0.53378
968.13936	0.53753
966.21079	0.54185
964.28223	0.54658
962.35366	0.55154
960.42510	0.55673
958.49653	0.56233
956.56797	0.56813
954.63940	0.57411
952.71084	0.58045
950.78228	0.58674
948.85371	0.59286
946.92515	0.59927
944.99658	0.60568
943.06802	0.61172
941.13945	0.61762
939.21089	0.62345
937.28232	0.62937
935.35376	0.63548
933.42520	0.64110
931.49663	0.64635
929.56807	0.65217
927.63950	0.65823
925.71094	0.66399
923.78237	0.67040
921.85381	0.67800
919.92524	0.68546
917.99668	0.69197
916.06812	0.69893
914.13955	0.70707
912.21099	0.71576
910.28242	0.72465
908.35386	0.73356
906.42529	0.74194
904.49673	0.74988
902.56816	0.75885
900.63960	0.76985
898.71104	0.78091
896.78247	0.78990
894.85391	0.79910
892.92534	0.81030
890.99678	0.82065
889.06821	0.82930
887.13965	0.83917
885.21108	0.85132
883.28252	0.86405
881.35396	0.87626
879.42539	0.88820
877.49683	0.89943
875.56826	0.91008
873.63970	0.92154
871.71113	0.93382
869.78257	0.94588
867.85400	0.95718
865.92544	0.96736
863.99687	0.97740
862.06831	0.98907
860.13975	1.00230
858.21118	1.01636
856.28262	1.02918
854.35405	1.03824
852.42549	1.04670
850.49692	1.05924
848.56836	1.07508
846.63979	1.09021
844.71123	1.10111
842.78267	1.10931
840.85410	1.12116
838.92554	1.13704
836.99697	1.15203
835.06841	1.16671
833.13984	1.18187
831.21128	1.19276
829.28271	1.20028
827.35415	1.21389
825.42559	1.23686
823.49702	1.25753
821.56846	1.27056
819.63989	1.28919
817.71133	1.30929
815.78276	1.31151
813.85420	1.30488
811.92563	1.31047
809.99707	1.33105
808.06851	1.35891
806.13994	1.37400
804.21138	1.36738
802.28281	1.38052
800.35425	1.44015
798.42568	1.51269
796.49712	1.55425
794.56855	1.56690
792.63999	1.54512
790.71143	1.51560
788.78286	1.54836
786.85430	1.65604
784.92573	1.75982
782.99717	1.63714
781.06860	1.45086
779.14004	1.35530
777.21147	1.34717
775.28291	1.42847
773.35435	1.51349
771.42578	1.37180
769.49722	1.25192
767.56865	1.22882
765.64009	1.21321
763.71152	1.18462
761.78296	1.20631
759.85439	1.24474
757.92583	1.22138
755.99727	1.16182
754.06870	1.09716
752.14014	1.04686
750.21157	1.04345
748.28301	1.06057
746.35444	1.06622
744.42588	1.06216
742.49731	1.01244
740.56875	0.92856
738.64019	0.85444
736.71162	0.73729
734.78306	0.56052
732.85449	0.43651
730.92593	0.39407
728.99736	0.38295
727.06880	0.38448
725.14023	0.35688
723.21167	0.28401
721.28311	0.23900
719.35454	0.25426
717.42598	0.25664
715.49741	0.26664
713.56885	0.31632
711.64028	0.35488
709.71172	0.35776
707.78315	0.37623
705.85459	0.45168
703.92603	0.46956
701.99746	0.39912
700.06890	0.34239
698.14033	0.32836
696.21177	0.32807
694.28320	0.32799
692.35464	0.34774
690.42607	0.39264
688.49751	0.40653
686.56895	0.36020
684.64038	0.33280
682.71182	0.32857
680.78325	0.30272
678.85469	0.30671
676.92612	0.31322
674.99756	0.28013
673.06899	0.28988
671.14043	0.32710
669.21187	0.30914
667.28330	0.30494
665.35474	0.32701
663.42617	0.30126
661.49761	0.27364
659.56904	0.23181
657.64048	0.15885
655.71191	0.13437
653.78335	0.21454
651.85479	0.36954
649.92622	0.45960
647.99766	0.43291
646.06909	0.33044
644.14053	0.23603
642.21196	0.21179
640.28340	0.25917
638.35483	0.36154
636.42627	0.45094
634.49771	0.45668
632.56914	0.41124
630.64058	0.33193
628.71201	0.28648
626.78345	0.31962
624.85488	0.36410
622.92632	0.34925
620.99775	0.29581
619.06919	0.26124
617.14062	0.24457
615.21206	0.21767
613.28350	0.21534
611.35493	0.25619
609.42637	0.27321
607.49780	0.26773
605.56924	0.29522
603.64067	0.34094
601.71211	0.38061
599.78354	0.38693
597.85498	0.31704
595.92642	0.27192
593.99785	0.29659
592.06929	0.34763
590.14072	0.36682
588.21216	0.34873
586.28359	0.32715
584.35503	0.27708
582.42646	0.21632
580.49790	0.20835
578.56934	0.26741
576.64077	0.33784
574.71221	0.33239
572.78364	0.28260
570.85508	0.25450
568.92651	0.27680
566.99795	0.29650
565.06938	0.29283
563.14082	0.31085
561.21226	0.31883
559.28369	0.30777
557.35513	0.29446
555.42656	0.27911
553.49800	0.25483
551.56943	0.21693
549.64087	0.22949
547.71230	0.30048
545.78374	0.32325
543.85518	0.27055
541.92661	0.20351
539.99805	0.15982
538.06948	0.15944
536.14092	0.17794
534.21235	0.17876
532.28379	0.18120
530.35522	0.22490
528.42666	0.27796
526.49810	0.28243
524.56953	0.26936
522.64097	0.25221
520.71240	0.21371
518.78384	0.19195
516.85527	0.22849
514.92671	0.27245
512.99814	0.22525
511.06958	0.17364
509.14102	0.18127
507.21245	0.21450
505.28389	0.20824
503.35532	0.17017
501.42676	0.16256
499.49819	0.18846
