3997.91411	0.06245
3995.98555	0.06215
3994.05698	0.06238
3992.12842	0.06265
3990.19985	0.06307
3988.27129	0.06383
3986.34272	0.06434
3984.41416	0.06444
3982.48560	0.06450
3980.55703	0.06468
3978.62847	0.06496
3976.69990	0.06544
3974.77134	0.06610
3972.84277	0.06649
3970.91421	0.06663
3968.98564	0.06670
3967.05708	0.06656
3965.12852	0.06643
3963.19995	0.06660
3961.27139	0.06660
3959.34282	0.06638
3957.41426	0.06639
3955.48569	0.06658
3953.55713	0.06679
3951.62856	0.06712
3949.70000	0.06755
3947.77144	0.06771
3945.84287	0.06721
3943.91431	0.06640
3941.98574	0.06613
3940.05718	0.06668
3938.12861	0.06716
3936.20005	0.06688
3934.27148	0.06636
3932.34292	0.06635
3930.41436	0.06657
3928.48579	0.06653
3926.55723	0.06653
3924.62866	0.06662
3922.70010	0.06628
3920.77153	0.06585
3918.84297	0.06614
3916.91440	0.06676
3914.98584	0.06665
3913.05728	0.06586
3911.12871	0.06535
3909.20015	0.06552
3907.27158	0.06594
3905.34302	0.06649
3903.41445	0.06703
3901.48589	0.06653
3899.55732	0.06543
3897.62876	0.06534
3895.70020	0.06580
3893.77163	0.06591
3891.84307	0.06592
3889.91450	0.06614
3887.98594	0.06631
3886.05737	0.06650
3884.12881	0.06666
3882.20024	0.06667
3880.27168	0.06692
3878.34312	0.06710
3876.41455	0.06691
3874.48599	0.06693
3872.55742	0.06705
3870.62886	0.06686
3868.70029	0.06716
3866.77173	0.06802
3864.84316	0.06863
3862.91460	0.06896
3860.98604	0.06898
3859.05747	0.06895
3857.12891	0.06932
3855.20034	0.06989
3853.27178	0.07025
3851.34321	0.07068
3849.41465	0.07097
3847.48608	0.07104
3845.55752	0.07146
3843.62896	0.07224
3841.70039	0.07310
3839.77183	0.07415
3837.84326	0.07529
3835.91470	0.07583
3833.98613	0.07570
3832.05757	0.07559
3830.12900	0.07617
3828.20044	0.07710
3826.27187	0.07784
3824.34331	0.07845
3822.41475	0.07929
3820.48618	0.08102
3818.55762	0.08245
3816.62905	0.08294
3814.70049	0.08379
3812.77192	0.08434
3810.84336	0.08438
3808.91479	0.08466
3806.98623	0.08564
3805.05767	0.08720
3803.12910	0.08867
3801.20054	0.09064
3799.27197	0.09264
3797.34341	0.09350
3795.41484	0.09440
3793.48628	0.09520
3791.55771	0.09566
3789.62915	0.09655
3787.70059	0.09792
3785.77202	0.09946
3783.84346	0.10112
3781.91489	0.10269
3779.98633	0.10442
3778.05776	0.10636
3776.12920	0.10776
3774.20063	0.10877
3772.27207	0.10973
3770.34351	0.11102
3768.41494	0.11322
3766.48638	0.11575
3764.55781	0.11792
3762.62925	0.11955
3760.70068	0.12129
3758.77212	0.12421
3756.84355	0.12737
3754.91499	0.12918
3752.98643	0.13064
3751.05786	0.13328
3749.12930	0.13682
3747.20073	0.13923
3745.27217	0.14106
3743.34360	0.14457
3741.41504	0.14901
3739.48647	0.15212
3737.55791	0.15444
3735.62935	0.15753
3733.70078	0.16288
3731.77222	0.16879
3729.84365	0.17340
3727.91509	0.17716
3725.98652	0.18193
3724.05796	0.18877
3722.12939	0.19622
3720.20083	0.20322
3718.27227	0.21006
3716.34370	0.21692
3714.41514	0.22374
3712.48657	0.23184
3710.55801	0.24371
3708.62944	0.25790
3706.70088	0.27021
3704.77231	0.28130
3702.84375	0.29378
3700.91519	0.31008
3698.98662	0.32823
3697.05806	0.34523
3695.12949	0.36268
3693.20093	0.38113
3691.27236	0.40160
3689.34380	0.42859
3687.41523	0.46177
3685.48667	0.49127
3683.55811	0.51716
3681.62954	0.54471
3679.70098	0.57543
3677.77241	0.60757
3675.84385	0.64537
3673.91528	0.69648
3671.98672	0.73877
3670.05815	0.77625
3668.12959	0.82793
3666.20103	0.87582
3664.27246	0.91593
3662.34390	0.95851
3660.41533	1.00444
3658.48677	1.05026
3656.55820	1.09908
3654.62964	1.15291
3652.70107	1.19783
3650.77251	1.23614
3648.84395	1.28910
3646.91538	1.35643
3644.98682	1.40677
3643.05825	1.44464
3641.12969	1.48329
3639.20112	1.52664
3637.27256	1.57060
3635.34399	1.61310
3633.41543	1.65586
3631.48687	1.69685
3629.55830	1.73834
3627.62974	1.79118
3625.70117	1.84044
3623.77261	1.87418
3621.84404	1.90698
3619.91548	1.94466
3617.98691	1.98909
3616.05835	2.03181
3614.12979	2.06833
3612.20122	2.10722
3610.27266	2.14663
3608.34409	2.18624
3606.41553	2.22791
3604.48696	2.26659
3602.55840	2.30210
3600.62983	2.34105
3598.70127	2.38312
3596.77271	2.42337
3594.84414	2.46366
3592.91558	2.50603
3590.98701	2.54648
3589.05845	2.58367
3587.12988	2.62625
3585.20132	2.67256
3583.27275	2.71309
3581.34419	2.75149
3579.41562	2.79273
3577.48706	2.83648
3575.55850	2.87934
3573.62993	2.92049
3571.70137	2.96039
3569.77280	3.00036
3567.84424	3.04337
3565.91567	3.09476
3563.98711	3.14566
3562.05854	3.18978
3560.12998	3.23401
3558.20142	3.27854
3556.27285	3.32151
3554.34429	3.36451
3552.41572	3.41186
3550.48716	3.46127
3548.55859	3.50787
3546.63003	3.55361
3544.70146	3.60192
3542.77290	3.64914
3540.84434	3.69285
3538.91577	3.73826
3536.98721	3.78789
3535.05864	3.84074
3533.13008	3.89135
3531.20151	3.93593
3529.27295	3.97806
3527.34438	4.02657
3525.41582	4.08053
3523.48726	4.13214
3521.55869	4.18271
3519.63013	4.23079
3517.70156	4.27442
3515.77300	4.31767
3513.84443	4.36395
3511.91587	4.41297
3509.98730	4.46443
3508.05874	4.51749
3506.13018	4.56592
3504.20161	4.60684
3502.27305	4.65254
3500.34448	4.70852
3498.41592	4.76083
3496.48735	4.80705
3494.55879	4.85482
3492.63022	4.90709
3490.70166	4.96068
3488.77310	5.01000
3486.84453	5.05438
3484.91597	5.09620
3482.98740	5.13974
3481.05884	5.18888
3479.13027	5.24110
3477.20171	5.29475
3475.27314	5.34860
3473.34458	5.39763
3471.41602	5.43821
3469.48745	5.47521
3467.55889	5.52080
3465.63032	5.57777
3463.70176	5.63344
3461.77319	5.67474
3459.84463	5.71405
3457.91606	5.76720
3455.98750	5.82531
3454.05894	5.87901
3452.13037	5.93276
3450.20181	5.97704
3448.27324	6.00287
3446.34468	6.04553
3444.41611	6.11606
3442.48755	6.18034
3440.55898	6.23146
3438.63042	6.28463
3436.70186	6.34484
3434.77329	6.39847
3432.84473	6.43381
3430.91616	6.46867
3428.98760	6.52362
3427.05903	6.58514
3425.13047	6.63362
3423.20190	6.66971
3421.27334	6.70602
3419.34478	6.73090
3417.41621	6.75174
3415.48765	6.80035
3413.55908	6.86536
3411.63052	6.93227
3409.70195	6.99655
3407.77339	7.04807
3405.84482	7.08562
3403.91626	7.13380
3401.98770	7.18631
3400.05913	7.20993
3398.13057	7.23279
3396.20200	7.29432
3394.27344	7.36727
3392.34487	7.42457
3390.41631	7.47147
3388.48774	7.48147
3386.55918	7.49909
3384.63062	7.55922
3382.70205	7.58951
3380.77349	7.57410
3378.84492	7.60497
3376.91636	7.67524
3374.98779	7.68360
3373.05923	7.68298
3371.13066	7.70476
3369.20210	7.71889
3367.27354	7.77680
3365.34497	7.86947
3363.41641	7.89296
3361.48784	7.83668
3359.55928	7.77043
3357.63071	7.74971
3355.70215	7.80835
3353.77358	7.86983
3351.84502	7.87305
3349.91646	7.87773
3347.98789	7.94142
3346.05933	8.02406
3344.13076	8.04853
3342.20220	8.01997
3340.27363	7.99046
3338.34507	7.96432
3336.41650	7.94060
3334.48794	7.98239
3332.55937	8.02061
3330.63081	7.99180
3328.70225	7.98901
3326.77368	8.05815
3324.84512	8.12706
3322.91655	8.06366
3320.98799	7.94005
3319.05942	7.93577
3317.13086	8.06508
3315.20229	8.17829
3313.27373	8.18774
3311.34517	8.15374
3309.41660	8.13495
3307.48804	8.13361
3305.55947	8.17020
3303.63091	8.23120
3301.70234	8.21315
3299.77378	8.16051
3297.84521	8.16160
3295.91665	8.22923
3293.98809	8.32812
3292.05952	8.36339
3290.13096	8.32273
3288.20239	8.32886
3286.27383	8.40283
3284.34526	8.42188
3282.41670	8.38941
3280.48813	8.33477
3278.55957	8.26813
3276.63101	8.23795
3274.70244	8.25645
3272.77388	8.32866
3270.84531	8.43342
3268.91675	8.49367
3266.98818	8.51917
3265.05962	8.60222
3263.13105	8.62968
3261.20249	8.48415
3259.27393	8.32781
3257.34536	8.26338
3255.41680	8.22344
3253.48823	8.21821
3251.55967	8.30881
3249.63110	8.38676
3247.70254	8.34469
3245.77397	8.29678
3243.84541	8.34496
3241.91685	8.39903
3239.98828	8.37118
3238.05972	8.32291
3236.13115	8.29852
3234.20259	8.26160
3232.27402	8.22339
3230.34546	8.17921
3228.41689	8.11975
3226.48833	8.12813
3224.55977	8.15253
3222.63120	8.11152
3220.70264	8.08946
3218.77407	8.12488
3216.84551	8.11708
3214.91694	8.03105
3212.98838	7.99890
3211.05981	8.01626
3209.13125	7.96619
3207.20269	7.91600
3205.27412	7.94912
3203.34556	8.00071
3201.41699	7.99479
3199.48843	7.94356
3197.55986	7.90621
3195.63130	7.89417
3193.70273	7.85016
3191.77417	7.75519
3189.84561	7.67274
3187.91704	7.62738
3185.98848	7.57519
3184.05991	7.51695
3182.13135	7.50216
3180.20278	7.51883
3178.27422	7.45994
3176.34565	7.31612
3174.41709	7.20903
3172.48853	7.16309
3170.55996	7.12218
3168.63140	7.06190
3166.70283	6.99022
3164.77427	6.92079
3162.84570	6.84932
3160.91714	6.77331
3158.98857	6.70847
3157.06001	6.65141
3155.13145	6.59664
3153.20288	6.54657
3151.27432	6.49355
3149.34575	6.42512
3147.41719	6.33338
3145.48862	6.24206
3143.56006	6.17761
3141.63149	6.12338
3139.70293	6.05788
3137.77437	5.99474
3135.84580	5.93803
3133.91724	5.86163
3131.98867	5.76693
3130.06011	5.68274
3128.13154	5.60668
3126.20298	5.52759
3124.27441	5.45638
3122.34585	5.39430
3120.41729	5.32731
3118.48872	5.24826
3116.56016	5.16746
3114.63159	5.09737
3112.70303	5.03389
3110.77446	4.97083
3108.84590	4.91051
3106.91733	4.84796
3104.98877	4.77690
3103.06021	4.70469
3101.13164	4.63594
3099.20308	4.56787
3097.27451	4.50068
3095.34595	4.43647
3093.41738	4.37429
3091.48882	4.31035
3089.56025	4.24380
3087.63169	4.17667
3085.70312	4.11153
3083.77456	4.05082
3081.84600	3.99204
3079.91743	3.93157
3077.98887	3.87245
3076.06030	3.81412
3074.13174	3.75305
3072.20317	3.69308
3070.27461	3.63512
3068.34604	3.57712
3066.41748	3.52038
3064.48892	3.46441
3062.56035	3.40907
3060.63179	3.35680
3058.70322	3.30619
3056.77466	3.25212
3054.84609	3.19507
3052.91753	3.14117
3050.98896	3.09066
3049.06040	3.03956
3047.13184	2.98813
3045.20327	2.93764
3043.27471	2.88868
3041.34614	2.84091
3039.41758	2.79248
3037.48901	2.74454
3035.56045	2.69867
3033.63188	2.65366
3031.70332	2.60876
3029.77476	2.56387
3027.84619	2.51941
3025.91763	2.47591
3023.98906	2.43276
3022.06050	2.39016
3020.13193	2.34906
3018.20337	2.30863
3016.27480	2.26788
3014.34624	2.22751
3012.41768	2.18768
3010.48911	2.14796
3008.56055	2.10964
3006.63198	2.07330
3004.70342	2.03780
3002.77485	2.00286
3000.84629	1.96841
2998.91772	1.93412
2996.98916	1.90098
2995.06060	1.86948
2993.13203	1.83859
2991.20347	1.80821
2989.27490	1.77874
2987.34634	1.74978
2985.41777	1.72117
2983.48921	1.69322
2981.56064	1.66609
2979.63208	1.63972
2977.70352	1.61399
2975.77495	1.58877
2973.84639	1.56392
2971.91782	1.53929
2969.98926	1.51524
2968.06069	1.49191
2966.13213	1.46883
2964.20356	1.44592
2962.27500	1.42300
2960.34644	1.40001
2958.41787	1.37675
2956.48931	1.35226
2954.56074	1.32738
2952.63218	1.30360
2950.70361	1.28069
2948.77505	1.25823
2946.84648	1.23657
2944.91792	1.21580
2942.98936	1.19560
2941.06079	1.17609
2939.13223	1.15698
2937.20366	1.13707
2935.27510	1.11643
2933.34653	1.09624
2931.41797	1.07697
2929.48940	1.05788
2927.56084	1.03822
2925.63228	1.01917
2923.70371	1.00159
2921.77515	0.98414
2919.84658	0.96635
2917.91802	0.94855
2915.98945	0.93085
2914.06089	0.91338
2912.13232	0.89623
2910.20376	0.88002
2908.27520	0.86478
2906.34663	0.84969
2904.41807	0.83418
2902.48950	0.81852
2900.56094	0.80358
2898.63237	0.78974
2896.70381	0.77654
2894.77524	0.76363
2892.84668	0.75108
2890.91812	0.73899
2888.98955	0.72751
2887.06099	0.71655
2885.13242	0.70583
2883.20386	0.69558
2881.27529	0.68594
2879.34673	0.67648
2877.41816	0.66707
2875.48960	0.65783
2873.56104	0.64797
2871.63247	0.63690
2869.70391	0.62528
2867.77534	0.61349
2865.84678	0.60129
2863.91821	0.58912
2861.98965	0.57775
2860.06108	0.56714
2858.13252	0.55693
2856.20396	0.54685
2854.27539	0.53700
2852.34683	0.52784
2850.41826	0.51892
2848.48970	0.50959
2846.56113	0.50055
2844.63257	0.49261
2842.70400	0.48532
2840.77544	0.47812
2838.84687	0.47119
2836.91831	0.46459
2834.98975	0.45801
2833.06118	0.45145
2831.13262	0.44520
2829.20405	0.43915
2827.27549	0.43308
2825.34692	0.42700
2823.41836	0.42094
2821.48979	0.41485
2819.56123	0.40885
2817.63267	0.40303
2815.70410	0.39716
2813.77554	0.39140
2811.84697	0.38599
2809.91841	0.38056
2807.98984	0.37493
2806.06128	0.36942
2804.13271	0.36417
2802.20415	0.35899
2800.27559	0.35384
2798.34702	0.34886
2796.41846	0.34391
2794.48989	0.33884
2792.56133	0.33388
2790.63276	0.32931
2788.70420	0.32503
2786.77563	0.32079
2784.84707	0.31649
2782.91851	0.31212
2780.98994	0.30770
2779.06138	0.30347
2777.13281	0.29952
2775.20425	0.29547
2773.27568	0.29131
2771.34712	0.28735
2769.41855	0.28361
2767.48999	0.28018
2765.56143	0.27702
2763.63286	0.27358
2761.70430	0.26980
2759.77573	0.26617
2757.84717	0.26277
2755.91860	0.25957
2753.99004	0.25668
2752.06147	0.25380
2750.13291	0.25072
2748.20435	0.24764
2746.27578	0.24472
2744.34722	0.24191
2742.41865	0.23905
2740.49009	0.23611
2738.56152	0.23333
2736.63296	0.23081
2734.70439	0.22829
2732.77583	0.22573
2730.84727	0.22331
2728.91870	0.22115
2726.99014	0.21911
2725.06157	0.21698
2723.13301	0.21475
2721.20444	0.21257
2719.27588	0.21063
2717.34731	0.20877
2715.41875	0.20671
2713.49019	0.20443
2711.56162	0.20225
2709.63306	0.20047
2707.70449	0.19893
2705.77593	0.19734
2703.84736	0.19562
2701.91880	0.19387
2699.99023	0.19222
2698.06167	0.19066
2696.13311	0.18921
2694.20454	0.18791
2692.27598	0.18667
2690.34741	0.18533
2688.41885	0.18395
2686.49028	0.18275
2684.56172	0.18162
2682.63315	0.18047
2680.70459	0.17931
2678.77603	0.17804
2676.84746	0.17677
2674.91890	0.17552
2672.99033	0.17416
2671.06177	0.17302
2669.13320	0.17210
2667.20464	0.17107
2665.27607	0.17002
2663.34751	0.16911
2661.41895	0.16830
2659.49038	0.16752
2657.56182	0.16666
2655.63325	0.16572
2653.70469	0.16477
2651.77612	0.16393
2649.84756	0.16332
2647.91899	0.16279
2645.99043	0.16216
2644.06187	0.16152
2642.13330	0.16092
2640.20474	0.16027
2638.27617	0.15954
2636.34761	0.15897
2634.41904	0.15865
2632.49048	0.15825
2630.56191	0.15774
2628.63335	0.15733
2626.70479	0.15689
2624.77622	0.15642
2622.84766	0.15606
2620.91909	0.15577
2618.99053	0.15539
2617.06196	0.15506
2615.13340	0.15500
2613.20483	0.15488
2611.27627	0.15446
2609.34771	0.15410
2607.41914	0.15396
2605.49058	0.15392
2603.56201	0.15387
2601.63345	0.15383
2599.70488	0.15390
2597.77632	0.15403
2595.84775	0.15406
2593.91919	0.15400
2591.99062	0.15402
2590.06206	0.15410
2588.13350	0.15416
2586.20493	0.15431
2584.27637	0.15450
2582.34780	0.15465
2580.41924	0.15480
2578.49067	0.15492
2576.56211	0.15502
2574.63354	0.15521
2572.70498	0.15555
2570.77642	0.15604
2568.84785	0.15646
2566.91929	0.15666
2564.99072	0.15685
2563.06216	0.15725
2561.13359	0.15775
2559.20503	0.15813
2557.27646	0.15852
2555.34790	0.15906
2553.41934	0.15957
2551.49077	0.16000
2549.56221	0.16047
2547.63364	0.16092
2545.70508	0.16133
2543.77651	0.16181
2541.84795	0.16244
2539.91938	0.16303
2537.99082	0.16353
2536.06226	0.16418
2534.13369	0.16499
2532.20513	0.16570
2530.27656	0.16623
2528.34800	0.16674
2526.41943	0.16732
2524.49087	0.16798
2522.56230	0.16869
2520.63374	0.16945
2518.70518	0.17026
2516.77661	0.17094
2514.84805	0.17141
2512.91948	0.17206
2510.99092	0.17308
2509.06235	0.17405
2507.13379	0.17469
2505.20522	0.17522
2503.27666	0.17587
2501.34810	0.17666
2499.41953	0.17739
2497.49097	0.17800
2495.56240	0.17871
2493.63384	0.17954
2491.70527	0.18035
2489.77671	0.18119
2487.84814	0.18214
2485.91958	0.18308
2483.99102	0.18384
2482.06245	0.18453
2480.13389	0.18535
2478.20532	0.18628
2476.27676	0.18713
2474.34819	0.18785
2472.41963	0.18862
2470.49106	0.18949
2468.56250	0.19046
2466.63394	0.19143
2464.70537	0.19230
2462.77681	0.19300
2460.84824	0.19376
2458.91968	0.19477
2456.99111	0.19589
2455.06255	0.19692
2453.13398	0.19785
2451.20542	0.19866
2449.27686	0.19939
2447.34829	0.20023
2445.41973	0.20127
2443.49116	0.20240
2441.56260	0.20349
2439.63403	0.20448
2437.70547	0.20530
2435.77690	0.20610
2433.84834	0.20710
2431.91978	0.20823
2429.99121	0.20930
2428.06265	0.21032
2426.13408	0.21133
2424.20552	0.21231
2422.27695	0.21325
2420.34839	0.21416
2418.41982	0.21517
2416.49126	0.21628
2414.56270	0.21735
2412.63413	0.21846
2410.70557	0.21961
2408.77700	0.22075
2406.84844	0.22187
2404.91987	0.22295
2402.99131	0.22414
2401.06274	0.22547
2399.13418	0.22677
2397.20562	0.22796
2395.27705	0.22916
2393.34849	0.23043
2391.41992	0.23166
2389.49136	0.23288
2387.56279	0.23420
2385.63423	0.23558
2383.70566	0.23710
2381.77710	0.23897
2379.84854	0.24109
2377.91997	0.24321
2375.99141	0.24536
2374.06284	0.24759
2372.13428	0.24989
2370.20571	0.25258
2368.27715	0.25572
2366.34858	0.25866
2364.42002	0.26052
2362.49146	0.26145
2360.56289	0.26221
2358.63433	0.26376
2356.70576	0.26628
2354.77720	0.26798
2352.84863	0.26833
2350.92007	0.26831
2348.99150	0.26855
2347.06294	0.26921
2345.13437	0.27076
2343.20581	0.27358
2341.27725	0.27656
2339.34868	0.27882
2337.42012	0.28065
2335.49155	0.28213
2333.56299	0.28318
2331.63442	0.28424
2329.70586	0.28531
2327.77729	0.28622
2325.84873	0.28759
2323.92017	0.28913
2321.99160	0.29028
2320.06304	0.29156
2318.13447	0.29291
2316.20591	0.29387
2314.27734	0.29501
2312.34878	0.29665
2310.42021	0.29846
2308.49165	0.29994
2306.56309	0.30102
2304.63452	0.30216
2302.70596	0.30376
2300.77739	0.30562
2298.84883	0.30733
2296.92026	0.30898
2294.99170	0.31076
2293.06313	0.31255
2291.13457	0.31431
2289.20601	0.31611
2287.27744	0.31789
2285.34888	0.31966
2283.42031	0.32160
2281.49175	0.32368
2279.56318	0.32564
2277.63462	0.32746
2275.70605	0.32933
2273.77749	0.33135
2271.84893	0.33344
2269.92036	0.33548
2267.99180	0.33762
2266.06323	0.33992
2264.13467	0.34214
2262.20610	0.34418
2260.27754	0.34617
2258.34897	0.34812
2256.42041	0.35008
2254.49185	0.35217
2252.56328	0.35435
2250.63472	0.35648
2248.70615	0.35850
2246.77759	0.36064
2244.84902	0.36310
2242.92046	0.36559
2240.99189	0.36782
2239.06333	0.36990
2237.13477	0.37207
2235.20620	0.37436
2233.27764	0.37664
2231.34907	0.37881
2229.42051	0.38091
2227.49194	0.38311
2225.56338	0.38540
2223.63481	0.38761
2221.70625	0.38975
2219.77769	0.39191
2217.84912	0.39407
2215.92056	0.39622
2213.99199	0.39834
2212.06343	0.40047
2210.13486	0.40267
2208.20630	0.40487
2206.27773	0.40701
2204.34917	0.40912
2202.42061	0.41118
2200.49204	0.41325
2198.56348	0.41534
2196.63491	0.41736
2194.70635	0.41925
2192.77778	0.42105
2190.84922	0.42288
2188.92065	0.42476
2186.99209	0.42647
2185.06353	0.42805
2183.13496	0.42974
2181.20640	0.43146
2179.27783	0.43313
2177.34927	0.43478
2175.42070	0.43633
2173.49214	0.43773
2171.56357	0.43904
2169.63501	0.44039
2167.70645	0.44181
2165.77788	0.44310
2163.84932	0.44424
2161.92075	0.44533
2159.99219	0.44635
2158.06362	0.44731
2156.13506	0.44826
2154.20649	0.44919
2152.27793	0.45005
2150.34937	0.45074
2148.42080	0.45132
2146.49224	0.45180
2144.56367	0.45211
2142.63511	0.45243
2140.70654	0.45277
2138.77798	0.45292
2136.84941	0.45299
2134.92085	0.45316
2132.99229	0.45326
2131.06372	0.45310
2129.13516	0.45276
2127.20659	0.45245
2125.27803	0.45216
2123.34946	0.45170
2121.42090	0.45122
2119.49233	0.45078
2117.56377	0.45017
2115.63521	0.44937
2113.70664	0.44857
2111.77808	0.44767
2109.84951	0.44656
2107.92095	0.44534
2105.99238	0.44413
2104.06382	0.44289
2102.13525	0.44151
2100.20669	0.44003
2098.27812	0.43853
2096.34956	0.43703
2094.42100	0.43551
2092.49243	0.43399
2090.56387	0.43241
2088.63530	0.43072
2086.70674	0.42891
2084.77817	0.42696
2082.84961	0.42490
2080.92104	0.42277
2078.99248	0.42061
2077.06392	0.41845
2075.13535	0.41629
2073.20679	0.41406
2071.27822	0.41179
2069.34966	0.40957
2067.42109	0.40732
2065.49253	0.40505
2063.56396	0.40281
2061.63540	0.40049
2059.70684	0.39797
2057.77827	0.39529
2055.84971	0.39259
2053.92114	0.38992
2051.99258	0.38725
2050.06401	0.38455
2048.13545	0.38192
2046.20688	0.37926
2044.27832	0.37650
2042.34976	0.37379
2040.42119	0.37116
2038.49263	0.36848
2036.56406	0.36577
2034.63550	0.36309
2032.70693	0.36040
2030.77837	0.35765
2028.84980	0.35483
2026.92124	0.35197
2024.99268	0.34913
2023.06411	0.34633
2021.13555	0.34352
2019.20698	0.34072
2017.27842	0.33806
2015.34985	0.33543
2013.42129	0.33272
2011.49272	0.32994
2009.56416	0.32719
2007.63560	0.32448
2005.70703	0.32178
2003.77847	0.31908
2001.84990	0.31646
1999.92134	0.31394
1997.99277	0.31139
1996.06421	0.30877
1994.13564	0.30623
1992.20708	0.30375
1990.27852	0.30121
1988.34995	0.29879
1986.42139	0.29644
1984.49282	0.29408
1982.56426	0.29167
1980.63569	0.28933
1978.70713	0.28715
1976.77856	0.28504
1974.85000	0.28293
1972.92144	0.28085
1970.99287	0.27885
1969.06431	0.27685
1967.13574	0.27482
1965.20718	0.27276
1963.27861	0.27075
1961.35005	0.26879
1959.42148	0.26689
1957.49292	0.26515
1955.56436	0.26352
1953.63579	0.26182
1951.70723	0.25999
1949.77866	0.25818
1947.85010	0.25655
1945.92153	0.25512
1943.99297	0.25377
1942.06440	0.25239
1940.13584	0.25092
1938.20728	0.24946
1936.27871	0.24811
1934.35015	0.24683
1932.42158	0.24567
1930.49302	0.24458
1928.56445	0.24350
1926.63589	0.24245
1924.70732	0.24149
1922.77876	0.24052
1920.85020	0.23960
1918.92163	0.23879
1916.99307	0.23792
1915.06450	0.23701
1913.13594	0.23617
1911.20737	0.23540
1909.27881	0.23475
1907.35024	0.23419
1905.42168	0.23358
1903.49312	0.23295
1901.56455	0.23241
1899.63599	0.23193
1897.70742	0.23149
1895.77886	0.23111
1893.85029	0.23078
1891.92173	0.23035
1889.99316	0.23004
1888.06460	0.22988
1886.13604	0.22969
1884.20747	0.22955
1882.27891	0.22944
1880.35034	0.22927
1878.42178	0.22913
1876.49321	0.22915
1874.56465	0.22922
1872.63608	0.22932
1870.70752	0.22947
1868.77896	0.22985
1866.85039	0.23023
1864.92183	0.23034
1862.99326	0.23045
1861.06470	0.23065
1859.13613	0.23095
1857.20757	0.23132
1855.27900	0.23187
1853.35044	0.23242
1851.42187	0.23293
1849.49331	0.23339
1847.56475	0.23395
1845.63618	0.23466
1843.70762	0.23556
1841.77905	0.23644
1839.85049	0.23700
1837.92192	0.23770
1835.99336	0.23865
1834.06479	0.23969
1832.13623	0.24066
1830.20767	0.24195
1828.27910	0.24340
1826.35054	0.24449
1824.42197	0.24576
1822.49341	0.24713
1820.56484	0.24847
1818.63628	0.24986
1816.70771	0.25149
1814.77915	0.25323
1812.85059	0.25509
1810.92202	0.25710
1808.99346	0.25915
1807.06489	0.26114
1805.13633	0.26299
1803.20776	0.26508
1801.27920	0.26749
1799.35063	0.27015
1797.42207	0.27262
1795.49351	0.27506
1793.56494	0.27780
1791.63638	0.28124
1789.70781	0.28472
1787.77925	0.28749
1785.85068	0.29067
1783.92212	0.29436
1781.99355	0.29827
1780.06499	0.30233
1778.13643	0.30649
1776.20786	0.31042
1774.27930	0.31461
1772.35073	0.32031
1770.42217	0.32667
1768.49360	0.33208
1766.56504	0.33724
1764.63647	0.34257
1762.70791	0.34839
1760.77935	0.35578
1758.85078	0.36288
1756.92222	0.37000
1754.99365	0.37773
1753.06509	0.38463
1751.13652	0.39268
1749.20796	0.40300
1747.27939	0.41354
1745.35083	0.42290
1743.42227	0.43261
1741.49370	0.44307
1739.56514	0.45543
1737.63657	0.46807
1735.70801	0.47911
1733.77944	0.49522
1731.85088	0.51445
1729.92231	0.52985
1727.99375	0.54567
1726.06519	0.56273
1724.13662	0.58107
1722.20806	0.60074
1720.27949	0.61892
1718.35093	0.64006
1716.42236	0.67148
1714.49380	0.70207
1712.56523	0.72713
1710.63667	0.75115
1708.70811	0.77677
1706.77954	0.80591
1704.85098	0.84108
1702.92241	0.87269
1700.99385	0.90397
1699.06528	0.95068
1697.13672	0.99424
1695.20815	1.03972
1693.27959	1.08447
1691.35103	1.12098
1689.42246	1.16321
1687.49390	1.20770
1685.56533	1.25066
1683.63677	1.31746
1681.70820	1.38733
1679.77964	1.43223
1677.85107	1.47459
1675.92251	1.52279
1673.99395	1.58261
1672.06538	1.63724
1670.13682	1.69225
1668.20825	1.76378
1666.27969	1.82284
1664.35112	1.87450
1662.42256	1.94027
1660.49399	2.01413
1658.56543	2.07131
1656.63687	2.11683
1654.70830	2.15710
1652.77974	2.21563
1650.85117	2.26942
1648.92261	2.28846
1646.99404	2.31229
1645.06548	2.33705
1643.13691	2.35284
1641.20835	2.36006
1639.27979	2.36478
1637.35122	2.36505
1635.42266	2.35937
1633.49409	2.35032
1631.56553	2.33623
1629.63696	2.31672
1627.70840	2.28475
1625.77983	2.24693
1623.85127	2.19922
1621.92271	2.14251
1619.99414	2.09298
1618.06558	2.04503
1616.13701	1.97737
1614.20845	1.90926
1612.27988	1.85796
1610.35132	1.80493
1608.42275	1.74788
1606.49419	1.69229
1604.56562	1.64155
1602.63706	1.59262
1600.70850	1.54458
1598.77993	1.50057
1596.85137	1.45985
1594.92280	1.42060
1592.99424	1.38289
1591.06567	1.34884
1589.13711	1.31765
1587.20854	1.28914
1585.27998	1.26306
1583.35142	1.23898
1581.42285	1.21744
1579.49429	1.19965
1577.56572	1.18465
1575.63716	1.16755
1573.70859	1.15245
1571.78003	1.14244
1569.85146	1.13316
1567.92290	1.12452
1565.99434	1.11934
1564.06577	1.11674
1562.13721	1.11564
1560.20864	1.11726
1558.28008	1.12605
1556.35151	1.13472
1554.42295	1.13904
1552.49438	1.14347
1550.56582	1.14620
1548.63726	1.14573
1546.70869	1.14148
1544.78013	1.13284
1542.85156	1.11971
1540.92300	1.09935
1538.99443	1.06721
1537.06587	1.04330
1535.13730	1.02648
1533.20874	1.00371
1531.28018	0.97943
1529.35161	0.96196
1527.42305	0.94563
1525.49448	0.92868
1523.56592	0.91428
1521.63735	0.90080
1519.70879	0.88767
1517.78022	0.87657
1515.85166	0.86335
1513.92310	0.84955
1511.99453	0.83746
1510.06597	0.82614
1508.13740	0.81478
1506.20884	0.79762
1504.28027	0.78298
1502.35171	0.77473
1500.42314	0.76734
1498.49458	0.75938
1496.56602	0.75051
1494.63745	0.74206
1492.70889	0.73544
1490.78032	0.72948
1488.85176	0.72277
1486.92319	0.71666
1484.99463	0.71208
1483.06606	0.70862
1481.13750	0.70598
1479.20894	0.70421
1477.28037	0.70338
1475.35181	0.70346
1473.42324	0.70451
1471.49468	0.70536
1469.56611	0.70460
1467.63755	0.70285
1465.70898	0.70114
1463.78042	0.70015
1461.85186	0.70008
1459.92329	0.70065
1457.99473	0.70172
1456.06616	0.70204
1454.13760	0.70028
1452.20903	0.69783
1450.28047	0.69512
1448.35190	0.69226
1446.42334	0.68944
1444.49478	0.68688
1442.56621	0.68434
1440.63765	0.68148
1438.70908	0.67826
1436.78052	0.67400
1434.85195	0.66925
1432.92339	0.66598
1430.99482	0.66414
1429.06626	0.66336
1427.13770	0.66336
1425.20913	0.66396
1423.28057	0.66515
1421.35200	0.66620
1419.42344	0.66679
1417.49487	0.66690
1415.56631	0.66641
1413.63774	0.66615
1411.70918	0.66658
1409.78062	0.66778
1407.85205	0.66957
1405.92349	0.67169
1403.99492	0.67374
1402.06636	0.67473
1400.13779	0.67433
1398.20923	0.67265
1396.28066	0.66980
1394.35210	0.66562
1392.42354	0.66055
1390.49497	0.65569
1388.56641	0.65091
1386.63784	0.64555
1384.70928	0.63977
1382.78071	0.63411
1380.85215	0.62874
1378.92358	0.62428
1376.99502	0.62113
1375.06646	0.61899
1373.13789	0.61749
1371.20933	0.61672
1369.28076	0.61627
1367.35220	0.61523
1365.42363	0.61349
1363.49507	0.61170
1361.56650	0.61011
1359.63794	0.60842
1357.70937	0.60663
1355.78081	0.60508
1353.85225	0.60392
1351.92368	0.60297
1349.99512	0.60209
1348.06655	0.60134
1346.13799	0.60061
1344.20942	0.59975
1342.28086	0.59885
1340.35229	0.59805
1338.42373	0.59729
1336.49517	0.59662
1334.56660	0.59623
1332.63804	0.59623
1330.70947	0.59666
1328.78091	0.59746
1326.85234	0.59836
1324.92378	0.59923
1322.99521	0.60021
1321.06665	0.60131
1319.13809	0.60228
1317.20952	0.60301
1315.28096	0.60342
1313.35239	0.60336
1311.42383	0.60284
1309.49526	0.60213
1307.56670	0.60146
1305.63813	0.60093
1303.70957	0.60043
1301.78101	0.59975
1299.85244	0.59871
1297.92388	0.59742
1295.99531	0.59617
1294.06675	0.59497
1292.13818	0.59371
1290.20962	0.59238
1288.28105	0.59093
1286.35249	0.58936
1284.42393	0.58780
1282.49536	0.58632
1280.56680	0.58479
1278.63823	0.58313
1276.70967	0.58146
1274.78110	0.58004
1272.85254	0.57896
1270.92397	0.57811
1268.99541	0.57729
1267.06685	0.57639
1265.13828	0.57544
1263.20972	0.57453
1261.28115	0.57361
1259.35259	0.57268
1257.42402	0.57184
1255.49546	0.57122
1253.56689	0.57095
1251.63833	0.57098
1249.70977	0.57118
1247.78120	0.57129
1245.85264	0.57097
1243.92407	0.57013
1241.99551	0.56896
1240.06694	0.56748
1238.13838	0.56549
1236.20981	0.56286
1234.28125	0.55999
1232.35269	0.55742
1230.42412	0.55511
1228.49556	0.55270
1226.56699	0.55023
1224.63843	0.54785
1222.70986	0.54561
1220.78130	0.54371
1218.85273	0.54210
1216.92417	0.54060
1214.99561	0.53928
1213.06704	0.53817
1211.13848	0.53723
1209.20991	0.53653
1207.28135	0.53602
1205.35278	0.53535
1203.42422	0.53434
1201.49565	0.53325
1199.56709	0.53221
1197.63853	0.53109
1195.70996	0.52999
1193.78140	0.52918
1191.85283	0.52866
1189.92427	0.52826
1187.99570	0.52786
1186.06714	0.52754
1184.13857	0.52747
1182.21001	0.52787
1180.28145	0.52879
1178.35288	0.53013
1176.42432	0.53180
1174.49575	0.53343
1172.56719	0.53444
1170.63862	0.53474
1168.71006	0.53480
1166.78149	0.53486
1164.85293	0.53486
1162.92437	0.53494
1160.99580	0.53511
1159.06724	0.53517
1157.13867	0.53489
1155.21011	0.53419
1153.28154	0.53303
1151.35298	0.53132
1149.42441	0.52900
1147.49585	0.52618
1145.56729	0.52314
1143.63872	0.52026
1141.71016	0.51791
1139.78159	0.51619
1137.85303	0.51509
1135.92446	0.51449
1133.99590	0.51439
1132.06733	0.51475
1130.13877	0.51514
1128.21021	0.51523
1126.28164	0.51498
1124.35308	0.51443
1122.42451	0.51400
1120.49595	0.51417
1118.56738	0.51471
1116.63882	0.51516
1114.71025	0.51562
1112.78169	0.51634
1110.85312	0.51718
1108.92456	0.51790
1106.99600	0.51862
1105.06743	0.51940
1103.13887	0.52014
1101.21030	0.52088
1099.28174	0.52207
1097.35317	0.52410
1095.42461	0.52685
1093.49604	0.53036
1091.56748	0.53515
1089.63892	0.54165
1087.71035	0.54965
1085.78179	0.55843
1083.85322	0.56724
1081.92466	0.57486
1079.99609	0.57997
1078.06753	0.58218
1076.13896	0.58138
1074.21040	0.57767
1072.28184	0.57194
1070.35327	0.56508
1068.42471	0.55763
1066.49614	0.55028
1064.56758	0.54374
1062.63901	0.53816
1060.71045	0.53341
1058.78188	0.52937
1056.85332	0.52582
1054.92476	0.52241
1052.99619	0.51919
1051.06763	0.51668
1049.13906	0.51522
1047.21050	0.51436
1045.28193	0.51375
1043.35337	0.51358
1041.42480	0.51381
1039.49624	0.51408
1037.56768	0.51422
1035.63911	0.51413
1033.71055	0.51357
1031.78198	0.51239
1029.85342	0.51051
1027.92485	0.50819
1025.99629	0.50608
1024.06772	0.50450
1022.13916	0.50333
1020.21060	0.50250
1018.28203	0.50194
1016.35347	0.50160
1014.42490	0.50121
1012.49634	0.50052
1010.56777	0.49983
1008.63921	0.49959
1006.71064	0.49996
1004.78208	0.50076
1002.85352	0.50211
1000.92495	0.50445
998.99639	0.50794
997.06782	0.51228
995.13926	0.51698
993.21069	0.52137
991.28213	0.52475
989.35356	0.52671
987.42500	0.52728
985.49644	0.52703
983.56787	0.52666
981.63931	0.52677
979.71074	0.52757
977.78218	0.52882
975.85361	0.53039
973.92505	0.53234
971.99648	0.53482
970.06792	0.53808
968.13936	0.54188
966.21079	0.54597
964.28223	0.55026
962.35366	0.55486
960.42510	0.55999
958.49653	0.56545
956.56797	0.57109
954.63940	0.57705
952.71084	0.58321
950.78228	0.58952
948.85371	0.59586
946.92515	0.60205
944.99658	0.60842
943.06802	0.61507
941.13945	0.62157
939.21089	0.62770
937.28232	0.63334
935.35376	0.63872
933.42520	0.64476
931.49663	0.65115
929.56807	0.65719
927.63950	0.66343
925.71094	0.66981
923.78237	0.67587
921.85381	0.68203
919.92524	0.68846
917.99668	0.69491
916.06812	0.70177
914.13955	0.70947
912.21099	0.71768
910.28242	0.72587
908.35386	0.73404
906.42529	0.74281
904.49673	0.75222
902.56816	0.76152
900.63960	0.77006
898.71104	0.77846
896.78247	0.78831
894.85391	0.79968
892.92534	0.81121
890.99678	0.82237
889.06821	0.83377
887.13965	0.84493
885.21108	0.85540
883.28252	0.86581
881.35396	0.87660
879.42539	0.88822
877.49683	0.89964
875.56826	0.91035
873.63970	0.92195
871.71113	0.93515
869.78257	0.94785
867.85400	0.95829
865.92544	0.96918
863.99687	0.98219
862.06831	0.99481
860.13975	1.00629
858.21118	1.01760
856.28262	1.02839
854.35405	1.04002
852.42549	1.05238
850.49692	1.06356
848.56836	1.07551
846.63979	1.08905
844.71123	1.10235
842.78267	1.11478
840.85410	1.12578
838.92554	1.13501
836.99697	1.14495
835.06841	1.15645
833.13984	1.16569
831.21128	1.17538
829.28271	1.19066
827.35415	1.20780
825.42559	1.22241
823.49702	1.23431
821.56846	1.24362
819.63989	1.25326
817.71133	1.26709
815.78276	1.28312
813.85420	1.29700
811.92563	1.30386
809.99707	1.30430
808.06851	1.30846
806.13994	1.32152
804.21138	1.34275
802.28281	1.36255
800.35425	1.36681
798.42568	1.37038
796.49712	1.38187
794.56855	1.38790
792.63999	1.41335
790.71143	1.47753
788.78286	1.51513
786.85430	1.48280
784.92573	1.46101
782.99717	1.50092
781.06860	1.58203
779.14004	1.64031
777.21147	1.67632
775.28291	1.66890
773.35435	1.57111
771.42578	1.46887
769.49722	1.36273
767.56865	1.33891
765.64009	1.32707
763.71152	1.21879
761.78296	1.17003
759.85439	1.24490
757.92583	1.42395
755.99727	1.46366
754.06870	1.24073
752.14014	1.08541
750.21157	1.00991
748.28301	0.98613
746.35444	1.00072
744.42588	0.99405
742.49731	0.93516
740.56875	0.84545
738.64019	0.75789
736.71162	0.70646
734.78306	0.67709
732.85449	0.63996
730.92593	0.59122
728.99736	0.45770
727.06880	0.12483
725.14023	4.35084
723.21167	4.33927
721.28311	4.32770
719.35454	4.31613
717.42598	-0.46372
715.49741	-0.00693
713.56885	0.18857
711.64028	0.32356
709.71172	0.48709
707.78315	0.64919
705.85459	0.64324
703.92603	0.49722
701.99746	0.39014
700.06890	0.36282
698.14033	0.34479
696.21177	0.31041
694.28320	0.33598
692.35464	0.41870
690.42607	0.49751
688.49751	0.54142
686.56895	0.59600
684.64038	0.74020
682.71182	0.89352
680.78325	0.69284
678.85469	0.49923
676.92612	0.46220
674.99756	0.56139
673.06899	0.66719
671.14043	0.71866
669.21187	0.80859
667.28330	0.77781
665.35474	0.65408
663.42617	0.58405
661.49761	0.56233
659.56904	0.57097
657.64048	0.58640
655.71191	0.57160
653.78335	0.48950
651.85479	0.35204
649.92622	0.25765
647.99766	0.29594
646.06909	0.39577
644.14053	0.38686
642.21196	0.32525
640.28340	0.32615
638.35483	0.36541
636.42627	0.39515
634.49771	0.45723
632.56914	0.54763
630.64058	0.55479
628.71201	0.49811
626.78345	0.41140
624.85488	0.31694
622.92632	0.29420
620.99775	0.37522
619.06919	0.49896
617.14062	0.50357
615.21206	0.41667
613.28350	0.35477
611.35493	0.35128
609.42637	0.39036
607.49780	0.47676
605.56924	0.57702
603.64067	0.54839
601.71211	0.50069
599.78354	0.55907
597.85498	0.59585
595.92642	0.47343
593.99785	0.40074
592.06929	0.42513
590.14072	0.45281
588.21216	0.45542
586.28359	0.47594
584.35503	0.48324
582.42646	0.42690
580.49790	0.38427
578.56934	0.39655
576.64077	0.41363
574.71221	0.42258
572.78364	0.46244
570.85508	0.49898
568.92651	0.52341
566.99795	0.54666
565.06938	0.45935
563.14082	0.32651
561.21226	0.25981
559.28369	0.26800
557.35513	0.30294
555.42656	0.29716
553.49800	0.26267
551.56943	0.25306
549.64087	0.28704
547.71230	0.35381
545.78374	0.41027
543.85518	0.45412
541.92661	0.45440
539.99805	0.37757
538.06948	0.32266
536.14092	0.30957
534.21235	0.31940
532.28379	0.39955
530.35522	0.53666
528.42666	0.53453
526.49810	0.41488
524.56953	0.33338
522.64097	0.30767
520.71240	0.30794
518.78384	0.31271
516.85527	0.31139
514.92671	0.32244
512.99814	0.36797
511.06958	0.38617
509.14102	0.32458
507.21245	0.26904
505.28389	0.25046
503.35532	0.26450
501.42676	0.31284
499.49819	0.38031
