3997.91411	0.06121
3995.98555	0.06176
3994.05698	0.06250
3992.12842	0.06290
3990.19985	0.06299
3988.27129	0.06333
3986.34272	0.06403
3984.41416	0.06451
3982.48560	0.06445
3980.55703	0.06426
3978.62847	0.06422
3976.69990	0.06424
3974.77134	0.06443
3972.84277	0.06490
3970.91421	0.06524
3968.98564	0.06533
3967.05708	0.06544
3965.12852	0.06556
3963.19995	0.06583
3961.27139	0.06624
3959.34282	0.06646
3957.41426	0.06645
3955.48569	0.06625
3953.55713	0.06610
3951.62856	0.06605
3949.70000	0.06590
3947.77144	0.06606
3945.84287	0.06649
3943.91431	0.06655
3941.98574	0.06629
3940.05718	0.06590
3938.12861	0.06560
3936.20005	0.06572
3934.27148	0.06631
3932.34292	0.06720
3930.41436	0.06772
3928.48579	0.06730
3926.55723	0.06645
3924.62866	0.06579
3922.70010	0.06547
3920.77153	0.06556
3918.84297	0.06585
3916.91440	0.06600
3914.98584	0.06568
3913.05728	0.06517
3911.12871	0.06508
3909.20015	0.06511
3907.27158	0.06510
3905.34302	0.06544
3903.41445	0.06601
3901.48589	0.06625
3899.55732	0.06625
3897.62876	0.06638
3895.70020	0.06640
3893.77163	0.06617
3891.84307	0.06594
3889.91450	0.06586
3887.98594	0.06574
3886.05737	0.06532
3884.12881	0.06497
3882.20024	0.06547
3880.27168	0.06649
3878.34312	0.06691
3876.41455	0.06670
3874.48599	0.06689
3872.55742	0.06747
3870.62886	0.06797
3868.70029	0.06855
3866.77173	0.06851
3864.84316	0.06831
3862.91460	0.06899
3860.98604	0.06966
3859.05747	0.06959
3857.12891	0.06930
3855.20034	0.06926
3853.27178	0.07023
3851.34321	0.07223
3849.41465	0.07268
3847.48608	0.07216
3845.55752	0.07202
3843.62896	0.07256
3841.70039	0.07346
3839.77183	0.07416
3837.84326	0.07472
3835.91470	0.07567
3833.98613	0.07677
3832.05757	0.07742
3830.12900	0.07762
3828.20044	0.07763
3826.27187	0.07795
3824.34331	0.07866
3822.41475	0.07926
3820.48618	0.08029
3818.55762	0.08180
3816.62905	0.08287
3814.70049	0.08374
3812.77192	0.08419
3810.84336	0.08438
3808.91479	0.08507
3806.98623	0.08682
3805.05767	0.08891
3803.12910	0.08989
3801.20054	0.09061
3799.27197	0.09175
3797.34341	0.09257
3795.41484	0.09361
3793.48628	0.09476
3791.55771	0.09544
3789.62915	0.09618
3787.70059	0.09738
3785.77202	0.09882
3783.84346	0.10034
3781.91489	0.10191
3779.98633	0.10389
3778.05776	0.10642
3776.12920	0.10816
3774.20063	0.10889
3772.27207	0.10966
3770.34351	0.11140
3768.41494	0.11401
3766.48638	0.11607
3764.55781	0.11768
3762.62925	0.11902
3760.70068	0.12021
3758.77212	0.12254
3756.84355	0.12588
3754.91499	0.12852
3752.98643	0.13060
3751.05786	0.13364
3749.12930	0.13806
3747.20073	0.14135
3745.27217	0.14362
3743.34360	0.14711
3741.41504	0.15108
3739.48647	0.15424
3737.55791	0.15780
3735.62935	0.16301
3733.70078	0.16970
3731.77222	0.17599
3729.84365	0.18145
3727.91509	0.18634
3725.98652	0.19172
3724.05796	0.19780
3722.12939	0.20350
3720.20083	0.20907
3718.27227	0.21491
3716.34370	0.22092
3714.41514	0.22706
3712.48657	0.23501
3710.55801	0.24801
3708.62944	0.26379
3706.70088	0.27668
3704.77231	0.28765
3702.84375	0.29989
3700.91519	0.31587
3698.98662	0.33370
3697.05806	0.35079
3695.12949	0.36867
3693.20093	0.38752
3691.27236	0.40773
3689.34380	0.43362
3687.41523	0.46680
3685.48667	0.49730
3683.55811	0.52344
3681.62954	0.55088
3679.70098	0.58147
3677.77241	0.61339
3675.84385	0.65114
3673.91528	0.70264
3671.98672	0.74547
3670.05815	0.78346
3668.12959	0.83578
3666.20103	0.88405
3664.27246	0.92400
3662.34390	0.96647
3660.41533	1.01233
3658.48677	1.05751
3656.55820	1.10521
3654.62964	1.15824
3652.70107	1.20334
3650.77251	1.24284
3648.84395	1.29721
3646.91538	1.36423
3644.98682	1.41450
3643.05825	1.45398
3641.12969	1.49426
3639.20112	1.53838
3637.27256	1.58289
3635.34399	1.62624
3633.41543	1.66958
3631.48687	1.71006
3629.55830	1.75086
3627.62974	1.80399
3625.70117	1.85338
3623.77261	1.88648
3621.84404	1.91758
3619.91548	1.95293
3617.98691	1.99651
3616.05835	2.03980
3614.12979	2.07643
3612.20122	2.11521
3610.27266	2.15549
3608.34409	2.19620
3606.41553	2.23941
3604.48696	2.28011
3602.55840	2.31603
3600.62983	2.35366
3598.70127	2.39356
3596.77271	2.43260
3594.84414	2.47328
3592.91558	2.51543
3590.98701	2.55507
3589.05845	2.59115
3587.12988	2.63160
3585.20132	2.67683
3583.27275	2.71751
3581.34419	2.75614
3579.41562	2.79803
3577.48706	2.84137
3575.55850	2.88292
3573.62993	2.92507
3571.70137	2.96704
3569.77280	3.00624
3567.84424	3.04709
3565.91567	3.09925
3563.98711	3.15155
3562.05854	3.19353
3560.12998	3.23489
3558.20142	3.28005
3556.27285	3.32695
3554.34429	3.37224
3552.41572	3.41806
3550.48716	3.46528
3548.55859	3.51078
3546.63003	3.55560
3544.70146	3.60389
3542.77290	3.65322
3540.84434	3.69950
3538.91577	3.74524
3536.98721	3.79270
3535.05864	3.84111
3533.13008	3.88650
3531.20151	3.93081
3529.27295	3.97896
3527.34438	4.03033
3525.41582	4.08075
3523.48726	4.13172
3521.55869	4.18442
3519.63013	4.23199
3517.70156	4.27427
3515.77300	4.31790
3513.84443	4.36731
3511.91587	4.41975
3509.98730	4.47167
3508.05874	4.52233
3506.13018	4.56866
3504.20161	4.61293
3502.27305	4.66326
3500.34448	4.71653
3498.41592	4.76396
3496.48735	4.80840
3494.55879	4.85352
3492.63022	4.89995
3490.70166	4.94834
3488.77310	4.99614
3486.84453	5.03907
3484.91597	5.08030
3482.98740	5.12911
3481.05884	5.18681
3479.13027	5.24593
3477.20171	5.30098
3475.27314	5.34746
3473.34458	5.38643
3471.41602	5.42743
3469.48745	5.47569
3467.55889	5.52830
3465.63032	5.57839
3463.70176	5.63230
3461.77319	5.69733
3459.84463	5.76040
3457.91606	5.80917
3455.98750	5.85395
3454.05894	5.90225
3452.13037	5.93809
3450.20181	5.95939
3448.27324	5.99354
3446.34468	6.05756
3444.41611	6.12326
3442.48755	6.16181
3440.55898	6.19854
3438.63042	6.26441
3436.70186	6.33740
3434.77329	6.38144
3432.84473	6.41108
3430.91616	6.46887
3428.98760	6.54464
3427.05903	6.58305
3425.13047	6.59814
3423.20190	6.64646
3421.27334	6.73672
3419.34478	6.82455
3417.41621	6.87463
3415.48765	6.89444
3413.55908	6.91705
3411.63052	6.97201
3409.70195	7.03339
3407.77339	7.06919
3405.84482	7.08861
3403.91626	7.11622
3401.98770	7.15775
3400.05913	7.23108
3398.13057	7.33109
3396.20200	7.39245
3394.27344	7.38561
3392.34487	7.37673
3390.41631	7.45058
3388.48774	7.56483
3386.55918	7.61736
3384.63062	7.58257
3382.70205	7.56445
3380.77349	7.63196
3378.84492	7.68356
3376.91636	7.65179
3374.98779	7.61806
3373.05923	7.66135
3371.13066	7.73009
3369.20210	7.75405
3367.27354	7.76155
3365.34497	7.80167
3363.41641	7.81035
3361.48784	7.76598
3359.55928	7.79667
3357.63071	7.90745
3355.70215	7.98111
3353.77358	7.98502
3351.84502	8.00367
3349.91646	8.05197
3347.98789	8.10935
3346.05933	8.12777
3344.13076	8.07317
3342.20220	8.03043
3340.27363	8.04062
3338.34507	8.10645
3336.41650	8.14047
3334.48794	8.06486
3332.55937	7.96718
3330.63081	7.93961
3328.70225	7.98301
3326.77368	8.05982
3324.84512	8.09441
3322.91655	8.05593
3320.98799	8.07490
3319.05942	8.18077
3317.13086	8.29485
3315.20229	8.34986
3313.27373	8.33476
3311.34517	8.30965
3309.41660	8.32090
3307.48804	8.38528
3305.55947	8.38149
3303.63091	8.26400
3301.70234	8.17946
3299.77378	8.16962
3297.84521	8.22493
3295.91665	8.35137
3293.98809	8.41013
3292.05952	8.36331
3290.13096	8.33766
3288.20239	8.32688
3286.27383	8.36107
3284.34526	8.46557
3282.41670	8.46201
3280.48813	8.28182
3278.55957	8.14026
3276.63101	8.10114
3274.70244	8.09848
3272.77388	8.13361
3270.84531	8.17270
3268.91675	8.17961
3266.98818	8.20832
3265.05962	8.29263
3263.13105	8.39241
3261.20249	8.46643
3259.27393	8.52312
3257.34536	8.59856
3255.41680	8.58993
3253.48823	8.39772
3251.55967	8.21995
3249.63110	8.19612
3247.70254	8.22231
3245.77397	8.18601
3243.84541	8.16879
3241.91685	8.23667
3239.98828	8.28970
3238.05972	8.26213
3236.13115	8.24509
3234.20259	8.27460
3232.27402	8.30133
3230.34546	8.27176
3228.41689	8.17475
3226.48833	8.11783
3224.55977	8.13795
3222.63120	8.18634
3220.70264	8.27530
3218.77407	8.37479
3216.84551	8.38592
3214.91694	8.29739
3212.98838	8.19687
3211.05981	8.13464
3209.13125	8.05688
3207.20269	7.97377
3205.27412	7.95088
3203.34556	7.94116
3201.41699	7.90831
3199.48843	7.89233
3197.55986	7.91317
3195.63130	7.92119
3193.70273	7.82507
3191.77417	7.67812
3189.84561	7.61008
3187.91704	7.62049
3185.98848	7.59958
3184.05991	7.51359
3182.13135	7.43206
3180.20278	7.35910
3178.27422	7.27970
3176.34565	7.21979
3174.41709	7.19045
3172.48853	7.18354
3170.55996	7.14973
3168.63140	7.09696
3166.70283	7.07594
3164.77427	7.02945
3162.84570	6.92668
3160.91714	6.83137
3158.98857	6.75274
3157.06001	6.66445
3155.13145	6.58182
3153.20288	6.51113
3151.27432	6.44789
3149.34575	6.39757
3147.41719	6.33821
3145.48862	6.25284
3143.56006	6.17006
3141.63149	6.11425
3139.70293	6.06653
3137.77437	6.00514
3135.84580	5.93212
3133.91724	5.85544
3131.98867	5.77643
3130.06011	5.69887
3128.13154	5.62357
3126.20298	5.54327
3124.27441	5.46669
3122.34585	5.40141
3120.41729	5.33619
3118.48872	5.26280
3116.56016	5.18561
3114.63159	5.10777
3112.70303	5.03207
3110.77446	4.96480
3108.84590	4.90308
3106.91733	4.84033
3104.98877	4.77246
3103.06021	4.69936
3101.13164	4.62679
3099.20308	4.55840
3097.27451	4.49287
3095.34595	4.42828
3093.41738	4.36412
3091.48882	4.30000
3089.56025	4.23526
3087.63169	4.16890
3085.70312	4.10016
3083.77456	4.03248
3081.84600	3.97151
3079.91743	3.91345
3077.98887	3.85165
3076.06030	3.78958
3074.13174	3.73169
3072.20317	3.67484
3070.27461	3.61498
3068.34604	3.55434
3066.41748	3.49612
3064.48892	3.43982
3062.56035	3.38400
3060.63179	3.32850
3058.70322	3.27407
3056.77466	3.21979
3054.84609	3.16512
3052.91753	3.11272
3050.98896	3.06283
3049.06040	3.01198
3047.13184	2.96003
3045.20327	2.90798
3043.27471	2.85637
3041.34614	2.80807
3039.41758	2.76244
3037.48901	2.71597
3035.56045	2.66898
3033.63188	2.62350
3031.70332	2.57889
3029.77476	2.53393
3027.84619	2.48947
3025.91763	2.44632
3023.98906	2.40399
3022.06050	2.36152
3020.13193	2.31847
3018.20337	2.27590
3016.27480	2.23513
3014.34624	2.19598
3012.41768	2.15776
3010.48911	2.11997
3008.56055	2.08204
3006.63198	2.04403
3004.70342	2.00663
3002.77485	1.97050
3000.84629	1.93601
2998.91772	1.90256
2996.98916	1.86920
2995.06060	1.83609
2993.13203	1.80377
2991.20347	1.77234
2989.27490	1.74193
2987.34634	1.71212
2985.41777	1.68270
2983.48921	1.65412
2981.56064	1.62567
2979.63208	1.59688
2977.70352	1.56891
2975.77495	1.54214
2973.84639	1.51592
2971.91782	1.49022
2969.98926	1.46519
2968.06069	1.44059
2966.13213	1.41617
2964.20356	1.39172
2962.27500	1.36729
2960.34644	1.34321
2958.41787	1.31970
2956.48931	1.29634
2954.56074	1.27267
2952.63218	1.24923
2950.70361	1.22647
2948.77505	1.20428
2946.84648	1.18281
2944.91792	1.16196
2942.98936	1.14108
2941.06079	1.12026
2939.13223	1.10010
2937.20366	1.08059
2935.27510	1.06157
2933.34653	1.04280
2931.41797	1.02417
2929.48940	1.00595
2927.56084	0.98789
2925.63228	0.96957
2923.70371	0.95128
2921.77515	0.93318
2919.84658	0.91549
2917.91802	0.89875
2915.98945	0.88257
2914.06089	0.86605
2912.13232	0.84977
2910.20376	0.83449
2908.27520	0.81981
2906.34663	0.80530
2904.41807	0.79111
2902.48950	0.77744
2900.56094	0.76382
2898.63237	0.74996
2896.70381	0.73656
2894.77524	0.72402
2892.84668	0.71201
2890.91812	0.70025
2888.98955	0.68868
2887.06099	0.67739
2885.13242	0.66650
2883.20386	0.65607
2881.27529	0.64588
2879.34673	0.63566
2877.41816	0.62554
2875.48960	0.61567
2873.56104	0.60583
2871.63247	0.59583
2869.70391	0.58555
2867.77534	0.57486
2865.84678	0.56385
2863.91821	0.55321
2861.98965	0.54325
2860.06108	0.53343
2858.13252	0.52365
2856.20396	0.51415
2854.27539	0.50507
2852.34683	0.49657
2850.41826	0.48826
2848.48970	0.47969
2846.56113	0.47153
2844.63257	0.46431
2842.70400	0.45751
2840.77544	0.45096
2838.84687	0.44484
2836.91831	0.43878
2834.98975	0.43244
2833.06118	0.42606
2831.13262	0.41987
2829.20405	0.41386
2827.27549	0.40796
2825.34692	0.40197
2823.41836	0.39591
2821.48979	0.39006
2819.56123	0.38443
2817.63267	0.37877
2815.70410	0.37306
2813.77554	0.36749
2811.84697	0.36205
2809.91841	0.35664
2807.98984	0.35128
2806.06128	0.34598
2804.13271	0.34087
2802.20415	0.33614
2800.27559	0.33163
2798.34702	0.32694
2796.41846	0.32218
2794.48989	0.31771
2792.56133	0.31329
2790.63276	0.30870
2788.70420	0.30425
2786.77563	0.30012
2784.84707	0.29612
2782.91851	0.29209
2780.98994	0.28803
2779.06138	0.28400
2777.13281	0.28008
2775.20425	0.27631
2773.27568	0.27264
2771.34712	0.26911
2769.41855	0.26572
2767.48999	0.26217
2765.56143	0.25855
2763.63286	0.25537
2761.70430	0.25248
2759.77573	0.24943
2757.84717	0.24626
2755.91860	0.24307
2753.99004	0.24012
2752.06147	0.23751
2750.13291	0.23485
2748.20435	0.23196
2746.27578	0.22910
2744.34722	0.22637
2742.41865	0.22361
2740.49009	0.22087
2738.56152	0.21836
2736.63296	0.21605
2734.70439	0.21378
2732.77583	0.21151
2730.84727	0.20936
2728.91870	0.20732
2726.99014	0.20521
2725.06157	0.20300
2723.13301	0.20092
2721.20444	0.19895
2719.27588	0.19691
2717.34731	0.19491
2715.41875	0.19309
2713.49019	0.19137
2711.56162	0.18959
2709.63306	0.18776
2707.70449	0.18616
2705.77593	0.18479
2703.84736	0.18321
2701.91880	0.18146
2699.99023	0.17997
2698.06167	0.17870
2696.13311	0.17743
2694.20454	0.17621
2692.27598	0.17503
2690.34741	0.17385
2688.41885	0.17264
2686.49028	0.17129
2684.56172	0.16986
2682.63315	0.16849
2680.70459	0.16726
2678.77603	0.16620
2676.84746	0.16519
2674.91890	0.16410
2672.99033	0.16292
2671.06177	0.16177
2669.13320	0.16074
2667.20464	0.15983
2665.27607	0.15905
2663.34751	0.15831
2661.41895	0.15747
2659.49038	0.15674
2657.56182	0.15634
2655.63325	0.15596
2653.70469	0.15521
2651.77612	0.15429
2649.84756	0.15357
2647.91899	0.15304
2645.99043	0.15246
2644.06187	0.15180
2642.13330	0.15114
2640.20474	0.15048
2638.27617	0.14996
2636.34761	0.14967
2634.41904	0.14942
2632.49048	0.14904
2630.56191	0.14863
2628.63335	0.14823
2626.70479	0.14775
2624.77622	0.14736
2622.84766	0.14709
2620.91909	0.14679
2618.99053	0.14658
2617.06196	0.14651
2615.13340	0.14641
2613.20483	0.14623
2611.27627	0.14613
2609.34771	0.14618
2607.41914	0.14625
2605.49058	0.14617
2603.56201	0.14598
2601.63345	0.14588
2599.70488	0.14588
2597.77632	0.14584
2595.84775	0.14588
2593.91919	0.14607
2591.99062	0.14626
2590.06206	0.14647
2588.13350	0.14673
2586.20493	0.14685
2584.27637	0.14677
2582.34780	0.14676
2580.41924	0.14706
2578.49067	0.14757
2576.56211	0.14809
2574.63354	0.14852
2572.70498	0.14879
2570.77642	0.14909
2568.84785	0.14953
2566.91929	0.14990
2564.99072	0.15015
2563.06216	0.15050
2561.13359	0.15103
2559.20503	0.15165
2557.27646	0.15223
2555.34790	0.15271
2553.41934	0.15322
2551.49077	0.15387
2549.56221	0.15446
2547.63364	0.15493
2545.70508	0.15543
2543.77651	0.15593
2541.84795	0.15634
2539.91938	0.15686
2537.99082	0.15763
2536.06226	0.15841
2534.13369	0.15908
2532.20513	0.15976
2530.27656	0.16044
2528.34800	0.16107
2526.41943	0.16174
2524.49087	0.16248
2522.56230	0.16323
2520.63374	0.16401
2518.70518	0.16488
2516.77661	0.16577
2514.84805	0.16656
2512.91948	0.16738
2510.99092	0.16831
2509.06235	0.16917
2507.13379	0.16988
2505.20522	0.17061
2503.27666	0.17145
2501.34810	0.17235
2499.41953	0.17328
2497.49097	0.17421
2495.56240	0.17512
2493.63384	0.17596
2491.70527	0.17667
2489.77671	0.17739
2487.84814	0.17824
2485.91958	0.17921
2483.99102	0.18020
2482.06245	0.18114
2480.13389	0.18197
2478.20532	0.18282
2476.27676	0.18375
2474.34819	0.18458
2472.41963	0.18526
2470.49106	0.18599
2468.56250	0.18686
2466.63394	0.18776
2464.70537	0.18871
2462.77681	0.18972
2460.84824	0.19065
2458.91968	0.19156
2456.99111	0.19254
2455.06255	0.19365
2453.13398	0.19473
2451.20542	0.19563
2449.27686	0.19652
2447.34829	0.19760
2445.41973	0.19868
2443.49116	0.19968
2441.56260	0.20072
2439.63403	0.20182
2437.70547	0.20283
2435.77690	0.20380
2433.84834	0.20492
2431.91978	0.20606
2429.99121	0.20702
2428.06265	0.20792
2426.13408	0.20898
2424.20552	0.21017
2422.27695	0.21127
2420.34839	0.21220
2418.41982	0.21318
2416.49126	0.21434
2414.56270	0.21562
2412.63413	0.21688
2410.70557	0.21798
2408.77700	0.21899
2406.84844	0.22008
2404.91987	0.22128
2402.99131	0.22257
2401.06274	0.22393
2399.13418	0.22523
2397.20562	0.22638
2395.27705	0.22756
2393.34849	0.22889
2391.41992	0.23026
2389.49136	0.23167
2387.56279	0.23344
2385.63423	0.23580
2383.70566	0.23907
2381.77710	0.24353
2379.84854	0.24907
2377.91997	0.25551
2375.99141	0.26288
2374.06284	0.27106
2372.13428	0.28020
2370.20571	0.29061
2368.27715	0.30143
2366.34858	0.31145
2364.42002	0.31999
2362.49146	0.32604
2360.56289	0.32947
2358.63433	0.33028
2356.70576	0.32771
2354.77720	0.32238
2352.84863	0.31509
2350.92007	0.30690
2348.99150	0.30178
2347.06294	0.30232
2345.13437	0.30912
2343.20581	0.31889
2341.27725	0.32469
2339.34868	0.32589
2337.42012	0.32623
2335.49155	0.32707
2333.56299	0.32719
2331.63442	0.32657
2329.70586	0.32613
2327.77729	0.32605
2325.84873	0.32537
2323.92017	0.32367
2321.99160	0.32167
2320.06304	0.31954
2318.13447	0.31717
2316.20591	0.31523
2314.27734	0.31428
2312.34878	0.31401
2310.42021	0.31407
2308.49165	0.31405
2306.56309	0.31347
2304.63452	0.31277
2302.70596	0.31274
2300.77739	0.31323
2298.84883	0.31378
2296.92026	0.31456
2294.99170	0.31560
2293.06313	0.31663
2291.13457	0.31764
2289.20601	0.31864
2287.27744	0.31957
2285.34888	0.32053
2283.42031	0.32185
2281.49175	0.32371
2279.56318	0.32591
2277.63462	0.32810
2275.70605	0.33021
2273.77749	0.33242
2271.84893	0.33477
2269.92036	0.33701
2267.99180	0.33904
2266.06323	0.34108
2264.13467	0.34313
2262.20610	0.34505
2260.27754	0.34692
2258.34897	0.34881
2256.42041	0.35069
2254.49185	0.35264
2252.56328	0.35467
2250.63472	0.35677
2248.70615	0.35890
2246.77759	0.36100
2244.84902	0.36313
2242.92046	0.36525
2240.99189	0.36735
2239.06333	0.36952
2237.13477	0.37170
2235.20620	0.37378
2233.27764	0.37587
2231.34907	0.37803
2229.42051	0.38023
2227.49194	0.38252
2225.56338	0.38482
2223.63481	0.38708
2221.70625	0.38931
2219.77769	0.39150
2217.84912	0.39361
2215.92056	0.39576
2213.99199	0.39800
2212.06343	0.40023
2210.13486	0.40236
2208.20630	0.40439
2206.27773	0.40634
2204.34917	0.40827
2202.42061	0.41034
2200.49204	0.41255
2198.56348	0.41472
2196.63491	0.41674
2194.70635	0.41872
2192.77778	0.42071
2190.84922	0.42258
2188.92065	0.42435
2186.99209	0.42611
2185.06353	0.42780
2183.13496	0.42945
2181.20640	0.43129
2179.27783	0.43312
2177.34927	0.43464
2175.42070	0.43611
2173.49214	0.43776
2171.56357	0.43920
2169.63501	0.44039
2167.70645	0.44165
2165.77788	0.44297
2163.84932	0.44415
2161.92075	0.44512
2159.99219	0.44613
2158.06362	0.44730
2156.13506	0.44836
2154.20649	0.44922
2152.27793	0.44997
2150.34937	0.45058
2148.42080	0.45108
2146.49224	0.45160
2144.56367	0.45209
2142.63511	0.45250
2140.70654	0.45281
2138.77798	0.45312
2136.84941	0.45342
2134.92085	0.45360
2132.99229	0.45360
2131.06372	0.45343
2129.13516	0.45320
2127.20659	0.45293
2125.27803	0.45242
2123.34946	0.45174
2121.42090	0.45125
2119.49233	0.45083
2117.56377	0.45025
2115.63521	0.44953
2113.70664	0.44869
2111.77808	0.44774
2109.84951	0.44671
2107.92095	0.44566
2105.99238	0.44457
2104.06382	0.44344
2102.13525	0.44220
2100.20669	0.44082
2098.27812	0.43933
2096.34956	0.43776
2094.42100	0.43612
2092.49243	0.43452
2090.56387	0.43301
2088.63530	0.43132
2086.70674	0.42939
2084.77817	0.42735
2082.84961	0.42535
2080.92104	0.42339
2078.99248	0.42141
2077.06392	0.41933
2075.13535	0.41717
2073.20679	0.41498
2071.27822	0.41275
2069.34966	0.41052
2067.42109	0.40829
2065.49253	0.40598
2063.56396	0.40354
2061.63540	0.40099
2059.70684	0.39836
2057.77827	0.39574
2055.84971	0.39327
2053.92114	0.39086
2051.99258	0.38826
2050.06401	0.38546
2048.13545	0.38268
2046.20688	0.38000
2044.27832	0.37737
2042.34976	0.37469
2040.42119	0.37188
2038.49263	0.36906
2036.56406	0.36633
2034.63550	0.36360
2032.70693	0.36084
2030.77837	0.35807
2028.84980	0.35531
2026.92124	0.35263
2024.99268	0.34995
2023.06411	0.34723
2021.13555	0.34453
2019.20698	0.34186
2017.27842	0.33914
2015.34985	0.33632
2013.42129	0.33353
2011.49272	0.33078
2009.56416	0.32803
2007.63560	0.32524
2005.70703	0.32242
2003.77847	0.31965
2001.84990	0.31699
1999.92134	0.31439
1997.99277	0.31190
1996.06421	0.30955
1994.13564	0.30720
1992.20708	0.30472
1990.27852	0.30218
1988.34995	0.29968
1986.42139	0.29714
1984.49282	0.29466
1982.56426	0.29231
1980.63569	0.29002
1978.70713	0.28783
1976.77856	0.28565
1974.85000	0.28341
1972.92144	0.28124
1970.99287	0.27918
1969.06431	0.27717
1967.13574	0.27518
1965.20718	0.27315
1963.27861	0.27118
1961.35005	0.26934
1959.42148	0.26750
1957.49292	0.26558
1955.56436	0.26370
1953.63579	0.26193
1951.70723	0.26021
1949.77866	0.25861
1947.85010	0.25717
1945.92153	0.25578
1943.99297	0.25440
1942.06440	0.25298
1940.13584	0.25141
1938.20728	0.24986
1936.27871	0.24852
1934.35015	0.24729
1932.42158	0.24598
1930.49302	0.24469
1928.56445	0.24361
1926.63589	0.24260
1924.70732	0.24166
1922.77876	0.24071
1920.85020	0.23970
1918.92163	0.23884
1916.99307	0.23813
1915.06450	0.23730
1913.13594	0.23642
1911.20737	0.23572
1909.27881	0.23511
1907.35024	0.23448
1905.42168	0.23378
1903.49312	0.23310
1901.56455	0.23257
1899.63599	0.23214
1897.70742	0.23170
1895.77886	0.23119
1893.85029	0.23074
1891.92173	0.23035
1889.99316	0.23014
1888.06460	0.23007
1886.13604	0.23002
1884.20747	0.22989
1882.27891	0.22965
1880.35034	0.22936
1878.42178	0.22911
1876.49321	0.22904
1874.56465	0.22913
1872.63608	0.22934
1870.70752	0.22961
1868.77896	0.23009
1866.85039	0.23040
1864.92183	0.23030
1862.99326	0.23029
1861.06470	0.23055
1859.13613	0.23094
1857.20757	0.23132
1855.27900	0.23183
1853.35044	0.23241
1851.42187	0.23294
1849.49331	0.23350
1847.56475	0.23422
1845.63618	0.23503
1843.70762	0.23594
1841.77905	0.23678
1839.85049	0.23735
1837.92192	0.23809
1835.99336	0.23899
1834.06479	0.23995
1832.13623	0.24092
1830.20767	0.24219
1828.27910	0.24363
1826.35054	0.24473
1824.42197	0.24601
1822.49341	0.24747
1820.56484	0.24887
1818.63628	0.25020
1816.70771	0.25174
1814.77915	0.25335
1812.85059	0.25506
1810.92202	0.25708
1808.99346	0.25924
1807.06489	0.26128
1805.13633	0.26320
1803.20776	0.26533
1801.27920	0.26777
1799.35063	0.27063
1797.42207	0.27328
1795.49351	0.27572
1793.56494	0.27854
1791.63638	0.28229
1789.70781	0.28582
1787.77925	0.28838
1785.85068	0.29141
1783.92212	0.29500
1781.99355	0.29881
1780.06499	0.30292
1778.13643	0.30729
1776.20786	0.31137
1774.27930	0.31566
1772.35073	0.32142
1770.42217	0.32781
1768.49360	0.33337
1766.56504	0.33863
1764.63647	0.34386
1762.70791	0.34959
1760.77935	0.35704
1758.85078	0.36422
1756.92222	0.37142
1754.99365	0.37919
1753.06509	0.38620
1751.13652	0.39448
1749.20796	0.40497
1747.27939	0.41539
1745.35083	0.42468
1743.42227	0.43458
1741.49370	0.44538
1739.56514	0.45794
1737.63657	0.47047
1735.70801	0.48138
1733.77944	0.49777
1731.85088	0.51756
1729.92231	0.53308
1727.99375	0.54867
1726.06519	0.56560
1724.13662	0.58396
1722.20806	0.60368
1720.27949	0.62216
1718.35093	0.64398
1716.42236	0.67580
1714.49380	0.70590
1712.56523	0.73052
1710.63667	0.75453
1708.70811	0.78035
1706.77954	0.80957
1704.85098	0.84435
1702.92241	0.87535
1700.99385	0.90610
1699.06528	0.95222
1697.13672	0.99516
1695.20815	1.03921
1693.27959	1.08183
1691.35103	1.11629
1689.42246	1.15607
1687.49390	1.19796
1685.56533	1.23821
1683.63677	1.29998
1681.70820	1.36444
1679.77964	1.40622
1677.85107	1.44565
1675.92251	1.49062
1673.99395	1.54667
1672.06538	1.59682
1670.13682	1.64558
1668.20825	1.70917
1666.27969	1.76169
1664.35112	1.80622
1662.42256	1.86151
1660.49399	1.92335
1658.56543	1.97155
1656.63687	2.01032
1654.70830	2.04503
1652.77974	2.09963
1650.85117	2.15426
1648.92261	2.17565
1646.99404	2.20105
1645.06548	2.22820
1643.13691	2.24545
1641.20835	2.25513
1639.27979	2.26450
1637.35122	2.27119
1635.42266	2.27096
1633.49409	2.26175
1631.56553	2.24667
1629.63696	2.22828
1627.70840	2.20010
1625.77983	2.16971
1623.85127	2.13206
1621.92271	2.08290
1619.99414	2.03722
1618.06558	1.99264
1616.13701	1.93012
1614.20845	1.86692
1612.27988	1.81892
1610.35132	1.76892
1608.42275	1.71461
1606.49419	1.66152
1604.56562	1.61320
1602.63706	1.56607
1600.70850	1.51953
1598.77993	1.47698
1596.85137	1.43673
1594.92280	1.39666
1592.99424	1.35771
1591.06567	1.32243
1589.13711	1.28960
1587.20854	1.25861
1585.27998	1.22953
1583.35142	1.20249
1581.42285	1.17800
1579.49429	1.15708
1577.56572	1.13827
1575.63716	1.11526
1573.70859	1.09485
1571.78003	1.08168
1569.85146	1.06843
1567.92290	1.05404
1565.99434	1.04321
1564.06577	1.03490
1562.13721	1.02858
1560.20864	1.02419
1558.28008	1.01863
1556.35151	1.01436
1554.42295	1.01205
1552.49438	1.00954
1550.56582	1.00588
1548.63726	1.00056
1546.70869	0.99392
1544.78013	0.98521
1542.85156	0.97388
1540.92300	0.95848
1538.99443	0.93595
1537.06587	0.91921
1535.13730	0.90739
1533.20874	0.89199
1531.28018	0.87568
1529.35161	0.86362
1527.42305	0.85228
1525.49448	0.84091
1523.56592	0.83133
1521.63735	0.82189
1519.70879	0.81200
1517.78022	0.80346
1515.85166	0.79387
1513.92310	0.78413
1511.99453	0.77570
1510.06597	0.76790
1508.13740	0.76015
1506.20884	0.74881
1504.28027	0.73920
1502.35171	0.73368
1500.42314	0.72872
1498.49458	0.72336
1496.56602	0.71726
1494.63745	0.71140
1492.70889	0.70682
1490.78032	0.70278
1488.85176	0.69830
1486.92319	0.69415
1484.99463	0.69075
1483.06606	0.68794
1481.13750	0.68568
1479.20894	0.68408
1477.28037	0.68317
1475.35181	0.68258
1473.42324	0.68202
1471.49468	0.68086
1469.56611	0.67902
1467.63755	0.67714
1465.70898	0.67530
1463.78042	0.67334
1461.85186	0.67166
1459.92329	0.67055
1457.99473	0.66950
1456.06616	0.66764
1454.13760	0.66521
1452.20903	0.66281
1450.28047	0.66025
1448.35190	0.65767
1446.42334	0.65510
1444.49478	0.65255
1442.56621	0.65010
1440.63765	0.64768
1438.70908	0.64512
1436.78052	0.64194
1434.85195	0.63848
1432.92339	0.63586
1430.99482	0.63396
1429.06626	0.63253
1427.13770	0.63161
1425.20913	0.63116
1423.28057	0.63083
1421.35200	0.63022
1419.42344	0.62960
1417.49487	0.62902
1415.56631	0.62802
1413.63774	0.62711
1411.70918	0.62669
1409.78062	0.62667
1407.85205	0.62683
1405.92349	0.62725
1403.99492	0.62776
1402.06636	0.62757
1400.13779	0.62660
1398.20923	0.62513
1396.28066	0.62321
1394.35210	0.62054
1392.42354	0.61736
1390.49497	0.61429
1388.56641	0.61128
1386.63784	0.60790
1384.70928	0.60426
1382.78071	0.60088
1380.85215	0.59780
1378.92358	0.59506
1376.99502	0.59289
1375.06646	0.59132
1373.13789	0.59009
1371.20933	0.58903
1369.28076	0.58813
1367.35220	0.58707
1365.42363	0.58570
1363.49507	0.58431
1361.56650	0.58298
1359.63794	0.58163
1357.70937	0.58036
1355.78081	0.57926
1353.85225	0.57837
1351.92368	0.57750
1349.99512	0.57650
1348.06655	0.57553
1346.13799	0.57462
1344.20942	0.57370
1342.28086	0.57281
1340.35229	0.57207
1338.42373	0.57136
1336.49517	0.57061
1334.56660	0.57000
1332.63804	0.56953
1330.70947	0.56923
1328.78091	0.56921
1326.85234	0.56931
1324.92378	0.56932
1322.99521	0.56935
1321.06665	0.56949
1319.13809	0.56964
1317.20952	0.56948
1315.28096	0.56898
1313.35239	0.56840
1311.42383	0.56786
1309.49526	0.56729
1307.56670	0.56672
1305.63813	0.56624
1303.70957	0.56580
1301.78101	0.56519
1299.85244	0.56435
1297.92388	0.56341
1295.99531	0.56244
1294.06675	0.56150
1292.13818	0.56052
1290.20962	0.55952
1288.28105	0.55853
1286.35249	0.55747
1284.42393	0.55642
1282.49536	0.55543
1280.56680	0.55448
1278.63823	0.55343
1276.70967	0.55241
1274.78110	0.55158
1272.85254	0.55085
1270.92397	0.55021
1268.99541	0.54969
1267.06685	0.54918
1265.13828	0.54855
1263.20972	0.54778
1261.28115	0.54699
1259.35259	0.54634
1257.42402	0.54574
1255.49546	0.54522
1253.56689	0.54487
1251.63833	0.54466
1249.70977	0.54458
1247.78120	0.54469
1245.85264	0.54478
1243.92407	0.54445
1241.99551	0.54362
1240.06694	0.54250
1238.13838	0.54118
1236.20981	0.53959
1234.28125	0.53789
1232.35269	0.53630
1230.42412	0.53474
1228.49556	0.53316
1226.56699	0.53167
1224.63843	0.53035
1222.70986	0.52913
1220.78130	0.52795
1218.85273	0.52671
1216.92417	0.52546
1214.99561	0.52436
1213.06704	0.52346
1211.13848	0.52281
1209.20991	0.52228
1207.28135	0.52158
1205.35278	0.52068
1203.42422	0.51987
1201.49565	0.51926
1199.56709	0.51864
1197.63853	0.51797
1195.70996	0.51732
1193.78140	0.51676
1191.85283	0.51629
1189.92427	0.51590
1187.99570	0.51557
1186.06714	0.51542
1184.13857	0.51555
1182.21001	0.51589
1180.28145	0.51643
1178.35288	0.51725
1176.42432	0.51834
1174.49575	0.51947
1172.56719	0.52035
1170.63862	0.52080
1168.71006	0.52101
1166.78149	0.52125
1164.85293	0.52161
1162.92437	0.52205
1160.99580	0.52240
1159.06724	0.52253
1157.13867	0.52230
1155.21011	0.52155
1153.28154	0.52021
1151.35298	0.51852
1149.42441	0.51661
1147.49585	0.51433
1145.56729	0.51167
1143.63872	0.50899
1141.71016	0.50650
1139.78159	0.50419
1137.85303	0.50217
1135.92446	0.50051
1133.99590	0.49927
1132.06733	0.49852
1130.13877	0.49793
1128.21021	0.49713
1126.28164	0.49610
1124.35308	0.49510
1122.42451	0.49436
1120.49595	0.49402
1118.56738	0.49413
1116.63882	0.49443
1114.71025	0.49478
1112.78169	0.49528
1110.85312	0.49606
1108.92456	0.49712
1106.99600	0.49805
1105.06743	0.49867
1103.13887	0.49959
1101.21030	0.50104
1099.28174	0.50265
1097.35317	0.50444
1095.42461	0.50696
1093.49604	0.51060
1091.56748	0.51535
1089.63892	0.52128
1087.71035	0.52839
1085.78179	0.53616
1083.85322	0.54388
1081.92466	0.55088
1079.99609	0.55624
1078.06753	0.55912
1076.13896	0.55939
1074.21040	0.55739
1072.28184	0.55306
1070.35327	0.54649
1068.42471	0.53889
1066.49614	0.53183
1064.56758	0.52579
1062.63901	0.52033
1060.71045	0.51531
1058.78188	0.51088
1056.85332	0.50688
1054.92476	0.50317
1052.99619	0.50000
1051.06763	0.49754
1049.13906	0.49569
1047.21050	0.49429
1045.28193	0.49333
1043.35337	0.49281
1041.42480	0.49256
1039.49624	0.49240
1037.56768	0.49245
1035.63911	0.49262
1033.71055	0.49241
1031.78198	0.49171
1029.85342	0.49082
1027.92485	0.48974
1025.99629	0.48865
1024.06772	0.48810
1022.13916	0.48809
1020.21060	0.48802
1018.28203	0.48781
1016.35347	0.48780
1014.42490	0.48803
1012.49634	0.48834
1010.56777	0.48872
1008.63921	0.48930
1006.71064	0.49009
1004.78208	0.49115
1002.85352	0.49288
1000.92495	0.49556
998.99639	0.49901
997.06782	0.50309
995.13926	0.50762
993.21069	0.51189
991.28213	0.51517
989.35356	0.51714
987.42500	0.51798
985.49644	0.51823
983.56787	0.51837
981.63931	0.51874
979.71074	0.51969
977.78218	0.52146
975.85361	0.52386
973.92505	0.52660
971.99648	0.52962
970.06792	0.53293
968.13936	0.53646
966.21079	0.54026
964.28223	0.54459
962.35366	0.54950
960.42510	0.55469
958.49653	0.56003
956.56797	0.56567
954.63940	0.57154
952.71084	0.57765
950.78228	0.58404
948.85371	0.59053
946.92515	0.59699
944.99658	0.60330
943.06802	0.60940
941.13945	0.61527
939.21089	0.62097
937.28232	0.62661
935.35376	0.63236
933.42520	0.63841
931.49663	0.64427
929.56807	0.64992
927.63950	0.65612
925.71094	0.66313
923.78237	0.67046
921.85381	0.67727
919.92524	0.68344
917.99668	0.68946
916.06812	0.69561
914.13955	0.70240
912.21099	0.71025
910.28242	0.71918
908.35386	0.72829
906.42529	0.73655
904.49673	0.74490
902.56816	0.75384
900.63960	0.76250
898.71104	0.77210
896.78247	0.78395
894.85391	0.79593
892.92534	0.80642
890.99678	0.81695
889.06821	0.82809
887.13965	0.83829
885.21108	0.84802
883.28252	0.85923
881.35396	0.87161
879.42539	0.88417
877.49683	0.89653
875.56826	0.90827
873.63970	0.91883
871.71113	0.92817
869.78257	0.93778
867.85400	0.94875
865.92544	0.96008
863.99687	0.97029
862.06831	0.98121
860.13975	0.99529
858.21118	1.01018
856.28262	1.02285
854.35405	1.03503
852.42549	1.04755
850.49692	1.05812
848.56836	1.06817
846.63979	1.07893
844.71123	1.08908
842.78267	1.10155
840.85410	1.11774
838.92554	1.13328
836.99697	1.14529
835.06841	1.15682
833.13984	1.17207
831.21128	1.18609
829.28271	1.19326
827.35415	1.19869
825.42559	1.20531
823.49702	1.21486
821.56846	1.22967
819.63989	1.24188
817.71133	1.24717
815.78276	1.26047
813.85420	1.28663
811.92563	1.30447
809.99707	1.30580
808.06851	1.30333
806.13994	1.30296
804.21138	1.30235
802.28281	1.29853
800.35425	1.29065
798.42568	1.29162
796.49712	1.31948
794.56855	1.36480
792.63999	1.39847
790.71143	1.40659
788.78286	1.40863
786.85430	1.46279
784.92573	1.59865
782.99717	1.69898
781.06860	1.69436
779.14004	1.70071
777.21147	1.62971
775.28291	1.46493
773.35435	1.34978
771.42578	1.33297
769.49722	1.39750
767.56865	1.47531
765.64009	1.47690
763.71152	1.47565
761.78296	1.52683
759.85439	1.48455
757.92583	1.37645
755.99727	1.34707
754.06870	1.35373
752.14014	1.34874
750.21157	1.41822
748.28301	1.40447
746.35444	1.19516
744.42588	1.12640
742.49731	1.35759
740.56875	1.56540
738.64019	1.02119
736.71162	0.82067
734.78306	0.78465
732.85449	0.66445
730.92593	0.47721
728.99736	0.33578
727.06880	0.26077
725.14023	0.25749
723.21167	0.15075
721.28311	4.32770
719.35454	-0.44346
717.42598	0.09431
715.49741	0.28469
713.56885	0.33507
711.64028	0.49173
709.71172	0.69273
707.78315	0.56825
705.85459	0.48154
703.92603	0.47483
701.99746	0.43896
700.06890	0.35915
698.14033	0.33516
696.21177	0.41976
694.28320	0.64520
692.35464	0.78709
690.42607	0.67486
688.49751	0.76285
686.56895	0.92283
684.64038	0.66549
682.71182	0.51028
680.78325	0.52916
678.85469	0.54733
676.92612	0.51672
674.99756	0.54312
673.06899	0.54154
671.14043	0.53561
669.21187	0.62693
667.28330	0.67022
665.35474	0.57863
663.42617	0.59671
661.49761	0.69978
659.56904	0.59946
657.64048	0.42645
655.71191	0.41865
653.78335	0.56829
651.85479	0.59311
649.92622	0.45569
647.99766	0.43936
646.06909	0.53215
644.14053	0.62522
642.21196	0.60690
640.28340	0.54090
638.35483	0.50359
636.42627	0.51075
634.49771	0.52200
632.56914	0.54333
630.64058	0.62211
628.71201	0.57923
626.78345	0.44335
624.85488	0.45655
622.92632	0.66784
620.99775	1.02159
619.06919	0.74602
617.14062	0.52238
615.21206	0.42431
613.28350	0.41065
611.35493	0.42530
609.42637	0.47069
607.49780	0.66111
605.56924	0.88936
603.64067	0.71486
601.71211	0.66542
599.78354	0.89583
597.85498	3.58713
595.92642	1.04694
593.99785	0.66630
592.06929	0.56291
590.14072	0.47122
588.21216	0.44518
586.28359	0.54657
584.35503	0.54674
582.42646	0.36444
580.49790	0.23500
578.56934	0.17862
576.64077	0.21376
574.71221	0.30982
572.78364	0.37692
570.85508	0.41952
568.92651	0.48938
566.99795	0.56155
565.06938	0.54911
563.14082	0.47082
561.21226	0.42828
559.28369	0.43984
557.35513	0.46182
555.42656	0.45564
553.49800	0.43389
551.56943	0.40217
549.64087	0.35998
547.71230	0.33620
545.78374	0.31419
543.85518	0.26214
541.92661	0.23538
539.99805	0.27512
538.06948	0.34455
536.14092	0.44822
534.21235	0.57926
532.28379	0.56387
530.35522	0.52336
528.42666	0.54390
526.49810	0.58344
524.56953	0.60514
522.64097	0.46761
520.71240	0.35199
518.78384	0.37356
516.85527	0.75596
514.92671	3.08956
512.99814	3.07799
511.06958	0.67370
509.14102	0.39014
507.21245	0.34446
505.28389	0.36943
503.35532	0.34530
501.42676	0.30650
499.49819	0.31947
