3997.91411	0.07721
3995.98555	0.07697
3994.05698	0.07624
3992.12842	0.07604
3990.19985	0.07623
3988.27129	0.07643
3986.34272	0.07683
3984.41416	0.07742
3982.48560	0.07796
3980.55703	0.07836
3978.62847	0.07871
3976.69990	0.07904
3974.77134	0.07919
3972.84277	0.07935
3970.91421	0.07950
3968.98564	0.07937
3967.05708	0.07913
3965.12852	0.07916
3963.19995	0.07961
3961.27139	0.08010
3959.34282	0.08030
3957.41426	0.08040
3955.48569	0.08051
3953.55713	0.08039
3951.62856	0.08031
3949.70000	0.08062
3947.77144	0.08085
3945.84287	0.08058
3943.91431	0.08044
3941.98574	0.08070
3940.05718	0.08050
3938.12861	0.07980
3936.20005	0.07945
3934.27148	0.07981
3932.34292	0.08063
3930.41436	0.08118
3928.48579	0.08105
3926.55723	0.08068
3924.62866	0.08043
3922.70010	0.08002
3920.77153	0.07961
3918.84297	0.07972
3916.91440	0.08002
3914.98584	0.07983
3913.05728	0.07939
3911.12871	0.07943
3909.20015	0.07980
3907.27158	0.07982
3905.34302	0.07971
3903.41445	0.08023
3901.48589	0.08099
3899.55732	0.08134
3897.62876	0.08130
3895.70020	0.08060
3893.77163	0.07971
3891.84307	0.07941
3889.91450	0.07948
3887.98594	0.07939
3886.05737	0.07999
3884.12881	0.08119
3882.20024	0.08168
3880.27168	0.08157
3878.34312	0.08091
3876.41455	0.08000
3874.48599	0.08006
3872.55742	0.08106
3870.62886	0.08187
3868.70029	0.08208
3866.77173	0.08171
3864.84316	0.08174
3862.91460	0.08272
3860.98604	0.08334
3859.05747	0.08317
3857.12891	0.08306
3855.20034	0.08345
3853.27178	0.08483
3851.34321	0.08614
3849.41465	0.08553
3847.48608	0.08464
3845.55752	0.08451
3843.62896	0.08540
3841.70039	0.08676
3839.77183	0.08764
3837.84326	0.08845
3835.91470	0.08969
3833.98613	0.09057
3832.05757	0.09090
3830.12900	0.09122
3828.20044	0.09191
3826.27187	0.09279
3824.34331	0.09313
3822.41475	0.09325
3820.48618	0.09495
3818.55762	0.09659
3816.62905	0.09624
3814.70049	0.09655
3812.77192	0.09794
3810.84336	0.09897
3808.91479	0.09978
3806.98623	0.10098
3805.05767	0.10245
3803.12910	0.10362
3801.20054	0.10492
3799.27197	0.10599
3797.34341	0.10656
3795.41484	0.10770
3793.48628	0.10869
3791.55771	0.10890
3789.62915	0.10928
3787.70059	0.11050
3785.77202	0.11248
3783.84346	0.11463
3781.91489	0.11646
3779.98633	0.11818
3778.05776	0.11997
3776.12920	0.12109
3774.20063	0.12173
3772.27207	0.12280
3770.34351	0.12475
3768.41494	0.12711
3766.48638	0.12921
3764.55781	0.13141
3762.62925	0.13328
3760.70068	0.13493
3758.77212	0.13742
3756.84355	0.14031
3754.91499	0.14238
3752.98643	0.14428
3751.05786	0.14777
3749.12930	0.15265
3747.20073	0.15546
3745.27217	0.15722
3743.34360	0.16049
3741.41504	0.16351
3739.48647	0.16515
3737.55791	0.16721
3735.62935	0.17098
3733.70078	0.17630
3731.77222	0.18106
3729.84365	0.18477
3727.91509	0.18829
3725.98652	0.19292
3724.05796	0.19934
3722.12939	0.20710
3720.20083	0.21522
3718.27227	0.22268
3716.34370	0.23000
3714.41514	0.23757
3712.48657	0.24617
3710.55801	0.25789
3708.62944	0.27131
3706.70088	0.28313
3704.77231	0.29417
3702.84375	0.30652
3700.91519	0.32256
3698.98662	0.34060
3697.05806	0.35787
3695.12949	0.37607
3693.20093	0.39544
3691.27236	0.41625
3689.34380	0.44307
3687.41523	0.47713
3685.48667	0.50776
3683.55811	0.53370
3681.62954	0.56107
3679.70098	0.59207
3677.77241	0.62494
3675.84385	0.66349
3673.91528	0.71489
3671.98672	0.75755
3670.05815	0.79596
3668.12959	0.84821
3666.20103	0.89577
3664.27246	0.93539
3662.34390	0.97784
3660.41533	1.02396
3658.48677	1.06973
3656.55820	1.11847
3654.62964	1.17257
3652.70107	1.21764
3650.77251	1.25625
3648.84395	1.31002
3646.91538	1.37743
3644.98682	1.42756
3643.05825	1.46642
3641.12969	1.50611
3639.20112	1.54915
3637.27256	1.59230
3635.34399	1.63449
3633.41543	1.67653
3631.48687	1.71593
3629.55830	1.75620
3627.62974	1.80933
3625.70117	1.85969
3623.77261	1.89387
3621.84404	1.92605
3619.91548	1.96327
3617.98691	2.00970
3616.05835	2.05500
3614.12979	2.09225
3612.20122	2.13156
3610.27266	2.17103
3608.34409	2.21020
3606.41553	2.25309
3604.48696	2.29273
3602.55840	2.32657
3600.62983	2.36317
3598.70127	2.40472
3596.77271	2.44600
3594.84414	2.48667
3592.91558	2.52811
3590.98701	2.56746
3589.05845	2.60498
3587.12988	2.65057
3585.20132	2.69996
3583.27275	2.74048
3581.34419	2.77720
3579.41562	2.81702
3577.48706	2.86104
3575.55850	2.90542
3573.62993	2.94834
3571.70137	2.98965
3569.77280	3.02979
3567.84424	3.07286
3565.91567	3.12633
3563.98711	3.17808
3562.05854	3.21848
3560.12998	3.25721
3558.20142	3.29979
3556.27285	3.34584
3554.34429	3.39122
3552.41572	3.43769
3550.48716	3.48694
3548.55859	3.53616
3546.63003	3.58561
3544.70146	3.63508
3542.77290	3.67967
3540.84434	3.72172
3538.91577	3.76792
3536.98721	3.81703
3535.05864	3.86641
3533.13008	3.91410
3531.20151	3.96162
3529.27295	4.01201
3527.34438	4.06211
3525.41582	4.10629
3523.48726	4.15098
3521.55869	4.20445
3519.63013	4.25792
3517.70156	4.30595
3515.77300	4.35504
3513.84443	4.40585
3511.91587	4.45291
3509.98730	4.49678
3508.05874	4.53989
3506.13018	4.58185
3504.20161	4.62362
3502.27305	4.67182
3500.34448	4.73157
3498.41592	4.78988
3496.48735	4.83725
3494.55879	4.88374
3492.63022	4.93468
3490.70166	4.98672
3488.77310	5.03887
3486.84453	5.08862
3484.91597	5.13812
3482.98740	5.18708
3481.05884	5.22976
3479.13027	5.27086
3477.20171	5.31870
3475.27314	5.37290
3473.34458	5.42535
3471.41602	5.46537
3469.48745	5.49978
3467.55889	5.54283
3465.63032	5.59763
3463.70176	5.66953
3461.77319	5.73835
3459.84463	5.77889
3457.91606	5.81193
3455.98750	5.86085
3454.05894	5.92159
3452.13037	5.97896
3450.20181	6.03066
3448.27324	6.08331
3446.34468	6.13282
3444.41611	6.17817
3442.48755	6.22878
3440.55898	6.28255
3438.63042	6.34165
3436.70186	6.40675
3434.77329	6.46537
3432.84473	6.51592
3430.91616	6.56482
3428.98760	6.61031
3427.05903	6.65715
3425.13047	6.72580
3423.20190	6.78848
3421.27334	6.81013
3419.34478	6.81549
3417.41621	6.83392
3415.48765	6.87152
3413.55908	6.94357
3411.63052	7.03578
3409.70195	7.08561
3407.77339	7.10388
3405.84482	7.12035
3403.91626	7.13935
3401.98770	7.15920
3400.05913	7.16762
3398.13057	7.18796
3396.20200	7.23877
3394.27344	7.30771
3392.34487	7.37584
3390.41631	7.42564
3388.48774	7.44327
3386.55918	7.47707
3384.63062	7.55812
3382.70205	7.64014
3380.77349	7.68154
3378.84492	7.72275
3376.91636	7.80577
3374.98779	7.85821
3373.05923	7.83123
3371.13066	7.76196
3369.20210	7.73201
3367.27354	7.78361
3365.34497	7.87909
3363.41641	7.94528
3361.48784	7.96741
3359.55928	7.98154
3357.63071	7.96002
3355.70215	7.92311
3353.77358	7.91542
3351.84502	7.93263
3349.91646	7.95808
3347.98789	8.00241
3346.05933	8.04813
3344.13076	8.07659
3342.20220	8.13386
3340.27363	8.19872
3338.34507	8.22018
3336.41650	8.17591
3334.48794	8.05829
3332.55937	7.94412
3330.63081	7.95001
3328.70225	8.05992
3326.77368	8.16344
3324.84512	8.21503
3322.91655	8.24287
3320.98799	8.23791
3319.05942	8.14374
3317.13086	8.02858
3315.20229	7.99186
3313.27373	8.07692
3311.34517	8.21838
3309.41660	8.29670
3307.48804	8.32235
3305.55947	8.36032
3303.63091	8.37366
3301.70234	8.30745
3299.77378	8.26705
3297.84521	8.26986
3295.91665	8.27733
3293.98809	8.28881
3292.05952	8.27392
3290.13096	8.25623
3288.20239	8.25053
3286.27383	8.26712
3284.34526	8.27931
3282.41670	8.25166
3280.48813	8.23401
3278.55957	8.27452
3276.63101	8.33402
3274.70244	8.35726
3272.77388	8.33290
3270.84531	8.27292
3268.91675	8.23419
3266.98818	8.24574
3265.05962	8.28042
3263.13105	8.30308
3261.20249	8.32735
3259.27393	8.34043
3257.34536	8.30039
3255.41680	8.26417
3253.48823	8.28829
3251.55967	8.36646
3249.63110	8.47421
3247.70254	8.53351
3245.77397	8.49139
3243.84541	8.42820
3241.91685	8.44031
3239.98828	8.49876
3238.05972	8.45738
3236.13115	8.37576
3234.20259	8.40410
3232.27402	8.43087
3230.34546	8.34520
3228.41689	8.22047
3226.48833	8.12612
3224.55977	8.13958
3222.63120	8.23577
3220.70264	8.25496
3218.77407	8.17099
3216.84551	8.05945
3214.91694	7.99258
3212.98838	8.02144
3211.05981	8.07844
3209.13125	8.06697
3207.20269	8.02310
3205.27412	7.98637
3203.34556	7.93936
3201.41699	7.91679
3199.48843	7.89721
3197.55986	7.84382
3195.63130	7.81433
3193.70273	7.78065
3191.77417	7.67210
3189.84561	7.58036
3187.91704	7.57034
3185.98848	7.56181
3184.05991	7.51226
3182.13135	7.43882
3180.20278	7.37674
3178.27422	7.35602
3176.34565	7.33153
3174.41709	7.27120
3172.48853	7.20591
3170.55996	7.13246
3168.63140	7.03355
3166.70283	6.95649
3164.77427	6.92204
3162.84570	6.88427
3160.91714	6.83353
3158.98857	6.77628
3157.06001	6.70321
3155.13145	6.63043
3153.20288	6.56198
3151.27432	6.48993
3149.34575	6.42263
3147.41719	6.36346
3145.48862	6.30228
3143.56006	6.22659
3141.63149	6.13644
3139.70293	6.04560
3137.77437	5.96921
3135.84580	5.91061
3133.91724	5.85591
3131.98867	5.78754
3130.06011	5.70968
3128.13154	5.62970
3126.20298	5.54364
3124.27441	5.46110
3122.34585	5.39340
3120.41729	5.33775
3118.48872	5.27939
3116.56016	5.20761
3114.63159	5.12912
3112.70303	5.05362
3110.77446	4.98636
3108.84590	4.92461
3106.91733	4.85991
3104.98877	4.79114
3103.06021	4.72043
3101.13164	4.64875
3099.20308	4.58136
3097.27451	4.51738
3095.34595	4.45088
3093.41738	4.38491
3091.48882	4.32336
3089.56025	4.26221
3087.63169	4.19742
3085.70312	4.13154
3083.77456	4.06721
3081.84600	4.00405
3079.91743	3.94215
3077.98887	3.88106
3076.06030	3.81997
3074.13174	3.76005
3072.20317	3.70255
3070.27461	3.64558
3068.34604	3.58755
3066.41748	3.52991
3064.48892	3.47388
3062.56035	3.41904
3060.63179	3.36399
3058.70322	3.30834
3056.77466	3.25329
3054.84609	3.19940
3052.91753	3.14827
3050.98896	3.10019
3049.06040	3.05108
3047.13184	2.99894
3045.20327	2.94608
3043.27471	2.89544
3041.34614	2.84797
3039.41758	2.80135
3037.48901	2.75313
3035.56045	2.70453
3033.63188	2.65769
3031.70332	2.61267
3029.77476	2.56892
3027.84619	2.52607
3025.91763	2.48324
3023.98906	2.44007
3022.06050	2.39724
3020.13193	2.35494
3018.20337	2.31346
3016.27480	2.27290
3014.34624	2.23276
3012.41768	2.19383
3010.48911	2.15667
3008.56055	2.12033
3006.63198	2.08413
3004.70342	2.04782
3002.77485	2.01181
3000.84629	1.97694
2998.91772	1.94295
2996.98916	1.90943
2995.06060	1.87684
2993.13203	1.84520
2991.20347	1.81449
2989.27490	1.78489
2987.34634	1.75614
2985.41777	1.72783
2983.48921	1.69988
2981.56064	1.67247
2979.63208	1.64576
2977.70352	1.61974
2975.77495	1.59424
2973.84639	1.56926
2971.91782	1.54512
2969.98926	1.52166
2968.06069	1.49828
2966.13213	1.47470
2964.20356	1.45108
2962.27500	1.42756
2960.34644	1.40414
2958.41787	1.38034
2956.48931	1.35592
2954.56074	1.33164
2952.63218	1.30806
2950.70361	1.28492
2948.77505	1.26199
2946.84648	1.23967
2944.91792	1.21841
2942.98936	1.19799
2941.06079	1.17805
2939.13223	1.15825
2937.20366	1.13807
2935.27510	1.11745
2933.34653	1.09676
2931.41797	1.07652
2929.48940	1.05695
2927.56084	1.03764
2925.63228	1.01854
2923.70371	1.00003
2921.77515	0.98198
2919.84658	0.96482
2917.91802	0.94850
2915.98945	0.93189
2914.06089	0.91486
2912.13232	0.89788
2910.20376	0.88149
2908.27520	0.86603
2906.34663	0.85100
2904.41807	0.83605
2902.48950	0.82147
2900.56094	0.80713
2898.63237	0.79308
2896.70381	0.77978
2894.77524	0.76712
2892.84668	0.75447
2890.91812	0.74173
2888.98955	0.72960
2887.06099	0.71867
2885.13242	0.70873
2883.20386	0.69902
2881.27529	0.68908
2879.34673	0.67902
2877.41816	0.66929
2875.48960	0.66000
2873.56104	0.65033
2871.63247	0.63954
2869.70391	0.62807
2867.77534	0.61642
2865.84678	0.60456
2863.91821	0.59262
2861.98965	0.58088
2860.06108	0.56954
2858.13252	0.55872
2856.20396	0.54862
2854.27539	0.53916
2852.34683	0.52984
2850.41826	0.52093
2848.48970	0.51287
2846.56113	0.50520
2844.63257	0.49765
2842.70400	0.49048
2840.77544	0.48350
2838.84687	0.47647
2836.91831	0.46978
2834.98975	0.46371
2833.06118	0.45787
2831.13262	0.45182
2829.20405	0.44565
2827.27549	0.43946
2825.34692	0.43336
2823.41836	0.42742
2821.48979	0.42132
2819.56123	0.41501
2817.63267	0.40907
2815.70410	0.40371
2813.77554	0.39844
2811.84697	0.39303
2809.91841	0.38775
2807.98984	0.38245
2806.06128	0.37690
2804.13271	0.37127
2802.20415	0.36594
2800.27559	0.36111
2798.34702	0.35644
2796.41846	0.35160
2794.48989	0.34665
2792.56133	0.34179
2790.63276	0.33713
2788.70420	0.33262
2786.77563	0.32801
2784.84707	0.32337
2782.91851	0.31908
2780.98994	0.31518
2779.06138	0.31133
2777.13281	0.30742
2775.20425	0.30354
2773.27568	0.29974
2771.34712	0.29596
2769.41855	0.29223
2767.48999	0.28862
2765.56143	0.28500
2763.63286	0.28128
2761.70430	0.27767
2759.77573	0.27426
2757.84717	0.27103
2755.91860	0.26788
2753.99004	0.26470
2752.06147	0.26159
2750.13291	0.25855
2748.20435	0.25553
2746.27578	0.25253
2744.34722	0.24960
2742.41865	0.24681
2740.49009	0.24425
2738.56152	0.24172
2736.63296	0.23906
2734.70439	0.23637
2732.77583	0.23383
2730.84727	0.23153
2728.91870	0.22939
2726.99014	0.22727
2725.06157	0.22504
2723.13301	0.22270
2721.20444	0.22040
2719.27588	0.21824
2717.34731	0.21618
2715.41875	0.21425
2713.49019	0.21241
2711.56162	0.21047
2709.63306	0.20860
2707.70449	0.20687
2705.77593	0.20515
2703.84736	0.20362
2701.91880	0.20231
2699.99023	0.20092
2698.06167	0.19929
2696.13311	0.19769
2694.20454	0.19631
2692.27598	0.19500
2690.34741	0.19368
2688.41885	0.19240
2686.49028	0.19116
2684.56172	0.18990
2682.63315	0.18859
2680.70459	0.18726
2678.77603	0.18598
2676.84746	0.18474
2674.91890	0.18356
2672.99033	0.18252
2671.06177	0.18158
2669.13320	0.18068
2667.20464	0.17982
2665.27607	0.17889
2663.34751	0.17791
2661.41895	0.17705
2659.49038	0.17631
2657.56182	0.17553
2655.63325	0.17465
2653.70469	0.17365
2651.77612	0.17268
2649.84756	0.17189
2647.91899	0.17121
2645.99043	0.17053
2644.06187	0.16992
2642.13330	0.16944
2640.20474	0.16901
2638.27617	0.16849
2636.34761	0.16785
2634.41904	0.16725
2632.49048	0.16677
2630.56191	0.16628
2628.63335	0.16574
2626.70479	0.16528
2624.77622	0.16488
2622.84766	0.16447
2620.91909	0.16405
2618.99053	0.16375
2617.06196	0.16366
2615.13340	0.16370
2613.20483	0.16361
2611.27627	0.16328
2609.34771	0.16293
2607.41914	0.16268
2605.49058	0.16253
2603.56201	0.16248
2601.63345	0.16245
2599.70488	0.16246
2597.77632	0.16253
2595.84775	0.16259
2593.91919	0.16258
2591.99062	0.16252
2590.06206	0.16251
2588.13350	0.16267
2586.20493	0.16285
2584.27637	0.16290
2582.34780	0.16295
2580.41924	0.16315
2578.49067	0.16337
2576.56211	0.16358
2574.63354	0.16389
2572.70498	0.16420
2570.77642	0.16447
2568.84785	0.16486
2566.91929	0.16535
2564.99072	0.16574
2563.06216	0.16598
2561.13359	0.16621
2559.20503	0.16659
2557.27646	0.16705
2555.34790	0.16744
2553.41934	0.16783
2551.49077	0.16829
2549.56221	0.16882
2547.63364	0.16940
2545.70508	0.16993
2543.77651	0.17049
2541.84795	0.17120
2539.91938	0.17183
2537.99082	0.17225
2536.06226	0.17273
2534.13369	0.17341
2532.20513	0.17418
2530.27656	0.17490
2528.34800	0.17541
2526.41943	0.17578
2524.49087	0.17632
2522.56230	0.17712
2520.63374	0.17800
2518.70518	0.17875
2516.77661	0.17939
2514.84805	0.18010
2512.91948	0.18092
2510.99092	0.18164
2509.06235	0.18227
2507.13379	0.18300
2505.20522	0.18380
2503.27666	0.18452
2501.34810	0.18523
2499.41953	0.18604
2497.49097	0.18697
2495.56240	0.18795
2493.63384	0.18877
2491.70527	0.18941
2489.77671	0.19017
2487.84814	0.19108
2485.91958	0.19195
2483.99102	0.19280
2482.06245	0.19365
2480.13389	0.19444
2478.20532	0.19526
2476.27676	0.19615
2474.34819	0.19702
2472.41963	0.19786
2470.49106	0.19873
2468.56250	0.19966
2466.63394	0.20063
2464.70537	0.20150
2462.77681	0.20228
2460.84824	0.20310
2458.91968	0.20395
2456.99111	0.20482
2455.06255	0.20576
2453.13398	0.20679
2451.20542	0.20773
2449.27686	0.20853
2447.34829	0.20935
2445.41973	0.21021
2443.49116	0.21112
2441.56260	0.21205
2439.63403	0.21297
2437.70547	0.21397
2435.77690	0.21503
2433.84834	0.21602
2431.91978	0.21699
2429.99121	0.21797
2428.06265	0.21898
2426.13408	0.22011
2424.20552	0.22137
2422.27695	0.22256
2420.34839	0.22365
2418.41982	0.22480
2416.49126	0.22590
2414.56270	0.22689
2412.63413	0.22791
2410.70557	0.22895
2408.77700	0.23000
2406.84844	0.23105
2404.91987	0.23218
2402.99131	0.23342
2401.06274	0.23461
2399.13418	0.23569
2397.20562	0.23686
2395.27705	0.23810
2393.34849	0.23933
2391.41992	0.24053
2389.49136	0.24159
2387.56279	0.24251
2385.63423	0.24326
2383.70566	0.24368
2381.77710	0.24354
2379.84854	0.24282
2377.91997	0.24175
2375.99141	0.24041
2374.06284	0.23854
2372.13428	0.23621
2370.20571	0.23399
2368.27715	0.23191
2366.34858	0.22938
2364.42002	0.22689
2362.49146	0.22617
2360.56289	0.22710
2358.63433	0.22855
2356.70576	0.23193
2354.77720	0.23786
2352.84863	0.24462
2350.92007	0.25051
2348.99150	0.25394
2347.06294	0.25444
2345.13437	0.25250
2343.20581	0.25029
2341.27725	0.25076
2339.34868	0.25313
2337.42012	0.25597
2335.49155	0.25928
2333.56299	0.26201
2331.63442	0.26375
2329.70586	0.26547
2327.77729	0.26766
2325.84873	0.27020
2323.92017	0.27338
2321.99160	0.27715
2320.06304	0.28092
2318.13447	0.28437
2316.20591	0.28747
2314.27734	0.29027
2312.34878	0.29304
2310.42021	0.29585
2308.49165	0.29849
2306.56309	0.30112
2304.63452	0.30383
2302.70596	0.30627
2300.77739	0.30854
2298.84883	0.31090
2296.92026	0.31323
2294.99170	0.31548
2293.06313	0.31782
2291.13457	0.32019
2289.20601	0.32250
2287.27744	0.32486
2285.34888	0.32722
2283.42031	0.32932
2281.49175	0.33111
2279.56318	0.33289
2277.63462	0.33485
2275.70605	0.33687
2273.77749	0.33886
2271.84893	0.34092
2269.92036	0.34304
2267.99180	0.34517
2266.06323	0.34737
2264.13467	0.34956
2262.20610	0.35155
2260.27754	0.35361
2258.34897	0.35590
2256.42041	0.35818
2254.49185	0.36041
2252.56328	0.36268
2250.63472	0.36488
2248.70615	0.36705
2246.77759	0.36934
2244.84902	0.37157
2242.92046	0.37366
2240.99189	0.37581
2239.06333	0.37803
2237.13477	0.38037
2235.20620	0.38273
2233.27764	0.38490
2231.34907	0.38699
2229.42051	0.38921
2227.49194	0.39148
2225.56338	0.39369
2223.63481	0.39597
2221.70625	0.39830
2219.77769	0.40044
2217.84912	0.40247
2215.92056	0.40473
2213.99199	0.40709
2212.06343	0.40926
2210.13486	0.41126
2208.20630	0.41331
2206.27773	0.41547
2204.34917	0.41763
2202.42061	0.41959
2200.49204	0.42126
2198.56348	0.42292
2196.63491	0.42479
2194.70635	0.42685
2192.77778	0.42901
2190.84922	0.43106
2188.92065	0.43294
2186.99209	0.43473
2185.06353	0.43633
2183.13496	0.43780
2181.20640	0.43947
2179.27783	0.44121
2177.34927	0.44270
2175.42070	0.44417
2173.49214	0.44588
2171.56357	0.44748
2169.63501	0.44882
2167.70645	0.45000
2165.77788	0.45115
2163.84932	0.45234
2161.92075	0.45338
2159.99219	0.45431
2158.06362	0.45531
2156.13506	0.45633
2154.20649	0.45727
2152.27793	0.45805
2150.34937	0.45861
2148.42080	0.45911
2146.49224	0.45965
2144.56367	0.46014
2142.63511	0.46061
2140.70654	0.46099
2138.77798	0.46121
2136.84941	0.46126
2134.92085	0.46120
2132.99229	0.46108
2131.06372	0.46085
2129.13516	0.46053
2127.20659	0.46026
2125.27803	0.46006
2123.34946	0.45978
2121.42090	0.45934
2119.49233	0.45866
2117.56377	0.45783
2115.63521	0.45705
2113.70664	0.45627
2111.77808	0.45545
2109.84951	0.45453
2107.92095	0.45340
2105.99238	0.45220
2104.06382	0.45103
2102.13525	0.44974
2100.20669	0.44826
2098.27812	0.44672
2096.34956	0.44527
2094.42100	0.44379
2092.49243	0.44215
2090.56387	0.44042
2088.63530	0.43858
2086.70674	0.43673
2084.77817	0.43485
2082.84961	0.43287
2080.92104	0.43080
2078.99248	0.42871
2077.06392	0.42660
2075.13535	0.42440
2073.20679	0.42217
2071.27822	0.41999
2069.34966	0.41785
2067.42109	0.41563
2065.49253	0.41320
2063.56396	0.41059
2061.63540	0.40794
2059.70684	0.40531
2057.77827	0.40276
2055.84971	0.40039
2053.92114	0.39798
2051.99258	0.39527
2050.06401	0.39249
2048.13545	0.38985
2046.20688	0.38718
2044.27832	0.38454
2042.34976	0.38195
2040.42119	0.37924
2038.49263	0.37645
2036.56406	0.37370
2034.63550	0.37094
2032.70693	0.36818
2030.77837	0.36548
2028.84980	0.36266
2026.92124	0.35973
2024.99268	0.35683
2023.06411	0.35399
2021.13555	0.35119
2019.20698	0.34848
2017.27842	0.34580
2015.34985	0.34304
2013.42129	0.34027
2011.49272	0.33758
2009.56416	0.33493
2007.63560	0.33226
2005.70703	0.32957
2003.77847	0.32688
2001.84990	0.32424
1999.92134	0.32160
1997.99277	0.31895
1996.06421	0.31644
1994.13564	0.31409
1992.20708	0.31173
1990.27852	0.30921
1988.34995	0.30660
1986.42139	0.30402
1984.49282	0.30167
1982.56426	0.29953
1980.63569	0.29729
1978.70713	0.29490
1976.77856	0.29259
1974.85000	0.29045
1972.92144	0.28827
1970.99287	0.28603
1969.06431	0.28392
1967.13574	0.28196
1965.20718	0.27998
1963.27861	0.27801
1961.35005	0.27617
1959.42148	0.27448
1957.49292	0.27277
1955.56436	0.27095
1953.63579	0.26908
1951.70723	0.26723
1949.77866	0.26544
1947.85010	0.26383
1945.92153	0.26244
1943.99297	0.26113
1942.06440	0.25979
1940.13584	0.25840
1938.20728	0.25695
1936.27871	0.25549
1934.35015	0.25414
1932.42158	0.25296
1930.49302	0.25185
1928.56445	0.25076
1926.63589	0.24963
1924.70732	0.24856
1922.77876	0.24763
1920.85020	0.24677
1918.92163	0.24594
1916.99307	0.24507
1915.06450	0.24418
1913.13594	0.24332
1911.20737	0.24265
1909.27881	0.24203
1907.35024	0.24134
1905.42168	0.24063
1903.49312	0.24000
1901.56455	0.23937
1899.63599	0.23877
1897.70742	0.23833
1895.77886	0.23803
1893.85029	0.23781
1891.92173	0.23755
1889.99316	0.23738
1888.06460	0.23716
1886.13604	0.23682
1884.20747	0.23651
1882.27891	0.23634
1880.35034	0.23626
1878.42178	0.23618
1876.49321	0.23617
1874.56465	0.23617
1872.63608	0.23629
1870.70752	0.23659
1868.77896	0.23709
1866.85039	0.23738
1864.92183	0.23733
1862.99326	0.23738
1861.06470	0.23764
1859.13613	0.23801
1857.20757	0.23832
1855.27900	0.23873
1853.35044	0.23922
1851.42187	0.23976
1849.49331	0.24032
1847.56475	0.24095
1845.63618	0.24174
1843.70762	0.24275
1841.77905	0.24354
1839.85049	0.24403
1837.92192	0.24481
1835.99336	0.24571
1834.06479	0.24661
1832.13623	0.24761
1830.20767	0.24907
1828.27910	0.25060
1826.35054	0.25160
1824.42197	0.25286
1822.49341	0.25429
1820.56484	0.25555
1818.63628	0.25679
1816.70771	0.25833
1814.77915	0.25998
1812.85059	0.26165
1810.92202	0.26363
1808.99346	0.26582
1807.06489	0.26788
1805.13633	0.26977
1803.20776	0.27191
1801.27920	0.27436
1799.35063	0.27719
1797.42207	0.27985
1795.49351	0.28223
1793.56494	0.28478
1791.63638	0.28822
1789.70781	0.29176
1787.77925	0.29444
1785.85068	0.29753
1783.92212	0.30120
1781.99355	0.30512
1780.06499	0.30924
1778.13643	0.31352
1776.20786	0.31748
1774.27930	0.32164
1772.35073	0.32738
1770.42217	0.33372
1768.49360	0.33907
1766.56504	0.34419
1764.63647	0.34948
1762.70791	0.35531
1760.77935	0.36264
1758.85078	0.36953
1756.92222	0.37651
1754.99365	0.38421
1753.06509	0.39125
1751.13652	0.39957
1749.20796	0.41003
1747.27939	0.42047
1745.35083	0.42970
1743.42227	0.43938
1741.49370	0.45000
1739.56514	0.46258
1737.63657	0.47519
1735.70801	0.48609
1733.77944	0.50240
1731.85088	0.52191
1729.92231	0.53723
1727.99375	0.55284
1726.06519	0.56983
1724.13662	0.58828
1722.20806	0.60801
1720.27949	0.62619
1718.35093	0.64751
1716.42236	0.67922
1714.49380	0.70971
1712.56523	0.73466
1710.63667	0.75881
1708.70811	0.78466
1706.77954	0.81401
1704.85098	0.84924
1702.92241	0.88092
1700.99385	0.91258
1699.06528	0.95973
1697.13672	1.00352
1695.20815	1.04946
1693.27959	1.09465
1691.35103	1.13147
1689.42246	1.17425
1687.49390	1.21951
1685.56533	1.26294
1683.63677	1.32980
1681.70820	1.40020
1679.77964	1.44587
1677.85107	1.48889
1675.92251	1.53857
1673.99395	1.60100
1672.06538	1.65696
1670.13682	1.71120
1668.20825	1.78212
1666.27969	1.84210
1664.35112	1.89401
1662.42256	1.95885
1660.49399	2.03292
1658.56543	2.09206
1656.63687	2.13902
1654.70830	2.17848
1652.77974	2.23650
1650.85117	2.29321
1648.92261	2.31235
1646.99404	2.33493
1645.06548	2.36072
1643.13691	2.37693
1641.20835	2.38330
1639.27979	2.38871
1637.35122	2.39114
1635.42266	2.38638
1633.49409	2.37373
1631.56553	2.35647
1629.63696	2.33699
1627.70840	2.30694
1625.77983	2.27203
1623.85127	2.22665
1621.92271	2.17014
1619.99414	2.12053
1618.06558	2.07309
1616.13701	2.00462
1614.20845	1.93496
1612.27988	1.88403
1610.35132	1.83182
1608.42275	1.77457
1606.49419	1.71850
1604.56562	1.66726
1602.63706	1.61754
1600.70850	1.56924
1598.77993	1.52547
1596.85137	1.48474
1594.92280	1.44509
1592.99424	1.40680
1591.06567	1.37199
1589.13711	1.33966
1587.20854	1.30973
1585.27998	1.28240
1583.35142	1.25749
1581.42285	1.23534
1579.49429	1.21669
1577.56572	1.20013
1575.63716	1.18102
1573.70859	1.16510
1571.78003	1.15521
1569.85146	1.14603
1567.92290	1.13718
1565.99434	1.13176
1564.06577	1.12901
1562.13721	1.12759
1560.20864	1.12855
1558.28008	1.13695
1556.35151	1.14632
1554.42295	1.15074
1552.49438	1.15460
1550.56582	1.15684
1548.63726	1.15638
1546.70869	1.15253
1544.78013	1.14414
1542.85156	1.13077
1540.92300	1.11000
1538.99443	1.07773
1537.06587	1.05379
1535.13730	1.03691
1533.20874	1.01411
1531.28018	0.98991
1529.35161	0.97238
1527.42305	0.95586
1525.49448	0.93880
1523.56592	0.92422
1521.63735	0.91050
1519.70879	0.89723
1517.78022	0.88636
1515.85166	0.87347
1513.92310	0.85935
1511.99453	0.84659
1510.06597	0.83484
1508.13740	0.82337
1506.20884	0.80627
1504.28027	0.79178
1502.35171	0.78379
1500.42314	0.77669
1498.49458	0.76887
1496.56602	0.75992
1494.63745	0.75147
1492.70889	0.74506
1490.78032	0.73928
1488.85176	0.73256
1486.92319	0.72658
1484.99463	0.72223
1483.06606	0.71890
1481.13750	0.71627
1479.20894	0.71465
1477.28037	0.71444
1475.35181	0.71534
1473.42324	0.71652
1471.49468	0.71685
1469.56611	0.71570
1467.63755	0.71374
1465.70898	0.71192
1463.78042	0.71076
1461.85186	0.71028
1459.92329	0.71033
1457.99473	0.71086
1456.06616	0.71096
1454.13760	0.70909
1452.20903	0.70621
1450.28047	0.70285
1448.35190	0.69936
1446.42334	0.69603
1444.49478	0.69315
1442.56621	0.69040
1440.63765	0.68737
1438.70908	0.68396
1436.78052	0.67950
1434.85195	0.67452
1432.92339	0.67098
1430.99482	0.66896
1429.06626	0.66799
1427.13770	0.66765
1425.20913	0.66799
1423.28057	0.66906
1421.35200	0.67015
1419.42344	0.67109
1417.49487	0.67157
1415.56631	0.67092
1413.63774	0.67026
1411.70918	0.67053
1409.78062	0.67183
1407.85205	0.67381
1405.92349	0.67617
1403.99492	0.67828
1402.06636	0.67919
1400.13779	0.67881
1398.20923	0.67723
1396.28066	0.67446
1394.35210	0.67036
1392.42354	0.66548
1390.49497	0.66075
1388.56641	0.65585
1386.63784	0.65000
1384.70928	0.64377
1382.78071	0.63794
1380.85215	0.63248
1378.92358	0.62781
1376.99502	0.62428
1375.06646	0.62187
1373.13789	0.62034
1371.20933	0.61935
1369.28076	0.61854
1367.35220	0.61749
1365.42363	0.61594
1363.49507	0.61412
1361.56650	0.61227
1359.63794	0.61052
1357.70937	0.60903
1355.78081	0.60775
1353.85225	0.60652
1351.92368	0.60544
1349.99512	0.60470
1348.06655	0.60413
1346.13799	0.60341
1344.20942	0.60243
1342.28086	0.60142
1340.35229	0.60083
1338.42373	0.60055
1336.49517	0.60012
1334.56660	0.59962
1332.63804	0.59947
1330.70947	0.59981
1328.78091	0.60048
1326.85234	0.60144
1324.92378	0.60266
1322.99521	0.60390
1321.06665	0.60494
1319.13809	0.60582
1317.20952	0.60658
1315.28096	0.60699
1313.35239	0.60682
1311.42383	0.60617
1309.49526	0.60543
1307.56670	0.60488
1305.63813	0.60443
1303.70957	0.60386
1301.78101	0.60330
1299.85244	0.60265
1297.92388	0.60161
1295.99531	0.60038
1294.06675	0.59914
1292.13818	0.59777
1290.20962	0.59633
1288.28105	0.59486
1286.35249	0.59333
1284.42393	0.59187
1282.49536	0.59059
1280.56680	0.58921
1278.63823	0.58755
1276.70967	0.58592
1274.78110	0.58453
1272.85254	0.58328
1270.92397	0.58229
1268.99541	0.58162
1267.06685	0.58097
1265.13828	0.58003
1263.20972	0.57888
1261.28115	0.57776
1259.35259	0.57671
1257.42402	0.57583
1255.49546	0.57536
1253.56689	0.57543
1251.63833	0.57578
1249.70977	0.57600
1247.78120	0.57592
1245.85264	0.57568
1243.92407	0.57512
1241.99551	0.57398
1240.06694	0.57239
1238.13838	0.57045
1236.20981	0.56808
1234.28125	0.56534
1232.35269	0.56251
1230.42412	0.55978
1228.49556	0.55729
1226.56699	0.55515
1224.63843	0.55316
1222.70986	0.55119
1220.78130	0.54938
1218.85273	0.54770
1216.92417	0.54612
1214.99561	0.54483
1213.06704	0.54386
1211.13848	0.54303
1209.20991	0.54215
1207.28135	0.54114
1205.35278	0.54013
1203.42422	0.53916
1201.49565	0.53818
1199.56709	0.53734
1197.63853	0.53669
1195.70996	0.53601
1193.78140	0.53528
1191.85283	0.53470
1189.92427	0.53422
1187.99570	0.53370
1186.06714	0.53340
1184.13857	0.53360
1182.21001	0.53421
1180.28145	0.53532
1178.35288	0.53698
1176.42432	0.53877
1174.49575	0.54019
1172.56719	0.54108
1170.63862	0.54147
1168.71006	0.54159
1166.78149	0.54177
1164.85293	0.54198
1162.92437	0.54195
1160.99580	0.54162
1159.06724	0.54112
1157.13867	0.54053
1155.21011	0.53979
1153.28154	0.53867
1151.35298	0.53685
1149.42441	0.53448
1147.49585	0.53196
1145.56729	0.52937
1143.63872	0.52670
1141.71016	0.52414
1139.78159	0.52198
1137.85303	0.52047
1135.92446	0.51956
1133.99590	0.51913
1132.06733	0.51912
1130.13877	0.51916
1128.21021	0.51888
1126.28164	0.51833
1124.35308	0.51766
1122.42451	0.51711
1120.49595	0.51676
1118.56738	0.51671
1116.63882	0.51710
1114.71025	0.51772
1112.78169	0.51825
1110.85312	0.51858
1108.92456	0.51902
1106.99600	0.51993
1105.06743	0.52111
1103.13887	0.52236
1101.21030	0.52369
1099.28174	0.52512
1097.35317	0.52696
1095.42461	0.52956
1093.49604	0.53308
1091.56748	0.53754
1089.63892	0.54282
1087.71035	0.54918
1085.78179	0.55684
1083.85322	0.56502
1081.92466	0.57242
1079.99609	0.57788
1078.06753	0.58057
1076.13896	0.58037
1074.21040	0.57758
1072.28184	0.57239
1070.35327	0.56557
1068.42471	0.55816
1066.49614	0.55084
1064.56758	0.54419
1062.63901	0.53861
1060.71045	0.53387
1058.78188	0.52959
1056.85332	0.52558
1054.92476	0.52192
1052.99619	0.51870
1051.06763	0.51590
1049.13906	0.51360
1047.21050	0.51192
1045.28193	0.51082
1043.35337	0.51010
1041.42480	0.50941
1039.49624	0.50865
1037.56768	0.50818
1035.63911	0.50797
1033.71055	0.50743
1031.78198	0.50626
1029.85342	0.50474
1027.92485	0.50332
1025.99629	0.50228
1024.06772	0.50151
1022.13916	0.50097
1020.21060	0.50068
1018.28203	0.50050
1016.35347	0.50052
1014.42490	0.50089
1012.49634	0.50137
1010.56777	0.50167
1008.63921	0.50185
1006.71064	0.50237
1004.78208	0.50361
1002.85352	0.50555
1000.92495	0.50810
998.99639	0.51133
997.06782	0.51525
995.13926	0.51959
993.21069	0.52393
991.28213	0.52755
989.35356	0.52997
987.42500	0.53112
985.49644	0.53121
983.56787	0.53082
981.63931	0.53078
979.71074	0.53158
977.78218	0.53326
975.85361	0.53556
973.92505	0.53807
971.99648	0.54077
970.06792	0.54388
968.13936	0.54750
966.21079	0.55149
964.28223	0.55558
962.35366	0.55998
960.42510	0.56522
958.49653	0.57111
956.56797	0.57701
954.63940	0.58289
952.71084	0.58882
950.78228	0.59474
948.85371	0.60102
946.92515	0.60781
944.99658	0.61438
943.06802	0.62021
941.13945	0.62598
939.21089	0.63217
937.28232	0.63813
935.35376	0.64383
933.42520	0.64978
931.49663	0.65550
929.56807	0.66095
927.63950	0.66705
925.71094	0.67390
923.78237	0.68080
921.85381	0.68728
919.92524	0.69338
917.99668	0.69993
916.06812	0.70733
914.13955	0.71539
912.21099	0.72386
910.28242	0.73201
908.35386	0.73971
906.42529	0.74761
904.49673	0.75555
902.56816	0.76401
900.63960	0.77464
898.71104	0.78683
896.78247	0.79798
894.85391	0.80707
892.92534	0.81551
890.99678	0.82547
889.06821	0.83674
887.13965	0.84836
885.21108	0.86030
883.28252	0.87181
881.35396	0.88192
879.42539	0.89189
877.49683	0.90513
875.56826	0.92028
873.63970	0.93189
871.71113	0.94086
869.78257	0.95156
867.85400	0.96389
865.92544	0.97596
863.99687	0.98754
862.06831	0.99883
860.13975	1.01004
858.21118	1.02188
856.28262	1.03441
854.35405	1.04717
852.42549	1.05900
850.49692	1.06995
848.56836	1.08183
846.63979	1.09434
844.71123	1.10728
842.78267	1.12146
840.85410	1.13465
838.92554	1.14374
836.99697	1.15100
835.06841	1.16122
833.13984	1.17522
831.21128	1.19010
829.28271	1.20327
827.35415	1.21570
825.42559	1.22789
823.49702	1.23857
821.56846	1.24787
819.63989	1.25520
817.71133	1.26166
815.78276	1.27531
813.85420	1.29753
811.92563	1.31557
809.99707	1.32492
808.06851	1.33334
806.13994	1.33988
804.21138	1.34630
802.28281	1.37155
800.35425	1.41166
798.42568	1.42785
796.49712	1.41069
794.56855	1.39359
792.63999	1.40218
790.71143	1.42925
788.78286	1.43744
786.85430	1.43863
784.92573	1.48443
782.99717	1.51249
781.06860	1.47371
779.14004	1.44492
777.21147	1.42180
775.28291	1.41839
773.35435	1.50247
771.42578	1.69792
769.49722	1.81518
767.56865	1.71873
765.64009	1.55727
763.71152	1.49175
761.78296	1.57940
759.85439	1.56073
757.92583	1.37922
755.99727	1.32119
754.06870	1.35692
752.14014	1.30620
750.21157	1.20123
748.28301	1.15539
746.35444	1.22746
744.42588	1.33461
742.49731	1.16284
740.56875	0.96665
738.64019	0.89207
736.71162	0.89025
734.78306	0.91966
732.85449	0.89340
730.92593	0.76894
728.99736	0.69465
727.06880	0.70966
725.14023	0.65201
723.21167	0.47426
721.28311	0.35517
719.35454	0.38510
717.42598	0.57385
715.49741	0.85617
713.56885	0.71646
711.64028	0.58455
709.71172	0.60930
707.78315	0.60854
705.85459	0.59815
703.92603	0.64912
701.99746	0.68456
700.06890	0.63440
698.14033	0.60350
696.21177	0.59555
694.28320	0.60836
692.35464	0.74238
690.42607	1.14644
688.49751	4.13099
686.56895	1.05213
684.64038	0.58548
682.71182	0.50230
680.78325	0.62431
678.85469	0.81402
676.92612	0.67403
674.99756	0.51416
673.06899	0.50875
671.14043	0.57556
669.21187	0.67127
667.28330	1.01701
665.35474	1.01961
663.42617	0.50659
661.49761	0.36290
659.56904	0.43339
657.64048	0.79639
655.71191	1.14251
653.78335	0.61832
651.85479	0.49988
649.92622	0.57848
647.99766	0.85190
646.06909	3.87641
644.14053	3.86484
642.21196	3.85327
640.28340	3.84170
638.35483	0.70608
636.42627	0.54289
634.49771	0.51677
632.56914	0.46398
630.64058	0.38928
628.71201	0.36458
626.78345	0.39462
624.85488	0.40841
622.92632	0.38331
620.99775	0.38278
619.06919	0.39758
617.14062	0.37995
615.21206	0.38534
613.28350	0.45657
611.35493	0.55509
609.42637	0.64565
607.49780	0.60805
605.56924	0.46969
603.64067	0.41368
601.71211	0.49387
599.78354	0.70760
597.85498	0.94653
595.92642	0.83314
593.99785	0.70009
592.06929	0.63134
590.14072	0.64320
588.21216	0.73678
586.28359	0.58437
584.35503	0.42452
582.42646	0.46587
580.49790	0.76154
578.56934	0.81517
576.64077	0.49535
574.71221	0.37519
572.78364	0.37064
570.85508	0.41298
568.92651	0.44370
566.99795	0.39687
565.06938	0.32970
563.14082	0.30920
561.21226	0.32315
559.28369	0.35735
557.35513	0.41141
555.42656	0.44232
553.49800	0.44794
551.56943	0.47053
549.64087	0.46771
547.71230	0.46362
545.78374	0.56292
543.85518	0.65471
541.92661	0.49642
539.99805	0.41058
538.06948	0.43420
536.14092	0.44375
534.21235	0.44105
532.28379	0.43535
530.35522	0.36023
528.42666	0.27939
526.49810	0.26585
524.56953	0.30180
522.64097	0.33351
520.71240	0.34642
518.78384	0.32655
516.85527	0.31906
514.92671	0.36262
512.99814	0.42790
511.06958	0.50282
509.14102	0.58846
507.21245	0.57634
505.28389	0.47524
503.35532	0.40267
501.42676	0.35824
499.49819	0.34846
