3997.91411	0.07837
3995.98555	0.07854
3994.05698	0.07918
3992.12842	0.07996
3990.19985	0.08049
3988.27129	0.08083
3986.34272	0.08103
3984.41416	0.08116
3982.48560	0.08158
3980.55703	0.08224
3978.62847	0.08271
3976.69990	0.08281
3974.77134	0.08252
3972.84277	0.08232
3970.91421	0.08248
3968.98564	0.08271
3967.05708	0.08298
3965.12852	0.08327
3963.19995	0.08331
3961.27139	0.08305
3959.34282	0.08297
3957.41426	0.08340
3955.48569	0.08359
3953.55713	0.08333
3951.62856	0.08337
3949.70000	0.08361
3947.77144	0.08372
3945.84287	0.08384
3943.91431	0.08404
3941.98574	0.08423
3940.05718	0.08409
3938.12861	0.08386
3936.20005	0.08377
3934.27148	0.08370
3932.34292	0.08399
3930.41436	0.08457
3928.48579	0.08458
3926.55723	0.08416
3924.62866	0.08419
3922.70010	0.08445
3920.77153	0.08420
3918.84297	0.08398
3916.91440	0.08418
3914.98584	0.08394
3913.05728	0.08333
3911.12871	0.08287
3909.20015	0.08255
3907.27158	0.08281
3905.34302	0.08394
3903.41445	0.08534
3901.48589	0.08589
3899.55732	0.08547
3897.62876	0.08457
3895.70020	0.08362
3893.77163	0.08328
3891.84307	0.08412
3889.91450	0.08510
3887.98594	0.08477
3886.05737	0.08457
3884.12881	0.08510
3882.20024	0.08524
3880.27168	0.08492
3878.34312	0.08420
3876.41455	0.08370
3874.48599	0.08444
3872.55742	0.08578
3870.62886	0.08670
3868.70029	0.08716
3866.77173	0.08704
3864.84316	0.08731
3862.91460	0.08771
3860.98604	0.08716
3859.05747	0.08668
3857.12891	0.08708
3855.20034	0.08864
3853.27178	0.09161
3851.34321	0.09306
3849.41465	0.09126
3847.48608	0.08971
3845.55752	0.08971
3843.62896	0.09106
3841.70039	0.09273
3839.77183	0.09409
3837.84326	0.09532
3835.91470	0.09527
3833.98613	0.09433
3832.05757	0.09420
3830.12900	0.09464
3828.20044	0.09490
3826.27187	0.09529
3824.34331	0.09632
3822.41475	0.09849
3820.48618	0.10151
3818.55762	0.10234
3816.62905	0.10185
3814.70049	0.10226
3812.77192	0.10208
3810.84336	0.10150
3808.91479	0.10207
3806.98623	0.10410
3805.05767	0.10612
3803.12910	0.10743
3801.20054	0.10939
3799.27197	0.11095
3797.34341	0.11125
3795.41484	0.11175
3793.48628	0.11226
3791.55771	0.11277
3789.62915	0.11359
3787.70059	0.11457
3785.77202	0.11602
3783.84346	0.11773
3781.91489	0.11907
3779.98633	0.12070
3778.05776	0.12284
3776.12920	0.12430
3774.20063	0.12523
3772.27207	0.12667
3770.34351	0.12910
3768.41494	0.13175
3766.48638	0.13342
3764.55781	0.13479
3762.62925	0.13619
3760.70068	0.13784
3758.77212	0.14067
3756.84355	0.14395
3754.91499	0.14638
3752.98643	0.14906
3751.05786	0.15345
3749.12930	0.15817
3747.20073	0.16052
3745.27217	0.16284
3743.34360	0.16652
3741.41504	0.16892
3739.48647	0.17045
3737.55791	0.17355
3735.62935	0.17920
3733.70078	0.18571
3731.77222	0.18991
3729.84365	0.19265
3727.91509	0.19584
3725.98652	0.20084
3724.05796	0.20741
3722.12939	0.21407
3720.20083	0.22082
3718.27227	0.22802
3716.34370	0.23546
3714.41514	0.24293
3712.48657	0.25191
3710.55801	0.26505
3708.62944	0.27945
3706.70088	0.29028
3704.77231	0.30006
3702.84375	0.31253
3700.91519	0.32922
3698.98662	0.34695
3697.05806	0.36363
3695.12949	0.38188
3693.20093	0.40163
3691.27236	0.42320
3689.34380	0.45120
3687.41523	0.48504
3685.48667	0.51436
3683.55811	0.53970
3681.62954	0.56694
3679.70098	0.59781
3677.77241	0.63055
3675.84385	0.66956
3673.91528	0.72174
3671.98672	0.76425
3670.05815	0.80209
3668.12959	0.85361
3666.20103	0.90072
3664.27246	0.94038
3662.34390	0.98297
3660.41533	1.02934
3658.48677	1.07556
3656.55820	1.12443
3654.62964	1.17808
3652.70107	1.22275
3650.77251	1.26167
3648.84395	1.31695
3646.91538	1.38578
3644.98682	1.43515
3643.05825	1.47228
3641.12969	1.51112
3639.20112	1.55501
3637.27256	1.59946
3635.34399	1.64221
3633.41543	1.68464
3631.48687	1.72469
3629.55830	1.76521
3627.62974	1.81782
3625.70117	1.86731
3623.77261	1.90110
3621.84404	1.93398
3619.91548	1.97229
3617.98691	2.01814
3616.05835	2.06165
3614.12979	2.09759
3612.20122	2.13601
3610.27266	2.17629
3608.34409	2.21646
3606.41553	2.25742
3604.48696	2.29556
3602.55840	2.33085
3600.62983	2.36922
3598.70127	2.41010
3596.77271	2.44966
3594.84414	2.49039
3592.91558	2.53270
3590.98701	2.57172
3589.05845	2.60797
3587.12988	2.65195
3585.20132	2.69939
3583.27275	2.73883
3581.34419	2.77665
3579.41562	2.81815
3577.48706	2.86176
3575.55850	2.90571
3573.62993	2.95046
3571.70137	2.99270
3569.77280	3.03251
3567.84424	3.07637
3565.91567	3.12902
3563.98711	3.17725
3562.05854	3.21724
3560.12998	3.25976
3558.20142	3.30558
3556.27285	3.35004
3554.34429	3.39166
3552.41572	3.43626
3550.48716	3.48491
3548.55859	3.53266
3546.63003	3.58012
3544.70146	3.63034
3542.77290	3.67871
3540.84434	3.72201
3538.91577	3.76499
3536.98721	3.81078
3535.05864	3.86075
3533.13008	3.91138
3531.20151	3.95956
3529.27295	4.00569
3527.34438	4.05179
3525.41582	4.09901
3523.48726	4.14663
3521.55869	4.19550
3519.63013	4.24622
3517.70156	4.29890
3515.77300	4.34913
3513.84443	4.39399
3511.91587	4.43931
3509.98730	4.48906
3508.05874	4.53824
3506.13018	4.58753
3504.20161	4.64021
3502.27305	4.69043
3500.34448	4.73607
3498.41592	4.78123
3496.48735	4.82845
3494.55879	4.87630
3492.63022	4.92529
3490.70166	4.98168
3488.77310	5.04053
3486.84453	5.08637
3484.91597	5.12096
3482.98740	5.16316
3481.05884	5.22111
3479.13027	5.28242
3477.20171	5.33506
3475.27314	5.38243
3473.34458	5.43024
3471.41602	5.47352
3469.48745	5.51162
3467.55889	5.55800
3465.63032	5.61215
3463.70176	5.66354
3461.77319	5.71855
3459.84463	5.78713
3457.91606	5.85134
3455.98750	5.89095
3454.05894	5.92407
3452.13037	5.97845
3450.20181	6.04727
3448.27324	6.10484
3446.34468	6.14839
3444.41611	6.18777
3442.48755	6.22682
3440.55898	6.26692
3438.63042	6.32484
3436.70186	6.39864
3434.77329	6.45320
3432.84473	6.49306
3430.91616	6.55355
3428.98760	6.62333
3427.05903	6.67226
3425.13047	6.72300
3423.20190	6.79450
3421.27334	6.85884
3419.34478	6.87162
3417.41621	6.86951
3415.48765	6.92464
3413.55908	7.01189
3411.63052	7.08391
3409.70195	7.14298
3407.77339	7.20144
3405.84482	7.24497
3403.91626	7.27795
3401.98770	7.31763
3400.05913	7.35279
3398.13057	7.36416
3396.20200	7.36811
3394.27344	7.39056
3392.34487	7.42962
3390.41631	7.49915
3388.48774	7.58461
3386.55918	7.66466
3384.63062	7.71716
3382.70205	7.74042
3380.77349	7.76037
3378.84492	7.79054
3376.91636	7.84851
3374.98779	7.91747
3373.05923	8.00054
3371.13066	8.05004
3369.20210	8.00724
3367.27354	7.94518
3365.34497	7.94587
3363.41641	7.96876
3361.48784	7.98425
3359.55928	8.06499
3357.63071	8.20815
3355.70215	8.32867
3353.77358	8.35634
3351.84502	8.31032
3349.91646	8.22961
3347.98789	8.19715
3346.05933	8.23807
3344.13076	8.25128
3342.20220	8.23190
3340.27363	8.25051
3338.34507	8.31069
3336.41650	8.31480
3334.48794	8.30239
3332.55937	8.39443
3330.63081	8.45754
3328.70225	8.39904
3326.77368	8.42646
3324.84512	8.52179
3322.91655	8.51282
3320.98799	8.47936
3319.05942	8.48347
3317.13086	8.52612
3315.20229	8.54922
3313.27373	8.51097
3311.34517	8.45506
3309.41660	8.40100
3307.48804	8.35288
3305.55947	8.32849
3303.63091	8.38375
3301.70234	8.49364
3299.77378	8.56919
3297.84521	8.58275
3295.91665	8.55970
3293.98809	8.47196
3292.05952	8.38232
3290.13096	8.44187
3288.20239	8.63246
3286.27383	8.77725
3284.34526	8.80588
3282.41670	8.78926
3280.48813	8.71991
3278.55957	8.64955
3276.63101	8.62988
3274.70244	8.63519
3272.77388	8.67236
3270.84531	8.80831
3268.91675	9.06922
3266.98818	9.15568
3265.05962	8.91234
3263.13105	8.75532
3261.20249	8.84161
3259.27393	8.95176
3257.34536	8.96628
3255.41680	8.96167
3253.48823	8.99071
3251.55967	9.01973
3249.63110	8.86942
3247.70254	8.65566
3245.77397	8.65290
3243.84541	8.77812
3241.91685	8.80931
3239.98828	8.83546
3238.05972	8.82565
3236.13115	8.74500
3234.20259	8.73283
3232.27402	8.63341
3230.34546	8.43015
3228.41689	8.37649
3226.48833	8.51123
3224.55977	8.70473
3222.63120	8.79099
3220.70264	8.65853
3218.77407	8.47072
3216.84551	8.32589
3214.91694	8.19717
3212.98838	8.13818
3211.05981	8.11477
3209.13125	8.11566
3207.20269	8.19492
3205.27412	8.24586
3203.34556	8.17063
3201.41699	8.08651
3199.48843	8.09358
3197.55986	8.14309
3195.63130	8.13000
3193.70273	8.02488
3191.77417	7.91577
3189.84561	7.86489
3187.91704	7.85752
3185.98848	7.85575
3184.05991	7.79551
3182.13135	7.67110
3180.20278	7.54426
3178.27422	7.47066
3176.34565	7.45165
3174.41709	7.41700
3172.48853	7.33410
3170.55996	7.23253
3168.63140	7.14880
3166.70283	7.09102
3164.77427	7.04082
3162.84570	6.99558
3160.91714	6.94752
3158.98857	6.87328
3157.06001	6.77341
3155.13145	6.66869
3153.20288	6.56647
3151.27432	6.48976
3149.34575	6.44732
3147.41719	6.39139
3145.48862	6.31056
3143.56006	6.24181
3141.63149	6.18461
3139.70293	6.11685
3137.77437	6.03666
3135.84580	5.95458
3133.91724	5.88523
3131.98867	5.82646
3130.06011	5.76172
3128.13154	5.68907
3126.20298	5.60961
3124.27441	5.52184
3122.34585	5.43513
3120.41729	5.35772
3118.48872	5.28582
3116.56016	5.21100
3114.63159	5.13309
3112.70303	5.06386
3110.77446	5.00497
3108.84590	4.94372
3106.91733	4.87161
3104.98877	4.79327
3103.06021	4.71971
3101.13164	4.65238
3099.20308	4.58429
3097.27451	4.51146
3095.34595	4.44097
3093.41738	4.37909
3091.48882	4.31890
3089.56025	4.25398
3087.63169	4.18638
3085.70312	4.11925
3083.77456	4.05358
3081.84600	3.99195
3079.91743	3.93262
3077.98887	3.87075
3076.06030	3.80835
3074.13174	3.74652
3072.20317	3.68350
3070.27461	3.62215
3068.34604	3.56394
3066.41748	3.50709
3064.48892	3.45113
3062.56035	3.39454
3060.63179	3.33691
3058.70322	3.28014
3056.77466	3.22461
3054.84609	3.16934
3052.91753	3.11547
3050.98896	3.06482
3049.06040	3.01516
3047.13184	2.96471
3045.20327	2.91401
3043.27471	2.86288
3041.34614	2.81239
3039.41758	2.76399
3037.48901	2.71662
3035.56045	2.66926
3033.63188	2.62295
3031.70332	2.57793
3029.77476	2.53383
3027.84619	2.49043
3025.91763	2.44675
3023.98906	2.40233
3022.06050	2.35878
3020.13193	2.31771
3018.20337	2.27786
3016.27480	2.23787
3014.34624	2.19857
3012.41768	2.15989
3010.48911	2.12110
3008.56055	2.08338
3006.63198	2.04754
3004.70342	2.01210
3002.77485	1.97618
3000.84629	1.94052
2998.91772	1.90556
2996.98916	1.87166
2995.06060	1.83886
2993.13203	1.80644
2991.20347	1.77428
2989.27490	1.74303
2987.34634	1.71309
2985.41777	1.68364
2983.48921	1.65386
2981.56064	1.62463
2979.63208	1.59635
2977.70352	1.56834
2975.77495	1.54077
2973.84639	1.51375
2971.91782	1.48697
2969.98926	1.46097
2968.06069	1.43574
2966.13213	1.41042
2964.20356	1.38533
2962.27500	1.36103
2960.34644	1.33717
2958.41787	1.31361
2956.48931	1.29062
2954.56074	1.26799
2952.63218	1.24530
2950.70361	1.22312
2948.77505	1.20142
2946.84648	1.17928
2944.91792	1.15733
2942.98936	1.13667
2941.06079	1.11693
2939.13223	1.09741
2937.20366	1.07807
2935.27510	1.05895
2933.34653	1.03997
2931.41797	1.02104
2929.48940	1.00213
2927.56084	0.98352
2925.63228	0.96556
2923.70371	0.94823
2921.77515	0.93158
2919.84658	0.91553
2917.91802	0.89953
2915.98945	0.88335
2914.06089	0.86724
2912.13232	0.85163
2910.20376	0.83667
2908.27520	0.82254
2906.34663	0.80922
2904.41807	0.79565
2902.48950	0.78149
2900.56094	0.76756
2898.63237	0.75430
2896.70381	0.74163
2894.77524	0.72936
2892.84668	0.71727
2890.91812	0.70526
2888.98955	0.69353
2887.06099	0.68231
2885.13242	0.67142
2883.20386	0.66078
2881.27529	0.65054
2879.34673	0.64060
2877.41816	0.63060
2875.48960	0.62033
2873.56104	0.61001
2871.63247	0.59980
2869.70391	0.58966
2867.77534	0.57949
2865.84678	0.56922
2863.91821	0.55903
2861.98965	0.54876
2860.06108	0.53850
2858.13252	0.52891
2856.20396	0.52012
2854.27539	0.51169
2852.34683	0.50327
2850.41826	0.49496
2848.48970	0.48715
2846.56113	0.47980
2844.63257	0.47246
2842.70400	0.46517
2840.77544	0.45836
2838.84687	0.45213
2836.91831	0.44604
2834.98975	0.43973
2833.06118	0.43334
2831.13262	0.42712
2829.20405	0.42098
2827.27549	0.41493
2825.34692	0.40907
2823.41836	0.40331
2821.48979	0.39754
2819.56123	0.39168
2817.63267	0.38579
2815.70410	0.38012
2813.77554	0.37473
2811.84697	0.36950
2809.91841	0.36446
2807.98984	0.35947
2806.06128	0.35444
2804.13271	0.34954
2802.20415	0.34474
2800.27559	0.33991
2798.34702	0.33518
2796.41846	0.33051
2794.48989	0.32574
2792.56133	0.32114
2790.63276	0.31691
2788.70420	0.31293
2786.77563	0.30880
2784.84707	0.30435
2782.91851	0.30012
2780.98994	0.29633
2779.06138	0.29260
2777.13281	0.28885
2775.20425	0.28518
2773.27568	0.28159
2771.34712	0.27806
2769.41855	0.27463
2767.48999	0.27131
2765.56143	0.26803
2763.63286	0.26463
2761.70430	0.26127
2759.77573	0.25818
2757.84717	0.25517
2755.91860	0.25202
2753.99004	0.24890
2752.06147	0.24613
2750.13291	0.24366
2748.20435	0.24094
2746.27578	0.23797
2744.34722	0.23530
2742.41865	0.23305
2740.49009	0.23087
2738.56152	0.22854
2736.63296	0.22611
2734.70439	0.22367
2732.77583	0.22122
2730.84727	0.21893
2728.91870	0.21693
2726.99014	0.21505
2725.06157	0.21302
2723.13301	0.21085
2721.20444	0.20869
2719.27588	0.20652
2717.34731	0.20452
2715.41875	0.20287
2713.49019	0.20129
2711.56162	0.19956
2709.63306	0.19782
2707.70449	0.19617
2705.77593	0.19462
2703.84736	0.19317
2701.91880	0.19163
2699.99023	0.18988
2698.06167	0.18813
2696.13311	0.18661
2694.20454	0.18538
2692.27598	0.18429
2690.34741	0.18321
2688.41885	0.18212
2686.49028	0.18091
2684.56172	0.17953
2682.63315	0.17810
2680.70459	0.17680
2678.77603	0.17569
2676.84746	0.17461
2674.91890	0.17356
2672.99033	0.17260
2671.06177	0.17176
2669.13320	0.17106
2667.20464	0.17027
2665.27607	0.16924
2663.34751	0.16823
2661.41895	0.16728
2659.49038	0.16635
2657.56182	0.16555
2655.63325	0.16487
2653.70469	0.16421
2651.77612	0.16359
2649.84756	0.16297
2647.91899	0.16230
2645.99043	0.16157
2644.06187	0.16092
2642.13330	0.16054
2640.20474	0.16019
2638.27617	0.15958
2636.34761	0.15896
2634.41904	0.15859
2632.49048	0.15828
2630.56191	0.15793
2628.63335	0.15759
2626.70479	0.15722
2624.77622	0.15680
2622.84766	0.15639
2620.91909	0.15611
2618.99053	0.15601
2617.06196	0.15589
2615.13340	0.15575
2613.20483	0.15566
2611.27627	0.15545
2609.34771	0.15519
2607.41914	0.15515
2605.49058	0.15525
2603.56201	0.15538
2601.63345	0.15544
2599.70488	0.15533
2597.77632	0.15524
2595.84775	0.15531
2593.91919	0.15546
2591.99062	0.15564
2590.06206	0.15585
2588.13350	0.15603
2586.20493	0.15617
2584.27637	0.15628
2582.34780	0.15640
2580.41924	0.15660
2578.49067	0.15685
2576.56211	0.15721
2574.63354	0.15780
2572.70498	0.15844
2570.77642	0.15894
2568.84785	0.15931
2566.91929	0.15959
2564.99072	0.15997
2563.06216	0.16036
2561.13359	0.16070
2559.20503	0.16114
2557.27646	0.16163
2555.34790	0.16211
2553.41934	0.16261
2551.49077	0.16314
2549.56221	0.16373
2547.63364	0.16438
2545.70508	0.16506
2543.77651	0.16577
2541.84795	0.16651
2539.91938	0.16714
2537.99082	0.16761
2536.06226	0.16801
2534.13369	0.16853
2532.20513	0.16919
2530.27656	0.16998
2528.34800	0.17097
2526.41943	0.17197
2524.49087	0.17271
2522.56230	0.17335
2520.63374	0.17412
2518.70518	0.17492
2516.77661	0.17562
2514.84805	0.17631
2512.91948	0.17708
2510.99092	0.17789
2509.06235	0.17869
2507.13379	0.17950
2505.20522	0.18042
2503.27666	0.18136
2501.34810	0.18203
2499.41953	0.18255
2497.49097	0.18332
2495.56240	0.18420
2493.63384	0.18504
2491.70527	0.18598
2489.77671	0.18692
2487.84814	0.18772
2485.91958	0.18853
2483.99102	0.18945
2482.06245	0.19039
2480.13389	0.19134
2478.20532	0.19230
2476.27676	0.19327
2474.34819	0.19420
2472.41963	0.19500
2470.49106	0.19582
2468.56250	0.19672
2466.63394	0.19759
2464.70537	0.19845
2462.77681	0.19940
2460.84824	0.20041
2458.91968	0.20140
2456.99111	0.20240
2455.06255	0.20343
2453.13398	0.20442
2451.20542	0.20531
2449.27686	0.20627
2447.34829	0.20740
2445.41973	0.20842
2443.49116	0.20927
2441.56260	0.21018
2439.63403	0.21117
2437.70547	0.21209
2435.77690	0.21306
2433.84834	0.21422
2431.91978	0.21538
2429.99121	0.21636
2428.06265	0.21732
2426.13408	0.21844
2424.20552	0.21961
2422.27695	0.22079
2420.34839	0.22196
2418.41982	0.22304
2416.49126	0.22407
2414.56270	0.22514
2412.63413	0.22627
2410.70557	0.22737
2408.77700	0.22846
2406.84844	0.22959
2404.91987	0.23081
2402.99131	0.23203
2401.06274	0.23318
2399.13418	0.23431
2397.20562	0.23546
2395.27705	0.23669
2393.34849	0.23798
2391.41992	0.23930
2389.49136	0.24057
2387.56279	0.24182
2385.63423	0.24322
2383.70566	0.24480
2381.77710	0.24629
2379.84854	0.24767
2377.91997	0.24926
2375.99141	0.25112
2374.06284	0.25301
2372.13428	0.25474
2370.20571	0.25630
2368.27715	0.25784
2366.34858	0.25950
2364.42002	0.26151
2362.49146	0.26401
2360.56289	0.26653
2358.63433	0.26850
2356.70576	0.26923
2354.77720	0.26899
2352.84863	0.26953
2350.92007	0.27077
2348.99150	0.27178
2347.06294	0.27272
2345.13437	0.27427
2343.20581	0.27643
2341.27725	0.27856
2339.34868	0.28066
2337.42012	0.28230
2335.49155	0.28332
2333.56299	0.28432
2331.63442	0.28596
2329.70586	0.28806
2327.77729	0.28993
2325.84873	0.29146
2323.92017	0.29296
2321.99160	0.29435
2320.06304	0.29566
2318.13447	0.29730
2316.20591	0.29920
2314.27734	0.30103
2312.34878	0.30266
2310.42021	0.30416
2308.49165	0.30556
2306.56309	0.30709
2304.63452	0.30894
2302.70596	0.31088
2300.77739	0.31272
2298.84883	0.31449
2296.92026	0.31631
2294.99170	0.31822
2293.06313	0.32021
2291.13457	0.32210
2289.20601	0.32385
2287.27744	0.32564
2285.34888	0.32748
2283.42031	0.32938
2281.49175	0.33136
2279.56318	0.33338
2277.63462	0.33547
2275.70605	0.33757
2273.77749	0.33962
2271.84893	0.34178
2269.92036	0.34405
2267.99180	0.34616
2266.06323	0.34806
2264.13467	0.34990
2262.20610	0.35189
2260.27754	0.35411
2258.34897	0.35634
2256.42041	0.35840
2254.49185	0.36044
2252.56328	0.36265
2250.63472	0.36502
2248.70615	0.36736
2246.77759	0.36952
2244.84902	0.37164
2242.92046	0.37381
2240.99189	0.37594
2239.06333	0.37803
2237.13477	0.38019
2235.20620	0.38241
2233.27764	0.38464
2231.34907	0.38687
2229.42051	0.38904
2227.49194	0.39118
2225.56338	0.39338
2223.63481	0.39566
2221.70625	0.39789
2219.77769	0.40013
2217.84912	0.40238
2215.92056	0.40453
2213.99199	0.40662
2212.06343	0.40881
2210.13486	0.41102
2208.20630	0.41312
2206.27773	0.41522
2204.34917	0.41732
2202.42061	0.41930
2200.49204	0.42126
2198.56348	0.42331
2196.63491	0.42533
2194.70635	0.42724
2192.77778	0.42910
2190.84922	0.43103
2188.92065	0.43304
2186.99209	0.43485
2185.06353	0.43644
2183.13496	0.43800
2181.20640	0.43960
2179.27783	0.44122
2177.34927	0.44286
2175.42070	0.44453
2173.49214	0.44613
2171.56357	0.44756
2169.63501	0.44884
2167.70645	0.45013
2165.77788	0.45148
2163.84932	0.45277
2161.92075	0.45386
2159.99219	0.45488
2158.06362	0.45599
2156.13506	0.45705
2154.20649	0.45782
2152.27793	0.45842
2150.34937	0.45909
2148.42080	0.45982
2146.49224	0.46048
2144.56367	0.46097
2142.63511	0.46133
2140.70654	0.46170
2138.77798	0.46209
2136.84941	0.46224
2134.92085	0.46219
2132.99229	0.46221
2131.06372	0.46222
2129.13516	0.46192
2127.20659	0.46148
2125.27803	0.46119
2123.34946	0.46087
2121.42090	0.46038
2119.49233	0.45973
2117.56377	0.45896
2115.63521	0.45817
2113.70664	0.45750
2111.77808	0.45675
2109.84951	0.45573
2107.92095	0.45461
2105.99238	0.45345
2104.06382	0.45215
2102.13525	0.45073
2100.20669	0.44935
2098.27812	0.44800
2096.34956	0.44650
2094.42100	0.44481
2092.49243	0.44314
2090.56387	0.44158
2088.63530	0.43987
2086.70674	0.43785
2084.77817	0.43583
2082.84961	0.43406
2080.92104	0.43232
2078.99248	0.43029
2077.06392	0.42796
2075.13535	0.42563
2073.20679	0.42344
2071.27822	0.42121
2069.34966	0.41890
2067.42109	0.41661
2065.49253	0.41444
2063.56396	0.41220
2061.63540	0.40975
2059.70684	0.40720
2057.77827	0.40461
2055.84971	0.40200
2053.92114	0.39949
2051.99258	0.39707
2050.06401	0.39450
2048.13545	0.39180
2046.20688	0.38910
2044.27832	0.38636
2042.34976	0.38361
2040.42119	0.38090
2038.49263	0.37812
2036.56406	0.37529
2034.63550	0.37261
2032.70693	0.36994
2030.77837	0.36714
2028.84980	0.36433
2026.92124	0.36167
2024.99268	0.35902
2023.06411	0.35623
2021.13555	0.35335
2019.20698	0.35060
2017.27842	0.34794
2015.34985	0.34503
2013.42129	0.34206
2011.49272	0.33936
2009.56416	0.33682
2007.63560	0.33421
2005.70703	0.33149
2003.77847	0.32871
2001.84990	0.32599
1999.92134	0.32340
1997.99277	0.32084
1996.06421	0.31833
1994.13564	0.31593
1992.20708	0.31356
1990.27852	0.31104
1988.34995	0.30841
1986.42139	0.30584
1984.49282	0.30338
1982.56426	0.30103
1980.63569	0.29884
1978.70713	0.29674
1976.77856	0.29453
1974.85000	0.29224
1972.92144	0.29003
1970.99287	0.28798
1969.06431	0.28600
1967.13574	0.28402
1965.20718	0.28195
1963.27861	0.27997
1961.35005	0.27811
1959.42148	0.27622
1957.49292	0.27430
1955.56436	0.27241
1953.63579	0.27062
1951.70723	0.26890
1949.77866	0.26724
1947.85010	0.26573
1945.92153	0.26440
1943.99297	0.26310
1942.06440	0.26160
1940.13584	0.25990
1938.20728	0.25835
1936.27871	0.25702
1934.35015	0.25573
1932.42158	0.25450
1930.49302	0.25336
1928.56445	0.25230
1926.63589	0.25123
1924.70732	0.25027
1922.77876	0.24949
1920.85020	0.24870
1918.92163	0.24784
1916.99307	0.24683
1915.06450	0.24565
1913.13594	0.24463
1911.20737	0.24400
1909.27881	0.24353
1907.35024	0.24290
1905.42168	0.24213
1903.49312	0.24149
1901.56455	0.24101
1899.63599	0.24051
1897.70742	0.24003
1895.77886	0.23973
1893.85029	0.23950
1891.92173	0.23918
1889.99316	0.23897
1888.06460	0.23867
1886.13604	0.23824
1884.20747	0.23795
1882.27891	0.23776
1880.35034	0.23753
1878.42178	0.23735
1876.49321	0.23741
1874.56465	0.23759
1872.63608	0.23776
1870.70752	0.23809
1868.77896	0.23881
1866.85039	0.23920
1864.92183	0.23893
1862.99326	0.23871
1861.06470	0.23885
1859.13613	0.23924
1857.20757	0.23961
1855.27900	0.24002
1853.35044	0.24050
1851.42187	0.24105
1849.49331	0.24166
1847.56475	0.24246
1845.63618	0.24353
1843.70762	0.24468
1841.77905	0.24538
1839.85049	0.24572
1837.92192	0.24636
1835.99336	0.24715
1834.06479	0.24808
1832.13623	0.24929
1830.20767	0.25099
1828.27910	0.25255
1826.35054	0.25346
1824.42197	0.25450
1822.49341	0.25558
1820.56484	0.25670
1818.63628	0.25810
1816.70771	0.25980
1814.77915	0.26147
1812.85059	0.26323
1810.92202	0.26527
1808.99346	0.26733
1807.06489	0.26925
1805.13633	0.27107
1803.20776	0.27324
1801.27920	0.27597
1799.35063	0.27906
1797.42207	0.28159
1795.49351	0.28385
1793.56494	0.28665
1791.63638	0.29034
1789.70781	0.29366
1787.77925	0.29609
1785.85068	0.29916
1783.92212	0.30291
1781.99355	0.30698
1780.06499	0.31124
1778.13643	0.31550
1776.20786	0.31953
1774.27930	0.32406
1772.35073	0.33026
1770.42217	0.33667
1768.49360	0.34168
1766.56504	0.34653
1764.63647	0.35180
1762.70791	0.35782
1760.77935	0.36533
1758.85078	0.37220
1756.92222	0.37918
1754.99365	0.38690
1753.06509	0.39401
1751.13652	0.40276
1749.20796	0.41391
1747.27939	0.42459
1745.35083	0.43365
1743.42227	0.44322
1741.49370	0.45385
1739.56514	0.46636
1737.63657	0.47902
1735.70801	0.49032
1733.77944	0.50708
1731.85088	0.52666
1729.92231	0.54203
1727.99375	0.55762
1726.06519	0.57437
1724.13662	0.59261
1722.20806	0.61230
1720.27949	0.63065
1718.35093	0.65245
1716.42236	0.68440
1714.49380	0.71439
1712.56523	0.73871
1710.63667	0.76252
1708.70811	0.78844
1706.77954	0.81809
1704.85098	0.85312
1702.92241	0.88408
1700.99385	0.91521
1699.06528	0.96195
1697.13672	1.00434
1695.20815	1.04654
1693.27959	1.08693
1691.35103	1.11977
1689.42246	1.15843
1687.49390	1.19973
1685.56533	1.24015
1683.63677	1.30107
1681.70820	1.36219
1679.77964	1.40118
1677.85107	1.43862
1675.92251	1.48221
1673.99395	1.53675
1672.06538	1.58494
1670.13682	1.63161
1668.20825	1.69163
1666.27969	1.73989
1664.35112	1.78076
1662.42256	1.83165
1660.49399	1.88748
1658.56543	1.93049
1656.63687	1.96677
1654.70830	2.00397
1652.77974	2.06290
1650.85117	2.11283
1648.92261	2.13174
1646.99404	2.16020
1645.06548	2.19021
1643.13691	2.20710
1641.20835	2.21679
1639.27979	2.22565
1637.35122	2.23121
1635.42266	2.23201
1633.49409	2.22601
1631.56553	2.21379
1629.63696	2.19831
1627.70840	2.17234
1625.77983	2.14124
1623.85127	2.10197
1621.92271	2.05476
1619.99414	2.01392
1618.06558	1.97392
1616.13701	1.91363
1614.20845	1.85014
1612.27988	1.80260
1610.35132	1.75383
1608.42275	1.70010
1606.49419	1.64682
1604.56562	1.59839
1602.63706	1.55203
1600.70850	1.50612
1598.77993	1.46327
1596.85137	1.42299
1594.92280	1.38351
1592.99424	1.34495
1591.06567	1.30964
1589.13711	1.27635
1587.20854	1.24490
1585.27998	1.21560
1583.35142	1.18806
1581.42285	1.16271
1579.49429	1.14104
1577.56572	1.12170
1575.63716	1.09767
1573.70859	1.07570
1571.78003	1.06130
1569.85146	1.04651
1567.92290	1.02970
1565.99434	1.01628
1564.06577	1.00548
1562.13721	0.99730
1560.20864	0.99170
1558.28008	0.98238
1556.35151	0.97240
1554.42295	0.96590
1552.49438	0.95972
1550.56582	0.95315
1548.63726	0.94540
1546.70869	0.93764
1544.78013	0.92984
1542.85156	0.92112
1540.92300	0.90930
1538.99443	0.88978
1537.06587	0.87454
1535.13730	0.86473
1533.20874	0.85273
1531.28018	0.83958
1529.35161	0.82973
1527.42305	0.82075
1525.49448	0.81171
1523.56592	0.80423
1521.63735	0.79686
1519.70879	0.78808
1517.78022	0.78021
1515.85166	0.77200
1513.92310	0.76365
1511.99453	0.75668
1510.06597	0.75097
1508.13740	0.74589
1506.20884	0.73717
1504.28027	0.72827
1502.35171	0.72299
1500.42314	0.71865
1498.49458	0.71435
1496.56602	0.70955
1494.63745	0.70463
1492.70889	0.70080
1490.78032	0.69779
1488.85176	0.69435
1486.92319	0.69037
1484.99463	0.68682
1483.06606	0.68414
1481.13750	0.68204
1479.20894	0.68020
1477.28037	0.67871
1475.35181	0.67760
1473.42324	0.67683
1471.49468	0.67542
1469.56611	0.67302
1467.63755	0.67069
1465.70898	0.66883
1463.78042	0.66708
1461.85186	0.66551
1459.92329	0.66466
1457.99473	0.66415
1456.06616	0.66222
1454.13760	0.65896
1452.20903	0.65608
1450.28047	0.65364
1448.35190	0.65144
1446.42334	0.64905
1444.49478	0.64669
1442.56621	0.64460
1440.63765	0.64253
1438.70908	0.64044
1436.78052	0.63813
1434.85195	0.63556
1432.92339	0.63327
1430.99482	0.63146
1429.06626	0.62987
1427.13770	0.62854
1425.20913	0.62769
1423.28057	0.62703
1421.35200	0.62631
1419.42344	0.62550
1417.49487	0.62408
1415.56631	0.62226
1413.63774	0.62084
1411.70918	0.61986
1409.78062	0.61917
1407.85205	0.61880
1405.92349	0.61868
1403.99492	0.61836
1402.06636	0.61762
1400.13779	0.61672
1398.20923	0.61538
1396.28066	0.61345
1394.35210	0.61106
1392.42354	0.60850
1390.49497	0.60621
1388.56641	0.60412
1386.63784	0.60174
1384.70928	0.59907
1382.78071	0.59654
1380.85215	0.59427
1378.92358	0.59232
1376.99502	0.59092
1375.06646	0.59020
1373.13789	0.58970
1371.20933	0.58882
1369.28076	0.58769
1367.35220	0.58662
1365.42363	0.58555
1363.49507	0.58436
1361.56650	0.58298
1359.63794	0.58151
1357.70937	0.58023
1355.78081	0.57911
1353.85225	0.57801
1351.92368	0.57692
1349.99512	0.57594
1348.06655	0.57497
1346.13799	0.57395
1344.20942	0.57297
1342.28086	0.57208
1340.35229	0.57127
1338.42373	0.57050
1336.49517	0.56961
1334.56660	0.56867
1332.63804	0.56789
1330.70947	0.56728
1328.78091	0.56687
1326.85234	0.56666
1324.92378	0.56650
1322.99521	0.56632
1321.06665	0.56605
1319.13809	0.56563
1317.20952	0.56512
1315.28096	0.56469
1313.35239	0.56421
1311.42383	0.56354
1309.49526	0.56274
1307.56670	0.56189
1305.63813	0.56108
1303.70957	0.56031
1301.78101	0.55953
1299.85244	0.55881
1297.92388	0.55804
1295.99531	0.55713
1294.06675	0.55628
1292.13818	0.55550
1290.20962	0.55467
1288.28105	0.55388
1286.35249	0.55314
1284.42393	0.55241
1282.49536	0.55162
1280.56680	0.55073
1278.63823	0.54973
1276.70967	0.54886
1274.78110	0.54827
1272.85254	0.54772
1270.92397	0.54707
1268.99541	0.54649
1267.06685	0.54603
1265.13828	0.54541
1263.20972	0.54465
1261.28115	0.54407
1259.35259	0.54369
1257.42402	0.54337
1255.49546	0.54306
1253.56689	0.54275
1251.63833	0.54254
1249.70977	0.54239
1247.78120	0.54213
1245.85264	0.54170
1243.92407	0.54115
1241.99551	0.54041
1240.06694	0.53949
1238.13838	0.53847
1236.20981	0.53730
1234.28125	0.53600
1232.35269	0.53474
1230.42412	0.53360
1228.49556	0.53248
1226.56699	0.53136
1224.63843	0.53026
1222.70986	0.52906
1220.78130	0.52778
1218.85273	0.52664
1216.92417	0.52574
1214.99561	0.52493
1213.06704	0.52396
1211.13848	0.52309
1209.20991	0.52260
1207.28135	0.52218
1205.35278	0.52158
1203.42422	0.52096
1201.49565	0.52031
1199.56709	0.51956
1197.63853	0.51889
1195.70996	0.51821
1193.78140	0.51732
1191.85283	0.51638
1189.92427	0.51576
1187.99570	0.51551
1186.06714	0.51545
1184.13857	0.51556
1182.21001	0.51578
1180.28145	0.51607
1178.35288	0.51659
1176.42432	0.51746
1174.49575	0.51840
1172.56719	0.51914
1170.63862	0.51983
1168.71006	0.52077
1166.78149	0.52191
1164.85293	0.52292
1162.92437	0.52359
1160.99580	0.52402
1159.06724	0.52431
1157.13867	0.52429
1155.21011	0.52388
1153.28154	0.52303
1151.35298	0.52156
1149.42441	0.51956
1147.49585	0.51726
1145.56729	0.51467
1143.63872	0.51186
1141.71016	0.50924
1139.78159	0.50703
1137.85303	0.50513
1135.92446	0.50355
1133.99590	0.50249
1132.06733	0.50186
1130.13877	0.50118
1128.21021	0.50009
1126.28164	0.49903
1124.35308	0.49856
1122.42451	0.49864
1120.49595	0.49881
1118.56738	0.49892
1116.63882	0.49935
1114.71025	0.50029
1112.78169	0.50125
1110.85312	0.50205
1108.92456	0.50296
1106.99600	0.50391
1105.06743	0.50480
1103.13887	0.50581
1101.21030	0.50699
1099.28174	0.50828
1097.35317	0.50999
1095.42461	0.51251
1093.49604	0.51605
1091.56748	0.52087
1089.63892	0.52726
1087.71035	0.53500
1085.78179	0.54352
1083.85322	0.55222
1081.92466	0.56025
1079.99609	0.56616
1078.06753	0.56904
1076.13896	0.56916
1074.21040	0.56665
1072.28184	0.56160
1070.35327	0.55485
1068.42471	0.54747
1066.49614	0.54046
1064.56758	0.53440
1062.63901	0.52921
1060.71045	0.52445
1058.78188	0.52016
1056.85332	0.51660
1054.92476	0.51347
1052.99619	0.51049
1051.06763	0.50789
1049.13906	0.50618
1047.21050	0.50553
1045.28193	0.50534
1043.35337	0.50522
1041.42480	0.50545
1039.49624	0.50612
1037.56768	0.50680
1035.63911	0.50694
1033.71055	0.50643
1031.78198	0.50558
1029.85342	0.50450
1027.92485	0.50295
1025.99629	0.50114
1024.06772	0.49986
1022.13916	0.49938
1020.21060	0.49913
1018.28203	0.49874
1016.35347	0.49833
1014.42490	0.49804
1012.49634	0.49778
1010.56777	0.49758
1008.63921	0.49754
1006.71064	0.49772
1004.78208	0.49835
1002.85352	0.49994
1000.92495	0.50266
998.99639	0.50619
997.06782	0.51009
995.13926	0.51418
993.21069	0.51818
991.28213	0.52150
989.35356	0.52361
987.42500	0.52432
985.49644	0.52409
983.56787	0.52392
981.63931	0.52410
979.71074	0.52461
977.78218	0.52591
975.85361	0.52813
973.92505	0.53087
971.99648	0.53385
970.06792	0.53701
968.13936	0.54053
966.21079	0.54454
964.28223	0.54895
962.35366	0.55367
960.42510	0.55871
958.49653	0.56411
956.56797	0.56999
954.63940	0.57608
952.71084	0.58208
950.78228	0.58815
948.85371	0.59452
946.92515	0.60113
944.99658	0.60766
943.06802	0.61373
941.13945	0.61955
939.21089	0.62563
937.28232	0.63161
935.35376	0.63711
933.42520	0.64271
931.49663	0.64892
929.56807	0.65543
927.63950	0.66145
925.71094	0.66707
923.78237	0.67361
921.85381	0.68128
919.92524	0.68860
917.99668	0.69521
916.06812	0.70222
914.13955	0.71010
912.21099	0.71853
910.28242	0.72731
908.35386	0.73577
906.42529	0.74394
904.49673	0.75300
902.56816	0.76255
900.63960	0.77153
898.71104	0.78020
896.78247	0.78958
894.85391	0.80021
892.92534	0.81155
890.99678	0.82264
889.06821	0.83357
887.13965	0.84532
885.21108	0.85753
883.28252	0.86892
881.35396	0.87960
879.42539	0.89063
877.49683	0.90215
875.56826	0.91343
873.63970	0.92462
871.71113	0.93631
869.78257	0.94803
867.85400	0.95981
865.92544	0.97189
863.99687	0.98342
862.06831	0.99483
860.13975	1.00756
858.21118	1.02069
856.28262	1.03108
854.35405	1.03905
852.42549	1.04931
850.49692	1.06330
848.56836	1.07782
846.63979	1.09109
844.71123	1.10361
842.78267	1.11752
840.85410	1.13365
838.92554	1.14622
836.99697	1.15396
835.06841	1.16274
833.13984	1.17543
831.21128	1.19263
829.28271	1.20832
827.35415	1.21719
825.42559	1.22818
823.49702	1.24572
821.56846	1.26150
819.63989	1.27790
817.71133	1.29972
815.78276	1.31570
813.85420	1.32301
811.92563	1.33332
809.99707	1.35231
808.06851	1.38528
806.13994	1.42900
804.21138	1.45215
802.28281	1.45302
800.35425	1.47174
798.42568	1.50757
796.49712	1.52884
794.56855	1.57459
792.63999	1.72198
790.71143	1.96117
788.78286	1.96114
786.85430	1.74090
784.92573	1.66322
782.99717	2.25920
781.06860	4.68641
779.14004	4.67484
777.21147	4.66327
775.28291	2.10755
773.35435	1.54277
771.42578	1.31557
769.49722	1.24454
767.56865	1.28490
765.64009	1.38157
763.71152	1.48733
761.78296	1.48513
759.85439	1.38910
757.92583	1.29717
755.99727	1.20673
754.06870	1.10839
752.14014	1.03044
750.21157	1.00722
748.28301	1.02072
746.35444	0.99586
744.42588	0.89428
742.49731	0.78141
740.56875	0.73467
738.64019	0.76020
736.71162	0.77526
734.78306	0.73349
732.85449	0.67077
730.92593	0.56700
728.99736	0.41884
727.06880	0.31143
725.14023	0.26024
723.21167	0.20254
721.28311	0.13307
719.35454	0.07158
717.42598	0.00170
715.49741	-0.02930
713.56885	0.05930
711.64028	0.14402
709.71172	0.13081
707.78315	0.10400
705.85459	0.09805
703.92603	0.04866
701.99746	0.00405
700.06890	0.03056
698.14033	0.05805
696.21177	0.04445
694.28320	0.05844
692.35464	0.12539
690.42607	0.17433
688.49751	0.16754
686.56895	0.13008
684.64038	0.06672
682.71182	0.04021
680.78325	0.11604
678.85469	0.25427
676.92612	0.26452
674.99756	0.19323
673.06899	0.21416
671.14043	0.29685
669.21187	0.26447
667.28330	0.23371
665.35474	0.22608
663.42617	0.16539
661.49761	0.07536
659.56904	-0.00039
657.64048	-0.02488
655.71191	0.02914
653.78335	0.13901
651.85479	0.20234
649.92622	0.15016
647.99766	0.11529
646.06909	0.10100
644.14053	0.09200
642.21196	0.11761
640.28340	0.13844
638.35483	0.11142
636.42627	0.08906
634.49771	0.09256
632.56914	0.15865
630.64058	0.24284
628.71201	0.24217
626.78345	0.16487
624.85488	0.06821
622.92632	-0.00803
620.99775	-0.02345
619.06919	0.06701
617.14062	0.18980
615.21206	0.23653
613.28350	0.19199
611.35493	0.12784
609.42637	0.10995
607.49780	0.13772
605.56924	0.13043
603.64067	0.03962
601.71211	-0.01165
599.78354	0.04702
597.85498	0.11959
595.92642	0.10191
593.99785	0.05638
592.06929	0.04468
590.14072	0.06406
588.21216	0.10921
586.28359	0.13032
584.35503	0.10483
582.42646	0.07095
580.49790	0.07330
578.56934	0.09594
576.64077	0.11946
574.71221	0.15960
572.78364	0.19248
570.85508	0.19467
568.92651	0.18569
566.99795	0.14385
565.06938	0.09542
563.14082	0.10635
561.21226	0.14620
559.28369	0.15180
557.35513	0.15020
555.42656	0.14482
553.49800	0.13484
551.56943	0.12985
549.64087	0.13050
547.71230	0.14389
545.78374	0.13895
543.85518	0.12759
541.92661	0.13524
539.99805	0.15309
538.06948	0.19392
536.14092	0.23884
534.21235	0.25611
532.28379	0.24383
530.35522	0.19216
528.42666	0.14277
526.49810	0.12171
524.56953	0.09589
522.64097	0.06187
520.71240	0.06234
518.78384	0.10647
516.85527	0.14569
514.92671	0.16154
512.99814	0.16236
511.06958	0.13916
509.14102	0.10227
507.21245	0.06987
505.28389	0.07270
503.35532	0.09698
501.42676	0.08633
499.49819	0.07997
