3997.91411	0.07149
3995.98555	0.07149
3994.05698	0.07196
3992.12842	0.07256
3990.19985	0.07279
3988.27129	0.07305
3986.34272	0.07373
3984.41416	0.07423
3982.48560	0.07398
3980.55703	0.07364
3978.62847	0.07371
3976.69990	0.07384
3974.77134	0.07394
3972.84277	0.07419
3970.91421	0.07433
3968.98564	0.07418
3967.05708	0.07400
3965.12852	0.07407
3963.19995	0.07460
3961.27139	0.07550
3959.34282	0.07595
3957.41426	0.07555
3955.48569	0.07504
3953.55713	0.07507
3951.62856	0.07533
3949.70000	0.07553
3947.77144	0.07558
3945.84287	0.07547
3943.91431	0.07549
3941.98574	0.07562
3940.05718	0.07554
3938.12861	0.07516
3936.20005	0.07473
3934.27148	0.07459
3932.34292	0.07465
3930.41436	0.07471
3928.48579	0.07472
3926.55723	0.07467
3924.62866	0.07476
3922.70010	0.07495
3920.77153	0.07497
3918.84297	0.07480
3916.91440	0.07467
3914.98584	0.07440
3913.05728	0.07359
3911.12871	0.07291
3909.20015	0.07279
3907.27158	0.07288
3905.34302	0.07337
3903.41445	0.07446
3901.48589	0.07537
3899.55732	0.07536
3897.62876	0.07442
3895.70020	0.07338
3893.77163	0.07319
3891.84307	0.07396
3889.91450	0.07485
3887.98594	0.07508
3886.05737	0.07516
3884.12881	0.07507
3882.20024	0.07460
3880.27168	0.07436
3878.34312	0.07449
3876.41455	0.07461
3874.48599	0.07490
3872.55742	0.07550
3870.62886	0.07633
3868.70029	0.07724
3866.77173	0.07748
3864.84316	0.07746
3862.91460	0.07771
3860.98604	0.07790
3859.05747	0.07812
3857.12891	0.07837
3855.20034	0.07852
3853.27178	0.07872
3851.34321	0.07909
3849.41465	0.07912
3847.48608	0.07948
3845.55752	0.08037
3843.62896	0.08115
3841.70039	0.08160
3839.77183	0.08232
3837.84326	0.08377
3835.91470	0.08483
3833.98613	0.08472
3832.05757	0.08448
3830.12900	0.08491
3828.20044	0.08581
3826.27187	0.08648
3824.34331	0.08684
3822.41475	0.08767
3820.48618	0.08928
3818.55762	0.09044
3816.62905	0.09111
3814.70049	0.09202
3812.77192	0.09247
3810.84336	0.09268
3808.91479	0.09341
3806.98623	0.09502
3805.05767	0.09704
3803.12910	0.09866
3801.20054	0.09998
3799.27197	0.10070
3797.34341	0.10075
3795.41484	0.10109
3793.48628	0.10194
3791.55771	0.10301
3789.62915	0.10430
3787.70059	0.10585
3785.77202	0.10781
3783.84346	0.10972
3781.91489	0.11098
3779.98633	0.11225
3778.05776	0.11412
3776.12920	0.11579
3774.20063	0.11687
3772.27207	0.11801
3770.34351	0.11996
3768.41494	0.12236
3766.48638	0.12399
3764.55781	0.12539
3762.62925	0.12713
3760.70068	0.12919
3758.77212	0.13162
3756.84355	0.13404
3754.91499	0.13638
3752.98643	0.13887
3751.05786	0.14163
3749.12930	0.14475
3747.20073	0.14741
3745.27217	0.15023
3743.34360	0.15470
3741.41504	0.15860
3739.48647	0.16097
3737.55791	0.16393
3735.62935	0.16886
3733.70078	0.17491
3731.77222	0.17943
3729.84365	0.18280
3727.91509	0.18636
3725.98652	0.19110
3724.05796	0.19708
3722.12939	0.20354
3720.20083	0.21054
3718.27227	0.21825
3716.34370	0.22600
3714.41514	0.23317
3712.48657	0.24161
3710.55801	0.25431
3708.62944	0.26835
3706.70088	0.27941
3704.77231	0.28964
3702.84375	0.30181
3700.91519	0.31809
3698.98662	0.33650
3697.05806	0.35412
3695.12949	0.37245
3693.20093	0.39158
3691.27236	0.41215
3689.34380	0.43857
3687.41523	0.47117
3685.48667	0.50067
3683.55811	0.52672
3681.62954	0.55457
3679.70098	0.58572
3677.77241	0.61802
3675.84385	0.65525
3673.91528	0.70533
3671.98672	0.74789
3670.05815	0.78667
3668.12959	0.83935
3666.20103	0.88765
3664.27246	0.92766
3662.34390	0.96984
3660.41533	1.01544
3658.48677	1.06066
3656.55820	1.10870
3654.62964	1.16259
3652.70107	1.20825
3650.77251	1.24738
3648.84395	1.30118
3646.91538	1.36847
3644.98682	1.41883
3643.05825	1.45746
3641.12969	1.49629
3639.20112	1.53890
3637.27256	1.58223
3635.34399	1.62430
3633.41543	1.66668
3631.48687	1.70702
3629.55830	1.74666
3627.62974	1.79734
3625.70117	1.84753
3623.77261	1.88326
3621.84404	1.91578
3619.91548	1.95182
3617.98691	1.99551
3616.05835	2.03756
3614.12979	2.07362
3612.20122	2.11306
3610.27266	2.15313
3608.34409	2.19306
3606.41553	2.23547
3604.48696	2.27473
3602.55840	2.30985
3600.62983	2.34794
3598.70127	2.38851
3596.77271	2.42739
3594.84414	2.46759
3592.91558	2.50986
3590.98701	2.54907
3589.05845	2.58376
3587.12988	2.62451
3585.20132	2.67358
3583.27275	2.71809
3581.34419	2.75697
3579.41562	2.79567
3577.48706	2.83609
3575.55850	2.87843
3573.62993	2.92321
3571.70137	2.96687
3569.77280	3.00755
3567.84424	3.04929
3565.91567	3.10052
3563.98711	3.15265
3562.05854	3.19577
3560.12998	3.23755
3558.20142	3.28212
3556.27285	3.32783
3554.34429	3.37178
3552.41572	3.41654
3550.48716	3.46204
3548.55859	3.50403
3546.63003	3.54577
3544.70146	3.59513
3542.77290	3.64810
3540.84434	3.69627
3538.91577	3.74343
3536.98721	3.79245
3535.05864	3.84025
3533.13008	3.88658
3531.20151	3.93572
3529.27295	3.98599
3527.34438	4.03535
3525.41582	4.08403
3523.48726	4.12993
3521.55869	4.17578
3519.63013	4.22490
3517.70156	4.27473
3515.77300	4.32085
3513.84443	4.36514
3511.91587	4.41275
3509.98730	4.46502
3508.05874	4.51775
3506.13018	4.56575
3504.20161	4.60991
3502.27305	4.65396
3500.34448	4.69852
3498.41592	4.74475
3496.48735	4.79297
3494.55879	4.83998
3492.63022	4.88930
3490.70166	4.94173
3488.77310	4.99051
3486.84453	5.03726
3484.91597	5.08699
3482.98740	5.13861
3481.05884	5.19259
3479.13027	5.24832
3477.20171	5.30073
3475.27314	5.34944
3473.34458	5.39945
3471.41602	5.44413
3469.48745	5.47532
3467.55889	5.50998
3465.63032	5.56184
3463.70176	5.61639
3461.77319	5.66023
3459.84463	5.70963
3457.91606	5.77404
3455.98750	5.83583
3454.05894	5.88431
3452.13037	5.93034
3450.20181	5.98755
3448.27324	6.05022
3446.34468	6.10541
3444.41611	6.14380
3442.48755	6.17781
3440.55898	6.22494
3438.63042	6.27525
3436.70186	6.32293
3434.77329	6.38466
3432.84473	6.44905
3430.91616	6.49681
3428.98760	6.54362
3427.05903	6.58340
3425.13047	6.61955
3423.20190	6.67583
3421.27334	6.74812
3419.34478	6.81215
3417.41621	6.85075
3415.48765	6.87131
3413.55908	6.89124
3411.63052	6.92921
3409.70195	6.97418
3407.77339	7.00859
3405.84482	7.05304
3403.91626	7.13104
3401.98770	7.20521
3400.05913	7.24415
3398.13057	7.26689
3396.20200	7.28486
3394.27344	7.30656
3392.34487	7.32406
3390.41631	7.34915
3388.48774	7.40523
3386.55918	7.47333
3384.63062	7.50538
3382.70205	7.51616
3380.77349	7.54363
3378.84492	7.59106
3376.91636	7.67117
3374.98779	7.74940
3373.05923	7.78416
3371.13066	7.77722
3369.20210	7.76366
3367.27354	7.76483
3365.34497	7.78222
3363.41641	7.81634
3361.48784	7.85885
3359.55928	7.90488
3357.63071	7.94325
3355.70215	7.97309
3353.77358	8.00796
3351.84502	8.06229
3349.91646	8.08321
3347.98789	8.08976
3346.05933	8.10935
3344.13076	8.05033
3342.20220	7.94559
3340.27363	7.88804
3338.34507	7.90289
3336.41650	7.98016
3334.48794	8.07448
3332.55937	8.11421
3330.63081	8.13002
3328.70225	8.16096
3326.77368	8.13701
3324.84512	8.05385
3322.91655	7.98600
3320.98799	7.97949
3319.05942	8.04106
3317.13086	8.12678
3315.20229	8.15638
3313.27373	8.15917
3311.34517	8.15780
3309.41660	8.14756
3307.48804	8.17662
3305.55947	8.20600
3303.63091	8.20467
3301.70234	8.20045
3299.77378	8.21087
3297.84521	8.25012
3295.91665	8.31020
3293.98809	8.32714
3292.05952	8.27863
3290.13096	8.19052
3288.20239	8.12788
3286.27383	8.15252
3284.34526	8.20252
3282.41670	8.25476
3280.48813	8.27548
3278.55957	8.22830
3276.63101	8.20396
3274.70244	8.20916
3272.77388	8.27572
3270.84531	8.43161
3268.91675	8.49999
3266.98818	8.41146
3265.05962	8.29073
3263.13105	8.21193
3261.20249	8.19439
3259.27393	8.19746
3257.34536	8.19031
3255.41680	8.21704
3253.48823	8.33265
3251.55967	8.43262
3249.63110	8.37485
3247.70254	8.25254
3245.77397	8.16665
3243.84541	8.10891
3241.91685	8.05365
3239.98828	8.06293
3238.05972	8.17838
3236.13115	8.26141
3234.20259	8.23248
3232.27402	8.22491
3230.34546	8.29019
3228.41689	8.34487
3226.48833	8.26845
3224.55977	8.10453
3222.63120	8.04893
3220.70264	8.09318
3218.77407	8.06207
3216.84551	7.96041
3214.91694	7.90913
3212.98838	7.90106
3211.05981	7.90756
3209.13125	7.93082
3207.20269	7.93414
3205.27412	7.93162
3203.34556	7.95090
3201.41699	7.98245
3199.48843	7.97431
3197.55986	7.87374
3195.63130	7.76183
3193.70273	7.71060
3191.77417	7.66180
3189.84561	7.59706
3187.91704	7.58273
3185.98848	7.59668
3184.05991	7.58371
3182.13135	7.54680
3180.20278	7.47426
3178.27422	7.39289
3176.34565	7.35027
3174.41709	7.31731
3172.48853	7.24906
3170.55996	7.15298
3168.63140	7.06460
3166.70283	7.00147
3164.77427	6.94937
3162.84570	6.89716
3160.91714	6.85136
3158.98857	6.80784
3157.06001	6.73870
3155.13145	6.63342
3153.20288	6.52229
3151.27432	6.44862
3149.34575	6.41272
3147.41719	6.35850
3145.48862	6.26933
3143.56006	6.19148
3141.63149	6.14120
3139.70293	6.09360
3137.77437	6.03382
3135.84580	5.96637
3133.91724	5.89739
3131.98867	5.82361
3130.06011	5.74125
3128.13154	5.65674
3126.20298	5.57716
3124.27441	5.50653
3122.34585	5.44719
3120.41729	5.38959
3118.48872	5.31899
3116.56016	5.24010
3114.63159	5.16355
3112.70303	5.09093
3110.77446	5.02212
3108.84590	4.95371
3106.91733	4.87974
3104.98877	4.80325
3103.06021	4.73436
3101.13164	4.66976
3099.20308	4.60199
3097.27451	4.53256
3095.34595	4.46228
3093.41738	4.39160
3091.48882	4.32371
3089.56025	4.25919
3087.63169	4.19497
3085.70312	4.13203
3083.77456	4.07167
3081.84600	4.00929
3079.91743	3.94335
3077.98887	3.87943
3076.06030	3.81944
3074.13174	3.75990
3072.20317	3.70157
3070.27461	3.64530
3068.34604	3.58836
3066.41748	3.52925
3064.48892	3.46927
3062.56035	3.41164
3060.63179	3.35699
3058.70322	3.30321
3056.77466	3.24958
3054.84609	3.19646
3052.91753	3.14408
3050.98896	3.09184
3049.06040	3.03861
3047.13184	2.98574
3045.20327	2.93543
3043.27471	2.88664
3041.34614	2.83743
3039.41758	2.78852
3037.48901	2.74093
3035.56045	2.69409
3033.63188	2.64808
3031.70332	2.60271
3029.77476	2.55724
3027.84619	2.51233
3025.91763	2.46809
3023.98906	2.42431
3022.06050	2.38142
3020.13193	2.33897
3018.20337	2.29693
3016.27480	2.25635
3014.34624	2.21752
3012.41768	2.17909
3010.48911	2.14020
3008.56055	2.10192
3006.63198	2.06513
3004.70342	2.02905
3002.77485	1.99268
3000.84629	1.95624
2998.91772	1.92096
2996.98916	1.88743
2995.06060	1.85477
2993.13203	1.82213
2991.20347	1.78975
2989.27490	1.75851
2987.34634	1.72889
2985.41777	1.70021
2983.48921	1.67159
2981.56064	1.64262
2979.63208	1.61342
2977.70352	1.58496
2975.77495	1.55809
2973.84639	1.53210
2971.91782	1.50604
2969.98926	1.48020
2968.06069	1.45471
2966.13213	1.42932
2964.20356	1.40416
2962.27500	1.37944
2960.34644	1.35538
2958.41787	1.33189
2956.48931	1.30870
2954.56074	1.28562
2952.63218	1.26220
2950.70361	1.23865
2948.77505	1.21586
2946.84648	1.19411
2944.91792	1.17311
2942.98936	1.15230
2941.06079	1.13149
2939.13223	1.11103
2937.20366	1.09083
2935.27510	1.07030
2933.34653	1.04968
2931.41797	1.02956
2929.48940	1.00986
2927.56084	0.99074
2925.63228	0.97258
2923.70371	0.95521
2921.77515	0.93822
2919.84658	0.92136
2917.91802	0.90482
2915.98945	0.88874
2914.06089	0.87268
2912.13232	0.85695
2910.20376	0.84213
2908.27520	0.82754
2906.34663	0.81288
2904.41807	0.79868
2902.48950	0.78503
2900.56094	0.77176
2898.63237	0.75869
2896.70381	0.74571
2894.77524	0.73281
2892.84668	0.72042
2890.91812	0.70880
2888.98955	0.69729
2887.06099	0.68552
2885.13242	0.67416
2883.20386	0.66359
2881.27529	0.65349
2879.34673	0.64339
2877.41816	0.63314
2875.48960	0.62319
2873.56104	0.61356
2871.63247	0.60346
2869.70391	0.59255
2867.77534	0.58161
2865.84678	0.57101
2863.91821	0.56028
2861.98965	0.54940
2860.06108	0.53881
2858.13252	0.52866
2856.20396	0.51891
2854.27539	0.50961
2852.34683	0.50092
2850.41826	0.49285
2848.48970	0.48526
2846.56113	0.47809
2844.63257	0.47103
2842.70400	0.46417
2840.77544	0.45776
2838.84687	0.45155
2836.91831	0.44545
2834.98975	0.43951
2833.06118	0.43333
2831.13262	0.42687
2829.20405	0.42064
2827.27549	0.41480
2825.34692	0.40896
2823.41836	0.40308
2821.48979	0.39733
2819.56123	0.39161
2817.63267	0.38581
2815.70410	0.37993
2813.77554	0.37427
2811.84697	0.36906
2809.91841	0.36409
2807.98984	0.35908
2806.06128	0.35406
2804.13271	0.34919
2802.20415	0.34428
2800.27559	0.33925
2798.34702	0.33432
2796.41846	0.32960
2794.48989	0.32502
2792.56133	0.32057
2790.63276	0.31624
2788.70420	0.31181
2786.77563	0.30729
2784.84707	0.30298
2782.91851	0.29893
2780.98994	0.29503
2779.06138	0.29131
2777.13281	0.28771
2775.20425	0.28407
2773.27568	0.28030
2771.34712	0.27654
2769.41855	0.27300
2767.48999	0.26945
2765.56143	0.26582
2763.63286	0.26234
2761.70430	0.25902
2759.77573	0.25570
2757.84717	0.25244
2755.91860	0.24950
2753.99004	0.24674
2752.06147	0.24382
2750.13291	0.24090
2748.20435	0.23813
2746.27578	0.23543
2744.34722	0.23284
2742.41865	0.23034
2740.49009	0.22773
2738.56152	0.22509
2736.63296	0.22268
2734.70439	0.22047
2732.77583	0.21832
2730.84727	0.21610
2728.91870	0.21368
2726.99014	0.21131
2725.06157	0.20915
2723.13301	0.20719
2721.20444	0.20542
2719.27588	0.20363
2717.34731	0.20167
2715.41875	0.19977
2713.49019	0.19790
2711.56162	0.19598
2709.63306	0.19420
2707.70449	0.19265
2705.77593	0.19119
2703.84736	0.18977
2701.91880	0.18836
2699.99023	0.18673
2698.06167	0.18496
2696.13311	0.18345
2694.20454	0.18222
2692.27598	0.18103
2690.34741	0.17966
2688.41885	0.17815
2686.49028	0.17684
2684.56172	0.17586
2682.63315	0.17484
2680.70459	0.17361
2678.77603	0.17242
2676.84746	0.17147
2674.91890	0.17052
2672.99033	0.16934
2671.06177	0.16826
2669.13320	0.16757
2667.20464	0.16690
2665.27607	0.16590
2663.34751	0.16476
2661.41895	0.16374
2659.49038	0.16293
2657.56182	0.16231
2655.63325	0.16172
2653.70469	0.16104
2651.77612	0.16033
2649.84756	0.15970
2647.91899	0.15912
2645.99043	0.15854
2644.06187	0.15799
2642.13330	0.15745
2640.20474	0.15681
2638.27617	0.15621
2636.34761	0.15579
2634.41904	0.15554
2632.49048	0.15534
2630.56191	0.15494
2628.63335	0.15434
2626.70479	0.15389
2624.77622	0.15366
2622.84766	0.15347
2620.91909	0.15322
2618.99053	0.15293
2617.06196	0.15261
2615.13340	0.15232
2613.20483	0.15224
2611.27627	0.15228
2609.34771	0.15213
2607.41914	0.15186
2605.49058	0.15182
2603.56201	0.15202
2601.63345	0.15223
2599.70488	0.15228
2597.77632	0.15223
2595.84775	0.15222
2593.91919	0.15227
2591.99062	0.15241
2590.06206	0.15264
2588.13350	0.15293
2586.20493	0.15322
2584.27637	0.15342
2582.34780	0.15351
2580.41924	0.15371
2578.49067	0.15402
2576.56211	0.15432
2574.63354	0.15456
2572.70498	0.15486
2570.77642	0.15531
2568.84785	0.15588
2566.91929	0.15633
2564.99072	0.15655
2563.06216	0.15665
2561.13359	0.15697
2559.20503	0.15764
2557.27646	0.15837
2555.34790	0.15892
2553.41934	0.15945
2551.49077	0.16009
2549.56221	0.16067
2547.63364	0.16114
2545.70508	0.16166
2543.77651	0.16225
2541.84795	0.16286
2539.91938	0.16347
2537.99082	0.16401
2536.06226	0.16460
2534.13369	0.16533
2532.20513	0.16612
2530.27656	0.16680
2528.34800	0.16737
2526.41943	0.16805
2524.49087	0.16891
2522.56230	0.16979
2520.63374	0.17056
2518.70518	0.17130
2516.77661	0.17222
2514.84805	0.17321
2512.91948	0.17401
2510.99092	0.17474
2509.06235	0.17544
2507.13379	0.17613
2505.20522	0.17691
2503.27666	0.17771
2501.34810	0.17850
2499.41953	0.17940
2497.49097	0.18029
2495.56240	0.18107
2493.63384	0.18187
2491.70527	0.18281
2489.77671	0.18372
2487.84814	0.18449
2485.91958	0.18532
2483.99102	0.18629
2482.06245	0.18730
2480.13389	0.18826
2478.20532	0.18910
2476.27676	0.18987
2474.34819	0.19075
2472.41963	0.19178
2470.49106	0.19276
2468.56250	0.19356
2466.63394	0.19437
2464.70537	0.19542
2462.77681	0.19654
2460.84824	0.19739
2458.91968	0.19800
2456.99111	0.19879
2455.06255	0.19988
2453.13398	0.20108
2451.20542	0.20228
2449.27686	0.20336
2447.34829	0.20428
2445.41973	0.20513
2443.49116	0.20603
2441.56260	0.20708
2439.63403	0.20824
2437.70547	0.20936
2435.77690	0.21037
2433.84834	0.21131
2431.91978	0.21228
2429.99121	0.21331
2428.06265	0.21432
2426.13408	0.21537
2424.20552	0.21655
2422.27695	0.21778
2420.34839	0.21892
2418.41982	0.21994
2416.49126	0.22099
2414.56270	0.22215
2412.63413	0.22327
2410.70557	0.22435
2408.77700	0.22558
2406.84844	0.22694
2404.91987	0.22817
2402.99131	0.22922
2401.06274	0.23035
2399.13418	0.23156
2397.20562	0.23274
2395.27705	0.23392
2393.34849	0.23506
2391.41992	0.23620
2389.49136	0.23744
2387.56279	0.23885
2385.63423	0.24035
2383.70566	0.24182
2381.77710	0.24333
2379.84854	0.24501
2377.91997	0.24680
2375.99141	0.24861
2374.06284	0.25062
2372.13428	0.25276
2370.20571	0.25479
2368.27715	0.25698
2366.34858	0.25968
2364.42002	0.26219
2362.49146	0.26394
2360.56289	0.26602
2358.63433	0.26838
2356.70576	0.26982
2354.77720	0.27042
2352.84863	0.27092
2350.92007	0.27130
2348.99150	0.27164
2347.06294	0.27231
2345.13437	0.27388
2343.20581	0.27660
2341.27725	0.27924
2339.34868	0.28105
2337.42012	0.28244
2335.49155	0.28380
2333.56299	0.28516
2331.63442	0.28655
2329.70586	0.28809
2327.77729	0.28962
2325.84873	0.29101
2323.92017	0.29252
2321.99160	0.29428
2320.06304	0.29575
2318.13447	0.29681
2316.20591	0.29804
2314.27734	0.29966
2312.34878	0.30124
2310.42021	0.30268
2308.49165	0.30428
2306.56309	0.30596
2304.63452	0.30741
2302.70596	0.30886
2300.77739	0.31066
2298.84883	0.31263
2296.92026	0.31448
2294.99170	0.31613
2293.06313	0.31782
2291.13457	0.31967
2289.20601	0.32148
2287.27744	0.32324
2285.34888	0.32513
2283.42031	0.32708
2281.49175	0.32900
2279.56318	0.33103
2277.63462	0.33311
2275.70605	0.33517
2273.77749	0.33727
2271.84893	0.33950
2269.92036	0.34169
2267.99180	0.34364
2266.06323	0.34552
2264.13467	0.34762
2262.20610	0.34995
2260.27754	0.35224
2258.34897	0.35435
2256.42041	0.35632
2254.49185	0.35832
2252.56328	0.36034
2250.63472	0.36243
2248.70615	0.36475
2246.77759	0.36718
2244.84902	0.36943
2242.92046	0.37150
2240.99189	0.37360
2239.06333	0.37581
2237.13477	0.37810
2235.20620	0.38043
2233.27764	0.38279
2231.34907	0.38513
2229.42051	0.38738
2227.49194	0.38962
2225.56338	0.39191
2223.63481	0.39415
2221.70625	0.39633
2219.77769	0.39847
2217.84912	0.40051
2215.92056	0.40255
2213.99199	0.40476
2212.06343	0.40700
2210.13486	0.40909
2208.20630	0.41117
2206.27773	0.41329
2204.34917	0.41538
2202.42061	0.41752
2200.49204	0.41977
2198.56348	0.42201
2196.63491	0.42398
2194.70635	0.42573
2192.77778	0.42749
2190.84922	0.42930
2188.92065	0.43111
2186.99209	0.43294
2185.06353	0.43471
2183.13496	0.43641
2181.20640	0.43814
2179.27783	0.43989
2177.34927	0.44151
2175.42070	0.44298
2173.49214	0.44442
2171.56357	0.44575
2169.63501	0.44701
2167.70645	0.44832
2165.77788	0.44969
2163.84932	0.45105
2161.92075	0.45224
2159.99219	0.45325
2158.06362	0.45424
2156.13506	0.45520
2154.20649	0.45598
2152.27793	0.45670
2150.34937	0.45746
2148.42080	0.45809
2146.49224	0.45854
2144.56367	0.45892
2142.63511	0.45931
2140.70654	0.45968
2138.77798	0.46000
2136.84941	0.46016
2134.92085	0.46011
2132.99229	0.45983
2131.06372	0.45948
2129.13516	0.45922
2127.20659	0.45914
2125.27803	0.45903
2123.34946	0.45867
2121.42090	0.45811
2119.49233	0.45743
2117.56377	0.45666
2115.63521	0.45573
2113.70664	0.45470
2111.77808	0.45380
2109.84951	0.45298
2107.92095	0.45203
2105.99238	0.45085
2104.06382	0.44951
2102.13525	0.44812
2100.20669	0.44676
2098.27812	0.44532
2096.34956	0.44373
2094.42100	0.44210
2092.49243	0.44049
2090.56387	0.43880
2088.63530	0.43692
2086.70674	0.43487
2084.77817	0.43282
2082.84961	0.43086
2080.92104	0.42895
2078.99248	0.42699
2077.06392	0.42498
2075.13535	0.42282
2073.20679	0.42047
2071.27822	0.41811
2069.34966	0.41584
2067.42109	0.41343
2065.49253	0.41090
2063.56396	0.40840
2061.63540	0.40602
2059.70684	0.40367
2057.77827	0.40117
2055.84971	0.39845
2053.92114	0.39569
2051.99258	0.39302
2050.06401	0.39043
2048.13545	0.38789
2046.20688	0.38532
2044.27832	0.38269
2042.34976	0.38002
2040.42119	0.37722
2038.49263	0.37431
2036.56406	0.37138
2034.63550	0.36853
2032.70693	0.36577
2030.77837	0.36306
2028.84980	0.36037
2026.92124	0.35771
2024.99268	0.35494
2023.06411	0.35196
2021.13555	0.34898
2019.20698	0.34623
2017.27842	0.34352
2015.34985	0.34067
2013.42129	0.33789
2011.49272	0.33521
2009.56416	0.33250
2007.63560	0.32975
2005.70703	0.32704
2003.77847	0.32445
2001.84990	0.32186
1999.92134	0.31924
1997.99277	0.31663
1996.06421	0.31409
1994.13564	0.31157
1992.20708	0.30910
1990.27852	0.30658
1988.34995	0.30404
1986.42139	0.30154
1984.49282	0.29906
1982.56426	0.29668
1980.63569	0.29443
1978.70713	0.29222
1976.77856	0.28994
1974.85000	0.28770
1972.92144	0.28559
1970.99287	0.28355
1969.06431	0.28150
1967.13574	0.27939
1965.20718	0.27728
1963.27861	0.27527
1961.35005	0.27335
1959.42148	0.27156
1957.49292	0.26984
1955.56436	0.26803
1953.63579	0.26625
1951.70723	0.26464
1949.77866	0.26309
1947.85010	0.26149
1945.92153	0.25990
1943.99297	0.25842
1942.06440	0.25694
1940.13584	0.25541
1938.20728	0.25406
1936.27871	0.25287
1934.35015	0.25164
1932.42158	0.25037
1930.49302	0.24903
1928.56445	0.24778
1926.63589	0.24678
1924.70732	0.24597
1922.77876	0.24509
1920.85020	0.24415
1918.92163	0.24328
1916.99307	0.24245
1915.06450	0.24149
1913.13594	0.24050
1911.20737	0.23975
1909.27881	0.23920
1907.35024	0.23866
1905.42168	0.23806
1903.49312	0.23748
1901.56455	0.23689
1899.63599	0.23629
1897.70742	0.23582
1895.77886	0.23551
1893.85029	0.23520
1891.92173	0.23483
1889.99316	0.23465
1888.06460	0.23442
1886.13604	0.23404
1884.20747	0.23378
1882.27891	0.23368
1880.35034	0.23363
1878.42178	0.23362
1876.49321	0.23370
1874.56465	0.23374
1872.63608	0.23379
1870.70752	0.23394
1868.77896	0.23431
1866.85039	0.23466
1864.92183	0.23477
1862.99326	0.23487
1861.06470	0.23513
1859.13613	0.23558
1857.20757	0.23596
1855.27900	0.23636
1853.35044	0.23681
1851.42187	0.23732
1849.49331	0.23786
1847.56475	0.23850
1845.63618	0.23932
1843.70762	0.24032
1841.77905	0.24114
1839.85049	0.24164
1837.92192	0.24239
1835.99336	0.24339
1834.06479	0.24442
1832.13623	0.24542
1830.20767	0.24673
1828.27910	0.24810
1826.35054	0.24920
1824.42197	0.25056
1822.49341	0.25194
1820.56484	0.25320
1818.63628	0.25453
1816.70771	0.25614
1814.77915	0.25785
1812.85059	0.25968
1810.92202	0.26165
1808.99346	0.26357
1807.06489	0.26549
1805.13633	0.26744
1803.20776	0.26968
1801.27920	0.27217
1799.35063	0.27488
1797.42207	0.27744
1795.49351	0.27993
1793.56494	0.28271
1791.63638	0.28627
1789.70781	0.28983
1787.77925	0.29262
1785.85068	0.29587
1783.92212	0.29963
1781.99355	0.30360
1780.06499	0.30776
1778.13643	0.31199
1776.20786	0.31597
1774.27930	0.32029
1772.35073	0.32605
1770.42217	0.33222
1768.49360	0.33752
1766.56504	0.34274
1764.63647	0.34808
1762.70791	0.35392
1760.77935	0.36142
1758.85078	0.36852
1756.92222	0.37557
1754.99365	0.38334
1753.06509	0.39034
1751.13652	0.39836
1749.20796	0.40862
1747.27939	0.41931
1745.35083	0.42888
1743.42227	0.43876
1741.49370	0.44943
1739.56514	0.46192
1737.63657	0.47444
1735.70801	0.48535
1733.77944	0.50165
1731.85088	0.52153
1729.92231	0.53759
1727.99375	0.55363
1726.06519	0.57058
1724.13662	0.58891
1722.20806	0.60873
1720.27949	0.62710
1718.35093	0.64850
1716.42236	0.68017
1714.49380	0.71081
1712.56523	0.73600
1710.63667	0.76040
1708.70811	0.78633
1706.77954	0.81537
1704.85098	0.85011
1702.92241	0.88149
1700.99385	0.91257
1699.06528	0.95854
1697.13672	1.00096
1695.20815	1.04476
1693.27959	1.08781
1691.35103	1.12274
1689.42246	1.16285
1687.49390	1.20497
1685.56533	1.24517
1683.63677	1.30691
1681.70820	1.37164
1679.77964	1.41317
1677.85107	1.45234
1675.92251	1.49756
1673.99395	1.55377
1672.06538	1.60437
1670.13682	1.65410
1668.20825	1.71773
1666.27969	1.76943
1664.35112	1.81284
1662.42256	1.86686
1660.49399	1.92867
1658.56543	1.97780
1656.63687	2.01698
1654.70830	2.05190
1652.77974	2.10718
1650.85117	2.16081
1648.92261	2.17982
1646.99404	2.20309
1645.06548	2.22926
1643.13691	2.24577
1641.20835	2.25452
1639.27979	2.26277
1637.35122	2.26831
1635.42266	2.26903
1633.49409	2.26400
1631.56553	2.25173
1629.63696	2.23479
1627.70840	2.20766
1625.77983	2.17591
1623.85127	2.13481
1621.92271	2.08407
1619.99414	2.03933
1618.06558	1.99633
1616.13701	1.93554
1614.20845	1.87316
1612.27988	1.82475
1610.35132	1.77390
1608.42275	1.71930
1606.49419	1.66648
1604.56562	1.61839
1602.63706	1.57172
1600.70850	1.52546
1598.77993	1.48247
1596.85137	1.44228
1594.92280	1.40363
1592.99424	1.36611
1591.06567	1.33099
1589.13711	1.29777
1587.20854	1.26691
1585.27998	1.23843
1583.35142	1.21185
1581.42285	1.18741
1579.49429	1.16647
1577.56572	1.14779
1575.63716	1.12518
1573.70859	1.10549
1571.78003	1.09307
1569.85146	1.08015
1567.92290	1.06536
1565.99434	1.05426
1564.06577	1.04598
1562.13721	1.03938
1560.20864	1.03434
1558.28008	1.02896
1556.35151	1.02568
1554.42295	1.02363
1552.49438	1.02132
1550.56582	1.01775
1548.63726	1.01220
1546.70869	1.00524
1544.78013	0.99621
1542.85156	0.98463
1540.92300	0.96878
1538.99443	0.94552
1537.06587	0.92881
1535.13730	0.91731
1533.20874	0.90195
1531.28018	0.88538
1529.35161	0.87318
1527.42305	0.86193
1525.49448	0.85044
1523.56592	0.84023
1521.63735	0.83015
1519.70879	0.82003
1517.78022	0.81119
1515.85166	0.80138
1513.92310	0.79177
1511.99453	0.78330
1510.06597	0.77513
1508.13740	0.76706
1506.20884	0.75556
1504.28027	0.74600
1502.35171	0.74069
1500.42314	0.73583
1498.49458	0.73026
1496.56602	0.72389
1494.63745	0.71814
1492.70889	0.71378
1490.78032	0.70976
1488.85176	0.70506
1486.92319	0.70065
1484.99463	0.69730
1483.06606	0.69473
1481.13750	0.69250
1479.20894	0.69055
1477.28037	0.68923
1475.35181	0.68855
1473.42324	0.68820
1471.49468	0.68707
1469.56611	0.68500
1467.63755	0.68283
1465.70898	0.68080
1463.78042	0.67894
1461.85186	0.67754
1459.92329	0.67663
1457.99473	0.67575
1456.06616	0.67422
1454.13760	0.67201
1452.20903	0.66956
1450.28047	0.66679
1448.35190	0.66392
1446.42334	0.66107
1444.49478	0.65848
1442.56621	0.65603
1440.63765	0.65344
1438.70908	0.65075
1436.78052	0.64769
1434.85195	0.64457
1432.92339	0.64207
1430.99482	0.64002
1429.06626	0.63846
1427.13770	0.63765
1425.20913	0.63739
1423.28057	0.63728
1421.35200	0.63691
1419.42344	0.63634
1417.49487	0.63573
1415.56631	0.63488
1413.63774	0.63401
1411.70918	0.63337
1409.78062	0.63311
1407.85205	0.63329
1405.92349	0.63391
1403.99492	0.63450
1402.06636	0.63431
1400.13779	0.63333
1398.20923	0.63175
1396.28066	0.62971
1394.35210	0.62689
1392.42354	0.62354
1390.49497	0.62044
1388.56641	0.61738
1386.63784	0.61373
1384.70928	0.60979
1382.78071	0.60616
1380.85215	0.60290
1378.92358	0.60015
1376.99502	0.59794
1375.06646	0.59617
1373.13789	0.59476
1371.20933	0.59367
1369.28076	0.59285
1367.35220	0.59207
1365.42363	0.59101
1363.49507	0.58961
1361.56650	0.58814
1359.63794	0.58684
1357.70937	0.58565
1355.78081	0.58440
1353.85225	0.58326
1351.92368	0.58243
1349.99512	0.58168
1348.06655	0.58083
1346.13799	0.57992
1344.20942	0.57909
1342.28086	0.57826
1340.35229	0.57739
1338.42373	0.57656
1336.49517	0.57582
1334.56660	0.57512
1332.63804	0.57462
1330.70947	0.57443
1328.78091	0.57454
1326.85234	0.57477
1324.92378	0.57493
1322.99521	0.57503
1321.06665	0.57509
1319.13809	0.57512
1317.20952	0.57504
1315.28096	0.57468
1313.35239	0.57408
1311.42383	0.57336
1309.49526	0.57268
1307.56670	0.57217
1305.63813	0.57164
1303.70957	0.57096
1301.78101	0.57024
1299.85244	0.56943
1297.92388	0.56849
1295.99531	0.56754
1294.06675	0.56661
1292.13818	0.56556
1290.20962	0.56439
1288.28105	0.56318
1286.35249	0.56207
1284.42393	0.56106
1282.49536	0.56000
1280.56680	0.55903
1278.63823	0.55819
1276.70967	0.55733
1274.78110	0.55641
1272.85254	0.55554
1270.92397	0.55478
1268.99541	0.55411
1267.06685	0.55346
1265.13828	0.55284
1263.20972	0.55225
1261.28115	0.55157
1259.35259	0.55090
1257.42402	0.55035
1255.49546	0.54989
1253.56689	0.54970
1251.63833	0.54981
1249.70977	0.54984
1247.78120	0.54950
1245.85264	0.54907
1243.92407	0.54863
1241.99551	0.54789
1240.06694	0.54670
1238.13838	0.54518
1236.20981	0.54364
1234.28125	0.54221
1232.35269	0.54071
1230.42412	0.53908
1228.49556	0.53755
1226.56699	0.53604
1224.63843	0.53445
1222.70986	0.53301
1220.78130	0.53181
1218.85273	0.53070
1216.92417	0.52968
1214.99561	0.52884
1213.06704	0.52811
1211.13848	0.52735
1209.20991	0.52647
1207.28135	0.52562
1205.35278	0.52497
1203.42422	0.52431
1201.49565	0.52339
1199.56709	0.52237
1197.63853	0.52155
1195.70996	0.52093
1193.78140	0.52043
1191.85283	0.52000
1189.92427	0.51956
1187.99570	0.51917
1186.06714	0.51898
1184.13857	0.51909
1182.21001	0.51946
1180.28145	0.52014
1178.35288	0.52117
1176.42432	0.52232
1174.49575	0.52331
1172.56719	0.52406
1170.63862	0.52459
1168.71006	0.52495
1166.78149	0.52526
1164.85293	0.52563
1162.92437	0.52599
1160.99580	0.52613
1159.06724	0.52598
1157.13867	0.52556
1155.21011	0.52494
1153.28154	0.52401
1151.35298	0.52255
1149.42441	0.52057
1147.49585	0.51817
1145.56729	0.51545
1143.63872	0.51272
1141.71016	0.51012
1139.78159	0.50777
1137.85303	0.50576
1135.92446	0.50412
1133.99590	0.50314
1132.06733	0.50269
1130.13877	0.50218
1128.21021	0.50137
1126.28164	0.50042
1124.35308	0.49955
1122.42451	0.49906
1120.49595	0.49890
1118.56738	0.49872
1116.63882	0.49844
1114.71025	0.49829
1112.78169	0.49859
1110.85312	0.49934
1108.92456	0.50022
1106.99600	0.50111
1105.06743	0.50207
1103.13887	0.50315
1101.21030	0.50442
1099.28174	0.50599
1097.35317	0.50809
1095.42461	0.51087
1093.49604	0.51451
1091.56748	0.51918
1089.63892	0.52466
1087.71035	0.53113
1085.78179	0.53876
1083.85322	0.54667
1081.92466	0.55382
1079.99609	0.55957
1078.06753	0.56305
1076.13896	0.56359
1074.21040	0.56130
1072.28184	0.55645
1070.35327	0.54975
1068.42471	0.54250
1066.49614	0.53559
1064.56758	0.52919
1062.63901	0.52343
1060.71045	0.51845
1058.78188	0.51414
1056.85332	0.51020
1054.92476	0.50644
1052.99619	0.50307
1051.06763	0.50050
1049.13906	0.49872
1047.21050	0.49732
1045.28193	0.49618
1043.35337	0.49545
1041.42480	0.49495
1039.49624	0.49443
1037.56768	0.49394
1035.63911	0.49364
1033.71055	0.49335
1031.78198	0.49273
1029.85342	0.49186
1027.92485	0.49100
1025.99629	0.49020
1024.06772	0.48959
1022.13916	0.48934
1020.21060	0.48937
1018.28203	0.48953
1016.35347	0.48982
1014.42490	0.49038
1012.49634	0.49104
1010.56777	0.49144
1008.63921	0.49186
1006.71064	0.49262
1004.78208	0.49378
1002.85352	0.49570
1000.92495	0.49851
998.99639	0.50185
997.06782	0.50562
995.13926	0.50975
993.21069	0.51388
991.28213	0.51737
989.35356	0.51977
987.42500	0.52095
985.49644	0.52126
983.56787	0.52138
981.63931	0.52186
979.71074	0.52285
977.78218	0.52434
975.85361	0.52643
973.92505	0.52922
971.99648	0.53251
970.06792	0.53595
968.13936	0.53955
966.21079	0.54355
964.28223	0.54793
962.35366	0.55267
960.42510	0.55773
958.49653	0.56304
956.56797	0.56870
954.63940	0.57489
952.71084	0.58154
950.78228	0.58819
948.85371	0.59444
946.92515	0.60064
944.99658	0.60714
943.06802	0.61329
941.13945	0.61884
939.21089	0.62455
937.28232	0.63042
935.35376	0.63628
933.42520	0.64244
931.49663	0.64854
929.56807	0.65438
927.63950	0.66024
925.71094	0.66625
923.78237	0.67285
921.85381	0.67996
919.92524	0.68658
917.99668	0.69276
916.06812	0.69979
914.13955	0.70809
912.21099	0.71642
910.28242	0.72421
908.35386	0.73216
906.42529	0.74035
904.49673	0.74854
902.56816	0.75755
900.63960	0.76774
898.71104	0.77800
896.78247	0.78787
894.85391	0.79722
892.92534	0.80571
890.99678	0.81468
889.06821	0.82606
887.13965	0.83945
885.21108	0.85245
883.28252	0.86455
881.35396	0.87581
879.42539	0.88525
877.49683	0.89444
875.56826	0.90558
873.63970	0.91840
871.71113	0.93195
869.78257	0.94455
867.85400	0.95502
865.92544	0.96524
863.99687	0.97673
862.06831	0.98843
860.13975	0.99943
858.21118	1.01073
856.28262	1.02356
854.35405	1.03668
852.42549	1.04778
850.49692	1.05782
848.56836	1.06939
846.63979	1.08125
844.71123	1.09121
842.78267	1.10123
840.85410	1.11397
838.92554	1.12727
836.99697	1.13799
835.06841	1.14672
833.13984	1.15637
831.21128	1.17163
829.28271	1.18957
827.35415	1.19870
825.42559	1.20223
823.49702	1.21143
821.56846	1.22047
819.63989	1.22577
817.71133	1.23663
815.78276	1.25077
813.85420	1.26337
811.92563	1.28023
809.99707	1.29114
808.06851	1.27831
806.13994	1.26188
804.21138	1.26908
802.28281	1.29013
800.35425	1.30400
798.42568	1.31695
796.49712	1.33292
794.56855	1.32512
792.63999	1.28806
790.71143	1.25831
788.78286	1.26747
786.85430	1.33007
784.92573	1.40605
782.99717	1.40891
781.06860	1.36771
779.14004	1.32975
777.21147	1.31054
775.28291	1.32915
773.35435	1.36400
771.42578	1.39888
769.49722	1.44973
767.56865	1.41337
765.64009	1.26508
763.71152	1.20581
761.78296	1.26257
759.85439	1.28497
757.92583	1.24243
755.99727	1.25883
754.06870	1.29927
752.14014	1.22449
750.21157	1.08024
748.28301	1.00835
746.35444	1.04655
744.42588	1.13635
742.49731	1.16839
740.56875	1.07077
738.64019	0.94049
736.71162	0.87896
734.78306	0.87301
732.85449	0.89424
730.92593	0.90039
728.99736	0.84766
727.06880	0.75145
725.14023	0.63816
723.21167	0.56177
721.28311	0.55103
719.35454	0.54705
717.42598	0.44270
715.49741	0.30947
713.56885	0.25150
711.64028	0.25109
709.71172	0.26929
707.78315	0.34946
705.85459	0.62026
703.92603	4.22356
701.99746	0.72025
700.06890	0.21417
698.14033	-0.02071
696.21177	-0.07935
694.28320	0.02011
692.35464	0.10802
690.42607	0.08796
688.49751	0.07285
686.56895	0.12411
684.64038	0.19101
682.71182	0.20944
680.78325	0.23187
678.85469	0.31175
676.92612	0.31847
674.99756	0.29501
673.06899	0.36186
671.14043	0.40568
669.21187	0.34984
667.28330	0.32310
665.35474	0.31216
663.42617	0.24665
661.49761	0.20311
659.56904	0.27053
657.64048	0.30472
655.71191	0.15785
653.78335	0.03264
651.85479	-0.00898
649.92622	-0.01537
647.99766	0.03419
646.06909	0.12314
644.14053	0.21972
642.21196	0.32546
640.28340	0.29555
638.35483	0.15883
636.42627	0.11965
634.49771	0.22397
632.56914	0.34691
630.64058	0.43355
628.71201	0.43870
626.78345	0.32581
624.85488	0.20013
622.92632	0.13064
620.99775	0.14290
619.06919	0.19918
617.14062	0.20257
615.21206	0.21059
613.28350	0.24347
611.35493	0.20021
609.42637	0.14893
607.49780	0.18590
605.56924	0.28958
603.64067	0.33093
601.71211	0.25890
599.78354	0.23986
597.85498	0.30041
595.92642	0.20927
593.99785	0.08248
592.06929	0.05434
590.14072	0.03500
588.21216	0.04894
586.28359	0.12980
584.35503	0.15353
582.42646	0.10079
580.49790	0.10527
578.56934	0.15452
576.64077	0.17055
574.71221	0.13034
572.78364	0.07420
570.85508	0.07586
568.92651	0.13008
566.99795	0.19950
565.06938	0.19256
563.14082	0.14221
561.21226	0.15008
559.28369	0.16800
557.35513	0.14723
555.42656	0.13857
553.49800	0.16537
551.56943	0.19175
549.64087	0.15812
547.71230	0.11633
545.78374	0.09360
543.85518	0.05430
541.92661	0.00705
539.99805	0.00986
538.06948	0.05879
536.14092	0.10527
534.21235	0.12940
532.28379	0.10813
530.35522	0.07165
528.42666	0.03984
526.49810	0.00762
524.56953	0.05275
522.64097	0.18587
520.71240	0.32014
518.78384	0.24699
516.85527	0.15972
514.92671	0.15854
512.99814	0.18924
511.06958	0.20406
509.14102	0.21800
507.21245	0.24042
505.28389	0.23327
503.35532	0.20056
501.42676	0.18085
499.49819	0.18656
