3997.91411	0.06637
3995.98555	0.06630
3994.05698	0.06656
3992.12842	0.06678
3990.19985	0.06702
3988.27129	0.06755
3986.34272	0.06815
3984.41416	0.06859
3982.48560	0.06893
3980.55703	0.06936
3978.62847	0.06972
3976.69990	0.06971
3974.77134	0.06973
3972.84277	0.07014
3970.91421	0.07040
3968.98564	0.07010
3967.05708	0.06975
3965.12852	0.06996
3963.19995	0.07046
3961.27139	0.07061
3959.34282	0.07050
3957.41426	0.07060
3955.48569	0.07082
3953.55713	0.07096
3951.62856	0.07123
3949.70000	0.07191
3947.77144	0.07248
3945.84287	0.07191
3943.91431	0.07086
3941.98574	0.07060
3940.05718	0.07083
3938.12861	0.07079
3936.20005	0.07055
3934.27148	0.07074
3932.34292	0.07165
3930.41436	0.07241
3928.48579	0.07215
3926.55723	0.07163
3924.62866	0.07161
3922.70010	0.07151
3920.77153	0.07115
3918.84297	0.07112
3916.91440	0.07128
3914.98584	0.07106
3913.05728	0.07035
3911.12871	0.06970
3909.20015	0.06941
3907.27158	0.06946
3905.34302	0.07020
3903.41445	0.07153
3901.48589	0.07218
3899.55732	0.07198
3897.62876	0.07151
3895.70020	0.07079
3893.77163	0.07065
3891.84307	0.07161
3889.91450	0.07215
3887.98594	0.07136
3886.05737	0.07087
3884.12881	0.07143
3882.20024	0.07236
3880.27168	0.07286
3878.34312	0.07251
3876.41455	0.07192
3874.48599	0.07196
3872.55742	0.07241
3870.62886	0.07303
3868.70029	0.07409
3866.77173	0.07472
3864.84316	0.07488
3862.91460	0.07513
3860.98604	0.07499
3859.05747	0.07446
3857.12891	0.07430
3855.20034	0.07507
3853.27178	0.07706
3851.34321	0.07884
3849.41465	0.07824
3847.48608	0.07715
3845.55752	0.07695
3843.62896	0.07798
3841.70039	0.07981
3839.77183	0.08154
3837.84326	0.08297
3835.91470	0.08373
3833.98613	0.08337
3832.05757	0.08271
3830.12900	0.08274
3828.20044	0.08330
3826.27187	0.08398
3824.34331	0.08460
3822.41475	0.08570
3820.48618	0.08809
3818.55762	0.08962
3816.62905	0.08980
3814.70049	0.09041
3812.77192	0.09039
3810.84336	0.08964
3808.91479	0.08960
3806.98623	0.09123
3805.05767	0.09361
3803.12910	0.09563
3801.20054	0.09808
3799.27197	0.09956
3797.34341	0.09960
3795.41484	0.10022
3793.48628	0.10073
3791.55771	0.10073
3789.62915	0.10106
3787.70059	0.10202
3785.77202	0.10365
3783.84346	0.10555
3781.91489	0.10742
3779.98633	0.10964
3778.05776	0.11186
3776.12920	0.11296
3774.20063	0.11368
3772.27207	0.11475
3770.34351	0.11642
3768.41494	0.11891
3766.48638	0.12120
3764.55781	0.12287
3762.62925	0.12433
3760.70068	0.12622
3758.77212	0.12916
3756.84355	0.13240
3754.91499	0.13466
3752.98643	0.13709
3751.05786	0.14147
3749.12930	0.14614
3747.20073	0.14790
3745.27217	0.14914
3743.34360	0.15241
3741.41504	0.15625
3739.48647	0.15903
3737.55791	0.16205
3735.62935	0.16646
3733.70078	0.17201
3731.77222	0.17680
3729.84365	0.18044
3727.91509	0.18404
3725.98652	0.18920
3724.05796	0.19615
3722.12939	0.20317
3720.20083	0.20985
3718.27227	0.21656
3716.34370	0.22339
3714.41514	0.23056
3712.48657	0.23960
3710.55801	0.25276
3708.62944	0.26695
3706.70088	0.27781
3704.77231	0.28784
3702.84375	0.30050
3700.91519	0.31746
3698.98662	0.33551
3697.05806	0.35234
3695.12949	0.37061
3693.20093	0.39044
3691.27236	0.41186
3689.34380	0.43895
3687.41523	0.47207
3685.48667	0.50176
3683.55811	0.52750
3681.62954	0.55478
3679.70098	0.58572
3677.77241	0.61866
3675.84385	0.65743
3673.91528	0.70911
3671.98672	0.75157
3670.05815	0.78946
3668.12959	0.84112
3666.20103	0.88806
3664.27246	0.92741
3662.34390	0.97007
3660.41533	1.01686
3658.48677	1.06368
3656.55820	1.11335
3654.62964	1.16750
3652.70107	1.21236
3650.77251	1.25155
3648.84395	1.30588
3646.91538	1.37266
3644.98682	1.42193
3643.05825	1.45953
3641.12969	1.49798
3639.20112	1.54120
3637.27256	1.58577
3635.34399	1.62931
3633.41543	1.67215
3631.48687	1.71186
3629.55830	1.75228
3627.62974	1.80542
3625.70117	1.85519
3623.77261	1.88880
3621.84404	1.92080
3619.91548	1.95790
3617.98691	2.00374
3616.05835	2.04826
3614.12979	2.08427
3612.20122	2.12080
3610.27266	2.15912
3608.34409	2.20004
3606.41553	2.24280
3604.48696	2.28104
3602.55840	2.31575
3600.62983	2.35414
3598.70127	2.39494
3596.77271	2.43347
3594.84414	2.47359
3592.91558	2.51649
3590.98701	2.55630
3589.05845	2.59293
3587.12988	2.63719
3585.20132	2.68588
3583.27275	2.72621
3581.34419	2.76326
3579.41562	2.80326
3577.48706	2.84494
3575.55850	2.88530
3573.62993	2.92650
3571.70137	2.96896
3569.77280	3.01037
3567.84424	3.05384
3565.91567	3.10755
3563.98711	3.15946
3562.05854	3.20000
3560.12998	3.23992
3558.20142	3.28321
3556.27285	3.32771
3554.34429	3.37192
3552.41572	3.41755
3550.48716	3.46423
3548.55859	3.51014
3546.63003	3.55545
3544.70146	3.60330
3542.77290	3.65360
3540.84434	3.70359
3538.91577	3.75303
3536.98721	3.79988
3535.05864	3.84513
3533.13008	3.89008
3531.20151	3.93543
3529.27295	3.98289
3527.34438	4.03419
3525.41582	4.08461
3523.48726	4.13001
3521.55869	4.17769
3519.63013	4.23129
3517.70156	4.28662
3515.77300	4.33755
3513.84443	4.38266
3511.91587	4.42597
3509.98730	4.47139
3508.05874	4.51969
3506.13018	4.56592
3504.20161	4.60952
3502.27305	4.65831
3500.34448	4.71419
3498.41592	4.76790
3496.48735	4.81219
3494.55879	4.85092
3492.63022	4.89256
3490.70166	4.94188
3488.77310	4.99998
3486.84453	5.05604
3484.91597	5.10008
3482.98740	5.14350
3481.05884	5.19700
3479.13027	5.25209
3477.20171	5.30236
3475.27314	5.34996
3473.34458	5.39634
3471.41602	5.44235
3469.48745	5.48797
3467.55889	5.53861
3465.63032	5.59583
3463.70176	5.65223
3461.77319	5.70552
3459.84463	5.75964
3457.91606	5.81672
3455.98750	5.87893
3454.05894	5.93534
3452.13037	5.97862
3450.20181	6.01718
3448.27324	6.05826
3446.34468	6.10860
3444.41611	6.15309
3442.48755	6.18940
3440.55898	6.23245
3438.63042	6.28437
3436.70186	6.34110
3434.77329	6.39558
3432.84473	6.44603
3430.91616	6.50010
3428.98760	6.57178
3427.05903	6.63710
3425.13047	6.67320
3423.20190	6.70543
3421.27334	6.75788
3419.34478	6.83142
3417.41621	6.92181
3415.48765	6.99995
3413.55908	7.02352
3411.63052	7.00566
3409.70195	6.99310
3407.77339	7.02441
3405.84482	7.07670
3403.91626	7.10719
3401.98770	7.13998
3400.05913	7.22137
3398.13057	7.32404
3396.20200	7.40628
3394.27344	7.48488
3392.34487	7.54190
3390.41631	7.57337
3388.48774	7.59909
3386.55918	7.63523
3384.63062	7.66919
3382.70205	7.67118
3380.77349	7.67037
3378.84492	7.70803
3376.91636	7.78233
3374.98779	7.85860
3373.05923	7.90901
3371.13066	7.92144
3369.20210	7.97022
3367.27354	8.06251
3365.34497	8.07962
3363.41641	8.01477
3361.48784	7.98045
3359.55928	8.00308
3357.63071	8.01974
3355.70215	8.01462
3353.77358	8.00981
3351.84502	8.06622
3349.91646	8.14583
3347.98789	8.19655
3346.05933	8.24881
3344.13076	8.26274
3342.20220	8.27339
3340.27363	8.34191
3338.34507	8.36282
3336.41650	8.22565
3334.48794	8.07841
3332.55937	8.05435
3330.63081	8.12137
3328.70225	8.19240
3326.77368	8.27149
3324.84512	8.37285
3322.91655	8.40379
3320.98799	8.37795
3319.05942	8.34897
3317.13086	8.33619
3315.20229	8.34772
3313.27373	8.38890
3311.34517	8.42055
3309.41660	8.42182
3307.48804	8.44637
3305.55947	8.46053
3303.63091	8.42913
3301.70234	8.32633
3299.77378	8.20326
3297.84521	8.20980
3295.91665	8.38541
3293.98809	8.57932
3292.05952	8.64676
3290.13096	8.59736
3288.20239	8.48422
3286.27383	8.39953
3284.34526	8.40536
3282.41670	8.46896
3280.48813	8.47230
3278.55957	8.47776
3276.63101	8.64166
3274.70244	8.82548
3272.77388	8.81890
3270.84531	8.74998
3268.91675	8.63801
3266.98818	8.46618
3265.05962	8.41765
3263.13105	8.44484
3261.20249	8.40660
3259.27393	8.37433
3257.34536	8.40950
3255.41680	8.44509
3253.48823	8.44499
3251.55967	8.52135
3249.63110	8.68275
3247.70254	8.74590
3245.77397	8.66166
3243.84541	8.56230
3241.91685	8.52947
3239.98828	8.55315
3238.05972	8.50545
3236.13115	8.39093
3234.20259	8.38663
3232.27402	8.49679
3230.34546	8.56875
3228.41689	8.52503
3226.48833	8.47717
3224.55977	8.50410
3222.63120	8.56012
3220.70264	8.55721
3218.77407	8.43466
3216.84551	8.32857
3214.91694	8.32025
3212.98838	8.28725
3211.05981	8.21832
3209.13125	8.20312
3207.20269	8.20162
3205.27412	8.12125
3203.34556	7.98456
3201.41699	7.87861
3199.48843	7.82297
3197.55986	7.81096
3195.63130	7.86824
3193.70273	7.95529
3191.77417	7.94425
3189.84561	7.82832
3187.91704	7.71433
3185.98848	7.66148
3184.05991	7.65453
3182.13135	7.61856
3180.20278	7.54076
3178.27422	7.47873
3176.34565	7.42938
3174.41709	7.33757
3172.48853	7.22370
3170.55996	7.14988
3168.63140	7.10511
3166.70283	7.05377
3164.77427	6.99849
3162.84570	6.93109
3160.91714	6.84422
3158.98857	6.77421
3157.06001	6.72500
3155.13145	6.66861
3153.20288	6.60668
3151.27432	6.53592
3149.34575	6.45269
3147.41719	6.37096
3145.48862	6.29626
3143.56006	6.22926
3141.63149	6.15666
3139.70293	6.07257
3137.77437	6.00480
3135.84580	5.95081
3133.91724	5.87503
3131.98867	5.78065
3130.06011	5.69578
3128.13154	5.62253
3126.20298	5.55390
3124.27441	5.48752
3122.34585	5.41570
3120.41729	5.34041
3118.48872	5.26899
3116.56016	5.20207
3114.63159	5.13600
3112.70303	5.06765
3110.77446	4.99630
3108.84590	4.92199
3106.91733	4.84722
3104.98877	4.77164
3103.06021	4.69603
3101.13164	4.62559
3099.20308	4.56124
3097.27451	4.49987
3095.34595	4.43752
3093.41738	4.36889
3091.48882	4.29597
3089.56025	4.22788
3087.63169	4.16725
3085.70312	4.10753
3083.77456	4.04273
3081.84600	3.97470
3079.91743	3.90848
3077.98887	3.84616
3076.06030	3.78645
3074.13174	3.72883
3072.20317	3.67163
3070.27461	3.61195
3068.34604	3.55259
3066.41748	3.49643
3064.48892	3.44127
3062.56035	3.38477
3060.63179	3.32846
3058.70322	3.27415
3056.77466	3.22017
3054.84609	3.16559
3052.91753	3.11172
3050.98896	3.05935
3049.06040	3.00740
3047.13184	2.95520
3045.20327	2.90339
3043.27471	2.85265
3041.34614	2.80353
3039.41758	2.75554
3037.48901	2.70848
3035.56045	2.66319
3033.63188	2.61879
3031.70332	2.57384
3029.77476	2.52901
3027.84619	2.48507
3025.91763	2.44193
3023.98906	2.39937
3022.06050	2.35707
3020.13193	2.31504
3018.20337	2.27347
3016.27480	2.23267
3014.34624	2.19289
3012.41768	2.15408
3010.48911	2.11611
3008.56055	2.07888
3006.63198	2.04239
3004.70342	2.00647
3002.77485	1.97074
3000.84629	1.93539
2998.91772	1.90102
2996.98916	1.86810
2995.06060	1.83621
2993.13203	1.80435
2991.20347	1.77264
2989.27490	1.74168
2987.34634	1.71144
2985.41777	1.68184
2983.48921	1.65309
2981.56064	1.62508
2979.63208	1.59726
2977.70352	1.56985
2975.77495	1.54345
2973.84639	1.51754
2971.91782	1.49152
2969.98926	1.46605
2968.06069	1.44174
2966.13213	1.41784
2964.20356	1.39362
2962.27500	1.36938
2960.34644	1.34528
2958.41787	1.32104
2956.48931	1.29658
2954.56074	1.27243
2952.63218	1.24897
2950.70361	1.22593
2948.77505	1.20353
2946.84648	1.18224
2944.91792	1.16159
2942.98936	1.14099
2941.06079	1.12062
2939.13223	1.10066
2937.20366	1.08089
2935.27510	1.06128
2933.34653	1.04211
2931.41797	1.02294
2929.48940	1.00356
2927.56084	0.98494
2925.63228	0.96730
2923.70371	0.95016
2921.77515	0.93320
2919.84658	0.91626
2917.91802	0.89945
2915.98945	0.88298
2914.06089	0.86667
2912.13232	0.85025
2910.20376	0.83399
2908.27520	0.81843
2906.34663	0.80343
2904.41807	0.78854
2902.48950	0.77428
2900.56094	0.76114
2898.63237	0.74839
2896.70381	0.73532
2894.77524	0.72235
2892.84668	0.70999
2890.91812	0.69800
2888.98955	0.68630
2887.06099	0.67511
2885.13242	0.66439
2883.20386	0.65403
2881.27529	0.64400
2879.34673	0.63413
2877.41816	0.62416
2875.48960	0.61422
2873.56104	0.60439
2871.63247	0.59421
2869.70391	0.58349
2867.77534	0.57268
2865.84678	0.56187
2863.91821	0.55109
2861.98965	0.54091
2860.06108	0.53137
2858.13252	0.52198
2856.20396	0.51263
2854.27539	0.50363
2852.34683	0.49512
2850.41826	0.48679
2848.48970	0.47843
2846.56113	0.47029
2844.63257	0.46263
2842.70400	0.45546
2840.77544	0.44870
2838.84687	0.44223
2836.91831	0.43597
2834.98975	0.42983
2833.06118	0.42392
2831.13262	0.41820
2829.20405	0.41229
2827.27549	0.40619
2825.34692	0.40013
2823.41836	0.39417
2821.48979	0.38830
2819.56123	0.38254
2817.63267	0.37700
2815.70410	0.37157
2813.77554	0.36612
2811.84697	0.36077
2809.91841	0.35551
2807.98984	0.35025
2806.06128	0.34515
2804.13271	0.34019
2802.20415	0.33531
2800.27559	0.33064
2798.34702	0.32603
2796.41846	0.32134
2794.48989	0.31671
2792.56133	0.31224
2790.63276	0.30796
2788.70420	0.30381
2786.77563	0.29962
2784.84707	0.29546
2782.91851	0.29145
2780.98994	0.28746
2779.06138	0.28357
2777.13281	0.27989
2775.20425	0.27618
2773.27568	0.27248
2771.34712	0.26902
2769.41855	0.26566
2767.48999	0.26225
2765.56143	0.25893
2763.63286	0.25559
2761.70430	0.25224
2759.77573	0.24907
2757.84717	0.24602
2755.91860	0.24295
2753.99004	0.23998
2752.06147	0.23714
2750.13291	0.23439
2748.20435	0.23178
2746.27578	0.22917
2744.34722	0.22642
2742.41865	0.22365
2740.49009	0.22093
2738.56152	0.21839
2736.63296	0.21607
2734.70439	0.21369
2732.77583	0.21123
2730.84727	0.20902
2728.91870	0.20702
2726.99014	0.20498
2725.06157	0.20281
2723.13301	0.20072
2721.20444	0.19883
2719.27588	0.19700
2717.34731	0.19511
2715.41875	0.19322
2713.49019	0.19134
2711.56162	0.18942
2709.63306	0.18765
2707.70449	0.18615
2705.77593	0.18482
2703.84736	0.18348
2701.91880	0.18198
2699.99023	0.18038
2698.06167	0.17882
2696.13311	0.17742
2694.20454	0.17620
2692.27598	0.17505
2690.34741	0.17389
2688.41885	0.17269
2686.49028	0.17152
2684.56172	0.17041
2682.63315	0.16930
2680.70459	0.16820
2678.77603	0.16720
2676.84746	0.16627
2674.91890	0.16509
2672.99033	0.16373
2671.06177	0.16263
2669.13320	0.16183
2667.20464	0.16103
2665.27607	0.16009
2663.34751	0.15921
2661.41895	0.15859
2659.49038	0.15800
2657.56182	0.15720
2655.63325	0.15630
2653.70469	0.15549
2651.77612	0.15490
2649.84756	0.15445
2647.91899	0.15393
2645.99043	0.15335
2644.06187	0.15289
2642.13330	0.15242
2640.20474	0.15180
2638.27617	0.15118
2636.34761	0.15083
2634.41904	0.15063
2632.49048	0.15026
2630.56191	0.14969
2628.63335	0.14914
2626.70479	0.14878
2624.77622	0.14859
2622.84766	0.14852
2620.91909	0.14849
2618.99053	0.14825
2617.06196	0.14794
2615.13340	0.14791
2613.20483	0.14787
2611.27627	0.14754
2609.34771	0.14737
2607.41914	0.14750
2605.49058	0.14759
2603.56201	0.14750
2601.63345	0.14739
2599.70488	0.14746
2597.77632	0.14762
2595.84775	0.14767
2593.91919	0.14776
2591.99062	0.14805
2590.06206	0.14831
2588.13350	0.14845
2586.20493	0.14869
2584.27637	0.14902
2582.34780	0.14918
2580.41924	0.14931
2578.49067	0.14959
2576.56211	0.14990
2574.63354	0.15017
2572.70498	0.15053
2570.77642	0.15106
2568.84785	0.15157
2566.91929	0.15185
2564.99072	0.15204
2563.06216	0.15235
2561.13359	0.15280
2559.20503	0.15336
2557.27646	0.15394
2555.34790	0.15448
2553.41934	0.15499
2551.49077	0.15565
2549.56221	0.15635
2547.63364	0.15681
2545.70508	0.15718
2543.77651	0.15782
2541.84795	0.15861
2539.91938	0.15924
2537.99082	0.15981
2536.06226	0.16050
2534.13369	0.16120
2532.20513	0.16182
2530.27656	0.16240
2528.34800	0.16302
2526.41943	0.16365
2524.49087	0.16439
2522.56230	0.16532
2520.63374	0.16625
2518.70518	0.16701
2516.77661	0.16767
2514.84805	0.16830
2512.91948	0.16901
2510.99092	0.16989
2509.06235	0.17079
2507.13379	0.17155
2505.20522	0.17242
2503.27666	0.17344
2501.34810	0.17432
2499.41953	0.17503
2497.49097	0.17570
2495.56240	0.17636
2493.63384	0.17714
2491.70527	0.17806
2489.77671	0.17903
2487.84814	0.17994
2485.91958	0.18080
2483.99102	0.18171
2482.06245	0.18270
2480.13389	0.18362
2478.20532	0.18448
2476.27676	0.18536
2474.34819	0.18623
2472.41963	0.18693
2470.49106	0.18768
2468.56250	0.18873
2466.63394	0.18987
2464.70537	0.19088
2462.77681	0.19178
2460.84824	0.19266
2458.91968	0.19358
2456.99111	0.19457
2455.06255	0.19566
2453.13398	0.19677
2451.20542	0.19772
2449.27686	0.19859
2447.34829	0.19954
2445.41973	0.20048
2443.49116	0.20142
2441.56260	0.20253
2439.63403	0.20367
2437.70547	0.20463
2435.77690	0.20557
2433.84834	0.20666
2431.91978	0.20780
2429.99121	0.20890
2428.06265	0.20995
2426.13408	0.21106
2424.20552	0.21217
2422.27695	0.21315
2420.34839	0.21404
2418.41982	0.21502
2416.49126	0.21611
2414.56270	0.21726
2412.63413	0.21849
2410.70557	0.21971
2408.77700	0.22087
2406.84844	0.22217
2404.91987	0.22355
2402.99131	0.22475
2401.06274	0.22584
2399.13418	0.22703
2397.20562	0.22826
2395.27705	0.22951
2393.34849	0.23081
2391.41992	0.23211
2389.49136	0.23335
2387.56279	0.23458
2385.63423	0.23600
2383.70566	0.23774
2381.77710	0.23978
2379.84854	0.24214
2377.91997	0.24466
2375.99141	0.24702
2374.06284	0.24916
2372.13428	0.25153
2370.20571	0.25446
2368.27715	0.25807
2366.34858	0.26237
2364.42002	0.26655
2362.49146	0.26913
2360.56289	0.26990
2358.63433	0.27058
2356.70576	0.27194
2354.77720	0.27287
2352.84863	0.27269
2350.92007	0.27195
2348.99150	0.27162
2347.06294	0.27224
2345.13437	0.27430
2343.20581	0.27765
2341.27725	0.28089
2339.34868	0.28325
2337.42012	0.28507
2335.49155	0.28633
2333.56299	0.28664
2331.63442	0.28686
2329.70586	0.28778
2327.77729	0.28926
2325.84873	0.29107
2323.92017	0.29275
2321.99160	0.29382
2320.06304	0.29467
2318.13447	0.29562
2316.20591	0.29656
2314.27734	0.29760
2312.34878	0.29889
2310.42021	0.30043
2308.49165	0.30191
2306.56309	0.30316
2304.63452	0.30440
2302.70596	0.30588
2300.77739	0.30739
2298.84883	0.30889
2296.92026	0.31064
2294.99170	0.31257
2293.06313	0.31430
2291.13457	0.31578
2289.20601	0.31736
2287.27744	0.31919
2285.34888	0.32108
2283.42031	0.32300
2281.49175	0.32495
2279.56318	0.32697
2277.63462	0.32903
2275.70605	0.33108
2273.77749	0.33307
2271.84893	0.33508
2269.92036	0.33714
2267.99180	0.33923
2266.06323	0.34138
2264.13467	0.34348
2262.20610	0.34547
2260.27754	0.34752
2258.34897	0.34969
2256.42041	0.35184
2254.49185	0.35397
2252.56328	0.35621
2250.63472	0.35842
2248.70615	0.36047
2246.77759	0.36254
2244.84902	0.36482
2242.92046	0.36716
2240.99189	0.36939
2239.06333	0.37152
2237.13477	0.37374
2235.20620	0.37606
2233.27764	0.37828
2231.34907	0.38036
2229.42051	0.38247
2227.49194	0.38478
2225.56338	0.38723
2223.63481	0.38957
2221.70625	0.39170
2219.77769	0.39389
2217.84912	0.39620
2215.92056	0.39839
2213.99199	0.40043
2212.06343	0.40252
2210.13486	0.40467
2208.20630	0.40671
2206.27773	0.40875
2204.34917	0.41092
2202.42061	0.41316
2200.49204	0.41528
2198.56348	0.41722
2196.63491	0.41912
2194.70635	0.42109
2192.77778	0.42305
2190.84922	0.42488
2188.92065	0.42663
2186.99209	0.42829
2185.06353	0.42999
2183.13496	0.43187
2181.20640	0.43373
2179.27783	0.43537
2177.34927	0.43684
2175.42070	0.43831
2173.49214	0.43974
2171.56357	0.44105
2169.63501	0.44241
2167.70645	0.44386
2165.77788	0.44511
2163.84932	0.44617
2161.92075	0.44732
2159.99219	0.44849
2158.06362	0.44948
2156.13506	0.45038
2154.20649	0.45126
2152.27793	0.45202
2150.34937	0.45272
2148.42080	0.45348
2146.49224	0.45415
2144.56367	0.45456
2142.63511	0.45487
2140.70654	0.45520
2138.77798	0.45541
2136.84941	0.45545
2134.92085	0.45551
2132.99229	0.45559
2131.06372	0.45556
2129.13516	0.45539
2127.20659	0.45515
2125.27803	0.45484
2123.34946	0.45440
2121.42090	0.45379
2119.49233	0.45309
2117.56377	0.45243
2115.63521	0.45174
2113.70664	0.45093
2111.77808	0.44999
2109.84951	0.44897
2107.92095	0.44794
2105.99238	0.44688
2104.06382	0.44567
2102.13525	0.44422
2100.20669	0.44271
2098.27812	0.44131
2096.34956	0.43986
2094.42100	0.43819
2092.49243	0.43651
2090.56387	0.43496
2088.63530	0.43337
2086.70674	0.43158
2084.77817	0.42962
2082.84961	0.42765
2080.92104	0.42570
2078.99248	0.42366
2077.06392	0.42146
2075.13535	0.41920
2073.20679	0.41698
2071.27822	0.41479
2069.34966	0.41261
2067.42109	0.41045
2065.49253	0.40825
2063.56396	0.40587
2061.63540	0.40332
2059.70684	0.40071
2057.77827	0.39812
2055.84971	0.39557
2053.92114	0.39302
2051.99258	0.39038
2050.06401	0.38766
2048.13545	0.38500
2046.20688	0.38237
2044.27832	0.37969
2042.34976	0.37697
2040.42119	0.37423
2038.49263	0.37150
2036.56406	0.36886
2034.63550	0.36621
2032.70693	0.36343
2030.77837	0.36055
2028.84980	0.35761
2026.92124	0.35477
2024.99268	0.35209
2023.06411	0.34944
2021.13555	0.34669
2019.20698	0.34394
2017.27842	0.34130
2015.34985	0.33859
2013.42129	0.33581
2011.49272	0.33309
2009.56416	0.33037
2007.63560	0.32762
2005.70703	0.32493
2003.77847	0.32227
2001.84990	0.31957
1999.92134	0.31695
1997.99277	0.31437
1996.06421	0.31178
1994.13564	0.30938
1992.20708	0.30706
1990.27852	0.30450
1988.34995	0.30184
1986.42139	0.29926
1984.49282	0.29679
1982.56426	0.29446
1980.63569	0.29223
1978.70713	0.29002
1976.77856	0.28781
1974.85000	0.28567
1972.92144	0.28359
1970.99287	0.28158
1969.06431	0.27961
1967.13574	0.27763
1965.20718	0.27557
1963.27861	0.27349
1961.35005	0.27149
1959.42148	0.26961
1957.49292	0.26788
1955.56436	0.26618
1953.63579	0.26443
1951.70723	0.26265
1949.77866	0.26084
1947.85010	0.25920
1945.92153	0.25793
1943.99297	0.25674
1942.06440	0.25530
1940.13584	0.25373
1938.20728	0.25229
1936.27871	0.25096
1934.35015	0.24965
1932.42158	0.24841
1930.49302	0.24721
1928.56445	0.24604
1926.63589	0.24496
1924.70732	0.24409
1922.77876	0.24332
1920.85020	0.24251
1918.92163	0.24171
1916.99307	0.24072
1915.06450	0.23950
1913.13594	0.23848
1911.20737	0.23790
1909.27881	0.23741
1907.35024	0.23673
1905.42168	0.23595
1903.49312	0.23529
1901.56455	0.23472
1899.63599	0.23420
1897.70742	0.23381
1895.77886	0.23353
1893.85029	0.23322
1891.92173	0.23284
1889.99316	0.23262
1888.06460	0.23241
1886.13604	0.23211
1884.20747	0.23188
1882.27891	0.23169
1880.35034	0.23157
1878.42178	0.23156
1876.49321	0.23162
1874.56465	0.23166
1872.63608	0.23174
1870.70752	0.23204
1868.77896	0.23276
1866.85039	0.23320
1864.92183	0.23300
1862.99326	0.23287
1861.06470	0.23301
1859.13613	0.23337
1857.20757	0.23383
1855.27900	0.23433
1853.35044	0.23473
1851.42187	0.23514
1849.49331	0.23570
1847.56475	0.23649
1845.63618	0.23748
1843.70762	0.23847
1841.77905	0.23903
1839.85049	0.23937
1837.92192	0.24015
1835.99336	0.24117
1834.06479	0.24223
1832.13623	0.24338
1830.20767	0.24492
1828.27910	0.24638
1826.35054	0.24733
1824.42197	0.24845
1822.49341	0.24957
1820.56484	0.25073
1818.63628	0.25214
1816.70771	0.25384
1814.77915	0.25560
1812.85059	0.25749
1810.92202	0.25953
1808.99346	0.26148
1807.06489	0.26328
1805.13633	0.26513
1803.20776	0.26751
1801.27920	0.27035
1799.35063	0.27322
1797.42207	0.27550
1795.49351	0.27771
1793.56494	0.28059
1791.63638	0.28436
1789.70781	0.28780
1787.77925	0.29029
1785.85068	0.29331
1783.92212	0.29699
1781.99355	0.30094
1780.06499	0.30513
1778.13643	0.30945
1776.20786	0.31353
1774.27930	0.31792
1772.35073	0.32382
1770.42217	0.33011
1768.49360	0.33536
1766.56504	0.34046
1764.63647	0.34573
1762.70791	0.35155
1760.77935	0.35903
1758.85078	0.36623
1756.92222	0.37346
1754.99365	0.38124
1753.06509	0.38836
1751.13652	0.39695
1749.20796	0.40772
1747.27939	0.41830
1745.35083	0.42758
1743.42227	0.43731
1741.49370	0.44798
1739.56514	0.46043
1737.63657	0.47291
1735.70801	0.48403
1733.77944	0.50062
1731.85088	0.52010
1729.92231	0.53541
1727.99375	0.55098
1726.06519	0.56769
1724.13662	0.58592
1722.20806	0.60575
1720.27949	0.62433
1718.35093	0.64633
1716.42236	0.67859
1714.49380	0.70886
1712.56523	0.73321
1710.63667	0.75684
1708.70811	0.78226
1706.77954	0.81124
1704.85098	0.84619
1702.92241	0.87756
1700.99385	0.90871
1699.06528	0.95528
1697.13672	0.99818
1695.20815	1.04166
1693.27959	1.08373
1691.35103	1.11789
1689.42246	1.15746
1687.49390	1.19927
1685.56533	1.24005
1683.63677	1.30255
1681.70820	1.36631
1679.77964	1.40713
1677.85107	1.44668
1675.92251	1.49295
1673.99395	1.54990
1672.06538	1.59972
1670.13682	1.64870
1668.20825	1.71209
1666.27969	1.76303
1664.35112	1.80714
1662.42256	1.86360
1660.49399	1.92634
1658.56543	1.97460
1656.63687	2.01396
1654.70830	2.05123
1652.77974	2.10928
1650.85117	2.16137
1648.92261	2.17903
1646.99404	2.20330
1645.06548	2.23262
1643.13691	2.25217
1641.20835	2.26202
1639.27979	2.26956
1637.35122	2.27431
1635.42266	2.27365
1633.49409	2.26388
1631.56553	2.24819
1629.63696	2.23057
1627.70840	2.20360
1625.77983	2.17271
1623.85127	2.13300
1621.92271	2.08200
1619.99414	2.03599
1618.06558	1.99224
1616.13701	1.92988
1614.20845	1.86538
1612.27988	1.81631
1610.35132	1.76580
1608.42275	1.71190
1606.49419	1.65913
1604.56562	1.60928
1602.63706	1.56030
1600.70850	1.51339
1598.77993	1.47109
1596.85137	1.43113
1594.92280	1.39161
1592.99424	1.35335
1591.06567	1.31871
1589.13711	1.28618
1587.20854	1.25551
1585.27998	1.22712
1583.35142	1.20073
1581.42285	1.17668
1579.49429	1.15627
1577.56572	1.13843
1575.63716	1.11716
1573.70859	1.09806
1571.78003	1.08540
1569.85146	1.07235
1567.92290	1.05810
1565.99434	1.04802
1564.06577	1.04073
1562.13721	1.03494
1560.20864	1.03096
1558.28008	1.02741
1556.35151	1.02517
1554.42295	1.02332
1552.49438	1.02090
1550.56582	1.01723
1548.63726	1.01173
1546.70869	1.00485
1544.78013	0.99616
1542.85156	0.98541
1540.92300	0.97060
1538.99443	0.94677
1537.06587	0.92845
1535.13730	0.91621
1533.20874	0.90069
1531.28018	0.88393
1529.35161	0.87143
1527.42305	0.85989
1525.49448	0.84829
1523.56592	0.83861
1521.63735	0.82924
1519.70879	0.81896
1517.78022	0.81010
1515.85166	0.80032
1513.92310	0.78978
1511.99453	0.78055
1510.06597	0.77257
1508.13740	0.76522
1506.20884	0.75391
1504.28027	0.74333
1502.35171	0.73711
1500.42314	0.73182
1498.49458	0.72631
1496.56602	0.71978
1494.63745	0.71330
1492.70889	0.70850
1490.78032	0.70448
1488.85176	0.69962
1486.92319	0.69460
1484.99463	0.69047
1483.06606	0.68727
1481.13750	0.68470
1479.20894	0.68276
1477.28037	0.68162
1475.35181	0.68108
1473.42324	0.68071
1471.49468	0.67919
1469.56611	0.67656
1467.63755	0.67405
1465.70898	0.67190
1463.78042	0.67010
1461.85186	0.66895
1459.92329	0.66861
1457.99473	0.66889
1456.06616	0.66795
1454.13760	0.66484
1452.20903	0.66176
1450.28047	0.65920
1448.35190	0.65697
1446.42334	0.65449
1444.49478	0.65194
1442.56621	0.64955
1440.63765	0.64717
1438.70908	0.64493
1436.78052	0.64223
1434.85195	0.63872
1432.92339	0.63578
1430.99482	0.63386
1429.06626	0.63254
1427.13770	0.63165
1425.20913	0.63131
1423.28057	0.63143
1421.35200	0.63158
1419.42344	0.63149
1417.49487	0.63076
1415.56631	0.62934
1413.63774	0.62812
1411.70918	0.62759
1409.78062	0.62779
1407.85205	0.62841
1405.92349	0.62926
1403.99492	0.62990
1402.06636	0.62979
1400.13779	0.62922
1398.20923	0.62815
1396.28066	0.62621
1394.35210	0.62311
1392.42354	0.61941
1390.49497	0.61611
1388.56641	0.61307
1386.63784	0.60951
1384.70928	0.60552
1382.78071	0.60174
1380.85215	0.59822
1378.92358	0.59510
1376.99502	0.59273
1375.06646	0.59117
1373.13789	0.58998
1371.20933	0.58884
1369.28076	0.58779
1367.35220	0.58657
1365.42363	0.58527
1363.49507	0.58415
1361.56650	0.58285
1359.63794	0.58118
1357.70937	0.57968
1355.78081	0.57854
1353.85225	0.57772
1351.92368	0.57705
1349.99512	0.57631
1348.06655	0.57539
1346.13799	0.57455
1344.20942	0.57395
1342.28086	0.57332
1340.35229	0.57259
1338.42373	0.57186
1336.49517	0.57121
1334.56660	0.57061
1332.63804	0.57018
1330.70947	0.57003
1328.78091	0.57007
1326.85234	0.57015
1324.92378	0.57025
1322.99521	0.57032
1321.06665	0.57035
1319.13809	0.57044
1317.20952	0.57046
1315.28096	0.57018
1313.35239	0.56966
1311.42383	0.56921
1309.49526	0.56886
1307.56670	0.56832
1305.63813	0.56764
1303.70957	0.56710
1301.78101	0.56670
1299.85244	0.56604
1297.92388	0.56509
1295.99531	0.56411
1294.06675	0.56308
1292.13818	0.56192
1290.20962	0.56078
1288.28105	0.55985
1286.35249	0.55894
1284.42393	0.55786
1282.49536	0.55675
1280.56680	0.55570
1278.63823	0.55466
1276.70967	0.55366
1274.78110	0.55280
1272.85254	0.55219
1270.92397	0.55171
1268.99541	0.55095
1267.06685	0.54991
1265.13828	0.54896
1263.20972	0.54835
1261.28115	0.54788
1259.35259	0.54726
1257.42402	0.54656
1255.49546	0.54601
1253.56689	0.54575
1251.63833	0.54576
1249.70977	0.54577
1247.78120	0.54558
1245.85264	0.54531
1243.92407	0.54487
1241.99551	0.54408
1240.06694	0.54298
1238.13838	0.54157
1236.20981	0.53997
1234.28125	0.53834
1232.35269	0.53663
1230.42412	0.53491
1228.49556	0.53332
1226.56699	0.53187
1224.63843	0.53055
1222.70986	0.52931
1220.78130	0.52817
1218.85273	0.52711
1216.92417	0.52603
1214.99561	0.52504
1213.06704	0.52422
1211.13848	0.52345
1209.20991	0.52268
1207.28135	0.52201
1205.35278	0.52138
1203.42422	0.52070
1201.49565	0.51987
1199.56709	0.51884
1197.63853	0.51787
1195.70996	0.51719
1193.78140	0.51680
1191.85283	0.51643
1189.92427	0.51594
1187.99570	0.51558
1186.06714	0.51553
1184.13857	0.51559
1182.21001	0.51574
1180.28145	0.51619
1178.35288	0.51706
1176.42432	0.51819
1174.49575	0.51908
1172.56719	0.51952
1170.63862	0.51973
1168.71006	0.51974
1166.78149	0.51955
1164.85293	0.51937
1162.92437	0.51932
1160.99580	0.51917
1159.06724	0.51868
1157.13867	0.51793
1155.21011	0.51704
1153.28154	0.51591
1151.35298	0.51440
1149.42441	0.51239
1147.49585	0.51013
1145.56729	0.50787
1143.63872	0.50554
1141.71016	0.50314
1139.78159	0.50095
1137.85303	0.49915
1135.92446	0.49771
1133.99590	0.49649
1132.06733	0.49545
1130.13877	0.49448
1128.21021	0.49341
1126.28164	0.49235
1124.35308	0.49137
1122.42451	0.49048
1120.49595	0.48988
1118.56738	0.48948
1116.63882	0.48926
1114.71025	0.48937
1112.78169	0.48975
1110.85312	0.49037
1108.92456	0.49105
1106.99600	0.49173
1105.06743	0.49279
1103.13887	0.49422
1101.21030	0.49572
1099.28174	0.49739
1097.35317	0.49949
1095.42461	0.50211
1093.49604	0.50547
1091.56748	0.50984
1089.63892	0.51511
1087.71035	0.52094
1085.78179	0.52733
1083.85322	0.53418
1081.92466	0.54065
1079.99609	0.54576
1078.06753	0.54896
1076.13896	0.54974
1074.21040	0.54796
1072.28184	0.54397
1070.35327	0.53817
1068.42471	0.53129
1066.49614	0.52434
1064.56758	0.51794
1062.63901	0.51219
1060.71045	0.50700
1058.78188	0.50248
1056.85332	0.49850
1054.92476	0.49482
1052.99619	0.49161
1051.06763	0.48917
1049.13906	0.48737
1047.21050	0.48565
1045.28193	0.48405
1043.35337	0.48300
1041.42480	0.48230
1039.49624	0.48151
1037.56768	0.48073
1035.63911	0.48036
1033.71055	0.48038
1031.78198	0.48035
1029.85342	0.48018
1027.92485	0.47996
1025.99629	0.47973
1024.06772	0.47959
1022.13916	0.47954
1020.21060	0.47961
1018.28203	0.48001
1016.35347	0.48077
1014.42490	0.48176
1012.49634	0.48273
1010.56777	0.48367
1008.63921	0.48468
1006.71064	0.48590
1004.78208	0.48753
1002.85352	0.48970
1000.92495	0.49250
998.99639	0.49588
997.06782	0.49973
995.13926	0.50372
993.21069	0.50750
991.28213	0.51081
989.35356	0.51326
987.42500	0.51480
985.49644	0.51570
983.56787	0.51629
981.63931	0.51711
979.71074	0.51846
977.78218	0.52017
975.85361	0.52225
973.92505	0.52507
971.99648	0.52849
970.06792	0.53189
968.13936	0.53543
966.21079	0.53952
964.28223	0.54406
962.35366	0.54898
960.42510	0.55424
958.49653	0.55974
956.56797	0.56553
954.63940	0.57163
952.71084	0.57811
950.78228	0.58491
948.85371	0.59153
946.92515	0.59746
944.99658	0.60299
943.06802	0.60912
941.13945	0.61600
939.21089	0.62265
937.28232	0.62846
935.35376	0.63382
933.42520	0.63922
931.49663	0.64469
929.56807	0.65024
927.63950	0.65602
925.71094	0.66245
923.78237	0.66942
921.85381	0.67577
919.92524	0.68176
917.99668	0.68876
916.06812	0.69647
914.13955	0.70443
912.21099	0.71281
910.28242	0.72125
908.35386	0.72999
906.42529	0.73930
904.49673	0.74861
902.56816	0.75782
900.63960	0.76710
898.71104	0.77595
896.78247	0.78476
894.85391	0.79530
892.92534	0.80721
890.99678	0.81878
889.06821	0.83048
887.13965	0.84164
885.21108	0.85059
883.28252	0.86021
881.35396	0.87307
879.42539	0.88714
877.49683	0.90006
875.56826	0.91161
873.63970	0.92176
871.71113	0.93060
869.78257	0.94130
867.85400	0.95543
865.92544	0.96865
863.99687	0.97963
862.06831	0.99159
860.13975	1.00419
858.21118	1.01516
856.28262	1.02467
854.35405	1.03541
852.42549	1.04854
850.49692	1.06183
848.56836	1.07567
846.63979	1.09088
844.71123	1.10209
842.78267	1.10910
840.85410	1.11965
838.92554	1.13250
836.99697	1.14391
835.06841	1.15655
833.13984	1.16991
831.21128	1.18364
829.28271	1.19868
827.35415	1.21449
825.42559	1.23219
823.49702	1.24845
821.56846	1.25647
819.63989	1.25982
817.71133	1.26754
815.78276	1.28286
813.85420	1.30380
811.92563	1.32994
809.99707	1.36162
808.06851	1.38568
806.13994	1.39428
804.21138	1.39995
802.28281	1.41733
800.35425	1.46032
798.42568	1.52240
796.49712	1.54472
794.56855	1.50792
792.63999	1.52421
790.71143	1.69571
788.78286	2.04573
786.85430	2.19585
784.92573	2.06373
782.99717	2.17798
781.06860	2.89662
779.14004	2.21895
777.21147	1.85574
775.28291	1.77725
773.35435	1.68705
771.42578	1.51878
769.49722	1.42862
767.56865	1.49805
765.64009	1.65839
763.71152	1.57639
761.78296	1.40284
759.85439	1.41651
757.92583	1.59475
755.99727	1.63823
754.06870	1.36350
752.14014	1.14364
750.21157	1.05495
748.28301	1.11492
746.35444	1.27824
744.42588	1.42557
742.49731	1.32888
740.56875	1.02536
738.64019	0.77382
736.71162	0.62344
734.78306	0.57809
732.85449	0.56819
730.92593	0.44792
728.99736	0.17494
727.06880	-0.20431
725.14023	4.35084
723.21167	4.33927
721.28311	4.32770
719.35454	4.31613
717.42598	-0.42346
715.49741	-0.00811
713.56885	0.16556
711.64028	0.28064
709.71172	0.35938
707.78315	0.37923
705.85459	0.42073
703.92603	0.52027
701.99746	0.53721
700.06890	0.44554
698.14033	0.38605
696.21177	0.35536
694.28320	0.35772
692.35464	0.41814
690.42607	0.52098
688.49751	0.61300
686.56895	0.61146
684.64038	0.53668
682.71182	0.47770
680.78325	0.45178
678.85469	0.39762
676.92612	0.35308
674.99756	0.40555
673.06899	0.46667
671.14043	0.42297
669.21187	0.39230
667.28330	0.41886
665.35474	0.46852
663.42617	0.47959
661.49761	0.43225
659.56904	0.40912
657.64048	0.40187
655.71191	0.36180
653.78335	0.32645
651.85479	0.31092
649.92622	0.30175
647.99766	0.32800
646.06909	0.43654
644.14053	0.60290
642.21196	0.54293
640.28340	0.38907
638.35483	0.35162
636.42627	0.40226
634.49771	0.43214
632.56914	0.37078
630.64058	0.32886
628.71201	0.36761
626.78345	0.43392
624.85488	0.44342
622.92632	0.40881
620.99775	0.38852
619.06919	0.38581
617.14062	0.37996
615.21206	0.35823
613.28350	0.32430
611.35493	0.30906
609.42637	0.31473
607.49780	0.34446
605.56924	0.41725
603.64067	0.51018
601.71211	0.49056
599.78354	0.38269
597.85498	0.33300
595.92642	0.34287
593.99785	0.35191
592.06929	0.35540
590.14072	0.38530
588.21216	0.43652
586.28359	0.41878
584.35503	0.30986
582.42646	0.24506
580.49790	0.25386
578.56934	0.26872
576.64077	0.26791
574.71221	0.24974
572.78364	0.22268
570.85508	0.24353
568.92651	0.30374
566.99795	0.34481
565.06938	0.31023
563.14082	0.25215
561.21226	0.26176
559.28369	0.34934
557.35513	0.41894
555.42656	0.41241
553.49800	0.39601
551.56943	0.35695
549.64087	0.29585
547.71230	0.25686
545.78374	0.26636
543.85518	0.32521
541.92661	0.35606
539.99805	0.30212
538.06948	0.25840
536.14092	0.27850
534.21235	0.36162
532.28379	0.43785
530.35522	0.41195
528.42666	0.35419
526.49810	0.31967
524.56953	0.29347
522.64097	0.27450
520.71240	0.29465
518.78384	0.38027
516.85527	0.52583
514.92671	0.53494
512.99814	0.38487
511.06958	0.29397
509.14102	0.27488
507.21245	0.25947
505.28389	0.19449
503.35532	0.15919
501.42676	0.20576
499.49819	0.28749
