3997.91411	0.06720
3995.98555	0.06746
3994.05698	0.06741
3992.12842	0.06760
3990.19985	0.06784
3988.27129	0.06788
3986.34272	0.06809
3984.41416	0.06874
3982.48560	0.06932
3980.55703	0.06958
3978.62847	0.06971
3976.69990	0.06978
3974.77134	0.06975
3972.84277	0.06968
3970.91421	0.06978
3968.98564	0.06997
3967.05708	0.07001
3965.12852	0.07007
3963.19995	0.07036
3961.27139	0.07074
3959.34282	0.07103
3957.41426	0.07102
3955.48569	0.07073
3953.55713	0.07055
3951.62856	0.07073
3949.70000	0.07129
3947.77144	0.07167
3945.84287	0.07156
3943.91431	0.07160
3941.98574	0.07181
3940.05718	0.07149
3938.12861	0.07095
3936.20005	0.07068
3934.27148	0.07082
3932.34292	0.07144
3930.41436	0.07202
3928.48579	0.07190
3926.55723	0.07136
3924.62866	0.07092
3922.70010	0.07040
3920.77153	0.06982
3918.84297	0.06980
3916.91440	0.07052
3914.98584	0.07101
3913.05728	0.07070
3911.12871	0.07041
3909.20015	0.07044
3907.27158	0.07049
3905.34302	0.07081
3903.41445	0.07147
3901.48589	0.07191
3899.55732	0.07212
3897.62876	0.07214
3895.70020	0.07150
3893.77163	0.07071
3891.84307	0.07048
3889.91450	0.07055
3887.98594	0.07061
3886.05737	0.07117
3884.12881	0.07203
3882.20024	0.07225
3880.27168	0.07209
3878.34312	0.07183
3876.41455	0.07163
3874.48599	0.07212
3872.55742	0.07294
3870.62886	0.07346
3868.70029	0.07394
3866.77173	0.07396
3864.84316	0.07397
3862.91460	0.07431
3860.98604	0.07421
3859.05747	0.07407
3857.12891	0.07440
3855.20034	0.07519
3853.27178	0.07665
3851.34321	0.07742
3849.41465	0.07657
3847.48608	0.07621
3845.55752	0.07664
3843.62896	0.07744
3841.70039	0.07852
3839.77183	0.07971
3837.84326	0.08089
3835.91470	0.08176
3833.98613	0.08223
3832.05757	0.08254
3830.12900	0.08294
3828.20044	0.08363
3826.27187	0.08450
3824.34331	0.08523
3822.41475	0.08592
3820.48618	0.08731
3818.55762	0.08857
3816.62905	0.08881
3814.70049	0.08927
3812.77192	0.08985
3810.84336	0.09003
3808.91479	0.09029
3806.98623	0.09147
3805.05767	0.09365
3803.12910	0.09556
3801.20054	0.09718
3799.27197	0.09849
3797.34341	0.09942
3795.41484	0.10052
3793.48628	0.10105
3791.55771	0.10095
3789.62915	0.10124
3787.70059	0.10251
3785.77202	0.10462
3783.84346	0.10671
3781.91489	0.10811
3779.98633	0.10937
3778.05776	0.11096
3776.12920	0.11235
3774.20063	0.11354
3772.27207	0.11509
3770.34351	0.11745
3768.41494	0.12018
3766.48638	0.12211
3764.55781	0.12367
3762.62925	0.12534
3760.70068	0.12741
3758.77212	0.13014
3756.84355	0.13282
3754.91499	0.13497
3752.98643	0.13742
3751.05786	0.14120
3749.12930	0.14557
3747.20073	0.14814
3745.27217	0.15016
3743.34360	0.15345
3741.41504	0.15661
3739.48647	0.15931
3737.55791	0.16329
3735.62935	0.16909
3733.70078	0.17538
3731.77222	0.18007
3729.84365	0.18370
3727.91509	0.18764
3725.98652	0.19296
3724.05796	0.19969
3722.12939	0.20692
3720.20083	0.21366
3718.27227	0.21971
3716.34370	0.22623
3714.41514	0.23354
3712.48657	0.24254
3710.55801	0.25558
3708.62944	0.27024
3706.70088	0.28231
3704.77231	0.29352
3702.84375	0.30667
3700.91519	0.32386
3698.98662	0.34257
3697.05806	0.35991
3695.12949	0.37787
3693.20093	0.39709
3691.27236	0.41821
3689.34380	0.44526
3687.41523	0.47908
3685.48667	0.50962
3683.55811	0.53581
3681.62954	0.56366
3679.70098	0.59499
3677.77241	0.62765
3675.84385	0.66586
3673.91528	0.71749
3671.98672	0.76086
3670.05815	0.79985
3668.12959	0.85256
3666.20103	0.90067
3664.27246	0.94092
3662.34390	0.98377
3660.41533	1.02982
3658.48677	1.07539
3656.55820	1.12402
3654.62964	1.17803
3652.70107	1.22303
3650.77251	1.26157
3648.84395	1.31577
3646.91538	1.38446
3644.98682	1.43494
3643.05825	1.47264
3641.12969	1.51081
3639.20112	1.55366
3637.27256	1.59825
3635.34399	1.64200
3633.41543	1.68471
3631.48687	1.72394
3629.55830	1.76358
3627.62974	1.81649
3625.70117	1.86685
3623.77261	1.90048
3621.84404	1.93221
3619.91548	1.96875
3617.98691	2.01312
3616.05835	2.05651
3614.12979	2.09288
3612.20122	2.12963
3610.27266	2.16600
3608.34409	2.20425
3606.41553	2.24668
3604.48696	2.28684
3602.55840	2.32268
3600.62983	2.35986
3598.70127	2.40014
3596.77271	2.44132
3594.84414	2.48319
3592.91558	2.52453
3590.98701	2.56191
3589.05845	2.59665
3587.12988	2.63926
3585.20132	2.68666
3583.27275	2.72769
3581.34419	2.76761
3579.41562	2.81059
3577.48706	2.85391
3575.55850	2.89571
3573.62993	2.93808
3571.70137	2.97906
3569.77280	3.01607
3567.84424	3.05442
3565.91567	3.10549
3563.98711	3.15838
3562.05854	3.20209
3560.12998	3.24461
3558.20142	3.28714
3556.27285	3.32880
3554.34429	3.37126
3552.41572	3.41828
3550.48716	3.46810
3548.55859	3.51475
3546.63003	3.55761
3544.70146	3.60306
3542.77290	3.65361
3540.84434	3.70306
3538.91577	3.74908
3536.98721	3.79434
3535.05864	3.84344
3533.13008	3.89503
3531.20151	3.94583
3529.27295	3.99556
3527.34438	4.04374
3525.41582	4.08855
3523.48726	4.13264
3521.55869	4.18140
3519.63013	4.23271
3517.70156	4.28413
3515.77300	4.33479
3513.84443	4.38098
3511.91587	4.42361
3509.98730	4.47005
3508.05874	4.52090
3506.13018	4.57045
3504.20161	4.61555
3502.27305	4.65810
3500.34448	4.70311
3498.41592	4.75192
3496.48735	4.80231
3494.55879	4.85085
3492.63022	4.89753
3490.70166	4.94269
3488.77310	4.99162
3486.84453	5.04998
3484.91597	5.10365
3482.98740	5.14520
3481.05884	5.19243
3479.13027	5.24329
3477.20171	5.28200
3475.27314	5.32057
3473.34458	5.36809
3471.41602	5.41866
3469.48745	5.47227
3467.55889	5.52677
3465.63032	5.58442
3463.70176	5.64559
3461.77319	5.69199
3459.84463	5.72570
3457.91606	5.77313
3455.98750	5.84249
3454.05894	5.91133
3452.13037	5.96299
3450.20181	6.00753
3448.27324	6.04918
3446.34468	6.08428
3444.41611	6.11016
3442.48755	6.14754
3440.55898	6.21623
3438.63042	6.29444
3436.70186	6.35699
3434.77329	6.40416
3432.84473	6.43971
3430.91616	6.47748
3428.98760	6.53157
3427.05903	6.58650
3425.13047	6.63860
3423.20190	6.68501
3421.27334	6.72995
3419.34478	6.78746
3417.41621	6.83464
3415.48765	6.87537
3413.55908	6.94027
3411.63052	7.01300
3409.70195	7.07201
3407.77339	7.13145
3405.84482	7.17645
3403.91626	7.20323
3401.98770	7.23020
3400.05913	7.24916
3398.13057	7.26610
3396.20200	7.31068
3394.27344	7.37752
3392.34487	7.43970
3390.41631	7.51072
3388.48774	7.55806
3386.55918	7.56651
3384.63062	7.57003
3382.70205	7.57524
3380.77349	7.60301
3378.84492	7.65818
3376.91636	7.72193
3374.98779	7.78588
3373.05923	7.81484
3371.13066	7.77290
3369.20210	7.75361
3367.27354	7.79896
3365.34497	7.81790
3363.41641	7.80853
3361.48784	7.85068
3359.55928	7.91445
3357.63071	7.91520
3355.70215	7.89954
3353.77358	7.92811
3351.84502	7.97591
3349.91646	7.99403
3347.98789	8.01089
3346.05933	8.06145
3344.13076	8.10338
3342.20220	8.11973
3340.27363	8.11922
3338.34507	8.08004
3336.41650	8.02395
3334.48794	8.03434
3332.55937	8.08822
3330.63081	8.10448
3328.70225	8.09145
3326.77368	8.12457
3324.84512	8.19057
3322.91655	8.20994
3320.98799	8.20044
3319.05942	8.17986
3317.13086	8.20174
3315.20229	8.25952
3313.27373	8.21939
3311.34517	8.11837
3309.41660	8.11634
3307.48804	8.21749
3305.55947	8.32592
3303.63091	8.38000
3301.70234	8.33224
3299.77378	8.23028
3297.84521	8.16362
3295.91665	8.17500
3293.98809	8.26617
3292.05952	8.37361
3290.13096	8.40847
3288.20239	8.41655
3286.27383	8.40940
3284.34526	8.30367
3282.41670	8.20265
3280.48813	8.16829
3278.55957	8.15728
3276.63101	8.19309
3274.70244	8.29610
3272.77388	8.38066
3270.84531	8.40761
3268.91675	8.41986
3266.98818	8.35048
3265.05962	8.21638
3263.13105	8.14137
3261.20249	8.16866
3259.27393	8.22594
3257.34536	8.21398
3255.41680	8.14552
3253.48823	8.11963
3251.55967	8.19600
3249.63110	8.30361
3247.70254	8.33629
3245.77397	8.32190
3243.84541	8.33134
3241.91685	8.32932
3239.98828	8.26550
3238.05972	8.22262
3236.13115	8.26419
3234.20259	8.29776
3232.27402	8.24698
3230.34546	8.13563
3228.41689	8.03310
3226.48833	7.99169
3224.55977	7.98092
3222.63120	8.00786
3220.70264	8.10170
3218.77407	8.19328
3216.84551	8.19657
3214.91694	8.13787
3212.98838	8.09971
3211.05981	8.14168
3209.13125	8.22818
3207.20269	8.19501
3205.27412	8.03816
3203.34556	7.93406
3201.41699	7.91347
3199.48843	7.91645
3197.55986	7.88897
3195.63130	7.79464
3193.70273	7.68209
3191.77417	7.59615
3189.84561	7.57409
3187.91704	7.60941
3185.98848	7.60086
3184.05991	7.54396
3182.13135	7.51201
3180.20278	7.48171
3178.27422	7.40668
3176.34565	7.32777
3174.41709	7.27798
3172.48853	7.23434
3170.55996	7.19515
3168.63140	7.13749
3166.70283	7.03012
3164.77427	6.93316
3162.84570	6.86814
3160.91714	6.78464
3158.98857	6.71011
3157.06001	6.66404
3155.13145	6.60132
3153.20288	6.52531
3151.27432	6.46265
3149.34575	6.40043
3147.41719	6.32679
3145.48862	6.25359
3143.56006	6.18728
3141.63149	6.11876
3139.70293	6.03910
3137.77437	5.95523
3135.84580	5.87965
3133.91724	5.81881
3131.98867	5.75794
3130.06011	5.67917
3128.13154	5.59434
3126.20298	5.52277
3124.27441	5.46120
3122.34585	5.38598
3120.41729	5.29771
3118.48872	5.21780
3116.56016	5.14992
3114.63159	5.08502
3112.70303	5.01644
3110.77446	4.94569
3108.84590	4.87300
3106.91733	4.79484
3104.98877	4.71588
3103.06021	4.64223
3101.13164	4.56968
3099.20308	4.49704
3097.27451	4.42838
3095.34595	4.36256
3093.41738	4.29718
3091.48882	4.23188
3089.56025	4.16587
3087.63169	4.09794
3085.70312	4.03104
3083.77456	3.96691
3081.84600	3.90245
3079.91743	3.83646
3077.98887	3.77003
3076.06030	3.70521
3074.13174	3.64386
3072.20317	3.58385
3070.27461	3.52279
3068.34604	3.46333
3066.41748	3.40672
3064.48892	3.35028
3062.56035	3.29258
3060.63179	3.23470
3058.70322	3.17823
3056.77466	3.12314
3054.84609	3.06789
3052.91753	3.01278
3050.98896	2.96005
3049.06040	2.90844
3047.13184	2.85623
3045.20327	2.80526
3043.27471	2.75604
3041.34614	2.70707
3039.41758	2.65785
3037.48901	2.60968
3035.56045	2.56326
3033.63188	2.51713
3031.70332	2.47071
3029.77476	2.42520
3027.84619	2.38128
3025.91763	2.33854
3023.98906	2.29638
3022.06050	2.25414
3020.13193	2.21201
3018.20337	2.17126
3016.27480	2.13178
3014.34624	2.09269
3012.41768	2.05401
3010.48911	2.01579
3008.56055	1.97797
3006.63198	1.94096
3004.70342	1.90487
3002.77485	1.86920
3000.84629	1.83398
2998.91772	1.79960
2996.98916	1.76578
2995.06060	1.73234
2993.13203	1.69931
2991.20347	1.66656
2989.27490	1.63436
2987.34634	1.60291
2985.41777	1.57225
2983.48921	1.54245
2981.56064	1.51329
2979.63208	1.48459
2977.70352	1.45649
2975.77495	1.42851
2973.84639	1.39976
2971.91782	1.37087
2969.98926	1.34316
2968.06069	1.31673
2966.13213	1.29117
2964.20356	1.26627
2962.27500	1.24166
2960.34644	1.21709
2958.41787	1.19293
2956.48931	1.16960
2954.56074	1.14729
2952.63218	1.12592
2950.70361	1.10461
2948.77505	1.08276
2946.84648	1.06086
2944.91792	1.03963
2942.98936	1.01915
2941.06079	0.99909
2939.13223	0.97931
2937.20366	0.96000
2935.27510	0.94146
2933.34653	0.92303
2931.41797	0.90441
2929.48940	0.88656
2927.56084	0.86946
2925.63228	0.85222
2923.70371	0.83521
2921.77515	0.81950
2919.84658	0.80478
2917.91802	0.79001
2915.98945	0.77501
2914.06089	0.76006
2912.13232	0.74538
2910.20376	0.73135
2908.27520	0.71797
2906.34663	0.70474
2904.41807	0.69167
2902.48950	0.67897
2900.56094	0.66645
2898.63237	0.65427
2896.70381	0.64267
2894.77524	0.63123
2892.84668	0.61948
2890.91812	0.60774
2888.98955	0.59649
2887.06099	0.58580
2885.13242	0.57555
2883.20386	0.56541
2881.27529	0.55488
2879.34673	0.54418
2877.41816	0.53394
2875.48960	0.52424
2873.56104	0.51478
2871.63247	0.50544
2869.70391	0.49635
2867.77534	0.48742
2865.84678	0.47835
2863.91821	0.46929
2861.98965	0.46068
2860.06108	0.45244
2858.13252	0.44436
2856.20396	0.43647
2854.27539	0.42881
2852.34683	0.42145
2850.41826	0.41450
2848.48970	0.40748
2846.56113	0.40027
2844.63257	0.39369
2842.70400	0.38781
2840.77544	0.38186
2838.84687	0.37576
2836.91831	0.37013
2834.98975	0.36514
2833.06118	0.36010
2831.13262	0.35458
2829.20405	0.34892
2827.27549	0.34344
2825.34692	0.33817
2823.41836	0.33306
2821.48979	0.32797
2819.56123	0.32278
2817.63267	0.31769
2815.70410	0.31298
2813.77554	0.30843
2811.84697	0.30376
2809.91841	0.29908
2807.98984	0.29450
2806.06128	0.28986
2804.13271	0.28521
2802.20415	0.28085
2800.27559	0.27679
2798.34702	0.27278
2796.41846	0.26872
2794.48989	0.26469
2792.56133	0.26068
2790.63276	0.25682
2788.70420	0.25330
2786.77563	0.24993
2784.84707	0.24639
2782.91851	0.24274
2780.98994	0.23923
2779.06138	0.23599
2777.13281	0.23303
2775.20425	0.23009
2773.27568	0.22697
2771.34712	0.22386
2769.41855	0.22107
2767.48999	0.21845
2765.56143	0.21569
2763.63286	0.21278
2761.70430	0.20989
2759.77573	0.20708
2757.84717	0.20434
2755.91860	0.20183
2753.99004	0.19963
2752.06147	0.19756
2750.13291	0.19535
2748.20435	0.19292
2746.27578	0.19042
2744.34722	0.18800
2742.41865	0.18579
2740.49009	0.18385
2738.56152	0.18199
2736.63296	0.17997
2734.70439	0.17785
2732.77583	0.17591
2730.84727	0.17430
2728.91870	0.17276
2726.99014	0.17112
2725.06157	0.16941
2723.13301	0.16767
2721.20444	0.16591
2719.27588	0.16417
2717.34731	0.16250
2715.41875	0.16095
2713.49019	0.15948
2711.56162	0.15805
2709.63306	0.15675
2707.70449	0.15544
2705.77593	0.15398
2703.84736	0.15267
2701.91880	0.15169
2699.99023	0.15065
2698.06167	0.14942
2696.13311	0.14832
2694.20454	0.14735
2692.27598	0.14635
2690.34741	0.14530
2688.41885	0.14430
2686.49028	0.14337
2684.56172	0.14242
2682.63315	0.14151
2680.70459	0.14075
2678.77603	0.14000
2676.84746	0.13913
2674.91890	0.13824
2672.99033	0.13741
2671.06177	0.13661
2669.13320	0.13583
2667.20464	0.13519
2665.27607	0.13459
2663.34751	0.13403
2661.41895	0.13371
2659.49038	0.13341
2657.56182	0.13285
2655.63325	0.13218
2653.70469	0.13149
2651.77612	0.13084
2649.84756	0.13047
2647.91899	0.13028
2645.99043	0.13002
2644.06187	0.12970
2642.13330	0.12937
2640.20474	0.12911
2638.27617	0.12885
2636.34761	0.12847
2634.41904	0.12811
2632.49048	0.12799
2630.56191	0.12797
2628.63335	0.12783
2626.70479	0.12759
2624.77622	0.12750
2622.84766	0.12759
2620.91909	0.12755
2618.99053	0.12732
2617.06196	0.12719
2615.13340	0.12737
2613.20483	0.12763
2611.27627	0.12775
2609.34771	0.12770
2607.41914	0.12758
2605.49058	0.12764
2603.56201	0.12785
2601.63345	0.12803
2599.70488	0.12819
2597.77632	0.12842
2595.84775	0.12871
2593.91919	0.12896
2591.99062	0.12917
2590.06206	0.12949
2588.13350	0.12991
2586.20493	0.13029
2584.27637	0.13057
2582.34780	0.13075
2580.41924	0.13096
2578.49067	0.13135
2576.56211	0.13193
2574.63354	0.13255
2572.70498	0.13308
2570.77642	0.13349
2568.84785	0.13384
2566.91929	0.13430
2564.99072	0.13491
2563.06216	0.13554
2561.13359	0.13609
2559.20503	0.13661
2557.27646	0.13722
2555.34790	0.13789
2553.41934	0.13855
2551.49077	0.13920
2549.56221	0.13981
2547.63364	0.14040
2545.70508	0.14105
2543.77651	0.14175
2541.84795	0.14254
2539.91938	0.14329
2537.99082	0.14392
2536.06226	0.14460
2534.13369	0.14542
2532.20513	0.14629
2530.27656	0.14711
2528.34800	0.14781
2526.41943	0.14843
2524.49087	0.14914
2522.56230	0.15002
2520.63374	0.15095
2518.70518	0.15185
2516.77661	0.15269
2514.84805	0.15345
2512.91948	0.15426
2510.99092	0.15516
2509.06235	0.15611
2507.13379	0.15716
2505.20522	0.15818
2503.27666	0.15898
2501.34810	0.15961
2499.41953	0.16027
2497.49097	0.16115
2495.56240	0.16217
2493.63384	0.16303
2491.70527	0.16383
2489.77671	0.16476
2487.84814	0.16576
2485.91958	0.16677
2483.99102	0.16782
2482.06245	0.16889
2480.13389	0.16990
2478.20532	0.17083
2476.27676	0.17173
2474.34819	0.17254
2472.41963	0.17338
2470.49106	0.17447
2468.56250	0.17570
2466.63394	0.17681
2464.70537	0.17781
2462.77681	0.17878
2460.84824	0.17977
2458.91968	0.18079
2456.99111	0.18185
2455.06255	0.18289
2453.13398	0.18389
2451.20542	0.18481
2449.27686	0.18575
2447.34829	0.18688
2445.41973	0.18809
2443.49116	0.18921
2441.56260	0.19023
2439.63403	0.19124
2437.70547	0.19229
2435.77690	0.19334
2433.84834	0.19446
2431.91978	0.19575
2429.99121	0.19695
2428.06265	0.19799
2426.13408	0.19906
2424.20552	0.20023
2422.27695	0.20146
2420.34839	0.20275
2418.41982	0.20403
2416.49126	0.20527
2414.56270	0.20639
2412.63413	0.20747
2410.70557	0.20867
2408.77700	0.21000
2406.84844	0.21131
2404.91987	0.21255
2402.99131	0.21376
2401.06274	0.21497
2399.13418	0.21620
2397.20562	0.21745
2395.27705	0.21870
2393.34849	0.22008
2391.41992	0.22161
2389.49136	0.22309
2387.56279	0.22457
2385.63423	0.22645
2383.70566	0.22882
2381.77710	0.23154
2379.84854	0.23473
2377.91997	0.23843
2375.99141	0.24227
2374.06284	0.24616
2372.13428	0.25066
2370.20571	0.25619
2368.27715	0.26226
2366.34858	0.26778
2364.42002	0.27254
2362.49146	0.27727
2360.56289	0.28081
2358.63433	0.28134
2356.70576	0.27962
2354.77720	0.27716
2352.84863	0.27440
2350.92007	0.27175
2348.99150	0.27062
2347.06294	0.27196
2345.13437	0.27624
2343.20581	0.28235
2341.27725	0.28643
2339.34868	0.28706
2337.42012	0.28713
2335.49155	0.28841
2333.56299	0.28947
2331.63442	0.29024
2329.70586	0.29176
2327.77729	0.29347
2325.84873	0.29409
2323.92017	0.29366
2321.99160	0.29328
2320.06304	0.29343
2318.13447	0.29377
2316.20591	0.29420
2314.27734	0.29506
2312.34878	0.29641
2310.42021	0.29780
2308.49165	0.29880
2306.56309	0.29957
2304.63452	0.30036
2302.70596	0.30127
2300.77739	0.30242
2298.84883	0.30383
2296.92026	0.30544
2294.99170	0.30708
2293.06313	0.30870
2291.13457	0.31025
2289.20601	0.31174
2287.27744	0.31328
2285.34888	0.31488
2283.42031	0.31661
2281.49175	0.31864
2279.56318	0.32091
2277.63462	0.32309
2275.70605	0.32514
2273.77749	0.32726
2271.84893	0.32964
2269.92036	0.33211
2267.99180	0.33431
2266.06323	0.33622
2264.13467	0.33810
2262.20610	0.34010
2260.27754	0.34219
2258.34897	0.34431
2256.42041	0.34632
2254.49185	0.34838
2252.56328	0.35056
2250.63472	0.35276
2248.70615	0.35497
2246.77759	0.35728
2244.84902	0.35957
2242.92046	0.36169
2240.99189	0.36374
2239.06333	0.36591
2237.13477	0.36827
2235.20620	0.37065
2233.27764	0.37291
2231.34907	0.37513
2229.42051	0.37737
2227.49194	0.37963
2225.56338	0.38195
2223.63481	0.38432
2221.70625	0.38667
2219.77769	0.38892
2217.84912	0.39100
2215.92056	0.39314
2213.99199	0.39544
2212.06343	0.39765
2210.13486	0.39975
2208.20630	0.40187
2206.27773	0.40398
2204.34917	0.40598
2202.42061	0.40799
2200.49204	0.41013
2198.56348	0.41229
2196.63491	0.41438
2194.70635	0.41647
2192.77778	0.41853
2190.84922	0.42046
2188.92065	0.42245
2186.99209	0.42446
2185.06353	0.42621
2183.13496	0.42780
2181.20640	0.42950
2179.27783	0.43120
2177.34927	0.43280
2175.42070	0.43437
2173.49214	0.43598
2171.56357	0.43757
2169.63501	0.43900
2167.70645	0.44030
2165.77788	0.44167
2163.84932	0.44310
2161.92075	0.44426
2159.99219	0.44510
2158.06362	0.44590
2156.13506	0.44686
2154.20649	0.44791
2152.27793	0.44888
2150.34937	0.44977
2148.42080	0.45061
2146.49224	0.45131
2144.56367	0.45176
2142.63511	0.45210
2140.70654	0.45248
2138.77798	0.45284
2136.84941	0.45300
2134.92085	0.45303
2132.99229	0.45306
2131.06372	0.45295
2129.13516	0.45273
2127.20659	0.45245
2125.27803	0.45224
2123.34946	0.45206
2121.42090	0.45166
2119.49233	0.45098
2117.56377	0.45030
2115.63521	0.44964
2113.70664	0.44886
2111.77808	0.44795
2109.84951	0.44696
2107.92095	0.44590
2105.99238	0.44467
2104.06382	0.44342
2102.13525	0.44222
2100.20669	0.44094
2098.27812	0.43953
2096.34956	0.43807
2094.42100	0.43656
2092.49243	0.43488
2090.56387	0.43309
2088.63530	0.43145
2086.70674	0.42990
2084.77817	0.42816
2082.84961	0.42621
2080.92104	0.42418
2078.99248	0.42213
2077.06392	0.42002
2075.13535	0.41778
2073.20679	0.41552
2071.27822	0.41333
2069.34966	0.41120
2067.42109	0.40895
2065.49253	0.40648
2063.56396	0.40389
2061.63540	0.40139
2059.70684	0.39891
2057.77827	0.39633
2055.84971	0.39390
2053.92114	0.39150
2051.99258	0.38885
2050.06401	0.38617
2048.13545	0.38358
2046.20688	0.38092
2044.27832	0.37827
2042.34976	0.37572
2040.42119	0.37314
2038.49263	0.37042
2036.56406	0.36755
2034.63550	0.36466
2032.70693	0.36191
2030.77837	0.35925
2028.84980	0.35646
2026.92124	0.35361
2024.99268	0.35090
2023.06411	0.34823
2021.13555	0.34548
2019.20698	0.34268
2017.27842	0.33992
2015.34985	0.33721
2013.42129	0.33452
2011.49272	0.33181
2009.56416	0.32910
2007.63560	0.32630
2005.70703	0.32355
2003.77847	0.32096
2001.84990	0.31842
1999.92134	0.31580
1997.99277	0.31314
1996.06421	0.31055
1994.13564	0.30808
1992.20708	0.30556
1990.27852	0.30286
1988.34995	0.30019
1986.42139	0.29772
1984.49282	0.29543
1982.56426	0.29322
1980.63569	0.29089
1978.70713	0.28845
1976.77856	0.28619
1974.85000	0.28410
1972.92144	0.28198
1970.99287	0.27979
1969.06431	0.27768
1967.13574	0.27569
1965.20718	0.27366
1963.27861	0.27169
1961.35005	0.26982
1959.42148	0.26794
1957.49292	0.26606
1955.56436	0.26424
1953.63579	0.26244
1951.70723	0.26065
1949.77866	0.25901
1947.85010	0.25748
1945.92153	0.25604
1943.99297	0.25472
1942.06440	0.25344
1940.13584	0.25199
1938.20728	0.25040
1936.27871	0.24887
1934.35015	0.24743
1932.42158	0.24618
1930.49302	0.24517
1928.56445	0.24423
1926.63589	0.24318
1924.70732	0.24215
1922.77876	0.24123
1920.85020	0.24042
1918.92163	0.23970
1916.99307	0.23882
1915.06450	0.23773
1913.13594	0.23669
1911.20737	0.23595
1909.27881	0.23537
1907.35024	0.23471
1905.42168	0.23401
1903.49312	0.23334
1901.56455	0.23272
1899.63599	0.23216
1897.70742	0.23174
1895.77886	0.23143
1893.85029	0.23112
1891.92173	0.23076
1889.99316	0.23052
1888.06460	0.23024
1886.13604	0.22986
1884.20747	0.22959
1882.27891	0.22953
1880.35034	0.22959
1878.42178	0.22959
1876.49321	0.22950
1874.56465	0.22935
1872.63608	0.22942
1870.70752	0.22979
1868.77896	0.23035
1866.85039	0.23064
1864.92183	0.23054
1862.99326	0.23054
1861.06470	0.23083
1859.13613	0.23133
1857.20757	0.23181
1855.27900	0.23226
1853.35044	0.23267
1851.42187	0.23316
1849.49331	0.23377
1847.56475	0.23449
1845.63618	0.23535
1843.70762	0.23631
1841.77905	0.23700
1839.85049	0.23747
1837.92192	0.23831
1835.99336	0.23926
1834.06479	0.24012
1832.13623	0.24107
1830.20767	0.24244
1828.27910	0.24392
1826.35054	0.24507
1824.42197	0.24641
1822.49341	0.24777
1820.56484	0.24909
1818.63628	0.25045
1816.70771	0.25201
1814.77915	0.25358
1812.85059	0.25527
1810.92202	0.25732
1808.99346	0.25948
1807.06489	0.26143
1805.13633	0.26330
1803.20776	0.26555
1801.27920	0.26812
1799.35063	0.27099
1797.42207	0.27365
1795.49351	0.27608
1793.56494	0.27877
1791.63638	0.28223
1789.70781	0.28570
1787.77925	0.28846
1785.85068	0.29166
1783.92212	0.29539
1781.99355	0.29942
1780.06499	0.30371
1778.13643	0.30809
1776.20786	0.31212
1774.27930	0.31634
1772.35073	0.32218
1770.42217	0.32870
1768.49360	0.33413
1766.56504	0.33925
1764.63647	0.34458
1762.70791	0.35059
1760.77935	0.35822
1758.85078	0.36538
1756.92222	0.37252
1754.99365	0.38033
1753.06509	0.38750
1751.13652	0.39593
1749.20796	0.40658
1747.27939	0.41724
1745.35083	0.42653
1743.42227	0.43614
1741.49370	0.44687
1739.56514	0.45969
1737.63657	0.47234
1735.70801	0.48318
1733.77944	0.49963
1731.85088	0.51970
1729.92231	0.53546
1727.99375	0.55116
1726.06519	0.56809
1724.13662	0.58662
1722.20806	0.60648
1720.27949	0.62461
1718.35093	0.64583
1716.42236	0.67769
1714.49380	0.70829
1712.56523	0.73301
1710.63667	0.75679
1708.70811	0.78225
1706.77954	0.81119
1704.85098	0.84552
1702.92241	0.87588
1700.99385	0.90573
1699.06528	0.94999
1697.13672	0.99055
1695.20815	1.03181
1693.27959	1.07143
1691.35103	1.10296
1689.42246	1.13904
1687.49390	1.17664
1685.56533	1.21269
1683.63677	1.26875
1681.70820	1.32624
1679.77964	1.36216
1677.85107	1.39651
1675.92251	1.43639
1673.99395	1.48520
1672.06538	1.52794
1670.13682	1.56937
1668.20825	1.62275
1666.27969	1.66520
1664.35112	1.69954
1662.42256	1.74146
1660.49399	1.78923
1658.56543	1.82736
1656.63687	1.85849
1654.70830	1.88796
1652.77974	1.93834
1650.85117	1.98875
1648.92261	2.00888
1646.99404	2.03625
1645.06548	2.07059
1643.13691	2.09293
1641.20835	2.10557
1639.27979	2.11622
1637.35122	2.12354
1635.42266	2.12647
1633.49409	2.12397
1631.56553	2.11587
1629.63696	2.10392
1627.70840	2.08099
1625.77983	2.05335
1623.85127	2.02006
1621.92271	1.97861
1619.99414	1.93955
1618.06558	1.90027
1616.13701	1.84461
1614.20845	1.78698
1612.27988	1.74189
1610.35132	1.69494
1608.42275	1.64446
1606.49419	1.59404
1604.56562	1.54696
1602.63706	1.50122
1600.70850	1.45547
1598.77993	1.41256
1596.85137	1.37224
1594.92280	1.33310
1592.99424	1.29521
1591.06567	1.26053
1589.13711	1.22803
1587.20854	1.19721
1585.27998	1.16799
1583.35142	1.14008
1581.42285	1.11408
1579.49429	1.09114
1577.56572	1.06967
1575.63716	1.04328
1573.70859	1.01999
1571.78003	1.00447
1569.85146	0.98711
1567.92290	0.96649
1565.99434	0.94975
1564.06577	0.93544
1562.13721	0.92350
1560.20864	0.91331
1558.28008	0.89514
1556.35151	0.87775
1554.42295	0.86672
1552.49438	0.85591
1550.56582	0.84566
1548.63726	0.83566
1546.70869	0.82687
1544.78013	0.81872
1542.85156	0.81012
1540.92300	0.80053
1538.99443	0.78863
1537.06587	0.78047
1535.13730	0.77516
1533.20874	0.76832
1531.28018	0.76050
1529.35161	0.75456
1527.42305	0.74928
1525.49448	0.74383
1523.56592	0.73867
1521.63735	0.73302
1519.70879	0.72655
1517.78022	0.72118
1515.85166	0.71595
1513.92310	0.71082
1511.99453	0.70660
1510.06597	0.70305
1508.13740	0.69988
1506.20884	0.69475
1504.28027	0.68934
1502.35171	0.68576
1500.42314	0.68271
1498.49458	0.67975
1496.56602	0.67638
1494.63745	0.67281
1492.70889	0.66982
1490.78032	0.66725
1488.85176	0.66422
1486.92319	0.66072
1484.99463	0.65738
1483.06606	0.65446
1481.13750	0.65168
1479.20894	0.64903
1477.28037	0.64672
1475.35181	0.64441
1473.42324	0.64173
1471.49468	0.63830
1469.56611	0.63505
1467.63755	0.63246
1465.70898	0.63011
1463.78042	0.62774
1461.85186	0.62564
1459.92329	0.62404
1457.99473	0.62239
1456.06616	0.61991
1454.13760	0.61725
1452.20903	0.61505
1450.28047	0.61307
1448.35190	0.61125
1446.42334	0.60959
1444.49478	0.60810
1442.56621	0.60659
1440.63765	0.60510
1438.70908	0.60382
1436.78052	0.60259
1434.85195	0.60112
1432.92339	0.59950
1430.99482	0.59795
1429.06626	0.59651
1427.13770	0.59516
1425.20913	0.59375
1423.28057	0.59221
1421.35200	0.59081
1419.42344	0.58961
1417.49487	0.58818
1415.56631	0.58642
1413.63774	0.58470
1411.70918	0.58304
1409.78062	0.58152
1407.85205	0.58035
1405.92349	0.57938
1403.99492	0.57819
1402.06636	0.57685
1400.13779	0.57570
1398.20923	0.57463
1396.28066	0.57337
1394.35210	0.57194
1392.42354	0.57063
1390.49497	0.56942
1388.56641	0.56818
1386.63784	0.56687
1384.70928	0.56549
1382.78071	0.56418
1380.85215	0.56306
1378.92358	0.56219
1376.99502	0.56141
1375.06646	0.56057
1373.13789	0.55963
1371.20933	0.55862
1369.28076	0.55754
1367.35220	0.55646
1365.42363	0.55549
1363.49507	0.55463
1361.56650	0.55374
1359.63794	0.55277
1357.70937	0.55187
1355.78081	0.55106
1353.85225	0.55025
1351.92368	0.54936
1349.99512	0.54847
1348.06655	0.54750
1346.13799	0.54645
1344.20942	0.54556
1342.28086	0.54481
1340.35229	0.54403
1338.42373	0.54316
1336.49517	0.54219
1334.56660	0.54119
1332.63804	0.54025
1330.70947	0.53932
1328.78091	0.53839
1326.85234	0.53746
1324.92378	0.53657
1322.99521	0.53579
1321.06665	0.53503
1319.13809	0.53417
1317.20952	0.53333
1315.28096	0.53255
1313.35239	0.53168
1311.42383	0.53073
1309.49526	0.52972
1307.56670	0.52870
1305.63813	0.52782
1303.70957	0.52709
1301.78101	0.52644
1299.85244	0.52566
1297.92388	0.52472
1295.99531	0.52375
1294.06675	0.52285
1292.13818	0.52211
1290.20962	0.52148
1288.28105	0.52084
1286.35249	0.52005
1284.42393	0.51918
1282.49536	0.51839
1280.56680	0.51769
1278.63823	0.51697
1276.70967	0.51630
1274.78110	0.51565
1272.85254	0.51489
1270.92397	0.51408
1268.99541	0.51323
1267.06685	0.51239
1265.13828	0.51165
1263.20972	0.51089
1261.28115	0.51007
1259.35259	0.50926
1257.42402	0.50854
1255.49546	0.50803
1253.56689	0.50766
1251.63833	0.50717
1249.70977	0.50652
1247.78120	0.50585
1245.85264	0.50522
1243.92407	0.50452
1241.99551	0.50368
1240.06694	0.50283
1238.13838	0.50205
1236.20981	0.50132
1234.28125	0.50059
1232.35269	0.49992
1230.42412	0.49928
1228.49556	0.49849
1226.56699	0.49756
1224.63843	0.49661
1222.70986	0.49567
1220.78130	0.49474
1218.85273	0.49382
1216.92417	0.49295
1214.99561	0.49219
1213.06704	0.49138
1211.13848	0.49048
1209.20991	0.48955
1207.28135	0.48860
1205.35278	0.48764
1203.42422	0.48671
1201.49565	0.48582
1199.56709	0.48482
1197.63853	0.48377
1195.70996	0.48290
1193.78140	0.48209
1191.85283	0.48109
1189.92427	0.48001
1187.99570	0.47899
1186.06714	0.47801
1184.13857	0.47706
1182.21001	0.47620
1180.28145	0.47535
1178.35288	0.47448
1176.42432	0.47360
1174.49575	0.47265
1172.56719	0.47161
1170.63862	0.47058
1168.71006	0.46971
1166.78149	0.46890
1164.85293	0.46808
1162.92437	0.46733
1160.99580	0.46655
1159.06724	0.46564
1157.13867	0.46473
1155.21011	0.46390
1153.28154	0.46311
1151.35298	0.46239
1149.42441	0.46180
1147.49585	0.46116
1145.56729	0.46040
1143.63872	0.45968
1141.71016	0.45889
1139.78159	0.45811
1137.85303	0.45743
1135.92446	0.45668
1133.99590	0.45574
1132.06733	0.45478
1130.13877	0.45397
1128.21021	0.45321
1126.28164	0.45235
1124.35308	0.45163
1122.42451	0.45110
1120.49595	0.45048
1118.56738	0.44985
1116.63882	0.44931
1114.71025	0.44876
1112.78169	0.44832
1110.85312	0.44803
1108.92456	0.44768
1106.99600	0.44725
1105.06743	0.44696
1103.13887	0.44689
1101.21030	0.44674
1099.28174	0.44621
1097.35317	0.44553
1095.42461	0.44503
1093.49604	0.44474
1091.56748	0.44448
1089.63892	0.44414
1087.71035	0.44383
1085.78179	0.44370
1083.85322	0.44358
1081.92466	0.44333
1079.99609	0.44310
1078.06753	0.44311
1076.13896	0.44314
1074.21040	0.44300
1072.28184	0.44294
1070.35327	0.44302
1068.42471	0.44305
1066.49614	0.44306
1064.56758	0.44320
1062.63901	0.44342
1060.71045	0.44361
1058.78188	0.44370
1056.85332	0.44377
1054.92476	0.44407
1052.99619	0.44455
1051.06763	0.44503
1049.13906	0.44550
1047.21050	0.44590
1045.28193	0.44621
1043.35337	0.44663
1041.42480	0.44711
1039.49624	0.44749
1037.56768	0.44808
1035.63911	0.44902
1033.71055	0.44990
1031.78198	0.45055
1029.85342	0.45120
1027.92485	0.45206
1025.99629	0.45312
1024.06772	0.45428
1022.13916	0.45553
1020.21060	0.45674
1018.28203	0.45783
1016.35347	0.45907
1014.42490	0.46050
1012.49634	0.46190
1010.56777	0.46342
1008.63921	0.46514
1006.71064	0.46686
1004.78208	0.46860
1002.85352	0.47040
1000.92495	0.47217
998.99639	0.47396
997.06782	0.47582
995.13926	0.47774
993.21069	0.47991
991.28213	0.48232
989.35356	0.48470
987.42500	0.48707
985.49644	0.48965
983.56787	0.49242
981.63931	0.49530
979.71074	0.49828
977.78218	0.50129
975.85361	0.50454
973.92505	0.50810
971.99648	0.51161
970.06792	0.51503
968.13936	0.51858
966.21079	0.52215
964.28223	0.52570
962.35366	0.52950
960.42510	0.53375
958.49653	0.53833
956.56797	0.54291
954.63940	0.54750
952.71084	0.55222
950.78228	0.55695
948.85371	0.56192
946.92515	0.56739
944.99658	0.57309
943.06802	0.57876
941.13945	0.58442
939.21089	0.59029
937.28232	0.59653
935.35376	0.60303
933.42520	0.60980
931.49663	0.61676
929.56807	0.62372
927.63950	0.63082
925.71094	0.63809
923.78237	0.64538
921.85381	0.65257
919.92524	0.65974
917.99668	0.66730
916.06812	0.67535
914.13955	0.68367
912.21099	0.69262
910.28242	0.70205
908.35386	0.71068
906.42529	0.71862
904.49673	0.72789
902.56816	0.73822
900.63960	0.74761
898.71104	0.75691
896.78247	0.76718
894.85391	0.77674
892.92534	0.78620
890.99678	0.79750
889.06821	0.80894
887.13965	0.81914
885.21108	0.82896
883.28252	0.83862
881.35396	0.84863
879.42539	0.86007
877.49683	0.87258
875.56826	0.88452
873.63970	0.89505
871.71113	0.90496
869.78257	0.91584
867.85400	0.92851
865.92544	0.94166
863.99687	0.95366
862.06831	0.96423
860.13975	0.97428
858.21118	0.98611
856.28262	1.00004
854.35405	1.01293
852.42549	1.02426
850.49692	1.03700
848.56836	1.04968
846.63979	1.05883
844.71123	1.06815
842.78267	1.08155
840.85410	1.09458
838.92554	1.10371
836.99697	1.11410
835.06841	1.12632
833.13984	1.13426
831.21128	1.14075
829.28271	1.15277
827.35415	1.16889
825.42559	1.18227
823.49702	1.18980
821.56846	1.19609
819.63989	1.20798
817.71133	1.22779
815.78276	1.25322
813.85420	1.26895
811.92563	1.26298
809.99707	1.25210
808.06851	1.24789
806.13994	1.24641
804.21138	1.24788
802.28281	1.25731
800.35425	1.27521
798.42568	1.29380
796.49712	1.30212
794.56855	1.30762
792.63999	1.32958
790.71143	1.36318
788.78286	1.39449
786.85430	1.39529
784.92573	1.35537
782.99717	1.31589
781.06860	1.28515
779.14004	1.25253
777.21147	1.24115
775.28291	1.26347
773.35435	1.28231
771.42578	1.28722
769.49722	1.31793
767.56865	1.34113
765.64009	1.30285
763.71152	1.28240
761.78296	1.30536
759.85439	1.27046
757.92583	1.16536
755.99727	1.11787
754.06870	1.20531
752.14014	1.37039
750.21157	1.31613
748.28301	1.15436
746.35444	1.07898
744.42588	1.07551
742.49731	1.13949
740.56875	1.14159
738.64019	0.91269
736.71162	0.70596
734.78306	0.59560
732.85449	0.53050
730.92593	0.46086
728.99736	0.42010
727.06880	0.48723
725.14023	0.65786
723.21167	0.64048
721.28311	0.42540
719.35454	0.38889
717.42598	0.50380
715.49741	0.54516
713.56885	0.47422
711.64028	0.49586
709.71172	0.56701
707.78315	0.49373
705.85459	0.41508
703.92603	0.41989
701.99746	0.43876
700.06890	0.40884
698.14033	0.38650
696.21177	0.42615
694.28320	0.48281
692.35464	0.48575
690.42607	0.49496
688.49751	0.54597
686.56895	0.57993
684.64038	0.50684
682.71182	0.42275
680.78325	0.40918
678.85469	0.39716
676.92612	0.34543
674.99756	0.30000
673.06899	0.30160
671.14043	0.38768
669.21187	0.60555
667.28330	0.92990
665.35474	0.69140
663.42617	0.53715
661.49761	0.49943
659.56904	0.43772
657.64048	0.37165
655.71191	0.33817
653.78335	0.35366
651.85479	0.38892
649.92622	0.41622
647.99766	0.45426
646.06909	0.43370
644.14053	0.39322
642.21196	0.45423
640.28340	0.56101
638.35483	0.48673
636.42627	0.38651
634.49771	0.34896
632.56914	0.33319
630.64058	0.33225
628.71201	0.33202
626.78345	0.34031
624.85488	0.36180
622.92632	0.33692
620.99775	0.30220
619.06919	0.30111
617.14062	0.25436
615.21206	0.21067
613.28350	0.28222
611.35493	0.52738
609.42637	0.90891
607.49780	0.65476
605.56924	0.44814
603.64067	0.39392
601.71211	0.38269
599.78354	0.36693
597.85498	0.37402
595.92642	0.43092
593.99785	0.51132
592.06929	0.51561
590.14072	0.44094
588.21216	0.40152
586.28359	0.37949
584.35503	0.34860
582.42646	0.33710
580.49790	0.34712
578.56934	0.37032
576.64077	0.38330
574.71221	0.37135
572.78364	0.34930
570.85508	0.33121
568.92651	0.34393
566.99795	0.37719
565.06938	0.37390
563.14082	0.33534
561.21226	0.31880
559.28369	0.35405
557.35513	0.43959
555.42656	0.51069
553.49800	0.47324
551.56943	0.37642
549.64087	0.32946
547.71230	0.35635
545.78374	0.39724
543.85518	0.33946
541.92661	0.22736
539.99805	0.18173
538.06948	0.20192
536.14092	0.24098
534.21235	0.30523
532.28379	0.34940
530.35522	0.30150
528.42666	0.23385
526.49810	0.21526
524.56953	0.28142
522.64097	0.41863
520.71240	0.59591
518.78384	0.64535
516.85527	0.41839
514.92671	0.28155
512.99814	0.28274
511.06958	0.36436
509.14102	0.33078
507.21245	0.23247
505.28389	0.19941
503.35532	0.21989
501.42676	0.26329
499.49819	0.29878
