3997.91411	0.07551
3995.98555	0.07607
3994.05698	0.07690
3992.12842	0.07745
3990.19985	0.07741
3988.27129	0.07730
3986.34272	0.07773
3984.41416	0.07813
3982.48560	0.07801
3980.55703	0.07797
3978.62847	0.07836
3976.69990	0.07882
3974.77134	0.07925
3972.84277	0.07976
3970.91421	0.08020
3968.98564	0.08035
3967.05708	0.08015
3965.12852	0.07982
3963.19995	0.07970
3961.27139	0.07980
3959.34282	0.07979
3957.41426	0.07959
3955.48569	0.07947
3953.55713	0.07959
3951.62856	0.07961
3949.70000	0.07948
3947.77144	0.07934
3945.84287	0.07927
3943.91431	0.07955
3941.98574	0.08003
3940.05718	0.08030
3938.12861	0.08043
3936.20005	0.08042
3934.27148	0.08008
3932.34292	0.07967
3930.41436	0.07953
3928.48579	0.07958
3926.55723	0.07922
3924.62866	0.07866
3922.70010	0.07860
3920.77153	0.07899
3918.84297	0.07945
3916.91440	0.07998
3914.98584	0.08036
3913.05728	0.08025
3911.12871	0.07983
3909.20015	0.07932
3907.27158	0.07874
3905.34302	0.07828
3903.41445	0.07839
3901.48589	0.07910
3899.55732	0.07943
3897.62876	0.07898
3895.70020	0.07857
3893.77163	0.07874
3891.84307	0.07936
3889.91450	0.07959
3887.98594	0.07942
3886.05737	0.07974
3884.12881	0.08012
3882.20024	0.07976
3880.27168	0.07937
3878.34312	0.07935
3876.41455	0.07917
3874.48599	0.07909
3872.55742	0.07948
3870.62886	0.08008
3868.70029	0.08074
3866.77173	0.08089
3864.84316	0.08086
3862.91460	0.08118
3860.98604	0.08136
3859.05747	0.08142
3857.12891	0.08178
3855.20034	0.08248
3853.27178	0.08343
3851.34321	0.08392
3849.41465	0.08378
3847.48608	0.08417
3845.55752	0.08496
3843.62896	0.08547
3841.70039	0.08562
3839.77183	0.08577
3837.84326	0.08653
3835.91470	0.08792
3833.98613	0.08866
3832.05757	0.08869
3830.12900	0.08899
3828.20044	0.08959
3826.27187	0.09041
3824.34331	0.09164
3822.41475	0.09280
3820.48618	0.09378
3818.55762	0.09468
3816.62905	0.09539
3814.70049	0.09606
3812.77192	0.09661
3810.84336	0.09710
3808.91479	0.09775
3806.98623	0.09863
3805.05767	0.09963
3803.12910	0.10110
3801.20054	0.10367
3799.27197	0.10573
3797.34341	0.10615
3795.41484	0.10675
3793.48628	0.10778
3791.55771	0.10884
3789.62915	0.10988
3787.70059	0.11086
3785.77202	0.11208
3783.84346	0.11372
3781.91489	0.11531
3779.98633	0.11678
3778.05776	0.11868
3776.12920	0.12042
3774.20063	0.12156
3772.27207	0.12278
3770.34351	0.12432
3768.41494	0.12610
3766.48638	0.12785
3764.55781	0.12953
3762.62925	0.13127
3760.70068	0.13345
3758.77212	0.13648
3756.84355	0.13923
3754.91499	0.14044
3752.98643	0.14145
3751.05786	0.14415
3749.12930	0.14829
3747.20073	0.15078
3745.27217	0.15258
3743.34360	0.15659
3741.41504	0.16102
3739.48647	0.16360
3737.55791	0.16574
3735.62935	0.16912
3733.70078	0.17452
3731.77222	0.18031
3729.84365	0.18505
3727.91509	0.18922
3725.98652	0.19439
3724.05796	0.20082
3722.12939	0.20753
3720.20083	0.21465
3718.27227	0.22202
3716.34370	0.22923
3714.41514	0.23642
3712.48657	0.24534
3710.55801	0.25807
3708.62944	0.27196
3706.70088	0.28360
3704.77231	0.29439
3702.84375	0.30676
3700.91519	0.32339
3698.98662	0.34207
3697.05806	0.35952
3695.12949	0.37738
3693.20093	0.39591
3691.27236	0.41607
3689.34380	0.44279
3687.41523	0.47705
3685.48667	0.50870
3683.55811	0.53588
3681.62954	0.56345
3679.70098	0.59373
3677.77241	0.62570
3675.84385	0.66323
3673.91528	0.71410
3671.98672	0.75690
3670.05815	0.79491
3668.12959	0.84714
3666.20103	0.89598
3664.27246	0.93694
3662.34390	0.98010
3660.41533	1.02594
3658.48677	1.07088
3656.55820	1.11939
3654.62964	1.17367
3652.70107	1.21857
3650.77251	1.25741
3648.84395	1.31153
3646.91538	1.37758
3644.98682	1.42717
3643.05825	1.46678
3641.12969	1.50723
3639.20112	1.55106
3637.27256	1.59456
3635.34399	1.63622
3633.41543	1.67724
3631.48687	1.71516
3629.55830	1.75356
3627.62974	1.80632
3625.70117	1.85895
3623.77261	1.89513
3621.84404	1.92785
3619.91548	1.96438
3617.98691	2.00897
3616.05835	2.05213
3614.12979	2.08821
3612.20122	2.12657
3610.27266	2.16615
3608.34409	2.20706
3606.41553	2.25094
3604.48696	2.29028
3602.55840	2.32345
3600.62983	2.35972
3598.70127	2.40096
3596.77271	2.44129
3594.84414	2.48214
3592.91558	2.52479
3590.98701	2.56340
3589.05845	2.59771
3587.12988	2.64018
3585.20132	2.68979
3583.27275	2.73236
3581.34419	2.77131
3579.41562	2.81323
3577.48706	2.85679
3575.55850	2.89813
3573.62993	2.93852
3571.70137	2.97923
3569.77280	3.01941
3567.84424	3.06129
3565.91567	3.11295
3563.98711	3.16529
3562.05854	3.20924
3560.12998	3.25212
3558.20142	3.29595
3556.27285	3.33940
3554.34429	3.38142
3552.41572	3.42652
3550.48716	3.47565
3548.55859	3.52303
3546.63003	3.56837
3544.70146	3.61622
3542.77290	3.66571
3540.84434	3.71277
3538.91577	3.75878
3536.98721	3.80521
3535.05864	3.85192
3533.13008	3.89801
3531.20151	3.94409
3529.27295	3.99310
3527.34438	4.04698
3525.41582	4.09782
3523.48726	4.14139
3521.55869	4.18618
3519.63013	4.23501
3517.70156	4.28400
3515.77300	4.33237
3513.84443	4.38422
3511.91587	4.43846
3509.98730	4.49091
3508.05874	4.53964
3506.13018	4.58290
3504.20161	4.62447
3502.27305	4.66878
3500.34448	4.71293
3498.41592	4.75728
3496.48735	4.80545
3494.55879	4.85601
3492.63022	4.91178
3490.70166	4.97048
3488.77310	5.02544
3486.84453	5.07817
3484.91597	5.12639
3482.98740	5.16968
3481.05884	5.21286
3479.13027	5.25776
3477.20171	5.31091
3475.27314	5.37118
3473.34458	5.42288
3471.41602	5.45884
3469.48745	5.49156
3467.55889	5.53089
3465.63032	5.57593
3463.70176	5.62901
3461.77319	5.68877
3459.84463	5.75556
3457.91606	5.82254
3455.98750	5.87459
3454.05894	5.91753
3452.13037	5.96161
3450.20181	6.00991
3448.27324	6.06796
3446.34468	6.12523
3444.41611	6.17027
3442.48755	6.22348
3440.55898	6.29146
3438.63042	6.35555
3436.70186	6.39339
3434.77329	6.41553
3432.84473	6.45609
3430.91616	6.50643
3428.98760	6.55284
3427.05903	6.61714
3425.13047	6.69933
3423.20190	6.75582
3421.27334	6.79037
3419.34478	6.82843
3417.41621	6.87073
3415.48765	6.92177
3413.55908	6.96831
3411.63052	7.00724
3409.70195	7.06713
3407.77339	7.15508
3405.84482	7.20933
3403.91626	7.22695
3401.98770	7.24573
3400.05913	7.27206
3398.13057	7.33430
3396.20200	7.40656
3394.27344	7.43863
3392.34487	7.44422
3390.41631	7.46496
3388.48774	7.50623
3386.55918	7.57464
3384.63062	7.67025
3382.70205	7.75309
3380.77349	7.76641
3378.84492	7.71132
3376.91636	7.65822
3374.98779	7.64282
3373.05923	7.69813
3371.13066	7.80762
3369.20210	7.88357
3367.27354	7.87815
3365.34497	7.84908
3363.41641	7.85342
3361.48784	7.88325
3359.55928	7.94095
3357.63071	8.02852
3355.70215	8.12401
3353.77358	8.16731
3351.84502	8.13015
3349.91646	8.06107
3347.98789	8.02988
3346.05933	8.03515
3344.13076	8.07786
3342.20220	8.14289
3340.27363	8.12880
3338.34507	8.08252
3336.41650	8.08645
3334.48794	8.12619
3332.55937	8.16769
3330.63081	8.19537
3328.70225	8.22203
3326.77368	8.26048
3324.84512	8.25893
3322.91655	8.19810
3320.98799	8.16843
3319.05942	8.16004
3317.13086	8.15361
3315.20229	8.19615
3313.27373	8.25502
3311.34517	8.25652
3309.41660	8.27070
3307.48804	8.35277
3305.55947	8.40332
3303.63091	8.38581
3301.70234	8.35595
3299.77378	8.36390
3297.84521	8.38820
3295.91665	8.38832
3293.98809	8.34367
3292.05952	8.30664
3290.13096	8.36462
3288.20239	8.47867
3286.27383	8.50663
3284.34526	8.42239
3282.41670	8.41282
3280.48813	8.51092
3278.55957	8.56868
3276.63101	8.57215
3274.70244	8.61911
3272.77388	8.72083
3270.84531	8.79772
3268.91675	8.81236
3266.98818	8.75667
3265.05962	8.62816
3263.13105	8.51288
3261.20249	8.50696
3259.27393	8.52780
3257.34536	8.48783
3255.41680	8.46828
3253.48823	8.47688
3251.55967	8.44433
3249.63110	8.38783
3247.70254	8.34862
3245.77397	8.33215
3243.84541	8.31766
3241.91685	8.24800
3239.98828	8.17535
3238.05972	8.16786
3236.13115	8.15955
3234.20259	8.15250
3232.27402	8.22221
3230.34546	8.32599
3228.41689	8.38296
3226.48833	8.42891
3224.55977	8.49101
3222.63120	8.48148
3220.70264	8.36369
3218.77407	8.24932
3216.84551	8.20581
3214.91694	8.18457
3212.98838	8.15864
3211.05981	8.14683
3209.13125	8.12008
3207.20269	8.08446
3205.27412	8.09360
3203.34556	8.08688
3201.41699	7.98736
3199.48843	7.87466
3197.55986	7.82452
3195.63130	7.80476
3193.70273	7.79443
3191.77417	7.80837
3189.84561	7.80939
3187.91704	7.75318
3185.98848	7.66200
3184.05991	7.57656
3182.13135	7.50247
3180.20278	7.42376
3178.27422	7.35250
3176.34565	7.31101
3174.41709	7.28204
3172.48853	7.25510
3170.55996	7.21598
3168.63140	7.15224
3166.70283	7.08882
3164.77427	7.02445
3162.84570	6.96484
3160.91714	6.91339
3158.98857	6.84361
3157.06001	6.76625
3155.13145	6.69096
3153.20288	6.60965
3151.27432	6.53476
3149.34575	6.45960
3147.41719	6.36496
3145.48862	6.26516
3143.56006	6.18175
3141.63149	6.11575
3139.70293	6.06184
3137.77437	6.00725
3135.84580	5.93605
3133.91724	5.86089
3131.98867	5.79175
3130.06011	5.71646
3128.13154	5.63879
3126.20298	5.56969
3124.27441	5.50364
3122.34585	5.43235
3120.41729	5.36025
3118.48872	5.28872
3116.56016	5.21165
3114.63159	5.13026
3112.70303	5.05010
3110.77446	4.97410
3108.84590	4.90407
3106.91733	4.83802
3104.98877	4.76953
3103.06021	4.69936
3101.13164	4.63358
3099.20308	4.57054
3097.27451	4.50396
3095.34595	4.43597
3093.41738	4.37323
3091.48882	4.31220
3089.56025	4.24633
3087.63169	4.17948
3085.70312	4.11450
3083.77456	4.05034
3081.84600	3.98946
3079.91743	3.92772
3077.98887	3.86368
3076.06030	3.80589
3074.13174	3.75267
3072.20317	3.69432
3070.27461	3.63190
3068.34604	3.57404
3066.41748	3.51978
3064.48892	3.46243
3062.56035	3.40333
3060.63179	3.34705
3058.70322	3.29263
3056.77466	3.23718
3054.84609	3.18229
3052.91753	3.12973
3050.98896	3.07825
3049.06040	3.02793
3047.13184	2.97881
3045.20327	2.92844
3043.27471	2.87676
3041.34614	2.82676
3039.41758	2.77899
3037.48901	2.73217
3035.56045	2.68489
3033.63188	2.63678
3031.70332	2.59019
3029.77476	2.54658
3027.84619	2.50406
3025.91763	2.46087
3023.98906	2.41742
3022.06050	2.37474
3020.13193	2.33309
3018.20337	2.29229
3016.27480	2.25190
3014.34624	2.21187
3012.41768	2.17289
3010.48911	2.13485
3008.56055	2.09737
3006.63198	2.06078
3004.70342	2.02484
3002.77485	1.98894
3000.84629	1.95352
2998.91772	1.91966
2996.98916	1.88706
2995.06060	1.85416
2993.13203	1.82104
2991.20347	1.78927
2989.27490	1.75894
2987.34634	1.72888
2985.41777	1.69910
2983.48921	1.67046
2981.56064	1.64275
2979.63208	1.61529
2977.70352	1.58800
2975.77495	1.56107
2973.84639	1.53469
2971.91782	1.50902
2969.98926	1.48371
2968.06069	1.45863
2966.13213	1.43430
2964.20356	1.41055
2962.27500	1.38679
2960.34644	1.36306
2958.41787	1.33956
2956.48931	1.31615
2954.56074	1.29230
2952.63218	1.26813
2950.70361	1.24432
2948.77505	1.22114
2946.84648	1.19874
2944.91792	1.17735
2942.98936	1.15680
2941.06079	1.13666
2939.13223	1.11648
2937.20366	1.09627
2935.27510	1.07650
2933.34653	1.05719
2931.41797	1.03801
2929.48940	1.01902
2927.56084	1.00032
2925.63228	0.98157
2923.70371	0.96298
2921.77515	0.94562
2919.84658	0.92964
2917.91802	0.91383
2915.98945	0.89717
2914.06089	0.88006
2912.13232	0.86358
2910.20376	0.84798
2908.27520	0.83267
2906.34663	0.81736
2904.41807	0.80225
2902.48950	0.78781
2900.56094	0.77427
2898.63237	0.76129
2896.70381	0.74838
2894.77524	0.73546
2892.84668	0.72276
2890.91812	0.71058
2888.98955	0.69873
2887.06099	0.68721
2885.13242	0.67635
2883.20386	0.66602
2881.27529	0.65576
2879.34673	0.64556
2877.41816	0.63583
2875.48960	0.62610
2873.56104	0.61570
2871.63247	0.60527
2869.70391	0.59532
2867.77534	0.58509
2865.84678	0.57410
2863.91821	0.56284
2861.98965	0.55186
2860.06108	0.54151
2858.13252	0.53167
2856.20396	0.52205
2854.27539	0.51298
2852.34683	0.50462
2850.41826	0.49644
2848.48970	0.48818
2846.56113	0.48014
2844.63257	0.47261
2842.70400	0.46553
2840.77544	0.45864
2838.84687	0.45210
2836.91831	0.44609
2834.98975	0.44026
2833.06118	0.43427
2831.13262	0.42825
2829.20405	0.42244
2827.27549	0.41661
2825.34692	0.41056
2823.41836	0.40455
2821.48979	0.39874
2819.56123	0.39315
2817.63267	0.38774
2815.70410	0.38232
2813.77554	0.37674
2811.84697	0.37118
2809.91841	0.36576
2807.98984	0.36046
2806.06128	0.35537
2804.13271	0.35053
2802.20415	0.34573
2800.27559	0.34083
2798.34702	0.33597
2796.41846	0.33135
2794.48989	0.32688
2792.56133	0.32239
2790.63276	0.31805
2788.70420	0.31400
2786.77563	0.31005
2784.84707	0.30590
2782.91851	0.30156
2780.98994	0.29734
2779.06138	0.29336
2777.13281	0.28947
2775.20425	0.28561
2773.27568	0.28195
2771.34712	0.27851
2769.41855	0.27494
2767.48999	0.27127
2765.56143	0.26783
2763.63286	0.26471
2761.70430	0.26167
2759.77573	0.25850
2757.84717	0.25527
2755.91860	0.25217
2753.99004	0.24924
2752.06147	0.24626
2750.13291	0.24318
2748.20435	0.24018
2746.27578	0.23739
2744.34722	0.23462
2742.41865	0.23188
2740.49009	0.22947
2738.56152	0.22721
2736.63296	0.22483
2734.70439	0.22238
2732.77583	0.22003
2730.84727	0.21779
2728.91870	0.21566
2726.99014	0.21359
2725.06157	0.21147
2723.13301	0.20916
2721.20444	0.20678
2719.27588	0.20475
2717.34731	0.20308
2715.41875	0.20130
2713.49019	0.19928
2711.56162	0.19735
2709.63306	0.19580
2707.70449	0.19448
2705.77593	0.19304
2703.84736	0.19140
2701.91880	0.18984
2699.99023	0.18842
2698.06167	0.18706
2696.13311	0.18579
2694.20454	0.18451
2692.27598	0.18305
2690.34741	0.18154
2688.41885	0.18021
2686.49028	0.17902
2684.56172	0.17787
2682.63315	0.17678
2680.70459	0.17574
2678.77603	0.17464
2676.84746	0.17358
2674.91890	0.17273
2672.99033	0.17202
2671.06177	0.17118
2669.13320	0.17006
2667.20464	0.16892
2665.27607	0.16800
2663.34751	0.16713
2661.41895	0.16624
2659.49038	0.16546
2657.56182	0.16488
2655.63325	0.16431
2653.70469	0.16359
2651.77612	0.16279
2649.84756	0.16212
2647.91899	0.16161
2645.99043	0.16104
2644.06187	0.16045
2642.13330	0.16000
2640.20474	0.15962
2638.27617	0.15911
2636.34761	0.15852
2634.41904	0.15805
2632.49048	0.15768
2630.56191	0.15727
2628.63335	0.15688
2626.70479	0.15655
2624.77622	0.15624
2622.84766	0.15591
2620.91909	0.15559
2618.99053	0.15538
2617.06196	0.15535
2615.13340	0.15540
2613.20483	0.15532
2611.27627	0.15517
2609.34771	0.15509
2607.41914	0.15498
2605.49058	0.15480
2603.56201	0.15462
2601.63345	0.15456
2599.70488	0.15479
2597.77632	0.15514
2595.84775	0.15526
2593.91919	0.15525
2591.99062	0.15535
2590.06206	0.15552
2588.13350	0.15562
2586.20493	0.15566
2584.27637	0.15562
2582.34780	0.15563
2580.41924	0.15587
2578.49067	0.15638
2576.56211	0.15689
2574.63354	0.15718
2572.70498	0.15737
2570.77642	0.15765
2568.84785	0.15803
2566.91929	0.15841
2564.99072	0.15877
2563.06216	0.15919
2561.13359	0.15965
2559.20503	0.16011
2557.27646	0.16064
2555.34790	0.16126
2553.41934	0.16190
2551.49077	0.16249
2549.56221	0.16302
2547.63364	0.16345
2545.70508	0.16386
2543.77651	0.16438
2541.84795	0.16504
2539.91938	0.16580
2537.99082	0.16655
2536.06226	0.16716
2534.13369	0.16773
2532.20513	0.16832
2530.27656	0.16896
2528.34800	0.16960
2526.41943	0.17029
2524.49087	0.17105
2522.56230	0.17178
2520.63374	0.17249
2518.70518	0.17324
2516.77661	0.17409
2514.84805	0.17511
2512.91948	0.17610
2510.99092	0.17687
2509.06235	0.17750
2507.13379	0.17817
2505.20522	0.17904
2503.27666	0.17997
2501.34810	0.18073
2499.41953	0.18147
2497.49097	0.18226
2495.56240	0.18310
2493.63384	0.18399
2491.70527	0.18481
2489.77671	0.18557
2487.84814	0.18644
2485.91958	0.18756
2483.99102	0.18884
2482.06245	0.18983
2480.13389	0.19046
2478.20532	0.19110
2476.27676	0.19196
2474.34819	0.19295
2472.41963	0.19388
2470.49106	0.19474
2468.56250	0.19556
2466.63394	0.19633
2464.70537	0.19716
2462.77681	0.19814
2460.84824	0.19925
2458.91968	0.20040
2456.99111	0.20145
2455.06255	0.20239
2453.13398	0.20322
2451.20542	0.20404
2449.27686	0.20490
2447.34829	0.20579
2445.41973	0.20674
2443.49116	0.20784
2441.56260	0.20902
2439.63403	0.21012
2437.70547	0.21115
2435.77690	0.21218
2433.84834	0.21313
2431.91978	0.21406
2429.99121	0.21507
2428.06265	0.21610
2426.13408	0.21722
2424.20552	0.21848
2422.27695	0.21980
2420.34839	0.22107
2418.41982	0.22223
2416.49126	0.22322
2414.56270	0.22417
2412.63413	0.22528
2410.70557	0.22654
2408.77700	0.22778
2406.84844	0.22892
2404.91987	0.23005
2402.99131	0.23115
2401.06274	0.23216
2399.13418	0.23327
2397.20562	0.23463
2395.27705	0.23604
2393.34849	0.23738
2391.41992	0.23862
2389.49136	0.23963
2387.56279	0.24049
2385.63423	0.24145
2383.70566	0.24262
2381.77710	0.24384
2379.84854	0.24487
2377.91997	0.24579
2375.99141	0.24693
2374.06284	0.24838
2372.13428	0.24961
2370.20571	0.25047
2368.27715	0.25119
2366.34858	0.25185
2364.42002	0.25251
2362.49146	0.25402
2360.56289	0.25611
2358.63433	0.25765
2356.70576	0.25942
2354.77720	0.26107
2352.84863	0.26293
2350.92007	0.26521
2348.99150	0.26667
2347.06294	0.26743
2345.13437	0.26846
2343.20581	0.26995
2341.27725	0.27095
2339.34868	0.27239
2337.42012	0.27503
2335.49155	0.27757
2333.56299	0.27933
2331.63442	0.28109
2329.70586	0.28315
2327.77729	0.28469
2325.84873	0.28566
2323.92017	0.28704
2321.99160	0.28895
2320.06304	0.29103
2318.13447	0.29335
2316.20591	0.29563
2314.27734	0.29746
2312.34878	0.29906
2310.42021	0.30094
2308.49165	0.30293
2306.56309	0.30470
2304.63452	0.30643
2302.70596	0.30838
2300.77739	0.31052
2298.84883	0.31268
2296.92026	0.31466
2294.99170	0.31655
2293.06313	0.31856
2291.13457	0.32058
2289.20601	0.32246
2287.27744	0.32440
2285.34888	0.32643
2283.42031	0.32835
2281.49175	0.33020
2279.56318	0.33213
2277.63462	0.33406
2275.70605	0.33596
2273.77749	0.33799
2271.84893	0.34011
2269.92036	0.34221
2267.99180	0.34436
2266.06323	0.34658
2264.13467	0.34872
2262.20610	0.35080
2260.27754	0.35293
2258.34897	0.35516
2256.42041	0.35742
2254.49185	0.35953
2252.56328	0.36147
2250.63472	0.36349
2248.70615	0.36579
2246.77759	0.36822
2244.84902	0.37058
2242.92046	0.37279
2240.99189	0.37490
2239.06333	0.37700
2237.13477	0.37916
2235.20620	0.38146
2233.27764	0.38387
2231.34907	0.38614
2229.42051	0.38824
2227.49194	0.39042
2225.56338	0.39272
2223.63481	0.39496
2221.70625	0.39713
2219.77769	0.39931
2217.84912	0.40154
2215.92056	0.40376
2213.99199	0.40579
2212.06343	0.40774
2210.13486	0.40980
2208.20630	0.41195
2206.27773	0.41422
2204.34917	0.41647
2202.42061	0.41843
2200.49204	0.42023
2198.56348	0.42215
2196.63491	0.42420
2194.70635	0.42634
2192.77778	0.42842
2190.84922	0.43024
2188.92065	0.43192
2186.99209	0.43364
2185.06353	0.43545
2183.13496	0.43719
2181.20640	0.43879
2179.27783	0.44036
2177.34927	0.44196
2175.42070	0.44344
2173.49214	0.44489
2171.56357	0.44648
2169.63501	0.44797
2167.70645	0.44923
2165.77788	0.45049
2163.84932	0.45166
2161.92075	0.45271
2159.99219	0.45389
2158.06362	0.45497
2156.13506	0.45578
2154.20649	0.45663
2152.27793	0.45756
2150.34937	0.45827
2148.42080	0.45879
2146.49224	0.45924
2144.56367	0.45961
2142.63511	0.45994
2140.70654	0.46039
2138.77798	0.46081
2136.84941	0.46092
2134.92085	0.46090
2132.99229	0.46090
2131.06372	0.46076
2129.13516	0.46048
2127.20659	0.46015
2125.27803	0.45971
2123.34946	0.45917
2121.42090	0.45869
2119.49233	0.45824
2117.56377	0.45768
2115.63521	0.45689
2113.70664	0.45591
2111.77808	0.45486
2109.84951	0.45382
2107.92095	0.45284
2105.99238	0.45177
2104.06382	0.45056
2102.13525	0.44924
2100.20669	0.44786
2098.27812	0.44643
2096.34956	0.44488
2094.42100	0.44323
2092.49243	0.44155
2090.56387	0.43984
2088.63530	0.43810
2086.70674	0.43634
2084.77817	0.43449
2082.84961	0.43253
2080.92104	0.43046
2078.99248	0.42837
2077.06392	0.42628
2075.13535	0.42417
2073.20679	0.42204
2071.27822	0.41978
2069.34966	0.41737
2067.42109	0.41490
2065.49253	0.41247
2063.56396	0.41009
2061.63540	0.40775
2059.70684	0.40530
2057.77827	0.40280
2055.84971	0.40030
2053.92114	0.39772
2051.99258	0.39504
2050.06401	0.39229
2048.13545	0.38963
2046.20688	0.38699
2044.27832	0.38420
2042.34976	0.38131
2040.42119	0.37849
2038.49263	0.37585
2036.56406	0.37333
2034.63550	0.37062
2032.70693	0.36762
2030.77837	0.36469
2028.84980	0.36202
2026.92124	0.35941
2024.99268	0.35671
2023.06411	0.35387
2021.13555	0.35085
2019.20698	0.34785
2017.27842	0.34509
2015.34985	0.34246
2013.42129	0.33987
2011.49272	0.33723
2009.56416	0.33451
2007.63560	0.33175
2005.70703	0.32908
2003.77847	0.32654
2001.84990	0.32401
1999.92134	0.32131
1997.99277	0.31856
1996.06421	0.31601
1994.13564	0.31350
1992.20708	0.31084
1990.27852	0.30819
1988.34995	0.30587
1986.42139	0.30368
1984.49282	0.30128
1982.56426	0.29879
1980.63569	0.29642
1978.70713	0.29416
1976.77856	0.29198
1974.85000	0.28984
1972.92144	0.28761
1970.99287	0.28537
1969.06431	0.28336
1967.13574	0.28147
1965.20718	0.27946
1963.27861	0.27744
1961.35005	0.27556
1959.42148	0.27365
1957.49292	0.27174
1955.56436	0.26996
1953.63579	0.26822
1951.70723	0.26651
1949.77866	0.26494
1947.85010	0.26337
1945.92153	0.26174
1943.99297	0.26016
1942.06440	0.25865
1940.13584	0.25721
1938.20728	0.25584
1936.27871	0.25461
1934.35015	0.25349
1932.42158	0.25237
1930.49302	0.25117
1928.56445	0.25000
1926.63589	0.24891
1924.70732	0.24787
1922.77876	0.24689
1920.85020	0.24595
1918.92163	0.24502
1916.99307	0.24409
1915.06450	0.24320
1913.13594	0.24233
1911.20737	0.24157
1909.27881	0.24096
1907.35024	0.24043
1905.42168	0.23986
1903.49312	0.23921
1901.56455	0.23863
1899.63599	0.23807
1897.70742	0.23757
1895.77886	0.23718
1893.85029	0.23689
1891.92173	0.23659
1889.99316	0.23634
1888.06460	0.23610
1886.13604	0.23589
1884.20747	0.23573
1882.27891	0.23557
1880.35034	0.23541
1878.42178	0.23527
1876.49321	0.23521
1874.56465	0.23524
1872.63608	0.23539
1870.70752	0.23554
1868.77896	0.23589
1866.85039	0.23632
1864.92183	0.23644
1862.99326	0.23648
1861.06470	0.23671
1859.13613	0.23709
1857.20757	0.23746
1855.27900	0.23788
1853.35044	0.23833
1851.42187	0.23889
1849.49331	0.23953
1847.56475	0.24016
1845.63618	0.24081
1843.70762	0.24175
1841.77905	0.24269
1839.85049	0.24328
1837.92192	0.24409
1835.99336	0.24507
1834.06479	0.24602
1832.13623	0.24689
1830.20767	0.24802
1828.27910	0.24942
1826.35054	0.25061
1824.42197	0.25191
1822.49341	0.25327
1820.56484	0.25457
1818.63628	0.25592
1816.70771	0.25758
1814.77915	0.25927
1812.85059	0.26093
1810.92202	0.26276
1808.99346	0.26476
1807.06489	0.26684
1805.13633	0.26891
1803.20776	0.27106
1801.27920	0.27336
1799.35063	0.27616
1797.42207	0.27887
1795.49351	0.28123
1793.56494	0.28377
1791.63638	0.28720
1789.70781	0.29079
1787.77925	0.29360
1785.85068	0.29671
1783.92212	0.30031
1781.99355	0.30423
1780.06499	0.30846
1778.13643	0.31286
1776.20786	0.31680
1774.27930	0.32068
1772.35073	0.32600
1770.42217	0.33245
1768.49360	0.33831
1766.56504	0.34379
1764.63647	0.34917
1762.70791	0.35497
1760.77935	0.36238
1758.85078	0.36943
1756.92222	0.37651
1754.99365	0.38429
1753.06509	0.39130
1751.13652	0.39944
1749.20796	0.40980
1747.27939	0.42028
1745.35083	0.42954
1743.42227	0.43922
1741.49370	0.44990
1739.56514	0.46250
1737.63657	0.47509
1735.70801	0.48595
1733.77944	0.50216
1731.85088	0.52207
1729.92231	0.53810
1727.99375	0.55415
1726.06519	0.57122
1724.13662	0.58953
1722.20806	0.60905
1720.27949	0.62701
1718.35093	0.64812
1716.42236	0.67965
1714.49380	0.71027
1712.56523	0.73541
1710.63667	0.75965
1708.70811	0.78545
1706.77954	0.81450
1704.85098	0.84921
1702.92241	0.88054
1700.99385	0.91183
1699.06528	0.95808
1697.13672	1.00083
1695.20815	1.04539
1693.27959	1.08902
1691.35103	1.12402
1689.42246	1.16382
1687.49390	1.20549
1685.56533	1.24589
1683.63677	1.30912
1681.70820	1.37575
1679.77964	1.41900
1677.85107	1.45972
1675.92251	1.50568
1673.99395	1.56260
1672.06538	1.61419
1670.13682	1.66474
1668.20825	1.72986
1666.27969	1.78369
1664.35112	1.82977
1662.42256	1.88754
1660.49399	1.95344
1658.56543	2.00542
1656.63687	2.04656
1654.70830	2.08259
1652.77974	2.13684
1650.85117	2.18976
1648.92261	2.21035
1646.99404	2.23598
1645.06548	2.26482
1643.13691	2.28355
1641.20835	2.29235
1639.27979	2.29818
1637.35122	2.30117
1635.42266	2.30004
1633.49409	2.29074
1631.56553	2.27613
1629.63696	2.26014
1627.70840	2.23307
1625.77983	2.19823
1623.85127	2.15310
1621.92271	2.10082
1619.99414	2.05623
1618.06558	2.01161
1616.13701	1.94753
1614.20845	1.88425
1612.27988	1.83685
1610.35132	1.78607
1608.42275	1.72975
1606.49419	1.67474
1604.56562	1.62526
1602.63706	1.57817
1600.70850	1.53213
1598.77993	1.48941
1596.85137	1.44930
1594.92280	1.41053
1592.99424	1.37262
1591.06567	1.33764
1589.13711	1.30558
1587.20854	1.27612
1585.27998	1.24873
1583.35142	1.22309
1581.42285	1.19971
1579.49429	1.17979
1577.56572	1.16205
1575.63716	1.14078
1573.70859	1.12237
1571.78003	1.11053
1569.85146	1.09843
1567.92290	1.08540
1565.99434	1.07590
1564.06577	1.06888
1562.13721	1.06384
1560.20864	1.06112
1558.28008	1.05912
1556.35151	1.05794
1554.42295	1.05724
1552.49438	1.05618
1550.56582	1.05361
1548.63726	1.04901
1546.70869	1.04251
1544.78013	1.03339
1542.85156	1.02157
1540.92300	1.00487
1538.99443	0.97877
1537.06587	0.95973
1535.13730	0.94703
1533.20874	0.93011
1531.28018	0.91166
1529.35161	0.89801
1527.42305	0.88508
1525.49448	0.87156
1523.56592	0.86014
1521.63735	0.84956
1519.70879	0.83871
1517.78022	0.82924
1515.85166	0.81857
1513.92310	0.80767
1511.99453	0.79825
1510.06597	0.78956
1508.13740	0.78069
1506.20884	0.76717
1504.28027	0.75595
1502.35171	0.74983
1500.42314	0.74436
1498.49458	0.73823
1496.56602	0.73109
1494.63745	0.72441
1492.70889	0.71919
1490.78032	0.71416
1488.85176	0.70848
1486.92319	0.70368
1484.99463	0.70020
1483.06606	0.69745
1481.13750	0.69498
1479.20894	0.69275
1477.28037	0.69118
1475.35181	0.69028
1473.42324	0.68971
1471.49468	0.68873
1469.56611	0.68720
1467.63755	0.68540
1465.70898	0.68349
1463.78042	0.68176
1461.85186	0.68048
1459.92329	0.67966
1457.99473	0.67917
1456.06616	0.67811
1454.13760	0.67583
1452.20903	0.67330
1450.28047	0.67051
1448.35190	0.66763
1446.42334	0.66492
1444.49478	0.66239
1442.56621	0.65978
1440.63765	0.65701
1438.70908	0.65419
1436.78052	0.65095
1434.85195	0.64754
1432.92339	0.64474
1430.99482	0.64269
1429.06626	0.64159
1427.13770	0.64127
1425.20913	0.64130
1423.28057	0.64156
1421.35200	0.64171
1419.42344	0.64169
1417.49487	0.64148
1415.56631	0.64084
1413.63774	0.64019
1411.70918	0.63988
1409.78062	0.64010
1407.85205	0.64079
1405.92349	0.64177
1403.99492	0.64254
1402.06636	0.64243
1400.13779	0.64167
1398.20923	0.64044
1396.28066	0.63830
1394.35210	0.63493
1392.42354	0.63114
1390.49497	0.62758
1388.56641	0.62393
1386.63784	0.61984
1384.70928	0.61547
1382.78071	0.61113
1380.85215	0.60696
1378.92358	0.60330
1376.99502	0.60038
1375.06646	0.59830
1373.13789	0.59697
1371.20933	0.59605
1369.28076	0.59513
1367.35220	0.59399
1365.42363	0.59267
1363.49507	0.59124
1361.56650	0.58982
1359.63794	0.58851
1357.70937	0.58728
1355.78081	0.58605
1353.85225	0.58497
1351.92368	0.58416
1349.99512	0.58352
1348.06655	0.58284
1346.13799	0.58204
1344.20942	0.58124
1342.28086	0.58055
1340.35229	0.57993
1338.42373	0.57928
1336.49517	0.57867
1334.56660	0.57825
1332.63804	0.57807
1330.70947	0.57809
1328.78091	0.57834
1326.85234	0.57881
1324.92378	0.57940
1322.99521	0.57998
1321.06665	0.58044
1319.13809	0.58071
1317.20952	0.58090
1315.28096	0.58090
1313.35239	0.58053
1311.42383	0.57996
1309.49526	0.57940
1307.56670	0.57886
1305.63813	0.57826
1303.70957	0.57755
1301.78101	0.57686
1299.85244	0.57616
1297.92388	0.57527
1295.99531	0.57411
1294.06675	0.57279
1292.13818	0.57152
1290.20962	0.57038
1288.28105	0.56923
1286.35249	0.56796
1284.42393	0.56676
1282.49536	0.56584
1280.56680	0.56496
1278.63823	0.56384
1276.70967	0.56256
1274.78110	0.56145
1272.85254	0.56069
1270.92397	0.56009
1268.99541	0.55939
1267.06685	0.55853
1265.13828	0.55754
1263.20972	0.55650
1261.28115	0.55560
1259.35259	0.55498
1257.42402	0.55457
1255.49546	0.55430
1253.56689	0.55417
1251.63833	0.55414
1249.70977	0.55410
1247.78120	0.55402
1245.85264	0.55386
1243.92407	0.55340
1241.99551	0.55256
1240.06694	0.55140
1238.13838	0.54986
1236.20981	0.54789
1234.28125	0.54590
1232.35269	0.54409
1230.42412	0.54226
1228.49556	0.54041
1226.56699	0.53873
1224.63843	0.53733
1222.70986	0.53605
1220.78130	0.53480
1218.85273	0.53362
1216.92417	0.53252
1214.99561	0.53151
1213.06704	0.53064
1211.13848	0.53000
1209.20991	0.52941
1207.28135	0.52859
1205.35278	0.52764
1203.42422	0.52668
1201.49565	0.52563
1199.56709	0.52469
1197.63853	0.52405
1195.70996	0.52347
1193.78140	0.52298
1191.85283	0.52274
1189.92427	0.52259
1187.99570	0.52240
1186.06714	0.52227
1184.13857	0.52222
1182.21001	0.52233
1180.28145	0.52285
1178.35288	0.52375
1176.42432	0.52485
1174.49575	0.52595
1172.56719	0.52676
1170.63862	0.52700
1168.71006	0.52669
1166.78149	0.52621
1164.85293	0.52595
1162.92437	0.52571
1160.99580	0.52515
1159.06724	0.52442
1157.13867	0.52367
1155.21011	0.52262
1153.28154	0.52118
1151.35298	0.51951
1149.42441	0.51766
1147.49585	0.51565
1145.56729	0.51358
1143.63872	0.51144
1141.71016	0.50931
1139.78159	0.50734
1137.85303	0.50569
1135.92446	0.50441
1133.99590	0.50338
1132.06733	0.50254
1130.13877	0.50188
1128.21021	0.50116
1126.28164	0.50014
1124.35308	0.49889
1122.42451	0.49784
1120.49595	0.49724
1118.56738	0.49687
1116.63882	0.49649
1114.71025	0.49600
1112.78169	0.49556
1110.85312	0.49537
1108.92456	0.49564
1106.99600	0.49643
1105.06743	0.49755
1103.13887	0.49889
1101.21030	0.50067
1099.28174	0.50298
1097.35317	0.50558
1095.42461	0.50850
1093.49604	0.51187
1091.56748	0.51591
1089.63892	0.52066
1087.71035	0.52580
1085.78179	0.53132
1083.85322	0.53748
1081.92466	0.54389
1079.99609	0.54948
1078.06753	0.55299
1076.13896	0.55369
1074.21040	0.55176
1072.28184	0.54773
1070.35327	0.54201
1068.42471	0.53524
1066.49614	0.52818
1064.56758	0.52130
1062.63901	0.51509
1060.71045	0.50993
1058.78188	0.50568
1056.85332	0.50182
1054.92476	0.49806
1052.99619	0.49482
1051.06763	0.49234
1049.13906	0.49019
1047.21050	0.48830
1045.28193	0.48680
1043.35337	0.48539
1041.42480	0.48394
1039.49624	0.48249
1037.56768	0.48121
1035.63911	0.48052
1033.71055	0.48035
1031.78198	0.48011
1029.85342	0.47969
1027.92485	0.47949
1025.99629	0.47956
1024.06772	0.47974
1022.13916	0.48005
1020.21060	0.48064
1018.28203	0.48144
1016.35347	0.48227
1014.42490	0.48310
1012.49634	0.48413
1010.56777	0.48543
1008.63921	0.48692
1006.71064	0.48855
1004.78208	0.49036
1002.85352	0.49260
1000.92495	0.49543
998.99639	0.49876
997.06782	0.50252
995.13926	0.50671
993.21069	0.51093
991.28213	0.51455
989.35356	0.51715
987.42500	0.51867
985.49644	0.51950
983.56787	0.52006
981.63931	0.52080
979.71074	0.52222
977.78218	0.52431
975.85361	0.52682
973.92505	0.52968
971.99648	0.53280
970.06792	0.53614
968.13936	0.53994
966.21079	0.54420
964.28223	0.54866
962.35366	0.55341
960.42510	0.55857
958.49653	0.56406
956.56797	0.56969
954.63940	0.57554
952.71084	0.58180
950.78228	0.58854
948.85371	0.59550
946.92515	0.60221
944.99658	0.60849
943.06802	0.61445
941.13945	0.62043
939.21089	0.62650
937.28232	0.63251
935.35376	0.63878
933.42520	0.64508
931.49663	0.65095
929.56807	0.65675
927.63950	0.66284
925.71094	0.66947
923.78237	0.67628
921.85381	0.68245
919.92524	0.68858
917.99668	0.69548
916.06812	0.70279
914.13955	0.71049
912.21099	0.71835
910.28242	0.72619
908.35386	0.73466
906.42529	0.74340
904.49673	0.75186
902.56816	0.76084
900.63960	0.77053
898.71104	0.78069
896.78247	0.79081
894.85391	0.80077
892.92534	0.81186
890.99678	0.82302
889.06821	0.83281
887.13965	0.84282
885.21108	0.85394
883.28252	0.86600
881.35396	0.87828
879.42539	0.89012
877.49683	0.90217
875.56826	0.91348
873.63970	0.92375
871.71113	0.93491
869.78257	0.94626
867.85400	0.95684
865.92544	0.96841
863.99687	0.98160
862.06831	0.99448
860.13975	1.00570
858.21118	1.01706
856.28262	1.03020
854.35405	1.04365
852.42549	1.05580
850.49692	1.06735
848.56836	1.07824
846.63979	1.08957
844.71123	1.10428
842.78267	1.11906
840.85410	1.12988
838.92554	1.13951
836.99697	1.15075
835.06841	1.16447
833.13984	1.18119
831.21128	1.19717
829.28271	1.20849
827.35415	1.21880
825.42559	1.22957
823.49702	1.23612
821.56846	1.24003
819.63989	1.24994
817.71133	1.26638
815.78276	1.28145
813.85420	1.29063
811.92563	1.29945
809.99707	1.31860
808.06851	1.34198
806.13994	1.34635
804.21138	1.32923
802.28281	1.33242
800.35425	1.38888
798.42568	1.46706
796.49712	1.47851
794.56855	1.42868
792.63999	1.40648
790.71143	1.42390
788.78286	1.47209
786.85430	1.58101
784.92573	1.64606
782.99717	1.54884
781.06860	1.47020
779.14004	1.45288
777.21147	1.48036
775.28291	1.59577
773.35435	1.82250
771.42578	1.94809
769.49722	1.80221
767.56865	1.87334
765.64009	1.96463
763.71152	1.59481
761.78296	1.34429
759.85439	1.27063
757.92583	1.29136
755.99727	1.35978
754.06870	1.41635
752.14014	1.39039
750.21157	1.33737
748.28301	1.26501
746.35444	1.26097
744.42588	1.23518
742.49731	1.10421
740.56875	1.05190
738.64019	1.11147
736.71162	1.09887
734.78306	0.91384
732.85449	0.82357
730.92593	0.89471
728.99736	0.88377
727.06880	0.77580
725.14023	0.82940
723.21167	0.90468
721.28311	0.84520
719.35454	0.57018
717.42598	0.33407
715.49741	0.29689
713.56885	0.38606
711.64028	0.44874
709.71172	0.48442
707.78315	0.42586
705.85459	0.25062
703.92603	0.17436
701.99746	0.24897
700.06890	0.33692
698.14033	0.22996
696.21177	0.12166
694.28320	0.12734
692.35464	0.22149
690.42607	0.33133
688.49751	0.37741
686.56895	0.44264
684.64038	0.51944
682.71182	0.46742
680.78325	0.39255
678.85469	0.42525
676.92612	0.48323
674.99756	0.37387
673.06899	0.19335
671.14043	0.10365
669.21187	0.09939
667.28330	0.14418
665.35474	0.20766
663.42617	0.21237
661.49761	0.21588
659.56904	0.24600
657.64048	0.27645
655.71191	0.27779
653.78335	0.19385
651.85479	0.07008
649.92622	0.06018
647.99766	0.14653
646.06909	0.12163
644.14053	0.06036
642.21196	0.09604
640.28340	0.23125
638.35483	0.37532
636.42627	0.42586
634.49771	0.29776
632.56914	0.11851
630.64058	0.06434
628.71201	0.13634
626.78345	0.24549
624.85488	0.31703
622.92632	0.24862
620.99775	0.18682
619.06919	0.19745
617.14062	0.23627
615.21206	0.28873
613.28350	0.29658
611.35493	0.19742
609.42637	0.14872
607.49780	0.19356
605.56924	0.29429
603.64067	0.40309
601.71211	0.42857
599.78354	0.36496
597.85498	0.26796
595.92642	0.23242
593.99785	0.21471
592.06929	0.13176
590.14072	0.04755
588.21216	0.03819
586.28359	0.04834
584.35503	0.06917
582.42646	0.15089
580.49790	0.22091
578.56934	0.23035
576.64077	0.22045
574.71221	0.20261
572.78364	0.21647
570.85508	0.21382
568.92651	0.14081
566.99795	0.09308
565.06938	0.09707
563.14082	0.09410
561.21226	0.08229
559.28369	0.09392
557.35513	0.13285
555.42656	0.17301
553.49800	0.21930
551.56943	0.28134
549.64087	0.28278
547.71230	0.23084
545.78374	0.18362
543.85518	0.17377
541.92661	0.22771
539.99805	0.28688
538.06948	0.28344
536.14092	0.27911
534.21235	0.30887
532.28379	0.30178
530.35522	0.28325
528.42666	0.32676
526.49810	0.35603
524.56953	0.29815
522.64097	0.19900
520.71240	0.16032
518.78384	0.17463
516.85527	0.16380
514.92671	0.10449
512.99814	0.10149
511.06958	0.15557
509.14102	0.16435
507.21245	0.15862
505.28389	0.16938
503.35532	0.22249
501.42676	0.37964
499.49819	0.46120
