3997.91411	0.07947
3995.98555	0.07944
3994.05698	0.07905
3992.12842	0.07918
3990.19985	0.07973
3988.27129	0.07998
3986.34272	0.08011
3984.41416	0.08040
3982.48560	0.08064
3980.55703	0.08078
3978.62847	0.08087
3976.69990	0.08115
3974.77134	0.08155
3972.84277	0.08172
3970.91421	0.08176
3968.98564	0.08178
3967.05708	0.08175
3965.12852	0.08182
3963.19995	0.08219
3961.27139	0.08260
3959.34282	0.08271
3957.41426	0.08247
3955.48569	0.08212
3953.55713	0.08200
3951.62856	0.08222
3949.70000	0.08254
3947.77144	0.08265
3945.84287	0.08267
3943.91431	0.08289
3941.98574	0.08288
3940.05718	0.08215
3938.12861	0.08136
3936.20005	0.08127
3934.27148	0.08181
3932.34292	0.08256
3930.41436	0.08296
3928.48579	0.08296
3926.55723	0.08289
3924.62866	0.08279
3922.70010	0.08233
3920.77153	0.08177
3918.84297	0.08177
3916.91440	0.08233
3914.98584	0.08262
3913.05728	0.08223
3911.12871	0.08189
3909.20015	0.08198
3907.27158	0.08220
3905.34302	0.08253
3903.41445	0.08300
3901.48589	0.08313
3899.55732	0.08312
3897.62876	0.08316
3895.70020	0.08282
3893.77163	0.08258
3891.84307	0.08288
3889.91450	0.08296
3887.98594	0.08234
3886.05737	0.08210
3884.12881	0.08254
3882.20024	0.08282
3880.27168	0.08289
3878.34312	0.08272
3876.41455	0.08229
3874.48599	0.08235
3872.55742	0.08288
3870.62886	0.08364
3868.70029	0.08467
3866.77173	0.08491
3864.84316	0.08481
3862.91460	0.08517
3860.98604	0.08503
3859.05747	0.08459
3857.12891	0.08473
3855.20034	0.08567
3853.27178	0.08772
3851.34321	0.08906
3849.41465	0.08811
3847.48608	0.08733
3845.55752	0.08739
3843.62896	0.08802
3841.70039	0.08911
3839.77183	0.09029
3837.84326	0.09136
3835.91470	0.09228
3833.98613	0.09282
3832.05757	0.09293
3830.12900	0.09316
3828.20044	0.09392
3826.27187	0.09491
3824.34331	0.09548
3822.41475	0.09591
3820.48618	0.09730
3818.55762	0.09862
3816.62905	0.09921
3814.70049	0.10016
3812.77192	0.10057
3810.84336	0.10052
3808.91479	0.10106
3806.98623	0.10248
3805.05767	0.10431
3803.12910	0.10576
3801.20054	0.10720
3799.27197	0.10838
3797.34341	0.10903
3795.41484	0.11008
3793.48628	0.11092
3791.55771	0.11101
3789.62915	0.11139
3787.70059	0.11283
3785.77202	0.11506
3783.84346	0.11723
3781.91489	0.11880
3779.98633	0.12016
3778.05776	0.12165
3776.12920	0.12272
3774.20063	0.12340
3772.27207	0.12435
3770.34351	0.12625
3768.41494	0.12883
3766.48638	0.13107
3764.55781	0.13324
3762.62925	0.13537
3760.70068	0.13752
3758.77212	0.14011
3756.84355	0.14245
3754.91499	0.14417
3752.98643	0.14636
3751.05786	0.14998
3749.12930	0.15418
3747.20073	0.15673
3745.27217	0.15896
3743.34360	0.16237
3741.41504	0.16526
3739.48647	0.16761
3737.55791	0.17117
3735.62935	0.17654
3733.70078	0.18237
3731.77222	0.18623
3729.84365	0.18904
3727.91509	0.19249
3725.98652	0.19751
3724.05796	0.20416
3722.12939	0.21145
3720.20083	0.21861
3718.27227	0.22541
3716.34370	0.23228
3714.41514	0.23951
3712.48657	0.24831
3710.55801	0.26057
3708.62944	0.27411
3706.70088	0.28593
3704.77231	0.29750
3702.84375	0.31058
3700.91519	0.32661
3698.98662	0.34402
3697.05806	0.36106
3695.12949	0.37929
3693.20093	0.39861
3691.27236	0.41956
3689.34380	0.44678
3687.41523	0.48075
3685.48667	0.51034
3683.55811	0.53553
3681.62954	0.56298
3679.70098	0.59412
3677.77241	0.62642
3675.84385	0.66417
3673.91528	0.71558
3671.98672	0.75866
3670.05815	0.79686
3668.12959	0.84845
3666.20103	0.89616
3664.27246	0.93692
3662.34390	0.98050
3660.41533	1.02670
3658.48677	1.07151
3656.55820	1.11908
3654.62964	1.17275
3652.70107	1.21863
3650.77251	1.25872
3648.84395	1.31331
3646.91538	1.38031
3644.98682	1.43021
3643.05825	1.46890
3641.12969	1.50850
3639.20112	1.55173
3637.27256	1.59518
3635.34399	1.63813
3633.41543	1.68103
3631.48687	1.72012
3629.55830	1.75919
3627.62974	1.81198
3625.70117	1.86359
3623.77261	1.89883
3621.84404	1.93133
3619.91548	1.96816
3617.98691	2.01288
3616.05835	2.05709
3614.12979	2.09525
3612.20122	2.13521
3610.27266	2.17507
3608.34409	2.21443
3606.41553	2.25568
3604.48696	2.29444
3602.55840	2.33053
3600.62983	2.36993
3598.70127	2.41106
3596.77271	2.44993
3594.84414	2.48940
3592.91558	2.53001
3590.98701	2.56842
3589.05845	2.60583
3587.12988	2.65088
3585.20132	2.69917
3583.27275	2.74091
3581.34419	2.78112
3579.41562	2.82304
3577.48706	2.86496
3575.55850	2.90726
3573.62993	2.95163
3571.70137	2.99405
3569.77280	3.03333
3567.84424	3.07675
3565.91567	3.13210
3563.98711	3.18468
3562.05854	3.22456
3560.12998	3.26229
3558.20142	3.30451
3556.27285	3.35105
3554.34429	3.39825
3552.41572	3.44716
3550.48716	3.49653
3548.55859	3.54212
3546.63003	3.58540
3544.70146	3.63135
3542.77290	3.67810
3540.84434	3.72368
3538.91577	3.77090
3536.98721	3.81906
3535.05864	3.86883
3533.13008	3.91890
3531.20151	3.96864
3529.27295	4.02085
3527.34438	4.07523
3525.41582	4.12389
3523.48726	4.16524
3521.55869	4.20965
3519.63013	4.26123
3517.70156	4.31445
3515.77300	4.36310
3513.84443	4.41117
3511.91587	4.46136
3509.98730	4.50954
3508.05874	4.55889
3506.13018	4.61123
3504.20161	4.65920
3502.27305	4.70421
3500.34448	4.75242
3498.41592	4.79680
3496.48735	4.83788
3494.55879	4.88535
3492.63022	4.93892
3490.70166	4.99633
3488.77310	5.05429
3486.84453	5.10464
3484.91597	5.14703
3482.98740	5.18955
3481.05884	5.24107
3479.13027	5.30035
3477.20171	5.35578
3475.27314	5.39994
3473.34458	5.43565
3471.41602	5.47508
3469.48745	5.52765
3467.55889	5.58741
3465.63032	5.63891
3463.70176	5.68606
3461.77319	5.74155
3459.84463	5.79638
3457.91606	5.84492
3455.98750	5.89883
3454.05894	5.94876
3452.13037	5.98755
3450.20181	6.03509
3448.27324	6.08989
3446.34468	6.13747
3444.41611	6.18795
3442.48755	6.25646
3440.55898	6.32085
3438.63042	6.36301
3436.70186	6.40704
3434.77329	6.46615
3432.84473	6.51859
3430.91616	6.55391
3428.98760	6.58791
3427.05903	6.62275
3425.13047	6.66864
3423.20190	6.73240
3421.27334	6.79698
3419.34478	6.84365
3417.41621	6.88086
3415.48765	6.93325
3413.55908	7.00553
3411.63052	7.07474
3409.70195	7.10884
3407.77339	7.15018
3405.84482	7.23892
3403.91626	7.33295
3401.98770	7.38177
3400.05913	7.39339
3398.13057	7.38397
3396.20200	7.37225
3394.27344	7.40758
3392.34487	7.47259
3390.41631	7.52370
3388.48774	7.55992
3386.55918	7.60243
3384.63062	7.65872
3382.70205	7.71664
3380.77349	7.74459
3378.84492	7.75630
3376.91636	7.81611
3374.98779	7.91522
3373.05923	8.00832
3371.13066	8.03558
3369.20210	7.98469
3367.27354	7.91720
3365.34497	7.91747
3363.41641	8.00530
3361.48784	8.07831
3359.55928	8.08621
3357.63071	8.10646
3355.70215	8.14559
3353.77358	8.11765
3351.84502	8.05887
3349.91646	8.02385
3347.98789	8.04737
3346.05933	8.12901
3344.13076	8.16768
3342.20220	8.10206
3340.27363	8.02717
3338.34507	8.09733
3336.41650	8.26605
3334.48794	8.38399
3332.55937	8.43182
3330.63081	8.42157
3328.70225	8.35629
3326.77368	8.28630
3324.84512	8.24893
3322.91655	8.27669
3320.98799	8.41294
3319.05942	8.54517
3317.13086	8.52922
3315.20229	8.43750
3313.27373	8.43620
3311.34517	8.55902
3309.41660	8.65991
3307.48804	8.66726
3305.55947	8.62871
3303.63091	8.51806
3301.70234	8.41570
3299.77378	8.43874
3297.84521	8.48936
3295.91665	8.48112
3293.98809	8.44857
3292.05952	8.42564
3290.13096	8.42278
3288.20239	8.43322
3286.27383	8.47441
3284.34526	8.56418
3282.41670	8.69053
3280.48813	8.75046
3278.55957	8.72763
3276.63101	8.68334
3274.70244	8.69754
3272.77388	8.82001
3270.84531	8.80971
3268.91675	8.57643
3266.98818	8.41273
3265.05962	8.40506
3263.13105	8.44040
3261.20249	8.47007
3259.27393	8.46429
3257.34536	8.43722
3255.41680	8.43863
3253.48823	8.44760
3251.55967	8.49415
3249.63110	8.62449
3247.70254	8.77042
3245.77397	8.76978
3243.84541	8.61973
3241.91685	8.50252
3239.98828	8.48043
3238.05972	8.51503
3236.13115	8.57813
3234.20259	8.57677
3232.27402	8.55445
3230.34546	8.65780
3228.41689	8.72623
3226.48833	8.63192
3224.55977	8.53280
3222.63120	8.42047
3220.70264	8.30418
3218.77407	8.31082
3216.84551	8.38992
3214.91694	8.39389
3212.98838	8.35792
3211.05981	8.33025
3209.13125	8.25942
3207.20269	8.16841
3205.27412	8.11405
3203.34556	8.08525
3201.41699	8.05842
3199.48843	8.03320
3197.55986	8.02603
3195.63130	8.02919
3193.70273	8.01495
3191.77417	7.97139
3189.84561	7.88345
3187.91704	7.76624
3185.98848	7.65563
3184.05991	7.54710
3182.13135	7.46310
3180.20278	7.45647
3178.27422	7.47840
3176.34565	7.41882
3174.41709	7.29725
3172.48853	7.19681
3170.55996	7.13900
3168.63140	7.11193
3166.70283	7.06119
3164.77427	6.97155
3162.84570	6.89847
3160.91714	6.84743
3158.98857	6.79904
3157.06001	6.73863
3155.13145	6.66881
3153.20288	6.60848
3151.27432	6.53941
3149.34575	6.44684
3147.41719	6.35300
3145.48862	6.27550
3143.56006	6.20802
3141.63149	6.14216
3139.70293	6.08113
3137.77437	6.02156
3135.84580	5.95402
3133.91724	5.88148
3131.98867	5.80306
3130.06011	5.71699
3128.13154	5.63312
3126.20298	5.55527
3124.27441	5.48298
3122.34585	5.41671
3120.41729	5.35271
3118.48872	5.28460
3116.56016	5.21350
3114.63159	5.14372
3112.70303	5.07358
3110.77446	5.00209
3108.84590	4.92987
3106.91733	4.85472
3104.98877	4.77988
3103.06021	4.71366
3101.13164	4.65267
3099.20308	4.58819
3097.27451	4.51910
3095.34595	4.45041
3093.41738	4.38666
3091.48882	4.32648
3089.56025	4.26446
3087.63169	4.19784
3085.70312	4.13268
3083.77456	4.07230
3081.84600	4.01119
3079.91743	3.94619
3077.98887	3.88200
3076.06030	3.82305
3074.13174	3.76632
3072.20317	3.70867
3070.27461	3.64987
3068.34604	3.59091
3066.41748	3.53381
3064.48892	3.47790
3062.56035	3.42203
3060.63179	3.36828
3058.70322	3.31628
3056.77466	3.26225
3054.84609	3.20662
3052.91753	3.15293
3050.98896	3.10155
3049.06040	3.05063
3047.13184	2.99998
3045.20327	2.95067
3043.27471	2.90248
3041.34614	2.85439
3039.41758	2.80625
3037.48901	2.75898
3035.56045	2.71263
3033.63188	2.66582
3031.70332	2.61893
3029.77476	2.57333
3027.84619	2.52920
3025.91763	2.48596
3023.98906	2.44284
3022.06050	2.40032
3020.13193	2.35855
3018.20337	2.31691
3016.27480	2.27630
3014.34624	2.23678
3012.41768	2.19730
3010.48911	2.15833
3008.56055	2.12123
3006.63198	2.08597
3004.70342	2.05095
3002.77485	2.01520
3000.84629	1.97967
2998.91772	1.94528
2996.98916	1.91183
2995.06060	1.87913
2993.13203	1.84709
2991.20347	1.81607
2989.27490	1.78657
2987.34634	1.75830
2985.41777	1.73085
2983.48921	1.70372
2981.56064	1.67619
2979.63208	1.64860
2977.70352	1.62195
2975.77495	1.59639
2973.84639	1.57155
2971.91782	1.54687
2969.98926	1.52220
2968.06069	1.49835
2966.13213	1.47525
2964.20356	1.45172
2962.27500	1.42795
2960.34644	1.40454
2958.41787	1.38095
2956.48931	1.35699
2954.56074	1.33318
2952.63218	1.31016
2950.70361	1.28777
2948.77505	1.26490
2946.84648	1.24167
2944.91792	1.21957
2942.98936	1.19868
2941.06079	1.17824
2939.13223	1.15825
2937.20366	1.13868
2935.27510	1.11906
2933.34653	1.09907
2931.41797	1.07920
2929.48940	1.05984
2927.56084	1.04025
2925.63228	1.02038
2923.70371	1.00124
2921.77515	0.98315
2919.84658	0.96594
2917.91802	0.94900
2915.98945	0.93171
2914.06089	0.91475
2912.13232	0.89841
2910.20376	0.88220
2908.27520	0.86639
2906.34663	0.85135
2904.41807	0.83679
2902.48950	0.82236
2900.56094	0.80819
2898.63237	0.79467
2896.70381	0.78179
2894.77524	0.76914
2892.84668	0.75637
2890.91812	0.74374
2888.98955	0.73174
2887.06099	0.72055
2885.13242	0.71021
2883.20386	0.70040
2881.27529	0.69048
2879.34673	0.68039
2877.41816	0.67077
2875.48960	0.66146
2873.56104	0.65157
2871.63247	0.64092
2869.70391	0.62994
2867.77534	0.61866
2865.84678	0.60674
2863.91821	0.59438
2861.98965	0.58227
2860.06108	0.57076
2858.13252	0.55986
2856.20396	0.54966
2854.27539	0.54009
2852.34683	0.53096
2850.41826	0.52245
2848.48970	0.51445
2846.56113	0.50653
2844.63257	0.49871
2842.70400	0.49133
2840.77544	0.48451
2838.84687	0.47804
2836.91831	0.47177
2834.98975	0.46578
2833.06118	0.45985
2831.13262	0.45363
2829.20405	0.44733
2827.27549	0.44117
2825.34692	0.43511
2823.41836	0.42914
2821.48979	0.42321
2819.56123	0.41729
2817.63267	0.41142
2815.70410	0.40571
2813.77554	0.40005
2811.84697	0.39431
2809.91841	0.38880
2807.98984	0.38356
2806.06128	0.37812
2804.13271	0.37252
2802.20415	0.36718
2800.27559	0.36214
2798.34702	0.35724
2796.41846	0.35246
2794.48989	0.34784
2792.56133	0.34330
2790.63276	0.33880
2788.70420	0.33428
2786.77563	0.32958
2784.84707	0.32484
2782.91851	0.32044
2780.98994	0.31638
2779.06138	0.31250
2777.13281	0.30870
2775.20425	0.30487
2773.27568	0.30106
2771.34712	0.29729
2769.41855	0.29348
2767.48999	0.28962
2765.56143	0.28601
2763.63286	0.28259
2761.70430	0.27908
2759.77573	0.27558
2757.84717	0.27228
2755.91860	0.26918
2753.99004	0.26611
2752.06147	0.26298
2750.13291	0.25987
2748.20435	0.25679
2746.27578	0.25376
2744.34722	0.25091
2742.41865	0.24837
2740.49009	0.24596
2738.56152	0.24332
2736.63296	0.24044
2734.70439	0.23770
2732.77583	0.23534
2730.84727	0.23324
2728.91870	0.23116
2726.99014	0.22899
2725.06157	0.22674
2723.13301	0.22438
2721.20444	0.22196
2719.27588	0.21964
2717.34731	0.21751
2715.41875	0.21546
2713.49019	0.21347
2711.56162	0.21150
2709.63306	0.20972
2707.70449	0.20822
2705.77593	0.20668
2703.84736	0.20508
2701.91880	0.20358
2699.99023	0.20213
2698.06167	0.20071
2696.13311	0.19932
2694.20454	0.19786
2692.27598	0.19641
2690.34741	0.19506
2688.41885	0.19377
2686.49028	0.19241
2684.56172	0.19106
2682.63315	0.18975
2680.70459	0.18846
2678.77603	0.18726
2676.84746	0.18610
2674.91890	0.18493
2672.99033	0.18386
2671.06177	0.18285
2669.13320	0.18185
2667.20464	0.18089
2665.27607	0.17995
2663.34751	0.17906
2661.41895	0.17828
2659.49038	0.17745
2657.56182	0.17647
2655.63325	0.17550
2653.70469	0.17473
2651.77612	0.17408
2649.84756	0.17333
2647.91899	0.17238
2645.99043	0.17152
2644.06187	0.17097
2642.13330	0.17055
2640.20474	0.16998
2638.27617	0.16937
2636.34761	0.16882
2634.41904	0.16830
2632.49048	0.16790
2630.56191	0.16757
2628.63335	0.16717
2626.70479	0.16669
2624.77622	0.16624
2622.84766	0.16587
2620.91909	0.16549
2618.99053	0.16506
2617.06196	0.16471
2615.13340	0.16451
2613.20483	0.16442
2611.27627	0.16439
2609.34771	0.16431
2607.41914	0.16402
2605.49058	0.16368
2603.56201	0.16353
2601.63345	0.16358
2599.70488	0.16366
2597.77632	0.16365
2595.84775	0.16361
2593.91919	0.16357
2591.99062	0.16353
2590.06206	0.16355
2588.13350	0.16378
2586.20493	0.16410
2584.27637	0.16420
2582.34780	0.16413
2580.41924	0.16424
2578.49067	0.16451
2576.56211	0.16475
2574.63354	0.16494
2572.70498	0.16523
2570.77642	0.16562
2568.84785	0.16594
2566.91929	0.16626
2564.99072	0.16660
2563.06216	0.16693
2561.13359	0.16722
2559.20503	0.16754
2557.27646	0.16797
2555.34790	0.16847
2553.41934	0.16897
2551.49077	0.16942
2549.56221	0.16986
2547.63364	0.17032
2545.70508	0.17080
2543.77651	0.17135
2541.84795	0.17212
2539.91938	0.17293
2537.99082	0.17346
2536.06226	0.17385
2534.13369	0.17447
2532.20513	0.17524
2530.27656	0.17583
2528.34800	0.17622
2526.41943	0.17667
2524.49087	0.17733
2522.56230	0.17815
2520.63374	0.17908
2518.70518	0.18000
2516.77661	0.18067
2514.84805	0.18113
2512.91948	0.18166
2510.99092	0.18230
2509.06235	0.18303
2507.13379	0.18383
2505.20522	0.18466
2503.27666	0.18549
2501.34810	0.18623
2499.41953	0.18685
2497.49097	0.18770
2495.56240	0.18888
2493.63384	0.18993
2491.70527	0.19064
2489.77671	0.19129
2487.84814	0.19196
2485.91958	0.19266
2483.99102	0.19359
2482.06245	0.19453
2480.13389	0.19521
2478.20532	0.19589
2476.27676	0.19670
2474.34819	0.19754
2472.41963	0.19839
2470.49106	0.19929
2468.56250	0.20026
2466.63394	0.20128
2464.70537	0.20226
2462.77681	0.20307
2460.84824	0.20377
2458.91968	0.20450
2456.99111	0.20538
2455.06255	0.20638
2453.13398	0.20741
2451.20542	0.20838
2449.27686	0.20924
2447.34829	0.21008
2445.41973	0.21104
2443.49116	0.21211
2441.56260	0.21311
2439.63403	0.21391
2437.70547	0.21470
2435.77690	0.21567
2433.84834	0.21675
2431.91978	0.21785
2429.99121	0.21897
2428.06265	0.22006
2426.13408	0.22109
2424.20552	0.22203
2422.27695	0.22299
2420.34839	0.22408
2418.41982	0.22534
2416.49126	0.22666
2414.56270	0.22781
2412.63413	0.22872
2410.70557	0.22965
2408.77700	0.23075
2406.84844	0.23194
2404.91987	0.23316
2402.99131	0.23432
2401.06274	0.23543
2399.13418	0.23653
2397.20562	0.23752
2395.27705	0.23850
2393.34849	0.23970
2391.41992	0.24104
2389.49136	0.24232
2387.56279	0.24363
2385.63423	0.24488
2383.70566	0.24595
2381.77710	0.24697
2379.84854	0.24805
2377.91997	0.24904
2375.99141	0.24968
2374.06284	0.25014
2372.13428	0.25076
2370.20571	0.25174
2368.27715	0.25302
2366.34858	0.25463
2364.42002	0.25677
2362.49146	0.25921
2360.56289	0.26081
2358.63433	0.26156
2356.70576	0.26254
2354.77720	0.26379
2352.84863	0.26549
2350.92007	0.26756
2348.99150	0.26921
2347.06294	0.27023
2345.13437	0.27108
2343.20581	0.27244
2341.27725	0.27417
2339.34868	0.27543
2337.42012	0.27664
2335.49155	0.27867
2333.56299	0.28081
2331.63442	0.28243
2329.70586	0.28407
2327.77729	0.28586
2325.84873	0.28731
2323.92017	0.28877
2321.99160	0.29104
2320.06304	0.29373
2318.13447	0.29593
2316.20591	0.29769
2314.27734	0.29961
2312.34878	0.30174
2310.42021	0.30377
2308.49165	0.30562
2306.56309	0.30737
2304.63452	0.30908
2302.70596	0.31078
2300.77739	0.31257
2298.84883	0.31448
2296.92026	0.31649
2294.99170	0.31852
2293.06313	0.32050
2291.13457	0.32240
2289.20601	0.32440
2287.27744	0.32651
2285.34888	0.32851
2283.42031	0.33038
2281.49175	0.33226
2279.56318	0.33420
2277.63462	0.33611
2275.70605	0.33800
2273.77749	0.34000
2271.84893	0.34214
2269.92036	0.34431
2267.99180	0.34639
2266.06323	0.34849
2264.13467	0.35072
2262.20610	0.35281
2260.27754	0.35465
2258.34897	0.35661
2256.42041	0.35878
2254.49185	0.36102
2252.56328	0.36333
2250.63472	0.36561
2248.70615	0.36778
2246.77759	0.36992
2244.84902	0.37204
2242.92046	0.37418
2240.99189	0.37641
2239.06333	0.37878
2237.13477	0.38122
2235.20620	0.38347
2233.27764	0.38551
2231.34907	0.38766
2229.42051	0.38993
2227.49194	0.39212
2225.56338	0.39423
2223.63481	0.39638
2221.70625	0.39860
2219.77769	0.40090
2217.84912	0.40316
2215.92056	0.40531
2213.99199	0.40736
2212.06343	0.40943
2210.13486	0.41159
2208.20630	0.41369
2206.27773	0.41569
2204.34917	0.41769
2202.42061	0.41964
2200.49204	0.42157
2198.56348	0.42359
2196.63491	0.42561
2194.70635	0.42758
2192.77778	0.42956
2190.84922	0.43146
2188.92065	0.43329
2186.99209	0.43508
2185.06353	0.43679
2183.13496	0.43848
2181.20640	0.44017
2179.27783	0.44173
2177.34927	0.44319
2175.42070	0.44471
2173.49214	0.44631
2171.56357	0.44776
2169.63501	0.44911
2167.70645	0.45052
2165.77788	0.45188
2163.84932	0.45310
2161.92075	0.45417
2159.99219	0.45500
2158.06362	0.45569
2156.13506	0.45652
2154.20649	0.45744
2152.27793	0.45833
2150.34937	0.45919
2148.42080	0.45991
2146.49224	0.46043
2144.56367	0.46076
2142.63511	0.46097
2140.70654	0.46117
2138.77798	0.46141
2136.84941	0.46163
2134.92085	0.46176
2132.99229	0.46171
2131.06372	0.46148
2129.13516	0.46118
2127.20659	0.46086
2125.27803	0.46064
2123.34946	0.46039
2121.42090	0.45986
2119.49233	0.45907
2117.56377	0.45834
2115.63521	0.45767
2113.70664	0.45681
2111.77808	0.45581
2109.84951	0.45477
2107.92095	0.45364
2105.99238	0.45247
2104.06382	0.45136
2102.13525	0.45018
2100.20669	0.44881
2098.27812	0.44731
2096.34956	0.44584
2094.42100	0.44435
2092.49243	0.44269
2090.56387	0.44083
2088.63530	0.43894
2086.70674	0.43717
2084.77817	0.43538
2082.84961	0.43343
2080.92104	0.43137
2078.99248	0.42931
2077.06392	0.42720
2075.13535	0.42498
2073.20679	0.42278
2071.27822	0.42067
2069.34966	0.41846
2067.42109	0.41608
2065.49253	0.41369
2063.56396	0.41123
2061.63540	0.40861
2059.70684	0.40597
2057.77827	0.40346
2055.84971	0.40109
2053.92114	0.39858
2051.99258	0.39576
2050.06401	0.39299
2048.13545	0.39042
2046.20688	0.38775
2044.27832	0.38502
2042.34976	0.38236
2040.42119	0.37967
2038.49263	0.37685
2036.56406	0.37398
2034.63550	0.37120
2032.70693	0.36847
2030.77837	0.36573
2028.84980	0.36297
2026.92124	0.36014
2024.99268	0.35726
2023.06411	0.35445
2021.13555	0.35169
2019.20698	0.34901
2017.27842	0.34646
2015.34985	0.34379
2013.42129	0.34097
2011.49272	0.33822
2009.56416	0.33554
2007.63560	0.33277
2005.70703	0.33002
2003.77847	0.32742
2001.84990	0.32484
1999.92134	0.32214
1997.99277	0.31940
1996.06421	0.31682
1994.13564	0.31437
1992.20708	0.31197
1990.27852	0.30956
1988.34995	0.30720
1986.42139	0.30473
1984.49282	0.30224
1982.56426	0.29988
1980.63569	0.29760
1978.70713	0.29535
1976.77856	0.29312
1974.85000	0.29092
1972.92144	0.28873
1970.99287	0.28662
1969.06431	0.28460
1967.13574	0.28257
1965.20718	0.28047
1963.27861	0.27846
1961.35005	0.27663
1959.42148	0.27488
1957.49292	0.27310
1955.56436	0.27122
1953.63579	0.26936
1951.70723	0.26764
1949.77866	0.26607
1947.85010	0.26455
1945.92153	0.26305
1943.99297	0.26161
1942.06440	0.26023
1940.13584	0.25881
1938.20728	0.25734
1936.27871	0.25589
1934.35015	0.25458
1932.42158	0.25341
1930.49302	0.25228
1928.56445	0.25120
1926.63589	0.25010
1924.70732	0.24907
1922.77876	0.24813
1920.85020	0.24718
1918.92163	0.24628
1916.99307	0.24545
1915.06450	0.24453
1913.13594	0.24360
1911.20737	0.24289
1909.27881	0.24229
1907.35024	0.24167
1905.42168	0.24103
1903.49312	0.24042
1901.56455	0.23984
1899.63599	0.23930
1897.70742	0.23888
1895.77886	0.23851
1893.85029	0.23811
1891.92173	0.23775
1889.99316	0.23756
1888.06460	0.23731
1886.13604	0.23698
1884.20747	0.23678
1882.27891	0.23675
1880.35034	0.23678
1878.42178	0.23672
1876.49321	0.23662
1874.56465	0.23652
1872.63608	0.23655
1870.70752	0.23677
1868.77896	0.23731
1866.85039	0.23771
1864.92183	0.23770
1862.99326	0.23768
1861.06470	0.23788
1859.13613	0.23829
1857.20757	0.23868
1855.27900	0.23912
1853.35044	0.23962
1851.42187	0.24016
1849.49331	0.24072
1847.56475	0.24137
1845.63618	0.24221
1843.70762	0.24323
1841.77905	0.24400
1839.85049	0.24445
1837.92192	0.24522
1835.99336	0.24617
1834.06479	0.24706
1832.13623	0.24800
1830.20767	0.24942
1828.27910	0.25090
1826.35054	0.25189
1824.42197	0.25312
1822.49341	0.25446
1820.56484	0.25572
1818.63628	0.25710
1816.70771	0.25876
1814.77915	0.26043
1812.85059	0.26215
1810.92202	0.26414
1808.99346	0.26622
1807.06489	0.26819
1805.13633	0.27004
1803.20776	0.27218
1801.27920	0.27472
1799.35063	0.27766
1797.42207	0.28030
1795.49351	0.28260
1793.56494	0.28500
1791.63638	0.28823
1789.70781	0.29177
1787.77925	0.29459
1785.85068	0.29772
1783.92212	0.30138
1781.99355	0.30536
1780.06499	0.30951
1778.13643	0.31375
1776.20786	0.31780
1774.27930	0.32212
1772.35073	0.32784
1770.42217	0.33413
1768.49360	0.33957
1766.56504	0.34474
1764.63647	0.35000
1762.70791	0.35578
1760.77935	0.36311
1758.85078	0.37006
1756.92222	0.37700
1754.99365	0.38451
1753.06509	0.39137
1751.13652	0.39958
1749.20796	0.41002
1747.27939	0.42062
1745.35083	0.43000
1743.42227	0.43971
1741.49370	0.45023
1739.56514	0.46261
1737.63657	0.47527
1735.70801	0.48661
1733.77944	0.50320
1731.85088	0.52234
1729.92231	0.53738
1727.99375	0.55309
1726.06519	0.57018
1724.13662	0.58862
1722.20806	0.60829
1720.27949	0.62627
1718.35093	0.64751
1716.42236	0.67963
1714.49380	0.71037
1712.56523	0.73508
1710.63667	0.75907
1708.70811	0.78500
1706.77954	0.81440
1704.85098	0.84959
1702.92241	0.88123
1700.99385	0.91286
1699.06528	0.96041
1697.13672	1.00475
1695.20815	1.05062
1693.27959	1.09550
1691.35103	1.13221
1689.42246	1.17488
1687.49390	1.21993
1685.56533	1.26335
1683.63677	1.33061
1681.70820	1.40102
1679.77964	1.44643
1677.85107	1.48942
1675.92251	1.53882
1673.99395	1.60062
1672.06538	1.65631
1670.13682	1.71072
1668.20825	1.78122
1666.27969	1.84012
1664.35112	1.89213
1662.42256	1.95895
1660.49399	2.03413
1658.56543	2.09167
1656.63687	2.13733
1654.70830	2.17844
1652.77974	2.23988
1650.85117	2.29606
1648.92261	2.31566
1646.99404	2.34190
1645.06548	2.36821
1643.13691	2.38167
1641.20835	2.38667
1639.27979	2.39148
1637.35122	2.39372
1635.42266	2.38939
1633.49409	2.37800
1631.56553	2.36240
1629.63696	2.34315
1627.70840	2.31022
1625.77983	2.27113
1623.85127	2.22423
1621.92271	2.16897
1619.99414	2.12020
1618.06558	2.07368
1616.13701	2.00757
1614.20845	1.93830
1612.27988	1.88536
1610.35132	1.83189
1608.42275	1.77480
1606.49419	1.71885
1604.56562	1.66780
1602.63706	1.61900
1600.70850	1.57131
1598.77993	1.52697
1596.85137	1.48530
1594.92280	1.44521
1592.99424	1.40687
1591.06567	1.37215
1589.13711	1.33993
1587.20854	1.31008
1585.27998	1.28260
1583.35142	1.25735
1581.42285	1.23493
1579.49429	1.21624
1577.56572	1.20030
1575.63716	1.18194
1573.70859	1.16561
1571.78003	1.15508
1569.85146	1.14557
1567.92290	1.13638
1565.99434	1.13047
1564.06577	1.12739
1562.13721	1.12620
1560.20864	1.12780
1558.28008	1.13574
1556.35151	1.14354
1554.42295	1.14791
1552.49438	1.15251
1550.56582	1.15503
1548.63726	1.15393
1546.70869	1.14931
1544.78013	1.14125
1542.85156	1.12951
1540.92300	1.10982
1538.99443	1.07666
1537.06587	1.05223
1535.13730	1.03566
1533.20874	1.01324
1531.28018	0.98905
1529.35161	0.97144
1527.42305	0.95490
1525.49448	0.93783
1523.56592	0.92361
1521.63735	0.91030
1519.70879	0.89679
1517.78022	0.88552
1515.85166	0.87250
1513.92310	0.85847
1511.99453	0.84589
1510.06597	0.83443
1508.13740	0.82331
1506.20884	0.80590
1504.28027	0.79085
1502.35171	0.78284
1500.42314	0.77587
1498.49458	0.76821
1496.56602	0.75933
1494.63745	0.75079
1492.70889	0.74444
1490.78032	0.73903
1488.85176	0.73267
1486.92319	0.72651
1484.99463	0.72202
1483.06606	0.71896
1481.13750	0.71666
1479.20894	0.71506
1477.28037	0.71450
1475.35181	0.71485
1473.42324	0.71599
1471.49468	0.71676
1469.56611	0.71562
1467.63755	0.71349
1465.70898	0.71157
1463.78042	0.71025
1461.85186	0.70959
1459.92329	0.70975
1457.99473	0.71081
1456.06616	0.71083
1454.13760	0.70814
1452.20903	0.70501
1450.28047	0.70197
1448.35190	0.69896
1446.42334	0.69583
1444.49478	0.69280
1442.56621	0.68985
1440.63765	0.68670
1438.70908	0.68328
1436.78052	0.67886
1434.85195	0.67411
1432.92339	0.67083
1430.99482	0.66876
1429.06626	0.66745
1427.13770	0.66698
1425.20913	0.66755
1423.28057	0.66898
1421.35200	0.67026
1419.42344	0.67092
1417.49487	0.67087
1415.56631	0.67023
1413.63774	0.66984
1411.70918	0.67002
1409.78062	0.67110
1407.85205	0.67304
1405.92349	0.67547
1403.99492	0.67769
1402.06636	0.67867
1400.13779	0.67840
1398.20923	0.67689
1396.28066	0.67404
1394.35210	0.66977
1392.42354	0.66466
1390.49497	0.65979
1388.56641	0.65486
1386.63784	0.64916
1384.70928	0.64320
1382.78071	0.63749
1380.85215	0.63199
1378.92358	0.62736
1376.99502	0.62394
1375.06646	0.62147
1373.13789	0.61979
1371.20933	0.61878
1369.28076	0.61798
1367.35220	0.61679
1365.42363	0.61515
1363.49507	0.61351
1361.56650	0.61200
1359.63794	0.61042
1357.70937	0.60888
1355.78081	0.60745
1353.85225	0.60620
1351.92368	0.60527
1349.99512	0.60463
1348.06655	0.60391
1346.13799	0.60288
1344.20942	0.60180
1342.28086	0.60108
1340.35229	0.60074
1338.42373	0.60030
1336.49517	0.59968
1334.56660	0.59924
1332.63804	0.59912
1330.70947	0.59935
1328.78091	0.60005
1326.85234	0.60110
1324.92378	0.60219
1322.99521	0.60324
1321.06665	0.60430
1319.13809	0.60537
1317.20952	0.60609
1315.28096	0.60620
1313.35239	0.60597
1311.42383	0.60563
1309.49526	0.60523
1307.56670	0.60477
1305.63813	0.60434
1303.70957	0.60392
1301.78101	0.60327
1299.85244	0.60218
1297.92388	0.60090
1295.99531	0.59976
1294.06675	0.59867
1292.13818	0.59737
1290.20962	0.59596
1288.28105	0.59469
1286.35249	0.59333
1284.42393	0.59172
1282.49536	0.59001
1280.56680	0.58825
1278.63823	0.58644
1276.70967	0.58494
1274.78110	0.58385
1272.85254	0.58280
1270.92397	0.58175
1268.99541	0.58089
1267.06685	0.58021
1265.13828	0.57953
1263.20972	0.57865
1261.28115	0.57763
1259.35259	0.57661
1257.42402	0.57572
1255.49546	0.57520
1253.56689	0.57504
1251.63833	0.57504
1249.70977	0.57513
1247.78120	0.57521
1245.85264	0.57511
1243.92407	0.57456
1241.99551	0.57341
1240.06694	0.57176
1238.13838	0.56971
1236.20981	0.56736
1234.28125	0.56492
1232.35269	0.56247
1230.42412	0.55999
1228.49556	0.55751
1226.56699	0.55515
1224.63843	0.55299
1222.70986	0.55102
1220.78130	0.54922
1218.85273	0.54753
1216.92417	0.54592
1214.99561	0.54455
1213.06704	0.54342
1211.13848	0.54248
1209.20991	0.54181
1207.28135	0.54119
1205.35278	0.54032
1203.42422	0.53925
1201.49565	0.53824
1199.56709	0.53731
1197.63853	0.53633
1195.70996	0.53544
1193.78140	0.53481
1191.85283	0.53439
1189.92427	0.53411
1187.99570	0.53378
1186.06714	0.53354
1184.13857	0.53379
1182.21001	0.53455
1180.28145	0.53566
1178.35288	0.53709
1176.42432	0.53874
1174.49575	0.54031
1172.56719	0.54139
1170.63862	0.54178
1168.71006	0.54173
1166.78149	0.54160
1164.85293	0.54153
1162.92437	0.54153
1160.99580	0.54146
1159.06724	0.54107
1157.13867	0.54042
1155.21011	0.53966
1153.28154	0.53857
1151.35298	0.53677
1149.42441	0.53428
1147.49585	0.53153
1145.56729	0.52871
1143.63872	0.52593
1141.71016	0.52358
1139.78159	0.52192
1137.85303	0.52082
1135.92446	0.51999
1133.99590	0.51935
1132.06733	0.51903
1130.13877	0.51894
1128.21021	0.51863
1126.28164	0.51812
1124.35308	0.51763
1122.42451	0.51724
1120.49595	0.51716
1118.56738	0.51747
1116.63882	0.51787
1114.71025	0.51828
1112.78169	0.51855
1110.85312	0.51866
1108.92456	0.51913
1106.99600	0.52001
1105.06743	0.52099
1103.13887	0.52203
1101.21030	0.52324
1099.28174	0.52492
1097.35317	0.52731
1095.42461	0.53027
1093.49604	0.53373
1091.56748	0.53802
1089.63892	0.54333
1087.71035	0.54988
1085.78179	0.55767
1083.85322	0.56566
1081.92466	0.57254
1079.99609	0.57773
1078.06753	0.58084
1076.13896	0.58106
1074.21040	0.57806
1072.28184	0.57264
1070.35327	0.56592
1068.42471	0.55879
1066.49614	0.55194
1064.56758	0.54563
1062.63901	0.53976
1060.71045	0.53433
1058.78188	0.52966
1056.85332	0.52576
1054.92476	0.52224
1052.99619	0.51911
1051.06763	0.51640
1049.13906	0.51389
1047.21050	0.51193
1045.28193	0.51080
1043.35337	0.51010
1041.42480	0.50961
1039.49624	0.50927
1037.56768	0.50883
1035.63911	0.50843
1033.71055	0.50804
1031.78198	0.50723
1029.85342	0.50590
1027.92485	0.50431
1025.99629	0.50288
1024.06772	0.50195
1022.13916	0.50152
1020.21060	0.50121
1018.28203	0.50084
1016.35347	0.50069
1014.42490	0.50098
1012.49634	0.50148
1010.56777	0.50191
1008.63921	0.50225
1006.71064	0.50286
1004.78208	0.50403
1002.85352	0.50583
1000.92495	0.50830
998.99639	0.51154
997.06782	0.51538
995.13926	0.51965
993.21069	0.52402
991.28213	0.52765
989.35356	0.52975
987.42500	0.53049
985.49644	0.53071
983.56787	0.53078
981.63931	0.53085
979.71074	0.53151
977.78218	0.53297
975.85361	0.53503
973.92505	0.53763
971.99648	0.54053
970.06792	0.54351
968.13936	0.54699
966.21079	0.55128
964.28223	0.55589
962.35366	0.56042
960.42510	0.56526
958.49653	0.57080
956.56797	0.57680
954.63940	0.58291
952.71084	0.58908
950.78228	0.59537
948.85371	0.60185
946.92515	0.60841
944.99658	0.61477
943.06802	0.62110
941.13945	0.62713
939.21089	0.63250
937.28232	0.63820
935.35376	0.64484
933.42520	0.65138
931.49663	0.65717
929.56807	0.66310
927.63950	0.66974
925.71094	0.67599
923.78237	0.68140
921.85381	0.68702
919.92524	0.69366
917.99668	0.70092
916.06812	0.70825
914.13955	0.71583
912.21099	0.72390
910.28242	0.73220
908.35386	0.74058
906.42529	0.74960
904.49673	0.75931
902.56816	0.76877
900.63960	0.77832
898.71104	0.78892
896.78247	0.79979
894.85391	0.80953
892.92534	0.81862
890.99678	0.82865
889.06821	0.83980
887.13965	0.85163
885.21108	0.86378
883.28252	0.87512
881.35396	0.88553
879.42539	0.89632
877.49683	0.90809
875.56826	0.92015
873.63970	0.93150
871.71113	0.94268
869.78257	0.95408
867.85400	0.96582
865.92544	0.97890
863.99687	0.99271
862.06831	1.00497
860.13975	1.01499
858.21118	1.02608
856.28262	1.03936
854.35405	1.05191
852.42549	1.06348
850.49692	1.07539
848.56836	1.08702
846.63979	1.09865
844.71123	1.11221
842.78267	1.12638
840.85410	1.13775
838.92554	1.14698
836.99697	1.15794
835.06841	1.17102
833.13984	1.18480
831.21128	1.20018
829.28271	1.21630
827.35415	1.23506
825.42559	1.25901
823.49702	1.27795
821.56846	1.28368
819.63989	1.28615
817.71133	1.29615
815.78276	1.31436
813.85420	1.32935
811.92563	1.33627
809.99707	1.34669
808.06851	1.36325
806.13994	1.38698
804.21138	1.40801
802.28281	1.40083
800.35425	1.36769
798.42568	1.34948
796.49712	1.34618
794.56855	1.33064
792.63999	1.28817
790.71143	1.22716
788.78286	1.17791
786.85430	1.15080
784.92573	1.12449
782.99717	1.08258
781.06860	1.04077
779.14004	1.01382
777.21147	0.99596
775.28291	0.98324
773.35435	0.97266
771.42578	0.95063
769.49722	0.91370
767.56865	0.86925
765.64009	0.83728
763.71152	0.83076
761.78296	0.82152
759.85439	0.79146
757.92583	0.77226
755.99727	0.76947
754.06870	0.75819
752.14014	0.72603
750.21157	0.68115
748.28301	0.64522
746.35444	0.61954
744.42588	0.58407
742.49731	0.53077
740.56875	0.47806
738.64019	0.43552
736.71162	0.37343
734.78306	0.27468
732.85449	0.17026
730.92593	0.08426
728.99736	0.00909
727.06880	-0.05925
725.14023	-0.12063
723.21167	-0.18051
721.28311	-0.23099
719.35454	-0.20364
717.42598	-0.14232
715.49741	-0.11593
713.56885	-0.11041
711.64028	-0.09956
709.71172	-0.09802
707.78315	-0.11003
705.85459	-0.08814
703.92603	-0.05751
701.99746	-0.04712
700.06890	-0.03219
698.14033	0.00132
696.21177	0.01242
694.28320	-0.02355
692.35464	-0.06892
690.42607	-0.06989
688.49751	-0.04735
686.56895	-0.05329
684.64038	-0.06774
682.71182	-0.05453
680.78325	-0.02378
678.85469	0.00826
676.92612	0.02473
674.99756	0.00354
673.06899	-0.02803
671.14043	-0.04151
669.21187	-0.06450
667.28330	-0.09484
665.35474	-0.09137
663.42617	-0.05810
661.49761	-0.03844
659.56904	-0.05078
657.64048	-0.07704
655.71191	-0.09181
653.78335	-0.07307
651.85479	-0.04682
649.92622	-0.06821
647.99766	-0.09705
646.06909	-0.08193
644.14053	-0.04594
642.21196	-0.03466
640.28340	-0.04839
638.35483	-0.06641
636.42627	-0.06591
634.49771	-0.04952
632.56914	-0.04137
630.64058	-0.04707
628.71201	-0.04869
626.78345	-0.04217
624.85488	-0.04565
622.92632	-0.07150
620.99775	-0.09384
619.06919	-0.08285
617.14062	-0.06609
615.21206	-0.07186
613.28350	-0.07008
611.35493	-0.04543
609.42637	-0.02786
607.49780	-0.02310
605.56924	-0.02657
603.64067	-0.04287
601.71211	-0.05981
599.78354	-0.07388
597.85498	-0.07147
595.92642	-0.03070
593.99785	0.00753
592.06929	0.00485
590.14072	-0.01692
588.21216	-0.02654
586.28359	-0.02683
584.35503	-0.02754
582.42646	-0.02461
580.49790	-0.01173
578.56934	0.00432
576.64077	0.00391
574.71221	-0.01583
572.78364	-0.03634
570.85508	-0.04679
568.92651	-0.03093
566.99795	0.00541
565.06938	0.02446
563.14082	0.01663
561.21226	0.00638
559.28369	0.00079
557.35513	0.00139
555.42656	0.00574
553.49800	-0.00176
551.56943	-0.02035
549.64087	-0.02472
547.71230	-0.00351
545.78374	0.02068
543.85518	0.01101
541.92661	-0.03370
539.99805	-0.06569
538.06948	-0.05643
536.14092	-0.04203
534.21235	-0.05624
532.28379	-0.06610
530.35522	-0.05240
528.42666	-0.04593
526.49810	-0.04285
524.56953	-0.02849
522.64097	-0.02239
520.71240	-0.02882
518.78384	-0.03795
516.85527	-0.03740
514.92671	-0.03290
512.99814	-0.03526
511.06958	-0.03415
509.14102	-0.02468
507.21245	-0.01432
505.28389	-0.02055
503.35532	-0.03699
501.42676	-0.03661
499.49819	-0.02277
