3997.91411	0.06930
3995.98555	0.06963
3994.05698	0.07033
3992.12842	0.07096
3990.19985	0.07114
3988.27129	0.07100
3986.34272	0.07104
3984.41416	0.07149
3982.48560	0.07184
3980.55703	0.07189
3978.62847	0.07198
3976.69990	0.07213
3974.77134	0.07232
3972.84277	0.07272
3970.91421	0.07322
3968.98564	0.07332
3967.05708	0.07320
3965.12852	0.07340
3963.19995	0.07353
3961.27139	0.07344
3959.34282	0.07369
3957.41426	0.07387
3955.48569	0.07358
3953.55713	0.07320
3951.62856	0.07307
3949.70000	0.07354
3947.77144	0.07448
3945.84287	0.07502
3943.91431	0.07520
3941.98574	0.07532
3940.05718	0.07481
3938.12861	0.07393
3936.20005	0.07359
3934.27148	0.07393
3932.34292	0.07455
3930.41436	0.07485
3928.48579	0.07468
3926.55723	0.07458
3924.62866	0.07458
3922.70010	0.07428
3920.77153	0.07406
3918.84297	0.07415
3916.91440	0.07397
3914.98584	0.07307
3913.05728	0.07219
3911.12871	0.07213
3909.20015	0.07257
3907.27158	0.07315
3905.34302	0.07384
3903.41445	0.07420
3901.48589	0.07382
3899.55732	0.07345
3897.62876	0.07334
3895.70020	0.07286
3893.77163	0.07229
3891.84307	0.07221
3889.91450	0.07251
3887.98594	0.07287
3886.05737	0.07348
3884.12881	0.07367
3882.20024	0.07308
3880.27168	0.07326
3878.34312	0.07404
3876.41455	0.07417
3874.48599	0.07448
3872.55742	0.07523
3870.62886	0.07574
3868.70029	0.07623
3866.77173	0.07637
3864.84316	0.07620
3862.91460	0.07625
3860.98604	0.07625
3859.05747	0.07617
3857.12891	0.07627
3855.20034	0.07683
3853.27178	0.07880
3851.34321	0.08101
3849.41465	0.08073
3847.48608	0.08016
3845.55752	0.08018
3843.62896	0.08030
3841.70039	0.08022
3839.77183	0.08035
3837.84326	0.08166
3835.91470	0.08392
3833.98613	0.08522
3832.05757	0.08531
3830.12900	0.08512
3828.20044	0.08510
3826.27187	0.08546
3824.34331	0.08620
3822.41475	0.08737
3820.48618	0.08919
3818.55762	0.09064
3816.62905	0.09173
3814.70049	0.09284
3812.77192	0.09315
3810.84336	0.09329
3808.91479	0.09395
3806.98623	0.09509
3805.05767	0.09620
3803.12910	0.09670
3801.20054	0.09737
3799.27197	0.09895
3797.34341	0.10036
3795.41484	0.10137
3793.48628	0.10241
3791.55771	0.10379
3789.62915	0.10554
3787.70059	0.10722
3785.77202	0.10862
3783.84346	0.10966
3781.91489	0.11048
3779.98633	0.11168
3778.05776	0.11340
3776.12920	0.11497
3774.20063	0.11636
3772.27207	0.11807
3770.34351	0.12040
3768.41494	0.12259
3766.48638	0.12379
3764.55781	0.12531
3762.62925	0.12739
3760.70068	0.12943
3758.77212	0.13206
3756.84355	0.13506
3754.91499	0.13741
3752.98643	0.13977
3751.05786	0.14311
3749.12930	0.14644
3747.20073	0.14839
3745.27217	0.15094
3743.34360	0.15521
3741.41504	0.15847
3739.48647	0.16056
3737.55791	0.16360
3735.62935	0.16880
3733.70078	0.17563
3731.77222	0.18089
3729.84365	0.18439
3727.91509	0.18770
3725.98652	0.19222
3724.05796	0.19833
3722.12939	0.20490
3720.20083	0.21141
3718.27227	0.21835
3716.34370	0.22597
3714.41514	0.23379
3712.48657	0.24305
3710.55801	0.25599
3708.62944	0.26991
3706.70088	0.28124
3704.77231	0.29182
3702.84375	0.30435
3700.91519	0.32100
3698.98662	0.33943
3697.05806	0.35684
3695.12949	0.37510
3693.20093	0.39436
3691.27236	0.41498
3689.34380	0.44162
3687.41523	0.47556
3685.48667	0.50620
3683.55811	0.53226
3681.62954	0.55966
3679.70098	0.59026
3677.77241	0.62217
3675.84385	0.65982
3673.91528	0.71129
3671.98672	0.75455
3670.05815	0.79364
3668.12959	0.84689
3666.20103	0.89503
3664.27246	0.93504
3662.34390	0.97795
3660.41533	1.02380
3658.48677	1.06872
3656.55820	1.11720
3654.62964	1.17204
3652.70107	1.21772
3650.77251	1.25662
3648.84395	1.31115
3646.91538	1.37853
3644.98682	1.42776
3643.05825	1.46611
3641.12969	1.50558
3639.20112	1.54933
3637.27256	1.59366
3635.34399	1.63577
3633.41543	1.67682
3631.48687	1.71550
3629.55830	1.75491
3627.62974	1.80711
3625.70117	1.85831
3623.77261	1.89400
3621.84404	1.92661
3619.91548	1.96323
3617.98691	2.00819
3616.05835	2.05114
3614.12979	2.08671
3612.20122	2.12558
3610.27266	2.16568
3608.34409	2.20529
3606.41553	2.24729
3604.48696	2.28680
3602.55840	2.32238
3600.62983	2.36072
3598.70127	2.40146
3596.77271	2.43972
3594.84414	2.47823
3592.91558	2.52049
3590.98701	2.56182
3589.05845	2.59835
3587.12988	2.63970
3585.20132	2.68654
3583.27275	2.72740
3581.34419	2.76439
3579.41562	2.80344
3577.48706	2.84572
3575.55850	2.88998
3573.62993	2.93567
3571.70137	2.97921
3569.77280	3.01857
3567.84424	3.05854
3565.91567	3.10899
3563.98711	3.16100
3562.05854	3.20424
3560.12998	3.24594
3558.20142	3.28953
3556.27285	3.33489
3554.34429	3.38140
3552.41572	3.42945
3550.48716	3.47533
3548.55859	3.51833
3546.63003	3.56393
3544.70146	3.61409
3542.77290	3.66469
3540.84434	3.71197
3538.91577	3.75536
3536.98721	3.79864
3535.05864	3.84728
3533.13008	3.89737
3531.20151	3.94452
3529.27295	3.98873
3527.34438	4.03384
3525.41582	4.08183
3523.48726	4.13159
3521.55869	4.18408
3519.63013	4.23606
3517.70156	4.28586
3515.77300	4.33194
3513.84443	4.37606
3511.91587	4.42516
3509.98730	4.48064
3508.05874	4.53384
3506.13018	4.57599
3504.20161	4.61559
3502.27305	4.66440
3500.34448	4.71594
3498.41592	4.76092
3496.48735	4.80512
3494.55879	4.85666
3492.63022	4.91056
3490.70166	4.95745
3488.77310	5.00227
3486.84453	5.05344
3484.91597	5.10746
3482.98740	5.15575
3481.05884	5.20027
3479.13027	5.24919
3477.20171	5.30387
3475.27314	5.35608
3473.34458	5.40045
3471.41602	5.44470
3469.48745	5.49063
3467.55889	5.53660
3465.63032	5.58580
3463.70176	5.63480
3461.77319	5.67934
3459.84463	5.72604
3457.91606	5.78190
3455.98750	5.84327
3454.05894	5.90020
3452.13037	5.95339
3450.20181	6.00286
3448.27324	6.03632
3446.34468	6.06499
3444.41611	6.10698
3442.48755	6.16424
3440.55898	6.22971
3438.63042	6.29011
3436.70186	6.33809
3434.77329	6.37878
3432.84473	6.42809
3430.91616	6.48615
3428.98760	6.53175
3427.05903	6.56436
3425.13047	6.60950
3423.20190	6.66128
3421.27334	6.72040
3419.34478	6.80304
3417.41621	6.88135
3415.48765	6.93566
3413.55908	6.98652
3411.63052	7.05049
3409.70195	7.09718
3407.77339	7.10288
3405.84482	7.10236
3403.91626	7.12563
3401.98770	7.16638
3400.05913	7.23556
3398.13057	7.33395
3396.20200	7.42600
3394.27344	7.49275
3392.34487	7.51593
3390.41631	7.51396
3388.48774	7.53456
3386.55918	7.57135
3384.63062	7.57853
3382.70205	7.57563
3380.77349	7.60952
3378.84492	7.65523
3376.91636	7.66726
3374.98779	7.66421
3373.05923	7.68045
3371.13066	7.70826
3369.20210	7.76109
3367.27354	7.81718
3365.34497	7.87382
3363.41641	7.95012
3361.48784	7.97627
3359.55928	7.95590
3357.63071	8.00294
3355.70215	8.08156
3353.77358	8.02453
3351.84502	7.91096
3349.91646	7.86206
3347.98789	7.89365
3346.05933	8.03042
3344.13076	8.22445
3342.20220	8.32826
3340.27363	8.27847
3338.34507	8.15614
3336.41650	8.06781
3334.48794	8.13672
3332.55937	8.29635
3330.63081	8.34191
3328.70225	8.23619
3326.77368	8.11895
3324.84512	8.11439
3322.91655	8.18427
3320.98799	8.24879
3319.05942	8.26572
3317.13086	8.23453
3315.20229	8.20941
3313.27373	8.25568
3311.34517	8.32386
3309.41660	8.30748
3307.48804	8.27356
3305.55947	8.35069
3303.63091	8.52533
3301.70234	8.59133
3299.77378	8.45128
3297.84521	8.28333
3295.91665	8.26140
3293.98809	8.34408
3292.05952	8.35375
3290.13096	8.30772
3288.20239	8.31483
3286.27383	8.36279
3284.34526	8.39982
3282.41670	8.41616
3280.48813	8.43678
3278.55957	8.46142
3276.63101	8.41892
3274.70244	8.34070
3272.77388	8.36220
3270.84531	8.46512
3268.91675	8.45773
3266.98818	8.32078
3265.05962	8.24350
3263.13105	8.29486
3261.20249	8.37584
3259.27393	8.34882
3257.34536	8.31415
3255.41680	8.39154
3253.48823	8.48074
3251.55967	8.51889
3249.63110	8.51659
3247.70254	8.45928
3245.77397	8.33003
3243.84541	8.16978
3241.91685	8.15578
3239.98828	8.30212
3238.05972	8.33766
3236.13115	8.21867
3234.20259	8.16852
3232.27402	8.24973
3230.34546	8.36164
3228.41689	8.41591
3226.48833	8.44394
3224.55977	8.38501
3222.63120	8.23765
3220.70264	8.18187
3218.77407	8.19843
3216.84551	8.12578
3214.91694	8.03384
3212.98838	8.00660
3211.05981	8.02818
3209.13125	8.09909
3207.20269	8.11646
3205.27412	8.01399
3203.34556	7.89139
3201.41699	7.84022
3199.48843	7.84896
3197.55986	7.85311
3195.63130	7.87094
3193.70273	7.89432
3191.77417	7.85254
3189.84561	7.75542
3187.91704	7.64441
3185.98848	7.56249
3184.05991	7.52447
3182.13135	7.49868
3180.20278	7.47390
3178.27422	7.43707
3176.34565	7.35474
3174.41709	7.26440
3172.48853	7.21772
3170.55996	7.18004
3168.63140	7.12948
3166.70283	7.07144
3164.77427	6.99126
3162.84570	6.90746
3160.91714	6.83318
3158.98857	6.74651
3157.06001	6.65326
3155.13145	6.59874
3153.20288	6.57227
3151.27432	6.50712
3149.34575	6.40235
3147.41719	6.31756
3145.48862	6.26387
3143.56006	6.20357
3141.63149	6.13183
3139.70293	6.06170
3137.77437	5.99150
3135.84580	5.92091
3133.91724	5.84647
3131.98867	5.76567
3130.06011	5.68708
3128.13154	5.61366
3126.20298	5.54080
3124.27441	5.47091
3122.34585	5.40206
3120.41729	5.33082
3118.48872	5.26104
3116.56016	5.19302
3114.63159	5.12151
3112.70303	5.04905
3110.77446	4.98041
3108.84590	4.91207
3106.91733	4.84491
3104.98877	4.77769
3103.06021	4.70638
3101.13164	4.63586
3099.20308	4.56855
3097.27451	4.50039
3095.34595	4.43139
3093.41738	4.36474
3091.48882	4.30011
3089.56025	4.23526
3087.63169	4.16992
3085.70312	4.10578
3083.77456	4.04339
3081.84600	3.98102
3079.91743	3.91583
3077.98887	3.84981
3076.06030	3.78878
3074.13174	3.73215
3072.20317	3.67469
3070.27461	3.61517
3068.34604	3.55594
3066.41748	3.49751
3064.48892	3.43992
3062.56035	3.38297
3060.63179	3.32518
3058.70322	3.26892
3056.77466	3.21640
3054.84609	3.16380
3052.91753	3.10930
3050.98896	3.05547
3049.06040	3.00243
3047.13184	2.94987
3045.20327	2.89902
3043.27471	2.84956
3041.34614	2.80140
3039.41758	2.75443
3037.48901	2.70725
3035.56045	2.66035
3033.63188	2.61438
3031.70332	2.56859
3029.77476	2.52354
3027.84619	2.47969
3025.91763	2.43603
3023.98906	2.39254
3022.06050	2.35026
3020.13193	2.30899
3018.20337	2.26800
3016.27480	2.22760
3014.34624	2.18790
3012.41768	2.14904
3010.48911	2.11151
3008.56055	2.07448
3006.63198	2.03733
3004.70342	2.00067
3002.77485	1.96431
3000.84629	1.92856
2998.91772	1.89427
2996.98916	1.86099
2995.06060	1.82800
2993.13203	1.79538
2991.20347	1.76376
2989.27490	1.73305
2987.34634	1.70257
2985.41777	1.67252
2983.48921	1.64322
2981.56064	1.61438
2979.63208	1.58588
2977.70352	1.55777
2975.77495	1.53008
2973.84639	1.50314
2971.91782	1.47708
2969.98926	1.45146
2968.06069	1.42597
2966.13213	1.40055
2964.20356	1.37522
2962.27500	1.35022
2960.34644	1.32566
2958.41787	1.30142
2956.48931	1.27777
2954.56074	1.25487
2952.63218	1.23234
2950.70361	1.20987
2948.77505	1.18781
2946.84648	1.16642
2944.91792	1.14542
2942.98936	1.12475
2941.06079	1.10421
2939.13223	1.08362
2937.20366	1.06375
2935.27510	1.04468
2933.34653	1.02602
2931.41797	1.00765
2929.48940	0.98903
2927.56084	0.97006
2925.63228	0.95159
2923.70371	0.93453
2921.77515	0.91842
2919.84658	0.90204
2917.91802	0.88545
2915.98945	0.86922
2914.06089	0.85321
2912.13232	0.83727
2910.20376	0.82183
2908.27520	0.80723
2906.34663	0.79322
2904.41807	0.77930
2902.48950	0.76551
2900.56094	0.75211
2898.63237	0.73880
2896.70381	0.72545
2894.77524	0.71262
2892.84668	0.70055
2890.91812	0.68897
2888.98955	0.67776
2887.06099	0.66683
2885.13242	0.65598
2883.20386	0.64514
2881.27529	0.63449
2879.34673	0.62401
2877.41816	0.61362
2875.48960	0.60364
2873.56104	0.59398
2871.63247	0.58390
2869.70391	0.57333
2867.77534	0.56303
2865.84678	0.55309
2863.91821	0.54294
2861.98965	0.53265
2860.06108	0.52304
2858.13252	0.51434
2856.20396	0.50585
2854.27539	0.49718
2852.34683	0.48850
2850.41826	0.48028
2848.48970	0.47264
2846.56113	0.46518
2844.63257	0.45776
2842.70400	0.45057
2840.77544	0.44375
2838.84687	0.43733
2836.91831	0.43107
2834.98975	0.42494
2833.06118	0.41902
2831.13262	0.41310
2829.20405	0.40723
2827.27549	0.40154
2825.34692	0.39584
2823.41836	0.38990
2821.48979	0.38375
2819.56123	0.37766
2817.63267	0.37189
2815.70410	0.36654
2813.77554	0.36136
2811.84697	0.35606
2809.91841	0.35083
2807.98984	0.34579
2806.06128	0.34080
2804.13271	0.33606
2802.20415	0.33153
2800.27559	0.32688
2798.34702	0.32216
2796.41846	0.31739
2794.48989	0.31265
2792.56133	0.30828
2790.63276	0.30420
2788.70420	0.30018
2786.77563	0.29619
2784.84707	0.29217
2782.91851	0.28802
2780.98994	0.28400
2779.06138	0.28031
2777.13281	0.27678
2775.20425	0.27329
2773.27568	0.26981
2771.34712	0.26623
2769.41855	0.26263
2767.48999	0.25921
2765.56143	0.25603
2763.63286	0.25297
2761.70430	0.24985
2759.77573	0.24657
2757.84717	0.24339
2755.91860	0.24052
2753.99004	0.23776
2752.06147	0.23497
2750.13291	0.23222
2748.20435	0.22952
2746.27578	0.22690
2744.34722	0.22443
2742.41865	0.22190
2740.49009	0.21930
2738.56152	0.21684
2736.63296	0.21460
2734.70439	0.21242
2732.77583	0.21017
2730.84727	0.20800
2728.91870	0.20586
2726.99014	0.20371
2725.06157	0.20167
2723.13301	0.19973
2721.20444	0.19783
2719.27588	0.19596
2717.34731	0.19403
2715.41875	0.19213
2713.49019	0.19035
2711.56162	0.18854
2709.63306	0.18679
2707.70449	0.18524
2705.77593	0.18376
2703.84736	0.18226
2701.91880	0.18074
2699.99023	0.17920
2698.06167	0.17777
2696.13311	0.17657
2694.20454	0.17545
2692.27598	0.17424
2690.34741	0.17301
2688.41885	0.17184
2686.49028	0.17064
2684.56172	0.16942
2682.63315	0.16816
2680.70459	0.16689
2678.77603	0.16579
2676.84746	0.16496
2674.91890	0.16421
2672.99033	0.16322
2671.06177	0.16208
2669.13320	0.16116
2667.20464	0.16051
2665.27607	0.15977
2663.34751	0.15879
2661.41895	0.15783
2659.49038	0.15701
2657.56182	0.15634
2655.63325	0.15577
2653.70469	0.15518
2651.77612	0.15446
2649.84756	0.15378
2647.91899	0.15327
2645.99043	0.15285
2644.06187	0.15249
2642.13330	0.15206
2640.20474	0.15136
2638.27617	0.15066
2636.34761	0.15029
2634.41904	0.15003
2632.49048	0.14971
2630.56191	0.14930
2628.63335	0.14883
2626.70479	0.14849
2624.77622	0.14830
2622.84766	0.14806
2620.91909	0.14786
2618.99053	0.14781
2617.06196	0.14775
2615.13340	0.14763
2613.20483	0.14759
2611.27627	0.14762
2609.34771	0.14756
2607.41914	0.14745
2605.49058	0.14745
2603.56201	0.14743
2601.63345	0.14736
2599.70488	0.14742
2597.77632	0.14765
2595.84775	0.14797
2593.91919	0.14814
2591.99062	0.14814
2590.06206	0.14822
2588.13350	0.14836
2586.20493	0.14853
2584.27637	0.14877
2582.34780	0.14907
2580.41924	0.14945
2578.49067	0.14992
2576.56211	0.15035
2574.63354	0.15071
2572.70498	0.15104
2570.77642	0.15145
2568.84785	0.15196
2566.91929	0.15236
2564.99072	0.15257
2563.06216	0.15274
2561.13359	0.15304
2559.20503	0.15352
2557.27646	0.15431
2555.34790	0.15516
2553.41934	0.15578
2551.49077	0.15631
2549.56221	0.15692
2547.63364	0.15752
2545.70508	0.15815
2543.77651	0.15892
2541.84795	0.15958
2539.91938	0.16011
2537.99082	0.16073
2536.06226	0.16146
2534.13369	0.16223
2532.20513	0.16292
2530.27656	0.16353
2528.34800	0.16423
2526.41943	0.16495
2524.49087	0.16563
2522.56230	0.16645
2520.63374	0.16741
2518.70518	0.16831
2516.77661	0.16905
2514.84805	0.16967
2512.91948	0.17038
2510.99092	0.17126
2509.06235	0.17210
2507.13379	0.17285
2505.20522	0.17369
2503.27666	0.17457
2501.34810	0.17541
2499.41953	0.17640
2497.49097	0.17740
2495.56240	0.17819
2493.63384	0.17893
2491.70527	0.17984
2489.77671	0.18088
2487.84814	0.18193
2485.91958	0.18291
2483.99102	0.18375
2482.06245	0.18455
2480.13389	0.18531
2478.20532	0.18614
2476.27676	0.18719
2474.34819	0.18822
2472.41963	0.18898
2470.49106	0.18969
2468.56250	0.19065
2466.63394	0.19177
2464.70537	0.19283
2462.77681	0.19384
2460.84824	0.19487
2458.91968	0.19586
2456.99111	0.19677
2455.06255	0.19765
2453.13398	0.19864
2451.20542	0.19973
2449.27686	0.20075
2447.34829	0.20161
2445.41973	0.20241
2443.49116	0.20334
2441.56260	0.20447
2439.63403	0.20567
2437.70547	0.20677
2435.77690	0.20775
2433.84834	0.20876
2431.91978	0.20989
2429.99121	0.21098
2428.06265	0.21194
2426.13408	0.21303
2424.20552	0.21431
2422.27695	0.21560
2420.34839	0.21681
2418.41982	0.21789
2416.49126	0.21889
2414.56270	0.22000
2412.63413	0.22125
2410.70557	0.22243
2408.77700	0.22351
2406.84844	0.22461
2404.91987	0.22578
2402.99131	0.22696
2401.06274	0.22819
2399.13418	0.22947
2397.20562	0.23069
2395.27705	0.23186
2393.34849	0.23317
2391.41992	0.23454
2389.49136	0.23582
2387.56279	0.23708
2385.63423	0.23841
2383.70566	0.23982
2381.77710	0.24143
2379.84854	0.24328
2377.91997	0.24517
2375.99141	0.24700
2374.06284	0.24906
2372.13428	0.25150
2370.20571	0.25415
2368.27715	0.25707
2366.34858	0.26051
2364.42002	0.26315
2362.49146	0.26411
2360.56289	0.26561
2358.63433	0.26735
2356.70576	0.26717
2354.77720	0.26708
2352.84863	0.26872
2350.92007	0.27010
2348.99150	0.27051
2347.06294	0.27115
2345.13437	0.27335
2343.20581	0.27704
2341.27725	0.27982
2339.34868	0.28120
2337.42012	0.28237
2335.49155	0.28365
2333.56299	0.28522
2331.63442	0.28716
2329.70586	0.28871
2327.77729	0.28956
2325.84873	0.29056
2323.92017	0.29197
2321.99160	0.29326
2320.06304	0.29449
2318.13447	0.29590
2316.20591	0.29690
2314.27734	0.29765
2312.34878	0.29893
2310.42021	0.30073
2308.49165	0.30249
2306.56309	0.30418
2304.63452	0.30590
2302.70596	0.30757
2300.77739	0.30910
2298.84883	0.31070
2296.92026	0.31255
2294.99170	0.31452
2293.06313	0.31638
2291.13457	0.31807
2289.20601	0.31972
2287.27744	0.32145
2285.34888	0.32336
2283.42031	0.32535
2281.49175	0.32720
2279.56318	0.32905
2277.63462	0.33116
2275.70605	0.33336
2273.77749	0.33542
2271.84893	0.33750
2269.92036	0.33959
2267.99180	0.34163
2266.06323	0.34374
2264.13467	0.34590
2262.20610	0.34805
2260.27754	0.35024
2258.34897	0.35241
2256.42041	0.35455
2254.49185	0.35678
2252.56328	0.35894
2250.63472	0.36089
2248.70615	0.36281
2246.77759	0.36496
2244.84902	0.36732
2242.92046	0.36962
2240.99189	0.37179
2239.06333	0.37391
2237.13477	0.37604
2235.20620	0.37830
2233.27764	0.38062
2231.34907	0.38292
2229.42051	0.38527
2227.49194	0.38765
2225.56338	0.38991
2223.63481	0.39210
2221.70625	0.39428
2219.77769	0.39635
2217.84912	0.39839
2215.92056	0.40062
2213.99199	0.40295
2212.06343	0.40518
2210.13486	0.40733
2208.20630	0.40945
2206.27773	0.41158
2204.34917	0.41370
2202.42061	0.41573
2200.49204	0.41774
2198.56348	0.41978
2196.63491	0.42180
2194.70635	0.42372
2192.77778	0.42556
2190.84922	0.42747
2188.92065	0.42950
2186.99209	0.43143
2185.06353	0.43312
2183.13496	0.43458
2181.20640	0.43606
2179.27783	0.43772
2177.34927	0.43949
2175.42070	0.44118
2173.49214	0.44272
2171.56357	0.44412
2169.63501	0.44545
2167.70645	0.44663
2165.77788	0.44782
2163.84932	0.44913
2161.92075	0.45030
2159.99219	0.45137
2158.06362	0.45247
2156.13506	0.45346
2154.20649	0.45424
2152.27793	0.45505
2150.34937	0.45591
2148.42080	0.45660
2146.49224	0.45711
2144.56367	0.45750
2142.63511	0.45786
2140.70654	0.45831
2138.77798	0.45868
2136.84941	0.45875
2134.92085	0.45869
2132.99229	0.45857
2131.06372	0.45843
2129.13516	0.45835
2127.20659	0.45813
2125.27803	0.45768
2123.34946	0.45716
2121.42090	0.45667
2119.49233	0.45616
2117.56377	0.45553
2115.63521	0.45473
2113.70664	0.45389
2111.77808	0.45311
2109.84951	0.45220
2107.92095	0.45102
2105.99238	0.44977
2104.06382	0.44855
2102.13525	0.44718
2100.20669	0.44571
2098.27812	0.44423
2096.34956	0.44280
2094.42100	0.44140
2092.49243	0.43991
2090.56387	0.43823
2088.63530	0.43636
2086.70674	0.43438
2084.77817	0.43244
2082.84961	0.43058
2080.92104	0.42866
2078.99248	0.42664
2077.06392	0.42453
2075.13535	0.42235
2073.20679	0.42021
2071.27822	0.41814
2069.34966	0.41595
2067.42109	0.41352
2065.49253	0.41104
2063.56396	0.40856
2061.63540	0.40612
2059.70684	0.40367
2057.77827	0.40123
2055.84971	0.39868
2053.92114	0.39599
2051.99258	0.39342
2050.06401	0.39105
2048.13545	0.38858
2046.20688	0.38589
2044.27832	0.38315
2042.34976	0.38034
2040.42119	0.37751
2038.49263	0.37474
2036.56406	0.37204
2034.63550	0.36934
2032.70693	0.36651
2030.77837	0.36371
2028.84980	0.36098
2026.92124	0.35818
2024.99268	0.35531
2023.06411	0.35248
2021.13555	0.34968
2019.20698	0.34704
2017.27842	0.34452
2015.34985	0.34174
2013.42129	0.33875
2011.49272	0.33584
2009.56416	0.33310
2007.63560	0.33048
2005.70703	0.32790
2003.77847	0.32523
2001.84990	0.32258
1999.92134	0.32007
1997.99277	0.31750
1996.06421	0.31486
1994.13564	0.31234
1992.20708	0.30991
1990.27852	0.30743
1988.34995	0.30491
1986.42139	0.30240
1984.49282	0.30001
1982.56426	0.29773
1980.63569	0.29539
1978.70713	0.29303
1976.77856	0.29079
1974.85000	0.28860
1972.92144	0.28643
1970.99287	0.28437
1969.06431	0.28237
1967.13574	0.28037
1965.20718	0.27827
1963.27861	0.27626
1961.35005	0.27441
1959.42148	0.27257
1957.49292	0.27073
1955.56436	0.26893
1953.63579	0.26717
1951.70723	0.26540
1949.77866	0.26373
1947.85010	0.26227
1945.92153	0.26089
1943.99297	0.25942
1942.06440	0.25793
1940.13584	0.25648
1938.20728	0.25504
1936.27871	0.25365
1934.35015	0.25232
1932.42158	0.25109
1930.49302	0.24994
1928.56445	0.24886
1926.63589	0.24781
1924.70732	0.24679
1922.77876	0.24571
1920.85020	0.24463
1918.92163	0.24369
1916.99307	0.24281
1915.06450	0.24193
1913.13594	0.24112
1911.20737	0.24046
1909.27881	0.23990
1907.35024	0.23927
1905.42168	0.23857
1903.49312	0.23796
1901.56455	0.23747
1899.63599	0.23702
1897.70742	0.23657
1895.77886	0.23609
1893.85029	0.23571
1891.92173	0.23540
1889.99316	0.23515
1888.06460	0.23497
1886.13604	0.23486
1884.20747	0.23476
1882.27891	0.23464
1880.35034	0.23446
1878.42178	0.23424
1876.49321	0.23417
1874.56465	0.23426
1872.63608	0.23436
1870.70752	0.23445
1868.77896	0.23480
1866.85039	0.23523
1864.92183	0.23537
1862.99326	0.23544
1861.06470	0.23562
1859.13613	0.23594
1857.20757	0.23623
1855.27900	0.23662
1853.35044	0.23711
1851.42187	0.23772
1849.49331	0.23838
1847.56475	0.23904
1845.63618	0.23978
1843.70762	0.24073
1841.77905	0.24161
1839.85049	0.24222
1837.92192	0.24305
1835.99336	0.24392
1834.06479	0.24475
1832.13623	0.24565
1830.20767	0.24696
1828.27910	0.24841
1826.35054	0.24950
1824.42197	0.25072
1822.49341	0.25203
1820.56484	0.25331
1818.63628	0.25469
1816.70771	0.25633
1814.77915	0.25806
1812.85059	0.25994
1810.92202	0.26199
1808.99346	0.26400
1807.06489	0.26596
1805.13633	0.26793
1803.20776	0.27010
1801.27920	0.27243
1799.35063	0.27510
1797.42207	0.27773
1795.49351	0.28023
1793.56494	0.28298
1791.63638	0.28647
1789.70781	0.28999
1787.77925	0.29274
1785.85068	0.29590
1783.92212	0.29969
1781.99355	0.30373
1780.06499	0.30789
1778.13643	0.31212
1776.20786	0.31611
1774.27930	0.32033
1772.35073	0.32597
1770.42217	0.33231
1768.49360	0.33791
1766.56504	0.34333
1764.63647	0.34882
1762.70791	0.35469
1760.77935	0.36200
1758.85078	0.36893
1756.92222	0.37602
1754.99365	0.38395
1753.06509	0.39105
1751.13652	0.39909
1749.20796	0.40933
1747.27939	0.41999
1745.35083	0.42966
1743.42227	0.43966
1741.49370	0.45046
1739.56514	0.46313
1737.63657	0.47577
1735.70801	0.48663
1733.77944	0.50290
1731.85088	0.52261
1729.92231	0.53832
1727.99375	0.55414
1726.06519	0.57106
1724.13662	0.58956
1722.20806	0.60958
1720.27949	0.62786
1718.35093	0.64888
1716.42236	0.68045
1714.49380	0.71120
1712.56523	0.73605
1710.63667	0.76003
1708.70811	0.78575
1706.77954	0.81460
1704.85098	0.84871
1702.92241	0.87943
1700.99385	0.91004
1699.06528	0.95487
1697.13672	0.99585
1695.20815	1.03852
1693.27959	1.08039
1691.35103	1.11390
1689.42246	1.15201
1687.49390	1.19175
1685.56533	1.22963
1683.63677	1.28826
1681.70820	1.34947
1679.77964	1.38871
1677.85107	1.42613
1675.92251	1.46962
1673.99395	1.52345
1672.06538	1.57031
1670.13682	1.61527
1668.20825	1.67438
1666.27969	1.72267
1664.35112	1.76295
1662.42256	1.81333
1660.49399	1.87016
1658.56543	1.91459
1656.63687	1.95051
1654.70830	1.98315
1652.77974	2.03661
1650.85117	2.09054
1648.92261	2.11090
1646.99404	2.13484
1645.06548	2.16280
1643.13691	2.18203
1641.20835	2.19263
1639.27979	2.20171
1637.35122	2.20703
1635.42266	2.20529
1633.49409	2.19943
1631.56553	2.19050
1629.63696	2.17840
1627.70840	2.15533
1625.77983	2.12544
1623.85127	2.08569
1621.92271	2.03658
1619.99414	1.99329
1618.06558	1.95127
1616.13701	1.89112
1614.20845	1.83026
1612.27988	1.78442
1610.35132	1.73644
1608.42275	1.68391
1606.49419	1.63115
1604.56562	1.58184
1602.63706	1.53466
1600.70850	1.48877
1598.77993	1.44601
1596.85137	1.40543
1594.92280	1.36612
1592.99424	1.32853
1591.06567	1.29408
1589.13711	1.26159
1587.20854	1.23134
1585.27998	1.20323
1583.35142	1.17659
1581.42285	1.15210
1579.49429	1.13117
1577.56572	1.11231
1575.63716	1.08905
1573.70859	1.06828
1571.78003	1.05468
1569.85146	1.04023
1567.92290	1.02374
1565.99434	1.01088
1564.06577	1.00048
1562.13721	0.99222
1560.20864	0.98574
1558.28008	0.97541
1556.35151	0.96643
1554.42295	0.96116
1552.49438	0.95558
1550.56582	0.94908
1548.63726	0.94137
1546.70869	0.93337
1544.78013	0.92452
1542.85156	0.91428
1540.92300	0.90144
1538.99443	0.88290
1537.06587	0.86920
1535.13730	0.85967
1533.20874	0.84732
1531.28018	0.83435
1529.35161	0.82498
1527.42305	0.81591
1525.49448	0.80602
1523.56592	0.79736
1521.63735	0.78909
1519.70879	0.78060
1517.78022	0.77355
1515.85166	0.76587
1513.92310	0.75803
1511.99453	0.75132
1510.06597	0.74518
1508.13740	0.73929
1506.20884	0.73043
1504.28027	0.72222
1502.35171	0.71729
1500.42314	0.71292
1498.49458	0.70821
1496.56602	0.70281
1494.63745	0.69756
1492.70889	0.69350
1490.78032	0.69006
1488.85176	0.68613
1486.92319	0.68193
1484.99463	0.67816
1483.06606	0.67501
1481.13750	0.67213
1479.20894	0.66958
1477.28037	0.66776
1475.35181	0.66639
1473.42324	0.66479
1471.49468	0.66244
1469.56611	0.65996
1467.63755	0.65769
1465.70898	0.65564
1463.78042	0.65392
1461.85186	0.65255
1459.92329	0.65157
1457.99473	0.65069
1456.06616	0.64906
1454.13760	0.64686
1452.20903	0.64491
1450.28047	0.64291
1448.35190	0.64085
1446.42334	0.63889
1444.49478	0.63698
1442.56621	0.63499
1440.63765	0.63294
1438.70908	0.63099
1436.78052	0.62877
1434.85195	0.62626
1432.92339	0.62414
1430.99482	0.62238
1429.06626	0.62079
1427.13770	0.61964
1425.20913	0.61904
1423.28057	0.61858
1421.35200	0.61791
1419.42344	0.61721
1417.49487	0.61632
1415.56631	0.61498
1413.63774	0.61376
1411.70918	0.61302
1409.78062	0.61273
1407.85205	0.61256
1405.92349	0.61231
1403.99492	0.61188
1402.06636	0.61120
1400.13779	0.61016
1398.20923	0.60858
1396.28066	0.60666
1394.35210	0.60448
1392.42354	0.60213
1390.49497	0.59980
1388.56641	0.59747
1386.63784	0.59495
1384.70928	0.59227
1382.78071	0.58976
1380.85215	0.58740
1378.92358	0.58524
1376.99502	0.58355
1375.06646	0.58227
1373.13789	0.58102
1371.20933	0.57981
1369.28076	0.57889
1367.35220	0.57807
1365.42363	0.57701
1363.49507	0.57583
1361.56650	0.57462
1359.63794	0.57336
1357.70937	0.57228
1355.78081	0.57139
1353.85225	0.57056
1351.92368	0.56971
1349.99512	0.56886
1348.06655	0.56795
1346.13799	0.56704
1344.20942	0.56622
1342.28086	0.56536
1340.35229	0.56447
1338.42373	0.56356
1336.49517	0.56265
1334.56660	0.56189
1332.63804	0.56137
1330.70947	0.56095
1328.78091	0.56057
1326.85234	0.56033
1324.92378	0.56021
1322.99521	0.56014
1321.06665	0.55994
1319.13809	0.55959
1317.20952	0.55917
1315.28096	0.55867
1313.35239	0.55809
1311.42383	0.55745
1309.49526	0.55676
1307.56670	0.55608
1305.63813	0.55552
1303.70957	0.55499
1301.78101	0.55430
1299.85244	0.55345
1297.92388	0.55258
1295.99531	0.55176
1294.06675	0.55088
1292.13818	0.54996
1290.20962	0.54908
1288.28105	0.54826
1286.35249	0.54744
1284.42393	0.54662
1282.49536	0.54581
1280.56680	0.54507
1278.63823	0.54433
1276.70967	0.54364
1274.78110	0.54305
1272.85254	0.54242
1270.92397	0.54166
1268.99541	0.54089
1267.06685	0.54021
1265.13828	0.53955
1263.20972	0.53894
1261.28115	0.53844
1259.35259	0.53801
1257.42402	0.53757
1255.49546	0.53716
1253.56689	0.53696
1251.63833	0.53695
1249.70977	0.53686
1247.78120	0.53648
1245.85264	0.53591
1243.92407	0.53553
1241.99551	0.53523
1240.06694	0.53455
1238.13838	0.53349
1236.20981	0.53233
1234.28125	0.53114
1232.35269	0.52987
1230.42412	0.52858
1228.49556	0.52742
1226.56699	0.52625
1224.63843	0.52509
1222.70986	0.52409
1220.78130	0.52314
1218.85273	0.52214
1216.92417	0.52125
1214.99561	0.52048
1213.06704	0.51972
1211.13848	0.51901
1209.20991	0.51830
1207.28135	0.51750
1205.35278	0.51683
1203.42422	0.51631
1201.49565	0.51566
1199.56709	0.51486
1197.63853	0.51412
1195.70996	0.51345
1193.78140	0.51279
1191.85283	0.51223
1189.92427	0.51189
1187.99570	0.51178
1186.06714	0.51168
1184.13857	0.51153
1182.21001	0.51170
1180.28145	0.51216
1178.35288	0.51270
1176.42432	0.51345
1174.49575	0.51421
1172.56719	0.51462
1170.63862	0.51479
1168.71006	0.51495
1166.78149	0.51513
1164.85293	0.51531
1162.92437	0.51541
1160.99580	0.51526
1159.06724	0.51503
1157.13867	0.51490
1155.21011	0.51440
1153.28154	0.51318
1151.35298	0.51153
1149.42441	0.50962
1147.49585	0.50740
1145.56729	0.50512
1143.63872	0.50290
1141.71016	0.50069
1139.78159	0.49867
1137.85303	0.49687
1135.92446	0.49524
1133.99590	0.49387
1132.06733	0.49278
1130.13877	0.49185
1128.21021	0.49093
1126.28164	0.48994
1124.35308	0.48899
1122.42451	0.48833
1120.49595	0.48803
1118.56738	0.48779
1116.63882	0.48743
1114.71025	0.48707
1112.78169	0.48703
1110.85312	0.48766
1108.92456	0.48876
1106.99600	0.48994
1105.06743	0.49118
1103.13887	0.49252
1101.21030	0.49393
1099.28174	0.49552
1097.35317	0.49752
1095.42461	0.50044
1093.49604	0.50445
1091.56748	0.50908
1089.63892	0.51424
1087.71035	0.52029
1085.78179	0.52710
1083.85322	0.53424
1081.92466	0.54110
1079.99609	0.54686
1078.06753	0.55057
1076.13896	0.55148
1074.21040	0.54928
1072.28184	0.54457
1070.35327	0.53856
1068.42471	0.53199
1066.49614	0.52537
1064.56758	0.51912
1062.63901	0.51327
1060.71045	0.50803
1058.78188	0.50333
1056.85332	0.49892
1054.92476	0.49517
1052.99619	0.49234
1051.06763	0.49012
1049.13906	0.48832
1047.21050	0.48695
1045.28193	0.48600
1043.35337	0.48532
1041.42480	0.48469
1039.49624	0.48401
1037.56768	0.48356
1035.63911	0.48350
1033.71055	0.48348
1031.78198	0.48317
1029.85342	0.48269
1027.92485	0.48218
1025.99629	0.48167
1024.06772	0.48161
1022.13916	0.48191
1020.21060	0.48210
1018.28203	0.48237
1016.35347	0.48278
1014.42490	0.48315
1012.49634	0.48373
1010.56777	0.48466
1008.63921	0.48584
1006.71064	0.48725
1004.78208	0.48893
1002.85352	0.49093
1000.92495	0.49342
998.99639	0.49660
997.06782	0.50039
995.13926	0.50448
993.21069	0.50836
991.28213	0.51147
989.35356	0.51371
987.42500	0.51528
985.49644	0.51624
983.56787	0.51689
981.63931	0.51770
979.71074	0.51893
977.78218	0.52068
975.85361	0.52300
973.92505	0.52576
971.99648	0.52900
970.06792	0.53260
968.13936	0.53616
966.21079	0.53994
964.28223	0.54450
962.35366	0.54967
960.42510	0.55498
958.49653	0.56046
956.56797	0.56621
954.63940	0.57192
952.71084	0.57777
950.78228	0.58423
948.85371	0.59085
946.92515	0.59712
944.99658	0.60330
943.06802	0.60955
941.13945	0.61582
939.21089	0.62215
937.28232	0.62841
935.35376	0.63451
933.42520	0.64037
931.49663	0.64572
929.56807	0.65101
927.63950	0.65688
925.71094	0.66279
923.78237	0.66872
921.85381	0.67552
919.92524	0.68310
917.99668	0.69084
916.06812	0.69867
914.13955	0.70678
912.21099	0.71511
910.28242	0.72320
908.35386	0.73101
906.42529	0.73912
904.49673	0.74787
902.56816	0.75753
900.63960	0.76761
898.71104	0.77728
896.78247	0.78687
894.85391	0.79672
892.92534	0.80629
890.99678	0.81627
889.06821	0.82785
887.13965	0.83956
885.21108	0.84973
883.28252	0.85944
881.35396	0.87048
879.42539	0.88344
877.49683	0.89643
875.56826	0.90818
873.63970	0.92019
871.71113	0.93240
869.78257	0.94382
867.85400	0.95504
865.92544	0.96597
863.99687	0.97654
862.06831	0.98803
860.13975	1.00096
858.21118	1.01434
856.28262	1.02683
854.35405	1.03765
852.42549	1.04721
850.49692	1.05788
848.56836	1.06970
846.63979	1.08011
844.71123	1.09120
842.78267	1.10453
840.85410	1.11868
838.92554	1.13325
836.99697	1.14542
835.06841	1.15576
833.13984	1.16697
831.21128	1.17537
829.28271	1.18407
827.35415	1.19743
825.42559	1.20897
823.49702	1.21761
821.56846	1.22611
819.63989	1.23909
817.71133	1.26128
815.78276	1.28234
813.85420	1.29110
811.92563	1.29354
809.99707	1.29633
808.06851	1.30226
806.13994	1.31940
804.21138	1.33845
802.28281	1.34696
800.35425	1.36167
798.42568	1.38847
796.49712	1.41204
794.56855	1.42798
792.63999	1.43764
790.71143	1.44875
788.78286	1.48411
786.85430	1.54198
784.92573	1.57431
782.99717	1.57546
781.06860	1.60685
779.14004	1.68268
777.21147	1.73955
775.28291	1.69612
773.35435	1.55489
771.42578	1.45321
769.49722	1.47908
767.56865	1.69621
765.64009	1.89196
763.71152	1.72097
761.78296	1.48965
759.85439	1.32516
757.92583	1.27015
755.99727	1.23970
754.06870	1.16222
752.14014	1.10716
750.21157	1.11373
748.28301	1.13200
746.35444	1.08772
744.42588	1.01842
742.49731	0.97674
740.56875	0.93872
738.64019	0.87390
736.71162	0.84448
734.78306	0.86707
732.85449	0.81881
730.92593	0.71219
728.99736	0.67568
727.06880	0.69348
725.14023	0.68518
723.21167	0.73279
721.28311	0.95421
719.35454	0.86114
717.42598	0.62135
715.49741	0.65059
713.56885	1.33106
711.64028	4.26984
709.71172	1.43879
707.78315	0.78836
705.85459	0.47994
703.92603	0.28926
701.99746	0.26664
700.06890	0.28154
698.14033	0.20948
696.21177	0.15089
694.28320	0.25300
692.35464	0.39177
690.42607	0.37652
688.49751	0.31823
686.56895	0.36725
684.64038	0.48250
682.71182	0.51423
680.78325	0.48774
678.85469	0.68845
676.92612	4.06156
674.99756	4.04999
673.06899	4.03841
671.14043	0.60485
669.21187	0.37090
667.28330	0.27641
665.35474	0.25756
663.42617	0.26888
661.49761	0.36626
659.56904	0.53896
657.64048	0.61257
655.71191	0.76170
653.78335	0.60239
651.85479	0.29534
649.92622	0.19171
647.99766	0.19088
646.06909	0.21404
644.14053	0.23511
642.21196	0.27189
640.28340	0.33633
638.35483	0.30409
636.42627	0.22536
634.49771	0.21462
632.56914	0.28605
630.64058	0.41153
628.71201	0.46635
626.78345	0.42418
624.85488	0.36799
622.92632	0.36810
620.99775	0.38369
619.06919	0.29559
617.14062	0.17367
615.21206	0.11760
613.28350	0.16881
611.35493	0.22368
609.42637	0.17833
607.49780	0.16844
605.56924	0.21805
603.64067	0.22711
601.71211	0.20736
599.78354	0.18771
597.85498	0.17310
595.92642	0.16811
593.99785	0.20585
592.06929	0.30434
590.14072	0.36175
588.21216	0.24682
586.28359	0.13136
584.35503	0.13927
582.42646	0.22648
580.49790	0.23926
578.56934	0.12782
576.64077	0.07172
574.71221	0.11959
572.78364	0.17937
570.85508	0.17389
568.92651	0.14903
566.99795	0.17975
565.06938	0.28780
563.14082	0.40226
561.21226	0.32264
559.28369	0.21688
557.35513	0.19389
555.42656	0.24275
553.49800	0.26015
551.56943	0.22941
549.64087	0.22627
547.71230	0.29371
545.78374	0.43383
543.85518	0.41848
541.92661	0.30997
539.99805	0.31866
538.06948	0.34193
536.14092	0.29223
534.21235	0.27386
532.28379	0.27532
530.35522	0.25472
528.42666	0.24014
526.49810	0.25320
524.56953	0.24457
522.64097	0.22029
520.71240	0.21079
518.78384	0.18874
516.85527	0.16951
514.92671	0.19384
512.99814	0.21235
511.06958	0.17929
509.14102	0.15852
507.21245	0.15691
505.28389	0.14308
503.35532	0.15854
501.42676	0.23309
499.49819	0.33854
