3997.91411	0.06337
3995.98555	0.06388
3994.05698	0.06414
3992.12842	0.06450
3990.19985	0.06535
3988.27129	0.06602
3986.34272	0.06578
3984.41416	0.06537
3982.48560	0.06567
3980.55703	0.06629
3978.62847	0.06650
3976.69990	0.06640
3974.77134	0.06636
3972.84277	0.06638
3970.91421	0.06655
3968.98564	0.06706
3967.05708	0.06744
3965.12852	0.06734
3963.19995	0.06726
3961.27139	0.06754
3959.34282	0.06763
3957.41426	0.06735
3955.48569	0.06731
3953.55713	0.06761
3951.62856	0.06771
3949.70000	0.06764
3947.77144	0.06769
3945.84287	0.06779
3943.91431	0.06789
3941.98574	0.06784
3940.05718	0.06762
3938.12861	0.06760
3936.20005	0.06771
3934.27148	0.06775
3932.34292	0.06788
3930.41436	0.06815
3928.48579	0.06837
3926.55723	0.06840
3924.62866	0.06804
3922.70010	0.06744
3920.77153	0.06686
3918.84297	0.06669
3916.91440	0.06707
3914.98584	0.06708
3913.05728	0.06644
3911.12871	0.06586
3909.20015	0.06567
3907.27158	0.06602
3905.34302	0.06680
3903.41445	0.06744
3901.48589	0.06731
3899.55732	0.06703
3897.62876	0.06710
3895.70020	0.06721
3893.77163	0.06748
3891.84307	0.06771
3889.91450	0.06737
3887.98594	0.06679
3886.05737	0.06666
3884.12881	0.06715
3882.20024	0.06765
3880.27168	0.06761
3878.34312	0.06750
3876.41455	0.06785
3874.48599	0.06854
3872.55742	0.06885
3870.62886	0.06858
3868.70029	0.06866
3866.77173	0.06916
3864.84316	0.06960
3862.91460	0.06988
3860.98604	0.07007
3859.05747	0.07048
3857.12891	0.07107
3855.20034	0.07160
3853.27178	0.07206
3851.34321	0.07220
3849.41465	0.07201
3847.48608	0.07233
3845.55752	0.07307
3843.62896	0.07408
3841.70039	0.07503
3839.77183	0.07513
3837.84326	0.07502
3835.91470	0.07588
3833.98613	0.07722
3832.05757	0.07802
3830.12900	0.07818
3828.20044	0.07827
3826.27187	0.07897
3824.34331	0.08017
3822.41475	0.08128
3820.48618	0.08249
3818.55762	0.08372
3816.62905	0.08444
3814.70049	0.08486
3812.77192	0.08537
3810.84336	0.08624
3808.91479	0.08728
3806.98623	0.08842
3805.05767	0.08980
3803.12910	0.09117
3801.20054	0.09258
3799.27197	0.09371
3797.34341	0.09441
3795.41484	0.09535
3793.48628	0.09637
3791.55771	0.09735
3789.62915	0.09838
3787.70059	0.09944
3785.77202	0.10074
3783.84346	0.10229
3781.91489	0.10396
3779.98633	0.10569
3778.05776	0.10740
3776.12920	0.10876
3774.20063	0.11008
3772.27207	0.11180
3770.34351	0.11380
3768.41494	0.11573
3766.48638	0.11732
3764.55781	0.11874
3762.62925	0.12039
3760.70068	0.12254
3758.77212	0.12513
3756.84355	0.12760
3754.91499	0.12953
3752.98643	0.13126
3751.05786	0.13363
3749.12930	0.13693
3747.20073	0.13962
3745.27217	0.14212
3743.34360	0.14652
3741.41504	0.15109
3739.48647	0.15417
3737.55791	0.15742
3735.62935	0.16186
3733.70078	0.16694
3731.77222	0.17153
3729.84365	0.17606
3727.91509	0.18044
3725.98652	0.18511
3724.05796	0.19081
3722.12939	0.19751
3720.20083	0.20474
3718.27227	0.21206
3716.34370	0.21963
3714.41514	0.22728
3712.48657	0.23586
3710.55801	0.24766
3708.62944	0.26131
3706.70088	0.27298
3704.77231	0.28378
3702.84375	0.29650
3700.91519	0.31282
3698.98662	0.33061
3697.05806	0.34795
3695.12949	0.36630
3693.20093	0.38543
3691.27236	0.40574
3689.34380	0.43209
3687.41523	0.46604
3685.48667	0.49689
3683.55811	0.52316
3681.62954	0.55048
3679.70098	0.58090
3677.77241	0.61327
3675.84385	0.65162
3673.91528	0.70316
3671.98672	0.74636
3670.05815	0.78484
3668.12959	0.83669
3666.20103	0.88456
3664.27246	0.92496
3662.34390	0.96761
3660.41533	1.01329
3658.48677	1.05866
3656.55820	1.10704
3654.62964	1.16089
3652.70107	1.20648
3650.77251	1.24547
3648.84395	1.29788
3646.91538	1.36457
3644.98682	1.41660
3643.05825	1.45675
3641.12969	1.49690
3639.20112	1.54055
3637.27256	1.58430
3635.34399	1.62669
3633.41543	1.66844
3631.48687	1.70714
3629.55830	1.74664
3627.62974	1.79934
3625.70117	1.84997
3623.77261	1.88487
3621.84404	1.91756
3619.91548	1.95407
3617.98691	1.99838
3616.05835	2.04182
3614.12979	2.07767
3612.20122	2.11561
3610.27266	2.15510
3608.34409	2.19479
3606.41553	2.23769
3604.48696	2.27829
3602.55840	2.31336
3600.62983	2.35042
3598.70127	2.39148
3596.77271	2.43203
3594.84414	2.47238
3592.91558	2.51346
3590.98701	2.55191
3589.05845	2.58717
3587.12988	2.62978
3585.20132	2.67836
3583.27275	2.71930
3581.34419	2.75579
3579.41562	2.79532
3577.48706	2.83923
3575.55850	2.88413
3573.62993	2.92785
3571.70137	2.96846
3569.77280	3.00700
3567.84424	3.04989
3565.91567	3.10378
3563.98711	3.15501
3562.05854	3.19765
3560.12998	3.24097
3558.20142	3.28501
3556.27285	3.32957
3554.34429	3.37512
3552.41572	3.42086
3550.48716	3.46515
3548.55859	3.50873
3546.63003	3.55507
3544.70146	3.60546
3542.77290	3.65226
3540.84434	3.69542
3538.91577	3.74311
3536.98721	3.79341
3535.05864	3.84365
3533.13008	3.89257
3531.20151	3.94077
3529.27295	3.98944
3527.34438	4.03779
3525.41582	4.08331
3523.48726	4.12655
3521.55869	4.17457
3519.63013	4.22723
3517.70156	4.27782
3515.77300	4.32483
3513.84443	4.37185
3511.91587	4.42189
3509.98730	4.47562
3508.05874	4.52855
3506.13018	4.57618
3504.20161	4.61753
3502.27305	4.65503
3500.34448	4.69698
3498.41592	4.74803
3496.48735	4.80839
3494.55879	4.86981
3492.63022	4.91942
3490.70166	4.96022
3488.77310	5.00334
3486.84453	5.04866
3484.91597	5.09267
3482.98740	5.13716
3481.05884	5.18335
3479.13027	5.23166
3477.20171	5.27969
3475.27314	5.32404
3473.34458	5.36875
3471.41602	5.42007
3469.48745	5.47500
3467.55889	5.52373
3465.63032	5.57074
3463.70176	5.62966
3461.77319	5.69009
3459.84463	5.74308
3457.91606	5.79652
3455.98750	5.84863
3454.05894	5.89673
3452.13037	5.94499
3450.20181	5.99246
3448.27324	6.04393
3446.34468	6.11058
3444.41611	6.17144
3442.48755	6.21170
3440.55898	6.25986
3438.63042	6.33223
3436.70186	6.40065
3434.77329	6.44377
3432.84473	6.47133
3430.91616	6.48630
3428.98760	6.51209
3427.05903	6.57228
3425.13047	6.63786
3423.20190	6.68667
3421.27334	6.74233
3419.34478	6.80364
3417.41621	6.85765
3415.48765	6.89398
3413.55908	6.89934
3411.63052	6.90950
3409.70195	6.95629
3407.77339	7.01595
3405.84482	7.06122
3403.91626	7.11044
3401.98770	7.15401
3400.05913	7.18741
3398.13057	7.22707
3396.20200	7.26698
3394.27344	7.30951
3392.34487	7.34651
3390.41631	7.40387
3388.48774	7.47062
3386.55918	7.48527
3384.63062	7.45620
3382.70205	7.47347
3380.77349	7.54957
3378.84492	7.59848
3376.91636	7.62567
3374.98779	7.66050
3373.05923	7.69643
3371.13066	7.75284
3369.20210	7.84271
3367.27354	7.87147
3365.34497	7.79979
3363.41641	7.79109
3361.48784	7.90910
3359.55928	7.97920
3357.63071	7.93809
3355.70215	7.97302
3353.77358	8.06531
3351.84502	8.06266
3349.91646	8.01720
3347.98789	8.01646
3346.05933	7.98972
3344.13076	7.94212
3342.20220	7.96691
3340.27363	8.01624
3338.34507	8.03992
3336.41650	8.05735
3334.48794	8.07990
3332.55937	8.07907
3330.63081	8.07421
3328.70225	8.07811
3326.77368	8.06915
3324.84512	8.08803
3322.91655	8.13480
3320.98799	8.15786
3319.05942	8.16897
3317.13086	8.22758
3315.20229	8.23785
3313.27373	8.15630
3311.34517	8.11898
3309.41660	8.15881
3307.48804	8.15308
3305.55947	8.05363
3303.63091	8.05962
3301.70234	8.19883
3299.77378	8.27051
3297.84521	8.21732
3295.91665	8.10654
3293.98809	8.01763
3292.05952	8.01379
3290.13096	8.08654
3288.20239	8.23468
3286.27383	8.38096
3284.34526	8.40133
3282.41670	8.39888
3280.48813	8.42281
3278.55957	8.44522
3276.63101	8.48240
3274.70244	8.50523
3272.77388	8.51901
3270.84531	8.52546
3268.91675	8.45667
3266.98818	8.28307
3265.05962	8.15789
3263.13105	8.22604
3261.20249	8.38582
3259.27393	8.35068
3257.34536	8.17449
3255.41680	8.11435
3253.48823	8.15909
3251.55967	8.17564
3249.63110	8.22554
3247.70254	8.39589
3245.77397	8.45890
3243.84541	8.25555
3241.91685	8.04331
3239.98828	7.98962
3238.05972	8.02602
3236.13115	8.06446
3234.20259	8.15090
3232.27402	8.26902
3230.34546	8.28228
3228.41689	8.20133
3226.48833	8.15557
3224.55977	8.14308
3222.63120	8.10363
3220.70264	8.04629
3218.77407	8.01459
3216.84551	8.01504
3214.91694	8.00184
3212.98838	7.97652
3211.05981	7.97070
3209.13125	7.97199
3207.20269	7.93953
3205.27412	7.88125
3203.34556	7.85846
3201.41699	7.86817
3199.48843	7.85975
3197.55986	7.79635
3195.63130	7.72515
3193.70273	7.71339
3191.77417	7.67240
3189.84561	7.55057
3187.91704	7.45718
3185.98848	7.42197
3184.05991	7.39297
3182.13135	7.35521
3180.20278	7.30990
3178.27422	7.26466
3176.34565	7.24842
3174.41709	7.24734
3172.48853	7.20637
3170.55996	7.11379
3168.63140	7.00608
3166.70283	6.92270
3164.77427	6.87553
3162.84570	6.82820
3160.91714	6.75877
3158.98857	6.68861
3157.06001	6.62251
3155.13145	6.57340
3153.20288	6.53885
3151.27432	6.47863
3149.34575	6.40413
3147.41719	6.34492
3145.48862	6.28208
3143.56006	6.21246
3141.63149	6.14825
3139.70293	6.07371
3137.77437	5.98745
3135.84580	5.90170
3133.91724	5.82559
3131.98867	5.76848
3130.06011	5.71494
3128.13154	5.63928
3126.20298	5.54872
3124.27441	5.46237
3122.34585	5.38252
3120.41729	5.31241
3118.48872	5.25252
3116.56016	5.19486
3114.63159	5.13079
3112.70303	5.05609
3110.77446	4.97815
3108.84590	4.90312
3106.91733	4.82861
3104.98877	4.75613
3103.06021	4.68900
3101.13164	4.62294
3099.20308	4.55587
3097.27451	4.49048
3095.34595	4.42533
3093.41738	4.35939
3091.48882	4.29421
3089.56025	4.22841
3087.63169	4.16219
3085.70312	4.09992
3083.77456	4.03945
3081.84600	3.97604
3079.91743	3.91238
3077.98887	3.85186
3076.06030	3.79250
3074.13174	3.73328
3072.20317	3.67582
3070.27461	3.61845
3068.34604	3.55916
3066.41748	3.49970
3064.48892	3.44230
3062.56035	3.38649
3060.63179	3.32990
3058.70322	3.27268
3056.77466	3.21774
3054.84609	3.16453
3052.91753	3.11102
3050.98896	3.05869
3049.06040	3.00730
3047.13184	2.95524
3045.20327	2.90457
3043.27471	2.85638
3041.34614	2.80834
3039.41758	2.76013
3037.48901	2.71321
3035.56045	2.66787
3033.63188	2.62351
3031.70332	2.57874
3029.77476	2.53305
3027.84619	2.48751
3025.91763	2.44289
3023.98906	2.39926
3022.06050	2.35700
3020.13193	2.31600
3018.20337	2.27548
3016.27480	2.23547
3014.34624	2.19622
3012.41768	2.15740
3010.48911	2.11863
3008.56055	2.08026
3006.63198	2.04300
3004.70342	2.00684
3002.77485	1.97133
3000.84629	1.93592
2998.91772	1.90098
2996.98916	1.86768
2995.06060	1.83559
2993.13203	1.80383
2991.20347	1.77281
2989.27490	1.74264
2987.34634	1.71307
2985.41777	1.68365
2983.48921	1.65408
2981.56064	1.62543
2979.63208	1.59769
2977.70352	1.56999
2975.77495	1.54307
2973.84639	1.51726
2971.91782	1.49207
2969.98926	1.46748
2968.06069	1.44297
2966.13213	1.41811
2964.20356	1.39349
2962.27500	1.36927
2960.34644	1.34501
2958.41787	1.32111
2956.48931	1.29791
2954.56074	1.27473
2952.63218	1.25133
2950.70361	1.22829
2948.77505	1.20573
2946.84648	1.18370
2944.91792	1.16292
2942.98936	1.14305
2941.06079	1.12312
2939.13223	1.10329
2937.20366	1.08382
2935.27510	1.06433
2933.34653	1.04511
2931.41797	1.02655
2929.48940	1.00786
2927.56084	0.98866
2925.63228	0.97000
2923.70371	0.95251
2921.77515	0.93579
2919.84658	0.91917
2917.91802	0.90220
2915.98945	0.88523
2914.06089	0.86876
2912.13232	0.85268
2910.20376	0.83700
2908.27520	0.82184
2906.34663	0.80704
2904.41807	0.79264
2902.48950	0.77898
2900.56094	0.76566
2898.63237	0.75203
2896.70381	0.73841
2894.77524	0.72542
2892.84668	0.71326
2890.91812	0.70159
2888.98955	0.69007
2887.06099	0.67874
2885.13242	0.66777
2883.20386	0.65750
2881.27529	0.64780
2879.34673	0.63794
2877.41816	0.62786
2875.48960	0.61784
2873.56104	0.60771
2871.63247	0.59750
2869.70391	0.58718
2867.77534	0.57650
2865.84678	0.56570
2863.91821	0.55534
2861.98965	0.54541
2860.06108	0.53557
2858.13252	0.52567
2856.20396	0.51590
2854.27539	0.50663
2852.34683	0.49806
2850.41826	0.48988
2848.48970	0.48175
2846.56113	0.47381
2844.63257	0.46608
2842.70400	0.45849
2840.77544	0.45140
2838.84687	0.44504
2836.91831	0.43903
2834.98975	0.43275
2833.06118	0.42629
2831.13262	0.42014
2829.20405	0.41435
2827.27549	0.40850
2825.34692	0.40240
2823.41836	0.39635
2821.48979	0.39059
2819.56123	0.38510
2817.63267	0.37968
2815.70410	0.37416
2813.77554	0.36861
2811.84697	0.36308
2809.91841	0.35756
2807.98984	0.35221
2806.06128	0.34716
2804.13271	0.34227
2802.20415	0.33737
2800.27559	0.33252
2798.34702	0.32782
2796.41846	0.32321
2794.48989	0.31872
2792.56133	0.31429
2790.63276	0.30973
2788.70420	0.30526
2786.77563	0.30112
2784.84707	0.29704
2782.91851	0.29295
2780.98994	0.28911
2779.06138	0.28536
2777.13281	0.28142
2775.20425	0.27753
2773.27568	0.27403
2771.34712	0.27071
2769.41855	0.26714
2767.48999	0.26347
2765.56143	0.25995
2763.63286	0.25662
2761.70430	0.25354
2759.77573	0.25051
2757.84717	0.24724
2755.91860	0.24389
2753.99004	0.24077
2752.06147	0.23792
2750.13291	0.23517
2748.20435	0.23256
2746.27578	0.23004
2744.34722	0.22739
2742.41865	0.22468
2740.49009	0.22220
2738.56152	0.21986
2736.63296	0.21751
2734.70439	0.21514
2732.77583	0.21282
2730.84727	0.21066
2728.91870	0.20856
2726.99014	0.20628
2725.06157	0.20383
2723.13301	0.20147
2721.20444	0.19937
2719.27588	0.19764
2717.34731	0.19620
2715.41875	0.19465
2713.49019	0.19268
2711.56162	0.19052
2709.63306	0.18862
2707.70449	0.18704
2705.77593	0.18565
2703.84736	0.18433
2701.91880	0.18286
2699.99023	0.18124
2698.06167	0.17983
2696.13311	0.17857
2694.20454	0.17713
2692.27598	0.17560
2690.34741	0.17420
2688.41885	0.17288
2686.49028	0.17163
2684.56172	0.17061
2682.63315	0.16962
2680.70459	0.16848
2678.77603	0.16738
2676.84746	0.16637
2674.91890	0.16534
2672.99033	0.16422
2671.06177	0.16308
2669.13320	0.16202
2667.20464	0.16107
2665.27607	0.16018
2663.34751	0.15946
2661.41895	0.15890
2659.49038	0.15820
2657.56182	0.15733
2655.63325	0.15644
2653.70469	0.15553
2651.77612	0.15470
2649.84756	0.15410
2647.91899	0.15351
2645.99043	0.15284
2644.06187	0.15224
2642.13330	0.15182
2640.20474	0.15155
2638.27617	0.15124
2636.34761	0.15080
2634.41904	0.15036
2632.49048	0.14998
2630.56191	0.14969
2628.63335	0.14939
2626.70479	0.14891
2624.77622	0.14833
2622.84766	0.14782
2620.91909	0.14758
2618.99053	0.14766
2617.06196	0.14772
2615.13340	0.14757
2613.20483	0.14732
2611.27627	0.14710
2609.34771	0.14698
2607.41914	0.14695
2605.49058	0.14688
2603.56201	0.14681
2601.63345	0.14690
2599.70488	0.14707
2597.77632	0.14723
2595.84775	0.14732
2593.91919	0.14733
2591.99062	0.14736
2590.06206	0.14747
2588.13350	0.14759
2586.20493	0.14770
2584.27637	0.14791
2582.34780	0.14821
2580.41924	0.14848
2578.49067	0.14868
2576.56211	0.14886
2574.63354	0.14920
2572.70498	0.14969
2570.77642	0.14997
2568.84785	0.15003
2566.91929	0.15035
2564.99072	0.15096
2563.06216	0.15151
2561.13359	0.15193
2559.20503	0.15238
2557.27646	0.15279
2555.34790	0.15315
2553.41934	0.15367
2551.49077	0.15442
2549.56221	0.15510
2547.63364	0.15554
2545.70508	0.15595
2543.77651	0.15655
2541.84795	0.15737
2539.91938	0.15821
2537.99082	0.15893
2536.06226	0.15961
2534.13369	0.16039
2532.20513	0.16106
2530.27656	0.16160
2528.34800	0.16231
2526.41943	0.16314
2524.49087	0.16379
2522.56230	0.16433
2520.63374	0.16506
2518.70518	0.16595
2516.77661	0.16685
2514.84805	0.16770
2512.91948	0.16844
2510.99092	0.16912
2509.06235	0.16984
2507.13379	0.17062
2505.20522	0.17142
2503.27666	0.17227
2501.34810	0.17313
2499.41953	0.17395
2497.49097	0.17473
2495.56240	0.17557
2493.63384	0.17643
2491.70527	0.17722
2489.77671	0.17804
2487.84814	0.17894
2485.91958	0.17978
2483.99102	0.18057
2482.06245	0.18151
2480.13389	0.18253
2478.20532	0.18347
2476.27676	0.18439
2474.34819	0.18530
2472.41963	0.18625
2470.49106	0.18724
2468.56250	0.18809
2466.63394	0.18887
2464.70537	0.18977
2462.77681	0.19075
2460.84824	0.19168
2458.91968	0.19256
2456.99111	0.19351
2455.06255	0.19451
2453.13398	0.19549
2451.20542	0.19655
2449.27686	0.19762
2447.34829	0.19851
2445.41973	0.19932
2443.49116	0.20037
2441.56260	0.20166
2439.63403	0.20290
2437.70547	0.20393
2435.77690	0.20482
2433.84834	0.20570
2431.91978	0.20668
2429.99121	0.20771
2428.06265	0.20867
2426.13408	0.20969
2424.20552	0.21085
2422.27695	0.21201
2420.34839	0.21302
2418.41982	0.21398
2416.49126	0.21506
2414.56270	0.21631
2412.63413	0.21759
2410.70557	0.21881
2408.77700	0.22002
2406.84844	0.22129
2404.91987	0.22250
2402.99131	0.22356
2401.06274	0.22457
2399.13418	0.22568
2397.20562	0.22692
2395.27705	0.22824
2393.34849	0.22957
2391.41992	0.23086
2389.49136	0.23206
2387.56279	0.23323
2385.63423	0.23443
2383.70566	0.23569
2381.77710	0.23701
2379.84854	0.23831
2377.91997	0.23957
2375.99141	0.24074
2374.06284	0.24186
2372.13428	0.24306
2370.20571	0.24440
2368.27715	0.24549
2366.34858	0.24564
2364.42002	0.24560
2362.49146	0.24691
2360.56289	0.24934
2358.63433	0.25184
2356.70576	0.25361
2354.77720	0.25522
2352.84863	0.25781
2350.92007	0.26045
2348.99150	0.26204
2347.06294	0.26288
2345.13437	0.26372
2343.20581	0.26506
2341.27725	0.26639
2339.34868	0.26739
2337.42012	0.26923
2335.49155	0.27164
2333.56299	0.27311
2331.63442	0.27439
2329.70586	0.27680
2327.77729	0.27969
2325.84873	0.28174
2323.92017	0.28315
2321.99160	0.28467
2320.06304	0.28642
2318.13447	0.28815
2316.20591	0.28975
2314.27734	0.29145
2312.34878	0.29339
2310.42021	0.29533
2308.49165	0.29715
2306.56309	0.29896
2304.63452	0.30088
2302.70596	0.30280
2300.77739	0.30460
2298.84883	0.30636
2296.92026	0.30816
2294.99170	0.30991
2293.06313	0.31166
2291.13457	0.31353
2289.20601	0.31551
2287.27744	0.31745
2285.34888	0.31937
2283.42031	0.32116
2281.49175	0.32286
2279.56318	0.32476
2277.63462	0.32686
2275.70605	0.32904
2273.77749	0.33123
2271.84893	0.33329
2269.92036	0.33529
2267.99180	0.33748
2266.06323	0.33974
2264.13467	0.34187
2262.20610	0.34388
2260.27754	0.34589
2258.34897	0.34798
2256.42041	0.35021
2254.49185	0.35252
2252.56328	0.35486
2250.63472	0.35719
2248.70615	0.35936
2246.77759	0.36138
2244.84902	0.36342
2242.92046	0.36549
2240.99189	0.36761
2239.06333	0.36984
2237.13477	0.37212
2235.20620	0.37437
2233.27764	0.37674
2231.34907	0.37920
2229.42051	0.38153
2227.49194	0.38379
2225.56338	0.38596
2223.63481	0.38796
2221.70625	0.39001
2219.77769	0.39213
2217.84912	0.39419
2215.92056	0.39635
2213.99199	0.39867
2212.06343	0.40094
2210.13486	0.40306
2208.20630	0.40519
2206.27773	0.40728
2204.34917	0.40919
2202.42061	0.41113
2200.49204	0.41328
2198.56348	0.41549
2196.63491	0.41757
2194.70635	0.41946
2192.77778	0.42124
2190.84922	0.42310
2188.92065	0.42500
2186.99209	0.42672
2185.06353	0.42833
2183.13496	0.43004
2181.20640	0.43185
2179.27783	0.43364
2177.34927	0.43530
2175.42070	0.43684
2173.49214	0.43835
2171.56357	0.43977
2169.63501	0.44103
2167.70645	0.44225
2165.77788	0.44347
2163.84932	0.44464
2161.92075	0.44569
2159.99219	0.44674
2158.06362	0.44792
2156.13506	0.44904
2154.20649	0.44990
2152.27793	0.45059
2150.34937	0.45123
2148.42080	0.45193
2146.49224	0.45257
2144.56367	0.45295
2142.63511	0.45312
2140.70654	0.45335
2138.77798	0.45382
2136.84941	0.45425
2134.92085	0.45436
2132.99229	0.45421
2131.06372	0.45403
2129.13516	0.45380
2127.20659	0.45350
2125.27803	0.45323
2123.34946	0.45293
2121.42090	0.45246
2119.49233	0.45174
2117.56377	0.45085
2115.63521	0.45000
2113.70664	0.44929
2111.77808	0.44851
2109.84951	0.44747
2107.92095	0.44638
2105.99238	0.44528
2104.06382	0.44410
2102.13525	0.44277
2100.20669	0.44136
2098.27812	0.43990
2096.34956	0.43835
2094.42100	0.43678
2092.49243	0.43520
2090.56387	0.43350
2088.63530	0.43162
2086.70674	0.42969
2084.77817	0.42780
2082.84961	0.42597
2080.92104	0.42411
2078.99248	0.42214
2077.06392	0.42003
2075.13535	0.41783
2073.20679	0.41561
2071.27822	0.41336
2069.34966	0.41097
2067.42109	0.40853
2065.49253	0.40628
2063.56396	0.40408
2061.63540	0.40162
2059.70684	0.39905
2057.77827	0.39660
2055.84971	0.39414
2053.92114	0.39146
2051.99258	0.38870
2050.06401	0.38602
2048.13545	0.38349
2046.20688	0.38096
2044.27832	0.37833
2042.34976	0.37562
2040.42119	0.37289
2038.49263	0.37005
2036.56406	0.36721
2034.63550	0.36452
2032.70693	0.36174
2030.77837	0.35886
2028.84980	0.35604
2026.92124	0.35334
2024.99268	0.35073
2023.06411	0.34809
2021.13555	0.34535
2019.20698	0.34256
2017.27842	0.33976
2015.34985	0.33694
2013.42129	0.33421
2011.49272	0.33162
2009.56416	0.32899
2007.63560	0.32614
2005.70703	0.32323
2003.77847	0.32046
2001.84990	0.31790
1999.92134	0.31546
1997.99277	0.31288
1996.06421	0.31024
1994.13564	0.30776
1992.20708	0.30530
1990.27852	0.30271
1988.34995	0.30015
1986.42139	0.29774
1984.49282	0.29546
1982.56426	0.29325
1980.63569	0.29096
1978.70713	0.28862
1976.77856	0.28638
1974.85000	0.28420
1972.92144	0.28200
1970.99287	0.27983
1969.06431	0.27776
1967.13574	0.27574
1965.20718	0.27372
1963.27861	0.27186
1961.35005	0.27017
1959.42148	0.26838
1957.49292	0.26643
1955.56436	0.26452
1953.63579	0.26276
1951.70723	0.26111
1949.77866	0.25947
1947.85010	0.25781
1945.92153	0.25629
1943.99297	0.25489
1942.06440	0.25346
1940.13584	0.25200
1938.20728	0.25064
1936.27871	0.24934
1934.35015	0.24800
1932.42158	0.24673
1930.49302	0.24551
1928.56445	0.24433
1926.63589	0.24319
1924.70732	0.24215
1922.77876	0.24128
1920.85020	0.24051
1918.92163	0.23973
1916.99307	0.23884
1915.06450	0.23797
1913.13594	0.23713
1911.20737	0.23635
1909.27881	0.23567
1907.35024	0.23500
1905.42168	0.23429
1903.49312	0.23366
1901.56455	0.23313
1899.63599	0.23266
1897.70742	0.23228
1895.77886	0.23195
1893.85029	0.23164
1891.92173	0.23127
1889.99316	0.23098
1888.06460	0.23076
1886.13604	0.23052
1884.20747	0.23033
1882.27891	0.23024
1880.35034	0.23017
1878.42178	0.23002
1876.49321	0.22990
1874.56465	0.22989
1872.63608	0.23004
1870.70752	0.23026
1868.77896	0.23055
1866.85039	0.23074
1864.92183	0.23083
1862.99326	0.23108
1861.06470	0.23144
1859.13613	0.23179
1857.20757	0.23209
1855.27900	0.23257
1853.35044	0.23311
1851.42187	0.23363
1849.49331	0.23417
1847.56475	0.23488
1845.63618	0.23573
1843.70762	0.23662
1841.77905	0.23737
1839.85049	0.23790
1837.92192	0.23873
1835.99336	0.23977
1834.06479	0.24074
1832.13623	0.24169
1830.20767	0.24299
1828.27910	0.24436
1826.35054	0.24540
1824.42197	0.24664
1822.49341	0.24797
1820.56484	0.24931
1818.63628	0.25077
1816.70771	0.25246
1814.77915	0.25414
1812.85059	0.25589
1810.92202	0.25790
1808.99346	0.25991
1807.06489	0.26180
1805.13633	0.26370
1803.20776	0.26588
1801.27920	0.26826
1799.35063	0.27094
1797.42207	0.27349
1795.49351	0.27593
1793.56494	0.27874
1791.63638	0.28240
1789.70781	0.28598
1787.77925	0.28877
1785.85068	0.29202
1783.92212	0.29573
1781.99355	0.29954
1780.06499	0.30354
1778.13643	0.30778
1776.20786	0.31186
1774.27930	0.31623
1772.35073	0.32192
1770.42217	0.32808
1768.49360	0.33354
1766.56504	0.33886
1764.63647	0.34426
1762.70791	0.35010
1760.77935	0.35742
1758.85078	0.36440
1756.92222	0.37156
1754.99365	0.37950
1753.06509	0.38669
1751.13652	0.39495
1749.20796	0.40524
1747.27939	0.41571
1745.35083	0.42514
1743.42227	0.43496
1741.49370	0.44565
1739.56514	0.45824
1737.63657	0.47078
1735.70801	0.48160
1733.77944	0.49783
1731.85088	0.51761
1729.92231	0.53345
1727.99375	0.54928
1726.06519	0.56610
1724.13662	0.58440
1722.20806	0.60422
1720.27949	0.62254
1718.35093	0.64378
1716.42236	0.67505
1714.49380	0.70534
1712.56523	0.73045
1710.63667	0.75479
1708.70811	0.78067
1706.77954	0.80977
1704.85098	0.84455
1702.92241	0.87578
1700.99385	0.90650
1699.06528	0.95218
1697.13672	0.99475
1695.20815	1.03869
1693.27959	1.08157
1691.35103	1.11624
1689.42246	1.15598
1687.49390	1.19765
1685.56533	1.23758
1683.63677	1.29944
1681.70820	1.36434
1679.77964	1.40616
1677.85107	1.44589
1675.92251	1.49154
1673.99395	1.54769
1672.06538	1.59777
1670.13682	1.64680
1668.20825	1.70997
1666.27969	1.76196
1664.35112	1.80662
1662.42256	1.86170
1660.49399	1.92262
1658.56543	1.97050
1656.63687	2.00971
1654.70830	2.04539
1652.77974	2.09998
1650.85117	2.15242
1648.92261	2.17296
1646.99404	2.19792
1645.06548	2.22422
1643.13691	2.24092
1641.20835	2.25012
1639.27979	2.25811
1637.35122	2.26243
1635.42266	2.26332
1633.49409	2.26009
1631.56553	2.24748
1629.63696	2.22840
1627.70840	2.19932
1625.77983	2.16836
1623.85127	2.12925
1621.92271	2.07918
1619.99414	2.03472
1618.06558	1.99138
1616.13701	1.92907
1614.20845	1.86672
1612.27988	1.81959
1610.35132	1.76950
1608.42275	1.71480
1606.49419	1.66114
1604.56562	1.61245
1602.63706	1.56581
1600.70850	1.51926
1598.77993	1.47579
1596.85137	1.43555
1594.92280	1.39653
1592.99424	1.35815
1591.06567	1.32282
1589.13711	1.28984
1587.20854	1.25888
1585.27998	1.23001
1583.35142	1.20302
1581.42285	1.17850
1579.49429	1.15750
1577.56572	1.13836
1575.63716	1.11519
1573.70859	1.09515
1571.78003	1.08206
1569.85146	1.06860
1567.92290	1.05451
1565.99434	1.04414
1564.06577	1.03572
1562.13721	1.02885
1560.20864	1.02421
1558.28008	1.01969
1556.35151	1.01611
1554.42295	1.01355
1552.49438	1.01090
1550.56582	1.00734
1548.63726	1.00197
1546.70869	0.99498
1544.78013	0.98602
1542.85156	0.97472
1540.92300	0.95897
1538.99443	0.93562
1537.06587	0.91914
1535.13730	0.90781
1533.20874	0.89246
1531.28018	0.87619
1529.35161	0.86434
1527.42305	0.85295
1525.49448	0.84111
1523.56592	0.83101
1521.63735	0.82137
1519.70879	0.81190
1517.78022	0.80394
1515.85166	0.79442
1513.92310	0.78426
1511.99453	0.77559
1510.06597	0.76779
1508.13740	0.75988
1506.20884	0.74799
1504.28027	0.73855
1502.35171	0.73367
1500.42314	0.72926
1498.49458	0.72412
1496.56602	0.71788
1494.63745	0.71182
1492.70889	0.70710
1490.78032	0.70291
1488.85176	0.69840
1486.92319	0.69434
1484.99463	0.69098
1483.06606	0.68831
1481.13750	0.68621
1479.20894	0.68453
1477.28037	0.68337
1475.35181	0.68268
1473.42324	0.68231
1471.49468	0.68142
1469.56611	0.67957
1467.63755	0.67742
1465.70898	0.67538
1463.78042	0.67358
1461.85186	0.67229
1459.92329	0.67147
1457.99473	0.67054
1456.06616	0.66859
1454.13760	0.66601
1452.20903	0.66350
1450.28047	0.66104
1448.35190	0.65859
1446.42334	0.65577
1444.49478	0.65290
1442.56621	0.65043
1440.63765	0.64816
1438.70908	0.64579
1436.78052	0.64267
1434.85195	0.63921
1432.92339	0.63662
1430.99482	0.63474
1429.06626	0.63325
1427.13770	0.63218
1425.20913	0.63165
1423.28057	0.63145
1421.35200	0.63111
1419.42344	0.63047
1417.49487	0.62957
1415.56631	0.62850
1413.63774	0.62766
1411.70918	0.62719
1409.78062	0.62713
1407.85205	0.62740
1405.92349	0.62790
1403.99492	0.62828
1402.06636	0.62810
1400.13779	0.62737
1398.20923	0.62598
1396.28066	0.62390
1394.35210	0.62116
1392.42354	0.61807
1390.49497	0.61504
1388.56641	0.61195
1386.63784	0.60845
1384.70928	0.60482
1382.78071	0.60141
1380.85215	0.59818
1378.92358	0.59534
1376.99502	0.59309
1375.06646	0.59145
1373.13789	0.59032
1371.20933	0.58948
1369.28076	0.58862
1367.35220	0.58750
1365.42363	0.58618
1363.49507	0.58483
1361.56650	0.58344
1359.63794	0.58202
1357.70937	0.58069
1355.78081	0.57945
1353.85225	0.57837
1351.92368	0.57754
1349.99512	0.57677
1348.06655	0.57583
1346.13799	0.57482
1344.20942	0.57399
1342.28086	0.57335
1340.35229	0.57282
1338.42373	0.57213
1336.49517	0.57115
1334.56660	0.57024
1332.63804	0.56970
1330.70947	0.56947
1328.78091	0.56952
1326.85234	0.56976
1324.92378	0.56996
1322.99521	0.57003
1321.06665	0.57009
1319.13809	0.57013
1317.20952	0.57003
1315.28096	0.56970
1313.35239	0.56910
1311.42383	0.56839
1309.49526	0.56779
1307.56670	0.56732
1305.63813	0.56676
1303.70957	0.56601
1301.78101	0.56535
1299.85244	0.56482
1297.92388	0.56408
1295.99531	0.56302
1294.06675	0.56198
1292.13818	0.56103
1290.20962	0.56005
1288.28105	0.55904
1286.35249	0.55803
1284.42393	0.55715
1282.49536	0.55638
1280.56680	0.55550
1278.63823	0.55433
1276.70967	0.55290
1274.78110	0.55167
1272.85254	0.55098
1270.92397	0.55057
1268.99541	0.55009
1267.06685	0.54945
1265.13828	0.54868
1263.20972	0.54787
1261.28115	0.54712
1259.35259	0.54662
1257.42402	0.54621
1255.49546	0.54567
1253.56689	0.54534
1251.63833	0.54535
1249.70977	0.54534
1247.78120	0.54515
1245.85264	0.54490
1243.92407	0.54451
1241.99551	0.54377
1240.06694	0.54262
1238.13838	0.54128
1236.20981	0.53983
1234.28125	0.53812
1232.35269	0.53628
1230.42412	0.53461
1228.49556	0.53313
1226.56699	0.53166
1224.63843	0.53022
1222.70986	0.52893
1220.78130	0.52778
1218.85273	0.52665
1216.92417	0.52555
1214.99561	0.52452
1213.06704	0.52368
1211.13848	0.52301
1209.20991	0.52241
1207.28135	0.52178
1205.35278	0.52106
1203.42422	0.52025
1201.49565	0.51934
1199.56709	0.51845
1197.63853	0.51779
1195.70996	0.51740
1193.78140	0.51696
1191.85283	0.51631
1189.92427	0.51570
1187.99570	0.51530
1186.06714	0.51520
1184.13857	0.51546
1182.21001	0.51587
1180.28145	0.51631
1178.35288	0.51704
1176.42432	0.51820
1174.49575	0.51943
1172.56719	0.52030
1170.63862	0.52081
1168.71006	0.52123
1166.78149	0.52163
1164.85293	0.52197
1162.92437	0.52234
1160.99580	0.52268
1159.06724	0.52281
1157.13867	0.52253
1155.21011	0.52179
1153.28154	0.52057
1151.35298	0.51893
1149.42441	0.51691
1147.49585	0.51435
1145.56729	0.51139
1143.63872	0.50861
1141.71016	0.50607
1139.78159	0.50365
1137.85303	0.50167
1135.92446	0.50036
1133.99590	0.49940
1132.06733	0.49831
1130.13877	0.49715
1128.21021	0.49614
1126.28164	0.49511
1124.35308	0.49411
1122.42451	0.49354
1120.49595	0.49340
1118.56738	0.49346
1116.63882	0.49371
1114.71025	0.49424
1112.78169	0.49500
1110.85312	0.49587
1108.92456	0.49680
1106.99600	0.49783
1105.06743	0.49875
1103.13887	0.49951
1101.21030	0.50063
1099.28174	0.50240
1097.35317	0.50452
1095.42461	0.50716
1093.49604	0.51081
1091.56748	0.51555
1089.63892	0.52123
1087.71035	0.52765
1085.78179	0.53485
1083.85322	0.54270
1081.92466	0.55007
1079.99609	0.55578
1078.06753	0.55916
1076.13896	0.55965
1074.21040	0.55715
1072.28184	0.55221
1070.35327	0.54563
1068.42471	0.53824
1066.49614	0.53106
1064.56758	0.52468
1062.63901	0.51899
1060.71045	0.51400
1058.78188	0.50992
1056.85332	0.50638
1054.92476	0.50303
1052.99619	0.50000
1051.06763	0.49745
1049.13906	0.49541
1047.21050	0.49392
1045.28193	0.49284
1043.35337	0.49208
1041.42480	0.49180
1039.49624	0.49186
1037.56768	0.49196
1035.63911	0.49178
1033.71055	0.49131
1031.78198	0.49077
1029.85342	0.49013
1027.92485	0.48922
1025.99629	0.48826
1024.06772	0.48757
1022.13916	0.48706
1020.21060	0.48673
1018.28203	0.48685
1016.35347	0.48723
1014.42490	0.48750
1012.49634	0.48782
1010.56777	0.48830
1008.63921	0.48865
1006.71064	0.48924
1004.78208	0.49063
1002.85352	0.49260
1000.92495	0.49497
998.99639	0.49814
997.06782	0.50222
995.13926	0.50673
993.21069	0.51090
991.28213	0.51417
989.35356	0.51623
987.42500	0.51711
985.49644	0.51739
983.56787	0.51763
981.63931	0.51806
979.71074	0.51897
977.78218	0.52053
975.85361	0.52272
973.92505	0.52547
971.99648	0.52863
970.06792	0.53206
968.13936	0.53585
966.21079	0.54002
964.28223	0.54452
962.35366	0.54929
960.42510	0.55424
958.49653	0.55948
956.56797	0.56518
954.63940	0.57116
952.71084	0.57725
950.78228	0.58364
948.85371	0.59030
946.92515	0.59673
944.99658	0.60289
943.06802	0.60900
941.13945	0.61504
939.21089	0.62083
937.28232	0.62650
935.35376	0.63274
933.42520	0.63887
931.49663	0.64370
929.56807	0.64841
927.63950	0.65456
925.71094	0.66147
923.78237	0.66831
921.85381	0.67501
919.92524	0.68164
917.99668	0.68909
916.06812	0.69749
914.13955	0.70530
912.21099	0.71184
910.28242	0.71883
908.35386	0.72791
906.42529	0.73736
904.49673	0.74555
902.56816	0.75383
900.63960	0.76263
898.71104	0.77130
896.78247	0.78136
894.85391	0.79358
892.92534	0.80461
890.99678	0.81245
889.06821	0.82007
887.13965	0.82976
885.21108	0.84118
883.28252	0.85297
881.35396	0.86470
879.42539	0.87780
877.49683	0.89096
875.56826	0.90237
873.63970	0.91388
871.71113	0.92654
869.78257	0.93781
867.85400	0.94699
865.92544	0.95704
863.99687	0.96922
862.06831	0.98245
860.13975	0.99460
858.21118	1.00521
856.28262	1.01633
854.35405	1.02918
852.42549	1.04344
850.49692	1.05619
848.56836	1.06628
846.63979	1.07691
844.71123	1.09008
842.78267	1.10438
840.85410	1.11545
838.92554	1.12103
836.99697	1.12737
835.06841	1.13963
833.13984	1.15333
831.21128	1.16524
829.28271	1.17706
827.35415	1.18759
825.42559	1.19597
823.49702	1.20741
821.56846	1.22142
819.63989	1.22945
817.71133	1.23393
815.78276	1.24512
813.85420	1.26206
811.92563	1.27582
809.99707	1.28747
808.06851	1.30004
806.13994	1.30812
804.21138	1.31784
802.28281	1.33486
800.35425	1.34416
798.42568	1.34143
796.49712	1.32852
794.56855	1.30926
792.63999	1.31257
790.71143	1.34601
788.78286	1.38223
786.85430	1.39900
784.92573	1.41502
782.99717	1.47935
781.06860	1.56284
779.14004	1.52264
777.21147	1.42793
775.28291	1.37630
773.35435	1.32415
771.42578	1.27350
769.49722	1.28853
767.56865	1.39826
765.64009	1.48730
763.71152	1.37808
761.78296	1.23129
759.85439	1.17074
757.92583	1.20124
755.99727	1.21005
754.06870	1.13981
752.14014	1.13751
750.21157	1.31105
748.28301	1.93289
746.35444	4.47813
744.42588	1.43862
742.49731	1.15817
740.56875	1.09999
738.64019	1.07667
736.71162	1.05604
734.78306	1.18477
732.85449	1.45942
730.92593	1.05776
728.99736	0.62482
727.06880	0.26168
725.14023	-0.73878
723.21167	4.33927
721.28311	4.32770
719.35454	4.31613
717.42598	-0.50940
715.49741	-0.05363
713.56885	0.21700
711.64028	0.26474
709.71172	0.28117
707.78315	0.25678
705.85459	0.25602
703.92603	0.36061
701.99746	0.52816
700.06890	0.50884
698.14033	0.41412
696.21177	0.48656
694.28320	0.82102
692.35464	0.84639
690.42607	0.53383
688.49751	0.49481
686.56895	0.67438
684.64038	0.65009
682.71182	0.48403
680.78325	0.40894
678.85469	0.37069
676.92612	0.30751
674.99756	0.26900
673.06899	0.30234
671.14043	0.41928
669.21187	0.58264
667.28330	0.73288
665.35474	0.68101
663.42617	0.57147
661.49761	0.64893
659.56904	0.84997
657.64048	0.75077
655.71191	0.64597
653.78335	0.65789
651.85479	0.65406
649.92622	0.64417
647.99766	0.64716
646.06909	0.51587
644.14053	0.45319
642.21196	0.60019
640.28340	1.14618
638.35483	1.64472
636.42627	0.70659
634.49771	0.45242
632.56914	0.41965
630.64058	0.55797
628.71201	0.69243
626.78345	0.55041
624.85488	0.40737
622.92632	0.35554
620.99775	0.36180
619.06919	0.42989
617.14062	0.62755
615.21206	0.76081
613.28350	0.52957
611.35493	0.45473
609.42637	0.49331
607.49780	0.47664
605.56924	0.51115
603.64067	0.56526
601.71211	0.48032
599.78354	0.45278
597.85498	0.50669
595.92642	0.46181
593.99785	0.42100
592.06929	0.50687
590.14072	0.68315
588.21216	0.85544
586.28359	0.59915
584.35503	0.41975
582.42646	0.42186
580.49790	0.55332
578.56934	0.62206
576.64077	0.60682
574.71221	0.77172
572.78364	1.24160
570.85508	0.63681
568.92651	0.39414
566.99795	0.38731
565.06938	0.57565
563.14082	0.62803
561.21226	0.42723
559.28369	0.39228
557.35513	0.44919
555.42656	0.43490
553.49800	0.38198
551.56943	0.37642
549.64087	0.38850
547.71230	0.33149
545.78374	0.28134
543.85518	0.29971
541.92661	0.39928
539.99805	0.62743
538.06948	0.68195
536.14092	0.45614
534.21235	0.33194
532.28379	0.30334
530.35522	0.36266
528.42666	0.44484
526.49810	0.45752
524.56953	0.52780
522.64097	0.62762
520.71240	0.50645
518.78384	0.41987
516.85527	0.37205
514.92671	0.33243
512.99814	0.33721
511.06958	0.38674
509.14102	0.40739
507.21245	0.36841
505.28389	0.33996
503.35532	0.34164
501.42676	0.35101
499.49819	0.34678
