3997.91411	0.07683
3995.98555	0.07685
3994.05698	0.07648
3992.12842	0.07668
3990.19985	0.07726
3988.27129	0.07761
3986.34272	0.07764
3984.41416	0.07767
3982.48560	0.07784
3980.55703	0.07807
3978.62847	0.07825
3976.69990	0.07854
3974.77134	0.07899
3972.84277	0.07937
3970.91421	0.07955
3968.98564	0.07951
3967.05708	0.07940
3965.12852	0.07931
3963.19995	0.07937
3961.27139	0.07969
3959.34282	0.07982
3957.41426	0.07944
3955.48569	0.07921
3953.55713	0.07960
3951.62856	0.08038
3949.70000	0.08131
3947.77144	0.08170
3945.84287	0.08148
3943.91431	0.08145
3941.98574	0.08139
3940.05718	0.08075
3938.12861	0.08002
3936.20005	0.07996
3934.27148	0.08078
3932.34292	0.08187
3930.41436	0.08213
3928.48579	0.08149
3926.55723	0.08090
3924.62866	0.08078
3922.70010	0.08057
3920.77153	0.08013
3918.84297	0.08016
3916.91440	0.08081
3914.98584	0.08095
3913.05728	0.08011
3911.12871	0.07954
3909.20015	0.07973
3907.27158	0.08025
3905.34302	0.08112
3903.41445	0.08208
3901.48589	0.08232
3899.55732	0.08209
3897.62876	0.08182
3895.70020	0.08121
3893.77163	0.08065
3891.84307	0.08079
3889.91450	0.08101
3887.98594	0.08039
3886.05737	0.08013
3884.12881	0.08092
3882.20024	0.08172
3880.27168	0.08207
3878.34312	0.08161
3876.41455	0.08086
3874.48599	0.08114
3872.55742	0.08213
3870.62886	0.08303
3868.70029	0.08391
3866.77173	0.08418
3864.84316	0.08457
3862.91460	0.08520
3860.98604	0.08465
3859.05747	0.08399
3857.12891	0.08434
3855.20034	0.08536
3853.27178	0.08741
3851.34321	0.08895
3849.41465	0.08800
3847.48608	0.08695
3845.55752	0.08671
3843.62896	0.08757
3841.70039	0.08921
3839.77183	0.09053
3837.84326	0.09145
3835.91470	0.09200
3833.98613	0.09202
3832.05757	0.09197
3830.12900	0.09225
3828.20044	0.09302
3826.27187	0.09412
3824.34331	0.09485
3822.41475	0.09576
3820.48618	0.09801
3818.55762	0.09920
3816.62905	0.09877
3814.70049	0.09903
3812.77192	0.09941
3810.84336	0.09949
3808.91479	0.10019
3806.98623	0.10215
3805.05767	0.10435
3803.12910	0.10538
3801.20054	0.10635
3799.27197	0.10743
3797.34341	0.10799
3795.41484	0.10902
3793.48628	0.11002
3791.55771	0.11014
3789.62915	0.11031
3787.70059	0.11162
3785.77202	0.11391
3783.84346	0.11608
3781.91489	0.11748
3779.98633	0.11886
3778.05776	0.12069
3776.12920	0.12218
3774.20063	0.12306
3772.27207	0.12404
3770.34351	0.12600
3768.41494	0.12888
3766.48638	0.13140
3764.55781	0.13335
3762.62925	0.13495
3760.70068	0.13685
3758.77212	0.13976
3756.84355	0.14287
3754.91499	0.14517
3752.98643	0.14770
3751.05786	0.15195
3749.12930	0.15649
3747.20073	0.15871
3745.27217	0.16072
3743.34360	0.16427
3741.41504	0.16735
3739.48647	0.16941
3737.55791	0.17265
3735.62935	0.17837
3733.70078	0.18499
3731.77222	0.18915
3729.84365	0.19143
3727.91509	0.19419
3725.98652	0.19909
3724.05796	0.20601
3722.12939	0.21343
3720.20083	0.22061
3718.27227	0.22711
3716.34370	0.23357
3714.41514	0.24088
3712.48657	0.25046
3710.55801	0.26411
3708.62944	0.27842
3706.70088	0.28944
3704.77231	0.29975
3702.84375	0.31222
3700.91519	0.32845
3698.98662	0.34607
3697.05806	0.36305
3695.12949	0.38153
3693.20093	0.40130
3691.27236	0.42269
3689.34380	0.45056
3687.41523	0.48500
3685.48667	0.51503
3683.55811	0.54049
3681.62954	0.56759
3679.70098	0.59847
3677.77241	0.63122
3675.84385	0.66951
3673.91528	0.72086
3671.98672	0.76376
3670.05815	0.80243
3668.12959	0.85492
3666.20103	0.90279
3664.27246	0.94303
3662.34390	0.98615
3660.41533	1.03230
3658.48677	1.07745
3656.55820	1.12577
3654.62964	1.18018
3652.70107	1.22616
3650.77251	1.26591
3648.84395	1.32010
3646.91538	1.38750
3644.98682	1.43806
3643.05825	1.47651
3641.12969	1.51563
3639.20112	1.55884
3637.27256	1.60203
3635.34399	1.64391
3633.41543	1.68647
3631.48687	1.72703
3629.55830	1.76786
3627.62974	1.82096
3625.70117	1.87146
3623.77261	1.90584
3621.84404	1.93766
3619.91548	1.97348
3617.98691	2.01758
3616.05835	2.06129
3614.12979	2.09928
3612.20122	2.14030
3610.27266	2.18114
3608.34409	2.22111
3606.41553	2.26244
3604.48696	2.29960
3602.55840	2.33315
3600.62983	2.37061
3598.70127	2.41202
3596.77271	2.45301
3594.84414	2.49426
3592.91558	2.53553
3590.98701	2.57325
3589.05845	2.60800
3587.12988	2.65003
3585.20132	2.69884
3583.27275	2.74273
3581.34419	2.78310
3579.41562	2.82407
3577.48706	2.86529
3575.55850	2.90653
3573.62993	2.94961
3571.70137	2.99188
3569.77280	3.03219
3567.84424	3.07715
3565.91567	3.13389
3563.98711	3.18466
3562.05854	3.22209
3560.12998	3.26109
3558.20142	3.30391
3556.27285	3.34748
3554.34429	3.39224
3552.41572	3.44015
3550.48716	3.48902
3548.55859	3.53652
3546.63003	3.58368
3544.70146	3.63202
3542.77290	3.67856
3540.84434	3.72193
3538.91577	3.76648
3536.98721	3.81280
3535.05864	3.86201
3533.13008	3.91326
3531.20151	3.96196
3529.27295	4.00793
3527.34438	4.05667
3525.41582	4.10708
3523.48726	4.15572
3521.55869	4.20664
3519.63013	4.25929
3517.70156	4.30886
3515.77300	4.35307
3513.84443	4.39510
3511.91587	4.43945
3509.98730	4.48675
3508.05874	4.53571
3506.13018	4.58369
3504.20161	4.62988
3502.27305	4.68032
3500.34448	4.73626
3498.41592	4.78775
3496.48735	4.83389
3494.55879	4.88116
3492.63022	4.93030
3490.70166	4.98044
3488.77310	5.03091
3486.84453	5.08110
3484.91597	5.13356
3482.98740	5.18478
3481.05884	5.22960
3479.13027	5.27238
3477.20171	5.32245
3475.27314	5.37810
3473.34458	5.42758
3471.41602	5.47130
3469.48745	5.51930
3467.55889	5.57100
3465.63032	5.62133
3463.70176	5.67830
3461.77319	5.73933
3459.84463	5.78587
3457.91606	5.82198
3455.98750	5.86681
3454.05894	5.91649
3452.13037	5.96366
3450.20181	6.01633
3448.27324	6.08010
3446.34468	6.15575
3444.41611	6.21996
3442.48755	6.26152
3440.55898	6.30219
3438.63042	6.34923
3436.70186	6.39109
3434.77329	6.43463
3432.84473	6.48958
3430.91616	6.53986
3428.98760	6.58902
3427.05903	6.65106
3425.13047	6.73009
3423.20190	6.81304
3421.27334	6.88079
3419.34478	6.92287
3417.41621	6.93282
3415.48765	6.93614
3413.55908	6.96065
3411.63052	7.00922
3409.70195	7.06681
3407.77339	7.11799
3405.84482	7.17396
3403.91626	7.24897
3401.98770	7.28783
3400.05913	7.29223
3398.13057	7.33658
3396.20200	7.40222
3394.27344	7.44734
3392.34487	7.47307
3390.41631	7.50442
3388.48774	7.55672
3386.55918	7.62022
3384.63062	7.66081
3382.70205	7.68506
3380.77349	7.74799
3378.84492	7.83233
3376.91636	7.85474
3374.98779	7.82971
3373.05923	7.86627
3371.13066	7.96889
3369.20210	8.05379
3367.27354	8.06712
3365.34497	8.06410
3363.41641	8.04814
3361.48784	7.98560
3359.55928	7.97086
3357.63071	8.03305
3355.70215	8.09719
3353.77358	8.12502
3351.84502	8.14309
3349.91646	8.14721
3347.98789	8.17320
3346.05933	8.24100
3344.13076	8.29785
3342.20220	8.28697
3340.27363	8.22011
3338.34507	8.23205
3336.41650	8.30698
3334.48794	8.33332
3332.55937	8.31017
3330.63081	8.30149
3328.70225	8.33747
3326.77368	8.40272
3324.84512	8.46789
3322.91655	8.45502
3320.98799	8.35523
3319.05942	8.24895
3317.13086	8.19397
3315.20229	8.18054
3313.27373	8.21894
3311.34517	8.31647
3309.41660	8.44746
3307.48804	8.53213
3305.55947	8.45013
3303.63091	8.32044
3301.70234	8.28465
3299.77378	8.34981
3297.84521	8.47132
3295.91665	8.57425
3293.98809	8.62561
3292.05952	8.56500
3290.13096	8.36668
3288.20239	8.29214
3286.27383	8.45859
3284.34526	8.55310
3282.41670	8.42538
3280.48813	8.37319
3278.55957	8.53999
3276.63101	8.69925
3274.70244	8.59365
3272.77388	8.40238
3270.84531	8.30618
3268.91675	8.34904
3266.98818	8.46143
3265.05962	8.48333
3263.13105	8.44401
3261.20249	8.42622
3259.27393	8.37169
3257.34536	8.35456
3255.41680	8.46595
3253.48823	8.58568
3251.55967	8.58089
3249.63110	8.51945
3247.70254	8.49810
3245.77397	8.52264
3243.84541	8.58821
3241.91685	8.62927
3239.98828	8.58802
3238.05972	8.55219
3236.13115	8.56883
3234.20259	8.55744
3232.27402	8.51031
3230.34546	8.48417
3228.41689	8.45035
3226.48833	8.38901
3224.55977	8.38012
3222.63120	8.47799
3220.70264	8.56604
3218.77407	8.52846
3216.84551	8.42031
3214.91694	8.34509
3212.98838	8.29097
3211.05981	8.18255
3209.13125	8.13551
3207.20269	8.24421
3205.27412	8.40488
3203.34556	8.45385
3201.41699	8.34555
3199.48843	8.21106
3197.55986	8.11585
3195.63130	8.02301
3193.70273	7.91792
3191.77417	7.81983
3189.84561	7.77983
3187.91704	7.78746
3185.98848	7.76010
3184.05991	7.65298
3182.13135	7.51277
3180.20278	7.39962
3178.27422	7.32497
3176.34565	7.28989
3174.41709	7.25080
3172.48853	7.20604
3170.55996	7.20935
3168.63140	7.19461
3166.70283	7.10238
3164.77427	7.01635
3162.84570	6.98064
3160.91714	6.94316
3158.98857	6.87116
3157.06001	6.79466
3155.13145	6.73134
3153.20288	6.66420
3151.27432	6.59986
3149.34575	6.54800
3147.41719	6.48707
3145.48862	6.39269
3143.56006	6.27809
3141.63149	6.18069
3139.70293	6.09733
3137.77437	6.02225
3135.84580	5.96840
3133.91724	5.91778
3131.98867	5.84524
3130.06011	5.76109
3128.13154	5.68694
3126.20298	5.62006
3124.27441	5.54819
3122.34585	5.46861
3120.41729	5.38859
3118.48872	5.31350
3116.56016	5.24233
3114.63159	5.17524
3112.70303	5.10897
3110.77446	5.03630
3108.84590	4.95719
3106.91733	4.87868
3104.98877	4.80571
3103.06021	4.73877
3101.13164	4.67237
3099.20308	4.60495
3097.27451	4.53805
3095.34595	4.46761
3093.41738	4.39586
3091.48882	4.32804
3089.56025	4.26085
3087.63169	4.19145
3085.70312	4.12434
3083.77456	4.06051
3081.84600	3.99597
3079.91743	3.93096
3077.98887	3.86853
3076.06030	3.80917
3074.13174	3.75112
3072.20317	3.69193
3070.27461	3.62916
3068.34604	3.56436
3066.41748	3.50123
3064.48892	3.44188
3062.56035	3.38635
3060.63179	3.33274
3058.70322	3.27908
3056.77466	3.22422
3054.84609	3.16973
3052.91753	3.11655
3050.98896	3.06301
3049.06040	3.01013
3047.13184	2.95893
3045.20327	2.90781
3043.27471	2.85707
3041.34614	2.80813
3039.41758	2.76030
3037.48901	2.71236
3035.56045	2.66443
3033.63188	2.61687
3031.70332	2.57024
3029.77476	2.52546
3027.84619	2.48165
3025.91763	2.43761
3023.98906	2.39452
3022.06050	2.35292
3020.13193	2.31102
3018.20337	2.26906
3016.27480	2.22869
3014.34624	2.18946
3012.41768	2.15064
3010.48911	2.11231
3008.56055	2.07434
3006.63198	2.03711
3004.70342	2.00107
3002.77485	1.96563
3000.84629	1.93046
2998.91772	1.89597
2996.98916	1.86166
2995.06060	1.82707
2993.13203	1.79321
2991.20347	1.76090
2989.27490	1.72978
2987.34634	1.69891
2985.41777	1.66768
2983.48921	1.63664
2981.56064	1.60652
2979.63208	1.57741
2977.70352	1.54908
2975.77495	1.52090
2973.84639	1.49260
2971.91782	1.46449
2969.98926	1.43685
2968.06069	1.40999
2966.13213	1.38395
2964.20356	1.35835
2962.27500	1.33318
2960.34644	1.30846
2958.41787	1.28421
2956.48931	1.26057
2954.56074	1.23774
2952.63218	1.21584
2950.70361	1.19424
2948.77505	1.17246
2946.84648	1.15086
2944.91792	1.12953
2942.98936	1.10845
2941.06079	1.08787
2939.13223	1.06767
2937.20366	1.04761
2935.27510	1.02792
2933.34653	1.00861
2931.41797	0.98958
2929.48940	0.97091
2927.56084	0.95278
2925.63228	0.93528
2923.70371	0.91813
2921.77515	0.90183
2919.84658	0.88670
2917.91802	0.87133
2915.98945	0.85530
2914.06089	0.83987
2912.13232	0.82540
2910.20376	0.81150
2908.27520	0.79768
2906.34663	0.78371
2904.41807	0.76995
2902.48950	0.75672
2900.56094	0.74400
2898.63237	0.73157
2896.70381	0.71915
2894.77524	0.70700
2892.84668	0.69533
2890.91812	0.68369
2888.98955	0.67199
2887.06099	0.66064
2885.13242	0.64991
2883.20386	0.63944
2881.27529	0.62862
2879.34673	0.61762
2877.41816	0.60691
2875.48960	0.59633
2873.56104	0.58599
2871.63247	0.57614
2869.70391	0.56642
2867.77534	0.55647
2865.84678	0.54632
2863.91821	0.53649
2861.98965	0.52736
2860.06108	0.51816
2858.13252	0.50865
2856.20396	0.49964
2854.27539	0.49122
2852.34683	0.48309
2850.41826	0.47543
2848.48970	0.46824
2846.56113	0.46122
2844.63257	0.45452
2842.70400	0.44815
2840.77544	0.44168
2838.84687	0.43506
2836.91831	0.42888
2834.98975	0.42335
2833.06118	0.41791
2831.13262	0.41207
2829.20405	0.40598
2827.27549	0.39995
2825.34692	0.39410
2823.41836	0.38835
2821.48979	0.38255
2819.56123	0.37678
2817.63267	0.37118
2815.70410	0.36582
2813.77554	0.36053
2811.84697	0.35525
2809.91841	0.35033
2807.98984	0.34558
2806.06128	0.34042
2804.13271	0.33502
2802.20415	0.33005
2800.27559	0.32561
2798.34702	0.32126
2796.41846	0.31677
2794.48989	0.31238
2792.56133	0.30807
2790.63276	0.30372
2788.70420	0.29948
2786.77563	0.29529
2784.84707	0.29118
2782.91851	0.28735
2780.98994	0.28374
2779.06138	0.28014
2777.13281	0.27655
2775.20425	0.27311
2773.27568	0.26965
2771.34712	0.26623
2769.41855	0.26297
2767.48999	0.25966
2765.56143	0.25627
2763.63286	0.25288
2761.70430	0.24956
2759.77573	0.24638
2757.84717	0.24338
2755.91860	0.24072
2753.99004	0.23833
2752.06147	0.23591
2750.13291	0.23320
2748.20435	0.23034
2746.27578	0.22759
2744.34722	0.22509
2742.41865	0.22288
2740.49009	0.22081
2738.56152	0.21858
2736.63296	0.21617
2734.70439	0.21365
2732.77583	0.21127
2730.84727	0.20933
2728.91870	0.20764
2726.99014	0.20579
2725.06157	0.20362
2723.13301	0.20126
2721.20444	0.19905
2719.27588	0.19724
2717.34731	0.19561
2715.41875	0.19389
2713.49019	0.19213
2711.56162	0.19031
2709.63306	0.18853
2707.70449	0.18697
2705.77593	0.18554
2703.84736	0.18413
2701.91880	0.18281
2699.99023	0.18146
2698.06167	0.17996
2696.13311	0.17845
2694.20454	0.17704
2692.27598	0.17575
2690.34741	0.17462
2688.41885	0.17356
2686.49028	0.17240
2684.56172	0.17124
2682.63315	0.17015
2680.70459	0.16902
2678.77603	0.16782
2676.84746	0.16667
2674.91890	0.16562
2672.99033	0.16453
2671.06177	0.16347
2669.13320	0.16260
2667.20464	0.16184
2665.27607	0.16099
2663.34751	0.16008
2661.41895	0.15931
2659.49038	0.15869
2657.56182	0.15803
2655.63325	0.15726
2653.70469	0.15645
2651.77612	0.15577
2649.84756	0.15528
2647.91899	0.15476
2645.99043	0.15408
2644.06187	0.15347
2642.13330	0.15299
2640.20474	0.15261
2638.27617	0.15227
2636.34761	0.15185
2634.41904	0.15140
2632.49048	0.15108
2630.56191	0.15075
2628.63335	0.15038
2626.70479	0.15009
2624.77622	0.14986
2622.84766	0.14966
2620.91909	0.14943
2618.99053	0.14912
2617.06196	0.14893
2615.13340	0.14900
2613.20483	0.14912
2611.27627	0.14905
2609.34771	0.14888
2607.41914	0.14879
2605.49058	0.14889
2603.56201	0.14902
2601.63345	0.14914
2599.70488	0.14939
2597.77632	0.14961
2595.84775	0.14970
2593.91919	0.14972
2591.99062	0.14971
2590.06206	0.14979
2588.13350	0.15010
2586.20493	0.15046
2584.27637	0.15065
2582.34780	0.15079
2580.41924	0.15101
2578.49067	0.15133
2576.56211	0.15179
2574.63354	0.15223
2572.70498	0.15255
2570.77642	0.15291
2568.84785	0.15346
2566.91929	0.15409
2564.99072	0.15458
2563.06216	0.15490
2561.13359	0.15521
2559.20503	0.15558
2557.27646	0.15606
2555.34790	0.15669
2553.41934	0.15745
2551.49077	0.15828
2549.56221	0.15895
2547.63364	0.15947
2545.70508	0.16002
2543.77651	0.16070
2541.84795	0.16156
2539.91938	0.16237
2537.99082	0.16297
2536.06226	0.16359
2534.13369	0.16445
2532.20513	0.16535
2530.27656	0.16613
2528.34800	0.16676
2526.41943	0.16730
2524.49087	0.16786
2522.56230	0.16859
2520.63374	0.16946
2518.70518	0.17037
2516.77661	0.17128
2514.84805	0.17207
2512.91948	0.17279
2510.99092	0.17359
2509.06235	0.17456
2507.13379	0.17563
2505.20522	0.17657
2503.27666	0.17731
2501.34810	0.17802
2499.41953	0.17892
2497.49097	0.17990
2495.56240	0.18085
2493.63384	0.18166
2491.70527	0.18238
2489.77671	0.18322
2487.84814	0.18418
2485.91958	0.18515
2483.99102	0.18615
2482.06245	0.18721
2480.13389	0.18827
2478.20532	0.18921
2476.27676	0.19004
2474.34819	0.19081
2472.41963	0.19166
2470.49106	0.19269
2468.56250	0.19384
2466.63394	0.19498
2464.70537	0.19612
2462.77681	0.19722
2460.84824	0.19821
2458.91968	0.19909
2456.99111	0.19994
2455.06255	0.20088
2453.13398	0.20182
2451.20542	0.20270
2449.27686	0.20367
2447.34829	0.20472
2445.41973	0.20573
2443.49116	0.20678
2441.56260	0.20791
2439.63403	0.20900
2437.70547	0.20999
2435.77690	0.21090
2433.84834	0.21186
2431.91978	0.21303
2429.99121	0.21432
2428.06265	0.21546
2426.13408	0.21652
2424.20552	0.21768
2422.27695	0.21878
2420.34839	0.21978
2418.41982	0.22085
2416.49126	0.22204
2414.56270	0.22328
2412.63413	0.22447
2410.70557	0.22558
2408.77700	0.22674
2406.84844	0.22791
2404.91987	0.22912
2402.99131	0.23035
2401.06274	0.23155
2399.13418	0.23280
2397.20562	0.23406
2395.27705	0.23531
2393.34849	0.23654
2391.41992	0.23775
2389.49136	0.23895
2387.56279	0.24021
2385.63423	0.24161
2383.70566	0.24305
2381.77710	0.24442
2379.84854	0.24575
2377.91997	0.24714
2375.99141	0.24849
2374.06284	0.24978
2372.13428	0.25143
2370.20571	0.25357
2368.27715	0.25550
2366.34858	0.25701
2364.42002	0.25875
2362.49146	0.26086
2360.56289	0.26200
2358.63433	0.26196
2356.70576	0.26307
2354.77720	0.26559
2352.84863	0.26792
2350.92007	0.26931
2348.99150	0.27017
2347.06294	0.27101
2345.13437	0.27229
2343.20581	0.27419
2341.27725	0.27597
2339.34868	0.27721
2337.42012	0.27902
2335.49155	0.28137
2333.56299	0.28298
2331.63442	0.28446
2329.70586	0.28651
2327.77729	0.28858
2325.84873	0.29019
2323.92017	0.29121
2321.99160	0.29240
2320.06304	0.29435
2318.13447	0.29643
2316.20591	0.29808
2314.27734	0.29963
2312.34878	0.30148
2310.42021	0.30329
2308.49165	0.30484
2306.56309	0.30655
2304.63452	0.30842
2302.70596	0.31012
2300.77739	0.31174
2298.84883	0.31357
2296.92026	0.31563
2294.99170	0.31774
2293.06313	0.31975
2291.13457	0.32152
2289.20601	0.32320
2287.27744	0.32505
2285.34888	0.32710
2283.42031	0.32918
2281.49175	0.33120
2279.56318	0.33318
2277.63462	0.33519
2275.70605	0.33721
2273.77749	0.33919
2271.84893	0.34123
2269.92036	0.34337
2267.99180	0.34550
2266.06323	0.34753
2264.13467	0.34953
2262.20610	0.35156
2260.27754	0.35374
2258.34897	0.35608
2256.42041	0.35833
2254.49185	0.36053
2252.56328	0.36281
2250.63472	0.36503
2248.70615	0.36713
2246.77759	0.36927
2244.84902	0.37143
2242.92046	0.37352
2240.99189	0.37567
2239.06333	0.37802
2237.13477	0.38046
2235.20620	0.38265
2233.27764	0.38466
2231.34907	0.38688
2229.42051	0.38925
2227.49194	0.39142
2225.56338	0.39351
2223.63481	0.39577
2221.70625	0.39810
2219.77769	0.40027
2217.84912	0.40232
2215.92056	0.40443
2213.99199	0.40671
2212.06343	0.40901
2210.13486	0.41121
2208.20630	0.41328
2206.27773	0.41526
2204.34917	0.41732
2202.42061	0.41948
2200.49204	0.42155
2198.56348	0.42349
2196.63491	0.42534
2194.70635	0.42717
2192.77778	0.42916
2190.84922	0.43128
2188.92065	0.43331
2186.99209	0.43516
2185.06353	0.43684
2183.13496	0.43843
2181.20640	0.44012
2179.27783	0.44177
2177.34927	0.44328
2175.42070	0.44481
2173.49214	0.44640
2171.56357	0.44796
2169.63501	0.44949
2167.70645	0.45086
2165.77788	0.45203
2163.84932	0.45311
2161.92075	0.45416
2159.99219	0.45523
2158.06362	0.45625
2156.13506	0.45722
2154.20649	0.45813
2152.27793	0.45887
2150.34937	0.45952
2148.42080	0.46027
2146.49224	0.46103
2144.56367	0.46153
2142.63511	0.46189
2140.70654	0.46224
2138.77798	0.46251
2136.84941	0.46267
2134.92085	0.46281
2132.99229	0.46288
2131.06372	0.46275
2129.13516	0.46241
2127.20659	0.46195
2125.27803	0.46146
2123.34946	0.46100
2121.42090	0.46056
2119.49233	0.46001
2117.56377	0.45932
2115.63521	0.45858
2113.70664	0.45780
2111.77808	0.45689
2109.84951	0.45578
2107.92095	0.45457
2105.99238	0.45341
2104.06382	0.45225
2102.13525	0.45101
2100.20669	0.44969
2098.27812	0.44828
2096.34956	0.44684
2094.42100	0.44532
2092.49243	0.44359
2090.56387	0.44174
2088.63530	0.43998
2086.70674	0.43831
2084.77817	0.43648
2082.84961	0.43441
2080.92104	0.43232
2078.99248	0.43034
2077.06392	0.42834
2075.13535	0.42616
2073.20679	0.42388
2071.27822	0.42168
2069.34966	0.41953
2067.42109	0.41721
2065.49253	0.41476
2063.56396	0.41226
2061.63540	0.40971
2059.70684	0.40706
2057.77827	0.40440
2055.84971	0.40184
2053.92114	0.39934
2051.99258	0.39683
2050.06401	0.39426
2048.13545	0.39163
2046.20688	0.38893
2044.27832	0.38623
2042.34976	0.38356
2040.42119	0.38084
2038.49263	0.37803
2036.56406	0.37523
2034.63550	0.37247
2032.70693	0.36973
2030.77837	0.36702
2028.84980	0.36422
2026.92124	0.36131
2024.99268	0.35842
2023.06411	0.35567
2021.13555	0.35297
2019.20698	0.35028
2017.27842	0.34753
2015.34985	0.34469
2013.42129	0.34189
2011.49272	0.33914
2009.56416	0.33635
2007.63560	0.33352
2005.70703	0.33077
2003.77847	0.32815
2001.84990	0.32558
1999.92134	0.32298
1997.99277	0.32039
1996.06421	0.31788
1994.13564	0.31547
1992.20708	0.31301
1990.27852	0.31036
1988.34995	0.30768
1986.42139	0.30511
1984.49282	0.30272
1982.56426	0.30050
1980.63569	0.29824
1978.70713	0.29591
1976.77856	0.29369
1974.85000	0.29153
1972.92144	0.28932
1970.99287	0.28714
1969.06431	0.28505
1967.13574	0.28305
1965.20718	0.28104
1963.27861	0.27907
1961.35005	0.27721
1959.42148	0.27538
1957.49292	0.27355
1955.56436	0.27174
1953.63579	0.26992
1951.70723	0.26811
1949.77866	0.26644
1947.85010	0.26486
1945.92153	0.26341
1943.99297	0.26215
1942.06440	0.26089
1940.13584	0.25934
1938.20728	0.25767
1936.27871	0.25617
1934.35015	0.25488
1932.42158	0.25370
1930.49302	0.25257
1928.56445	0.25151
1926.63589	0.25045
1924.70732	0.24942
1922.77876	0.24848
1920.85020	0.24760
1918.92163	0.24676
1916.99307	0.24584
1915.06450	0.24478
1913.13594	0.24377
1911.20737	0.24311
1909.27881	0.24269
1907.35024	0.24209
1905.42168	0.24130
1903.49312	0.24061
1901.56455	0.24003
1899.63599	0.23946
1897.70742	0.23900
1895.77886	0.23870
1893.85029	0.23845
1891.92173	0.23811
1889.99316	0.23792
1888.06460	0.23776
1886.13604	0.23747
1884.20747	0.23716
1882.27891	0.23698
1880.35034	0.23693
1878.42178	0.23687
1876.49321	0.23679
1874.56465	0.23671
1872.63608	0.23682
1870.70752	0.23727
1868.77896	0.23804
1866.85039	0.23843
1864.92183	0.23823
1862.99326	0.23811
1861.06470	0.23828
1859.13613	0.23868
1857.20757	0.23906
1855.27900	0.23944
1853.35044	0.23986
1851.42187	0.24044
1849.49331	0.24114
1847.56475	0.24194
1845.63618	0.24286
1843.70762	0.24382
1841.77905	0.24446
1839.85049	0.24491
1837.92192	0.24574
1835.99336	0.24664
1834.06479	0.24748
1832.13623	0.24851
1830.20767	0.25006
1828.27910	0.25163
1826.35054	0.25270
1824.42197	0.25392
1822.49341	0.25514
1820.56484	0.25634
1818.63628	0.25767
1816.70771	0.25922
1814.77915	0.26080
1812.85059	0.26256
1810.92202	0.26467
1808.99346	0.26687
1807.06489	0.26891
1805.13633	0.27084
1803.20776	0.27304
1801.27920	0.27562
1799.35063	0.27858
1797.42207	0.28131
1795.49351	0.28384
1793.56494	0.28661
1791.63638	0.29007
1789.70781	0.29340
1787.77925	0.29592
1785.85068	0.29899
1783.92212	0.30276
1781.99355	0.30685
1780.06499	0.31111
1778.13643	0.31539
1776.20786	0.31942
1774.27930	0.32395
1772.35073	0.33021
1770.42217	0.33672
1768.49360	0.34186
1766.56504	0.34673
1764.63647	0.35190
1762.70791	0.35779
1760.77935	0.36533
1758.85078	0.37246
1756.92222	0.37965
1754.99365	0.38745
1753.06509	0.39458
1751.13652	0.40313
1749.20796	0.41393
1747.27939	0.42460
1745.35083	0.43396
1743.42227	0.44375
1741.49370	0.45451
1739.56514	0.46715
1737.63657	0.47979
1735.70801	0.49093
1733.77944	0.50763
1731.85088	0.52734
1729.92231	0.54274
1727.99375	0.55834
1726.06519	0.57531
1724.13662	0.59400
1722.20806	0.61412
1720.27949	0.63259
1718.35093	0.65421
1716.42236	0.68636
1714.49380	0.71694
1712.56523	0.74150
1710.63667	0.76536
1708.70811	0.79115
1706.77954	0.82044
1704.85098	0.85524
1702.92241	0.88628
1700.99385	0.91681
1699.06528	0.96164
1697.13672	1.00261
1695.20815	1.04438
1693.27959	1.08464
1691.35103	1.11699
1689.42246	1.15428
1687.49390	1.19311
1685.56533	1.23014
1683.63677	1.28735
1681.70820	1.34631
1679.77964	1.38374
1677.85107	1.41943
1675.92251	1.46070
1673.99395	1.51140
1672.06538	1.55570
1670.13682	1.59875
1668.20825	1.65407
1666.27969	1.69812
1664.35112	1.73475
1662.42256	1.77973
1660.49399	1.82919
1658.56543	1.86701
1656.63687	1.89779
1654.70830	1.92789
1652.77974	1.98028
1650.85117	2.03222
1648.92261	2.05303
1646.99404	2.08034
1645.06548	2.11187
1643.13691	2.13275
1641.20835	2.14610
1639.27979	2.15831
1637.35122	2.16829
1635.42266	2.17436
1633.49409	2.17096
1631.56553	2.15920
1629.63696	2.14440
1627.70840	2.12077
1625.77983	2.09407
1623.85127	2.06043
1621.92271	2.01640
1619.99414	1.97548
1618.06558	1.93545
1616.13701	1.87797
1614.20845	1.81891
1612.27988	1.77425
1610.35132	1.72786
1608.42275	1.67717
1606.49419	1.62630
1604.56562	1.57904
1602.63706	1.53354
1600.70850	1.48867
1598.77993	1.44689
1596.85137	1.40714
1594.92280	1.36813
1592.99424	1.33020
1591.06567	1.29496
1589.13711	1.26134
1587.20854	1.22939
1585.27998	1.19915
1583.35142	1.17029
1581.42285	1.14352
1579.49429	1.12044
1577.56572	1.09944
1575.63716	1.07289
1573.70859	1.04871
1571.78003	1.03264
1569.85146	1.01500
1567.92290	0.99423
1565.99434	0.97732
1564.06577	0.96283
1562.13721	0.95083
1560.20864	0.94078
1558.28008	0.92310
1556.35151	0.90623
1554.42295	0.89534
1552.49438	0.88444
1550.56582	0.87398
1548.63726	0.86375
1546.70869	0.85495
1544.78013	0.84717
1542.85156	0.83913
1540.92300	0.82920
1538.99443	0.81501
1537.06587	0.80508
1535.13730	0.79896
1533.20874	0.79123
1531.28018	0.78255
1529.35161	0.77613
1527.42305	0.77037
1525.49448	0.76425
1523.56592	0.75856
1521.63735	0.75262
1519.70879	0.74581
1517.78022	0.73996
1515.85166	0.73408
1513.92310	0.72833
1511.99453	0.72379
1510.06597	0.72004
1508.13740	0.71682
1506.20884	0.71140
1504.28027	0.70513
1502.35171	0.70118
1500.42314	0.69814
1498.49458	0.69515
1496.56602	0.69157
1494.63745	0.68791
1492.70889	0.68516
1490.78032	0.68311
1488.85176	0.68061
1486.92319	0.67741
1484.99463	0.67449
1483.06606	0.67205
1481.13750	0.66987
1479.20894	0.66794
1477.28037	0.66642
1475.35181	0.66513
1473.42324	0.66374
1471.49468	0.66134
1469.56611	0.65820
1467.63755	0.65538
1465.70898	0.65306
1463.78042	0.65095
1461.85186	0.64898
1459.92329	0.64737
1457.99473	0.64568
1456.06616	0.64281
1454.13760	0.63976
1452.20903	0.63734
1450.28047	0.63506
1448.35190	0.63289
1446.42334	0.63069
1444.49478	0.62845
1442.56621	0.62638
1440.63765	0.62458
1438.70908	0.62309
1436.78052	0.62147
1434.85195	0.61942
1432.92339	0.61750
1430.99482	0.61598
1429.06626	0.61450
1427.13770	0.61290
1425.20913	0.61143
1423.28057	0.61021
1421.35200	0.60915
1419.42344	0.60799
1417.49487	0.60629
1415.56631	0.60417
1413.63774	0.60223
1411.70918	0.60056
1409.78062	0.59905
1407.85205	0.59762
1405.92349	0.59619
1403.99492	0.59460
1402.06636	0.59305
1400.13779	0.59185
1398.20923	0.59081
1396.28066	0.58961
1394.35210	0.58810
1392.42354	0.58643
1390.49497	0.58494
1388.56641	0.58365
1386.63784	0.58237
1384.70928	0.58102
1382.78071	0.57980
1380.85215	0.57874
1378.92358	0.57782
1376.99502	0.57702
1375.06646	0.57633
1373.13789	0.57566
1371.20933	0.57492
1369.28076	0.57409
1367.35220	0.57326
1365.42363	0.57254
1363.49507	0.57179
1361.56650	0.57068
1359.63794	0.56936
1357.70937	0.56823
1355.78081	0.56722
1353.85225	0.56609
1351.92368	0.56485
1349.99512	0.56381
1348.06655	0.56290
1346.13799	0.56183
1344.20942	0.56071
1342.28086	0.55973
1340.35229	0.55893
1338.42373	0.55799
1336.49517	0.55683
1334.56660	0.55568
1332.63804	0.55471
1330.70947	0.55403
1328.78091	0.55339
1326.85234	0.55251
1324.92378	0.55158
1322.99521	0.55081
1321.06665	0.55018
1319.13809	0.54966
1317.20952	0.54912
1315.28096	0.54840
1313.35239	0.54744
1311.42383	0.54631
1309.49526	0.54519
1307.56670	0.54417
1305.63813	0.54330
1303.70957	0.54253
1301.78101	0.54182
1299.85244	0.54104
1297.92388	0.54011
1295.99531	0.53915
1294.06675	0.53841
1292.13818	0.53781
1290.20962	0.53722
1288.28105	0.53671
1286.35249	0.53622
1284.42393	0.53570
1282.49536	0.53520
1280.56680	0.53476
1278.63823	0.53431
1276.70967	0.53379
1274.78110	0.53312
1272.85254	0.53248
1270.92397	0.53208
1268.99541	0.53173
1267.06685	0.53125
1265.13828	0.53070
1263.20972	0.53016
1261.28115	0.52972
1259.35259	0.52929
1257.42402	0.52882
1255.49546	0.52843
1253.56689	0.52817
1251.63833	0.52786
1249.70977	0.52742
1247.78120	0.52704
1245.85264	0.52681
1243.92407	0.52655
1241.99551	0.52617
1240.06694	0.52567
1238.13838	0.52515
1236.20981	0.52464
1234.28125	0.52391
1232.35269	0.52311
1230.42412	0.52243
1228.49556	0.52163
1226.56699	0.52063
1224.63843	0.51969
1222.70986	0.51892
1220.78130	0.51814
1218.85273	0.51728
1216.92417	0.51647
1214.99561	0.51570
1213.06704	0.51496
1211.13848	0.51443
1209.20991	0.51412
1207.28135	0.51368
1205.35278	0.51306
1203.42422	0.51244
1201.49565	0.51190
1199.56709	0.51138
1197.63853	0.51074
1195.70996	0.51003
1193.78140	0.50946
1191.85283	0.50908
1189.92427	0.50873
1187.99570	0.50822
1186.06714	0.50765
1184.13857	0.50737
1182.21001	0.50753
1180.28145	0.50794
1178.35288	0.50837
1176.42432	0.50875
1174.49575	0.50926
1172.56719	0.51010
1170.63862	0.51105
1168.71006	0.51191
1166.78149	0.51283
1164.85293	0.51393
1162.92437	0.51506
1160.99580	0.51595
1159.06724	0.51643
1157.13867	0.51643
1155.21011	0.51595
1153.28154	0.51505
1151.35298	0.51368
1149.42441	0.51171
1147.49585	0.50931
1145.56729	0.50684
1143.63872	0.50434
1141.71016	0.50183
1139.78159	0.49950
1137.85303	0.49745
1135.92446	0.49571
1133.99590	0.49424
1132.06733	0.49306
1130.13877	0.49216
1128.21021	0.49140
1126.28164	0.49059
1124.35308	0.48973
1122.42451	0.48902
1120.49595	0.48872
1118.56738	0.48885
1116.63882	0.48913
1114.71025	0.48942
1112.78169	0.48981
1110.85312	0.49046
1108.92456	0.49145
1106.99600	0.49240
1105.06743	0.49307
1103.13887	0.49399
1101.21030	0.49540
1099.28174	0.49698
1097.35317	0.49878
1095.42461	0.50130
1093.49604	0.50496
1091.56748	0.50995
1089.63892	0.51627
1087.71035	0.52381
1085.78179	0.53205
1083.85322	0.54028
1081.92466	0.54789
1079.99609	0.55390
1078.06753	0.55739
1076.13896	0.55797
1074.21040	0.55541
1072.28184	0.55020
1070.35327	0.54348
1068.42471	0.53648
1066.49614	0.52996
1064.56758	0.52403
1062.63901	0.51850
1060.71045	0.51340
1058.78188	0.50892
1056.85332	0.50517
1054.92476	0.50206
1052.99619	0.49934
1051.06763	0.49707
1049.13906	0.49572
1047.21050	0.49531
1045.28193	0.49522
1043.35337	0.49519
1041.42480	0.49541
1039.49624	0.49575
1037.56768	0.49611
1035.63911	0.49642
1033.71055	0.49619
1031.78198	0.49522
1029.85342	0.49387
1027.92485	0.49246
1025.99629	0.49125
1024.06772	0.49046
1022.13916	0.49010
1020.21060	0.49007
1018.28203	0.49017
1016.35347	0.49032
1014.42490	0.49062
1012.49634	0.49089
1010.56777	0.49105
1008.63921	0.49138
1006.71064	0.49210
1004.78208	0.49328
1002.85352	0.49503
1000.92495	0.49753
998.99639	0.50071
997.06782	0.50431
995.13926	0.50825
993.21069	0.51227
991.28213	0.51556
989.35356	0.51758
987.42500	0.51838
985.49644	0.51839
983.56787	0.51825
981.63931	0.51846
979.71074	0.51939
977.78218	0.52105
975.85361	0.52327
973.92505	0.52601
971.99648	0.52922
970.06792	0.53276
968.13936	0.53663
966.21079	0.54088
964.28223	0.54543
962.35366	0.55011
960.42510	0.55506
958.49653	0.56054
956.56797	0.56643
954.63940	0.57243
952.71084	0.57864
950.78228	0.58510
948.85371	0.59158
946.92515	0.59785
944.99658	0.60381
943.06802	0.60954
941.13945	0.61511
939.21089	0.62088
937.28232	0.62729
935.35376	0.63386
933.42520	0.63989
931.49663	0.64543
929.56807	0.65074
927.63950	0.65639
925.71094	0.66272
923.78237	0.66936
921.85381	0.67669
919.92524	0.68446
917.99668	0.69132
916.06812	0.69741
914.13955	0.70388
912.21099	0.71125
910.28242	0.71936
908.35386	0.72828
906.42529	0.73800
904.49673	0.74793
902.56816	0.75766
900.63960	0.76729
898.71104	0.77723
896.78247	0.78768
894.85391	0.79756
892.92534	0.80655
890.99678	0.81596
889.06821	0.82613
887.13965	0.83674
885.21108	0.84802
883.28252	0.86033
881.35396	0.87305
879.42539	0.88503
877.49683	0.89681
875.56826	0.90934
873.63970	0.92208
871.71113	0.93441
869.78257	0.94537
867.85400	0.95487
865.92544	0.96487
863.99687	0.97602
862.06831	0.98884
860.13975	1.00335
858.21118	1.01677
856.28262	1.02786
854.35405	1.03826
852.42549	1.04872
850.49692	1.05885
848.56836	1.06973
846.63979	1.08228
844.71123	1.09508
842.78267	1.10636
840.85410	1.11616
838.92554	1.12618
836.99697	1.13852
835.06841	1.15375
833.13984	1.16916
831.21128	1.18080
829.28271	1.19114
827.35415	1.20405
825.42559	1.21603
823.49702	1.22769
821.56846	1.23925
819.63989	1.24946
817.71133	1.26512
815.78276	1.28348
813.85420	1.30177
811.92563	1.32388
809.99707	1.33893
808.06851	1.34628
806.13994	1.35695
804.21138	1.36165
802.28281	1.36712
800.35425	1.39329
798.42568	1.43442
796.49712	1.49018
794.56855	1.53595
792.63999	1.51603
790.71143	1.49427
788.78286	1.51636
786.85430	1.53414
784.92573	1.55711
782.99717	1.60276
781.06860	1.61759
779.14004	1.59568
777.21147	1.60140
775.28291	1.72094
773.35435	2.00951
771.42578	2.31586
769.49722	2.25960
767.56865	2.17793
765.64009	1.77815
763.71152	1.50057
761.78296	1.37144
759.85439	1.30090
757.92583	1.30641
755.99727	1.33256
754.06870	1.32854
752.14014	1.29905
750.21157	1.33798
748.28301	1.44410
746.35444	1.36119
744.42588	1.14690
742.49731	1.01516
740.56875	1.00826
738.64019	1.06616
736.71162	0.94904
734.78306	0.80912
732.85449	0.77618
730.92593	0.68371
728.99736	0.52564
727.06880	0.42749
725.14023	0.36340
723.21167	0.31790
721.28311	0.26112
719.35454	0.30427
717.42598	0.54550
715.49741	0.98465
713.56885	0.79176
711.64028	0.56743
709.71172	0.55650
707.78315	0.61500
705.85459	0.80401
703.92603	0.97969
701.99746	0.59922
700.06890	0.43457
698.14033	0.50724
696.21177	0.73528
694.28320	1.00279
692.35464	1.00331
690.42607	0.74089
688.49751	0.55960
686.56895	0.47292
684.64038	0.54373
682.71182	0.89472
680.78325	1.35586
678.85469	0.87642
676.92612	0.71906
674.99756	0.63551
673.06899	0.58294
671.14043	0.60748
669.21187	0.59247
667.28330	0.51390
665.35474	0.55428
663.42617	0.66741
661.49761	0.59189
659.56904	0.52140
657.64048	0.59217
655.71191	0.61836
653.78335	0.46511
651.85479	0.32406
649.92622	0.26709
647.99766	0.29176
646.06909	0.31064
644.14053	0.26747
642.21196	0.29358
640.28340	0.46413
638.35483	0.57450
636.42627	0.48263
634.49771	0.43186
632.56914	0.39357
630.64058	0.38168
628.71201	0.42417
626.78345	0.40976
624.85488	0.33772
622.92632	0.30429
620.99775	0.31804
619.06919	0.34454
617.14062	0.32947
615.21206	0.27986
613.28350	0.26459
611.35493	0.31664
609.42637	0.39712
607.49780	0.43173
605.56924	0.43577
603.64067	0.44604
601.71211	0.44585
599.78354	0.43172
597.85498	0.40047
595.92642	0.34342
593.99785	0.32465
592.06929	0.37228
590.14072	0.41516
588.21216	0.37873
586.28359	0.32623
584.35503	0.26378
582.42646	0.23323
580.49790	0.28304
578.56934	0.40505
576.64077	0.57979
574.71221	0.58792
572.78364	0.43602
570.85508	0.38016
568.92651	0.41024
566.99795	0.43601
565.06938	0.44727
563.14082	0.47199
561.21226	0.43832
559.28369	0.39931
557.35513	0.44394
555.42656	0.45086
553.49800	0.35152
551.56943	0.31477
549.64087	0.37980
547.71230	0.41759
545.78374	0.32080
543.85518	0.22588
541.92661	0.20820
539.99805	0.26414
538.06948	0.29157
536.14092	0.28694
534.21235	0.32655
532.28379	0.43829
530.35522	0.59771
528.42666	0.51865
526.49810	0.33544
524.56953	0.25940
522.64097	0.24100
520.71240	0.23336
518.78384	0.24439
516.85527	0.27918
514.92671	0.30565
512.99814	0.30720
511.06958	0.31337
509.14102	0.34382
507.21245	0.32821
505.28389	0.24250
503.35532	0.19930
501.42676	0.21643
499.49819	0.23547
