3997.91411	0.07770
3995.98555	0.07839
3994.05698	0.07863
3992.12842	0.07858
3990.19985	0.07860
3988.27129	0.07880
3986.34272	0.07930
3984.41416	0.08009
3982.48560	0.08084
3980.55703	0.08131
3978.62847	0.08149
3976.69990	0.08145
3974.77134	0.08124
3972.84277	0.08110
3970.91421	0.08122
3968.98564	0.08131
3967.05708	0.08136
3965.12852	0.08177
3963.19995	0.08228
3961.27139	0.08228
3959.34282	0.08208
3957.41426	0.08213
3955.48569	0.08227
3953.55713	0.08236
3951.62856	0.08239
3949.70000	0.08247
3947.77144	0.08269
3945.84287	0.08283
3943.91431	0.08290
3941.98574	0.08318
3940.05718	0.08326
3938.12861	0.08271
3936.20005	0.08209
3934.27148	0.08210
3932.34292	0.08228
3930.41436	0.08220
3928.48579	0.08217
3926.55723	0.08189
3924.62866	0.08167
3922.70010	0.08199
3920.77153	0.08219
3918.84297	0.08195
3916.91440	0.08194
3914.98584	0.08244
3913.05728	0.08275
3911.12871	0.08251
3909.20015	0.08189
3907.27158	0.08145
3905.34302	0.08189
3903.41445	0.08330
3901.48589	0.08433
3899.55732	0.08386
3897.62876	0.08259
3895.70020	0.08169
3893.77163	0.08173
3891.84307	0.08216
3889.91450	0.08176
3887.98594	0.08117
3886.05737	0.08177
3884.12881	0.08285
3882.20024	0.08309
3880.27168	0.08303
3878.34312	0.08292
3876.41455	0.08248
3874.48599	0.08247
3872.55742	0.08330
3870.62886	0.08430
3868.70029	0.08463
3866.77173	0.08426
3864.84316	0.08464
3862.91460	0.08569
3860.98604	0.08581
3859.05747	0.08544
3857.12891	0.08576
3855.20034	0.08722
3853.27178	0.08973
3851.34321	0.09016
3849.41465	0.08809
3847.48608	0.08723
3845.55752	0.08782
3843.62896	0.08880
3841.70039	0.08948
3839.77183	0.08997
3837.84326	0.09110
3835.91470	0.09241
3833.98613	0.09266
3832.05757	0.09251
3830.12900	0.09269
3828.20044	0.09296
3826.27187	0.09340
3824.34331	0.09423
3822.41475	0.09518
3820.48618	0.09671
3818.55762	0.09841
3816.62905	0.09940
3814.70049	0.10008
3812.77192	0.10042
3810.84336	0.10052
3808.91479	0.10075
3806.98623	0.10129
3805.05767	0.10233
3803.12910	0.10422
3801.20054	0.10707
3799.27197	0.10910
3797.34341	0.10940
3795.41484	0.10951
3793.48628	0.10983
3791.55771	0.11065
3789.62915	0.11182
3787.70059	0.11292
3785.77202	0.11434
3783.84346	0.11594
3781.91489	0.11709
3779.98633	0.11847
3778.05776	0.12060
3776.12920	0.12226
3774.20063	0.12321
3772.27207	0.12444
3770.34351	0.12640
3768.41494	0.12865
3766.48638	0.13066
3764.55781	0.13270
3762.62925	0.13472
3760.70068	0.13688
3758.77212	0.13986
3756.84355	0.14266
3754.91499	0.14429
3752.98643	0.14622
3751.05786	0.15027
3749.12930	0.15554
3747.20073	0.15805
3745.27217	0.15916
3743.34360	0.16190
3741.41504	0.16527
3739.48647	0.16797
3737.55791	0.17122
3735.62935	0.17607
3733.70078	0.18176
3731.77222	0.18612
3729.84365	0.18983
3727.91509	0.19400
3725.98652	0.19927
3724.05796	0.20545
3722.12939	0.21196
3720.20083	0.21890
3718.27227	0.22582
3716.34370	0.23262
3714.41514	0.23979
3712.48657	0.24906
3710.55801	0.26209
3708.62944	0.27577
3706.70088	0.28730
3704.77231	0.29825
3702.84375	0.31089
3700.91519	0.32746
3698.98662	0.34559
3697.05806	0.36263
3695.12949	0.38073
3693.20093	0.40004
3691.27236	0.42089
3689.34380	0.44770
3687.41523	0.48094
3685.48667	0.51058
3683.55811	0.53638
3681.62954	0.56415
3679.70098	0.59562
3677.77241	0.62879
3675.84385	0.66739
3673.91528	0.71847
3671.98672	0.76057
3670.05815	0.79818
3668.12959	0.84972
3666.20103	0.89742
3664.27246	0.93761
3662.34390	0.98036
3660.41533	1.02632
3658.48677	1.07202
3656.55820	1.12103
3654.62964	1.17525
3652.70107	1.22056
3650.77251	1.25995
3648.84395	1.31425
3646.91538	1.38100
3644.98682	1.43031
3643.05825	1.46875
3641.12969	1.50867
3639.20112	1.55283
3637.27256	1.59739
3635.34399	1.63985
3633.41543	1.68110
3631.48687	1.72011
3629.55830	1.76040
3627.62974	1.81370
3625.70117	1.86462
3623.77261	1.89900
3621.84404	1.93084
3619.91548	1.96790
3617.98691	2.01427
3616.05835	2.05876
3614.12979	2.09540
3612.20122	2.13434
3610.27266	2.17437
3608.34409	2.21485
3606.41553	2.25681
3604.48696	2.29422
3602.55840	2.32716
3600.62983	2.36375
3598.70127	2.40415
3596.77271	2.44398
3594.84414	2.48573
3592.91558	2.52795
3590.98701	2.56537
3589.05845	2.60116
3587.12988	2.64634
3585.20132	2.69600
3583.27275	2.73677
3581.34419	2.77425
3579.41562	2.81540
3577.48706	2.85887
3575.55850	2.90192
3573.62993	2.94543
3571.70137	2.98679
3569.77280	3.02576
3567.84424	3.06867
3565.91567	3.12215
3563.98711	3.17316
3562.05854	3.21481
3560.12998	3.25756
3558.20142	3.30232
3556.27285	3.34595
3554.34429	3.38818
3552.41572	3.43320
3550.48716	3.48216
3548.55859	3.52970
3546.63003	3.57444
3544.70146	3.62209
3542.77290	3.67268
3540.84434	3.72104
3538.91577	3.76725
3536.98721	3.81366
3535.05864	3.86037
3533.13008	3.90451
3531.20151	3.95039
3529.27295	4.00249
3527.34438	4.05639
3525.41582	4.10450
3523.48726	4.14966
3521.55869	4.19844
3519.63013	4.24741
3517.70156	4.29454
3515.77300	4.34202
3513.84443	4.39230
3511.91587	4.44327
3509.98730	4.49187
3508.05874	4.53900
3506.13018	4.58511
3504.20161	4.63339
3502.27305	4.68690
3500.34448	4.73608
3498.41592	4.77566
3496.48735	4.82012
3494.55879	4.87444
3492.63022	4.92667
3490.70166	4.97321
3488.77310	5.02211
3486.84453	5.07597
3484.91597	5.12693
3482.98740	5.17336
3481.05884	5.22696
3479.13027	5.28805
3477.20171	5.33987
3475.27314	5.38244
3473.34458	5.42897
3471.41602	5.47674
3469.48745	5.52307
3467.55889	5.57645
3465.63032	5.63348
3463.70176	5.68612
3461.77319	5.73024
3459.84463	5.76703
3457.91606	5.81415
3455.98750	5.87339
3454.05894	5.92153
3452.13037	5.96965
3450.20181	6.03469
3448.27324	6.09883
3446.34468	6.15652
3444.41611	6.20809
3442.48755	6.25138
3440.55898	6.29764
3438.63042	6.35168
3436.70186	6.39063
3434.77329	6.41562
3432.84473	6.45435
3430.91616	6.50550
3428.98760	6.55785
3427.05903	6.61364
3425.13047	6.68601
3423.20190	6.75264
3421.27334	6.79424
3419.34478	6.82307
3417.41621	6.85761
3415.48765	6.91900
3413.55908	6.97876
3411.63052	7.01152
3409.70195	7.05496
3407.77339	7.11196
3405.84482	7.13130
3403.91626	7.14798
3401.98770	7.19861
3400.05913	7.26333
3398.13057	7.33925
3396.20200	7.40560
3394.27344	7.45426
3392.34487	7.49737
3390.41631	7.51539
3388.48774	7.49016
3386.55918	7.50809
3384.63062	7.60546
3382.70205	7.68517
3380.77349	7.70065
3378.84492	7.71452
3376.91636	7.75583
3374.98779	7.76332
3373.05923	7.78583
3371.13066	7.88645
3369.20210	7.94071
3367.27354	7.86821
3365.34497	7.80318
3363.41641	7.84245
3361.48784	7.98801
3359.55928	8.13460
3357.63071	8.13158
3355.70215	8.07765
3353.77358	8.07969
3351.84502	8.13041
3349.91646	8.17640
3347.98789	8.14757
3346.05933	8.09010
3344.13076	8.09126
3342.20220	8.15137
3340.27363	8.23668
3338.34507	8.32806
3336.41650	8.34874
3334.48794	8.29205
3332.55937	8.20236
3330.63081	8.13577
3328.70225	8.14803
3326.77368	8.22994
3324.84512	8.30715
3322.91655	8.27619
3320.98799	8.24218
3319.05942	8.32631
3317.13086	8.42764
3315.20229	8.44103
3313.27373	8.38910
3311.34517	8.30869
3309.41660	8.28170
3307.48804	8.33380
3305.55947	8.41835
3303.63091	8.48102
3301.70234	8.44912
3299.77378	8.41765
3297.84521	8.45942
3295.91665	8.49061
3293.98809	8.46382
3292.05952	8.44899
3290.13096	8.50192
3288.20239	8.56024
3286.27383	8.54231
3284.34526	8.46129
3282.41670	8.47527
3280.48813	8.64546
3278.55957	8.75237
3276.63101	8.64825
3274.70244	8.46778
3272.77388	8.33934
3270.84531	8.39691
3268.91675	8.62902
3266.98818	8.76109
3265.05962	8.71445
3263.13105	8.66637
3261.20249	8.60506
3259.27393	8.50717
3257.34536	8.46576
3255.41680	8.43672
3253.48823	8.42881
3251.55967	8.52437
3249.63110	8.57770
3247.70254	8.52687
3245.77397	8.51669
3243.84541	8.54612
3241.91685	8.52359
3239.98828	8.49969
3238.05972	8.51308
3236.13115	8.49616
3234.20259	8.47020
3232.27402	8.47411
3230.34546	8.46320
3228.41689	8.46143
3226.48833	8.50766
3224.55977	8.50776
3222.63120	8.44981
3220.70264	8.38738
3218.77407	8.27967
3216.84551	8.19112
3214.91694	8.22798
3212.98838	8.34006
3211.05981	8.42084
3209.13125	8.39803
3207.20269	8.27782
3205.27412	8.18013
3203.34556	8.12078
3201.41699	8.01777
3199.48843	7.91670
3197.55986	7.93838
3195.63130	7.99467
3193.70273	7.89333
3191.77417	7.77681
3189.84561	7.79370
3187.91704	7.84618
3185.98848	7.84329
3184.05991	7.78372
3182.13135	7.65857
3180.20278	7.51253
3178.27422	7.43151
3176.34565	7.41765
3174.41709	7.38281
3172.48853	7.28557
3170.55996	7.17910
3168.63140	7.11518
3166.70283	7.06772
3164.77427	6.99563
3162.84570	6.90048
3160.91714	6.80039
3158.98857	6.73139
3157.06001	6.69790
3155.13145	6.66371
3153.20288	6.59845
3151.27432	6.51309
3149.34575	6.43561
3147.41719	6.36010
3145.48862	6.28274
3143.56006	6.21284
3141.63149	6.14735
3139.70293	6.08019
3137.77437	6.01688
3135.84580	5.96075
3133.91724	5.89657
3131.98867	5.81356
3130.06011	5.72573
3128.13154	5.65001
3126.20298	5.58108
3124.27441	5.50697
3122.34585	5.43262
3120.41729	5.36534
3118.48872	5.29913
3116.56016	5.23054
3114.63159	5.16218
3112.70303	5.09053
3110.77446	5.01099
3108.84590	4.92971
3106.91733	4.85684
3104.98877	4.79270
3103.06021	4.72777
3101.13164	4.65707
3099.20308	4.58869
3097.27451	4.52360
3095.34595	4.45545
3093.41738	4.38799
3091.48882	4.32400
3089.56025	4.25853
3087.63169	4.18979
3085.70312	4.12242
3083.77456	4.05830
3081.84600	3.99489
3079.91743	3.93107
3077.98887	3.86860
3076.06030	3.80914
3074.13174	3.75111
3072.20317	3.69289
3070.27461	3.63420
3068.34604	3.57490
3066.41748	3.51623
3064.48892	3.45946
3062.56035	3.40432
3060.63179	3.35021
3058.70322	3.29559
3056.77466	3.24025
3054.84609	3.18672
3052.91753	3.13466
3050.98896	3.08136
3049.06040	3.02808
3047.13184	2.97736
3045.20327	2.92820
3043.27471	2.87931
3041.34614	2.82990
3039.41758	2.77945
3037.48901	2.73052
3035.56045	2.68511
3033.63188	2.64094
3031.70332	2.59521
3029.77476	2.54910
3027.84619	2.50402
3025.91763	2.45924
3023.98906	2.41600
3022.06050	2.37473
3020.13193	2.33307
3018.20337	2.29115
3016.27480	2.25085
3014.34624	2.21178
3012.41768	2.17241
3010.48911	2.13284
3008.56055	2.09475
3006.63198	2.05839
3004.70342	2.02264
3002.77485	1.98735
3000.84629	1.95265
2998.91772	1.91803
2996.98916	1.88372
2995.06060	1.85077
2993.13203	1.81908
2991.20347	1.78755
2989.27490	1.75627
2987.34634	1.72590
2985.41777	1.69643
2983.48921	1.66748
2981.56064	1.63897
2979.63208	1.61101
2977.70352	1.58361
2975.77495	1.55664
2973.84639	1.52996
2971.91782	1.50382
2969.98926	1.47844
2968.06069	1.45336
2966.13213	1.42846
2964.20356	1.40417
2962.27500	1.38039
2960.34644	1.35654
2958.41787	1.33266
2956.48931	1.30913
2954.56074	1.28575
2952.63218	1.26250
2950.70361	1.24007
2948.77505	1.21806
2946.84648	1.19567
2944.91792	1.17382
2942.98936	1.15322
2941.06079	1.13338
2939.13223	1.11382
2937.20366	1.09410
2935.27510	1.07411
2933.34653	1.05455
2931.41797	1.03607
2929.48940	1.01819
2927.56084	1.00007
2925.63228	0.98160
2923.70371	0.96330
2921.77515	0.94569
2919.84658	0.92885
2917.91802	0.91252
2915.98945	0.89632
2914.06089	0.87990
2912.13232	0.86357
2910.20376	0.84799
2908.27520	0.83318
2906.34663	0.81863
2904.41807	0.80405
2902.48950	0.78946
2900.56094	0.77517
2898.63237	0.76149
2896.70381	0.74856
2894.77524	0.73633
2892.84668	0.72446
2890.91812	0.71272
2888.98955	0.70107
2887.06099	0.68948
2885.13242	0.67820
2883.20386	0.66757
2881.27529	0.65754
2879.34673	0.64771
2877.41816	0.63782
2875.48960	0.62784
2873.56104	0.61756
2871.63247	0.60709
2869.70391	0.59683
2867.77534	0.58648
2865.84678	0.57573
2863.91821	0.56497
2861.98965	0.55444
2860.06108	0.54438
2858.13252	0.53502
2856.20396	0.52594
2854.27539	0.51704
2852.34683	0.50838
2850.41826	0.49981
2848.48970	0.49129
2846.56113	0.48314
2844.63257	0.47556
2842.70400	0.46847
2840.77544	0.46167
2838.84687	0.45511
2836.91831	0.44886
2834.98975	0.44264
2833.06118	0.43636
2831.13262	0.43029
2829.20405	0.42449
2827.27549	0.41858
2825.34692	0.41248
2823.41836	0.40656
2821.48979	0.40087
2819.56123	0.39516
2817.63267	0.38948
2815.70410	0.38393
2813.77554	0.37833
2811.84697	0.37275
2809.91841	0.36736
2807.98984	0.36208
2806.06128	0.35698
2804.13271	0.35220
2802.20415	0.34738
2800.27559	0.34245
2798.34702	0.33764
2796.41846	0.33294
2794.48989	0.32820
2792.56133	0.32353
2790.63276	0.31913
2788.70420	0.31495
2786.77563	0.31080
2784.84707	0.30671
2782.91851	0.30270
2780.98994	0.29879
2779.06138	0.29500
2777.13281	0.29125
2775.20425	0.28747
2773.27568	0.28375
2771.34712	0.28021
2769.41855	0.27657
2767.48999	0.27280
2765.56143	0.26931
2763.63286	0.26616
2761.70430	0.26305
2759.77573	0.25983
2757.84717	0.25658
2755.91860	0.25343
2753.99004	0.25049
2752.06147	0.24762
2750.13291	0.24469
2748.20435	0.24174
2746.27578	0.23889
2744.34722	0.23615
2742.41865	0.23357
2740.49009	0.23125
2738.56152	0.22898
2736.63296	0.22652
2734.70439	0.22411
2732.77583	0.22197
2730.84727	0.21995
2728.91870	0.21782
2726.99014	0.21559
2725.06157	0.21334
2723.13301	0.21107
2721.20444	0.20882
2719.27588	0.20683
2717.34731	0.20507
2715.41875	0.20326
2713.49019	0.20134
2711.56162	0.19958
2709.63306	0.19804
2707.70449	0.19658
2705.77593	0.19510
2703.84736	0.19352
2701.91880	0.19186
2699.99023	0.19026
2698.06167	0.18879
2696.13311	0.18741
2694.20454	0.18605
2692.27598	0.18461
2690.34741	0.18314
2688.41885	0.18184
2686.49028	0.18060
2684.56172	0.17933
2682.63315	0.17819
2680.70459	0.17709
2678.77603	0.17594
2676.84746	0.17482
2674.91890	0.17378
2672.99033	0.17296
2671.06177	0.17227
2669.13320	0.17145
2667.20464	0.17048
2665.27607	0.16944
2663.34751	0.16841
2661.41895	0.16749
2659.49038	0.16675
2657.56182	0.16609
2655.63325	0.16539
2653.70469	0.16459
2651.77612	0.16368
2649.84756	0.16300
2647.91899	0.16262
2645.99043	0.16213
2644.06187	0.16145
2642.13330	0.16087
2640.20474	0.16037
2638.27617	0.15979
2636.34761	0.15932
2634.41904	0.15910
2632.49048	0.15884
2630.56191	0.15834
2628.63335	0.15779
2626.70479	0.15743
2624.77622	0.15722
2622.84766	0.15700
2620.91909	0.15661
2618.99053	0.15624
2617.06196	0.15615
2615.13340	0.15619
2613.20483	0.15608
2611.27627	0.15583
2609.34771	0.15565
2607.41914	0.15555
2605.49058	0.15543
2603.56201	0.15536
2601.63345	0.15542
2599.70488	0.15551
2597.77632	0.15558
2595.84775	0.15568
2593.91919	0.15575
2591.99062	0.15580
2590.06206	0.15601
2588.13350	0.15631
2586.20493	0.15645
2584.27637	0.15643
2582.34780	0.15644
2580.41924	0.15660
2578.49067	0.15695
2576.56211	0.15743
2574.63354	0.15778
2572.70498	0.15803
2570.77642	0.15843
2568.84785	0.15889
2566.91929	0.15924
2564.99072	0.15953
2563.06216	0.15988
2561.13359	0.16032
2559.20503	0.16074
2557.27646	0.16117
2555.34790	0.16174
2553.41934	0.16234
2551.49077	0.16287
2549.56221	0.16346
2547.63364	0.16410
2545.70508	0.16458
2543.77651	0.16494
2541.84795	0.16544
2539.91938	0.16620
2537.99082	0.16704
2536.06226	0.16769
2534.13369	0.16824
2532.20513	0.16894
2530.27656	0.16972
2528.34800	0.17043
2526.41943	0.17115
2524.49087	0.17195
2522.56230	0.17274
2520.63374	0.17348
2518.70518	0.17418
2516.77661	0.17498
2514.84805	0.17591
2512.91948	0.17676
2510.99092	0.17740
2509.06235	0.17795
2507.13379	0.17859
2505.20522	0.17941
2503.27666	0.18025
2501.34810	0.18110
2499.41953	0.18208
2497.49097	0.18304
2495.56240	0.18392
2493.63384	0.18484
2491.70527	0.18573
2489.77671	0.18661
2487.84814	0.18749
2485.91958	0.18834
2483.99102	0.18914
2482.06245	0.18993
2480.13389	0.19081
2478.20532	0.19173
2476.27676	0.19260
2474.34819	0.19351
2472.41963	0.19443
2470.49106	0.19527
2468.56250	0.19611
2466.63394	0.19707
2464.70537	0.19801
2462.77681	0.19887
2460.84824	0.19990
2458.91968	0.20106
2456.99111	0.20209
2455.06255	0.20296
2453.13398	0.20375
2451.20542	0.20456
2449.27686	0.20555
2447.34829	0.20662
2445.41973	0.20754
2443.49116	0.20853
2441.56260	0.20963
2439.63403	0.21063
2437.70547	0.21152
2435.77690	0.21245
2433.84834	0.21347
2431.91978	0.21459
2429.99121	0.21574
2428.06265	0.21679
2426.13408	0.21775
2424.20552	0.21878
2422.27695	0.21994
2420.34839	0.22112
2418.41982	0.22230
2416.49126	0.22344
2414.56270	0.22464
2412.63413	0.22593
2410.70557	0.22712
2408.77700	0.22818
2406.84844	0.22928
2404.91987	0.23046
2402.99131	0.23160
2401.06274	0.23266
2399.13418	0.23381
2397.20562	0.23500
2395.27705	0.23607
2393.34849	0.23720
2391.41992	0.23855
2389.49136	0.23989
2387.56279	0.24112
2385.63423	0.24235
2383.70566	0.24383
2381.77710	0.24558
2379.84854	0.24739
2377.91997	0.24936
2375.99141	0.25182
2374.06284	0.25451
2372.13428	0.25712
2370.20571	0.26002
2368.27715	0.26315
2366.34858	0.26623
2364.42002	0.26931
2362.49146	0.27199
2360.56289	0.27395
2358.63433	0.27529
2356.70576	0.27574
2354.77720	0.27561
2352.84863	0.27564
2350.92007	0.27546
2348.99150	0.27547
2347.06294	0.27651
2345.13437	0.27889
2343.20581	0.28189
2341.27725	0.28427
2339.34868	0.28622
2337.42012	0.28808
2335.49155	0.28957
2333.56299	0.29062
2331.63442	0.29206
2329.70586	0.29373
2327.77729	0.29464
2325.84873	0.29499
2323.92017	0.29562
2321.99160	0.29668
2320.06304	0.29805
2318.13447	0.29976
2316.20591	0.30137
2314.27734	0.30256
2312.34878	0.30365
2310.42021	0.30498
2308.49165	0.30644
2306.56309	0.30793
2304.63452	0.30939
2302.70596	0.31091
2300.77739	0.31260
2298.84883	0.31442
2296.92026	0.31635
2294.99170	0.31820
2293.06313	0.32000
2291.13457	0.32184
2289.20601	0.32356
2287.27744	0.32512
2285.34888	0.32679
2283.42031	0.32866
2281.49175	0.33058
2279.56318	0.33251
2277.63462	0.33447
2275.70605	0.33658
2273.77749	0.33885
2271.84893	0.34103
2269.92036	0.34310
2267.99180	0.34528
2266.06323	0.34756
2264.13467	0.34966
2262.20610	0.35160
2260.27754	0.35363
2258.34897	0.35581
2256.42041	0.35800
2254.49185	0.36010
2252.56328	0.36207
2250.63472	0.36405
2248.70615	0.36618
2246.77759	0.36839
2244.84902	0.37059
2242.92046	0.37282
2240.99189	0.37508
2239.06333	0.37730
2237.13477	0.37949
2235.20620	0.38165
2233.27764	0.38379
2231.34907	0.38594
2229.42051	0.38817
2227.49194	0.39054
2225.56338	0.39289
2223.63481	0.39509
2221.70625	0.39724
2219.77769	0.39947
2217.84912	0.40177
2215.92056	0.40405
2213.99199	0.40613
2212.06343	0.40808
2210.13486	0.41004
2208.20630	0.41210
2206.27773	0.41423
2204.34917	0.41649
2202.42061	0.41873
2200.49204	0.42063
2198.56348	0.42236
2196.63491	0.42431
2194.70635	0.42650
2192.77778	0.42861
2190.84922	0.43050
2188.92065	0.43221
2186.99209	0.43386
2185.06353	0.43559
2183.13496	0.43738
2181.20640	0.43910
2179.27783	0.44081
2177.34927	0.44243
2175.42070	0.44389
2173.49214	0.44539
2171.56357	0.44697
2169.63501	0.44845
2167.70645	0.44969
2165.77788	0.45077
2163.84932	0.45190
2161.92075	0.45311
2159.99219	0.45428
2158.06362	0.45534
2156.13506	0.45617
2154.20649	0.45689
2152.27793	0.45777
2150.34937	0.45866
2148.42080	0.45929
2146.49224	0.45975
2144.56367	0.46021
2142.63511	0.46071
2140.70654	0.46114
2138.77798	0.46133
2136.84941	0.46129
2134.92085	0.46123
2132.99229	0.46111
2131.06372	0.46087
2129.13516	0.46064
2127.20659	0.46049
2125.27803	0.46027
2123.34946	0.45984
2121.42090	0.45931
2119.49233	0.45875
2117.56377	0.45811
2115.63521	0.45731
2113.70664	0.45632
2111.77808	0.45517
2109.84951	0.45403
2107.92095	0.45299
2105.99238	0.45194
2104.06382	0.45088
2102.13525	0.44973
2100.20669	0.44833
2098.27812	0.44679
2096.34956	0.44534
2094.42100	0.44393
2092.49243	0.44234
2090.56387	0.44054
2088.63530	0.43867
2086.70674	0.43686
2084.77817	0.43502
2082.84961	0.43312
2080.92104	0.43109
2078.99248	0.42891
2077.06392	0.42669
2075.13535	0.42458
2073.20679	0.42248
2071.27822	0.42026
2069.34966	0.41799
2067.42109	0.41565
2065.49253	0.41325
2063.56396	0.41087
2061.63540	0.40850
2059.70684	0.40597
2057.77827	0.40330
2055.84971	0.40066
2053.92114	0.39811
2051.99258	0.39560
2050.06401	0.39298
2048.13545	0.39030
2046.20688	0.38764
2044.27832	0.38491
2042.34976	0.38204
2040.42119	0.37918
2038.49263	0.37647
2036.56406	0.37388
2034.63550	0.37122
2032.70693	0.36832
2030.77837	0.36539
2028.84980	0.36256
2026.92124	0.35978
2024.99268	0.35705
2023.06411	0.35437
2021.13555	0.35162
2019.20698	0.34881
2017.27842	0.34605
2015.34985	0.34334
2013.42129	0.34061
2011.49272	0.33784
2009.56416	0.33505
2007.63560	0.33234
2005.70703	0.32980
2003.77847	0.32737
2001.84990	0.32484
1999.92134	0.32212
1997.99277	0.31932
1996.06421	0.31660
1994.13564	0.31403
1992.20708	0.31156
1990.27852	0.30907
1988.34995	0.30662
1986.42139	0.30416
1984.49282	0.30170
1982.56426	0.29934
1980.63569	0.29705
1978.70713	0.29473
1976.77856	0.29243
1974.85000	0.29026
1972.92144	0.28816
1970.99287	0.28612
1969.06431	0.28421
1967.13574	0.28228
1965.20718	0.28020
1963.27861	0.27806
1961.35005	0.27605
1959.42148	0.27422
1957.49292	0.27249
1955.56436	0.27063
1953.63579	0.26876
1951.70723	0.26711
1949.77866	0.26564
1947.85010	0.26413
1945.92153	0.26253
1943.99297	0.26100
1942.06440	0.25952
1940.13584	0.25796
1938.20728	0.25647
1936.27871	0.25519
1934.35015	0.25403
1932.42158	0.25286
1930.49302	0.25164
1928.56445	0.25046
1926.63589	0.24937
1924.70732	0.24842
1922.77876	0.24754
1920.85020	0.24669
1918.92163	0.24593
1916.99307	0.24515
1915.06450	0.24421
1913.13594	0.24318
1911.20737	0.24229
1909.27881	0.24156
1907.35024	0.24089
1905.42168	0.24024
1903.49312	0.23965
1901.56455	0.23910
1899.63599	0.23854
1897.70742	0.23814
1895.77886	0.23786
1893.85029	0.23749
1891.92173	0.23706
1889.99316	0.23684
1888.06460	0.23663
1886.13604	0.23630
1884.20747	0.23612
1882.27891	0.23607
1880.35034	0.23603
1878.42178	0.23594
1876.49321	0.23580
1874.56465	0.23565
1872.63608	0.23569
1870.70752	0.23599
1868.77896	0.23655
1866.85039	0.23696
1864.92183	0.23702
1862.99326	0.23710
1861.06470	0.23730
1859.13613	0.23759
1857.20757	0.23788
1855.27900	0.23827
1853.35044	0.23875
1851.42187	0.23934
1849.49331	0.23999
1847.56475	0.24067
1845.63618	0.24150
1843.70762	0.24259
1841.77905	0.24346
1839.85049	0.24392
1837.92192	0.24461
1835.99336	0.24546
1834.06479	0.24638
1832.13623	0.24742
1830.20767	0.24881
1828.27910	0.25027
1826.35054	0.25141
1824.42197	0.25273
1822.49341	0.25400
1820.56484	0.25514
1818.63628	0.25642
1816.70771	0.25805
1814.77915	0.25974
1812.85059	0.26152
1810.92202	0.26350
1808.99346	0.26550
1807.06489	0.26745
1805.13633	0.26937
1803.20776	0.27156
1801.27920	0.27412
1799.35063	0.27703
1797.42207	0.27962
1795.49351	0.28198
1793.56494	0.28470
1791.63638	0.28826
1789.70781	0.29175
1787.77925	0.29443
1785.85068	0.29753
1783.92212	0.30116
1781.99355	0.30510
1780.06499	0.30932
1778.13643	0.31369
1776.20786	0.31774
1774.27930	0.32196
1772.35073	0.32772
1770.42217	0.33405
1768.49360	0.33933
1766.56504	0.34442
1764.63647	0.34971
1762.70791	0.35564
1760.77935	0.36333
1758.85078	0.37059
1756.92222	0.37767
1754.99365	0.38530
1753.06509	0.39226
1751.13652	0.40057
1749.20796	0.41115
1747.27939	0.42176
1745.35083	0.43102
1743.42227	0.44063
1741.49370	0.45132
1739.56514	0.46414
1737.63657	0.47692
1735.70801	0.48793
1733.77944	0.50433
1731.85088	0.52382
1729.92231	0.53913
1727.99375	0.55473
1726.06519	0.57178
1724.13662	0.59041
1722.20806	0.61027
1720.27949	0.62857
1718.35093	0.65006
1716.42236	0.68164
1714.49380	0.71183
1712.56523	0.73659
1710.63667	0.76057
1708.70811	0.78634
1706.77954	0.81571
1704.85098	0.85073
1702.92241	0.88196
1700.99385	0.91294
1699.06528	0.95889
1697.13672	1.00141
1695.20815	1.04564
1693.27959	1.08874
1691.35103	1.12328
1689.42246	1.16276
1687.49390	1.20428
1685.56533	1.24468
1683.63677	1.30706
1681.70820	1.37119
1679.77964	1.41258
1677.85107	1.45259
1675.92251	1.49863
1673.99395	1.55508
1672.06538	1.60511
1670.13682	1.65432
1668.20825	1.71799
1666.27969	1.76933
1664.35112	1.81298
1662.42256	1.86834
1660.49399	1.93008
1658.56543	1.97770
1656.63687	2.01685
1654.70830	2.05460
1652.77974	2.11410
1650.85117	2.16774
1648.92261	2.18741
1646.99404	2.21291
1645.06548	2.23877
1643.13691	2.25578
1641.20835	2.26759
1639.27979	2.27835
1637.35122	2.28450
1635.42266	2.28340
1633.49409	2.27399
1631.56553	2.25876
1629.63696	2.23975
1627.70840	2.21073
1625.77983	2.17912
1623.85127	2.13983
1621.92271	2.09061
1619.99414	2.04644
1618.06558	2.00317
1616.13701	1.94046
1614.20845	1.87565
1612.27988	1.82621
1610.35132	1.77558
1608.42275	1.72146
1606.49419	1.66808
1604.56562	1.61856
1602.63706	1.57065
1600.70850	1.52408
1598.77993	1.48172
1596.85137	1.44201
1594.92280	1.40271
1592.99424	1.36416
1591.06567	1.32879
1589.13711	1.29549
1587.20854	1.26416
1585.27998	1.23524
1583.35142	1.20851
1581.42285	1.18386
1579.49429	1.16250
1577.56572	1.14365
1575.63716	1.12123
1573.70859	1.10113
1571.78003	1.08775
1569.85146	1.07425
1567.92290	1.05990
1565.99434	1.04927
1564.06577	1.04102
1562.13721	1.03465
1560.20864	1.03057
1558.28008	1.02628
1556.35151	1.02223
1554.42295	1.01920
1552.49438	1.01636
1550.56582	1.01269
1548.63726	1.00696
1546.70869	0.99962
1544.78013	0.99062
1542.85156	0.97981
1540.92300	0.96528
1538.99443	0.94232
1537.06587	0.92488
1535.13730	0.91336
1533.20874	0.89862
1531.28018	0.88243
1529.35161	0.87023
1527.42305	0.85895
1525.49448	0.84762
1523.56592	0.83786
1521.63735	0.82803
1519.70879	0.81784
1517.78022	0.80939
1515.85166	0.79994
1513.92310	0.79008
1511.99453	0.78155
1510.06597	0.77406
1508.13740	0.76730
1506.20884	0.75649
1504.28027	0.74567
1502.35171	0.73928
1500.42314	0.73411
1498.49458	0.72890
1496.56602	0.72295
1494.63745	0.71709
1492.70889	0.71250
1490.78032	0.70852
1488.85176	0.70402
1486.92319	0.69964
1484.99463	0.69607
1483.06606	0.69326
1481.13750	0.69097
1479.20894	0.68918
1477.28037	0.68810
1475.35181	0.68768
1473.42324	0.68759
1471.49468	0.68660
1469.56611	0.68450
1467.63755	0.68232
1465.70898	0.68041
1463.78042	0.67857
1461.85186	0.67696
1459.92329	0.67601
1457.99473	0.67557
1456.06616	0.67416
1454.13760	0.67148
1452.20903	0.66892
1450.28047	0.66627
1448.35190	0.66352
1446.42334	0.66080
1444.49478	0.65818
1442.56621	0.65561
1440.63765	0.65303
1438.70908	0.65056
1436.78052	0.64770
1434.85195	0.64432
1432.92339	0.64146
1430.99482	0.63933
1429.06626	0.63780
1427.13770	0.63691
1425.20913	0.63651
1423.28057	0.63620
1421.35200	0.63575
1419.42344	0.63522
1417.49487	0.63445
1415.56631	0.63329
1413.63774	0.63225
1411.70918	0.63162
1409.78062	0.63156
1407.85205	0.63202
1405.92349	0.63277
1403.99492	0.63331
1402.06636	0.63311
1400.13779	0.63219
1398.20923	0.63066
1396.28066	0.62859
1394.35210	0.62575
1392.42354	0.62239
1390.49497	0.61933
1388.56641	0.61640
1386.63784	0.61288
1384.70928	0.60906
1382.78071	0.60560
1380.85215	0.60252
1378.92358	0.59985
1376.99502	0.59765
1375.06646	0.59591
1373.13789	0.59452
1371.20933	0.59355
1369.28076	0.59279
1367.35220	0.59181
1365.42363	0.59053
1363.49507	0.58918
1361.56650	0.58780
1359.63794	0.58647
1357.70937	0.58527
1355.78081	0.58407
1353.85225	0.58292
1351.92368	0.58199
1349.99512	0.58119
1348.06655	0.58030
1346.13799	0.57931
1344.20942	0.57842
1342.28086	0.57771
1340.35229	0.57715
1338.42373	0.57651
1336.49517	0.57563
1334.56660	0.57481
1332.63804	0.57437
1330.70947	0.57419
1328.78091	0.57410
1326.85234	0.57411
1324.92378	0.57417
1322.99521	0.57423
1321.06665	0.57430
1319.13809	0.57439
1317.20952	0.57429
1315.28096	0.57386
1313.35239	0.57327
1311.42383	0.57259
1309.49526	0.57189
1307.56670	0.57133
1305.63813	0.57095
1303.70957	0.57053
1301.78101	0.56998
1299.85244	0.56929
1297.92388	0.56841
1295.99531	0.56746
1294.06675	0.56661
1292.13818	0.56568
1290.20962	0.56460
1288.28105	0.56361
1286.35249	0.56271
1284.42393	0.56187
1282.49536	0.56093
1280.56680	0.55980
1278.63823	0.55871
1276.70967	0.55772
1274.78110	0.55675
1272.85254	0.55600
1270.92397	0.55543
1268.99541	0.55475
1267.06685	0.55399
1265.13828	0.55308
1263.20972	0.55207
1261.28115	0.55129
1259.35259	0.55088
1257.42402	0.55064
1255.49546	0.55038
1253.56689	0.55009
1251.63833	0.54995
1249.70977	0.54986
1247.78120	0.54968
1245.85264	0.54945
1243.92407	0.54905
1241.99551	0.54826
1240.06694	0.54704
1238.13838	0.54560
1236.20981	0.54411
1234.28125	0.54261
1232.35269	0.54103
1230.42412	0.53935
1228.49556	0.53772
1226.56699	0.53614
1224.63843	0.53465
1222.70986	0.53335
1220.78130	0.53217
1218.85273	0.53099
1216.92417	0.52989
1214.99561	0.52896
1213.06704	0.52820
1211.13848	0.52764
1209.20991	0.52707
1207.28135	0.52632
1205.35278	0.52548
1203.42422	0.52452
1201.49565	0.52349
1199.56709	0.52275
1197.63853	0.52231
1195.70996	0.52187
1193.78140	0.52131
1191.85283	0.52078
1189.92427	0.52044
1187.99570	0.52019
1186.06714	0.51991
1184.13857	0.51980
1182.21001	0.52002
1180.28145	0.52056
1178.35288	0.52139
1176.42432	0.52236
1174.49575	0.52338
1172.56719	0.52437
1170.63862	0.52510
1168.71006	0.52545
1166.78149	0.52574
1164.85293	0.52619
1162.92437	0.52664
1160.99580	0.52678
1159.06724	0.52657
1157.13867	0.52614
1155.21011	0.52551
1153.28154	0.52450
1151.35298	0.52296
1149.42441	0.52098
1147.49585	0.51864
1145.56729	0.51595
1143.63872	0.51317
1141.71016	0.51066
1139.78159	0.50848
1137.85303	0.50678
1135.92446	0.50560
1133.99590	0.50448
1132.06733	0.50327
1130.13877	0.50230
1128.21021	0.50153
1126.28164	0.50072
1124.35308	0.49995
1122.42451	0.49936
1120.49595	0.49908
1118.56738	0.49905
1116.63882	0.49915
1114.71025	0.49942
1112.78169	0.49994
1110.85312	0.50060
1108.92456	0.50143
1106.99600	0.50255
1105.06743	0.50374
1103.13887	0.50487
1101.21030	0.50612
1099.28174	0.50762
1097.35317	0.50956
1095.42461	0.51220
1093.49604	0.51555
1091.56748	0.51974
1089.63892	0.52533
1087.71035	0.53229
1085.78179	0.53993
1083.85322	0.54764
1081.92466	0.55474
1079.99609	0.56043
1078.06753	0.56393
1076.13896	0.56432
1074.21040	0.56152
1072.28184	0.55668
1070.35327	0.55073
1068.42471	0.54399
1066.49614	0.53693
1064.56758	0.53013
1062.63901	0.52410
1060.71045	0.51917
1058.78188	0.51502
1056.85332	0.51125
1054.92476	0.50793
1052.99619	0.50509
1051.06763	0.50272
1049.13906	0.50091
1047.21050	0.49949
1045.28193	0.49837
1043.35337	0.49771
1041.42480	0.49743
1039.49624	0.49710
1037.56768	0.49662
1035.63911	0.49625
1033.71055	0.49611
1031.78198	0.49581
1029.85342	0.49486
1027.92485	0.49369
1025.99629	0.49287
1024.06772	0.49219
1022.13916	0.49166
1020.21060	0.49158
1018.28203	0.49179
1016.35347	0.49206
1014.42490	0.49233
1012.49634	0.49258
1010.56777	0.49280
1008.63921	0.49315
1006.71064	0.49404
1004.78208	0.49561
1002.85352	0.49760
1000.92495	0.49991
998.99639	0.50295
997.06782	0.50692
995.13926	0.51133
993.21069	0.51557
991.28213	0.51907
989.35356	0.52125
987.42500	0.52211
985.49644	0.52243
983.56787	0.52283
981.63931	0.52349
979.71074	0.52446
977.78218	0.52577
975.85361	0.52765
973.92505	0.53017
971.99648	0.53319
970.06792	0.53664
968.13936	0.54056
966.21079	0.54485
964.28223	0.54935
962.35366	0.55406
960.42510	0.55905
958.49653	0.56468
956.56797	0.57082
954.63940	0.57689
952.71084	0.58273
950.78228	0.58881
948.85371	0.59535
946.92515	0.60178
944.99658	0.60785
943.06802	0.61428
941.13945	0.62136
939.21089	0.62803
937.28232	0.63370
935.35376	0.63909
933.42520	0.64463
931.49663	0.65020
929.56807	0.65592
927.63950	0.66191
925.71094	0.66825
923.78237	0.67501
921.85381	0.68160
919.92524	0.68751
917.99668	0.69364
916.06812	0.70067
914.13955	0.70819
912.21099	0.71639
910.28242	0.72531
908.35386	0.73380
906.42529	0.74253
904.49673	0.75274
902.56816	0.76400
900.63960	0.77514
898.71104	0.78379
896.78247	0.79055
894.85391	0.79930
892.92534	0.81024
890.99678	0.82167
889.06821	0.83341
887.13965	0.84490
885.21108	0.85613
883.28252	0.86798
881.35396	0.87977
879.42539	0.89084
877.49683	0.90249
875.56826	0.91464
873.63970	0.92612
871.71113	0.93705
869.78257	0.94771
867.85400	0.95915
865.92544	0.97186
863.99687	0.98485
862.06831	0.99812
860.13975	1.01132
858.21118	1.02414
856.28262	1.03652
854.35405	1.04776
852.42549	1.05824
850.49692	1.06823
848.56836	1.07814
846.63979	1.08943
844.71123	1.10169
842.78267	1.11385
840.85410	1.12689
838.92554	1.14167
836.99697	1.15673
835.06841	1.17004
833.13984	1.18205
831.21128	1.19172
829.28271	1.19745
827.35415	1.20320
825.42559	1.21439
823.49702	1.23563
821.56846	1.26176
819.63989	1.28177
817.71133	1.29887
815.78276	1.31861
813.85420	1.33298
811.92563	1.33886
809.99707	1.35165
808.06851	1.37829
806.13994	1.40523
804.21138	1.42525
802.28281	1.43761
800.35425	1.43205
798.42568	1.42409
796.49712	1.44636
794.56855	1.50128
792.63999	1.53451
790.71143	1.53840
788.78286	1.63215
786.85430	1.88976
784.92573	2.25192
782.99717	2.07823
781.06860	1.79744
779.14004	1.72085
777.21147	1.76364
775.28291	1.64556
773.35435	1.51270
771.42578	1.61991
769.49722	4.61698
767.56865	4.60541
765.64009	1.81111
763.71152	1.37949
761.78296	1.38762
759.85439	1.64732
757.92583	1.75571
755.99727	1.54370
754.06870	1.40588
752.14014	1.28176
750.21157	1.15721
748.28301	1.08386
746.35444	1.18470
744.42588	1.57770
742.49731	1.40701
740.56875	1.11372
738.64019	1.03880
736.71162	0.92105
734.78306	0.76813
732.85449	0.65342
730.92593	0.60034
728.99736	0.61708
727.06880	0.58283
725.14023	0.48433
723.21167	0.43566
721.28311	0.41897
719.35454	0.40373
717.42598	0.41468
715.49741	0.44337
713.56885	0.44156
711.64028	0.36858
709.71172	0.28858
707.78315	0.25563
705.85459	0.23433
703.92603	0.21518
701.99746	0.14443
700.06890	0.02989
698.14033	-0.01532
696.21177	0.00741
694.28320	0.02079
692.35464	0.03481
690.42607	0.07191
688.49751	0.09346
686.56895	0.08723
684.64038	0.14031
682.71182	0.23803
680.78325	0.26152
678.85469	0.25345
676.92612	0.21950
674.99756	0.09969
673.06899	0.03794
671.14043	0.12117
669.21187	0.22704
667.28330	0.26035
665.35474	0.22190
663.42617	0.14262
661.49761	0.10345
659.56904	0.11528
657.64048	0.15889
655.71191	0.20377
653.78335	0.23460
651.85479	0.31309
649.92622	0.37693
647.99766	0.18822
646.06909	0.03680
644.14053	-0.01406
642.21196	-0.00798
640.28340	0.05606
638.35483	0.14171
636.42627	0.21368
634.49771	0.21966
632.56914	0.12120
630.64058	0.10314
628.71201	0.18244
626.78345	0.17691
624.85488	0.14257
622.92632	0.19013
620.99775	0.30624
619.06919	0.39517
617.14062	0.34319
615.21206	0.24371
613.28350	0.16142
611.35493	0.09188
609.42637	0.07256
607.49780	0.10365
605.56924	0.16476
603.64067	0.25773
601.71211	0.26816
599.78354	0.19069
597.85498	0.11983
595.92642	0.08955
593.99785	0.09646
592.06929	0.08244
590.14072	0.01934
588.21216	0.00293
586.28359	0.07824
584.35503	0.22855
582.42646	0.31044
580.49790	0.25555
578.56934	0.17443
576.64077	0.11921
574.71221	0.09995
572.78364	0.11117
570.85508	0.13734
568.92651	0.17009
566.99795	0.23913
565.06938	0.32419
563.14082	0.30825
561.21226	0.24553
559.28369	0.22526
557.35513	0.21367
555.42656	0.15607
553.49800	0.11266
551.56943	0.09304
549.64087	0.06234
547.71230	0.04781
545.78374	0.06381
543.85518	0.07564
541.92661	0.07074
539.99805	0.07935
538.06948	0.10428
536.14092	0.11826
534.21235	0.11207
532.28379	0.10832
530.35522	0.11481
528.42666	0.12420
526.49810	0.14165
524.56953	0.15864
522.64097	0.18679
520.71240	0.25298
518.78384	0.18640
516.85527	0.03822
514.92671	-0.02462
512.99814	-0.00230
511.06958	0.05665
509.14102	0.11495
507.21245	0.13449
505.28389	0.14953
503.35532	0.16598
501.42676	0.14003
499.49819	0.08399
