3997.91411	0.07113
3995.98555	0.07108
3994.05698	0.07063
3992.12842	0.07064
3990.19985	0.07095
3988.27129	0.07123
3986.34272	0.07159
3984.41416	0.07192
3982.48560	0.07220
3980.55703	0.07263
3978.62847	0.07272
3976.69990	0.07233
3974.77134	0.07218
3972.84277	0.07254
3970.91421	0.07291
3968.98564	0.07308
3967.05708	0.07321
3965.12852	0.07335
3963.19995	0.07359
3961.27139	0.07407
3959.34282	0.07436
3957.41426	0.07404
3955.48569	0.07357
3953.55713	0.07338
3951.62856	0.07357
3949.70000	0.07416
3947.77144	0.07453
3945.84287	0.07439
3943.91431	0.07432
3941.98574	0.07433
3940.05718	0.07401
3938.12861	0.07366
3936.20005	0.07364
3934.27148	0.07389
3932.34292	0.07420
3930.41436	0.07428
3928.48579	0.07422
3926.55723	0.07418
3924.62866	0.07403
3922.70010	0.07367
3920.77153	0.07328
3918.84297	0.07310
3916.91440	0.07319
3914.98584	0.07326
3913.05728	0.07322
3911.12871	0.07346
3909.20015	0.07356
3907.27158	0.07323
3905.34302	0.07315
3903.41445	0.07355
3901.48589	0.07403
3899.55732	0.07436
3897.62876	0.07433
3895.70020	0.07398
3893.77163	0.07381
3891.84307	0.07402
3889.91450	0.07411
3887.98594	0.07362
3886.05737	0.07343
3884.12881	0.07416
3882.20024	0.07489
3880.27168	0.07487
3878.34312	0.07423
3876.41455	0.07378
3874.48599	0.07423
3872.55742	0.07492
3870.62886	0.07503
3868.70029	0.07485
3866.77173	0.07454
3864.84316	0.07482
3862.91460	0.07570
3860.98604	0.07594
3859.05747	0.07586
3857.12891	0.07612
3855.20034	0.07647
3853.27178	0.07715
3851.34321	0.07854
3849.41465	0.07920
3847.48608	0.07936
3845.55752	0.07965
3843.62896	0.08035
3841.70039	0.08153
3839.77183	0.08249
3837.84326	0.08300
3835.91470	0.08357
3833.98613	0.08439
3832.05757	0.08504
3830.12900	0.08530
3828.20044	0.08560
3826.27187	0.08624
3824.34331	0.08673
3822.41475	0.08721
3820.48618	0.08898
3818.55762	0.09089
3816.62905	0.09110
3814.70049	0.09106
3812.77192	0.09158
3810.84336	0.09231
3808.91479	0.09315
3806.98623	0.09422
3805.05767	0.09555
3803.12910	0.09679
3801.20054	0.09812
3799.27197	0.09949
3797.34341	0.10070
3795.41484	0.10234
3793.48628	0.10362
3791.55771	0.10390
3789.62915	0.10407
3787.70059	0.10505
3785.77202	0.10695
3783.84346	0.10905
3781.91489	0.11068
3779.98633	0.11194
3778.05776	0.11354
3776.12920	0.11521
3774.20063	0.11644
3772.27207	0.11772
3770.34351	0.11945
3768.41494	0.12136
3766.48638	0.12316
3764.55781	0.12476
3762.62925	0.12631
3760.70068	0.12861
3758.77212	0.13188
3756.84355	0.13491
3754.91499	0.13687
3752.98643	0.13886
3751.05786	0.14216
3749.12930	0.14605
3747.20073	0.14841
3745.27217	0.15043
3743.34360	0.15387
3741.41504	0.15717
3739.48647	0.15960
3737.55791	0.16289
3735.62935	0.16797
3733.70078	0.17365
3731.77222	0.17792
3729.84365	0.18131
3727.91509	0.18490
3725.98652	0.18980
3724.05796	0.19629
3722.12939	0.20353
3720.20083	0.21112
3718.27227	0.21856
3716.34370	0.22587
3714.41514	0.23320
3712.48657	0.24164
3710.55801	0.25357
3708.62944	0.26747
3706.70088	0.27939
3704.77231	0.29048
3702.84375	0.30317
3700.91519	0.31956
3698.98662	0.33784
3697.05806	0.35541
3695.12949	0.37385
3693.20093	0.39325
3691.27236	0.41408
3689.34380	0.44078
3687.41523	0.47457
3685.48667	0.50552
3683.55811	0.53186
3681.62954	0.55919
3679.70098	0.58999
3677.77241	0.62245
3675.84385	0.66040
3673.91528	0.71233
3671.98672	0.75601
3670.05815	0.79427
3668.12959	0.84619
3666.20103	0.89437
3664.27246	0.93515
3662.34390	0.97853
3660.41533	1.02457
3658.48677	1.06954
3656.55820	1.11756
3654.62964	1.17138
3652.70107	1.21704
3650.77251	1.25695
3648.84395	1.31193
3646.91538	1.37956
3644.98682	1.42917
3643.05825	1.46738
3641.12969	1.50661
3639.20112	1.54967
3637.27256	1.59338
3635.34399	1.63618
3633.41543	1.67843
3631.48687	1.71762
3629.55830	1.75772
3627.62974	1.81142
3625.70117	1.86218
3623.77261	1.89551
3621.84404	1.92611
3619.91548	1.96174
3617.98691	2.00687
3616.05835	2.05143
3614.12979	2.08811
3612.20122	2.12582
3610.27266	2.16410
3608.34409	2.20354
3606.41553	2.24676
3604.48696	2.28763
3602.55840	2.32378
3600.62983	2.36195
3598.70127	2.40320
3596.77271	2.44316
3594.84414	2.48297
3592.91558	2.52379
3590.98701	2.56212
3589.05845	2.59850
3587.12988	2.64349
3585.20132	2.69370
3583.27275	2.73511
3581.34419	2.77193
3579.41562	2.81093
3577.48706	2.85240
3575.55850	2.89479
3573.62993	2.93847
3571.70137	2.98087
3569.77280	3.02011
3567.84424	3.06065
3565.91567	3.11221
3563.98711	3.16491
3562.05854	3.20793
3560.12998	3.24872
3558.20142	3.29026
3556.27285	3.33294
3554.34429	3.37639
3552.41572	3.42217
3550.48716	3.46981
3548.55859	3.51574
3546.63003	3.56180
3544.70146	3.61287
3542.77290	3.66440
3540.84434	3.71253
3538.91577	3.75841
3536.98721	3.80086
3535.05864	3.84635
3533.13008	3.89775
3531.20151	3.94934
3529.27295	3.99771
3527.34438	4.04192
3525.41582	4.08394
3523.48726	4.13150
3521.55869	4.18417
3519.63013	4.23344
3517.70156	4.28089
3515.77300	4.32692
3513.84443	4.37042
3511.91587	4.41663
3509.98730	4.47050
3508.05874	4.52650
3506.13018	4.57522
3504.20161	4.62022
3502.27305	4.66758
3500.34448	4.71716
3498.41592	4.76430
3496.48735	4.80934
3494.55879	4.85941
3492.63022	4.91084
3490.70166	4.95659
3488.77310	5.00073
3486.84453	5.04524
3484.91597	5.09026
3482.98740	5.13912
3481.05884	5.18999
3479.13027	5.23402
3477.20171	5.27033
3475.27314	5.31347
3473.34458	5.37302
3471.41602	5.43672
3469.48745	5.49338
3467.55889	5.54638
3465.63032	5.59125
3463.70176	5.62844
3461.77319	5.66849
3459.84463	5.71194
3457.91606	5.76067
3455.98750	5.81737
3454.05894	5.87061
3452.13037	5.91810
3450.20181	5.96478
3448.27324	6.01208
3446.34468	6.07044
3444.41611	6.13294
3442.48755	6.18798
3440.55898	6.23680
3438.63042	6.28245
3436.70186	6.32527
3434.77329	6.36256
3432.84473	6.39522
3430.91616	6.42993
3428.98760	6.47754
3427.05903	6.53471
3425.13047	6.60199
3423.20190	6.67727
3421.27334	6.74115
3419.34478	6.78601
3417.41621	6.83878
3415.48765	6.90215
3413.55908	6.95090
3411.63052	7.00365
3409.70195	7.05292
3407.77339	7.06386
3405.84482	7.06654
3403.91626	7.10971
3401.98770	7.16894
3400.05913	7.21879
3398.13057	7.28807
3396.20200	7.37536
3394.27344	7.43345
3392.34487	7.44449
3390.41631	7.44341
3388.48774	7.45116
3386.55918	7.47546
3384.63062	7.48473
3382.70205	7.48011
3380.77349	7.50949
3378.84492	7.57330
3376.91636	7.62735
3374.98779	7.64632
3373.05923	7.66992
3371.13066	7.69660
3369.20210	7.73439
3367.27354	7.78827
3365.34497	7.81707
3363.41641	7.81768
3361.48784	7.84307
3359.55928	7.93390
3357.63071	8.01618
3355.70215	8.00851
3353.77358	7.96317
3351.84502	7.97458
3349.91646	8.00479
3347.98789	7.98581
3346.05933	7.96291
3344.13076	8.01713
3342.20220	8.12576
3340.27363	8.16766
3338.34507	8.11796
3336.41650	8.05529
3334.48794	8.05638
3332.55937	8.07679
3330.63081	8.08529
3328.70225	8.07935
3326.77368	8.00472
3324.84512	7.92898
3322.91655	7.97577
3320.98799	8.12995
3319.05942	8.19722
3317.13086	8.12807
3315.20229	8.06994
3313.27373	8.06852
3311.34517	8.06692
3309.41660	8.08253
3307.48804	8.15322
3305.55947	8.19643
3303.63091	8.19800
3301.70234	8.22578
3299.77378	8.24743
3297.84521	8.24708
3295.91665	8.30649
3293.98809	8.36730
3292.05952	8.37431
3290.13096	8.32151
3288.20239	8.20165
3286.27383	8.16311
3284.34526	8.22450
3282.41670	8.28009
3280.48813	8.29479
3278.55957	8.30114
3276.63101	8.32796
3274.70244	8.38644
3272.77388	8.41664
3270.84531	8.34762
3268.91675	8.25847
3266.98818	8.19935
3265.05962	8.20166
3263.13105	8.27236
3261.20249	8.30669
3259.27393	8.25816
3257.34536	8.24486
3255.41680	8.31695
3253.48823	8.32267
3251.55967	8.21089
3249.63110	8.13149
3247.70254	8.14194
3245.77397	8.21173
3243.84541	8.26893
3241.91685	8.24896
3239.98828	8.21525
3238.05972	8.20951
3236.13115	8.17666
3234.20259	8.08073
3232.27402	8.05036
3230.34546	8.20710
3228.41689	8.37276
3226.48833	8.33616
3224.55977	8.23088
3222.63120	8.18115
3220.70264	8.18883
3218.77407	8.22602
3216.84551	8.22392
3214.91694	8.15498
3212.98838	8.04024
3211.05981	7.93463
3209.13125	7.92296
3207.20269	7.97285
3205.27412	7.98701
3203.34556	7.96091
3201.41699	7.95679
3199.48843	7.96833
3197.55986	7.89468
3195.63130	7.77418
3193.70273	7.73363
3191.77417	7.73538
3189.84561	7.67434
3187.91704	7.57555
3185.98848	7.50826
3184.05991	7.46953
3182.13135	7.42198
3180.20278	7.35862
3178.27422	7.30380
3176.34565	7.27198
3174.41709	7.22723
3172.48853	7.14756
3170.55996	7.06931
3168.63140	6.99643
3166.70283	6.92521
3164.77427	6.87784
3162.84570	6.83670
3160.91714	6.77258
3158.98857	6.71314
3157.06001	6.68732
3155.13145	6.65779
3153.20288	6.57963
3151.27432	6.47570
3149.34575	6.38443
3147.41719	6.30776
3145.48862	6.23813
3143.56006	6.17219
3141.63149	6.11003
3139.70293	6.05344
3137.77437	5.99161
3135.84580	5.91182
3133.91724	5.82225
3131.98867	5.74815
3130.06011	5.68935
3128.13154	5.61518
3126.20298	5.53224
3124.27441	5.46514
3122.34585	5.40032
3120.41729	5.32809
3118.48872	5.26100
3116.56016	5.20067
3114.63159	5.13286
3112.70303	5.04908
3110.77446	4.96382
3108.84590	4.89268
3106.91733	4.83043
3104.98877	4.76782
3103.06021	4.70271
3101.13164	4.63259
3099.20308	4.55888
3097.27451	4.48585
3095.34595	4.41535
3093.41738	4.34962
3091.48882	4.28867
3089.56025	4.22877
3087.63169	4.16583
3085.70312	4.09879
3083.77456	4.03227
3081.84600	3.96971
3079.91743	3.90915
3077.98887	3.85014
3076.06030	3.79050
3074.13174	3.72790
3072.20317	3.66658
3070.27461	3.60830
3068.34604	3.55059
3066.41748	3.49304
3064.48892	3.43698
3062.56035	3.38326
3060.63179	3.33037
3058.70322	3.27607
3056.77466	3.22056
3054.84609	3.16575
3052.91753	3.11260
3050.98896	3.06092
3049.06040	3.00956
3047.13184	2.95709
3045.20327	2.90464
3043.27471	2.85455
3041.34614	2.80647
3039.41758	2.75911
3037.48901	2.71209
3035.56045	2.66540
3033.63188	2.61937
3031.70332	2.57438
3029.77476	2.53041
3027.84619	2.48650
3025.91763	2.44248
3023.98906	2.39976
3022.06050	2.35816
3020.13193	2.31639
3018.20337	2.27513
3016.27480	2.23503
3014.34624	2.19512
3012.41768	2.15503
3010.48911	2.11541
3008.56055	2.07732
3006.63198	2.04117
3004.70342	2.00598
3002.77485	1.97079
3000.84629	1.93591
2998.91772	1.90187
2996.98916	1.86817
2995.06060	1.83456
2993.13203	1.80208
2991.20347	1.77140
2989.27490	1.74122
2987.34634	1.71036
2985.41777	1.67980
2983.48921	1.65057
2981.56064	1.62232
2979.63208	1.59465
2977.70352	1.56736
2975.77495	1.54000
2973.84639	1.51259
2971.91782	1.48583
2969.98926	1.46011
2968.06069	1.43517
2966.13213	1.41066
2964.20356	1.38628
2962.27500	1.36192
2960.34644	1.33767
2958.41787	1.31370
2956.48931	1.29001
2954.56074	1.26674
2952.63218	1.24401
2950.70361	1.22143
2948.77505	1.19890
2946.84648	1.17671
2944.91792	1.15491
2942.98936	1.13345
2941.06079	1.11253
2939.13223	1.09272
2937.20366	1.07379
2935.27510	1.05466
2933.34653	1.03495
2931.41797	1.01519
2929.48940	0.99582
2927.56084	0.97689
2925.63228	0.95861
2923.70371	0.94128
2921.77515	0.92468
2919.84658	0.90848
2917.91802	0.89210
2915.98945	0.87520
2914.06089	0.85847
2912.13232	0.84259
2910.20376	0.82737
2908.27520	0.81264
2906.34663	0.79855
2904.41807	0.78493
2902.48950	0.77134
2900.56094	0.75750
2898.63237	0.74371
2896.70381	0.73046
2894.77524	0.71789
2892.84668	0.70596
2890.91812	0.69441
2888.98955	0.68301
2887.06099	0.67182
2885.13242	0.66082
2883.20386	0.65006
2881.27529	0.63966
2879.34673	0.62938
2877.41816	0.61908
2875.48960	0.60911
2873.56104	0.59950
2871.63247	0.58963
2869.70391	0.57941
2867.77534	0.56901
2865.84678	0.55832
2863.91821	0.54753
2861.98965	0.53715
2860.06108	0.52752
2858.13252	0.51840
2856.20396	0.50924
2854.27539	0.50015
2852.34683	0.49152
2850.41826	0.48349
2848.48970	0.47590
2846.56113	0.46847
2844.63257	0.46131
2842.70400	0.45455
2840.77544	0.44791
2838.84687	0.44120
2836.91831	0.43480
2834.98975	0.42885
2833.06118	0.42296
2831.13262	0.41696
2829.20405	0.41110
2827.27549	0.40531
2825.34692	0.39950
2823.41836	0.39379
2821.48979	0.38805
2819.56123	0.38219
2817.63267	0.37650
2815.70410	0.37108
2813.77554	0.36575
2811.84697	0.36055
2809.91841	0.35564
2807.98984	0.35072
2806.06128	0.34545
2804.13271	0.34009
2802.20415	0.33505
2800.27559	0.33051
2798.34702	0.32621
2796.41846	0.32161
2794.48989	0.31679
2792.56133	0.31227
2790.63276	0.30808
2788.70420	0.30392
2786.77563	0.29968
2784.84707	0.29550
2782.91851	0.29145
2780.98994	0.28756
2779.06138	0.28386
2777.13281	0.28027
2775.20425	0.27676
2773.27568	0.27318
2771.34712	0.26952
2769.41855	0.26604
2767.48999	0.26281
2765.56143	0.25963
2763.63286	0.25637
2761.70430	0.25309
2759.77573	0.24983
2757.84717	0.24656
2755.91860	0.24350
2753.99004	0.24077
2752.06147	0.23811
2750.13291	0.23538
2748.20435	0.23258
2746.27578	0.22965
2744.34722	0.22683
2742.41865	0.22443
2740.49009	0.22214
2738.56152	0.21964
2736.63296	0.21718
2734.70439	0.21481
2732.77583	0.21252
2730.84727	0.21047
2728.91870	0.20852
2726.99014	0.20645
2725.06157	0.20434
2723.13301	0.20223
2721.20444	0.20002
2719.27588	0.19797
2717.34731	0.19611
2715.41875	0.19425
2713.49019	0.19241
2711.56162	0.19070
2709.63306	0.18911
2707.70449	0.18753
2705.77593	0.18592
2703.84736	0.18446
2701.91880	0.18311
2699.99023	0.18169
2698.06167	0.18016
2696.13311	0.17870
2694.20454	0.17745
2692.27598	0.17623
2690.34741	0.17495
2688.41885	0.17376
2686.49028	0.17270
2684.56172	0.17164
2682.63315	0.17049
2680.70459	0.16924
2678.77603	0.16794
2676.84746	0.16678
2674.91890	0.16575
2672.99033	0.16485
2671.06177	0.16404
2669.13320	0.16325
2667.20464	0.16252
2665.27607	0.16173
2663.34751	0.16081
2661.41895	0.16002
2659.49038	0.15938
2657.56182	0.15864
2655.63325	0.15781
2653.70469	0.15711
2651.77612	0.15661
2649.84756	0.15606
2647.91899	0.15526
2645.99043	0.15452
2644.06187	0.15402
2642.13330	0.15355
2640.20474	0.15312
2638.27617	0.15275
2636.34761	0.15231
2634.41904	0.15184
2632.49048	0.15143
2630.56191	0.15108
2628.63335	0.15074
2626.70479	0.15035
2624.77622	0.15004
2622.84766	0.14990
2620.91909	0.14971
2618.99053	0.14940
2617.06196	0.14918
2615.13340	0.14909
2613.20483	0.14902
2611.27627	0.14907
2609.34771	0.14919
2607.41914	0.14918
2605.49058	0.14911
2603.56201	0.14898
2601.63345	0.14884
2599.70488	0.14903
2597.77632	0.14941
2595.84775	0.14948
2593.91919	0.14931
2591.99062	0.14927
2590.06206	0.14948
2588.13350	0.14973
2586.20493	0.14987
2584.27637	0.14998
2582.34780	0.15028
2580.41924	0.15070
2578.49067	0.15105
2576.56211	0.15140
2574.63354	0.15184
2572.70498	0.15220
2570.77642	0.15241
2568.84785	0.15268
2566.91929	0.15313
2564.99072	0.15367
2563.06216	0.15414
2561.13359	0.15462
2559.20503	0.15514
2557.27646	0.15559
2555.34790	0.15601
2553.41934	0.15656
2551.49077	0.15726
2549.56221	0.15793
2547.63364	0.15836
2545.70508	0.15876
2543.77651	0.15940
2541.84795	0.16021
2539.91938	0.16095
2537.99082	0.16157
2536.06226	0.16220
2534.13369	0.16298
2532.20513	0.16374
2530.27656	0.16438
2528.34800	0.16498
2526.41943	0.16557
2524.49087	0.16625
2522.56230	0.16709
2520.63374	0.16804
2518.70518	0.16894
2516.77661	0.16968
2514.84805	0.17034
2512.91948	0.17106
2510.99092	0.17181
2509.06235	0.17261
2507.13379	0.17348
2505.20522	0.17432
2503.27666	0.17505
2501.34810	0.17579
2499.41953	0.17668
2497.49097	0.17772
2495.56240	0.17878
2493.63384	0.17965
2491.70527	0.18035
2489.77671	0.18119
2487.84814	0.18204
2485.91958	0.18279
2483.99102	0.18378
2482.06245	0.18501
2480.13389	0.18608
2478.20532	0.18693
2476.27676	0.18778
2474.34819	0.18862
2472.41963	0.18939
2470.49106	0.19022
2468.56250	0.19122
2466.63394	0.19239
2464.70537	0.19347
2462.77681	0.19430
2460.84824	0.19510
2458.91968	0.19611
2456.99111	0.19724
2455.06255	0.19824
2453.13398	0.19915
2451.20542	0.20008
2449.27686	0.20097
2447.34829	0.20189
2445.41973	0.20280
2443.49116	0.20371
2441.56260	0.20476
2439.63403	0.20588
2437.70547	0.20694
2435.77690	0.20799
2433.84834	0.20908
2431.91978	0.21022
2429.99121	0.21134
2428.06265	0.21241
2426.13408	0.21349
2424.20552	0.21456
2422.27695	0.21555
2420.34839	0.21652
2418.41982	0.21768
2416.49126	0.21897
2414.56270	0.22012
2412.63413	0.22112
2410.70557	0.22221
2408.77700	0.22343
2406.84844	0.22464
2404.91987	0.22585
2402.99131	0.22704
2401.06274	0.22822
2399.13418	0.22953
2397.20562	0.23085
2395.27705	0.23204
2393.34849	0.23331
2391.41992	0.23465
2389.49136	0.23579
2387.56279	0.23685
2385.63423	0.23789
2383.70566	0.23864
2381.77710	0.23915
2379.84854	0.23966
2377.91997	0.24021
2375.99141	0.24057
2374.06284	0.24051
2372.13428	0.24025
2370.20571	0.24025
2368.27715	0.24054
2366.34858	0.24077
2364.42002	0.24088
2362.49146	0.24224
2360.56289	0.24460
2358.63433	0.24606
2356.70576	0.24808
2354.77720	0.25150
2352.84863	0.25490
2350.92007	0.25748
2348.99150	0.25887
2347.06294	0.25936
2345.13437	0.25960
2343.20581	0.26007
2341.27725	0.26095
2339.34868	0.26233
2337.42012	0.26454
2335.49155	0.26750
2333.56299	0.27006
2331.63442	0.27160
2329.70586	0.27286
2327.77729	0.27455
2325.84873	0.27652
2323.92017	0.27863
2321.99160	0.28118
2320.06304	0.28392
2318.13447	0.28622
2316.20591	0.28838
2314.27734	0.29101
2312.34878	0.29383
2310.42021	0.29627
2308.49165	0.29836
2306.56309	0.30038
2304.63452	0.30221
2302.70596	0.30379
2300.77739	0.30547
2298.84883	0.30743
2296.92026	0.30959
2294.99170	0.31188
2293.06313	0.31422
2291.13457	0.31640
2289.20601	0.31844
2287.27744	0.32053
2285.34888	0.32265
2283.42031	0.32470
2281.49175	0.32664
2279.56318	0.32856
2277.63462	0.33059
2275.70605	0.33268
2273.77749	0.33471
2271.84893	0.33670
2269.92036	0.33874
2267.99180	0.34091
2266.06323	0.34317
2264.13467	0.34539
2262.20610	0.34746
2260.27754	0.34942
2258.34897	0.35150
2256.42041	0.35368
2254.49185	0.35581
2252.56328	0.35804
2250.63472	0.36045
2248.70615	0.36281
2246.77759	0.36501
2244.84902	0.36710
2242.92046	0.36917
2240.99189	0.37132
2239.06333	0.37357
2237.13477	0.37597
2235.20620	0.37839
2233.27764	0.38066
2231.34907	0.38290
2229.42051	0.38516
2227.49194	0.38730
2225.56338	0.38934
2223.63481	0.39147
2221.70625	0.39376
2219.77769	0.39606
2217.84912	0.39819
2215.92056	0.40033
2213.99199	0.40266
2212.06343	0.40495
2210.13486	0.40708
2208.20630	0.40916
2206.27773	0.41122
2204.34917	0.41328
2202.42061	0.41531
2200.49204	0.41719
2198.56348	0.41899
2196.63491	0.42081
2194.70635	0.42271
2192.77778	0.42469
2190.84922	0.42673
2188.92065	0.42876
2186.99209	0.43071
2185.06353	0.43244
2183.13496	0.43409
2181.20640	0.43583
2179.27783	0.43748
2177.34927	0.43899
2175.42070	0.44059
2173.49214	0.44223
2171.56357	0.44374
2169.63501	0.44509
2167.70645	0.44632
2165.77788	0.44760
2163.84932	0.44893
2161.92075	0.45001
2159.99219	0.45086
2158.06362	0.45168
2156.13506	0.45257
2154.20649	0.45350
2152.27793	0.45436
2150.34937	0.45514
2148.42080	0.45590
2146.49224	0.45654
2144.56367	0.45698
2142.63511	0.45737
2140.70654	0.45772
2138.77798	0.45798
2136.84941	0.45810
2134.92085	0.45807
2132.99229	0.45797
2131.06372	0.45783
2129.13516	0.45767
2127.20659	0.45746
2125.27803	0.45718
2123.34946	0.45679
2121.42090	0.45628
2119.49233	0.45567
2117.56377	0.45499
2115.63521	0.45423
2113.70664	0.45339
2111.77808	0.45246
2109.84951	0.45138
2107.92095	0.45017
2105.99238	0.44899
2104.06382	0.44783
2102.13525	0.44655
2100.20669	0.44513
2098.27812	0.44373
2096.34956	0.44245
2094.42100	0.44110
2092.49243	0.43947
2090.56387	0.43759
2088.63530	0.43562
2086.70674	0.43380
2084.77817	0.43209
2082.84961	0.43028
2080.92104	0.42825
2078.99248	0.42610
2077.06392	0.42393
2075.13535	0.42182
2073.20679	0.41972
2071.27822	0.41750
2069.34966	0.41519
2067.42109	0.41283
2065.49253	0.41048
2063.56396	0.40810
2061.63540	0.40563
2059.70684	0.40302
2057.77827	0.40035
2055.84971	0.39785
2053.92114	0.39545
2051.99258	0.39284
2050.06401	0.39009
2048.13545	0.38749
2046.20688	0.38494
2044.27832	0.38224
2042.34976	0.37948
2040.42119	0.37686
2038.49263	0.37418
2036.56406	0.37132
2034.63550	0.36844
2032.70693	0.36567
2030.77837	0.36290
2028.84980	0.36001
2026.92124	0.35711
2024.99268	0.35429
2023.06411	0.35159
2021.13555	0.34891
2019.20698	0.34620
2017.27842	0.34346
2015.34985	0.34057
2013.42129	0.33770
2011.49272	0.33506
2009.56416	0.33256
2007.63560	0.32993
2005.70703	0.32716
2003.77847	0.32443
2001.84990	0.32179
1999.92134	0.31921
1997.99277	0.31657
1996.06421	0.31392
1994.13564	0.31145
1992.20708	0.30915
1990.27852	0.30676
1988.34995	0.30423
1986.42139	0.30169
1984.49282	0.29927
1982.56426	0.29696
1980.63569	0.29457
1978.70713	0.29221
1976.77856	0.29003
1974.85000	0.28787
1972.92144	0.28564
1970.99287	0.28346
1969.06431	0.28139
1967.13574	0.27934
1965.20718	0.27728
1963.27861	0.27534
1961.35005	0.27354
1959.42148	0.27178
1957.49292	0.27003
1955.56436	0.26824
1953.63579	0.26639
1951.70723	0.26460
1949.77866	0.26293
1947.85010	0.26126
1945.92153	0.25964
1943.99297	0.25824
1942.06440	0.25695
1940.13584	0.25559
1938.20728	0.25416
1936.27871	0.25279
1934.35015	0.25153
1932.42158	0.25038
1930.49302	0.24926
1928.56445	0.24818
1926.63589	0.24708
1924.70732	0.24606
1922.77876	0.24511
1920.85020	0.24413
1918.92163	0.24317
1916.99307	0.24226
1915.06450	0.24132
1913.13594	0.24044
1911.20737	0.23978
1909.27881	0.23917
1907.35024	0.23846
1905.42168	0.23770
1903.49312	0.23706
1901.56455	0.23649
1899.63599	0.23596
1897.70742	0.23556
1895.77886	0.23522
1893.85029	0.23488
1891.92173	0.23457
1889.99316	0.23438
1888.06460	0.23412
1886.13604	0.23377
1884.20747	0.23353
1882.27891	0.23347
1880.35034	0.23349
1878.42178	0.23348
1876.49321	0.23346
1874.56465	0.23343
1872.63608	0.23345
1870.70752	0.23362
1868.77896	0.23404
1866.85039	0.23438
1864.92183	0.23443
1862.99326	0.23450
1861.06470	0.23480
1859.13613	0.23530
1857.20757	0.23570
1855.27900	0.23605
1853.35044	0.23651
1851.42187	0.23708
1849.49331	0.23758
1847.56475	0.23814
1845.63618	0.23888
1843.70762	0.23985
1841.77905	0.24073
1839.85049	0.24130
1837.92192	0.24201
1835.99336	0.24284
1834.06479	0.24380
1832.13623	0.24487
1830.20767	0.24633
1828.27910	0.24785
1826.35054	0.24888
1824.42197	0.25001
1822.49341	0.25130
1820.56484	0.25262
1818.63628	0.25400
1816.70771	0.25560
1814.77915	0.25724
1812.85059	0.25896
1810.92202	0.26093
1808.99346	0.26304
1807.06489	0.26509
1805.13633	0.26704
1803.20776	0.26929
1801.27920	0.27187
1799.35063	0.27473
1797.42207	0.27731
1795.49351	0.27963
1793.56494	0.28218
1791.63638	0.28565
1789.70781	0.28925
1787.77925	0.29201
1785.85068	0.29511
1783.92212	0.29880
1781.99355	0.30279
1780.06499	0.30697
1778.13643	0.31133
1776.20786	0.31543
1774.27930	0.31961
1772.35073	0.32517
1770.42217	0.33162
1768.49360	0.33728
1766.56504	0.34250
1764.63647	0.34769
1762.70791	0.35345
1760.77935	0.36095
1758.85078	0.36812
1756.92222	0.37530
1754.99365	0.38310
1753.06509	0.39013
1751.13652	0.39839
1749.20796	0.40884
1747.27939	0.41930
1745.35083	0.42858
1743.42227	0.43844
1741.49370	0.44935
1739.56514	0.46211
1737.63657	0.47473
1735.70801	0.48567
1733.77944	0.50192
1731.85088	0.52148
1729.92231	0.53717
1727.99375	0.55311
1726.06519	0.57017
1724.13662	0.58860
1722.20806	0.60839
1720.27949	0.62664
1718.35093	0.64791
1716.42236	0.67950
1714.49380	0.70988
1712.56523	0.73467
1710.63667	0.75874
1708.70811	0.78454
1706.77954	0.81369
1704.85098	0.84844
1702.92241	0.87943
1700.99385	0.90964
1699.06528	0.95431
1697.13672	0.99639
1695.20815	1.04083
1693.27959	1.08367
1691.35103	1.11745
1689.42246	1.15606
1687.49390	1.19674
1685.56533	1.23580
1683.63677	1.29643
1681.70820	1.36011
1679.77964	1.40093
1677.85107	1.43950
1675.92251	1.48383
1673.99395	1.53818
1672.06538	1.58594
1670.13682	1.63243
1668.20825	1.69387
1666.27969	1.74529
1664.35112	1.78901
1662.42256	1.84299
1660.49399	1.90315
1658.56543	1.95031
1656.63687	1.98870
1654.70830	2.02341
1652.77974	2.07676
1650.85117	2.12802
1648.92261	2.14730
1646.99404	2.17237
1645.06548	2.20198
1643.13691	2.22121
1641.20835	2.23062
1639.27979	2.23781
1637.35122	2.24311
1635.42266	2.24397
1633.49409	2.23528
1631.56553	2.22102
1629.63696	2.20497
1627.70840	2.17789
1625.77983	2.14583
1623.85127	2.10756
1621.92271	2.06029
1619.99414	2.01686
1618.06558	1.97426
1616.13701	1.91305
1614.20845	1.84966
1612.27988	1.80091
1610.35132	1.75027
1608.42275	1.69569
1606.49419	1.64231
1604.56562	1.59319
1602.63706	1.54554
1600.70850	1.49891
1598.77993	1.45588
1596.85137	1.41522
1594.92280	1.37592
1592.99424	1.33841
1591.06567	1.30399
1589.13711	1.27162
1587.20854	1.24161
1585.27998	1.21384
1583.35142	1.18754
1581.42285	1.16338
1579.49429	1.14286
1577.56572	1.12426
1575.63716	1.10158
1573.70859	1.08208
1571.78003	1.06956
1569.85146	1.05634
1567.92290	1.04191
1565.99434	1.03115
1564.06577	1.02245
1562.13721	1.01530
1560.20864	1.01009
1558.28008	1.00436
1556.35151	0.99970
1554.42295	0.99625
1552.49438	0.99295
1550.56582	0.98903
1548.63726	0.98331
1546.70869	0.97602
1544.78013	0.96680
1542.85156	0.95556
1540.92300	0.94087
1538.99443	0.91931
1537.06587	0.90362
1535.13730	0.89288
1533.20874	0.87868
1531.28018	0.86339
1529.35161	0.85214
1527.42305	0.84161
1525.49448	0.83074
1523.56592	0.82128
1521.63735	0.81193
1519.70879	0.80236
1517.78022	0.79435
1515.85166	0.78539
1513.92310	0.77634
1511.99453	0.76864
1510.06597	0.76149
1508.13740	0.75411
1506.20884	0.74286
1504.28027	0.73352
1502.35171	0.72839
1500.42314	0.72372
1498.49458	0.71837
1496.56602	0.71211
1494.63745	0.70624
1492.70889	0.70165
1490.78032	0.69740
1488.85176	0.69237
1486.92319	0.68749
1484.99463	0.68351
1483.06606	0.68018
1481.13750	0.67719
1479.20894	0.67470
1477.28037	0.67294
1475.35181	0.67161
1473.42324	0.67036
1471.49468	0.66859
1469.56611	0.66636
1467.63755	0.66407
1465.70898	0.66191
1463.78042	0.65997
1461.85186	0.65848
1459.92329	0.65749
1457.99473	0.65662
1456.06616	0.65542
1454.13760	0.65388
1452.20903	0.65216
1450.28047	0.65013
1448.35190	0.64787
1446.42334	0.64554
1444.49478	0.64353
1442.56621	0.64169
1440.63765	0.63953
1438.70908	0.63701
1436.78052	0.63406
1434.85195	0.63117
1432.92339	0.62902
1430.99482	0.62743
1429.06626	0.62617
1427.13770	0.62524
1425.20913	0.62471
1423.28057	0.62450
1421.35200	0.62427
1419.42344	0.62370
1417.49487	0.62272
1415.56631	0.62159
1413.63774	0.62078
1411.70918	0.62042
1409.78062	0.62049
1407.85205	0.62078
1405.92349	0.62110
1403.99492	0.62129
1402.06636	0.62097
1400.13779	0.62014
1398.20923	0.61889
1396.28066	0.61713
1394.35210	0.61463
1392.42354	0.61161
1390.49497	0.60870
1388.56641	0.60581
1386.63784	0.60245
1384.70928	0.59892
1382.78071	0.59563
1380.85215	0.59250
1378.92358	0.58971
1376.99502	0.58750
1375.06646	0.58593
1373.13789	0.58475
1371.20933	0.58369
1369.28076	0.58268
1367.35220	0.58156
1365.42363	0.58032
1363.49507	0.57901
1361.56650	0.57765
1359.63794	0.57642
1357.70937	0.57534
1355.78081	0.57428
1353.85225	0.57323
1351.92368	0.57230
1349.99512	0.57158
1348.06655	0.57096
1346.13799	0.57020
1344.20942	0.56930
1342.28086	0.56851
1340.35229	0.56797
1338.42373	0.56738
1336.49517	0.56662
1334.56660	0.56598
1332.63804	0.56560
1330.70947	0.56536
1328.78091	0.56519
1326.85234	0.56521
1324.92378	0.56533
1322.99521	0.56529
1321.06665	0.56511
1319.13809	0.56501
1317.20952	0.56490
1315.28096	0.56467
1313.35239	0.56431
1311.42383	0.56375
1309.49526	0.56301
1307.56670	0.56232
1305.63813	0.56187
1303.70957	0.56148
1301.78101	0.56094
1299.85244	0.56026
1297.92388	0.55938
1295.99531	0.55822
1294.06675	0.55706
1292.13818	0.55606
1290.20962	0.55516
1288.28105	0.55430
1286.35249	0.55336
1284.42393	0.55248
1282.49536	0.55183
1280.56680	0.55114
1278.63823	0.55014
1276.70967	0.54905
1274.78110	0.54814
1272.85254	0.54745
1270.92397	0.54686
1268.99541	0.54625
1267.06685	0.54566
1265.13828	0.54507
1263.20972	0.54431
1261.28115	0.54344
1259.35259	0.54272
1257.42402	0.54227
1255.49546	0.54202
1253.56689	0.54187
1251.63833	0.54185
1249.70977	0.54188
1247.78120	0.54186
1245.85264	0.54163
1243.92407	0.54112
1241.99551	0.54044
1240.06694	0.53959
1238.13838	0.53839
1236.20981	0.53695
1234.28125	0.53547
1232.35269	0.53401
1230.42412	0.53255
1228.49556	0.53101
1226.56699	0.52939
1224.63843	0.52799
1222.70986	0.52692
1220.78130	0.52596
1218.85273	0.52488
1216.92417	0.52384
1214.99561	0.52306
1213.06704	0.52232
1211.13848	0.52147
1209.20991	0.52077
1207.28135	0.52026
1205.35278	0.51963
1203.42422	0.51884
1201.49565	0.51808
1199.56709	0.51737
1197.63853	0.51666
1195.70996	0.51602
1193.78140	0.51543
1191.85283	0.51488
1189.92427	0.51445
1187.99570	0.51408
1186.06714	0.51381
1184.13857	0.51382
1182.21001	0.51409
1180.28145	0.51457
1178.35288	0.51522
1176.42432	0.51602
1174.49575	0.51684
1172.56719	0.51740
1170.63862	0.51752
1168.71006	0.51744
1166.78149	0.51740
1164.85293	0.51733
1162.92437	0.51718
1160.99580	0.51696
1159.06724	0.51659
1157.13867	0.51613
1155.21011	0.51544
1153.28154	0.51422
1151.35298	0.51248
1149.42441	0.51061
1147.49585	0.50871
1145.56729	0.50656
1143.63872	0.50418
1141.71016	0.50175
1139.78159	0.49952
1137.85303	0.49772
1135.92446	0.49638
1133.99590	0.49521
1132.06733	0.49403
1130.13877	0.49292
1128.21021	0.49185
1126.28164	0.49066
1124.35308	0.48954
1122.42451	0.48873
1120.49595	0.48821
1118.56738	0.48779
1116.63882	0.48742
1114.71025	0.48731
1112.78169	0.48757
1110.85312	0.48795
1108.92456	0.48848
1106.99600	0.48932
1105.06743	0.49048
1103.13887	0.49204
1101.21030	0.49390
1099.28174	0.49595
1097.35317	0.49833
1095.42461	0.50126
1093.49604	0.50477
1091.56748	0.50880
1089.63892	0.51342
1087.71035	0.51891
1085.78179	0.52532
1083.85322	0.53198
1081.92466	0.53817
1079.99609	0.54348
1078.06753	0.54726
1076.13896	0.54856
1074.21040	0.54690
1072.28184	0.54273
1070.35327	0.53700
1068.42471	0.53046
1066.49614	0.52360
1064.56758	0.51689
1062.63901	0.51085
1060.71045	0.50561
1058.78188	0.50095
1056.85332	0.49680
1054.92476	0.49331
1052.99619	0.49052
1051.06763	0.48806
1049.13906	0.48577
1047.21050	0.48366
1045.28193	0.48172
1043.35337	0.48031
1041.42480	0.47953
1039.49624	0.47880
1037.56768	0.47795
1035.63911	0.47724
1033.71055	0.47665
1031.78198	0.47621
1029.85342	0.47614
1027.92485	0.47635
1025.99629	0.47645
1024.06772	0.47649
1022.13916	0.47688
1020.21060	0.47774
1018.28203	0.47875
1016.35347	0.47960
1014.42490	0.48034
1012.49634	0.48120
1010.56777	0.48229
1008.63921	0.48368
1006.71064	0.48542
1004.78208	0.48750
1002.85352	0.48994
1000.92495	0.49273
998.99639	0.49580
997.06782	0.49909
995.13926	0.50292
993.21069	0.50713
991.28213	0.51078
989.35356	0.51341
987.42500	0.51521
985.49644	0.51632
983.56787	0.51685
981.63931	0.51734
979.71074	0.51855
977.78218	0.52057
975.85361	0.52297
973.92505	0.52571
971.99648	0.52898
970.06792	0.53265
968.13936	0.53632
966.21079	0.54004
964.28223	0.54428
962.35366	0.54916
960.42510	0.55446
958.49653	0.55991
956.56797	0.56538
954.63940	0.57121
952.71084	0.57785
950.78228	0.58469
948.85371	0.59081
946.92515	0.59681
944.99658	0.60352
943.06802	0.61043
941.13945	0.61645
939.21089	0.62164
937.28232	0.62677
935.35376	0.63206
933.42520	0.63781
931.49663	0.64428
929.56807	0.65094
927.63950	0.65742
925.71094	0.66367
923.78237	0.66929
921.85381	0.67479
919.92524	0.68112
917.99668	0.68795
916.06812	0.69481
914.13955	0.70240
912.21099	0.71113
910.28242	0.71974
908.35386	0.72773
906.42529	0.73617
904.49673	0.74535
902.56816	0.75541
900.63960	0.76644
898.71104	0.77691
896.78247	0.78575
894.85391	0.79413
892.92534	0.80366
890.99678	0.81411
889.06821	0.82424
887.13965	0.83483
885.21108	0.84690
883.28252	0.85962
881.35396	0.87163
879.42539	0.88258
877.49683	0.89403
875.56826	0.90634
873.63970	0.91776
871.71113	0.92844
869.78257	0.93970
867.85400	0.95118
865.92544	0.96142
863.99687	0.97111
862.06831	0.98326
860.13975	0.99765
858.21118	1.01101
856.28262	1.02155
854.35405	1.03137
852.42549	1.04352
850.49692	1.05743
848.56836	1.07017
846.63979	1.08016
844.71123	1.08883
842.78267	1.09818
840.85410	1.10818
838.92554	1.11918
836.99697	1.13211
835.06841	1.14432
833.13984	1.15245
831.21128	1.15673
829.28271	1.16335
827.35415	1.18074
825.42559	1.20204
823.49702	1.21338
821.56846	1.21721
819.63989	1.22342
817.71133	1.24038
815.78276	1.26373
813.85420	1.27589
811.92563	1.27827
809.99707	1.28426
808.06851	1.29963
806.13994	1.31761
804.21138	1.32165
802.28281	1.32043
800.35425	1.32823
798.42568	1.34866
796.49712	1.36227
794.56855	1.34553
792.63999	1.34490
790.71143	1.37783
788.78286	1.38786
786.85430	1.37487
784.92573	1.38866
782.99717	1.42549
781.06860	1.45745
779.14004	1.45637
777.21147	1.41304
775.28291	1.34522
773.35435	1.28276
771.42578	1.29408
769.49722	1.39095
767.56865	1.42986
765.64009	1.37556
763.71152	1.36807
761.78296	1.35850
759.85439	1.28099
757.92583	1.24239
755.99727	1.25094
754.06870	1.20430
752.14014	1.11735
750.21157	1.07801
748.28301	1.07390
746.35444	1.02263
744.42588	0.94727
742.49731	0.93082
740.56875	1.00889
738.64019	1.23983
736.71162	1.73023
734.78306	1.37525
732.85449	0.88516
730.92593	0.61535
728.99736	0.48282
727.06880	0.41484
725.14023	0.35891
723.21167	0.34578
721.28311	0.38344
719.35454	0.42846
717.42598	0.37012
715.49741	0.27219
713.56885	0.27074
711.64028	0.40871
709.71172	0.63206
707.78315	0.85244
705.85459	0.78538
703.92603	0.58167
701.99746	0.55646
700.06890	0.64733
698.14033	0.56191
696.21177	0.43160
694.28320	0.43330
692.35464	0.58244
690.42607	0.66825
688.49751	0.58321
686.56895	0.55264
684.64038	0.51854
682.71182	0.47868
680.78325	0.53381
678.85469	0.67368
676.92612	0.63125
674.99756	0.46796
673.06899	0.41506
671.14043	0.44554
669.21187	0.44388
667.28330	0.39257
665.35474	0.38591
663.42617	0.41518
661.49761	0.38520
659.56904	0.31359
657.64048	0.30194
655.71191	0.38523
653.78335	0.52066
651.85479	0.55642
649.92622	0.43470
647.99766	0.34083
646.06909	0.34585
644.14053	0.42473
642.21196	0.50481
640.28340	0.49420
638.35483	0.39284
636.42627	0.33232
634.49771	0.32963
632.56914	0.32334
630.64058	0.30898
628.71201	0.33553
626.78345	0.40451
624.85488	0.44519
622.92632	0.40627
620.99775	0.35168
619.06919	0.35801
617.14062	0.40061
615.21206	0.37343
613.28350	0.30734
611.35493	0.29866
609.42637	0.33718
607.49780	0.38200
605.56924	0.41005
603.64067	0.41439
601.71211	0.42372
599.78354	0.42864
597.85498	0.38235
595.92642	0.33144
593.99785	0.30106
592.06929	0.29603
590.14072	0.34144
588.21216	0.38951
586.28359	0.36688
584.35503	0.35911
582.42646	0.41590
580.49790	0.44379
578.56934	0.38206
576.64077	0.34471
574.71221	0.40194
572.78364	0.51813
570.85508	0.46105
568.92651	0.34297
566.99795	0.33900
565.06938	0.39407
563.14082	0.45470
561.21226	0.49000
559.28369	0.44577
557.35513	0.36584
555.42656	0.33302
553.49800	0.32001
551.56943	0.27033
549.64087	0.25023
547.71230	0.26610
545.78374	0.22948
543.85518	0.17792
541.92661	0.17920
539.99805	0.24432
538.06948	0.33405
536.14092	0.39203
534.21235	0.36115
532.28379	0.31101
530.35522	0.29577
528.42666	0.26552
526.49810	0.23164
524.56953	0.25049
522.64097	0.29796
520.71240	0.29860
518.78384	0.25253
516.85527	0.23463
514.92671	0.26507
512.99814	0.30433
511.06958	0.28977
509.14102	0.26254
507.21245	0.28631
505.28389	0.30878
503.35532	0.26256
501.42676	0.22539
499.49819	0.22780
