3997.91411	0.06307
3995.98555	0.06309
3994.05698	0.06343
3992.12842	0.06360
3990.19985	0.06373
3988.27129	0.06414
3986.34272	0.06469
3984.41416	0.06516
3982.48560	0.06532
3980.55703	0.06535
3978.62847	0.06558
3976.69990	0.06598
3974.77134	0.06637
3972.84277	0.06648
3970.91421	0.06636
3968.98564	0.06645
3967.05708	0.06665
3965.12852	0.06672
3963.19995	0.06689
3961.27139	0.06725
3959.34282	0.06752
3957.41426	0.06750
3955.48569	0.06746
3953.55713	0.06769
3951.62856	0.06810
3949.70000	0.06867
3947.77144	0.06895
3945.84287	0.06841
3943.91431	0.06770
3941.98574	0.06772
3940.05718	0.06790
3938.12861	0.06757
3936.20005	0.06719
3934.27148	0.06748
3932.34292	0.06857
3930.41436	0.06964
3928.48579	0.06952
3926.55723	0.06859
3924.62866	0.06817
3922.70010	0.06812
3920.77153	0.06782
3918.84297	0.06799
3916.91440	0.06877
3914.98584	0.06877
3913.05728	0.06762
3911.12871	0.06664
3909.20015	0.06639
3907.27158	0.06676
3905.34302	0.06810
3903.41445	0.06992
3901.48589	0.07054
3899.55732	0.06998
3897.62876	0.06928
3895.70020	0.06860
3893.77163	0.06849
3891.84307	0.06931
3889.91450	0.06984
3887.98594	0.06938
3886.05737	0.06932
3884.12881	0.06969
3882.20024	0.07002
3880.27168	0.07063
3878.34312	0.07030
3876.41455	0.06929
3874.48599	0.06968
3872.55742	0.07107
3870.62886	0.07233
3868.70029	0.07338
3866.77173	0.07349
3864.84316	0.07352
3862.91460	0.07388
3860.98604	0.07329
3859.05747	0.07236
3857.12891	0.07254
3855.20034	0.07397
3853.27178	0.07614
3851.34321	0.07740
3849.41465	0.07631
3847.48608	0.07498
3845.55752	0.07499
3843.62896	0.07643
3841.70039	0.07831
3839.77183	0.08000
3837.84326	0.08179
3835.91470	0.08298
3833.98613	0.08260
3832.05757	0.08124
3830.12900	0.08017
3828.20044	0.08028
3826.27187	0.08130
3824.34331	0.08248
3822.41475	0.08413
3820.48618	0.08691
3818.55762	0.08833
3816.62905	0.08819
3814.70049	0.08839
3812.77192	0.08789
3810.84336	0.08711
3808.91479	0.08763
3806.98623	0.09000
3805.05767	0.09283
3803.12910	0.09492
3801.20054	0.09752
3799.27197	0.09893
3797.34341	0.09813
3795.41484	0.09771
3793.48628	0.09767
3791.55771	0.09767
3789.62915	0.09818
3787.70059	0.09930
3785.77202	0.10131
3783.84346	0.10387
3781.91489	0.10588
3779.98633	0.10769
3778.05776	0.10954
3776.12920	0.11025
3774.20063	0.11065
3772.27207	0.11201
3770.34351	0.11451
3768.41494	0.11750
3766.48638	0.11969
3764.55781	0.12113
3762.62925	0.12224
3760.70068	0.12421
3758.77212	0.12817
3756.84355	0.13216
3754.91499	0.13434
3752.98643	0.13689
3751.05786	0.14167
3749.12930	0.14633
3747.20073	0.14757
3745.27217	0.14841
3743.34360	0.15167
3741.41504	0.15579
3739.48647	0.15884
3737.55791	0.16217
3735.62935	0.16751
3733.70078	0.17442
3731.77222	0.17921
3729.84365	0.18171
3727.91509	0.18455
3725.98652	0.18968
3724.05796	0.19660
3722.12939	0.20313
3720.20083	0.20929
3718.27227	0.21561
3716.34370	0.22196
3714.41514	0.22884
3712.48657	0.23840
3710.55801	0.25267
3708.62944	0.26692
3706.70088	0.27716
3704.77231	0.28715
3702.84375	0.30011
3700.91519	0.31740
3698.98662	0.33561
3697.05806	0.35207
3695.12949	0.36950
3693.20093	0.38875
3691.27236	0.41077
3689.34380	0.43925
3687.41523	0.47262
3685.48667	0.50129
3683.55811	0.52646
3681.62954	0.55380
3679.70098	0.58506
3677.77241	0.61877
3675.84385	0.65878
3673.91528	0.71077
3671.98672	0.75268
3670.05815	0.79077
3668.12959	0.84247
3666.20103	0.88868
3664.27246	0.92727
3662.34390	0.96927
3660.41533	1.01530
3658.48677	1.06120
3656.55820	1.11037
3654.62964	1.16502
3652.70107	1.21123
3650.77251	1.25240
3648.84395	1.30867
3646.91538	1.37449
3644.98682	1.42071
3643.05825	1.45667
3641.12969	1.49516
3639.20112	1.53872
3637.27256	1.58301
3635.34399	1.62652
3633.41543	1.67011
3631.48687	1.71042
3629.55830	1.75121
3627.62974	1.80517
3625.70117	1.85483
3623.77261	1.88733
3621.84404	1.91862
3619.91548	1.95582
3617.98691	2.00159
3616.05835	2.04492
3614.12979	2.08040
3612.20122	2.11817
3610.27266	2.15678
3608.34409	2.19629
3606.41553	2.23948
3604.48696	2.27989
3602.55840	2.31514
3600.62983	2.35233
3598.70127	2.39220
3596.77271	2.43023
3594.84414	2.46977
3592.91558	2.51295
3590.98701	2.55303
3589.05845	2.58799
3587.12988	2.62905
3585.20132	2.67656
3583.27275	2.71788
3581.34419	2.75488
3579.41562	2.79537
3577.48706	2.84021
3575.55850	2.88421
3573.62993	2.92630
3571.70137	2.96596
3569.77280	3.00432
3567.84424	3.04748
3565.91567	3.10073
3563.98711	3.15119
3562.05854	3.19209
3560.12998	3.23156
3558.20142	3.27469
3556.27285	3.32309
3554.34429	3.37162
3552.41572	3.41773
3550.48716	3.46270
3548.55859	3.50768
3546.63003	3.55366
3544.70146	3.60101
3542.77290	3.64626
3540.84434	3.68981
3538.91577	3.73517
3536.98721	3.78124
3535.05864	3.82929
3533.13008	3.87838
3531.20151	3.92736
3529.27295	3.97675
3527.34438	4.02577
3525.41582	4.07299
3523.48726	4.11891
3521.55869	4.16626
3519.63013	4.21394
3517.70156	4.26229
3515.77300	4.31063
3513.84443	4.35656
3511.91587	4.40348
3509.98730	4.45605
3508.05874	4.51021
3506.13018	4.55474
3504.20161	4.59001
3502.27305	4.63095
3500.34448	4.68395
3498.41592	4.73872
3496.48735	4.78771
3494.55879	4.83510
3492.63022	4.88550
3490.70166	4.93862
3488.77310	4.99378
3486.84453	5.04357
3484.91597	5.08643
3482.98740	5.13082
3481.05884	5.17975
3479.13027	5.23170
3477.20171	5.28879
3475.27314	5.34804
3473.34458	5.39746
3471.41602	5.43383
3469.48745	5.46505
3467.55889	5.50768
3465.63032	5.56621
3463.70176	5.62447
3461.77319	5.67914
3459.84463	5.73732
3457.91606	5.79156
3455.98750	5.83600
3454.05894	5.88018
3452.13037	5.92925
3450.20181	5.97525
3448.27324	6.01605
3446.34468	6.05538
3444.41611	6.10100
3442.48755	6.16671
3440.55898	6.22695
3438.63042	6.25893
3436.70186	6.29230
3434.77329	6.34725
3432.84473	6.41222
3430.91616	6.47363
3428.98760	6.52983
3427.05903	6.58220
3425.13047	6.63718
3423.20190	6.68106
3421.27334	6.71306
3419.34478	6.76869
3417.41621	6.84733
3415.48765	6.89802
3413.55908	6.91723
3411.63052	6.94947
3409.70195	6.99879
3407.77339	7.07250
3405.84482	7.13621
3403.91626	7.12852
3401.98770	7.11061
3400.05913	7.16549
3398.13057	7.24720
3396.20200	7.29765
3394.27344	7.35543
3392.34487	7.39407
3390.41631	7.37308
3388.48774	7.38307
3386.55918	7.47467
3384.63062	7.54402
3382.70205	7.56234
3380.77349	7.59665
3378.84492	7.61985
3376.91636	7.62061
3374.98779	7.64755
3373.05923	7.69377
3371.13066	7.68839
3369.20210	7.67246
3367.27354	7.71579
3365.34497	7.80888
3363.41641	7.89708
3361.48784	7.91081
3359.55928	7.86681
3357.63071	7.85936
3355.70215	7.91367
3353.77358	7.91911
3351.84502	7.89655
3349.91646	7.96660
3347.98789	8.11948
3346.05933	8.20944
3344.13076	8.11846
3342.20220	7.97376
3340.27363	7.93568
3338.34507	7.99839
3336.41650	8.04033
3334.48794	8.03526
3332.55937	8.01823
3330.63081	8.00958
3328.70225	8.05112
3326.77368	8.12402
3324.84512	8.14954
3322.91655	8.10789
3320.98799	8.03356
3319.05942	7.98505
3317.13086	8.03001
3315.20229	8.12012
3313.27373	8.17657
3311.34517	8.18253
3309.41660	8.20703
3307.48804	8.30407
3305.55947	8.33358
3303.63091	8.19294
3301.70234	8.05101
3299.77378	8.03889
3297.84521	8.06631
3295.91665	8.10208
3293.98809	8.18854
3292.05952	8.24826
3290.13096	8.22155
3288.20239	8.19030
3286.27383	8.24918
3284.34526	8.31286
3282.41670	8.26714
3280.48813	8.23452
3278.55957	8.29129
3276.63101	8.26612
3274.70244	8.17189
3272.77388	8.14458
3270.84531	8.13018
3268.91675	8.08432
3266.98818	8.07382
3265.05962	8.14927
3263.13105	8.19075
3261.20249	8.13078
3259.27393	8.10985
3257.34536	8.19907
3255.41680	8.32230
3253.48823	8.41564
3251.55967	8.47770
3249.63110	8.44216
3247.70254	8.28426
3245.77397	8.11529
3243.84541	8.04687
3241.91685	8.09326
3239.98828	8.18368
3238.05972	8.20481
3236.13115	8.20785
3234.20259	8.28331
3232.27402	8.28248
3230.34546	8.15889
3228.41689	8.10771
3226.48833	8.16193
3224.55977	8.14665
3222.63120	8.06058
3220.70264	8.01323
3218.77407	7.99792
3216.84551	8.02604
3214.91694	8.09854
3212.98838	8.12608
3211.05981	8.06890
3209.13125	7.99880
3207.20269	7.93397
3205.27412	7.86831
3203.34556	7.84362
3201.41699	7.85324
3199.48843	7.84259
3197.55986	7.80075
3195.63130	7.73241
3193.70273	7.64927
3191.77417	7.62421
3189.84561	7.64849
3187.91704	7.62119
3185.98848	7.54706
3184.05991	7.46808
3182.13135	7.39991
3180.20278	7.39334
3178.27422	7.43500
3176.34565	7.42889
3174.41709	7.33801
3172.48853	7.19880
3170.55996	7.06867
3168.63140	6.99779
3166.70283	6.97310
3164.77427	6.95953
3162.84570	6.92573
3160.91714	6.83582
3158.98857	6.72352
3157.06001	6.64296
3155.13145	6.59111
3153.20288	6.53565
3151.27432	6.45572
3149.34575	6.36839
3147.41719	6.31233
3145.48862	6.28216
3143.56006	6.23640
3141.63149	6.16846
3139.70293	6.08250
3137.77437	5.98969
3135.84580	5.91673
3133.91724	5.85853
3131.98867	5.79152
3130.06011	5.71131
3128.13154	5.62471
3126.20298	5.53934
3124.27441	5.46386
3122.34585	5.39576
3120.41729	5.33064
3118.48872	5.26516
3116.56016	5.19293
3114.63159	5.12026
3112.70303	5.05124
3110.77446	4.97823
3108.84590	4.90093
3106.91733	4.82350
3104.98877	4.74903
3103.06021	4.68274
3101.13164	4.62043
3099.20308	4.55366
3097.27451	4.48627
3095.34595	4.42218
3093.41738	4.35779
3091.48882	4.29216
3089.56025	4.22636
3087.63169	4.16049
3085.70312	4.09656
3083.77456	4.03598
3081.84600	3.97672
3079.91743	3.91428
3077.98887	3.84897
3076.06030	3.78628
3074.13174	3.72593
3072.20317	3.66474
3070.27461	3.60387
3068.34604	3.54506
3066.41748	3.48747
3064.48892	3.42990
3062.56035	3.37321
3060.63179	3.31809
3058.70322	3.26257
3056.77466	3.20625
3054.84609	3.15181
3052.91753	3.09939
3050.98896	3.04732
3049.06040	2.99501
3047.13184	2.94341
3045.20327	2.89372
3043.27471	2.84378
3041.34614	2.79293
3039.41758	2.74427
3037.48901	2.69889
3035.56045	2.65492
3033.63188	2.60928
3031.70332	2.56187
3029.77476	2.51605
3027.84619	2.47309
3025.91763	2.43069
3023.98906	2.38716
3022.06050	2.34407
3020.13193	2.30235
3018.20337	2.26125
3016.27480	2.22140
3014.34624	2.18298
3012.41768	2.14460
3010.48911	2.10592
3008.56055	2.06783
3006.63198	2.03073
3004.70342	1.99430
3002.77485	1.95808
3000.84629	1.92259
2998.91772	1.88862
2996.98916	1.85558
2995.06060	1.82272
2993.13203	1.78991
2991.20347	1.75732
2989.27490	1.72554
2987.34634	1.69483
2985.41777	1.66480
2983.48921	1.63516
2981.56064	1.60624
2979.63208	1.57833
2977.70352	1.55090
2975.77495	1.52365
2973.84639	1.49670
2971.91782	1.47023
2969.98926	1.44406
2968.06069	1.41772
2966.13213	1.39198
2964.20356	1.36742
2962.27500	1.34321
2960.34644	1.31885
2958.41787	1.29480
2956.48931	1.27123
2954.56074	1.24800
2952.63218	1.22514
2950.70361	1.20259
2948.77505	1.18048
2946.84648	1.15906
2944.91792	1.13834
2942.98936	1.11815
2941.06079	1.09841
2939.13223	1.07858
2937.20366	1.05808
2935.27510	1.03784
2933.34653	1.01874
2931.41797	1.00033
2929.48940	0.98228
2927.56084	0.96428
2925.63228	0.94638
2923.70371	0.92917
2921.77515	0.91233
2919.84658	0.89559
2917.91802	0.87959
2915.98945	0.86424
2914.06089	0.84870
2912.13232	0.83285
2910.20376	0.81744
2908.27520	0.80285
2906.34663	0.78857
2904.41807	0.77413
2902.48950	0.75983
2900.56094	0.74633
2898.63237	0.73362
2896.70381	0.72132
2894.77524	0.70910
2892.84668	0.69675
2890.91812	0.68469
2888.98955	0.67342
2887.06099	0.66264
2885.13242	0.65189
2883.20386	0.64126
2881.27529	0.63091
2879.34673	0.62049
2877.41816	0.60990
2875.48960	0.59972
2873.56104	0.58978
2871.63247	0.57934
2869.70391	0.56877
2867.77534	0.55872
2865.84678	0.54893
2863.91821	0.53909
2861.98965	0.52941
2860.06108	0.52012
2858.13252	0.51096
2856.20396	0.50165
2854.27539	0.49276
2852.34683	0.48474
2850.41826	0.47706
2848.48970	0.46908
2846.56113	0.46097
2844.63257	0.45329
2842.70400	0.44620
2840.77544	0.43950
2838.84687	0.43309
2836.91831	0.42698
2834.98975	0.42085
2833.06118	0.41460
2831.13262	0.40860
2829.20405	0.40282
2827.27549	0.39690
2825.34692	0.39096
2823.41836	0.38522
2821.48979	0.37940
2819.56123	0.37343
2817.63267	0.36769
2815.70410	0.36224
2813.77554	0.35696
2811.84697	0.35185
2809.91841	0.34669
2807.98984	0.34143
2806.06128	0.33638
2804.13271	0.33157
2802.20415	0.32681
2800.27559	0.32218
2798.34702	0.31764
2796.41846	0.31299
2794.48989	0.30831
2792.56133	0.30375
2790.63276	0.29949
2788.70420	0.29548
2786.77563	0.29141
2784.84707	0.28719
2782.91851	0.28311
2780.98994	0.27925
2779.06138	0.27553
2777.13281	0.27194
2775.20425	0.26829
2773.27568	0.26461
2771.34712	0.26125
2769.41855	0.25814
2767.48999	0.25495
2765.56143	0.25158
2763.63286	0.24808
2761.70430	0.24470
2759.77573	0.24170
2757.84717	0.23889
2755.91860	0.23611
2753.99004	0.23337
2752.06147	0.23060
2750.13291	0.22787
2748.20435	0.22527
2746.27578	0.22262
2744.34722	0.21994
2742.41865	0.21740
2740.49009	0.21495
2738.56152	0.21261
2736.63296	0.21033
2734.70439	0.20797
2732.77583	0.20566
2730.84727	0.20353
2728.91870	0.20152
2726.99014	0.19958
2725.06157	0.19755
2723.13301	0.19539
2721.20444	0.19334
2719.27588	0.19154
2717.34731	0.18981
2715.41875	0.18796
2713.49019	0.18606
2711.56162	0.18426
2709.63306	0.18266
2707.70449	0.18114
2705.77593	0.17952
2703.84736	0.17783
2701.91880	0.17626
2699.99023	0.17483
2698.06167	0.17345
2696.13311	0.17218
2694.20454	0.17103
2692.27598	0.16985
2690.34741	0.16857
2688.41885	0.16728
2686.49028	0.16611
2684.56172	0.16505
2682.63315	0.16400
2680.70459	0.16296
2678.77603	0.16181
2676.84746	0.16062
2674.91890	0.15961
2672.99033	0.15869
2671.06177	0.15781
2669.13320	0.15698
2667.20464	0.15611
2665.27607	0.15513
2663.34751	0.15411
2661.41895	0.15326
2659.49038	0.15259
2657.56182	0.15187
2655.63325	0.15109
2653.70469	0.15038
2651.77612	0.14976
2649.84756	0.14926
2647.91899	0.14877
2645.99043	0.14823
2644.06187	0.14766
2642.13330	0.14713
2640.20474	0.14671
2638.27617	0.14631
2636.34761	0.14596
2634.41904	0.14571
2632.49048	0.14535
2630.56191	0.14482
2628.63335	0.14442
2626.70479	0.14423
2624.77622	0.14395
2622.84766	0.14367
2620.91909	0.14352
2618.99053	0.14329
2617.06196	0.14315
2615.13340	0.14328
2613.20483	0.14326
2611.27627	0.14296
2609.34771	0.14272
2607.41914	0.14262
2605.49058	0.14265
2603.56201	0.14281
2601.63345	0.14302
2599.70488	0.14328
2597.77632	0.14350
2595.84775	0.14359
2593.91919	0.14366
2591.99062	0.14386
2590.06206	0.14413
2588.13350	0.14440
2586.20493	0.14471
2584.27637	0.14494
2582.34780	0.14507
2580.41924	0.14531
2578.49067	0.14569
2576.56211	0.14600
2574.63354	0.14622
2572.70498	0.14652
2570.77642	0.14697
2568.84785	0.14744
2566.91929	0.14783
2564.99072	0.14823
2563.06216	0.14880
2561.13359	0.14943
2559.20503	0.14997
2557.27646	0.15044
2555.34790	0.15084
2553.41934	0.15123
2551.49077	0.15173
2549.56221	0.15237
2547.63364	0.15306
2545.70508	0.15368
2543.77651	0.15432
2541.84795	0.15505
2539.91938	0.15568
2537.99082	0.15629
2536.06226	0.15710
2534.13369	0.15794
2532.20513	0.15865
2530.27656	0.15928
2528.34800	0.15989
2526.41943	0.16059
2524.49087	0.16152
2522.56230	0.16258
2520.63374	0.16342
2518.70518	0.16399
2516.77661	0.16449
2514.84805	0.16510
2512.91948	0.16590
2510.99092	0.16685
2509.06235	0.16779
2507.13379	0.16870
2505.20522	0.16962
2503.27666	0.17050
2501.34810	0.17136
2499.41953	0.17223
2497.49097	0.17304
2495.56240	0.17373
2493.63384	0.17439
2491.70527	0.17520
2489.77671	0.17617
2487.84814	0.17717
2485.91958	0.17811
2483.99102	0.17900
2482.06245	0.17989
2480.13389	0.18080
2478.20532	0.18173
2476.27676	0.18261
2474.34819	0.18342
2472.41963	0.18437
2470.49106	0.18549
2468.56250	0.18654
2466.63394	0.18740
2464.70537	0.18815
2462.77681	0.18899
2460.84824	0.19000
2458.91968	0.19108
2456.99111	0.19221
2455.06255	0.19333
2453.13398	0.19428
2451.20542	0.19512
2449.27686	0.19604
2447.34829	0.19703
2445.41973	0.19811
2443.49116	0.19927
2441.56260	0.20044
2439.63403	0.20157
2437.70547	0.20253
2435.77690	0.20347
2433.84834	0.20459
2431.91978	0.20579
2429.99121	0.20686
2428.06265	0.20781
2426.13408	0.20877
2424.20552	0.20976
2422.27695	0.21072
2420.34839	0.21177
2418.41982	0.21293
2416.49126	0.21415
2414.56270	0.21544
2412.63413	0.21679
2410.70557	0.21797
2408.77700	0.21900
2406.84844	0.22009
2404.91987	0.22126
2402.99131	0.22255
2401.06274	0.22393
2399.13418	0.22519
2397.20562	0.22631
2395.27705	0.22750
2393.34849	0.22876
2391.41992	0.23006
2389.49136	0.23143
2387.56279	0.23294
2385.63423	0.23469
2383.70566	0.23677
2381.77710	0.23938
2379.84854	0.24250
2377.91997	0.24592
2375.99141	0.24955
2374.06284	0.25335
2372.13428	0.25735
2370.20571	0.26189
2368.27715	0.26700
2366.34858	0.27162
2364.42002	0.27520
2362.49146	0.27838
2360.56289	0.28064
2358.63433	0.28174
2356.70576	0.28257
2354.77720	0.28258
2352.84863	0.28087
2350.92007	0.27832
2348.99150	0.27689
2347.06294	0.27764
2345.13437	0.28114
2343.20581	0.28626
2341.27725	0.28993
2339.34868	0.29208
2337.42012	0.29380
2335.49155	0.29477
2333.56299	0.29482
2331.63442	0.29512
2329.70586	0.29611
2327.77729	0.29689
2325.84873	0.29748
2323.92017	0.29821
2321.99160	0.29863
2320.06304	0.29876
2318.13447	0.29899
2316.20591	0.29938
2314.27734	0.30021
2312.34878	0.30143
2310.42021	0.30266
2308.49165	0.30365
2306.56309	0.30436
2304.63452	0.30499
2302.70596	0.30593
2300.77739	0.30733
2298.84883	0.30896
2296.92026	0.31058
2294.99170	0.31223
2293.06313	0.31392
2291.13457	0.31551
2289.20601	0.31708
2287.27744	0.31864
2285.34888	0.32021
2283.42031	0.32196
2281.49175	0.32384
2279.56318	0.32578
2277.63462	0.32778
2275.70605	0.32981
2273.77749	0.33189
2271.84893	0.33408
2269.92036	0.33628
2267.99180	0.33840
2266.06323	0.34055
2264.13467	0.34272
2262.20610	0.34482
2260.27754	0.34691
2258.34897	0.34902
2256.42041	0.35115
2254.49185	0.35324
2252.56328	0.35524
2250.63472	0.35723
2248.70615	0.35922
2246.77759	0.36128
2244.84902	0.36354
2242.92046	0.36596
2240.99189	0.36831
2239.06333	0.37045
2237.13477	0.37265
2235.20620	0.37501
2233.27764	0.37734
2231.34907	0.37947
2229.42051	0.38152
2227.49194	0.38377
2225.56338	0.38624
2223.63481	0.38859
2221.70625	0.39065
2219.77769	0.39271
2217.84912	0.39500
2215.92056	0.39723
2213.99199	0.39925
2212.06343	0.40136
2210.13486	0.40367
2208.20630	0.40590
2206.27773	0.40796
2204.34917	0.41002
2202.42061	0.41202
2200.49204	0.41396
2198.56348	0.41601
2196.63491	0.41812
2194.70635	0.42018
2192.77778	0.42215
2190.84922	0.42405
2188.92065	0.42585
2186.99209	0.42751
2185.06353	0.42914
2183.13496	0.43085
2181.20640	0.43264
2179.27783	0.43441
2177.34927	0.43602
2175.42070	0.43756
2173.49214	0.43917
2171.56357	0.44068
2169.63501	0.44204
2167.70645	0.44333
2165.77788	0.44458
2163.84932	0.44582
2161.92075	0.44697
2159.99219	0.44799
2158.06362	0.44891
2156.13506	0.44982
2154.20649	0.45070
2152.27793	0.45151
2150.34937	0.45226
2148.42080	0.45292
2146.49224	0.45339
2144.56367	0.45375
2142.63511	0.45421
2140.70654	0.45463
2138.77798	0.45491
2136.84941	0.45512
2134.92085	0.45527
2132.99229	0.45529
2131.06372	0.45523
2129.13516	0.45511
2127.20659	0.45484
2125.27803	0.45441
2123.34946	0.45392
2121.42090	0.45341
2119.49233	0.45284
2117.56377	0.45217
2115.63521	0.45144
2113.70664	0.45060
2111.77808	0.44962
2109.84951	0.44860
2107.92095	0.44755
2105.99238	0.44637
2104.06382	0.44512
2102.13525	0.44385
2100.20669	0.44252
2098.27812	0.44101
2096.34956	0.43936
2094.42100	0.43773
2092.49243	0.43619
2090.56387	0.43472
2088.63530	0.43313
2086.70674	0.43131
2084.77817	0.42929
2082.84961	0.42718
2080.92104	0.42511
2078.99248	0.42313
2077.06392	0.42114
2075.13535	0.41909
2073.20679	0.41698
2071.27822	0.41470
2069.34966	0.41240
2067.42109	0.41015
2065.49253	0.40784
2063.56396	0.40532
2061.63540	0.40271
2059.70684	0.40014
2057.77827	0.39771
2055.84971	0.39529
2053.92114	0.39266
2051.99258	0.38995
2050.06401	0.38736
2048.13545	0.38484
2046.20688	0.38222
2044.27832	0.37951
2042.34976	0.37687
2040.42119	0.37427
2038.49263	0.37148
2036.56406	0.36854
2034.63550	0.36569
2032.70693	0.36300
2030.77837	0.36039
2028.84980	0.35767
2026.92124	0.35483
2024.99268	0.35197
2023.06411	0.34913
2021.13555	0.34635
2019.20698	0.34371
2017.27842	0.34118
2015.34985	0.33841
2013.42129	0.33542
2011.49272	0.33257
2009.56416	0.32991
2007.63560	0.32726
2005.70703	0.32461
2003.77847	0.32198
2001.84990	0.31931
1999.92134	0.31668
1997.99277	0.31411
1996.06421	0.31151
1994.13564	0.30898
1992.20708	0.30660
1990.27852	0.30420
1988.34995	0.30168
1986.42139	0.29907
1984.49282	0.29652
1982.56426	0.29419
1980.63569	0.29196
1978.70713	0.28965
1976.77856	0.28738
1974.85000	0.28527
1972.92144	0.28323
1970.99287	0.28122
1969.06431	0.27931
1967.13574	0.27735
1965.20718	0.27515
1963.27861	0.27299
1961.35005	0.27105
1959.42148	0.26917
1957.49292	0.26727
1955.56436	0.26538
1953.63579	0.26356
1951.70723	0.26186
1949.77866	0.26027
1947.85010	0.25884
1945.92153	0.25761
1943.99297	0.25648
1942.06440	0.25516
1940.13584	0.25349
1938.20728	0.25184
1936.27871	0.25044
1934.35015	0.24909
1932.42158	0.24780
1930.49302	0.24663
1928.56445	0.24556
1926.63589	0.24459
1924.70732	0.24386
1922.77876	0.24314
1920.85020	0.24216
1918.92163	0.24123
1916.99307	0.24034
1915.06450	0.23926
1913.13594	0.23827
1911.20737	0.23763
1909.27881	0.23713
1907.35024	0.23646
1905.42168	0.23563
1903.49312	0.23487
1901.56455	0.23426
1899.63599	0.23380
1897.70742	0.23348
1895.77886	0.23325
1893.85029	0.23299
1891.92173	0.23263
1889.99316	0.23246
1888.06460	0.23226
1886.13604	0.23185
1884.20747	0.23152
1882.27891	0.23130
1880.35034	0.23115
1878.42178	0.23109
1876.49321	0.23112
1874.56465	0.23123
1872.63608	0.23151
1870.70752	0.23208
1868.77896	0.23299
1866.85039	0.23330
1864.92183	0.23276
1862.99326	0.23243
1861.06470	0.23255
1859.13613	0.23291
1857.20757	0.23333
1855.27900	0.23382
1853.35044	0.23429
1851.42187	0.23481
1849.49331	0.23541
1847.56475	0.23619
1845.63618	0.23729
1843.70762	0.23848
1841.77905	0.23900
1839.85049	0.23913
1837.92192	0.23983
1835.99336	0.24085
1834.06479	0.24191
1832.13623	0.24323
1830.20767	0.24507
1828.27910	0.24663
1826.35054	0.24747
1824.42197	0.24848
1822.49341	0.24948
1820.56484	0.25052
1818.63628	0.25185
1816.70771	0.25343
1814.77915	0.25512
1812.85059	0.25716
1810.92202	0.25950
1808.99346	0.26151
1807.06489	0.26319
1805.13633	0.26500
1803.20776	0.26737
1801.27920	0.27024
1799.35063	0.27323
1797.42207	0.27568
1795.49351	0.27811
1793.56494	0.28124
1791.63638	0.28498
1789.70781	0.28795
1787.77925	0.29009
1785.85068	0.29305
1783.92212	0.29687
1781.99355	0.30119
1780.06499	0.30565
1778.13643	0.30985
1776.20786	0.31380
1774.27930	0.31842
1772.35073	0.32475
1770.42217	0.33109
1768.49360	0.33595
1766.56504	0.34066
1764.63647	0.34582
1762.70791	0.35193
1760.77935	0.35969
1758.85078	0.36679
1756.92222	0.37388
1754.99365	0.38162
1753.06509	0.38877
1751.13652	0.39761
1749.20796	0.40876
1747.27939	0.41941
1745.35083	0.42859
1743.42227	0.43828
1741.49370	0.44891
1739.56514	0.46130
1737.63657	0.47375
1735.70801	0.48500
1733.77944	0.50203
1731.85088	0.52171
1729.92231	0.53668
1727.99375	0.55190
1726.06519	0.56857
1724.13662	0.58695
1722.20806	0.60688
1720.27949	0.62559
1718.35093	0.64782
1716.42236	0.68015
1714.49380	0.71040
1712.56523	0.73486
1710.63667	0.75852
1708.70811	0.78405
1706.77954	0.81342
1704.85098	0.84844
1702.92241	0.87938
1700.99385	0.90992
1699.06528	0.95529
1697.13672	0.99673
1695.20815	1.03865
1693.27959	1.07904
1691.35103	1.11181
1689.42246	1.14987
1687.49390	1.18955
1685.56533	1.22747
1683.63677	1.28638
1681.70820	1.34740
1679.77964	1.38600
1677.85107	1.42257
1675.92251	1.46473
1673.99395	1.51699
1672.06538	1.56413
1670.13682	1.61087
1668.20825	1.66976
1666.27969	1.71596
1664.35112	1.75483
1662.42256	1.80380
1660.49399	1.85865
1658.56543	1.90148
1656.63687	1.93642
1654.70830	1.96883
1652.77974	2.02096
1650.85117	2.07216
1648.92261	2.09248
1646.99404	2.11864
1645.06548	2.14810
1643.13691	2.16733
1641.20835	2.17984
1639.27979	2.19135
1637.35122	2.19814
1635.42266	2.19769
1633.49409	2.19109
1631.56553	2.17952
1629.63696	2.16387
1627.70840	2.13693
1625.77983	2.10563
1623.85127	2.06862
1621.92271	2.02355
1619.99414	1.98230
1618.06558	1.94147
1616.13701	1.88248
1614.20845	1.82136
1612.27988	1.77451
1610.35132	1.72600
1608.42275	1.67353
1606.49419	1.62109
1604.56562	1.57219
1602.63706	1.52540
1600.70850	1.47958
1598.77993	1.43669
1596.85137	1.39627
1594.92280	1.35736
1592.99424	1.32001
1591.06567	1.28572
1589.13711	1.25337
1587.20854	1.22279
1585.27998	1.19413
1583.35142	1.16744
1581.42285	1.14322
1579.49429	1.12243
1577.56572	1.10372
1575.63716	1.08040
1573.70859	1.05891
1571.78003	1.04466
1569.85146	1.02996
1567.92290	1.01339
1565.99434	1.00039
1564.06577	0.98975
1562.13721	0.98103
1560.20864	0.97413
1558.28008	0.96363
1556.35151	0.95385
1554.42295	0.94725
1552.49438	0.94082
1550.56582	0.93423
1548.63726	0.92653
1546.70869	0.91870
1544.78013	0.91090
1542.85156	0.90226
1540.92300	0.89082
1538.99443	0.87251
1537.06587	0.85784
1535.13730	0.84812
1533.20874	0.83671
1531.28018	0.82466
1529.35161	0.81576
1527.42305	0.80761
1525.49448	0.79916
1523.56592	0.79165
1521.63735	0.78393
1519.70879	0.77519
1517.78022	0.76771
1515.85166	0.75972
1513.92310	0.75161
1511.99453	0.74516
1510.06597	0.73997
1508.13740	0.73518
1506.20884	0.72644
1504.28027	0.71749
1502.35171	0.71230
1500.42314	0.70822
1498.49458	0.70433
1496.56602	0.69957
1494.63745	0.69411
1492.70889	0.68986
1490.78032	0.68676
1488.85176	0.68312
1486.92319	0.67856
1484.99463	0.67434
1483.06606	0.67104
1481.13750	0.66836
1479.20894	0.66596
1477.28037	0.66412
1475.35181	0.66302
1473.42324	0.66227
1471.49468	0.66019
1469.56611	0.65686
1467.63755	0.65403
1465.70898	0.65207
1463.78042	0.65050
1461.85186	0.64912
1459.92329	0.64835
1457.99473	0.64790
1456.06616	0.64627
1454.13760	0.64355
1452.20903	0.64113
1450.28047	0.63900
1448.35190	0.63709
1446.42334	0.63511
1444.49478	0.63302
1442.56621	0.63102
1440.63765	0.62919
1438.70908	0.62765
1436.78052	0.62588
1434.85195	0.62351
1432.92339	0.62142
1430.99482	0.61981
1429.06626	0.61828
1427.13770	0.61697
1425.20913	0.61615
1423.28057	0.61550
1421.35200	0.61489
1419.42344	0.61444
1417.49487	0.61329
1415.56631	0.61134
1413.63774	0.60985
1411.70918	0.60893
1409.78062	0.60823
1407.85205	0.60780
1405.92349	0.60773
1403.99492	0.60745
1402.06636	0.60659
1400.13779	0.60560
1398.20923	0.60451
1396.28066	0.60305
1394.35210	0.60089
1392.42354	0.59814
1390.49497	0.59568
1388.56641	0.59371
1386.63784	0.59158
1384.70928	0.58894
1382.78071	0.58628
1380.85215	0.58388
1378.92358	0.58195
1376.99502	0.58079
1375.06646	0.58026
1373.13789	0.57944
1371.20933	0.57816
1369.28076	0.57708
1367.35220	0.57605
1365.42363	0.57490
1363.49507	0.57392
1361.56650	0.57291
1359.63794	0.57150
1357.70937	0.57011
1355.78081	0.56901
1353.85225	0.56810
1351.92368	0.56720
1349.99512	0.56628
1348.06655	0.56534
1346.13799	0.56436
1344.20942	0.56342
1342.28086	0.56269
1340.35229	0.56219
1338.42373	0.56147
1336.49517	0.56044
1334.56660	0.55948
1332.63804	0.55878
1330.70947	0.55831
1328.78091	0.55789
1326.85234	0.55733
1324.92378	0.55677
1322.99521	0.55646
1321.06665	0.55623
1319.13809	0.55595
1317.20952	0.55563
1315.28096	0.55525
1313.35239	0.55469
1311.42383	0.55395
1309.49526	0.55317
1307.56670	0.55238
1305.63813	0.55154
1303.70957	0.55069
1301.78101	0.54997
1299.85244	0.54924
1297.92388	0.54838
1295.99531	0.54744
1294.06675	0.54644
1292.13818	0.54558
1290.20962	0.54506
1288.28105	0.54453
1286.35249	0.54368
1284.42393	0.54271
1282.49536	0.54181
1280.56680	0.54100
1278.63823	0.54012
1276.70967	0.53926
1274.78110	0.53865
1272.85254	0.53825
1270.92397	0.53786
1268.99541	0.53724
1267.06685	0.53635
1265.13828	0.53559
1263.20972	0.53516
1261.28115	0.53473
1259.35259	0.53411
1257.42402	0.53358
1255.49546	0.53329
1253.56689	0.53307
1251.63833	0.53283
1249.70977	0.53265
1247.78120	0.53244
1245.85264	0.53197
1243.92407	0.53131
1241.99551	0.53071
1240.06694	0.53004
1238.13838	0.52916
1236.20981	0.52821
1234.28125	0.52715
1232.35269	0.52590
1230.42412	0.52466
1228.49556	0.52362
1226.56699	0.52266
1224.63843	0.52155
1222.70986	0.52028
1220.78130	0.51916
1218.85273	0.51827
1216.92417	0.51734
1214.99561	0.51641
1213.06704	0.51566
1211.13848	0.51503
1209.20991	0.51450
1207.28135	0.51402
1205.35278	0.51351
1203.42422	0.51289
1201.49565	0.51209
1199.56709	0.51125
1197.63853	0.51044
1195.70996	0.50967
1193.78140	0.50899
1191.85283	0.50846
1189.92427	0.50808
1187.99570	0.50770
1186.06714	0.50733
1184.13857	0.50707
1182.21001	0.50702
1180.28145	0.50720
1178.35288	0.50763
1176.42432	0.50829
1174.49575	0.50904
1172.56719	0.50977
1170.63862	0.51032
1168.71006	0.51070
1166.78149	0.51106
1164.85293	0.51141
1162.92437	0.51177
1160.99580	0.51204
1159.06724	0.51193
1157.13867	0.51147
1155.21011	0.51095
1153.28154	0.51015
1151.35298	0.50857
1149.42441	0.50640
1147.49585	0.50419
1145.56729	0.50197
1143.63872	0.49955
1141.71016	0.49713
1139.78159	0.49489
1137.85303	0.49296
1135.92446	0.49141
1133.99590	0.49023
1132.06733	0.48916
1130.13877	0.48804
1128.21021	0.48695
1126.28164	0.48590
1124.35308	0.48502
1122.42451	0.48455
1120.49595	0.48432
1118.56738	0.48413
1116.63882	0.48410
1114.71025	0.48446
1112.78169	0.48521
1110.85312	0.48604
1108.92456	0.48671
1106.99600	0.48730
1105.06743	0.48809
1103.13887	0.48930
1101.21030	0.49085
1099.28174	0.49252
1097.35317	0.49445
1095.42461	0.49701
1093.49604	0.50038
1091.56748	0.50479
1089.63892	0.51055
1087.71035	0.51762
1085.78179	0.52559
1083.85322	0.53364
1081.92466	0.54069
1079.99609	0.54602
1078.06753	0.54943
1076.13896	0.55035
1074.21040	0.54797
1072.28184	0.54273
1070.35327	0.53618
1068.42471	0.52941
1066.49614	0.52275
1064.56758	0.51660
1062.63901	0.51125
1060.71045	0.50638
1058.78188	0.50186
1056.85332	0.49791
1054.92476	0.49457
1052.99619	0.49180
1051.06763	0.48959
1049.13906	0.48787
1047.21050	0.48652
1045.28193	0.48562
1043.35337	0.48522
1041.42480	0.48520
1039.49624	0.48533
1037.56768	0.48539
1035.63911	0.48543
1033.71055	0.48551
1031.78198	0.48524
1029.85342	0.48447
1027.92485	0.48353
1025.99629	0.48284
1024.06772	0.48265
1022.13916	0.48262
1020.21060	0.48235
1018.28203	0.48218
1016.35347	0.48240
1014.42490	0.48288
1012.49634	0.48349
1010.56777	0.48404
1008.63921	0.48453
1006.71064	0.48529
1004.78208	0.48666
1002.85352	0.48881
1000.92495	0.49149
998.99639	0.49464
997.06782	0.49834
995.13926	0.50232
993.21069	0.50630
991.28213	0.50975
989.35356	0.51183
987.42500	0.51253
985.49644	0.51283
983.56787	0.51349
981.63931	0.51458
979.71074	0.51597
977.78218	0.51767
975.85361	0.51977
973.92505	0.52236
971.99648	0.52541
970.06792	0.52881
968.13936	0.53263
966.21079	0.53683
964.28223	0.54119
962.35366	0.54579
960.42510	0.55090
958.49653	0.55647
956.56797	0.56204
954.63940	0.56773
952.71084	0.57413
950.78228	0.58092
948.85371	0.58749
946.92515	0.59391
944.99658	0.60040
943.06802	0.60697
941.13945	0.61316
939.21089	0.61858
937.28232	0.62397
935.35376	0.62977
933.42520	0.63539
931.49663	0.64071
929.56807	0.64617
927.63950	0.65197
925.71094	0.65800
923.78237	0.66429
921.85381	0.67099
919.92524	0.67825
917.99668	0.68585
916.06812	0.69333
914.13955	0.70076
912.21099	0.70825
910.28242	0.71592
908.35386	0.72449
906.42529	0.73401
904.49673	0.74323
902.56816	0.75123
900.63960	0.75891
898.71104	0.76766
896.78247	0.77756
894.85391	0.78807
892.92534	0.79937
890.99678	0.81054
889.06821	0.82067
887.13965	0.83171
885.21108	0.84352
883.28252	0.85438
881.35396	0.86491
879.42539	0.87527
877.49683	0.88604
875.56826	0.89864
873.63970	0.91242
871.71113	0.92585
869.78257	0.93691
867.85400	0.94589
865.92544	0.95595
863.99687	0.96688
862.06831	0.97742
860.13975	0.98917
858.21118	1.00247
856.28262	1.01497
854.35405	1.02683
852.42549	1.04021
850.49692	1.05298
848.56836	1.06334
846.63979	1.07382
844.71123	1.08522
842.78267	1.09579
840.85410	1.10449
838.92554	1.11234
836.99697	1.12309
835.06841	1.13822
833.13984	1.15246
831.21128	1.16046
829.28271	1.16488
827.35415	1.17477
825.42559	1.19455
823.49702	1.21266
821.56846	1.21920
819.63989	1.22435
817.71133	1.23187
815.78276	1.23845
813.85420	1.24847
811.92563	1.26521
809.99707	1.28291
808.06851	1.29040
806.13994	1.29242
804.21138	1.29259
802.28281	1.29366
800.35425	1.31160
798.42568	1.33268
796.49712	1.32614
794.56855	1.30106
792.63999	1.29128
790.71143	1.31376
788.78286	1.33469
786.85430	1.31843
784.92573	1.29950
782.99717	1.30676
781.06860	1.33317
779.14004	1.32764
777.21147	1.27499
775.28291	1.24143
773.35435	1.26487
771.42578	1.33661
769.49722	1.38325
767.56865	1.35394
765.64009	1.30385
763.71152	1.27530
761.78296	1.25397
759.85439	1.20023
757.92583	1.12697
755.99727	1.08700
754.06870	1.09422
752.14014	1.12703
750.21157	1.20951
748.28301	1.29293
746.35444	1.19781
744.42588	1.04234
742.49731	0.94042
740.56875	0.95709
738.64019	1.13697
736.71162	1.05579
734.78306	0.73909
732.85449	0.55667
730.92593	0.42456
728.99736	0.25291
727.06880	-0.00160
725.14023	4.35084
723.21167	4.33927
721.28311	4.32770
719.35454	4.31613
717.42598	-0.11357
715.49741	0.64420
713.56885	4.28141
711.64028	4.26984
709.71172	0.74432
707.78315	0.46761
705.85459	0.36577
703.92603	0.35102
701.99746	0.37898
700.06890	0.42803
698.14033	0.46891
696.21177	0.48871
694.28320	0.48809
692.35464	0.47911
690.42607	0.49225
688.49751	0.51044
686.56895	0.49885
684.64038	0.46764
682.71182	0.46121
680.78325	0.53387
678.85469	0.63867
676.92612	0.61352
674.99756	0.58890
673.06899	0.73148
671.14043	0.87722
669.21187	0.70984
667.28330	0.58014
665.35474	0.52962
663.42617	0.52288
661.49761	0.55940
659.56904	0.56575
657.64048	0.47335
655.71191	0.41255
653.78335	0.42392
651.85479	0.44380
649.92622	0.46453
647.99766	0.48915
646.06909	0.44825
644.14053	0.40969
642.21196	0.50231
640.28340	0.88038
638.35483	1.63982
636.42627	0.74587
634.49771	0.65444
632.56914	0.79553
630.64058	0.66017
628.71201	0.46670
626.78345	0.43262
624.85488	0.51291
622.92632	0.59800
620.99775	0.53731
619.06919	0.50454
617.14062	0.58958
615.21206	0.77726
613.28350	0.91079
611.35493	0.70269
609.42637	0.58197
607.49780	0.61316
605.56924	0.84317
603.64067	3.62184
601.71211	3.61027
599.78354	0.83109
597.85498	0.68284
595.92642	0.65311
593.99785	0.68393
592.06929	0.64606
590.14072	0.47619
588.21216	0.37456
586.28359	0.36681
584.35503	0.38425
582.42646	0.39098
580.49790	0.41643
578.56934	0.40044
576.64077	0.34346
574.71221	0.34737
572.78364	0.41368
570.85508	0.46315
568.92651	0.46188
566.99795	0.40723
565.06938	0.36583
563.14082	0.38267
561.21226	0.45786
559.28369	0.48223
557.35513	0.43620
555.42656	0.46321
553.49800	0.58349
551.56943	0.63350
549.64087	0.53612
547.71230	0.42407
545.78374	0.37047
543.85518	0.40706
541.92661	0.47450
539.99805	0.47432
538.06948	0.44644
536.14092	0.39052
534.21235	0.34047
532.28379	0.37530
530.35522	0.46270
528.42666	0.46902
526.49810	0.35714
524.56953	0.27875
522.64097	0.29007
520.71240	0.34507
518.78384	0.38658
516.85527	0.40220
514.92671	0.39841
512.99814	0.39023
511.06958	0.42246
509.14102	0.48043
507.21245	0.45816
505.28389	0.42945
503.35532	0.48668
501.42676	0.53544
499.49819	0.45392
