3997.91411	0.06250
3995.98555	0.06289
3994.05698	0.06360
3992.12842	0.06405
3990.19985	0.06420
3988.27129	0.06447
3986.34272	0.06468
3984.41416	0.06522
3982.48560	0.06620
3980.55703	0.06644
3978.62847	0.06564
3976.69990	0.06504
3974.77134	0.06550
3972.84277	0.06647
3970.91421	0.06713
3968.98564	0.06727
3967.05708	0.06721
3965.12852	0.06752
3963.19995	0.06808
3961.27139	0.06809
3959.34282	0.06762
3957.41426	0.06741
3955.48569	0.06748
3953.55713	0.06778
3951.62856	0.06852
3949.70000	0.06930
3947.77144	0.06967
3945.84287	0.06958
3943.91431	0.06947
3941.98574	0.06970
3940.05718	0.06950
3938.12861	0.06881
3936.20005	0.06846
3934.27148	0.06858
3932.34292	0.06914
3930.41436	0.06972
3928.48579	0.06948
3926.55723	0.06905
3924.62866	0.06920
3922.70010	0.06921
3920.77153	0.06883
3918.84297	0.06873
3916.91440	0.06861
3914.98584	0.06787
3913.05728	0.06698
3911.12871	0.06662
3909.20015	0.06685
3907.27158	0.06759
3905.34302	0.06929
3903.41445	0.07167
3901.48589	0.07230
3899.55732	0.07086
3897.62876	0.06958
3895.70020	0.06885
3893.77163	0.06861
3891.84307	0.06899
3889.91450	0.06913
3887.98594	0.06858
3886.05737	0.06881
3884.12881	0.06973
3882.20024	0.06994
3880.27168	0.07007
3878.34312	0.06990
3876.41455	0.06926
3874.48599	0.06986
3872.55742	0.07155
3870.62886	0.07295
3868.70029	0.07368
3866.77173	0.07338
3864.84316	0.07328
3862.91460	0.07376
3860.98604	0.07350
3859.05747	0.07298
3857.12891	0.07331
3855.20034	0.07477
3853.27178	0.07785
3851.34321	0.08000
3849.41465	0.07785
3847.48608	0.07527
3845.55752	0.07477
3843.62896	0.07650
3841.70039	0.07904
3839.77183	0.08111
3837.84326	0.08256
3835.91470	0.08264
3833.98613	0.08184
3832.05757	0.08132
3830.12900	0.08095
3828.20044	0.08101
3826.27187	0.08194
3824.34331	0.08322
3822.41475	0.08508
3820.48618	0.08834
3818.55762	0.09005
3816.62905	0.08971
3814.70049	0.08936
3812.77192	0.08826
3810.84336	0.08749
3808.91479	0.08824
3806.98623	0.09022
3805.05767	0.09226
3803.12910	0.09406
3801.20054	0.09661
3799.27197	0.09826
3797.34341	0.09811
3795.41484	0.09796
3793.48628	0.09785
3791.55771	0.09800
3789.62915	0.09882
3787.70059	0.10025
3785.77202	0.10252
3783.84346	0.10480
3781.91489	0.10590
3779.98633	0.10697
3778.05776	0.10893
3776.12920	0.11041
3774.20063	0.11118
3772.27207	0.11242
3770.34351	0.11497
3768.41494	0.11808
3766.48638	0.12031
3764.55781	0.12197
3762.62925	0.12338
3760.70068	0.12562
3758.77212	0.12938
3756.84355	0.13269
3754.91499	0.13473
3752.98643	0.13755
3751.05786	0.14269
3749.12930	0.14830
3747.20073	0.15026
3745.27217	0.15092
3743.34360	0.15365
3741.41504	0.15724
3739.48647	0.16007
3737.55791	0.16373
3735.62935	0.16963
3733.70078	0.17654
3731.77222	0.18097
3729.84365	0.18344
3727.91509	0.18638
3725.98652	0.19154
3724.05796	0.19844
3722.12939	0.20527
3720.20083	0.21176
3718.27227	0.21786
3716.34370	0.22403
3714.41514	0.23124
3712.48657	0.24130
3710.55801	0.25577
3708.62944	0.27009
3706.70088	0.28069
3704.77231	0.29089
3702.84375	0.30347
3700.91519	0.31996
3698.98662	0.33796
3697.05806	0.35507
3695.12949	0.37335
3693.20093	0.39298
3691.27236	0.41466
3689.34380	0.44298
3687.41523	0.47703
3685.48667	0.50612
3683.55811	0.53127
3681.62954	0.55911
3679.70098	0.59149
3677.77241	0.62554
3675.84385	0.66456
3673.91528	0.71587
3671.98672	0.75793
3670.05815	0.79590
3668.12959	0.84799
3666.20103	0.89528
3664.27246	0.93490
3662.34390	0.97765
3660.41533	1.02396
3658.48677	1.06967
3656.55820	1.11801
3654.62964	1.17202
3652.70107	1.21857
3650.77251	1.25969
3648.84395	1.31518
3646.91538	1.38227
3644.98682	1.43125
3643.05825	1.46888
3641.12969	1.50773
3639.20112	1.55057
3637.27256	1.59378
3635.34399	1.63654
3633.41543	1.68006
3631.48687	1.72109
3629.55830	1.76249
3627.62974	1.81483
3625.70117	1.86293
3623.77261	1.89648
3621.84404	1.92875
3619.91548	1.96572
3617.98691	2.01189
3616.05835	2.05649
3614.12979	2.09314
3612.20122	2.13220
3610.27266	2.17050
3608.34409	2.20652
3606.41553	2.24552
3604.48696	2.28454
3602.55840	2.32139
3600.62983	2.36107
3598.70127	2.40136
3596.77271	2.43815
3594.84414	2.47699
3592.91558	2.51970
3590.98701	2.56003
3589.05845	2.59715
3587.12988	2.64062
3585.20132	2.68819
3583.27275	2.72915
3581.34419	2.76662
3579.41562	2.80542
3577.48706	2.84589
3575.55850	2.88711
3573.62993	2.92963
3571.70137	2.97146
3569.77280	3.01220
3567.84424	3.05555
3565.91567	3.10734
3563.98711	3.15756
3562.05854	3.19948
3560.12998	3.24157
3558.20142	3.28588
3556.27285	3.33165
3554.34429	3.37768
3552.41572	3.42354
3550.48716	3.46775
3548.55859	3.51049
3546.63003	3.55583
3544.70146	3.60457
3542.77290	3.65051
3540.84434	3.69363
3538.91577	3.73930
3536.98721	3.78837
3535.05864	3.83946
3533.13008	3.88819
3531.20151	3.93421
3529.27295	3.98076
3527.34438	4.03253
3525.41582	4.08748
3523.48726	4.13767
3521.55869	4.18376
3519.63013	4.22832
3517.70156	4.27240
3515.77300	4.31607
3513.84443	4.36037
3511.91587	4.40566
3509.98730	4.45252
3508.05874	4.50280
3506.13018	4.55132
3504.20161	4.59533
3502.27305	4.64196
3500.34448	4.69162
3498.41592	4.73834
3496.48735	4.78384
3494.55879	4.83178
3492.63022	4.88217
3490.70166	4.93454
3488.77310	4.98954
3486.84453	5.04195
3484.91597	5.08833
3482.98740	5.13853
3481.05884	5.19439
3479.13027	5.24241
3477.20171	5.28647
3475.27314	5.33608
3473.34458	5.38124
3471.41602	5.41438
3469.48745	5.44614
3467.55889	5.49385
3465.63032	5.55915
3463.70176	5.62710
3461.77319	5.68248
3459.84463	5.72114
3457.91606	5.75281
3455.98750	5.79557
3454.05894	5.84955
3452.13037	5.89837
3450.20181	5.94601
3448.27324	6.00443
3446.34468	6.07208
3444.41611	6.13732
3442.48755	6.19333
3440.55898	6.23623
3438.63042	6.26984
3436.70186	6.30650
3434.77329	6.35469
3432.84473	6.40492
3430.91616	6.44531
3428.98760	6.49172
3427.05903	6.54618
3425.13047	6.60260
3423.20190	6.64926
3421.27334	6.67943
3419.34478	6.71893
3417.41621	6.77104
3415.48765	6.81782
3413.55908	6.86853
3411.63052	6.92710
3409.70195	6.97694
3407.77339	7.01592
3405.84482	7.04408
3403.91626	7.09211
3401.98770	7.16940
3400.05913	7.24731
3398.13057	7.31536
3396.20200	7.36222
3394.27344	7.38764
3392.34487	7.39439
3390.41631	7.39742
3388.48774	7.41516
3386.55918	7.46978
3384.63062	7.53991
3382.70205	7.57437
3380.77349	7.56893
3378.84492	7.55906
3376.91636	7.56308
3374.98779	7.56038
3373.05923	7.56730
3371.13066	7.58781
3369.20210	7.64432
3367.27354	7.73958
3365.34497	7.80209
3363.41641	7.81914
3361.48784	7.81695
3359.55928	7.81393
3357.63071	7.83681
3355.70215	7.88922
3353.77358	7.92740
3351.84502	7.94496
3349.91646	7.96036
3347.98789	7.95240
3346.05933	7.89431
3344.13076	7.86534
3342.20220	7.92297
3340.27363	7.96832
3338.34507	7.97922
3336.41650	8.02114
3334.48794	8.07893
3332.55937	8.08873
3330.63081	8.07102
3328.70225	8.07250
3326.77368	8.09701
3324.84512	8.13686
3322.91655	8.17136
3320.98799	8.18728
3319.05942	8.12462
3317.13086	8.00967
3315.20229	7.94120
3313.27373	7.93681
3311.34517	7.95878
3309.41660	7.99170
3307.48804	8.02049
3305.55947	8.04927
3303.63091	8.12849
3301.70234	8.22759
3299.77378	8.28994
3297.84521	8.27238
3295.91665	8.20022
3293.98809	8.16305
3292.05952	8.13495
3290.13096	8.08666
3288.20239	8.13009
3286.27383	8.28521
3284.34526	8.31371
3282.41670	8.16429
3280.48813	8.06848
3278.55957	8.06884
3276.63101	8.13534
3274.70244	8.30102
3272.77388	8.35779
3270.84531	8.15978
3268.91675	7.98489
3266.98818	7.93858
3265.05962	7.95405
3263.13105	8.01050
3261.20249	8.12771
3259.27393	8.22819
3257.34536	8.20710
3255.41680	8.12977
3253.48823	8.11127
3251.55967	8.17894
3249.63110	8.17555
3247.70254	8.02882
3245.77397	7.99381
3243.84541	8.14869
3241.91685	8.28412
3239.98828	8.29541
3238.05972	8.25686
3236.13115	8.25864
3234.20259	8.25416
3232.27402	8.14972
3230.34546	8.04004
3228.41689	8.04041
3226.48833	8.08674
3224.55977	8.02862
3222.63120	7.96567
3220.70264	7.98459
3218.77407	7.96618
3216.84551	7.88739
3214.91694	7.84122
3212.98838	7.84794
3211.05981	7.83260
3209.13125	7.80571
3207.20269	7.81720
3205.27412	7.81516
3203.34556	7.82383
3201.41699	7.85758
3199.48843	7.79529
3197.55986	7.65693
3195.63130	7.57698
3193.70273	7.58076
3191.77417	7.60425
3189.84561	7.61011
3187.91704	7.61064
3185.98848	7.58952
3184.05991	7.52093
3182.13135	7.41375
3180.20278	7.28927
3178.27422	7.19471
3176.34565	7.18309
3174.41709	7.20490
3172.48853	7.16073
3170.55996	7.06394
3168.63140	6.98440
3166.70283	6.93878
3164.77427	6.90707
3162.84570	6.87624
3160.91714	6.83901
3158.98857	6.78574
3157.06001	6.70535
3155.13145	6.60706
3153.20288	6.52460
3151.27432	6.46644
3149.34575	6.40315
3147.41719	6.32389
3145.48862	6.24261
3143.56006	6.16224
3141.63149	6.09055
3139.70293	6.03265
3137.77437	5.98008
3135.84580	5.92281
3133.91724	5.85486
3131.98867	5.77702
3130.06011	5.69124
3128.13154	5.60479
3126.20298	5.53216
3124.27441	5.47793
3122.34585	5.42321
3120.41729	5.35459
3118.48872	5.27911
3116.56016	5.20115
3114.63159	5.12643
3112.70303	5.05958
3110.77446	4.99215
3108.84590	4.91783
3106.91733	4.84036
3104.98877	4.76731
3103.06021	4.70020
3101.13164	4.63252
3099.20308	4.56486
3097.27451	4.49674
3095.34595	4.42303
3093.41738	4.35046
3091.48882	4.28497
3089.56025	4.22243
3087.63169	4.16048
3085.70312	4.09846
3083.77456	4.03341
3081.84600	3.96583
3079.91743	3.90090
3077.98887	3.83927
3076.06030	3.77665
3074.13174	3.71399
3072.20317	3.65391
3070.27461	3.59459
3068.34604	3.53576
3066.41748	3.47879
3064.48892	3.42188
3062.56035	3.36337
3060.63179	3.30558
3058.70322	3.25010
3056.77466	3.19515
3054.84609	3.13935
3052.91753	3.08412
3050.98896	3.03133
3049.06040	2.98089
3047.13184	2.93154
3045.20327	2.88133
3043.27471	2.83026
3041.34614	2.78082
3039.41758	2.73355
3037.48901	2.68633
3035.56045	2.63830
3033.63188	2.59145
3031.70332	2.54646
3029.77476	2.50156
3027.84619	2.45623
3025.91763	2.41162
3023.98906	2.36919
3022.06050	2.32870
3020.13193	2.28816
3018.20337	2.24715
3016.27480	2.20681
3014.34624	2.16698
3012.41768	2.12702
3010.48911	2.08780
3008.56055	2.05049
3006.63198	2.01462
3004.70342	1.97859
3002.77485	1.94167
3000.84629	1.90513
2998.91772	1.87032
2996.98916	1.83695
2995.06060	1.80409
2993.13203	1.77118
2991.20347	1.73848
2989.27490	1.70629
2987.34634	1.67418
2985.41777	1.64253
2983.48921	1.61220
2981.56064	1.58269
2979.63208	1.55305
2977.70352	1.52372
2975.77495	1.49546
2973.84639	1.46755
2971.91782	1.43950
2969.98926	1.41197
2968.06069	1.38546
2966.13213	1.35986
2964.20356	1.33449
2962.27500	1.30910
2960.34644	1.28406
2958.41787	1.25972
2956.48931	1.23595
2954.56074	1.21264
2952.63218	1.19001
2950.70361	1.16797
2948.77505	1.14607
2946.84648	1.12415
2944.91792	1.10243
2942.98936	1.08129
2941.06079	1.06099
2939.13223	1.04103
2937.20366	1.02107
2935.27510	1.00176
2933.34653	0.98325
2931.41797	0.96479
2929.48940	0.94646
2927.56084	0.92899
2925.63228	0.91216
2923.70371	0.89552
2921.77515	0.87918
2919.84658	0.86301
2917.91802	0.84719
2915.98945	0.83186
2914.06089	0.81644
2912.13232	0.80100
2910.20376	0.78606
2908.27520	0.77150
2906.34663	0.75741
2904.41807	0.74405
2902.48950	0.73120
2900.56094	0.71842
2898.63237	0.70553
2896.70381	0.69311
2894.77524	0.68131
2892.84668	0.66936
2890.91812	0.65717
2888.98955	0.64539
2887.06099	0.63414
2885.13242	0.62313
2883.20386	0.61215
2881.27529	0.60119
2879.34673	0.59066
2877.41816	0.58045
2875.48960	0.57013
2873.56104	0.55993
2871.63247	0.55017
2869.70391	0.54070
2867.77534	0.53138
2865.84678	0.52191
2863.91821	0.51231
2861.98965	0.50324
2860.06108	0.49467
2858.13252	0.48612
2856.20396	0.47775
2854.27539	0.46987
2852.34683	0.46233
2850.41826	0.45484
2848.48970	0.44739
2846.56113	0.43996
2844.63257	0.43258
2842.70400	0.42568
2840.77544	0.41942
2838.84687	0.41334
2836.91831	0.40734
2834.98975	0.40136
2833.06118	0.39548
2831.13262	0.38978
2829.20405	0.38398
2827.27549	0.37820
2825.34692	0.37266
2823.41836	0.36714
2821.48979	0.36151
2819.56123	0.35590
2817.63267	0.35045
2815.70410	0.34516
2813.77554	0.33997
2811.84697	0.33480
2809.91841	0.32969
2807.98984	0.32470
2806.06128	0.32000
2804.13271	0.31543
2802.20415	0.31073
2800.27559	0.30600
2798.34702	0.30138
2796.41846	0.29700
2794.48989	0.29299
2792.56133	0.28907
2790.63276	0.28507
2788.70420	0.28113
2786.77563	0.27728
2784.84707	0.27339
2782.91851	0.26950
2780.98994	0.26569
2779.06138	0.26204
2777.13281	0.25857
2775.20425	0.25513
2773.27568	0.25163
2771.34712	0.24827
2769.41855	0.24517
2767.48999	0.24215
2765.56143	0.23902
2763.63286	0.23587
2761.70430	0.23282
2759.77573	0.22991
2757.84717	0.22708
2755.91860	0.22429
2753.99004	0.22153
2752.06147	0.21879
2750.13291	0.21617
2748.20435	0.21379
2746.27578	0.21147
2744.34722	0.20896
2742.41865	0.20632
2740.49009	0.20392
2738.56152	0.20193
2736.63296	0.19983
2734.70439	0.19748
2732.77583	0.19528
2730.84727	0.19323
2728.91870	0.19121
2726.99014	0.18937
2725.06157	0.18749
2723.13301	0.18542
2721.20444	0.18347
2719.27588	0.18167
2717.34731	0.17985
2715.41875	0.17810
2713.49019	0.17653
2711.56162	0.17498
2709.63306	0.17341
2707.70449	0.17195
2705.77593	0.17049
2703.84736	0.16905
2701.91880	0.16773
2699.99023	0.16643
2698.06167	0.16511
2696.13311	0.16384
2694.20454	0.16251
2692.27598	0.16122
2690.34741	0.16019
2688.41885	0.15913
2686.49028	0.15785
2684.56172	0.15669
2682.63315	0.15572
2680.70459	0.15474
2678.77603	0.15373
2676.84746	0.15267
2674.91890	0.15163
2672.99033	0.15076
2671.06177	0.15002
2669.13320	0.14928
2667.20464	0.14849
2665.27607	0.14769
2663.34751	0.14697
2661.41895	0.14621
2659.49038	0.14532
2657.56182	0.14455
2655.63325	0.14407
2653.70469	0.14359
2651.77612	0.14307
2649.84756	0.14265
2647.91899	0.14217
2645.99043	0.14164
2644.06187	0.14114
2642.13330	0.14062
2640.20474	0.14013
2638.27617	0.13984
2636.34761	0.13978
2634.41904	0.13969
2632.49048	0.13934
2630.56191	0.13884
2628.63335	0.13852
2626.70479	0.13835
2624.77622	0.13813
2622.84766	0.13802
2620.91909	0.13809
2618.99053	0.13816
2617.06196	0.13813
2615.13340	0.13801
2613.20483	0.13792
2611.27627	0.13791
2609.34771	0.13787
2607.41914	0.13779
2605.49058	0.13776
2603.56201	0.13781
2601.63345	0.13799
2599.70488	0.13815
2597.77632	0.13825
2595.84775	0.13839
2593.91919	0.13850
2591.99062	0.13859
2590.06206	0.13883
2588.13350	0.13916
2586.20493	0.13954
2584.27637	0.14001
2582.34780	0.14045
2580.41924	0.14079
2578.49067	0.14105
2576.56211	0.14131
2574.63354	0.14174
2572.70498	0.14222
2570.77642	0.14260
2568.84785	0.14297
2566.91929	0.14347
2564.99072	0.14412
2563.06216	0.14483
2561.13359	0.14544
2559.20503	0.14585
2557.27646	0.14621
2555.34790	0.14682
2553.41934	0.14756
2551.49077	0.14827
2549.56221	0.14912
2547.63364	0.14999
2545.70508	0.15062
2543.77651	0.15107
2541.84795	0.15165
2539.91938	0.15242
2537.99082	0.15316
2536.06226	0.15383
2534.13369	0.15454
2532.20513	0.15530
2530.27656	0.15611
2528.34800	0.15686
2526.41943	0.15756
2524.49087	0.15836
2522.56230	0.15928
2520.63374	0.16023
2518.70518	0.16113
2516.77661	0.16197
2514.84805	0.16276
2512.91948	0.16359
2510.99092	0.16449
2509.06235	0.16539
2507.13379	0.16624
2505.20522	0.16708
2503.27666	0.16807
2501.34810	0.16919
2499.41953	0.17016
2497.49097	0.17086
2495.56240	0.17163
2493.63384	0.17261
2491.70527	0.17367
2489.77671	0.17468
2487.84814	0.17561
2485.91958	0.17654
2483.99102	0.17753
2482.06245	0.17853
2480.13389	0.17944
2478.20532	0.18034
2476.27676	0.18140
2474.34819	0.18246
2472.41963	0.18337
2470.49106	0.18429
2468.56250	0.18526
2466.63394	0.18624
2464.70537	0.18727
2462.77681	0.18834
2460.84824	0.18934
2458.91968	0.19041
2456.99111	0.19164
2455.06255	0.19279
2453.13398	0.19375
2451.20542	0.19472
2449.27686	0.19572
2447.34829	0.19667
2445.41973	0.19758
2443.49116	0.19860
2441.56260	0.19978
2439.63403	0.20099
2437.70547	0.20207
2435.77690	0.20307
2433.84834	0.20407
2431.91978	0.20514
2429.99121	0.20625
2428.06265	0.20737
2426.13408	0.20853
2424.20552	0.20982
2422.27695	0.21109
2420.34839	0.21218
2418.41982	0.21327
2416.49126	0.21447
2414.56270	0.21564
2412.63413	0.21682
2410.70557	0.21810
2408.77700	0.21930
2406.84844	0.22035
2404.91987	0.22148
2402.99131	0.22270
2401.06274	0.22392
2399.13418	0.22521
2397.20562	0.22658
2395.27705	0.22793
2393.34849	0.22923
2391.41992	0.23054
2389.49136	0.23191
2387.56279	0.23336
2385.63423	0.23510
2383.70566	0.23735
2381.77710	0.24001
2379.84854	0.24310
2377.91997	0.24674
2375.99141	0.25050
2374.06284	0.25414
2372.13428	0.25836
2370.20571	0.26386
2368.27715	0.27015
2366.34858	0.27580
2364.42002	0.27978
2362.49146	0.28242
2360.56289	0.28388
2358.63433	0.28458
2356.70576	0.28524
2354.77720	0.28448
2352.84863	0.28254
2350.92007	0.28075
2348.99150	0.27970
2347.06294	0.28013
2345.13437	0.28297
2343.20581	0.28775
2341.27725	0.29175
2339.34868	0.29375
2337.42012	0.29474
2335.49155	0.29569
2333.56299	0.29647
2331.63442	0.29777
2329.70586	0.29981
2327.77729	0.30107
2325.84873	0.30085
2323.92017	0.30020
2321.99160	0.30015
2320.06304	0.30058
2318.13447	0.30108
2316.20591	0.30170
2314.27734	0.30252
2312.34878	0.30350
2310.42021	0.30460
2308.49165	0.30565
2306.56309	0.30644
2304.63452	0.30707
2302.70596	0.30801
2300.77739	0.30938
2298.84883	0.31087
2296.92026	0.31239
2294.99170	0.31383
2293.06313	0.31516
2291.13457	0.31656
2289.20601	0.31814
2287.27744	0.31978
2285.34888	0.32139
2283.42031	0.32304
2281.49175	0.32500
2279.56318	0.32716
2277.63462	0.32923
2275.70605	0.33134
2273.77749	0.33356
2271.84893	0.33571
2269.92036	0.33768
2267.99180	0.33971
2266.06323	0.34204
2264.13467	0.34433
2262.20610	0.34639
2260.27754	0.34839
2258.34897	0.35039
2256.42041	0.35244
2254.49185	0.35456
2252.56328	0.35674
2250.63472	0.35888
2248.70615	0.36091
2246.77759	0.36290
2244.84902	0.36505
2242.92046	0.36738
2240.99189	0.36972
2239.06333	0.37203
2237.13477	0.37433
2235.20620	0.37651
2233.27764	0.37856
2231.34907	0.38069
2229.42051	0.38298
2227.49194	0.38526
2225.56338	0.38747
2223.63481	0.38969
2221.70625	0.39199
2219.77769	0.39430
2217.84912	0.39655
2215.92056	0.39871
2213.99199	0.40075
2212.06343	0.40285
2210.13486	0.40507
2208.20630	0.40720
2206.27773	0.40924
2204.34917	0.41139
2202.42061	0.41362
2200.49204	0.41569
2198.56348	0.41758
2196.63491	0.41946
2194.70635	0.42160
2192.77778	0.42378
2190.84922	0.42567
2188.92065	0.42734
2186.99209	0.42907
2185.06353	0.43089
2183.13496	0.43266
2181.20640	0.43436
2179.27783	0.43601
2177.34927	0.43757
2175.42070	0.43899
2173.49214	0.44048
2171.56357	0.44216
2169.63501	0.44370
2167.70645	0.44495
2165.77788	0.44606
2163.84932	0.44718
2161.92075	0.44836
2159.99219	0.44956
2158.06362	0.45064
2156.13506	0.45159
2154.20649	0.45247
2152.27793	0.45331
2150.34937	0.45396
2148.42080	0.45443
2146.49224	0.45499
2144.56367	0.45570
2142.63511	0.45633
2140.70654	0.45668
2138.77798	0.45683
2136.84941	0.45694
2134.92085	0.45695
2132.99229	0.45684
2131.06372	0.45669
2129.13516	0.45651
2127.20659	0.45627
2125.27803	0.45592
2123.34946	0.45541
2121.42090	0.45486
2119.49233	0.45429
2117.56377	0.45367
2115.63521	0.45297
2113.70664	0.45223
2111.77808	0.45143
2109.84951	0.45047
2107.92095	0.44937
2105.99238	0.44820
2104.06382	0.44695
2102.13525	0.44559
2100.20669	0.44428
2098.27812	0.44308
2096.34956	0.44188
2094.42100	0.44042
2092.49243	0.43863
2090.56387	0.43677
2088.63530	0.43486
2086.70674	0.43289
2084.77817	0.43100
2082.84961	0.42924
2080.92104	0.42736
2078.99248	0.42522
2077.06392	0.42292
2075.13535	0.42075
2073.20679	0.41868
2071.27822	0.41645
2069.34966	0.41403
2067.42109	0.41160
2065.49253	0.40928
2063.56396	0.40700
2061.63540	0.40460
2059.70684	0.40203
2057.77827	0.39944
2055.84971	0.39685
2053.92114	0.39423
2051.99258	0.39167
2050.06401	0.38916
2048.13545	0.38654
2046.20688	0.38381
2044.27832	0.38114
2042.34976	0.37849
2040.42119	0.37579
2038.49263	0.37310
2036.56406	0.37038
2034.63550	0.36755
2032.70693	0.36472
2030.77837	0.36196
2028.84980	0.35916
2026.92124	0.35641
2024.99268	0.35365
2023.06411	0.35076
2021.13555	0.34790
2019.20698	0.34529
2017.27842	0.34272
2015.34985	0.33993
2013.42129	0.33707
2011.49272	0.33425
2009.56416	0.33143
2007.63560	0.32867
2005.70703	0.32596
2003.77847	0.32324
2001.84990	0.32067
1999.92134	0.31821
1997.99277	0.31565
1996.06421	0.31305
1994.13564	0.31067
1992.20708	0.30846
1990.27852	0.30599
1988.34995	0.30325
1986.42139	0.30054
1984.49282	0.29796
1982.56426	0.29551
1980.63569	0.29322
1978.70713	0.29101
1976.77856	0.28877
1974.85000	0.28651
1972.92144	0.28428
1970.99287	0.28221
1969.06431	0.28034
1967.13574	0.27854
1965.20718	0.27652
1963.27861	0.27440
1961.35005	0.27236
1959.42148	0.27036
1957.49292	0.26848
1955.56436	0.26669
1953.63579	0.26483
1951.70723	0.26302
1949.77866	0.26149
1947.85010	0.26014
1945.92153	0.25882
1943.99297	0.25749
1942.06440	0.25603
1940.13584	0.25434
1938.20728	0.25279
1936.27871	0.25154
1934.35015	0.25031
1932.42158	0.24900
1930.49302	0.24776
1928.56445	0.24667
1926.63589	0.24569
1924.70732	0.24497
1922.77876	0.24433
1920.85020	0.24344
1918.92163	0.24248
1916.99307	0.24143
1915.06450	0.24025
1913.13594	0.23931
1911.20737	0.23876
1909.27881	0.23821
1907.35024	0.23741
1905.42168	0.23657
1903.49312	0.23589
1901.56455	0.23526
1899.63599	0.23470
1897.70742	0.23428
1895.77886	0.23399
1893.85029	0.23372
1891.92173	0.23341
1889.99316	0.23331
1888.06460	0.23321
1886.13604	0.23287
1884.20747	0.23247
1882.27891	0.23211
1880.35034	0.23194
1878.42178	0.23192
1876.49321	0.23188
1874.56465	0.23184
1872.63608	0.23213
1870.70752	0.23291
1868.77896	0.23397
1866.85039	0.23423
1864.92183	0.23358
1862.99326	0.23316
1861.06470	0.23329
1859.13613	0.23371
1857.20757	0.23412
1855.27900	0.23459
1853.35044	0.23512
1851.42187	0.23576
1849.49331	0.23652
1847.56475	0.23750
1845.63618	0.23869
1843.70762	0.23978
1841.77905	0.24018
1839.85049	0.24031
1837.92192	0.24102
1835.99336	0.24207
1834.06479	0.24309
1832.13623	0.24422
1830.20767	0.24587
1828.27910	0.24735
1826.35054	0.24827
1824.42197	0.24949
1822.49341	0.25058
1820.56484	0.25150
1818.63628	0.25277
1816.70771	0.25444
1814.77915	0.25611
1812.85059	0.25804
1810.92202	0.26037
1808.99346	0.26248
1807.06489	0.26424
1805.13633	0.26608
1803.20776	0.26845
1801.27920	0.27120
1799.35063	0.27403
1797.42207	0.27655
1795.49351	0.27919
1793.56494	0.28239
1791.63638	0.28622
1789.70781	0.28938
1787.77925	0.29165
1785.85068	0.29478
1783.92212	0.29875
1781.99355	0.30293
1780.06499	0.30708
1778.13643	0.31119
1776.20786	0.31528
1774.27930	0.32005
1772.35073	0.32651
1770.42217	0.33295
1768.49360	0.33786
1766.56504	0.34261
1764.63647	0.34770
1762.70791	0.35355
1760.77935	0.36115
1758.85078	0.36846
1756.92222	0.37585
1754.99365	0.38373
1753.06509	0.39090
1751.13652	0.39973
1749.20796	0.41094
1747.27939	0.42172
1745.35083	0.43098
1743.42227	0.44064
1741.49370	0.45119
1739.56514	0.46363
1737.63657	0.47634
1735.70801	0.48792
1733.77944	0.50509
1731.85088	0.52468
1729.92231	0.53981
1727.99375	0.55531
1726.06519	0.57218
1724.13662	0.59080
1722.20806	0.61079
1720.27949	0.62919
1718.35093	0.65112
1716.42236	0.68368
1714.49380	0.71407
1712.56523	0.73813
1710.63667	0.76148
1708.70811	0.78699
1706.77954	0.81630
1704.85098	0.85105
1702.92241	0.88163
1700.99385	0.91172
1699.06528	0.95649
1697.13672	0.99718
1695.20815	1.03777
1693.27959	1.07676
1691.35103	1.10825
1689.42246	1.14437
1687.49390	1.18202
1685.56533	1.21859
1683.63677	1.27462
1681.70820	1.33097
1679.77964	1.36660
1677.85107	1.40125
1675.92251	1.44150
1673.99395	1.49062
1672.06538	1.53370
1670.13682	1.57579
1668.20825	1.62941
1666.27969	1.67129
1664.35112	1.70547
1662.42256	1.74754
1660.49399	1.79412
1658.56543	1.83016
1656.63687	1.86014
1654.70830	1.89021
1652.77974	1.94211
1650.85117	1.99226
1648.92261	2.01236
1646.99404	2.04005
1645.06548	2.07331
1643.13691	2.09545
1641.20835	2.10941
1639.27979	2.12094
1637.35122	2.12728
1635.42266	2.12842
1633.49409	2.12633
1631.56553	2.11810
1629.63696	2.10520
1627.70840	2.08389
1625.77983	2.05906
1623.85127	2.02550
1621.92271	1.98167
1619.99414	1.94132
1618.06558	1.90203
1616.13701	1.84696
1614.20845	1.79017
1612.27988	1.74564
1610.35132	1.69833
1608.42275	1.64684
1606.49419	1.59585
1604.56562	1.54854
1602.63706	1.50268
1600.70850	1.45730
1598.77993	1.41527
1596.85137	1.37585
1594.92280	1.33722
1592.99424	1.29942
1591.06567	1.26452
1589.13711	1.23151
1587.20854	1.20017
1585.27998	1.17071
1583.35142	1.14277
1581.42285	1.11674
1579.49429	1.09407
1577.56572	1.07334
1575.63716	1.04741
1573.70859	1.02366
1571.78003	1.00768
1569.85146	0.99049
1567.92290	0.97050
1565.99434	0.95414
1564.06577	0.93990
1562.13721	0.92797
1560.20864	0.91801
1558.28008	0.89968
1556.35151	0.88156
1554.42295	0.87036
1552.49438	0.85968
1550.56582	0.84931
1548.63726	0.83882
1546.70869	0.82981
1544.78013	0.82232
1542.85156	0.81523
1540.92300	0.80704
1538.99443	0.79470
1537.06587	0.78515
1535.13730	0.77917
1533.20874	0.77224
1531.28018	0.76449
1529.35161	0.75853
1527.42305	0.75320
1525.49448	0.74767
1523.56592	0.74252
1521.63735	0.73697
1519.70879	0.73033
1517.78022	0.72470
1515.85166	0.71939
1513.92310	0.71410
1511.99453	0.70973
1510.06597	0.70642
1508.13740	0.70413
1506.20884	0.69936
1504.28027	0.69280
1502.35171	0.68873
1500.42314	0.68592
1498.49458	0.68330
1496.56602	0.67984
1494.63745	0.67585
1492.70889	0.67283
1490.78032	0.67083
1488.85176	0.66819
1486.92319	0.66421
1484.99463	0.66035
1483.06606	0.65722
1481.13750	0.65446
1479.20894	0.65189
1477.28037	0.64967
1475.35181	0.64767
1473.42324	0.64552
1471.49468	0.64209
1469.56611	0.63829
1467.63755	0.63538
1465.70898	0.63289
1463.78042	0.63025
1461.85186	0.62795
1459.92329	0.62652
1457.99473	0.62548
1456.06616	0.62312
1454.13760	0.61986
1452.20903	0.61743
1450.28047	0.61571
1448.35190	0.61431
1446.42334	0.61239
1444.49478	0.61012
1442.56621	0.60832
1440.63765	0.60698
1438.70908	0.60605
1436.78052	0.60523
1434.85195	0.60361
1432.92339	0.60152
1430.99482	0.59978
1429.06626	0.59820
1427.13770	0.59663
1425.20913	0.59529
1423.28057	0.59405
1421.35200	0.59283
1419.42344	0.59167
1417.49487	0.59011
1415.56631	0.58818
1413.63774	0.58638
1411.70918	0.58469
1409.78062	0.58317
1407.85205	0.58191
1405.92349	0.58084
1403.99492	0.57969
1402.06636	0.57839
1400.13779	0.57724
1398.20923	0.57624
1396.28066	0.57519
1394.35210	0.57389
1392.42354	0.57229
1390.49497	0.57076
1388.56641	0.56964
1386.63784	0.56858
1384.70928	0.56720
1382.78071	0.56591
1380.85215	0.56493
1378.92358	0.56409
1376.99502	0.56331
1375.06646	0.56256
1373.13789	0.56144
1371.20933	0.55999
1369.28076	0.55876
1367.35220	0.55790
1365.42363	0.55715
1363.49507	0.55635
1361.56650	0.55533
1359.63794	0.55414
1357.70937	0.55315
1355.78081	0.55237
1353.85225	0.55150
1351.92368	0.55052
1349.99512	0.54971
1348.06655	0.54899
1346.13799	0.54819
1344.20942	0.54734
1342.28086	0.54663
1340.35229	0.54617
1338.42373	0.54548
1336.49517	0.54427
1334.56660	0.54307
1332.63804	0.54213
1330.70947	0.54128
1328.78091	0.54037
1326.85234	0.53945
1324.92378	0.53864
1322.99521	0.53791
1321.06665	0.53716
1319.13809	0.53645
1317.20952	0.53572
1315.28096	0.53488
1313.35239	0.53405
1311.42383	0.53331
1309.49526	0.53267
1307.56670	0.53201
1305.63813	0.53130
1303.70957	0.53053
1301.78101	0.52975
1299.85244	0.52900
1297.92388	0.52828
1295.99531	0.52757
1294.06675	0.52694
1292.13818	0.52638
1290.20962	0.52588
1288.28105	0.52539
1286.35249	0.52480
1284.42393	0.52415
1282.49536	0.52361
1280.56680	0.52326
1278.63823	0.52291
1276.70967	0.52241
1274.78110	0.52200
1272.85254	0.52169
1270.92397	0.52129
1268.99541	0.52083
1267.06685	0.52045
1265.13828	0.52016
1263.20972	0.51976
1261.28115	0.51925
1259.35259	0.51880
1257.42402	0.51841
1255.49546	0.51812
1253.56689	0.51792
1251.63833	0.51759
1249.70977	0.51709
1247.78120	0.51669
1245.85264	0.51639
1243.92407	0.51598
1241.99551	0.51556
1240.06694	0.51509
1238.13838	0.51445
1236.20981	0.51376
1234.28125	0.51333
1232.35269	0.51308
1230.42412	0.51270
1228.49556	0.51218
1226.56699	0.51160
1224.63843	0.51107
1222.70986	0.51070
1220.78130	0.51022
1218.85273	0.50949
1216.92417	0.50877
1214.99561	0.50825
1213.06704	0.50769
1211.13848	0.50694
1209.20991	0.50618
1207.28135	0.50557
1205.35278	0.50503
1203.42422	0.50446
1201.49565	0.50387
1199.56709	0.50334
1197.63853	0.50282
1195.70996	0.50228
1193.78140	0.50187
1191.85283	0.50154
1189.92427	0.50108
1187.99570	0.50065
1186.06714	0.50042
1184.13857	0.50026
1182.21001	0.50010
1180.28145	0.50004
1178.35288	0.50019
1176.42432	0.50042
1174.49575	0.50061
1172.56719	0.50093
1170.63862	0.50134
1168.71006	0.50165
1166.78149	0.50198
1164.85293	0.50245
1162.92437	0.50266
1160.99580	0.50247
1159.06724	0.50215
1157.13867	0.50167
1155.21011	0.50079
1153.28154	0.49962
1151.35298	0.49829
1149.42441	0.49673
1147.49585	0.49503
1145.56729	0.49320
1143.63872	0.49111
1141.71016	0.48881
1139.78159	0.48654
1137.85303	0.48437
1135.92446	0.48216
1133.99590	0.48003
1132.06733	0.47827
1130.13877	0.47671
1128.21021	0.47507
1126.28164	0.47350
1124.35308	0.47219
1122.42451	0.47119
1120.49595	0.47047
1118.56738	0.46992
1116.63882	0.46952
1114.71025	0.46941
1112.78169	0.46959
1110.85312	0.47002
1108.92456	0.47065
1106.99600	0.47149
1105.06743	0.47257
1103.13887	0.47406
1101.21030	0.47587
1099.28174	0.47778
1097.35317	0.48007
1095.42461	0.48304
1093.49604	0.48664
1091.56748	0.49083
1089.63892	0.49551
1087.71035	0.50079
1085.78179	0.50683
1083.85322	0.51342
1081.92466	0.52004
1079.99609	0.52590
1078.06753	0.52993
1076.13896	0.53136
1074.21040	0.52993
1072.28184	0.52590
1070.35327	0.52027
1068.42471	0.51401
1066.49614	0.50758
1064.56758	0.50127
1062.63901	0.49549
1060.71045	0.49041
1058.78188	0.48583
1056.85332	0.48173
1054.92476	0.47821
1052.99619	0.47527
1051.06763	0.47290
1049.13906	0.47091
1047.21050	0.46906
1045.28193	0.46749
1043.35337	0.46639
1041.42480	0.46564
1039.49624	0.46499
1037.56768	0.46437
1035.63911	0.46394
1033.71055	0.46385
1031.78198	0.46407
1029.85342	0.46436
1027.92485	0.46462
1025.99629	0.46494
1024.06772	0.46546
1022.13916	0.46626
1020.21060	0.46733
1018.28203	0.46851
1016.35347	0.46964
1014.42490	0.47084
1012.49634	0.47227
1010.56777	0.47393
1008.63921	0.47569
1006.71064	0.47750
1004.78208	0.47952
1002.85352	0.48190
1000.92495	0.48469
998.99639	0.48784
997.06782	0.49142
995.13926	0.49544
993.21069	0.49931
991.28213	0.50239
989.35356	0.50468
987.42500	0.50634
985.49644	0.50753
983.56787	0.50865
981.63931	0.50998
979.71074	0.51152
977.78218	0.51352
975.85361	0.51629
973.92505	0.51948
971.99648	0.52259
970.06792	0.52605
968.13936	0.53008
966.21079	0.53434
964.28223	0.53886
962.35366	0.54376
960.42510	0.54900
958.49653	0.55446
956.56797	0.56026
954.63940	0.56643
952.71084	0.57268
950.78228	0.57901
948.85371	0.58546
946.92515	0.59172
944.99658	0.59779
943.06802	0.60377
941.13945	0.60953
939.21089	0.61533
937.28232	0.62128
935.35376	0.62681
933.42520	0.63173
931.49663	0.63660
929.56807	0.64209
927.63950	0.64835
925.71094	0.65505
923.78237	0.66126
921.85381	0.66705
919.92524	0.67404
917.99668	0.68221
916.06812	0.69009
914.13955	0.69755
912.21099	0.70513
910.28242	0.71266
908.35386	0.71994
906.42529	0.72784
904.49673	0.73687
902.56816	0.74618
900.63960	0.75517
898.71104	0.76430
896.78247	0.77440
894.85391	0.78494
892.92534	0.79410
890.99678	0.80283
889.06821	0.81355
887.13965	0.82570
885.21108	0.83770
883.28252	0.84914
881.35396	0.85997
879.42539	0.87081
877.49683	0.88281
875.56826	0.89582
873.63970	0.90772
871.71113	0.91804
869.78257	0.92854
867.85400	0.93971
865.92544	0.95132
863.99687	0.96263
862.06831	0.97357
860.13975	0.98518
858.21118	0.99693
856.28262	1.00872
854.35405	1.02159
852.42549	1.03376
850.49692	1.04294
848.56836	1.05197
846.63979	1.06382
844.71123	1.07624
842.78267	1.08743
840.85410	1.09881
838.92554	1.10920
836.99697	1.11701
835.06841	1.12565
833.13984	1.13674
831.21128	1.14713
829.28271	1.15950
827.35415	1.17645
825.42559	1.18951
823.49702	1.19287
821.56846	1.19162
819.63989	1.19623
817.71133	1.20922
815.78276	1.22106
813.85420	1.22693
811.92563	1.23113
809.99707	1.23957
808.06851	1.25354
806.13994	1.26883
804.21138	1.28232
802.28281	1.29311
800.35425	1.29727
798.42568	1.29306
796.49712	1.28432
794.56855	1.26790
792.63999	1.24423
790.71143	1.23942
788.78286	1.27898
786.85430	1.34176
784.92573	1.35386
782.99717	1.31357
781.06860	1.29360
779.14004	1.28994
777.21147	1.27088
775.28291	1.24851
773.35435	1.24848
771.42578	1.25290
769.49722	1.23089
767.56865	1.22118
765.64009	1.22208
763.71152	1.19070
761.78296	1.13947
759.85439	1.11320
757.92583	1.12817
755.99727	1.13786
754.06870	1.14519
752.14014	1.20808
750.21157	1.27158
748.28301	1.23724
746.35444	1.21423
744.42588	1.14032
742.49731	0.99303
740.56875	0.92567
738.64019	0.89869
736.71162	0.84076
734.78306	0.78650
732.85449	0.70902
730.92593	0.54050
728.99736	0.31889
727.06880	0.12111
725.14023	-0.03905
723.21167	-0.13531
721.28311	-0.23323
719.35454	-0.29933
717.42598	-0.31088
715.49741	-0.25638
713.56885	-0.20457
711.64028	-0.16064
709.71172	0.01086
707.78315	0.19607
705.85459	0.31181
703.92603	0.31831
701.99746	0.25087
700.06890	0.22152
698.14033	0.22357
696.21177	0.25124
694.28320	0.28606
692.35464	0.26259
690.42607	0.22280
688.49751	0.26532
686.56895	0.36961
684.64038	0.40796
682.71182	0.38611
680.78325	0.39347
678.85469	0.34485
676.92612	0.26290
674.99756	0.26793
673.06899	0.37847
671.14043	0.44744
669.21187	0.36941
667.28330	0.27062
665.35474	0.24558
663.42617	0.27528
661.49761	0.28989
659.56904	0.24900
657.64048	0.22878
655.71191	0.27881
653.78335	0.36674
651.85479	0.39096
649.92622	0.29810
647.99766	0.17876
646.06909	0.10908
644.14053	0.09169
642.21196	0.15793
640.28340	0.26758
638.35483	0.34971
636.42627	0.36578
634.49771	0.31994
632.56914	0.27154
630.64058	0.27642
628.71201	0.36200
626.78345	0.44282
624.85488	0.43811
622.92632	0.42523
620.99775	0.32603
619.06919	0.20697
617.14062	0.17970
615.21206	0.23320
613.28350	0.30804
611.35493	0.29167
609.42637	0.20985
607.49780	0.17375
605.56924	0.20031
603.64067	0.25016
601.71211	0.26254
599.78354	0.21631
597.85498	0.15818
595.92642	0.14255
593.99785	0.17825
592.06929	0.26028
590.14072	0.31994
588.21216	0.29539
586.28359	0.24391
584.35503	0.20452
582.42646	0.19875
580.49790	0.24312
578.56934	0.33616
576.64077	0.42351
574.71221	0.37926
572.78364	0.27426
570.85508	0.23806
568.92651	0.24469
566.99795	0.25135
565.06938	0.25158
563.14082	0.24591
561.21226	0.24025
559.28369	0.26768
557.35513	0.35720
555.42656	0.48556
553.49800	0.56958
551.56943	0.46864
549.64087	0.33790
547.71230	0.26699
545.78374	0.25908
543.85518	0.32299
541.92661	0.35188
539.99805	0.31172
538.06948	0.27305
536.14092	0.24016
534.21235	0.20194
532.28379	0.18215
530.35522	0.21311
528.42666	0.23219
526.49810	0.20352
524.56953	0.18290
522.64097	0.16462
520.71240	0.13715
518.78384	0.17051
516.85527	0.24950
514.92671	0.29249
512.99814	0.30163
511.06958	0.31276
509.14102	0.29589
507.21245	0.26547
505.28389	0.24338
503.35532	0.20341
501.42676	0.17701
499.49819	0.20391
