3997.91411	0.06880
3995.98555	0.06897
3994.05698	0.06934
3992.12842	0.06963
3990.19985	0.07007
3988.27129	0.07080
3986.34272	0.07135
3984.41416	0.07170
3982.48560	0.07202
3980.55703	0.07186
3978.62847	0.07125
3976.69990	0.07114
3974.77134	0.07187
3972.84277	0.07271
3970.91421	0.07285
3968.98564	0.07254
3967.05708	0.07261
3965.12852	0.07316
3963.19995	0.07372
3961.27139	0.07385
3959.34282	0.07356
3957.41426	0.07332
3955.48569	0.07341
3953.55713	0.07381
3951.62856	0.07425
3949.70000	0.07442
3947.77144	0.07437
3945.84287	0.07403
3943.91431	0.07371
3941.98574	0.07382
3940.05718	0.07361
3938.12861	0.07320
3936.20005	0.07343
3934.27148	0.07407
3932.34292	0.07481
3930.41436	0.07528
3928.48579	0.07493
3926.55723	0.07442
3924.62866	0.07439
3922.70010	0.07425
3920.77153	0.07390
3918.84297	0.07398
3916.91440	0.07411
3914.98584	0.07350
3913.05728	0.07247
3911.12871	0.07194
3909.20015	0.07190
3907.27158	0.07209
3905.34302	0.07324
3903.41445	0.07522
3901.48589	0.07611
3899.55732	0.07578
3897.62876	0.07490
3895.70020	0.07365
3893.77163	0.07298
3891.84307	0.07332
3889.91450	0.07357
3887.98594	0.07314
3886.05737	0.07354
3884.12881	0.07485
3882.20024	0.07562
3880.27168	0.07602
3878.34312	0.07564
3876.41455	0.07479
3874.48599	0.07518
3872.55742	0.07644
3870.62886	0.07724
3868.70029	0.07757
3866.77173	0.07755
3864.84316	0.07801
3862.91460	0.07882
3860.98604	0.07833
3859.05747	0.07728
3857.12891	0.07733
3855.20034	0.07892
3853.27178	0.08222
3851.34321	0.08399
3849.41465	0.08167
3847.48608	0.07950
3845.55752	0.07935
3843.62896	0.08087
3841.70039	0.08275
3839.77183	0.08457
3837.84326	0.08622
3835.91470	0.08624
3833.98613	0.08545
3832.05757	0.08510
3830.12900	0.08505
3828.20044	0.08547
3826.27187	0.08663
3824.34331	0.08807
3822.41475	0.08964
3820.48618	0.09204
3818.55762	0.09376
3816.62905	0.09438
3814.70049	0.09457
3812.77192	0.09314
3810.84336	0.09141
3808.91479	0.09136
3806.98623	0.09369
3805.05767	0.09699
3803.12910	0.09937
3801.20054	0.10140
3799.27197	0.10243
3797.34341	0.10256
3795.41484	0.10314
3793.48628	0.10337
3791.55771	0.10333
3789.62915	0.10381
3787.70059	0.10480
3785.77202	0.10663
3783.84346	0.10884
3781.91489	0.11033
3779.98633	0.11203
3778.05776	0.11432
3776.12920	0.11560
3774.20063	0.11626
3772.27207	0.11750
3770.34351	0.11972
3768.41494	0.12252
3766.48638	0.12499
3764.55781	0.12690
3762.62925	0.12832
3760.70068	0.13032
3758.77212	0.13347
3756.84355	0.13614
3754.91499	0.13775
3752.98643	0.14035
3751.05786	0.14547
3749.12930	0.15073
3747.20073	0.15212
3745.27217	0.15287
3743.34360	0.15638
3741.41504	0.16024
3739.48647	0.16271
3737.55791	0.16615
3735.62935	0.17192
3733.70078	0.17843
3731.77222	0.18259
3729.84365	0.18522
3727.91509	0.18825
3725.98652	0.19317
3724.05796	0.20017
3722.12939	0.20782
3720.20083	0.21483
3718.27227	0.22082
3716.34370	0.22690
3714.41514	0.23417
3712.48657	0.24396
3710.55801	0.25788
3708.62944	0.27239
3706.70088	0.28346
3704.77231	0.29356
3702.84375	0.30574
3700.91519	0.32209
3698.98662	0.34025
3697.05806	0.35732
3695.12949	0.37539
3693.20093	0.39509
3691.27236	0.41702
3689.34380	0.44539
3687.41523	0.47929
3685.48667	0.50810
3683.55811	0.53303
3681.62954	0.56066
3679.70098	0.59248
3677.77241	0.62602
3675.84385	0.66518
3673.91528	0.71699
3671.98672	0.75922
3670.05815	0.79675
3668.12959	0.84818
3666.20103	0.89604
3664.27246	0.93679
3662.34390	0.97983
3660.41533	1.02572
3658.48677	1.07140
3656.55820	1.12031
3654.62964	1.17454
3652.70107	1.22038
3650.77251	1.26055
3648.84395	1.31586
3646.91538	1.38401
3644.98682	1.43352
3643.05825	1.47085
3641.12969	1.50962
3639.20112	1.55280
3637.27256	1.59596
3635.34399	1.63775
3633.41543	1.68002
3631.48687	1.72091
3629.55830	1.76394
3627.62974	1.81898
3625.70117	1.86737
3623.77261	1.89900
3621.84404	1.93058
3619.91548	1.96873
3617.98691	2.01531
3616.05835	2.05930
3614.12979	2.09527
3612.20122	2.13300
3610.27266	2.17198
3608.34409	2.21165
3606.41553	2.25302
3604.48696	2.29143
3602.55840	2.32683
3600.62983	2.36495
3598.70127	2.40542
3596.77271	2.44577
3594.84414	2.48777
3592.91558	2.52994
3590.98701	2.56820
3589.05845	2.60378
3587.12988	2.64704
3585.20132	2.69533
3583.27275	2.73603
3581.34419	2.77412
3579.41562	2.81553
3577.48706	2.85793
3575.55850	2.89945
3573.62993	2.94276
3571.70137	2.98623
3569.77280	3.02731
3567.84424	3.06884
3565.91567	3.11901
3563.98711	3.16997
3562.05854	3.21193
3560.12998	3.25231
3558.20142	3.29597
3556.27285	3.34150
3554.34429	3.38536
3552.41572	3.42918
3550.48716	3.47509
3548.55859	3.52335
3546.63003	3.57268
3544.70146	3.62039
3542.77290	3.66625
3540.84434	3.71265
3538.91577	3.76008
3536.98721	3.80756
3535.05864	3.85542
3533.13008	3.90289
3531.20151	3.95020
3529.27295	3.99856
3527.34438	4.04873
3525.41582	4.09566
3523.48726	4.13937
3521.55869	4.18750
3519.63013	4.23841
3517.70156	4.28970
3515.77300	4.34085
3513.84443	4.38953
3511.91587	4.43766
3509.98730	4.48929
3508.05874	4.54026
3506.13018	4.58380
3504.20161	4.62494
3502.27305	4.67205
3500.34448	4.72369
3498.41592	4.77550
3496.48735	4.82792
3494.55879	4.87945
3492.63022	4.92753
3490.70166	4.97401
3488.77310	5.02361
3486.84453	5.07428
3484.91597	5.11912
3482.98740	5.16007
3481.05884	5.20483
3479.13027	5.25479
3477.20171	5.31088
3475.27314	5.37120
3473.34458	5.42667
3471.41602	5.47424
3469.48745	5.51700
3467.55889	5.56402
3465.63032	5.62178
3463.70176	5.67999
3461.77319	5.72326
3459.84463	5.75521
3457.91606	5.79642
3455.98750	5.86420
3454.05894	5.94001
3452.13037	5.98791
3450.20181	6.02211
3448.27324	6.07715
3446.34468	6.14733
3444.41611	6.19700
3442.48755	6.22774
3440.55898	6.26929
3438.63042	6.31879
3436.70186	6.36189
3434.77329	6.42045
3432.84473	6.50090
3430.91616	6.56530
3428.98760	6.60648
3427.05903	6.64994
3425.13047	6.70596
3423.20190	6.76066
3421.27334	6.82224
3419.34478	6.88222
3417.41621	6.91045
3415.48765	6.93151
3413.55908	6.97769
3411.63052	7.04679
3409.70195	7.11078
3407.77339	7.17042
3405.84482	7.21870
3403.91626	7.24768
3401.98770	7.29036
3400.05913	7.35274
3398.13057	7.39699
3396.20200	7.41252
3394.27344	7.42750
3392.34487	7.43717
3390.41631	7.45699
3388.48774	7.52947
3386.55918	7.64706
3384.63062	7.72412
3382.70205	7.73148
3380.77349	7.72611
3378.84492	7.73727
3376.91636	7.75343
3374.98779	7.73955
3373.05923	7.73695
3371.13066	7.80207
3369.20210	7.92787
3367.27354	8.03133
3365.34497	8.08547
3363.41641	8.14330
3361.48784	8.20665
3359.55928	8.22669
3357.63071	8.20022
3355.70215	8.23908
3353.77358	8.29088
3351.84502	8.26436
3349.91646	8.23598
3347.98789	8.23228
3346.05933	8.22723
3344.13076	8.27594
3342.20220	8.36849
3340.27363	8.36098
3338.34507	8.29685
3336.41650	8.28205
3334.48794	8.30190
3332.55937	8.28618
3330.63081	8.25957
3328.70225	8.28056
3326.77368	8.32083
3324.84512	8.37181
3322.91655	8.38320
3320.98799	8.31078
3319.05942	8.26813
3317.13086	8.34171
3315.20229	8.42148
3313.27373	8.47984
3311.34517	8.59370
3309.41660	8.68572
3307.48804	8.62247
3305.55947	8.42546
3303.63091	8.28021
3301.70234	8.23992
3299.77378	8.25291
3297.84521	8.30500
3295.91665	8.40722
3293.98809	8.54025
3292.05952	8.61099
3290.13096	8.55700
3288.20239	8.51386
3286.27383	8.55125
3284.34526	8.54408
3282.41670	8.50369
3280.48813	8.48960
3278.55957	8.46073
3276.63101	8.39465
3274.70244	8.35003
3272.77388	8.38289
3270.84531	8.45727
3268.91675	8.46144
3266.98818	8.36524
3265.05962	8.33190
3263.13105	8.42540
3261.20249	8.56567
3259.27393	8.66534
3257.34536	8.70674
3255.41680	8.76106
3253.48823	8.84407
3251.55967	8.86430
3249.63110	8.79302
3247.70254	8.69930
3245.77397	8.54482
3243.84541	8.40032
3241.91685	8.41090
3239.98828	8.52079
3238.05972	8.61235
3236.13115	8.63096
3234.20259	8.54278
3232.27402	8.46165
3230.34546	8.51524
3228.41689	8.59243
3226.48833	8.53654
3224.55977	8.39941
3222.63120	8.26454
3220.70264	8.19942
3218.77407	8.20397
3216.84551	8.21433
3214.91694	8.26647
3212.98838	8.32899
3211.05981	8.30645
3209.13125	8.32459
3207.20269	8.44749
3205.27412	8.47282
3203.34556	8.31950
3201.41699	8.17657
3199.48843	8.14277
3197.55986	8.16961
3195.63130	8.14880
3193.70273	8.03379
3191.77417	7.90414
3189.84561	7.85322
3187.91704	7.87020
3185.98848	7.83935
3184.05991	7.73208
3182.13135	7.65206
3180.20278	7.62454
3178.27422	7.57401
3176.34565	7.49057
3174.41709	7.42606
3172.48853	7.38638
3170.55996	7.31700
3168.63140	7.20407
3166.70283	7.13051
3164.77427	7.10355
3162.84570	7.04536
3160.91714	6.94788
3158.98857	6.85231
3157.06001	6.79043
3155.13145	6.75116
3153.20288	6.67623
3151.27432	6.57609
3149.34575	6.49783
3147.41719	6.42884
3145.48862	6.35670
3143.56006	6.28192
3141.63149	6.19975
3139.70293	6.12414
3137.77437	6.06947
3135.84580	6.01863
3133.91724	5.94867
3131.98867	5.86195
3130.06011	5.76646
3128.13154	5.66926
3126.20298	5.58772
3124.27441	5.53005
3122.34585	5.47340
3120.41729	5.40043
3118.48872	5.32254
3116.56016	5.24271
3114.63159	5.15675
3112.70303	5.07548
3110.77446	5.00639
3108.84590	4.94208
3106.91733	4.87565
3104.98877	4.80855
3103.06021	4.74075
3101.13164	4.66945
3099.20308	4.59862
3097.27451	4.52997
3095.34595	4.45987
3093.41738	4.39061
3091.48882	4.32367
3089.56025	4.25443
3087.63169	4.18405
3085.70312	4.11762
3083.77456	4.05343
3081.84600	3.98945
3079.91743	3.92590
3077.98887	3.86189
3076.06030	3.79663
3074.13174	3.73106
3072.20317	3.66815
3070.27461	3.60875
3068.34604	3.55122
3066.41748	3.49441
3064.48892	3.43779
3062.56035	3.38112
3060.63179	3.32482
3058.70322	3.26933
3056.77466	3.21401
3054.84609	3.15854
3052.91753	3.10420
3050.98896	3.05169
3049.06040	2.99929
3047.13184	2.94684
3045.20327	2.89563
3043.27471	2.84529
3041.34614	2.79569
3039.41758	2.74712
3037.48901	2.69963
3035.56045	2.65332
3033.63188	2.60759
3031.70332	2.56180
3029.77476	2.51646
3027.84619	2.47286
3025.91763	2.43032
3023.98906	2.38701
3022.06050	2.34328
3020.13193	2.30052
3018.20337	2.25924
3016.27480	2.21931
3014.34624	2.18021
3012.41768	2.14168
3010.48911	2.10344
3008.56055	2.06530
3006.63198	2.02776
3004.70342	1.99077
3002.77485	1.95426
3000.84629	1.91879
2998.91772	1.88444
2996.98916	1.85036
2995.06060	1.81589
2993.13203	1.78181
2991.20347	1.74912
2989.27490	1.71766
2987.34634	1.68685
2985.41777	1.65629
2983.48921	1.62607
2981.56064	1.59656
2979.63208	1.56750
2977.70352	1.53826
2975.77495	1.50910
2973.84639	1.48030
2971.91782	1.45190
2969.98926	1.42413
2968.06069	1.39722
2966.13213	1.37138
2964.20356	1.34622
2962.27500	1.32126
2960.34644	1.29670
2958.41787	1.27271
2956.48931	1.24910
2954.56074	1.22599
2952.63218	1.20359
2950.70361	1.18148
2948.77505	1.15920
2946.84648	1.13727
2944.91792	1.11646
2942.98936	1.09636
2941.06079	1.07634
2939.13223	1.05630
2937.20366	1.03640
2935.27510	1.01696
2933.34653	0.99818
2931.41797	0.97985
2929.48940	0.96150
2927.56084	0.94345
2925.63228	0.92627
2923.70371	0.90995
2921.77515	0.89393
2919.84658	0.87759
2917.91802	0.86131
2915.98945	0.84562
2914.06089	0.83045
2912.13232	0.81555
2910.20376	0.80085
2908.27520	0.78668
2906.34663	0.77311
2904.41807	0.75976
2902.48950	0.74641
2900.56094	0.73321
2898.63237	0.72062
2896.70381	0.70868
2894.77524	0.69681
2892.84668	0.68464
2890.91812	0.67250
2888.98955	0.66066
2887.06099	0.64920
2885.13242	0.63823
2883.20386	0.62718
2881.27529	0.61580
2879.34673	0.60492
2877.41816	0.59492
2875.48960	0.58526
2873.56104	0.57533
2871.63247	0.56507
2869.70391	0.55485
2867.77534	0.54505
2865.84678	0.53562
2863.91821	0.52644
2861.98965	0.51735
2860.06108	0.50810
2858.13252	0.49901
2856.20396	0.49054
2854.27539	0.48262
2852.34683	0.47486
2850.41826	0.46694
2848.48970	0.45886
2846.56113	0.45084
2844.63257	0.44343
2842.70400	0.43703
2840.77544	0.43121
2838.84687	0.42546
2836.91831	0.41981
2834.98975	0.41404
2833.06118	0.40790
2831.13262	0.40154
2829.20405	0.39525
2827.27549	0.38934
2825.34692	0.38373
2823.41836	0.37798
2821.48979	0.37216
2819.56123	0.36658
2817.63267	0.36120
2815.70410	0.35589
2813.77554	0.35060
2811.84697	0.34533
2809.91841	0.34001
2807.98984	0.33471
2806.06128	0.32986
2804.13271	0.32525
2802.20415	0.32036
2800.27559	0.31545
2798.34702	0.31100
2796.41846	0.30691
2794.48989	0.30283
2792.56133	0.29858
2790.63276	0.29423
2788.70420	0.29014
2786.77563	0.28621
2784.84707	0.28224
2782.91851	0.27838
2780.98994	0.27463
2779.06138	0.27088
2777.13281	0.26723
2775.20425	0.26374
2773.27568	0.26032
2771.34712	0.25690
2769.41855	0.25363
2767.48999	0.25050
2765.56143	0.24736
2763.63286	0.24420
2761.70430	0.24105
2759.77573	0.23804
2757.84717	0.23516
2755.91860	0.23233
2753.99004	0.22957
2752.06147	0.22686
2750.13291	0.22427
2748.20435	0.22187
2746.27578	0.21937
2744.34722	0.21660
2742.41865	0.21382
2740.49009	0.21131
2738.56152	0.20920
2736.63296	0.20725
2734.70439	0.20523
2732.77583	0.20318
2730.84727	0.20108
2728.91870	0.19893
2726.99014	0.19684
2725.06157	0.19473
2723.13301	0.19263
2721.20444	0.19069
2719.27588	0.18891
2717.34731	0.18716
2715.41875	0.18544
2713.49019	0.18380
2711.56162	0.18212
2709.63306	0.18046
2707.70449	0.17888
2705.77593	0.17737
2703.84736	0.17593
2701.91880	0.17455
2699.99023	0.17313
2698.06167	0.17169
2696.13311	0.17035
2694.20454	0.16911
2692.27598	0.16786
2690.34741	0.16666
2688.41885	0.16557
2686.49028	0.16437
2684.56172	0.16313
2682.63315	0.16210
2680.70459	0.16101
2678.77603	0.15982
2676.84746	0.15879
2674.91890	0.15787
2672.99033	0.15694
2671.06177	0.15600
2669.13320	0.15508
2667.20464	0.15417
2665.27607	0.15331
2663.34751	0.15247
2661.41895	0.15157
2659.49038	0.15077
2657.56182	0.15023
2655.63325	0.14963
2653.70469	0.14879
2651.77612	0.14806
2649.84756	0.14762
2647.91899	0.14726
2645.99043	0.14686
2644.06187	0.14637
2642.13330	0.14570
2640.20474	0.14504
2638.27617	0.14470
2636.34761	0.14462
2634.41904	0.14454
2632.49048	0.14430
2630.56191	0.14382
2628.63335	0.14332
2626.70479	0.14305
2624.77622	0.14287
2622.84766	0.14268
2620.91909	0.14256
2618.99053	0.14248
2617.06196	0.14239
2615.13340	0.14230
2613.20483	0.14237
2611.27627	0.14248
2609.34771	0.14243
2607.41914	0.14231
2605.49058	0.14219
2603.56201	0.14215
2601.63345	0.14232
2599.70488	0.14253
2597.77632	0.14260
2595.84775	0.14266
2593.91919	0.14267
2591.99062	0.14266
2590.06206	0.14288
2588.13350	0.14324
2586.20493	0.14359
2584.27637	0.14396
2582.34780	0.14427
2580.41924	0.14454
2578.49067	0.14485
2576.56211	0.14527
2574.63354	0.14582
2572.70498	0.14632
2570.77642	0.14667
2568.84785	0.14707
2566.91929	0.14758
2564.99072	0.14816
2563.06216	0.14870
2561.13359	0.14913
2559.20503	0.14948
2557.27646	0.14990
2555.34790	0.15052
2553.41934	0.15123
2551.49077	0.15181
2549.56221	0.15244
2547.63364	0.15327
2545.70508	0.15407
2543.77651	0.15464
2541.84795	0.15514
2539.91938	0.15576
2537.99082	0.15646
2536.06226	0.15716
2534.13369	0.15785
2532.20513	0.15857
2530.27656	0.15938
2528.34800	0.16021
2526.41943	0.16107
2524.49087	0.16197
2522.56230	0.16273
2520.63374	0.16343
2518.70518	0.16430
2516.77661	0.16527
2514.84805	0.16615
2512.91948	0.16696
2510.99092	0.16769
2509.06235	0.16843
2507.13379	0.16924
2505.20522	0.17012
2503.27666	0.17111
2501.34810	0.17217
2499.41953	0.17303
2497.49097	0.17372
2495.56240	0.17459
2493.63384	0.17567
2491.70527	0.17671
2489.77671	0.17761
2487.84814	0.17841
2485.91958	0.17928
2483.99102	0.18031
2482.06245	0.18131
2480.13389	0.18215
2478.20532	0.18295
2476.27676	0.18392
2474.34819	0.18506
2472.41963	0.18613
2470.49106	0.18707
2468.56250	0.18805
2466.63394	0.18907
2464.70537	0.19017
2462.77681	0.19129
2460.84824	0.19226
2458.91968	0.19322
2456.99111	0.19430
2455.06255	0.19526
2453.13398	0.19615
2451.20542	0.19719
2449.27686	0.19829
2447.34829	0.19932
2445.41973	0.20024
2443.49116	0.20120
2441.56260	0.20234
2439.63403	0.20351
2437.70547	0.20454
2435.77690	0.20558
2433.84834	0.20663
2431.91978	0.20756
2429.99121	0.20851
2428.06265	0.20964
2426.13408	0.21095
2424.20552	0.21228
2422.27695	0.21362
2420.34839	0.21482
2418.41982	0.21578
2416.49126	0.21675
2414.56270	0.21801
2412.63413	0.21925
2410.70557	0.22028
2408.77700	0.22133
2406.84844	0.22250
2404.91987	0.22368
2402.99131	0.22485
2401.06274	0.22607
2399.13418	0.22737
2397.20562	0.22871
2395.27705	0.22997
2393.34849	0.23119
2391.41992	0.23261
2389.49136	0.23410
2387.56279	0.23544
2385.63423	0.23690
2383.70566	0.23868
2381.77710	0.24069
2379.84854	0.24291
2377.91997	0.24532
2375.99141	0.24769
2374.06284	0.25004
2372.13428	0.25299
2370.20571	0.25673
2368.27715	0.26058
2366.34858	0.26407
2364.42002	0.26744
2362.49146	0.27058
2360.56289	0.27242
2358.63433	0.27301
2356.70576	0.27344
2354.77720	0.27343
2352.84863	0.27307
2350.92007	0.27255
2348.99150	0.27208
2347.06294	0.27246
2345.13437	0.27458
2343.20581	0.27834
2341.27725	0.28162
2339.34868	0.28358
2337.42012	0.28551
2335.49155	0.28739
2333.56299	0.28777
2331.63442	0.28755
2329.70586	0.28883
2327.77729	0.29103
2325.84873	0.29235
2323.92017	0.29300
2321.99160	0.29399
2320.06304	0.29527
2318.13447	0.29652
2316.20591	0.29775
2314.27734	0.29895
2312.34878	0.30019
2310.42021	0.30159
2308.49165	0.30294
2306.56309	0.30420
2304.63452	0.30561
2302.70596	0.30719
2300.77739	0.30881
2298.84883	0.31043
2296.92026	0.31207
2294.99170	0.31377
2293.06313	0.31548
2291.13457	0.31716
2289.20601	0.31890
2287.27744	0.32069
2285.34888	0.32251
2283.42031	0.32434
2281.49175	0.32628
2279.56318	0.32838
2277.63462	0.33050
2275.70605	0.33255
2273.77749	0.33461
2271.84893	0.33672
2269.92036	0.33890
2267.99180	0.34110
2266.06323	0.34332
2264.13467	0.34547
2262.20610	0.34748
2260.27754	0.34949
2258.34897	0.35160
2256.42041	0.35377
2254.49185	0.35596
2252.56328	0.35814
2250.63472	0.36037
2248.70615	0.36264
2246.77759	0.36482
2244.84902	0.36689
2242.92046	0.36907
2240.99189	0.37137
2239.06333	0.37364
2237.13477	0.37587
2235.20620	0.37809
2233.27764	0.38023
2231.34907	0.38242
2229.42051	0.38473
2227.49194	0.38699
2225.56338	0.38917
2223.63481	0.39135
2221.70625	0.39355
2219.77769	0.39578
2217.84912	0.39800
2215.92056	0.40011
2213.99199	0.40213
2212.06343	0.40428
2210.13486	0.40651
2208.20630	0.40866
2206.27773	0.41087
2204.34917	0.41317
2202.42061	0.41533
2200.49204	0.41735
2198.56348	0.41929
2196.63491	0.42119
2194.70635	0.42314
2192.77778	0.42510
2190.84922	0.42701
2188.92065	0.42889
2186.99209	0.43083
2185.06353	0.43275
2183.13496	0.43444
2181.20640	0.43594
2179.27783	0.43741
2177.34927	0.43896
2175.42070	0.44056
2173.49214	0.44226
2171.56357	0.44393
2169.63501	0.44542
2167.70645	0.44668
2165.77788	0.44777
2163.84932	0.44890
2161.92075	0.45013
2159.99219	0.45124
2158.06362	0.45207
2156.13506	0.45279
2154.20649	0.45366
2152.27793	0.45461
2150.34937	0.45537
2148.42080	0.45590
2146.49224	0.45635
2144.56367	0.45685
2142.63511	0.45743
2140.70654	0.45790
2138.77798	0.45815
2136.84941	0.45829
2134.92085	0.45840
2132.99229	0.45839
2131.06372	0.45826
2129.13516	0.45807
2127.20659	0.45785
2125.27803	0.45745
2123.34946	0.45683
2121.42090	0.45629
2119.49233	0.45590
2117.56377	0.45537
2115.63521	0.45454
2113.70664	0.45361
2111.77808	0.45273
2109.84951	0.45177
2107.92095	0.45067
2105.99238	0.44944
2104.06382	0.44821
2102.13525	0.44699
2100.20669	0.44562
2098.27812	0.44409
2096.34956	0.44259
2094.42100	0.44110
2092.49243	0.43941
2090.56387	0.43760
2088.63530	0.43584
2086.70674	0.43407
2084.77817	0.43230
2082.84961	0.43049
2080.92104	0.42851
2078.99248	0.42637
2077.06392	0.42422
2075.13535	0.42210
2073.20679	0.41989
2071.27822	0.41755
2069.34966	0.41521
2067.42109	0.41289
2065.49253	0.41052
2063.56396	0.40807
2061.63540	0.40560
2059.70684	0.40315
2057.77827	0.40064
2055.84971	0.39808
2053.92114	0.39550
2051.99258	0.39290
2050.06401	0.39028
2048.13545	0.38759
2046.20688	0.38478
2044.27832	0.38197
2042.34976	0.37928
2040.42119	0.37665
2038.49263	0.37402
2036.56406	0.37135
2034.63550	0.36862
2032.70693	0.36581
2030.77837	0.36299
2028.84980	0.36020
2026.92124	0.35748
2024.99268	0.35471
2023.06411	0.35185
2021.13555	0.34901
2019.20698	0.34627
2017.27842	0.34357
2015.34985	0.34077
2013.42129	0.33800
2011.49272	0.33530
2009.56416	0.33264
2007.63560	0.32994
2005.70703	0.32719
2003.77847	0.32448
2001.84990	0.32185
1999.92134	0.31923
1997.99277	0.31656
1996.06421	0.31393
1994.13564	0.31146
1992.20708	0.30903
1990.27852	0.30651
1988.34995	0.30409
1986.42139	0.30169
1984.49282	0.29919
1982.56426	0.29675
1980.63569	0.29439
1978.70713	0.29199
1976.77856	0.28958
1974.85000	0.28727
1972.92144	0.28511
1970.99287	0.28314
1969.06431	0.28131
1967.13574	0.27942
1965.20718	0.27729
1963.27861	0.27511
1961.35005	0.27311
1959.42148	0.27124
1957.49292	0.26945
1955.56436	0.26773
1953.63579	0.26598
1951.70723	0.26418
1949.77866	0.26248
1947.85010	0.26095
1945.92153	0.25962
1943.99297	0.25842
1942.06440	0.25711
1940.13584	0.25554
1938.20728	0.25396
1936.27871	0.25260
1934.35015	0.25129
1932.42158	0.24994
1930.49302	0.24868
1928.56445	0.24763
1926.63589	0.24671
1924.70732	0.24593
1922.77876	0.24516
1920.85020	0.24420
1918.92163	0.24328
1916.99307	0.24238
1915.06450	0.24124
1913.13594	0.24013
1911.20737	0.23937
1909.27881	0.23878
1907.35024	0.23813
1905.42168	0.23740
1903.49312	0.23671
1901.56455	0.23616
1899.63599	0.23571
1897.70742	0.23537
1895.77886	0.23507
1893.85029	0.23475
1891.92173	0.23443
1889.99316	0.23429
1888.06460	0.23403
1886.13604	0.23359
1884.20747	0.23325
1882.27891	0.23309
1880.35034	0.23305
1878.42178	0.23301
1876.49321	0.23290
1874.56465	0.23279
1872.63608	0.23306
1870.70752	0.23374
1868.77896	0.23463
1866.85039	0.23482
1864.92183	0.23428
1862.99326	0.23406
1861.06470	0.23434
1859.13613	0.23474
1857.20757	0.23505
1855.27900	0.23551
1853.35044	0.23609
1851.42187	0.23673
1849.49331	0.23740
1847.56475	0.23819
1845.63618	0.23918
1843.70762	0.24021
1841.77905	0.24085
1839.85049	0.24116
1837.92192	0.24183
1835.99336	0.24278
1834.06479	0.24386
1832.13623	0.24508
1830.20767	0.24666
1828.27910	0.24805
1826.35054	0.24895
1824.42197	0.25016
1822.49341	0.25136
1820.56484	0.25248
1818.63628	0.25377
1816.70771	0.25535
1814.77915	0.25700
1812.85059	0.25887
1810.92202	0.26110
1808.99346	0.26328
1807.06489	0.26514
1805.13633	0.26692
1803.20776	0.26915
1801.27920	0.27183
1799.35063	0.27472
1797.42207	0.27728
1795.49351	0.27978
1793.56494	0.28280
1791.63638	0.28662
1789.70781	0.28995
1787.77925	0.29238
1785.85068	0.29551
1783.92212	0.29928
1781.99355	0.30327
1780.06499	0.30748
1778.13643	0.31180
1776.20786	0.31590
1774.27930	0.32044
1772.35073	0.32667
1770.42217	0.33311
1768.49360	0.33817
1766.56504	0.34312
1764.63647	0.34834
1762.70791	0.35421
1760.77935	0.36174
1758.85078	0.36887
1756.92222	0.37611
1754.99365	0.38401
1753.06509	0.39119
1751.13652	0.39998
1749.20796	0.41123
1747.27939	0.42194
1745.35083	0.43111
1743.42227	0.44093
1741.49370	0.45170
1739.56514	0.46413
1737.63657	0.47653
1735.70801	0.48773
1733.77944	0.50488
1731.85088	0.52490
1729.92231	0.54021
1727.99375	0.55569
1726.06519	0.57254
1724.13662	0.59100
1722.20806	0.61083
1720.27949	0.62930
1718.35093	0.65137
1716.42236	0.68388
1714.49380	0.71430
1712.56523	0.73869
1710.63667	0.76239
1708.70811	0.78795
1706.77954	0.81704
1704.85098	0.85165
1702.92241	0.88248
1700.99385	0.91287
1699.06528	0.95772
1697.13672	0.99871
1695.20815	1.04009
1693.27959	1.07964
1691.35103	1.11126
1689.42246	1.14757
1687.49390	1.18554
1685.56533	1.22212
1683.63677	1.27811
1681.70820	1.33567
1679.77964	1.37286
1677.85107	1.40830
1675.92251	1.44874
1673.99395	1.49799
1672.06538	1.54079
1670.13682	1.58261
1668.20825	1.63704
1666.27969	1.68026
1664.35112	1.71602
1662.42256	1.76030
1660.49399	1.80853
1658.56543	1.84444
1656.63687	1.87396
1654.70830	1.90507
1652.77974	1.95949
1650.85117	2.00983
1648.92261	2.02995
1646.99404	2.05791
1645.06548	2.08928
1643.13691	2.11044
1641.20835	2.12531
1639.27979	2.13826
1637.35122	2.14655
1635.42266	2.14961
1633.49409	2.14647
1631.56553	2.13702
1629.63696	2.12412
1627.70840	2.10118
1625.77983	2.07290
1623.85127	2.03768
1621.92271	1.99559
1619.99414	1.95750
1618.06558	1.91839
1616.13701	1.86121
1614.20845	1.80313
1612.27988	1.75907
1610.35132	1.71212
1608.42275	1.66075
1606.49419	1.61006
1604.56562	1.56284
1602.63706	1.51693
1600.70850	1.47173
1598.77993	1.42998
1596.85137	1.39082
1594.92280	1.35238
1592.99424	1.31455
1591.06567	1.27966
1589.13711	1.24693
1587.20854	1.21586
1585.27998	1.18644
1583.35142	1.15855
1581.42285	1.13242
1579.49429	1.10921
1577.56572	1.08780
1575.63716	1.06149
1573.70859	1.03783
1571.78003	1.02189
1569.85146	1.00415
1567.92290	0.98315
1565.99434	0.96608
1564.06577	0.95138
1562.13721	0.93917
1560.20864	0.92909
1558.28008	0.91038
1556.35151	0.89144
1554.42295	0.87962
1552.49438	0.86852
1550.56582	0.85780
1548.63726	0.84690
1546.70869	0.83755
1544.78013	0.82977
1542.85156	0.82223
1540.92300	0.81365
1538.99443	0.80128
1537.06587	0.79156
1535.13730	0.78534
1533.20874	0.77819
1531.28018	0.77017
1529.35161	0.76399
1527.42305	0.75821
1525.49448	0.75200
1523.56592	0.74664
1521.63735	0.74157
1519.70879	0.73513
1517.78022	0.72905
1515.85166	0.72346
1513.92310	0.71838
1511.99453	0.71425
1510.06597	0.71094
1508.13740	0.70855
1506.20884	0.70370
1504.28027	0.69722
1502.35171	0.69317
1500.42314	0.69026
1498.49458	0.68766
1496.56602	0.68437
1494.63745	0.68037
1492.70889	0.67723
1490.78032	0.67520
1488.85176	0.67293
1486.92319	0.66956
1484.99463	0.66619
1483.06606	0.66360
1481.13750	0.66138
1479.20894	0.65914
1477.28037	0.65715
1475.35181	0.65545
1473.42324	0.65382
1471.49468	0.65143
1469.56611	0.64850
1467.63755	0.64598
1465.70898	0.64391
1463.78042	0.64175
1461.85186	0.63964
1459.92329	0.63822
1457.99473	0.63690
1456.06616	0.63397
1454.13760	0.63049
1452.20903	0.62784
1450.28047	0.62552
1448.35190	0.62330
1446.42334	0.62103
1444.49478	0.61896
1442.56621	0.61723
1440.63765	0.61579
1438.70908	0.61469
1436.78052	0.61350
1434.85195	0.61166
1432.92339	0.60980
1430.99482	0.60839
1429.06626	0.60696
1427.13770	0.60541
1425.20913	0.60419
1423.28057	0.60310
1421.35200	0.60198
1419.42344	0.60089
1417.49487	0.59928
1415.56631	0.59712
1413.63774	0.59515
1411.70918	0.59343
1409.78062	0.59173
1407.85205	0.59010
1405.92349	0.58877
1403.99492	0.58742
1402.06636	0.58588
1400.13779	0.58461
1398.20923	0.58360
1396.28066	0.58258
1394.35210	0.58103
1392.42354	0.57903
1390.49497	0.57746
1388.56641	0.57654
1386.63784	0.57563
1384.70928	0.57427
1382.78071	0.57297
1380.85215	0.57208
1378.92358	0.57144
1376.99502	0.57088
1375.06646	0.57035
1373.13789	0.56944
1371.20933	0.56823
1369.28076	0.56735
1367.35220	0.56675
1365.42363	0.56612
1363.49507	0.56543
1361.56650	0.56445
1359.63794	0.56312
1357.70937	0.56190
1355.78081	0.56076
1353.85225	0.55955
1351.92368	0.55843
1349.99512	0.55756
1348.06655	0.55674
1346.13799	0.55577
1344.20942	0.55473
1342.28086	0.55378
1340.35229	0.55301
1338.42373	0.55224
1336.49517	0.55123
1334.56660	0.55012
1332.63804	0.54910
1330.70947	0.54819
1328.78091	0.54734
1326.85234	0.54649
1324.92378	0.54563
1322.99521	0.54485
1321.06665	0.54427
1319.13809	0.54383
1317.20952	0.54320
1315.28096	0.54229
1313.35239	0.54134
1311.42383	0.54039
1309.49526	0.53946
1307.56670	0.53869
1305.63813	0.53797
1303.70957	0.53696
1301.78101	0.53584
1299.85244	0.53486
1297.92388	0.53396
1295.99531	0.53315
1294.06675	0.53251
1292.13818	0.53200
1290.20962	0.53143
1288.28105	0.53071
1286.35249	0.53009
1284.42393	0.52961
1282.49536	0.52900
1280.56680	0.52840
1278.63823	0.52800
1276.70967	0.52766
1274.78110	0.52720
1272.85254	0.52659
1270.92397	0.52604
1268.99541	0.52572
1267.06685	0.52549
1265.13828	0.52514
1263.20972	0.52469
1261.28115	0.52424
1259.35259	0.52381
1257.42402	0.52336
1255.49546	0.52296
1253.56689	0.52263
1251.63833	0.52225
1249.70977	0.52186
1247.78120	0.52158
1245.85264	0.52120
1243.92407	0.52048
1241.99551	0.51974
1240.06694	0.51935
1238.13838	0.51901
1236.20981	0.51838
1234.28125	0.51779
1232.35269	0.51739
1230.42412	0.51689
1228.49556	0.51622
1226.56699	0.51547
1224.63843	0.51478
1222.70986	0.51416
1220.78130	0.51342
1218.85273	0.51259
1216.92417	0.51186
1214.99561	0.51127
1213.06704	0.51074
1211.13848	0.51011
1209.20991	0.50955
1207.28135	0.50915
1205.35278	0.50864
1203.42422	0.50791
1201.49565	0.50715
1199.56709	0.50649
1197.63853	0.50588
1195.70996	0.50519
1193.78140	0.50451
1191.85283	0.50406
1189.92427	0.50383
1187.99570	0.50362
1186.06714	0.50327
1184.13857	0.50290
1182.21001	0.50281
1180.28145	0.50309
1178.35288	0.50354
1176.42432	0.50393
1174.49575	0.50430
1172.56719	0.50479
1170.63862	0.50540
1168.71006	0.50613
1166.78149	0.50703
1164.85293	0.50807
1162.92437	0.50892
1160.99580	0.50932
1159.06724	0.50954
1157.13867	0.50963
1155.21011	0.50915
1153.28154	0.50803
1151.35298	0.50658
1149.42441	0.50494
1147.49585	0.50295
1145.56729	0.50057
1143.63872	0.49806
1141.71016	0.49573
1139.78159	0.49365
1137.85303	0.49170
1135.92446	0.48979
1133.99590	0.48799
1132.06733	0.48671
1130.13877	0.48600
1128.21021	0.48526
1126.28164	0.48433
1124.35308	0.48354
1122.42451	0.48297
1120.49595	0.48238
1118.56738	0.48182
1116.63882	0.48163
1114.71025	0.48188
1112.78169	0.48244
1110.85312	0.48325
1108.92456	0.48433
1106.99600	0.48542
1105.06743	0.48629
1103.13887	0.48711
1101.21030	0.48811
1099.28174	0.48941
1097.35317	0.49127
1095.42461	0.49403
1093.49604	0.49783
1091.56748	0.50267
1089.63892	0.50849
1087.71035	0.51533
1085.78179	0.52326
1083.85322	0.53156
1081.92466	0.53906
1079.99609	0.54497
1078.06753	0.54852
1076.13896	0.54896
1074.21040	0.54631
1072.28184	0.54139
1070.35327	0.53518
1068.42471	0.52846
1066.49614	0.52165
1064.56758	0.51509
1062.63901	0.50930
1060.71045	0.50450
1058.78188	0.50040
1056.85332	0.49684
1054.92476	0.49392
1052.99619	0.49152
1051.06763	0.48940
1049.13906	0.48777
1047.21050	0.48697
1045.28193	0.48675
1043.35337	0.48667
1041.42480	0.48660
1039.49624	0.48661
1037.56768	0.48683
1035.63911	0.48698
1033.71055	0.48664
1031.78198	0.48616
1029.85342	0.48580
1027.92485	0.48502
1025.99629	0.48388
1024.06772	0.48307
1022.13916	0.48271
1020.21060	0.48278
1018.28203	0.48329
1016.35347	0.48381
1014.42490	0.48417
1012.49634	0.48459
1010.56777	0.48507
1008.63921	0.48561
1006.71064	0.48646
1004.78208	0.48783
1002.85352	0.48963
1000.92495	0.49199
998.99639	0.49517
997.06782	0.49891
995.13926	0.50278
993.21069	0.50655
991.28213	0.50984
989.35356	0.51201
987.42500	0.51299
985.49644	0.51353
983.56787	0.51411
981.63931	0.51485
979.71074	0.51604
977.78218	0.51775
975.85361	0.51984
973.92505	0.52250
971.99648	0.52573
970.06792	0.52921
968.13936	0.53312
966.21079	0.53755
964.28223	0.54206
962.35366	0.54661
960.42510	0.55169
958.49653	0.55736
956.56797	0.56336
954.63940	0.56966
952.71084	0.57608
950.78228	0.58245
948.85371	0.58885
946.92515	0.59524
944.99658	0.60149
943.06802	0.60777
941.13945	0.61400
939.21089	0.61961
937.28232	0.62478
935.35376	0.63009
933.42520	0.63566
931.49663	0.64164
929.56807	0.64797
927.63950	0.65427
925.71094	0.66070
923.78237	0.66752
921.85381	0.67446
919.92524	0.68129
917.99668	0.68860
916.06812	0.69655
914.13955	0.70440
912.21099	0.71198
910.28242	0.71937
908.35386	0.72700
906.42529	0.73560
904.49673	0.74516
902.56816	0.75530
900.63960	0.76559
898.71104	0.77503
896.78247	0.78345
894.85391	0.79259
892.92534	0.80306
890.99678	0.81379
889.06821	0.82441
887.13965	0.83521
885.21108	0.84715
883.28252	0.86048
881.35396	0.87378
879.42539	0.88630
877.49683	0.89769
875.56826	0.90772
873.63970	0.91737
871.71113	0.92736
869.78257	0.93868
867.85400	0.95187
865.92544	0.96503
863.99687	0.97664
862.06831	0.98767
860.13975	1.00020
858.21118	1.01426
856.28262	1.02721
854.35405	1.03777
852.42549	1.04755
850.49692	1.05821
848.56836	1.06998
846.63979	1.08331
844.71123	1.09717
842.78267	1.10933
840.85410	1.12063
838.92554	1.13293
836.99697	1.14491
835.06841	1.15526
833.13984	1.16751
831.21128	1.18269
829.28271	1.19760
827.35415	1.20864
825.42559	1.21409
823.49702	1.22012
821.56846	1.23172
819.63989	1.25013
817.71133	1.27631
815.78276	1.30291
813.85420	1.31364
811.92563	1.30996
809.99707	1.31966
808.06851	1.35576
806.13994	1.39459
804.21138	1.41492
802.28281	1.44096
800.35425	1.48319
798.42568	1.51404
796.49712	1.52084
794.56855	1.51947
792.63999	1.52593
790.71143	1.55084
788.78286	1.61801
786.85430	1.72404
784.92573	1.72147
782.99717	1.65392
781.06860	1.64251
779.14004	1.66281
777.21147	1.56535
775.28291	1.45607
773.35435	1.46239
771.42578	1.57297
769.49722	1.72853
767.56865	1.77529
765.64009	1.71207
763.71152	1.60925
761.78296	1.44615
759.85439	1.36073
757.92583	1.31942
755.99727	1.20311
754.06870	1.08885
752.14014	1.04935
750.21157	1.08638
748.28301	1.13443
746.35444	1.04252
744.42588	0.86003
742.49731	0.75939
740.56875	0.76382
738.64019	0.80462
736.71162	0.78023
734.78306	0.65812
732.85449	0.50388
730.92593	0.37627
728.99736	0.27744
727.06880	0.15621
725.14023	-0.04799
723.21167	-0.19474
721.28311	-0.26389
719.35454	-0.31628
717.42598	-0.37730
715.49741	-0.34875
713.56885	-0.24416
711.64028	-0.13538
709.71172	0.03724
707.78315	0.16698
705.85459	0.21021
703.92603	0.21241
701.99746	0.25821
700.06890	0.33951
698.14033	0.35254
696.21177	0.28612
694.28320	0.25084
692.35464	0.22844
690.42607	0.19369
688.49751	0.21976
686.56895	0.27700
684.64038	0.29120
682.71182	0.29255
680.78325	0.30815
678.85469	0.30756
676.92612	0.28389
674.99756	0.26421
673.06899	0.24192
671.14043	0.21937
669.21187	0.22231
667.28330	0.26303
665.35474	0.35980
663.42617	0.50095
661.49761	0.48294
659.56904	0.34616
657.64048	0.27626
655.71191	0.24959
653.78335	0.29147
651.85479	0.45250
649.92622	0.71534
647.99766	0.56121
646.06909	0.34711
644.14053	0.32628
642.21196	0.40830
640.28340	0.40613
638.35483	0.31473
636.42627	0.25038
634.49771	0.21368
632.56914	0.18269
630.64058	0.20298
628.71201	0.29005
626.78345	0.33556
624.85488	0.30706
622.92632	0.30108
620.99775	0.32781
619.06919	0.37253
617.14062	0.38149
615.21206	0.26845
613.28350	0.15921
611.35493	0.15312
609.42637	0.21625
607.49780	0.28094
605.56924	0.33847
603.64067	0.35285
601.71211	0.31501
599.78354	0.28830
597.85498	0.28135
595.92642	0.23599
593.99785	0.16829
592.06929	0.13343
590.14072	0.13341
588.21216	0.16877
586.28359	0.22025
584.35503	0.18269
582.42646	0.11360
580.49790	0.13527
578.56934	0.23555
576.64077	0.31358
574.71221	0.29763
572.78364	0.26583
570.85508	0.27663
568.92651	0.31741
566.99795	0.36909
565.06938	0.37456
563.14082	0.31472
561.21226	0.25784
559.28369	0.25992
557.35513	0.27547
555.42656	0.25719
553.49800	0.24681
551.56943	0.25728
549.64087	0.28995
547.71230	0.33007
545.78374	0.32958
543.85518	0.26122
541.92661	0.23019
539.99805	0.25066
538.06948	0.25084
536.14092	0.23955
534.21235	0.26925
532.28379	0.31378
530.35522	0.28632
528.42666	0.23846
526.49810	0.23524
524.56953	0.23734
522.64097	0.20158
520.71240	0.16652
518.78384	0.16708
516.85527	0.17528
514.92671	0.18026
512.99814	0.20536
511.06958	0.25087
509.14102	0.26244
507.21245	0.21222
505.28389	0.15025
503.35532	0.12360
501.42676	0.13027
499.49819	0.16090
