3997.91411	0.07441
3995.98555	0.07497
3994.05698	0.07545
3992.12842	0.07560
3990.19985	0.07604
3988.27129	0.07663
3986.34272	0.07675
3984.41416	0.07658
3982.48560	0.07658
3980.55703	0.07682
3978.62847	0.07703
3976.69990	0.07724
3974.77134	0.07748
3972.84277	0.07779
3970.91421	0.07823
3968.98564	0.07850
3967.05708	0.07852
3965.12852	0.07843
3963.19995	0.07821
3961.27139	0.07811
3959.34282	0.07836
3957.41426	0.07866
3955.48569	0.07884
3953.55713	0.07892
3951.62856	0.07901
3949.70000	0.07907
3947.77144	0.07906
3945.84287	0.07924
3943.91431	0.07937
3941.98574	0.07914
3940.05718	0.07872
3938.12861	0.07845
3936.20005	0.07856
3934.27148	0.07894
3932.34292	0.07914
3930.41436	0.07908
3928.48579	0.07902
3926.55723	0.07885
3924.62866	0.07880
3922.70010	0.07895
3920.77153	0.07877
3918.84297	0.07838
3916.91440	0.07829
3914.98584	0.07838
3913.05728	0.07826
3911.12871	0.07807
3909.20015	0.07787
3907.27158	0.07774
3905.34302	0.07825
3903.41445	0.07933
3901.48589	0.07966
3899.55732	0.07908
3897.62876	0.07831
3895.70020	0.07767
3893.77163	0.07773
3891.84307	0.07844
3889.91450	0.07883
3887.98594	0.07864
3886.05737	0.07852
3884.12881	0.07836
3882.20024	0.07831
3880.27168	0.07885
3878.34312	0.07909
3876.41455	0.07880
3874.48599	0.07899
3872.55742	0.07972
3870.62886	0.08038
3868.70029	0.08068
3866.77173	0.08055
3864.84316	0.08082
3862.91460	0.08155
3860.98604	0.08151
3859.05747	0.08115
3857.12891	0.08115
3855.20034	0.08117
3853.27178	0.08224
3851.34321	0.08507
3849.41465	0.08542
3847.48608	0.08416
3845.55752	0.08377
3843.62896	0.08469
3841.70039	0.08609
3839.77183	0.08723
3837.84326	0.08809
3835.91470	0.08838
3833.98613	0.08789
3832.05757	0.08766
3830.12900	0.08847
3828.20044	0.08978
3826.27187	0.09088
3824.34331	0.09144
3822.41475	0.09204
3820.48618	0.09382
3818.55762	0.09530
3816.62905	0.09558
3814.70049	0.09624
3812.77192	0.09684
3810.84336	0.09691
3808.91479	0.09712
3806.98623	0.09826
3805.05767	0.10009
3803.12910	0.10162
3801.20054	0.10368
3799.27197	0.10565
3797.34341	0.10608
3795.41484	0.10649
3793.48628	0.10715
3791.55771	0.10772
3789.62915	0.10867
3787.70059	0.10997
3785.77202	0.11147
3783.84346	0.11321
3781.91489	0.11477
3779.98633	0.11620
3778.05776	0.11790
3776.12920	0.11915
3774.20063	0.12018
3772.27207	0.12172
3770.34351	0.12376
3768.41494	0.12615
3766.48638	0.12844
3764.55781	0.13038
3762.62925	0.13180
3760.70068	0.13321
3758.77212	0.13563
3756.84355	0.13852
3754.91499	0.14073
3752.98643	0.14309
3751.05786	0.14688
3749.12930	0.15147
3747.20073	0.15438
3745.27217	0.15638
3743.34360	0.15920
3741.41504	0.16225
3739.48647	0.16494
3737.55791	0.16801
3735.62935	0.17227
3733.70078	0.17775
3731.77222	0.18261
3729.84365	0.18680
3727.91509	0.19117
3725.98652	0.19644
3724.05796	0.20272
3722.12939	0.20947
3720.20083	0.21665
3718.27227	0.22388
3716.34370	0.23078
3714.41514	0.23749
3712.48657	0.24625
3710.55801	0.25982
3708.62944	0.27436
3706.70088	0.28555
3704.77231	0.29599
3702.84375	0.30852
3700.91519	0.32516
3698.98662	0.34370
3697.05806	0.36131
3695.12949	0.37963
3693.20093	0.39860
3691.27236	0.41905
3689.34380	0.44646
3687.41523	0.48106
3685.48667	0.51112
3683.55811	0.53669
3681.62954	0.56422
3679.70098	0.59499
3677.77241	0.62685
3675.84385	0.66494
3673.91528	0.71756
3671.98672	0.76067
3670.05815	0.79853
3668.12959	0.85185
3666.20103	0.90124
3664.27246	0.94141
3662.34390	0.98350
3660.41533	1.02914
3658.48677	1.07428
3656.55820	1.12203
3654.62964	1.17597
3652.70107	1.22198
3650.77251	1.26132
3648.84395	1.31487
3646.91538	1.38194
3644.98682	1.43257
3643.05825	1.47180
3641.12969	1.51160
3639.20112	1.55498
3637.27256	1.59856
3635.34399	1.64142
3633.41543	1.68436
3631.48687	1.72409
3629.55830	1.76443
3627.62974	1.81740
3625.70117	1.86666
3623.77261	1.90051
3621.84404	1.93337
3619.91548	1.97055
3617.98691	2.01457
3616.05835	2.05717
3614.12979	2.09406
3612.20122	2.13347
3610.27266	2.17252
3608.34409	2.21146
3606.41553	2.25321
3604.48696	2.29195
3602.55840	2.32685
3600.62983	2.36451
3598.70127	2.40494
3596.77271	2.44436
3594.84414	2.48433
3592.91558	2.52578
3590.98701	2.56532
3589.05845	2.60202
3587.12988	2.64542
3585.20132	2.69389
3583.27275	2.73462
3581.34419	2.77137
3579.41562	2.81038
3577.48706	2.85244
3575.55850	2.89703
3573.62993	2.94260
3571.70137	2.98449
3569.77280	3.02262
3567.84424	3.06451
3565.91567	3.11895
3563.98711	3.17110
3562.05854	3.21081
3560.12998	3.24902
3558.20142	3.29078
3556.27285	3.33676
3554.34429	3.38434
3552.41572	3.43198
3550.48716	3.47955
3548.55859	3.52523
3546.63003	3.56713
3544.70146	3.61092
3542.77290	3.66208
3540.84434	3.71470
3538.91577	3.76280
3536.98721	3.80678
3535.05864	3.85153
3533.13008	3.89888
3531.20151	3.94705
3529.27295	3.99380
3527.34438	4.04202
3525.41582	4.09289
3523.48726	4.14198
3521.55869	4.18807
3519.63013	4.23398
3517.70156	4.28342
3515.77300	4.33279
3513.84443	4.37866
3511.91587	4.42453
3509.98730	4.47240
3508.05874	4.51831
3506.13018	4.56280
3504.20161	4.61465
3502.27305	4.67378
3500.34448	4.72532
3498.41592	4.76694
3496.48735	4.81476
3494.55879	4.86951
3492.63022	4.91592
3490.70166	4.95315
3488.77310	4.99383
3486.84453	5.04424
3484.91597	5.10162
3482.98740	5.16135
3481.05884	5.22161
3479.13027	5.27735
3477.20171	5.32064
3475.27314	5.35417
3473.34458	5.38823
3471.41602	5.42960
3469.48745	5.48177
3467.55889	5.53684
3465.63032	5.58580
3463.70176	5.63770
3461.77319	5.69398
3459.84463	5.75043
3457.91606	5.80524
3455.98750	5.85326
3454.05894	5.89808
3452.13037	5.95111
3450.20181	6.00770
3448.27324	6.05630
3446.34468	6.10759
3444.41611	6.16473
3442.48755	6.22849
3440.55898	6.28832
3438.63042	6.32979
3436.70186	6.37007
3434.77329	6.41326
3432.84473	6.44751
3430.91616	6.48095
3428.98760	6.53263
3427.05903	6.59977
3425.13047	6.67156
3423.20190	6.73064
3421.27334	6.76622
3419.34478	6.79194
3417.41621	6.82912
3415.48765	6.87633
3413.55908	6.92366
3411.63052	6.98801
3409.70195	7.04903
3407.77339	7.07504
3405.84482	7.08903
3403.91626	7.13660
3401.98770	7.22116
3400.05913	7.31811
3398.13057	7.39374
3396.20200	7.41624
3394.27344	7.42184
3392.34487	7.45766
3390.41631	7.53669
3388.48774	7.60208
3386.55918	7.62104
3384.63062	7.63565
3382.70205	7.67170
3380.77349	7.71167
3378.84492	7.72911
3376.91636	7.78301
3374.98779	7.89303
3373.05923	7.94603
3371.13066	7.89324
3369.20210	7.83411
3367.27354	7.81807
3365.34497	7.84371
3363.41641	7.88638
3361.48784	7.92807
3359.55928	7.99013
3357.63071	8.01887
3355.70215	8.00469
3353.77358	8.05253
3351.84502	8.16497
3349.91646	8.18586
3347.98789	8.11687
3346.05933	8.07651
3344.13076	8.09783
3342.20220	8.18804
3340.27363	8.29174
3338.34507	8.30568
3336.41650	8.22323
3334.48794	8.20238
3332.55937	8.25316
3330.63081	8.23972
3328.70225	8.17097
3326.77368	8.14288
3324.84512	8.15015
3322.91655	8.13187
3320.98799	8.15609
3319.05942	8.25348
3317.13086	8.30135
3315.20229	8.26249
3313.27373	8.24202
3311.34517	8.22663
3309.41660	8.19444
3307.48804	8.20217
3305.55947	8.27528
3303.63091	8.42825
3301.70234	8.54064
3299.77378	8.48576
3297.84521	8.38168
3295.91665	8.34143
3293.98809	8.30876
3292.05952	8.27013
3290.13096	8.29426
3288.20239	8.37178
3286.27383	8.40182
3284.34526	8.32127
3282.41670	8.23668
3280.48813	8.22047
3278.55957	8.26376
3276.63101	8.33158
3274.70244	8.41023
3272.77388	8.46033
3270.84531	8.38070
3268.91675	8.24236
3266.98818	8.19036
3265.05962	8.24700
3263.13105	8.30891
3261.20249	8.34285
3259.27393	8.40651
3257.34536	8.44835
3255.41680	8.35896
3253.48823	8.25386
3251.55967	8.29059
3249.63110	8.36941
3247.70254	8.38367
3245.77397	8.35503
3243.84541	8.33350
3241.91685	8.37707
3239.98828	8.42758
3238.05972	8.42078
3236.13115	8.43033
3234.20259	8.46152
3232.27402	8.44030
3230.34546	8.42608
3228.41689	8.44016
3226.48833	8.38133
3224.55977	8.24759
3222.63120	8.13042
3220.70264	8.07730
3218.77407	8.08579
3216.84551	8.14395
3214.91694	8.15461
3212.98838	8.05169
3211.05981	7.97521
3209.13125	7.98510
3207.20269	7.99900
3205.27412	7.99765
3203.34556	7.99862
3201.41699	7.97891
3199.48843	7.93797
3197.55986	7.91861
3195.63130	7.93574
3193.70273	7.90327
3191.77417	7.78034
3189.84561	7.69896
3187.91704	7.67601
3185.98848	7.60596
3184.05991	7.51781
3182.13135	7.45637
3180.20278	7.39467
3178.27422	7.35071
3176.34565	7.35361
3174.41709	7.35320
3172.48853	7.28946
3170.55996	7.16904
3168.63140	7.05387
3166.70283	7.00300
3164.77427	6.99487
3162.84570	6.96661
3160.91714	6.89988
3158.98857	6.81299
3157.06001	6.71911
3155.13145	6.62026
3153.20288	6.51661
3151.27432	6.42166
3149.34575	6.34840
3147.41719	6.29277
3145.48862	6.24251
3143.56006	6.18818
3141.63149	6.12713
3139.70293	6.05287
3137.77437	5.97160
3135.84580	5.89889
3133.91724	5.83745
3131.98867	5.77775
3130.06011	5.70772
3128.13154	5.62912
3126.20298	5.55134
3124.27441	5.47775
3122.34585	5.40352
3120.41729	5.32908
3118.48872	5.25804
3116.56016	5.18233
3114.63159	5.10250
3112.70303	5.03328
3110.77446	4.97383
3108.84590	4.90984
3106.91733	4.83506
3104.98877	4.75768
3103.06021	4.69044
3101.13164	4.62760
3099.20308	4.55606
3097.27451	4.48001
3095.34595	4.40991
3093.41738	4.34808
3091.48882	4.28719
3089.56025	4.22149
3087.63169	4.15571
3085.70312	4.09093
3083.77456	4.02264
3081.84600	3.95638
3079.91743	3.89632
3077.98887	3.83600
3076.06030	3.77435
3074.13174	3.71561
3072.20317	3.65794
3070.27461	3.59821
3068.34604	3.53779
3066.41748	3.47914
3064.48892	3.42275
3062.56035	3.36696
3060.63179	3.31162
3058.70322	3.25689
3056.77466	3.20134
3054.84609	3.14593
3052.91753	3.09271
3050.98896	3.04210
3049.06040	2.99178
3047.13184	2.94032
3045.20327	2.88928
3043.27471	2.83861
3041.34614	2.78875
3039.41758	2.74159
3037.48901	2.69554
3035.56045	2.64821
3033.63188	2.60094
3031.70332	2.55559
3029.77476	2.51121
3027.84619	2.46673
3025.91763	2.42292
3023.98906	2.38036
3022.06050	2.33861
3020.13193	2.29744
3018.20337	2.25695
3016.27480	2.21692
3014.34624	2.17723
3012.41768	2.13803
3010.48911	2.09990
3008.56055	2.06275
3006.63198	2.02572
3004.70342	1.98912
3002.77485	1.95367
3000.84629	1.91899
2998.91772	1.88420
2996.98916	1.84972
2995.06060	1.81661
2993.13203	1.78460
2991.20347	1.75325
2989.27490	1.72243
2987.34634	1.69144
2985.41777	1.66056
2983.48921	1.63079
2981.56064	1.60166
2979.63208	1.57301
2977.70352	1.54525
2975.77495	1.51719
2973.84639	1.48852
2971.91782	1.46082
2969.98926	1.43451
2968.06069	1.40879
2966.13213	1.38363
2964.20356	1.35939
2962.27500	1.33550
2960.34644	1.31109
2958.41787	1.28641
2956.48931	1.26221
2954.56074	1.23874
2952.63218	1.21570
2950.70361	1.19315
2948.77505	1.17137
2946.84648	1.15001
2944.91792	1.12888
2942.98936	1.10809
2941.06079	1.08727
2939.13223	1.06687
2937.20366	1.04787
2935.27510	1.02961
2933.34653	1.01085
2931.41797	0.99191
2929.48940	0.97342
2927.56084	0.95534
2925.63228	0.93768
2923.70371	0.92064
2921.77515	0.90414
2919.84658	0.88764
2917.91802	0.87098
2915.98945	0.85441
2914.06089	0.83801
2912.13232	0.82228
2910.20376	0.80761
2908.27520	0.79357
2906.34663	0.77947
2904.41807	0.76516
2902.48950	0.75129
2900.56094	0.73837
2898.63237	0.72597
2896.70381	0.71365
2894.77524	0.70168
2892.84668	0.68994
2890.91812	0.67789
2888.98955	0.66600
2887.06099	0.65470
2885.13242	0.64354
2883.20386	0.63238
2881.27529	0.62169
2879.34673	0.61155
2877.41816	0.60158
2875.48960	0.59164
2873.56104	0.58189
2871.63247	0.57210
2869.70391	0.56193
2867.77534	0.55177
2865.84678	0.54197
2863.91821	0.53239
2861.98965	0.52291
2860.06108	0.51375
2858.13252	0.50493
2856.20396	0.49620
2854.27539	0.48766
2852.34683	0.47945
2850.41826	0.47164
2848.48970	0.46411
2846.56113	0.45660
2844.63257	0.44913
2842.70400	0.44193
2840.77544	0.43532
2838.84687	0.42940
2836.91831	0.42378
2834.98975	0.41806
2833.06118	0.41220
2831.13262	0.40622
2829.20405	0.40032
2827.27549	0.39461
2825.34692	0.38887
2823.41836	0.38307
2821.48979	0.37736
2819.56123	0.37182
2817.63267	0.36648
2815.70410	0.36127
2813.77554	0.35601
2811.84697	0.35069
2809.91841	0.34549
2807.98984	0.34024
2806.06128	0.33490
2804.13271	0.32997
2802.20415	0.32543
2800.27559	0.32098
2798.34702	0.31667
2796.41846	0.31251
2794.48989	0.30839
2792.56133	0.30417
2790.63276	0.29986
2788.70420	0.29562
2786.77563	0.29140
2784.84707	0.28729
2782.91851	0.28345
2780.98994	0.27964
2779.06138	0.27582
2777.13281	0.27216
2775.20425	0.26862
2773.27568	0.26523
2771.34712	0.26191
2769.41855	0.25856
2767.48999	0.25532
2765.56143	0.25220
2763.63286	0.24895
2761.70430	0.24564
2759.77573	0.24256
2757.84717	0.23979
2755.91860	0.23715
2753.99004	0.23439
2752.06147	0.23152
2750.13291	0.22873
2748.20435	0.22613
2746.27578	0.22363
2744.34722	0.22108
2742.41865	0.21852
2740.49009	0.21616
2738.56152	0.21394
2736.63296	0.21167
2734.70439	0.20938
2732.77583	0.20710
2730.84727	0.20472
2728.91870	0.20240
2726.99014	0.20034
2725.06157	0.19847
2723.13301	0.19661
2721.20444	0.19462
2719.27588	0.19264
2717.34731	0.19089
2715.41875	0.18914
2713.49019	0.18734
2711.56162	0.18579
2709.63306	0.18446
2707.70449	0.18314
2705.77593	0.18176
2703.84736	0.18020
2701.91880	0.17866
2699.99023	0.17727
2698.06167	0.17587
2696.13311	0.17437
2694.20454	0.17303
2692.27598	0.17188
2690.34741	0.17080
2688.41885	0.16979
2686.49028	0.16863
2684.56172	0.16732
2682.63315	0.16615
2680.70459	0.16508
2678.77603	0.16409
2676.84746	0.16321
2674.91890	0.16226
2672.99033	0.16114
2671.06177	0.16008
2669.13320	0.15930
2667.20464	0.15859
2665.27607	0.15776
2663.34751	0.15697
2661.41895	0.15637
2659.49038	0.15579
2657.56182	0.15500
2655.63325	0.15414
2653.70469	0.15354
2651.77612	0.15312
2649.84756	0.15259
2647.91899	0.15184
2645.99043	0.15107
2644.06187	0.15060
2642.13330	0.15030
2640.20474	0.14980
2638.27617	0.14932
2636.34761	0.14911
2634.41904	0.14900
2632.49048	0.14879
2630.56191	0.14843
2628.63335	0.14806
2626.70479	0.14794
2624.77622	0.14795
2622.84766	0.14776
2620.91909	0.14736
2618.99053	0.14700
2617.06196	0.14687
2615.13340	0.14685
2613.20483	0.14677
2611.27627	0.14656
2609.34771	0.14639
2607.41914	0.14640
2605.49058	0.14649
2603.56201	0.14670
2601.63345	0.14694
2599.70488	0.14701
2597.77632	0.14694
2595.84775	0.14686
2593.91919	0.14695
2591.99062	0.14727
2590.06206	0.14757
2588.13350	0.14767
2586.20493	0.14781
2584.27637	0.14818
2582.34780	0.14854
2580.41924	0.14877
2578.49067	0.14911
2576.56211	0.14963
2574.63354	0.15006
2572.70498	0.15043
2570.77642	0.15091
2568.84785	0.15134
2566.91929	0.15166
2564.99072	0.15208
2563.06216	0.15263
2561.13359	0.15321
2559.20503	0.15375
2557.27646	0.15422
2555.34790	0.15464
2553.41934	0.15511
2551.49077	0.15567
2549.56221	0.15627
2547.63364	0.15691
2545.70508	0.15754
2543.77651	0.15817
2541.84795	0.15887
2539.91938	0.15953
2537.99082	0.16003
2536.06226	0.16058
2534.13369	0.16140
2532.20513	0.16240
2530.27656	0.16324
2528.34800	0.16383
2526.41943	0.16444
2524.49087	0.16523
2522.56230	0.16613
2520.63374	0.16699
2518.70518	0.16776
2516.77661	0.16850
2514.84805	0.16923
2512.91948	0.16995
2510.99092	0.17070
2509.06235	0.17147
2507.13379	0.17224
2505.20522	0.17304
2503.27666	0.17392
2501.34810	0.17494
2499.41953	0.17598
2497.49097	0.17692
2495.56240	0.17778
2493.63384	0.17869
2491.70527	0.17961
2489.77671	0.18045
2487.84814	0.18130
2485.91958	0.18229
2483.99102	0.18339
2482.06245	0.18440
2480.13389	0.18524
2478.20532	0.18608
2476.27676	0.18695
2474.34819	0.18780
2472.41963	0.18863
2470.49106	0.18947
2468.56250	0.19048
2466.63394	0.19169
2464.70537	0.19284
2462.77681	0.19384
2460.84824	0.19482
2458.91968	0.19577
2456.99111	0.19666
2455.06255	0.19759
2453.13398	0.19864
2451.20542	0.19966
2449.27686	0.20058
2447.34829	0.20157
2445.41973	0.20277
2443.49116	0.20402
2441.56260	0.20500
2439.63403	0.20591
2437.70547	0.20707
2435.77690	0.20824
2433.84834	0.20919
2431.91978	0.21010
2429.99121	0.21110
2428.06265	0.21215
2426.13408	0.21332
2424.20552	0.21455
2422.27695	0.21571
2420.34839	0.21680
2418.41982	0.21787
2416.49126	0.21896
2414.56270	0.22016
2412.63413	0.22138
2410.70557	0.22252
2408.77700	0.22361
2406.84844	0.22473
2404.91987	0.22592
2402.99131	0.22718
2401.06274	0.22847
2399.13418	0.22972
2397.20562	0.23096
2395.27705	0.23221
2393.34849	0.23344
2391.41992	0.23474
2389.49136	0.23611
2387.56279	0.23746
2385.63423	0.23879
2383.70566	0.24032
2381.77710	0.24225
2379.84854	0.24445
2377.91997	0.24662
2375.99141	0.24871
2374.06284	0.25090
2372.13428	0.25342
2370.20571	0.25632
2368.27715	0.25939
2366.34858	0.26240
2364.42002	0.26556
2362.49146	0.26867
2360.56289	0.27101
2358.63433	0.27263
2356.70576	0.27289
2354.77720	0.27244
2352.84863	0.27298
2350.92007	0.27332
2348.99150	0.27307
2347.06294	0.27350
2345.13437	0.27570
2343.20581	0.27938
2341.27725	0.28233
2339.34868	0.28409
2337.42012	0.28551
2335.49155	0.28658
2333.56299	0.28727
2331.63442	0.28860
2329.70586	0.29050
2327.77729	0.29168
2325.84873	0.29244
2323.92017	0.29353
2321.99160	0.29467
2320.06304	0.29586
2318.13447	0.29708
2316.20591	0.29815
2314.27734	0.29941
2312.34878	0.30098
2310.42021	0.30255
2308.49165	0.30390
2306.56309	0.30515
2304.63452	0.30648
2302.70596	0.30802
2300.77739	0.30980
2298.84883	0.31162
2296.92026	0.31338
2294.99170	0.31510
2293.06313	0.31685
2291.13457	0.31860
2289.20601	0.32037
2287.27744	0.32222
2285.34888	0.32404
2283.42031	0.32585
2281.49175	0.32784
2279.56318	0.32999
2277.63462	0.33203
2275.70605	0.33396
2273.77749	0.33598
2271.84893	0.33811
2269.92036	0.34021
2267.99180	0.34226
2266.06323	0.34431
2264.13467	0.34633
2262.20610	0.34837
2260.27754	0.35059
2258.34897	0.35283
2256.42041	0.35480
2254.49185	0.35671
2252.56328	0.35892
2250.63472	0.36130
2248.70615	0.36357
2246.77759	0.36574
2244.84902	0.36782
2242.92046	0.36985
2240.99189	0.37204
2239.06333	0.37437
2237.13477	0.37663
2235.20620	0.37886
2233.27764	0.38110
2231.34907	0.38335
2229.42051	0.38558
2227.49194	0.38775
2225.56338	0.38995
2223.63481	0.39225
2221.70625	0.39444
2219.77769	0.39653
2217.84912	0.39864
2215.92056	0.40081
2213.99199	0.40311
2212.06343	0.40554
2210.13486	0.40785
2208.20630	0.40991
2206.27773	0.41188
2204.34917	0.41390
2202.42061	0.41587
2200.49204	0.41781
2198.56348	0.41978
2196.63491	0.42177
2194.70635	0.42377
2192.77778	0.42568
2190.84922	0.42746
2188.92065	0.42929
2186.99209	0.43120
2185.06353	0.43316
2183.13496	0.43506
2181.20640	0.43678
2179.27783	0.43837
2177.34927	0.44003
2175.42070	0.44164
2173.49214	0.44304
2171.56357	0.44437
2169.63501	0.44566
2167.70645	0.44689
2165.77788	0.44813
2163.84932	0.44932
2161.92075	0.45049
2159.99219	0.45168
2158.06362	0.45279
2156.13506	0.45373
2154.20649	0.45456
2152.27793	0.45534
2150.34937	0.45605
2148.42080	0.45661
2146.49224	0.45701
2144.56367	0.45743
2142.63511	0.45796
2140.70654	0.45841
2138.77798	0.45866
2136.84941	0.45880
2134.92085	0.45890
2132.99229	0.45898
2131.06372	0.45895
2129.13516	0.45869
2127.20659	0.45829
2125.27803	0.45786
2123.34946	0.45748
2121.42090	0.45708
2119.49233	0.45651
2117.56377	0.45583
2115.63521	0.45512
2113.70664	0.45436
2111.77808	0.45353
2109.84951	0.45261
2107.92095	0.45150
2105.99238	0.45026
2104.06382	0.44905
2102.13525	0.44769
2100.20669	0.44612
2098.27812	0.44456
2096.34956	0.44315
2094.42100	0.44183
2092.49243	0.44040
2090.56387	0.43874
2088.63530	0.43694
2086.70674	0.43510
2084.77817	0.43322
2082.84961	0.43129
2080.92104	0.42929
2078.99248	0.42729
2077.06392	0.42527
2075.13535	0.42317
2073.20679	0.42092
2071.27822	0.41854
2069.34966	0.41622
2067.42109	0.41396
2065.49253	0.41167
2063.56396	0.40918
2061.63540	0.40662
2059.70684	0.40411
2057.77827	0.40162
2055.84971	0.39919
2053.92114	0.39677
2051.99258	0.39427
2050.06401	0.39159
2048.13545	0.38883
2046.20688	0.38617
2044.27832	0.38362
2042.34976	0.38098
2040.42119	0.37818
2038.49263	0.37543
2036.56406	0.37272
2034.63550	0.36993
2032.70693	0.36714
2030.77837	0.36434
2028.84980	0.36148
2026.92124	0.35868
2024.99268	0.35593
2023.06411	0.35317
2021.13555	0.35040
2019.20698	0.34767
2017.27842	0.34492
2015.34985	0.34211
2013.42129	0.33934
2011.49272	0.33653
2009.56416	0.33366
2007.63560	0.33091
2005.70703	0.32833
2003.77847	0.32577
2001.84990	0.32318
1999.92134	0.32057
1997.99277	0.31800
1996.06421	0.31550
1994.13564	0.31299
1992.20708	0.31049
1990.27852	0.30799
1988.34995	0.30544
1986.42139	0.30290
1984.49282	0.30048
1982.56426	0.29814
1980.63569	0.29579
1978.70713	0.29346
1976.77856	0.29119
1974.85000	0.28899
1972.92144	0.28683
1970.99287	0.28473
1969.06431	0.28273
1967.13574	0.28082
1965.20718	0.27881
1963.27861	0.27669
1961.35005	0.27462
1959.42148	0.27274
1957.49292	0.27107
1955.56436	0.26937
1953.63579	0.26755
1951.70723	0.26575
1949.77866	0.26413
1947.85010	0.26264
1945.92153	0.26124
1943.99297	0.25991
1942.06440	0.25843
1940.13584	0.25668
1938.20728	0.25503
1936.27871	0.25370
1934.35015	0.25255
1932.42158	0.25139
1930.49302	0.25016
1928.56445	0.24901
1926.63589	0.24797
1924.70732	0.24699
1922.77876	0.24603
1920.85020	0.24503
1918.92163	0.24410
1916.99307	0.24319
1915.06450	0.24224
1913.13594	0.24137
1911.20737	0.24071
1909.27881	0.24011
1907.35024	0.23941
1905.42168	0.23876
1903.49312	0.23825
1901.56455	0.23772
1899.63599	0.23717
1897.70742	0.23676
1895.77886	0.23644
1893.85029	0.23609
1891.92173	0.23564
1889.99316	0.23535
1888.06460	0.23522
1886.13604	0.23499
1884.20747	0.23470
1882.27891	0.23454
1880.35034	0.23448
1878.42178	0.23444
1876.49321	0.23442
1874.56465	0.23438
1872.63608	0.23442
1870.70752	0.23455
1868.77896	0.23494
1866.85039	0.23532
1864.92183	0.23540
1862.99326	0.23547
1861.06470	0.23569
1859.13613	0.23604
1857.20757	0.23640
1855.27900	0.23682
1853.35044	0.23728
1851.42187	0.23785
1849.49331	0.23850
1847.56475	0.23922
1845.63618	0.24011
1843.70762	0.24117
1841.77905	0.24194
1839.85049	0.24229
1837.92192	0.24292
1835.99336	0.24388
1834.06479	0.24495
1832.13623	0.24601
1830.20767	0.24734
1828.27910	0.24866
1826.35054	0.24962
1824.42197	0.25081
1822.49341	0.25203
1820.56484	0.25323
1818.63628	0.25475
1816.70771	0.25663
1814.77915	0.25838
1812.85059	0.26002
1810.92202	0.26184
1808.99346	0.26379
1807.06489	0.26582
1805.13633	0.26792
1803.20776	0.27020
1801.27920	0.27267
1799.35063	0.27551
1797.42207	0.27816
1795.49351	0.28053
1793.56494	0.28316
1791.63638	0.28667
1789.70781	0.29023
1787.77925	0.29298
1785.85068	0.29609
1783.92212	0.29971
1781.99355	0.30369
1780.06499	0.30796
1778.13643	0.31234
1776.20786	0.31637
1774.27930	0.32050
1772.35073	0.32610
1770.42217	0.33252
1768.49360	0.33814
1766.56504	0.34347
1764.63647	0.34881
1762.70791	0.35458
1760.77935	0.36190
1758.85078	0.36897
1756.92222	0.37624
1754.99365	0.38420
1753.06509	0.39135
1751.13652	0.39971
1749.20796	0.41017
1747.27939	0.42052
1745.35083	0.42980
1743.42227	0.43972
1741.49370	0.45052
1739.56514	0.46312
1737.63657	0.47581
1735.70801	0.48686
1733.77944	0.50336
1731.85088	0.52329
1729.92231	0.53905
1727.99375	0.55483
1726.06519	0.57164
1724.13662	0.58998
1722.20806	0.60984
1720.27949	0.62807
1718.35093	0.64918
1716.42236	0.68085
1714.49380	0.71169
1712.56523	0.73687
1710.63667	0.76103
1708.70811	0.78654
1706.77954	0.81526
1704.85098	0.84987
1702.92241	0.88084
1700.99385	0.91110
1699.06528	0.95630
1697.13672	0.99823
1695.20815	1.04127
1693.27959	1.08286
1691.35103	1.11603
1689.42246	1.15396
1687.49390	1.19379
1685.56533	1.23193
1683.63677	1.29045
1681.70820	1.35127
1679.77964	1.39058
1677.85107	1.42823
1675.92251	1.47116
1673.99395	1.52331
1672.06538	1.56942
1670.13682	1.61522
1668.20825	1.67433
1666.27969	1.72125
1664.35112	1.75964
1662.42256	1.80611
1660.49399	1.85862
1658.56543	1.90093
1656.63687	1.93558
1654.70830	1.96754
1652.77974	2.02058
1650.85117	2.07148
1648.92261	2.08942
1646.99404	2.11499
1645.06548	2.14852
1643.13691	2.17178
1641.20835	2.18541
1639.27979	2.19671
1637.35122	2.20448
1635.42266	2.20704
1633.49409	2.20307
1631.56553	2.19210
1629.63696	2.17558
1627.70840	2.14888
1625.77983	2.12021
1623.85127	2.08479
1621.92271	2.03957
1619.99414	1.99812
1618.06558	1.95659
1616.13701	1.89685
1614.20845	1.83712
1612.27988	1.79246
1610.35132	1.74464
1608.42275	1.69154
1606.49419	1.63992
1604.56562	1.59328
1602.63706	1.54765
1600.70850	1.50237
1598.77993	1.46057
1596.85137	1.42094
1594.92280	1.38182
1592.99424	1.34342
1591.06567	1.30792
1589.13711	1.27442
1587.20854	1.24294
1585.27998	1.21361
1583.35142	1.18575
1581.42285	1.15981
1579.49429	1.13735
1577.56572	1.11680
1575.63716	1.09128
1573.70859	1.06862
1571.78003	1.05366
1569.85146	1.03720
1567.92290	1.01816
1565.99434	1.00331
1564.06577	0.99103
1562.13721	0.98087
1560.20864	0.97253
1558.28008	0.95832
1556.35151	0.94522
1554.42295	0.93736
1552.49438	0.92948
1550.56582	0.92113
1548.63726	0.91184
1546.70869	0.90292
1544.78013	0.89413
1542.85156	0.88449
1540.92300	0.87272
1538.99443	0.85605
1537.06587	0.84395
1535.13730	0.83610
1533.20874	0.82614
1531.28018	0.81493
1529.35161	0.80617
1527.42305	0.79794
1525.49448	0.78956
1523.56592	0.78211
1521.63735	0.77459
1519.70879	0.76673
1517.78022	0.76002
1515.85166	0.75286
1513.92310	0.74594
1511.99453	0.74035
1510.06597	0.73546
1508.13740	0.73067
1506.20884	0.72290
1504.28027	0.71562
1502.35171	0.71112
1500.42314	0.70715
1498.49458	0.70314
1496.56602	0.69870
1494.63745	0.69442
1492.70889	0.69113
1490.78032	0.68840
1488.85176	0.68520
1486.92319	0.68167
1484.99463	0.67866
1483.06606	0.67628
1481.13750	0.67413
1479.20894	0.67203
1477.28037	0.67023
1475.35181	0.66864
1473.42324	0.66682
1471.49468	0.66427
1469.56611	0.66168
1467.63755	0.65936
1465.70898	0.65707
1463.78042	0.65477
1461.85186	0.65277
1459.92329	0.65123
1457.99473	0.64970
1456.06616	0.64707
1454.13760	0.64406
1452.20903	0.64170
1450.28047	0.63939
1448.35190	0.63671
1446.42334	0.63381
1444.49478	0.63131
1442.56621	0.62903
1440.63765	0.62680
1438.70908	0.62483
1436.78052	0.62283
1434.85195	0.62047
1432.92339	0.61823
1430.99482	0.61644
1429.06626	0.61500
1427.13770	0.61383
1425.20913	0.61282
1423.28057	0.61180
1421.35200	0.61082
1419.42344	0.60996
1417.49487	0.60888
1415.56631	0.60742
1413.63774	0.60623
1411.70918	0.60539
1409.78062	0.60452
1407.85205	0.60350
1405.92349	0.60258
1403.99492	0.60174
1402.06636	0.60072
1400.13779	0.59957
1398.20923	0.59824
1396.28066	0.59669
1394.35210	0.59472
1392.42354	0.59237
1390.49497	0.59020
1388.56641	0.58826
1386.63784	0.58619
1384.70928	0.58397
1382.78071	0.58191
1380.85215	0.58001
1378.92358	0.57813
1376.99502	0.57638
1375.06646	0.57501
1373.13789	0.57398
1371.20933	0.57306
1369.28076	0.57216
1367.35220	0.57115
1365.42363	0.56997
1363.49507	0.56876
1361.56650	0.56769
1359.63794	0.56673
1357.70937	0.56581
1355.78081	0.56485
1353.85225	0.56388
1351.92368	0.56300
1349.99512	0.56216
1348.06655	0.56134
1346.13799	0.56061
1344.20942	0.55992
1342.28086	0.55918
1340.35229	0.55829
1338.42373	0.55721
1336.49517	0.55617
1334.56660	0.55541
1332.63804	0.55489
1330.70947	0.55450
1328.78091	0.55419
1326.85234	0.55394
1324.92378	0.55358
1322.99521	0.55302
1321.06665	0.55239
1319.13809	0.55186
1317.20952	0.55132
1315.28096	0.55071
1313.35239	0.55016
1311.42383	0.54958
1309.49526	0.54880
1307.56670	0.54801
1305.63813	0.54730
1303.70957	0.54662
1301.78101	0.54588
1299.85244	0.54499
1297.92388	0.54408
1295.99531	0.54325
1294.06675	0.54246
1292.13818	0.54176
1290.20962	0.54113
1288.28105	0.54057
1286.35249	0.53997
1284.42393	0.53927
1282.49536	0.53857
1280.56680	0.53795
1278.63823	0.53734
1276.70967	0.53671
1274.78110	0.53599
1272.85254	0.53526
1270.92397	0.53460
1268.99541	0.53398
1267.06685	0.53351
1265.13828	0.53316
1263.20972	0.53268
1261.28115	0.53202
1259.35259	0.53142
1257.42402	0.53100
1255.49546	0.53077
1253.56689	0.53070
1251.63833	0.53065
1249.70977	0.53047
1247.78120	0.53013
1245.85264	0.52974
1243.92407	0.52930
1241.99551	0.52873
1240.06694	0.52801
1238.13838	0.52724
1236.20981	0.52643
1234.28125	0.52546
1232.35269	0.52449
1230.42412	0.52374
1228.49556	0.52296
1226.56699	0.52195
1224.63843	0.52089
1222.70986	0.52006
1220.78130	0.51934
1218.85273	0.51850
1216.92417	0.51766
1214.99561	0.51699
1213.06704	0.51635
1211.13848	0.51560
1209.20991	0.51480
1207.28135	0.51406
1205.35278	0.51331
1203.42422	0.51262
1201.49565	0.51218
1199.56709	0.51184
1197.63853	0.51135
1195.70996	0.51084
1193.78140	0.51047
1191.85283	0.51018
1189.92427	0.50984
1187.99570	0.50952
1186.06714	0.50930
1184.13857	0.50919
1182.21001	0.50933
1180.28145	0.50975
1178.35288	0.51026
1176.42432	0.51079
1174.49575	0.51144
1172.56719	0.51202
1170.63862	0.51229
1168.71006	0.51248
1166.78149	0.51274
1164.85293	0.51294
1162.92437	0.51306
1160.99580	0.51296
1159.06724	0.51247
1157.13867	0.51173
1155.21011	0.51082
1153.28154	0.50966
1151.35298	0.50825
1149.42441	0.50664
1147.49585	0.50467
1145.56729	0.50231
1143.63872	0.49979
1141.71016	0.49747
1139.78159	0.49540
1137.85303	0.49351
1135.92446	0.49166
1133.99590	0.48976
1132.06733	0.48791
1130.13877	0.48624
1128.21021	0.48490
1126.28164	0.48396
1124.35308	0.48303
1122.42451	0.48193
1120.49595	0.48101
1118.56738	0.48040
1116.63882	0.47995
1114.71025	0.47965
1112.78169	0.47941
1110.85312	0.47922
1108.92456	0.47943
1106.99600	0.48017
1105.06743	0.48127
1103.13887	0.48284
1101.21030	0.48477
1099.28174	0.48671
1097.35317	0.48904
1095.42461	0.49215
1093.49604	0.49576
1091.56748	0.49990
1089.63892	0.50479
1087.71035	0.51011
1085.78179	0.51557
1083.85322	0.52148
1081.92466	0.52788
1079.99609	0.53380
1078.06753	0.53776
1076.13896	0.53915
1074.21040	0.53800
1072.28184	0.53428
1070.35327	0.52853
1068.42471	0.52183
1066.49614	0.51499
1064.56758	0.50850
1062.63901	0.50269
1060.71045	0.49753
1058.78188	0.49292
1056.85332	0.48871
1054.92476	0.48512
1052.99619	0.48249
1051.06763	0.48045
1049.13906	0.47846
1047.21050	0.47659
1045.28193	0.47509
1043.35337	0.47367
1041.42480	0.47229
1039.49624	0.47146
1037.56768	0.47113
1035.63911	0.47084
1033.71055	0.47042
1031.78198	0.47009
1029.85342	0.46992
1027.92485	0.46980
1025.99629	0.46994
1024.06772	0.47066
1022.13916	0.47164
1020.21060	0.47248
1018.28203	0.47334
1016.35347	0.47435
1014.42490	0.47559
1012.49634	0.47704
1010.56777	0.47848
1008.63921	0.47986
1006.71064	0.48145
1004.78208	0.48347
1002.85352	0.48582
1000.92495	0.48843
998.99639	0.49143
997.06782	0.49482
995.13926	0.49852
993.21069	0.50244
991.28213	0.50611
989.35356	0.50886
987.42500	0.51066
985.49644	0.51187
983.56787	0.51277
981.63931	0.51369
979.71074	0.51511
977.78218	0.51719
975.85361	0.51974
973.92505	0.52274
971.99648	0.52627
970.06792	0.53020
968.13936	0.53423
966.21079	0.53818
964.28223	0.54229
962.35366	0.54695
960.42510	0.55216
958.49653	0.55784
956.56797	0.56404
954.63940	0.57054
952.71084	0.57688
950.78228	0.58298
948.85371	0.58919
946.92515	0.59559
944.99658	0.60189
943.06802	0.60784
941.13945	0.61368
939.21089	0.61994
937.28232	0.62651
935.35376	0.63243
933.42520	0.63759
931.49663	0.64280
929.56807	0.64815
927.63950	0.65384
925.71094	0.66047
923.78237	0.66750
921.85381	0.67420
919.92524	0.68093
917.99668	0.68765
916.06812	0.69435
914.13955	0.70218
912.21099	0.71132
910.28242	0.72047
908.35386	0.72859
906.42529	0.73626
904.49673	0.74519
902.56816	0.75505
900.63960	0.76435
898.71104	0.77303
896.78247	0.78179
894.85391	0.79184
892.92534	0.80306
890.99678	0.81360
889.06821	0.82382
887.13965	0.83494
885.21108	0.84579
883.28252	0.85632
881.35396	0.86856
879.42539	0.88279
877.49683	0.89617
875.56826	0.90659
873.63970	0.91579
871.71113	0.92590
869.78257	0.93763
867.85400	0.95146
865.92544	0.96478
863.99687	0.97490
862.06831	0.98442
860.13975	0.99497
858.21118	1.00610
856.28262	1.01879
854.35405	1.03234
852.42549	1.04418
850.49692	1.05390
848.56836	1.06443
846.63979	1.07765
844.71123	1.09113
842.78267	1.10196
840.85410	1.11119
838.92554	1.12217
836.99697	1.13779
835.06841	1.15519
833.13984	1.16904
831.21128	1.18168
829.28271	1.19299
827.35415	1.19968
825.42559	1.20941
823.49702	1.22602
821.56846	1.24291
819.63989	1.26058
817.71133	1.27925
815.78276	1.29202
813.85420	1.29335
811.92563	1.28588
809.99707	1.28475
808.06851	1.29805
806.13994	1.31794
804.21138	1.34332
802.28281	1.37629
800.35425	1.39828
798.42568	1.41017
796.49712	1.42137
794.56855	1.41748
792.63999	1.39722
790.71143	1.38554
788.78286	1.44405
786.85430	1.57447
784.92573	1.65692
782.99717	1.70107
781.06860	1.77003
779.14004	1.73103
777.21147	1.64788
775.28291	1.65591
773.35435	1.62568
771.42578	1.45918
769.49722	1.34428
767.56865	1.41502
765.64009	1.77342
763.71152	4.58227
761.78296	4.57070
759.85439	2.11666
757.92583	1.68926
755.99727	1.91651
754.06870	1.97471
752.14014	1.44891
750.21157	1.26354
748.28301	1.27887
746.35444	1.24166
744.42588	1.12610
742.49731	1.14162
740.56875	1.20845
738.64019	1.09403
736.71162	1.00044
734.78306	0.96501
732.85449	0.83651
730.92593	0.67488
728.99736	0.55167
727.06880	0.43428
725.14023	0.34119
723.21167	0.34521
721.28311	0.40667
719.35454	0.39667
717.42598	0.28542
715.49741	0.19758
713.56885	0.30203
711.64028	0.45069
709.71172	0.22131
707.78315	0.04559
705.85459	-0.06295
703.92603	-0.19404
701.99746	-0.13142
700.06890	-0.05306
698.14033	-0.03240
696.21177	0.09200
694.28320	0.25966
692.35464	0.27231
690.42607	0.18602
688.49751	0.09154
686.56895	0.02209
684.64038	0.02960
682.71182	0.04352
680.78325	0.01581
678.85469	0.08197
676.92612	0.21402
674.99756	0.33089
673.06899	0.40908
671.14043	0.42970
669.21187	0.34551
667.28330	0.18716
665.35474	0.08545
663.42617	0.03465
661.49761	0.03568
659.56904	0.07376
657.64048	0.10106
655.71191	0.14502
653.78335	0.22967
651.85479	0.18640
649.92622	0.10149
647.99766	0.10451
646.06909	0.17613
644.14053	0.34057
642.21196	0.39192
640.28340	0.28329
638.35483	0.28540
636.42627	0.26605
634.49771	0.23674
632.56914	0.39419
630.64058	0.82549
628.71201	0.76676
626.78345	0.29894
624.85488	0.12658
622.92632	0.11033
620.99775	0.12406
619.06919	0.09999
617.14062	0.08194
615.21206	0.14656
613.28350	0.23087
611.35493	0.31491
609.42637	0.39772
607.49780	0.44930
605.56924	0.38053
603.64067	0.28063
601.71211	0.21075
599.78354	0.16248
597.85498	0.19562
595.92642	0.24814
593.99785	0.17100
592.06929	0.07345
590.14072	0.03471
588.21216	0.02489
586.28359	0.04190
584.35503	0.17888
582.42646	0.40569
580.49790	0.24312
578.56934	0.14598
576.64077	0.23118
574.71221	0.41611
572.78364	0.44122
570.85508	0.30255
568.92651	0.22277
566.99795	0.22132
565.06938	0.25840
563.14082	0.29588
561.21226	0.28115
559.28369	0.20543
557.35513	0.19252
555.42656	0.25892
553.49800	0.30379
551.56943	0.30734
549.64087	0.31714
547.71230	0.34223
545.78374	0.33409
543.85518	0.29554
541.92661	0.26995
539.99805	0.21817
538.06948	0.17105
536.14092	0.18095
534.21235	0.27364
532.28379	0.43452
530.35522	0.50464
528.42666	0.37194
526.49810	0.21600
524.56953	0.14807
522.64097	0.13565
520.71240	0.12853
518.78384	0.12034
516.85527	0.14096
514.92671	0.14756
512.99814	0.10242
511.06958	0.07841
509.14102	0.11670
507.21245	0.20526
505.28389	0.21302
503.35532	0.15382
501.42676	0.10227
499.49819	0.07356
