3997.91411	0.06141
3995.98555	0.06204
3994.05698	0.06269
3992.12842	0.06311
3990.19985	0.06342
3988.27129	0.06360
3986.34272	0.06354
3984.41416	0.06363
3982.48560	0.06418
3980.55703	0.06476
3978.62847	0.06504
3976.69990	0.06539
3974.77134	0.06565
3972.84277	0.06552
3970.91421	0.06538
3968.98564	0.06549
3967.05708	0.06592
3965.12852	0.06655
3963.19995	0.06705
3961.27139	0.06720
3959.34282	0.06704
3957.41426	0.06677
3955.48569	0.06661
3953.55713	0.06665
3951.62856	0.06690
3949.70000	0.06717
3947.77144	0.06701
3945.84287	0.06635
3943.91431	0.06595
3941.98574	0.06617
3940.05718	0.06649
3938.12861	0.06655
3936.20005	0.06657
3934.27148	0.06676
3932.34292	0.06695
3930.41436	0.06693
3928.48579	0.06689
3926.55723	0.06697
3924.62866	0.06718
3922.70010	0.06723
3920.77153	0.06702
3918.84297	0.06702
3916.91440	0.06720
3914.98584	0.06681
3913.05728	0.06596
3911.12871	0.06544
3909.20015	0.06533
3907.27158	0.06562
3905.34302	0.06660
3903.41445	0.06783
3901.48589	0.06825
3899.55732	0.06816
3897.62876	0.06760
3895.70020	0.06648
3893.77163	0.06608
3891.84307	0.06685
3889.91450	0.06725
3887.98594	0.06664
3886.05737	0.06664
3884.12881	0.06712
3882.20024	0.06706
3880.27168	0.06750
3878.34312	0.06813
3876.41455	0.06765
3874.48599	0.06709
3872.55742	0.06736
3870.62886	0.06823
3868.70029	0.06888
3866.77173	0.06882
3864.84316	0.06907
3862.91460	0.06974
3860.98604	0.06979
3859.05747	0.06972
3857.12891	0.07027
3855.20034	0.07123
3853.27178	0.07223
3851.34321	0.07271
3849.41465	0.07244
3847.48608	0.07205
3845.55752	0.07199
3843.62896	0.07259
3841.70039	0.07398
3839.77183	0.07568
3837.84326	0.07690
3835.91470	0.07718
3833.98613	0.07710
3832.05757	0.07707
3830.12900	0.07750
3828.20044	0.07859
3826.27187	0.07988
3824.34331	0.08075
3822.41475	0.08136
3820.48618	0.08286
3818.55762	0.08440
3816.62905	0.08486
3814.70049	0.08529
3812.77192	0.08554
3810.84336	0.08555
3808.91479	0.08590
3806.98623	0.08700
3805.05767	0.08848
3803.12910	0.08999
3801.20054	0.09234
3799.27197	0.09416
3797.34341	0.09431
3795.41484	0.09466
3793.48628	0.09536
3791.55771	0.09616
3789.62915	0.09728
3787.70059	0.09843
3785.77202	0.09971
3783.84346	0.10120
3781.91489	0.10246
3779.98633	0.10382
3778.05776	0.10591
3776.12920	0.10773
3774.20063	0.10879
3772.27207	0.10974
3770.34351	0.11125
3768.41494	0.11360
3766.48638	0.11598
3764.55781	0.11800
3762.62925	0.11967
3760.70068	0.12166
3758.77212	0.12455
3756.84355	0.12731
3754.91499	0.12930
3752.98643	0.13173
3751.05786	0.13584
3749.12930	0.14055
3747.20073	0.14279
3745.27217	0.14423
3743.34360	0.14747
3741.41504	0.15103
3739.48647	0.15330
3737.55791	0.15602
3735.62935	0.16113
3733.70078	0.16763
3731.77222	0.17187
3729.84365	0.17470
3727.91509	0.17803
3725.98652	0.18293
3724.05796	0.18932
3722.12939	0.19625
3720.20083	0.20356
3718.27227	0.21081
3716.34370	0.21794
3714.41514	0.22510
3712.48657	0.23374
3710.55801	0.24651
3708.62944	0.26077
3706.70088	0.27216
3704.77231	0.28275
3702.84375	0.29546
3700.91519	0.31213
3698.98662	0.33036
3697.05806	0.34765
3695.12949	0.36564
3693.20093	0.38460
3691.27236	0.40566
3689.34380	0.43325
3687.41523	0.46672
3685.48667	0.49590
3683.55811	0.52145
3681.62954	0.54891
3679.70098	0.57921
3677.77241	0.61083
3675.84385	0.64917
3673.91528	0.70194
3671.98672	0.74502
3670.05815	0.78264
3668.12959	0.83444
3666.20103	0.88212
3664.27246	0.92202
3662.34390	0.96472
3660.41533	1.01085
3658.48677	1.05615
3656.55820	1.10386
3654.62964	1.15770
3652.70107	1.20374
3650.77251	1.24326
3648.84395	1.29765
3646.91538	1.36582
3644.98682	1.41581
3643.05825	1.45399
3641.12969	1.49366
3639.20112	1.53763
3637.27256	1.58171
3635.34399	1.62423
3633.41543	1.66645
3631.48687	1.70599
3629.55830	1.74609
3627.62974	1.79896
3625.70117	1.84882
3623.77261	1.88304
3621.84404	1.91608
3619.91548	1.95353
3617.98691	1.99921
3616.05835	2.04401
3614.12979	2.08074
3612.20122	2.11882
3610.27266	2.15770
3608.34409	2.19738
3606.41553	2.24069
3604.48696	2.28106
3602.55840	2.31588
3600.62983	2.35283
3598.70127	2.39344
3596.77271	2.43392
3594.84414	2.47575
3592.91558	2.51767
3590.98701	2.55537
3589.05845	2.59116
3587.12988	2.63585
3585.20132	2.68602
3583.27275	2.72736
3581.34419	2.76372
3579.41562	2.80301
3577.48706	2.84711
3575.55850	2.89294
3573.62993	2.93775
3571.70137	2.97907
3569.77280	3.01700
3567.84424	3.05668
3565.91567	3.10793
3563.98711	3.16004
3562.05854	3.20091
3560.12998	3.24095
3558.20142	3.28673
3556.27285	3.33507
3554.34429	3.38063
3552.41572	3.42569
3550.48716	3.47213
3548.55859	3.51716
3546.63003	3.56144
3544.70146	3.61101
3542.77290	3.66336
3540.84434	3.71140
3538.91577	3.75650
3536.98721	3.80108
3535.05864	3.84876
3533.13008	3.89962
3531.20151	3.95056
3529.27295	3.99720
3527.34438	4.04120
3525.41582	4.08983
3523.48726	4.14155
3521.55869	4.19153
3519.63013	4.23911
3517.70156	4.28688
3515.77300	4.33487
3513.84443	4.38068
3511.91587	4.42474
3509.98730	4.47263
3508.05874	4.52669
3506.13018	4.57772
3504.20161	4.61787
3502.27305	4.65554
3500.34448	4.70295
3498.41592	4.75493
3496.48735	4.80308
3494.55879	4.85026
3492.63022	4.89933
3490.70166	4.94771
3488.77310	4.99568
3486.84453	5.04428
3484.91597	5.09498
3482.98740	5.14795
3481.05884	5.19893
3479.13027	5.24730
3477.20171	5.29918
3475.27314	5.35318
3473.34458	5.39627
3471.41602	5.42866
3469.48745	5.46828
3467.55889	5.52396
3465.63032	5.58835
3463.70176	5.64605
3461.77319	5.68696
3459.84463	5.72992
3457.91606	5.78517
3455.98750	5.83302
3454.05894	5.87874
3452.13037	5.93448
3450.20181	5.98325
3448.27324	6.02981
3446.34468	6.09240
3444.41611	6.14680
3442.48755	6.17906
3440.55898	6.20965
3438.63042	6.25543
3436.70186	6.31867
3434.77329	6.39114
3432.84473	6.44648
3430.91616	6.48203
3428.98760	6.54021
3427.05903	6.60600
3425.13047	6.65258
3423.20190	6.70552
3421.27334	6.77147
3419.34478	6.81713
3417.41621	6.82471
3415.48765	6.82131
3413.55908	6.84182
3411.63052	6.91020
3409.70195	7.00544
3407.77339	7.08240
3405.84482	7.12244
3403.91626	7.13143
3401.98770	7.11220
3400.05913	7.10816
3398.13057	7.16701
3396.20200	7.26283
3394.27344	7.34601
3392.34487	7.40095
3390.41631	7.45035
3388.48774	7.49178
3386.55918	7.53810
3384.63062	7.59309
3382.70205	7.62319
3380.77349	7.65386
3378.84492	7.68995
3376.91636	7.67852
3374.98779	7.65407
3373.05923	7.68105
3371.13066	7.70927
3369.20210	7.74854
3367.27354	7.85957
3365.34497	7.95121
3363.41641	7.90874
3361.48784	7.83861
3359.55928	7.84326
3357.63071	7.86489
3355.70215	7.87915
3353.77358	7.89794
3351.84502	7.90119
3349.91646	7.89710
3347.98789	7.95448
3346.05933	8.03507
3344.13076	8.03622
3342.20220	8.01200
3340.27363	8.01503
3338.34507	8.05443
3336.41650	8.12568
3334.48794	8.16103
3332.55937	8.13167
3330.63081	8.09057
3328.70225	8.03307
3326.77368	8.00930
3324.84512	8.06824
3322.91655	8.13862
3320.98799	8.18343
3319.05942	8.18729
3317.13086	8.12360
3315.20229	8.03355
3313.27373	8.04986
3311.34517	8.13898
3309.41660	8.15405
3307.48804	8.17976
3305.55947	8.27500
3303.63091	8.29138
3301.70234	8.23058
3299.77378	8.26931
3297.84521	8.31363
3295.91665	8.25629
3293.98809	8.19830
3292.05952	8.12219
3290.13096	8.10024
3288.20239	8.28716
3286.27383	8.56811
3284.34526	8.61665
3282.41670	8.44533
3280.48813	8.30260
3278.55957	8.25278
3276.63101	8.26250
3274.70244	8.35144
3272.77388	8.38676
3270.84531	8.25978
3268.91675	8.18120
3266.98818	8.22964
3265.05962	8.29417
3263.13105	8.30124
3261.20249	8.29817
3259.27393	8.30989
3257.34536	8.27560
3255.41680	8.23094
3253.48823	8.29881
3251.55967	8.38159
3249.63110	8.28097
3247.70254	8.12643
3245.77397	8.06222
3243.84541	8.11819
3241.91685	8.26369
3239.98828	8.33043
3238.05972	8.26451
3236.13115	8.21406
3234.20259	8.21044
3232.27402	8.18040
3230.34546	8.13526
3228.41689	8.12979
3226.48833	8.09110
3224.55977	7.95722
3222.63120	7.85203
3220.70264	7.85823
3218.77407	7.93843
3216.84551	8.00996
3214.91694	8.00940
3212.98838	7.97385
3211.05981	7.99255
3209.13125	8.02449
3207.20269	7.98086
3205.27412	7.92858
3203.34556	7.91356
3201.41699	7.89612
3199.48843	7.84951
3197.55986	7.77813
3195.63130	7.68528
3193.70273	7.59343
3191.77417	7.56136
3189.84561	7.57193
3187.91704	7.53122
3185.98848	7.45404
3184.05991	7.41251
3182.13135	7.37665
3180.20278	7.32514
3178.27422	7.26938
3176.34565	7.19894
3174.41709	7.14759
3172.48853	7.11885
3170.55996	7.05588
3168.63140	6.98177
3166.70283	6.93675
3164.77427	6.86849
3162.84570	6.77145
3160.91714	6.71077
3158.98857	6.67878
3157.06001	6.61939
3155.13145	6.53970
3153.20288	6.47529
3151.27432	6.42077
3149.34575	6.35954
3147.41719	6.29197
3145.48862	6.22109
3143.56006	6.14730
3141.63149	6.07544
3139.70293	6.00446
3137.77437	5.92831
3135.84580	5.84774
3133.91724	5.77618
3131.98867	5.72023
3130.06011	5.65878
3128.13154	5.58129
3126.20298	5.50142
3124.27441	5.42543
3122.34585	5.35631
3120.41729	5.29024
3118.48872	5.21572
3116.56016	5.14070
3114.63159	5.07523
3112.70303	5.01717
3110.77446	4.96173
3108.84590	4.89735
3106.91733	4.82114
3104.98877	4.74512
3103.06021	4.67722
3101.13164	4.61424
3099.20308	4.54924
3097.27451	4.47913
3095.34595	4.40786
3093.41738	4.34118
3091.48882	4.27869
3089.56025	4.21641
3087.63169	4.15257
3085.70312	4.08802
3083.77456	4.02515
3081.84600	3.96598
3079.91743	3.90758
3077.98887	3.84552
3076.06030	3.78282
3074.13174	3.72579
3072.20317	3.67321
3070.27461	3.61820
3068.34604	3.55899
3066.41748	3.50031
3064.48892	3.44604
3062.56035	3.39380
3060.63179	3.33974
3058.70322	3.28480
3056.77466	3.23095
3054.84609	3.17755
3052.91753	3.12409
3050.98896	3.07134
3049.06040	3.01957
3047.13184	2.96890
3045.20327	2.91970
3043.27471	2.87171
3041.34614	2.82425
3039.41758	2.77782
3037.48901	2.73206
3035.56045	2.68532
3033.63188	2.63900
3031.70332	2.59453
3029.77476	2.55003
3027.84619	2.50525
3025.91763	2.46183
3023.98906	2.41926
3022.06050	2.37646
3020.13193	2.33408
3018.20337	2.29291
3016.27480	2.25276
3014.34624	2.21314
3012.41768	2.17380
3010.48911	2.13507
3008.56055	2.09758
3006.63198	2.06167
3004.70342	2.02679
3002.77485	1.99229
3000.84629	1.95798
2998.91772	1.92397
2996.98916	1.89085
2995.06060	1.85868
2993.13203	1.82726
2991.20347	1.79695
2989.27490	1.76761
2987.34634	1.73836
2985.41777	1.70934
2983.48921	1.68161
2981.56064	1.65521
2979.63208	1.62940
2977.70352	1.60347
2975.77495	1.57765
2973.84639	1.55297
2971.91782	1.52929
2969.98926	1.50595
2968.06069	1.48256
2966.13213	1.45926
2964.20356	1.43639
2962.27500	1.41323
2960.34644	1.38934
2958.41787	1.36547
2956.48931	1.34179
2954.56074	1.31815
2952.63218	1.29500
2950.70361	1.27238
2948.77505	1.24983
2946.84648	1.22762
2944.91792	1.20657
2942.98936	1.18649
2941.06079	1.16669
2939.13223	1.14717
2937.20366	1.12782
2935.27510	1.10855
2933.34653	1.08953
2931.41797	1.07060
2929.48940	1.05165
2927.56084	1.03267
2925.63228	1.01358
2923.70371	0.99499
2921.77515	0.97727
2919.84658	0.95983
2917.91802	0.94205
2915.98945	0.92396
2914.06089	0.90648
2912.13232	0.89014
2910.20376	0.87422
2908.27520	0.85832
2906.34663	0.84280
2904.41807	0.82760
2902.48950	0.81252
2900.56094	0.79801
2898.63237	0.78449
2896.70381	0.77160
2894.77524	0.75899
2892.84668	0.74684
2890.91812	0.73519
2888.98955	0.72369
2887.06099	0.71220
2885.13242	0.70112
2883.20386	0.69077
2881.27529	0.68086
2879.34673	0.67119
2877.41816	0.66182
2875.48960	0.65241
2873.56104	0.64259
2871.63247	0.63221
2869.70391	0.62105
2867.77534	0.60916
2865.84678	0.59702
2863.91821	0.58524
2861.98965	0.57399
2860.06108	0.56300
2858.13252	0.55232
2856.20396	0.54219
2854.27539	0.53277
2852.34683	0.52387
2850.41826	0.51492
2848.48970	0.50585
2846.56113	0.49732
2844.63257	0.48954
2842.70400	0.48215
2840.77544	0.47508
2838.84687	0.46823
2836.91831	0.46135
2834.98975	0.45473
2833.06118	0.44857
2831.13262	0.44246
2829.20405	0.43617
2827.27549	0.43000
2825.34692	0.42391
2823.41836	0.41772
2821.48979	0.41167
2819.56123	0.40582
2817.63267	0.39990
2815.70410	0.39404
2813.77554	0.38841
2811.84697	0.38281
2809.91841	0.37723
2807.98984	0.37183
2806.06128	0.36661
2804.13271	0.36151
2802.20415	0.35638
2800.27559	0.35113
2798.34702	0.34597
2796.41846	0.34104
2794.48989	0.33620
2792.56133	0.33146
2790.63276	0.32691
2788.70420	0.32244
2786.77563	0.31789
2784.84707	0.31339
2782.91851	0.30911
2780.98994	0.30497
2779.06138	0.30089
2777.13281	0.29698
2775.20425	0.29324
2773.27568	0.28951
2771.34712	0.28566
2769.41855	0.28179
2767.48999	0.27822
2765.56143	0.27492
2763.63286	0.27152
2761.70430	0.26785
2759.77573	0.26433
2757.84717	0.26117
2755.91860	0.25811
2753.99004	0.25485
2752.06147	0.25150
2750.13291	0.24839
2748.20435	0.24564
2746.27578	0.24294
2744.34722	0.24006
2742.41865	0.23712
2740.49009	0.23442
2738.56152	0.23194
2736.63296	0.22941
2734.70439	0.22673
2732.77583	0.22399
2730.84727	0.22141
2728.91870	0.21909
2726.99014	0.21693
2725.06157	0.21480
2723.13301	0.21265
2721.20444	0.21052
2719.27588	0.20846
2717.34731	0.20646
2715.41875	0.20454
2713.49019	0.20262
2711.56162	0.20064
2709.63306	0.19880
2707.70449	0.19724
2705.77593	0.19584
2703.84736	0.19425
2701.91880	0.19255
2699.99023	0.19114
2698.06167	0.18991
2696.13311	0.18854
2694.20454	0.18699
2692.27598	0.18532
2690.34741	0.18378
2688.41885	0.18246
2686.49028	0.18122
2684.56172	0.17995
2682.63315	0.17867
2680.70459	0.17747
2678.77603	0.17627
2676.84746	0.17503
2674.91890	0.17381
2672.99033	0.17265
2671.06177	0.17160
2669.13320	0.17057
2667.20464	0.16955
2665.27607	0.16866
2663.34751	0.16786
2661.41895	0.16701
2659.49038	0.16604
2657.56182	0.16517
2655.63325	0.16452
2653.70469	0.16389
2651.77612	0.16315
2649.84756	0.16228
2647.91899	0.16132
2645.99043	0.16053
2644.06187	0.15995
2642.13330	0.15952
2640.20474	0.15915
2638.27617	0.15856
2636.34761	0.15773
2634.41904	0.15706
2632.49048	0.15668
2630.56191	0.15629
2628.63335	0.15581
2626.70479	0.15542
2624.77622	0.15508
2622.84766	0.15468
2620.91909	0.15429
2618.99053	0.15401
2617.06196	0.15378
2615.13340	0.15347
2613.20483	0.15310
2611.27627	0.15285
2609.34771	0.15280
2607.41914	0.15272
2605.49058	0.15262
2603.56201	0.15258
2601.63345	0.15249
2599.70488	0.15225
2597.77632	0.15212
2595.84775	0.15223
2593.91919	0.15240
2591.99062	0.15249
2590.06206	0.15257
2588.13350	0.15271
2586.20493	0.15288
2584.27637	0.15302
2582.34780	0.15313
2580.41924	0.15329
2578.49067	0.15357
2576.56211	0.15388
2574.63354	0.15420
2572.70498	0.15459
2570.77642	0.15496
2568.84785	0.15513
2566.91929	0.15524
2564.99072	0.15542
2563.06216	0.15573
2561.13359	0.15618
2559.20503	0.15661
2557.27646	0.15698
2555.34790	0.15741
2553.41934	0.15791
2551.49077	0.15836
2549.56221	0.15877
2547.63364	0.15928
2545.70508	0.15986
2543.77651	0.16041
2541.84795	0.16099
2539.91938	0.16169
2537.99082	0.16237
2536.06226	0.16295
2534.13369	0.16356
2532.20513	0.16412
2530.27656	0.16453
2528.34800	0.16509
2526.41943	0.16586
2524.49087	0.16659
2522.56230	0.16727
2520.63374	0.16804
2518.70518	0.16880
2516.77661	0.16935
2514.84805	0.16994
2512.91948	0.17083
2510.99092	0.17176
2509.06235	0.17247
2507.13379	0.17319
2505.20522	0.17401
2503.27666	0.17479
2501.34810	0.17550
2499.41953	0.17622
2497.49097	0.17700
2495.56240	0.17780
2493.63384	0.17863
2491.70527	0.17951
2489.77671	0.18039
2487.84814	0.18120
2485.91958	0.18187
2483.99102	0.18241
2482.06245	0.18311
2480.13389	0.18404
2478.20532	0.18500
2476.27676	0.18591
2474.34819	0.18671
2472.41963	0.18741
2470.49106	0.18818
2468.56250	0.18909
2466.63394	0.19006
2464.70537	0.19099
2462.77681	0.19186
2460.84824	0.19274
2458.91968	0.19361
2456.99111	0.19445
2455.06255	0.19527
2453.13398	0.19609
2451.20542	0.19698
2449.27686	0.19800
2447.34829	0.19893
2445.41973	0.19969
2443.49116	0.20053
2441.56260	0.20159
2439.63403	0.20276
2437.70547	0.20394
2435.77690	0.20496
2433.84834	0.20580
2431.91978	0.20672
2429.99121	0.20778
2428.06265	0.20880
2426.13408	0.20975
2424.20552	0.21078
2422.27695	0.21182
2420.34839	0.21279
2418.41982	0.21393
2416.49126	0.21523
2414.56270	0.21632
2412.63413	0.21722
2410.70557	0.21829
2408.77700	0.21952
2406.84844	0.22064
2404.91987	0.22178
2402.99131	0.22305
2401.06274	0.22427
2399.13418	0.22540
2397.20562	0.22659
2395.27705	0.22783
2393.34849	0.22903
2391.41992	0.23025
2389.49136	0.23157
2387.56279	0.23280
2385.63423	0.23390
2383.70566	0.23513
2381.77710	0.23654
2379.84854	0.23804
2377.91997	0.23949
2375.99141	0.24078
2374.06284	0.24208
2372.13428	0.24321
2370.20571	0.24408
2368.27715	0.24513
2366.34858	0.24638
2364.42002	0.24799
2362.49146	0.25043
2360.56289	0.25268
2358.63433	0.25437
2356.70576	0.25636
2354.77720	0.25903
2352.84863	0.26133
2350.92007	0.26217
2348.99150	0.26227
2347.06294	0.26271
2345.13437	0.26413
2343.20581	0.26616
2341.27725	0.26761
2339.34868	0.26868
2337.42012	0.27012
2335.49155	0.27201
2333.56299	0.27387
2331.63442	0.27584
2329.70586	0.27779
2327.77729	0.27928
2325.84873	0.28071
2323.92017	0.28257
2321.99160	0.28452
2320.06304	0.28614
2318.13447	0.28768
2316.20591	0.28927
2314.27734	0.29077
2312.34878	0.29221
2310.42021	0.29388
2308.49165	0.29569
2306.56309	0.29739
2304.63452	0.29917
2302.70596	0.30111
2300.77739	0.30296
2298.84883	0.30469
2296.92026	0.30650
2294.99170	0.30844
2293.06313	0.31043
2291.13457	0.31231
2289.20601	0.31403
2287.27744	0.31580
2285.34888	0.31774
2283.42031	0.31975
2281.49175	0.32175
2279.56318	0.32381
2277.63462	0.32586
2275.70605	0.32786
2273.77749	0.32988
2271.84893	0.33198
2269.92036	0.33412
2267.99180	0.33620
2266.06323	0.33819
2264.13467	0.34016
2262.20610	0.34209
2260.27754	0.34412
2258.34897	0.34636
2256.42041	0.34866
2254.49185	0.35087
2252.56328	0.35295
2250.63472	0.35501
2248.70615	0.35727
2246.77759	0.35958
2244.84902	0.36164
2242.92046	0.36374
2240.99189	0.36604
2239.06333	0.36833
2237.13477	0.37053
2235.20620	0.37269
2233.27764	0.37484
2231.34907	0.37693
2229.42051	0.37898
2227.49194	0.38122
2225.56338	0.38361
2223.63481	0.38594
2221.70625	0.38808
2219.77769	0.39006
2217.84912	0.39210
2215.92056	0.39442
2213.99199	0.39687
2212.06343	0.39913
2210.13486	0.40107
2208.20630	0.40295
2206.27773	0.40506
2204.34917	0.40736
2202.42061	0.40969
2200.49204	0.41181
2198.56348	0.41368
2196.63491	0.41546
2194.70635	0.41726
2192.77778	0.41912
2190.84922	0.42113
2188.92065	0.42307
2186.99209	0.42482
2185.06353	0.42650
2183.13496	0.42820
2181.20640	0.42989
2179.27783	0.43158
2177.34927	0.43319
2175.42070	0.43463
2173.49214	0.43593
2171.56357	0.43722
2169.63501	0.43853
2167.70645	0.43995
2165.77788	0.44142
2163.84932	0.44274
2161.92075	0.44384
2159.99219	0.44487
2158.06362	0.44586
2156.13506	0.44674
2154.20649	0.44755
2152.27793	0.44840
2150.34937	0.44918
2148.42080	0.44971
2146.49224	0.45016
2144.56367	0.45068
2142.63511	0.45109
2140.70654	0.45132
2138.77798	0.45151
2136.84941	0.45166
2134.92085	0.45171
2132.99229	0.45170
2131.06372	0.45171
2129.13516	0.45165
2127.20659	0.45134
2125.27803	0.45090
2123.34946	0.45045
2121.42090	0.44995
2119.49233	0.44938
2117.56377	0.44871
2115.63521	0.44792
2113.70664	0.44708
2111.77808	0.44624
2109.84951	0.44536
2107.92095	0.44439
2105.99238	0.44324
2104.06382	0.44195
2102.13525	0.44064
2100.20669	0.43931
2098.27812	0.43793
2096.34956	0.43648
2094.42100	0.43494
2092.49243	0.43331
2090.56387	0.43159
2088.63530	0.42976
2086.70674	0.42786
2084.77817	0.42600
2082.84961	0.42415
2080.92104	0.42213
2078.99248	0.42000
2077.06392	0.41783
2075.13535	0.41566
2073.20679	0.41355
2071.27822	0.41138
2069.34966	0.40905
2067.42109	0.40671
2065.49253	0.40452
2063.56396	0.40228
2061.63540	0.39976
2059.70684	0.39713
2057.77827	0.39468
2055.84971	0.39237
2053.92114	0.38991
2051.99258	0.38724
2050.06401	0.38446
2048.13545	0.38171
2046.20688	0.37898
2044.27832	0.37626
2042.34976	0.37361
2040.42119	0.37106
2038.49263	0.36847
2036.56406	0.36574
2034.63550	0.36296
2032.70693	0.36011
2030.77837	0.35726
2028.84980	0.35455
2026.92124	0.35182
2024.99268	0.34898
2023.06411	0.34618
2021.13555	0.34344
2019.20698	0.34074
2017.27842	0.33799
2015.34985	0.33522
2013.42129	0.33258
2011.49272	0.33003
2009.56416	0.32742
2007.63560	0.32464
2005.70703	0.32186
2003.77847	0.31916
2001.84990	0.31649
1999.92134	0.31389
1997.99277	0.31136
1996.06421	0.30882
1994.13564	0.30638
1992.20708	0.30404
1990.27852	0.30160
1988.34995	0.29907
1986.42139	0.29650
1984.49282	0.29398
1982.56426	0.29165
1980.63569	0.28947
1978.70713	0.28728
1976.77856	0.28506
1974.85000	0.28295
1972.92144	0.28085
1970.99287	0.27870
1969.06431	0.27663
1967.13574	0.27458
1965.20718	0.27249
1963.27861	0.27054
1961.35005	0.26866
1959.42148	0.26680
1957.49292	0.26501
1955.56436	0.26324
1953.63579	0.26156
1951.70723	0.25993
1949.77866	0.25831
1947.85010	0.25668
1945.92153	0.25509
1943.99297	0.25374
1942.06440	0.25255
1940.13584	0.25114
1938.20728	0.24957
1936.27871	0.24812
1934.35015	0.24683
1932.42158	0.24567
1930.49302	0.24451
1928.56445	0.24333
1926.63589	0.24218
1924.70732	0.24122
1922.77876	0.24041
1920.85020	0.23956
1918.92163	0.23871
1916.99307	0.23783
1915.06450	0.23689
1913.13594	0.23596
1911.20737	0.23524
1909.27881	0.23463
1907.35024	0.23397
1905.42168	0.23328
1903.49312	0.23271
1901.56455	0.23224
1899.63599	0.23179
1897.70742	0.23136
1895.77886	0.23102
1893.85029	0.23075
1891.92173	0.23049
1889.99316	0.23042
1888.06460	0.23031
1886.13604	0.22995
1884.20747	0.22957
1882.27891	0.22929
1880.35034	0.22912
1878.42178	0.22901
1876.49321	0.22895
1874.56465	0.22891
1872.63608	0.22902
1870.70752	0.22937
1868.77896	0.22998
1866.85039	0.23032
1864.92183	0.23020
1862.99326	0.23014
1861.06470	0.23031
1859.13613	0.23060
1857.20757	0.23091
1855.27900	0.23139
1853.35044	0.23192
1851.42187	0.23242
1849.49331	0.23296
1847.56475	0.23376
1845.63618	0.23485
1843.70762	0.23597
1841.77905	0.23663
1839.85049	0.23693
1837.92192	0.23757
1835.99336	0.23847
1834.06479	0.23943
1832.13623	0.24050
1830.20767	0.24193
1828.27910	0.24335
1826.35054	0.24444
1824.42197	0.24576
1822.49341	0.24701
1820.56484	0.24814
1818.63628	0.24948
1816.70771	0.25112
1814.77915	0.25271
1812.85059	0.25441
1810.92202	0.25647
1808.99346	0.25866
1807.06489	0.26063
1805.13633	0.26243
1803.20776	0.26457
1801.27920	0.26716
1799.35063	0.27001
1797.42207	0.27255
1795.49351	0.27494
1793.56494	0.27770
1791.63638	0.28131
1789.70781	0.28472
1787.77925	0.28717
1785.85068	0.29020
1783.92212	0.29393
1781.99355	0.29789
1780.06499	0.30205
1778.13643	0.30628
1776.20786	0.31022
1774.27930	0.31444
1772.35073	0.32020
1770.42217	0.32659
1768.49360	0.33202
1766.56504	0.33711
1764.63647	0.34223
1762.70791	0.34794
1760.77935	0.35533
1758.85078	0.36224
1756.92222	0.36918
1754.99365	0.37691
1753.06509	0.38394
1751.13652	0.39218
1749.20796	0.40257
1747.27939	0.41285
1745.35083	0.42194
1743.42227	0.43166
1741.49370	0.44241
1739.56514	0.45503
1737.63657	0.46760
1735.70801	0.47845
1733.77944	0.49464
1731.85088	0.51413
1729.92231	0.52953
1727.99375	0.54500
1726.06519	0.56168
1724.13662	0.57995
1722.20806	0.59964
1720.27949	0.61781
1718.35093	0.63909
1716.42236	0.67058
1714.49380	0.70073
1712.56523	0.72542
1710.63667	0.74948
1708.70811	0.77533
1706.77954	0.80480
1704.85098	0.84028
1702.92241	0.87194
1700.99385	0.90314
1699.06528	0.95003
1697.13672	0.99351
1695.20815	1.03806
1693.27959	1.08151
1691.35103	1.11712
1689.42246	1.15894
1687.49390	1.20334
1685.56533	1.24582
1683.63677	1.31176
1681.70820	1.38178
1679.77964	1.42707
1677.85107	1.46952
1675.92251	1.51775
1673.99395	1.57802
1672.06538	1.63277
1670.13682	1.68730
1668.20825	1.75884
1666.27969	1.81740
1664.35112	1.86720
1662.42256	1.93106
1660.49399	2.00479
1658.56543	2.06296
1656.63687	2.10938
1654.70830	2.15100
1652.77974	2.21455
1650.85117	2.27147
1648.92261	2.28756
1646.99404	2.30750
1645.06548	2.33144
1643.13691	2.34934
1641.20835	2.35866
1639.27979	2.36491
1637.35122	2.36578
1635.42266	2.36063
1633.49409	2.34975
1631.56553	2.33263
1629.63696	2.31299
1627.70840	2.28356
1625.77983	2.24885
1623.85127	2.20278
1621.92271	2.14540
1619.99414	2.09553
1618.06558	2.04810
1616.13701	1.98043
1614.20845	1.91256
1612.27988	1.86199
1610.35132	1.80905
1608.42275	1.75151
1606.49419	1.69514
1604.56562	1.64357
1602.63706	1.59429
1600.70850	1.54618
1598.77993	1.50172
1596.85137	1.46034
1594.92280	1.42040
1592.99424	1.38209
1591.06567	1.34775
1589.13711	1.31623
1587.20854	1.28728
1585.27998	1.26110
1583.35142	1.23733
1581.42285	1.21603
1579.49429	1.19796
1577.56572	1.18198
1575.63716	1.16358
1573.70859	1.14858
1571.78003	1.13957
1569.85146	1.13081
1567.92290	1.12156
1565.99434	1.11544
1564.06577	1.11222
1562.13721	1.11081
1560.20864	1.11175
1558.28008	1.11916
1556.35151	1.12852
1554.42295	1.13399
1552.49438	1.13887
1550.56582	1.14163
1548.63726	1.14082
1546.70869	1.13632
1544.78013	1.12800
1542.85156	1.11567
1540.92300	1.09600
1538.99443	1.06333
1537.06587	1.03871
1535.13730	1.02195
1533.20874	0.99966
1531.28018	0.97547
1529.35161	0.95770
1527.42305	0.94113
1525.49448	0.92424
1523.56592	0.91028
1521.63735	0.89730
1519.70879	0.88408
1517.78022	0.87282
1515.85166	0.85969
1513.92310	0.84575
1511.99453	0.83356
1510.06597	0.82267
1508.13740	0.81212
1506.20884	0.79512
1504.28027	0.78003
1502.35171	0.77173
1500.42314	0.76478
1498.49458	0.75763
1496.56602	0.74914
1494.63745	0.74031
1492.70889	0.73332
1490.78032	0.72721
1488.85176	0.72059
1486.92319	0.71471
1484.99463	0.71014
1483.06606	0.70660
1481.13750	0.70402
1479.20894	0.70245
1477.28037	0.70186
1475.35181	0.70204
1473.42324	0.70289
1471.49468	0.70345
1469.56611	0.70274
1467.63755	0.70137
1465.70898	0.70018
1463.78042	0.69927
1461.85186	0.69876
1459.92329	0.69897
1457.99473	0.70006
1456.06616	0.70061
1454.13760	0.69851
1452.20903	0.69573
1450.28047	0.69316
1448.35190	0.69060
1446.42334	0.68775
1444.49478	0.68499
1442.56621	0.68231
1440.63765	0.67928
1438.70908	0.67595
1436.78052	0.67180
1434.85195	0.66731
1432.92339	0.66425
1430.99482	0.66254
1429.06626	0.66160
1427.13770	0.66131
1425.20913	0.66192
1423.28057	0.66333
1421.35200	0.66460
1419.42344	0.66556
1417.49487	0.66583
1415.56631	0.66498
1413.63774	0.66429
1411.70918	0.66453
1409.78062	0.66576
1407.85205	0.66754
1405.92349	0.66964
1403.99492	0.67175
1402.06636	0.67283
1400.13779	0.67255
1398.20923	0.67098
1396.28066	0.66810
1394.35210	0.66380
1392.42354	0.65878
1390.49497	0.65411
1388.56641	0.64942
1386.63784	0.64384
1384.70928	0.63788
1382.78071	0.63233
1380.85215	0.62712
1378.92358	0.62259
1376.99502	0.61932
1375.06646	0.61729
1373.13789	0.61604
1371.20933	0.61531
1369.28076	0.61474
1367.35220	0.61363
1365.42363	0.61183
1363.49507	0.60996
1361.56650	0.60835
1359.63794	0.60678
1357.70937	0.60528
1355.78081	0.60399
1353.85225	0.60281
1351.92368	0.60174
1349.99512	0.60094
1348.06655	0.60025
1346.13799	0.59934
1344.20942	0.59825
1342.28086	0.59736
1340.35229	0.59681
1338.42373	0.59622
1336.49517	0.59541
1334.56660	0.59478
1332.63804	0.59468
1330.70947	0.59512
1328.78091	0.59588
1326.85234	0.59677
1324.92378	0.59779
1322.99521	0.59903
1321.06665	0.60032
1319.13809	0.60131
1317.20952	0.60191
1315.28096	0.60212
1313.35239	0.60193
1311.42383	0.60138
1309.49526	0.60067
1307.56670	0.59990
1305.63813	0.59927
1303.70957	0.59889
1301.78101	0.59843
1299.85244	0.59758
1297.92388	0.59646
1295.99531	0.59518
1294.06675	0.59378
1292.13818	0.59229
1290.20962	0.59082
1288.28105	0.58954
1286.35249	0.58835
1284.42393	0.58691
1282.49536	0.58524
1280.56680	0.58356
1278.63823	0.58184
1276.70967	0.58016
1274.78110	0.57880
1272.85254	0.57777
1270.92397	0.57704
1268.99541	0.57647
1267.06685	0.57573
1265.13828	0.57476
1263.20972	0.57364
1261.28115	0.57250
1259.35259	0.57162
1257.42402	0.57094
1255.49546	0.57038
1253.56689	0.57010
1251.63833	0.57014
1249.70977	0.57038
1247.78120	0.57056
1245.85264	0.57030
1243.92407	0.56955
1241.99551	0.56848
1240.06694	0.56696
1238.13838	0.56498
1236.20981	0.56271
1234.28125	0.56014
1232.35269	0.55732
1230.42412	0.55465
1228.49556	0.55229
1226.56699	0.55010
1224.63843	0.54800
1222.70986	0.54589
1220.78130	0.54380
1218.85273	0.54193
1216.92417	0.54031
1214.99561	0.53886
1213.06704	0.53766
1211.13848	0.53683
1209.20991	0.53638
1207.28135	0.53602
1205.35278	0.53527
1203.42422	0.53410
1201.49565	0.53289
1199.56709	0.53189
1197.63853	0.53107
1195.70996	0.53021
1193.78140	0.52926
1191.85283	0.52850
1189.92427	0.52802
1187.99570	0.52772
1186.06714	0.52744
1184.13857	0.52730
1182.21001	0.52764
1180.28145	0.52863
1178.35288	0.53017
1176.42432	0.53188
1174.49575	0.53336
1172.56719	0.53446
1170.63862	0.53504
1168.71006	0.53507
1166.78149	0.53498
1164.85293	0.53501
1162.92437	0.53501
1160.99580	0.53491
1159.06724	0.53476
1157.13867	0.53453
1155.21011	0.53398
1153.28154	0.53295
1151.35298	0.53135
1149.42441	0.52908
1147.49585	0.52622
1145.56729	0.52313
1143.63872	0.52036
1141.71016	0.51819
1139.78159	0.51651
1137.85303	0.51525
1135.92446	0.51454
1133.99590	0.51444
1132.06733	0.51477
1130.13877	0.51518
1128.21021	0.51541
1126.28164	0.51535
1124.35308	0.51507
1122.42451	0.51486
1120.49595	0.51498
1118.56738	0.51530
1116.63882	0.51575
1114.71025	0.51630
1112.78169	0.51698
1110.85312	0.51785
1108.92456	0.51876
1106.99600	0.51962
1105.06743	0.52045
1103.13887	0.52116
1101.21030	0.52186
1099.28174	0.52288
1097.35317	0.52450
1095.42461	0.52705
1093.49604	0.53079
1091.56748	0.53576
1089.63892	0.54197
1087.71035	0.54964
1085.78179	0.55849
1083.85322	0.56742
1081.92466	0.57502
1079.99609	0.58021
1078.06753	0.58253
1076.13896	0.58202
1074.21040	0.57879
1072.28184	0.57322
1070.35327	0.56608
1068.42471	0.55825
1066.49614	0.55077
1064.56758	0.54440
1062.63901	0.53896
1060.71045	0.53414
1058.78188	0.53011
1056.85332	0.52638
1054.92476	0.52265
1052.99619	0.51964
1051.06763	0.51760
1049.13906	0.51613
1047.21050	0.51523
1045.28193	0.51491
1043.35337	0.51478
1041.42480	0.51468
1039.49624	0.51475
1037.56768	0.51485
1035.63911	0.51473
1033.71055	0.51425
1031.78198	0.51306
1029.85342	0.51113
1027.92485	0.50895
1025.99629	0.50705
1024.06772	0.50548
1022.13916	0.50417
1020.21060	0.50331
1018.28203	0.50282
1016.35347	0.50239
1014.42490	0.50187
1012.49634	0.50129
1010.56777	0.50091
1008.63921	0.50091
1006.71064	0.50117
1004.78208	0.50172
1002.85352	0.50292
1000.92495	0.50514
998.99639	0.50850
997.06782	0.51264
995.13926	0.51710
993.21069	0.52148
991.28213	0.52504
989.35356	0.52710
987.42500	0.52759
985.49644	0.52723
983.56787	0.52693
981.63931	0.52693
979.71074	0.52735
977.78218	0.52841
975.85361	0.53014
973.92505	0.53258
971.99648	0.53569
970.06792	0.53911
968.13936	0.54258
966.21079	0.54641
964.28223	0.55075
962.35366	0.55530
960.42510	0.56006
958.49653	0.56542
956.56797	0.57133
954.63940	0.57734
952.71084	0.58320
950.78228	0.58905
948.85371	0.59523
946.92515	0.60177
944.99658	0.60835
943.06802	0.61472
941.13945	0.62091
939.21089	0.62719
937.28232	0.63348
935.35376	0.63941
933.42520	0.64499
931.49663	0.65063
929.56807	0.65638
927.63950	0.66223
925.71094	0.66841
923.78237	0.67482
921.85381	0.68142
919.92524	0.68792
917.99668	0.69425
916.06812	0.70139
914.13955	0.70994
912.21099	0.71850
910.28242	0.72549
908.35386	0.73195
906.42529	0.73942
904.49673	0.74809
902.56816	0.75821
900.63960	0.76976
898.71104	0.78153
896.78247	0.79208
894.85391	0.80126
892.92534	0.81034
890.99678	0.81999
889.06821	0.83046
887.13965	0.84207
885.21108	0.85370
883.28252	0.86402
881.35396	0.87382
879.42539	0.88471
877.49683	0.89635
875.56826	0.90804
873.63970	0.91986
871.71113	0.93124
869.78257	0.94314
867.85400	0.95608
865.92544	0.96779
863.99687	0.97880
862.06831	0.99099
860.13975	1.00198
858.21118	1.01184
856.28262	1.02544
854.35405	1.04303
852.42549	1.05872
850.49692	1.06936
848.56836	1.07825
846.63979	1.08796
844.71123	1.09852
842.78267	1.10984
840.85410	1.11979
838.92554	1.12793
836.99697	1.13837
835.06841	1.15129
833.13984	1.16371
831.21128	1.17514
829.28271	1.18435
827.35415	1.19310
825.42559	1.20558
823.49702	1.21950
821.56846	1.23379
819.63989	1.25210
817.71133	1.27207
815.78276	1.28979
813.85420	1.30125
811.92563	1.30493
809.99707	1.30609
808.06851	1.30824
806.13994	1.31643
804.21138	1.32865
802.28281	1.33964
800.35425	1.35762
798.42568	1.38900
796.49712	1.41958
794.56855	1.42469
792.63999	1.39190
790.71143	1.34997
788.78286	1.36103
786.85430	1.43837
784.92573	1.46435
782.99717	1.41810
781.06860	1.34023
779.14004	1.29447
777.21147	1.37142
775.28291	1.54790
773.35435	1.54291
771.42578	1.44535
769.49722	1.44100
767.56865	1.37947
765.64009	1.26436
763.71152	1.19861
761.78296	1.22117
759.85439	1.32572
757.92583	1.41018
755.99727	1.30825
754.06870	1.18864
752.14014	1.14890
750.21157	1.05309
748.28301	0.92470
746.35444	0.88804
744.42588	0.95534
742.49731	1.06704
740.56875	1.01039
738.64019	0.80939
736.71162	0.67481
734.78306	0.60116
732.85449	0.52241
730.92593	0.38340
728.99736	0.19254
727.06880	0.03311
725.14023	-0.09870
723.21167	-0.26367
721.28311	-0.46790
719.35454	-0.47850
717.42598	-0.26413
715.49741	0.03694
713.56885	0.38086
711.64028	0.59814
709.71172	0.49881
707.78315	0.36296
705.85459	0.27822
703.92603	0.25228
701.99746	0.28572
700.06890	0.39106
698.14033	0.52538
696.21177	0.56983
694.28320	0.51006
692.35464	0.46840
690.42607	0.50701
688.49751	0.51518
686.56895	0.44658
684.64038	0.43653
682.71182	0.49739
680.78325	0.51440
678.85469	0.38606
676.92612	0.27646
674.99756	0.29127
673.06899	0.37684
671.14043	0.45962
669.21187	0.44376
667.28330	0.34186
665.35474	0.25566
663.42617	0.24467
661.49761	0.31546
659.56904	0.42536
657.64048	0.48781
655.71191	0.45320
653.78335	0.38981
651.85479	0.34266
649.92622	0.32976
647.99766	0.33644
646.06909	0.30153
644.14053	0.26142
642.21196	0.29936
640.28340	0.41676
638.35483	0.56210
636.42627	0.58712
634.49771	0.47751
632.56914	0.41943
630.64058	0.41490
628.71201	0.41138
626.78345	0.42005
624.85488	0.44825
622.92632	0.40439
620.99775	0.33457
619.06919	0.32977
617.14062	0.36415
615.21206	0.35103
613.28350	0.31315
611.35493	0.30121
609.42637	0.28235
607.49780	0.26738
605.56924	0.29464
603.64067	0.33963
601.71211	0.38875
599.78354	0.41689
597.85498	0.41597
595.92642	0.44437
593.99785	0.42527
592.06929	0.36758
590.14072	0.38415
588.21216	0.43966
586.28359	0.46816
584.35503	0.48877
582.42646	0.47478
580.49790	0.37952
578.56934	0.32801
576.64077	0.36121
574.71221	0.40297
572.78364	0.33804
570.85508	0.26196
568.92651	0.24481
566.99795	0.26281
565.06938	0.29418
563.14082	0.35516
561.21226	0.40863
559.28369	0.39577
557.35513	0.37793
555.42656	0.38064
553.49800	0.36443
551.56943	0.34784
549.64087	0.33476
547.71230	0.27406
545.78374	0.21460
543.85518	0.20820
541.92661	0.23741
539.99805	0.30713
538.06948	0.43554
536.14092	0.56177
534.21235	0.58428
532.28379	0.51792
530.35522	0.43511
528.42666	0.38234
526.49810	0.33965
524.56953	0.32557
522.64097	0.34648
520.71240	0.34255
518.78384	0.32494
516.85527	0.30873
514.92671	0.25702
512.99814	0.22605
511.06958	0.29759
509.14102	0.40753
507.21245	0.39987
505.28389	0.37156
503.35532	0.37649
501.42676	0.34371
499.49819	0.31214
