3997.91411	0.07083
3995.98555	0.07090
3994.05698	0.07135
3992.12842	0.07196
3990.19985	0.07239
3988.27129	0.07273
3986.34272	0.07282
3984.41416	0.07270
3982.48560	0.07281
3980.55703	0.07322
3978.62847	0.07352
3976.69990	0.07351
3974.77134	0.07357
3972.84277	0.07365
3970.91421	0.07355
3968.98564	0.07374
3967.05708	0.07423
3965.12852	0.07453
3963.19995	0.07462
3961.27139	0.07472
3959.34282	0.07499
3957.41426	0.07509
3955.48569	0.07472
3953.55713	0.07434
3951.62856	0.07456
3949.70000	0.07521
3947.77144	0.07573
3945.84287	0.07584
3943.91431	0.07565
3941.98574	0.07533
3940.05718	0.07497
3938.12861	0.07469
3936.20005	0.07462
3934.27148	0.07503
3932.34292	0.07573
3930.41436	0.07604
3928.48579	0.07583
3926.55723	0.07539
3924.62866	0.07492
3922.70010	0.07466
3920.77153	0.07467
3918.84297	0.07472
3916.91440	0.07486
3914.98584	0.07501
3913.05728	0.07495
3911.12871	0.07481
3909.20015	0.07456
3907.27158	0.07420
3905.34302	0.07401
3903.41445	0.07436
3901.48589	0.07483
3899.55732	0.07460
3897.62876	0.07413
3895.70020	0.07394
3893.77163	0.07394
3891.84307	0.07422
3889.91450	0.07468
3887.98594	0.07465
3886.05737	0.07455
3884.12881	0.07463
3882.20024	0.07437
3880.27168	0.07449
3878.34312	0.07516
3876.41455	0.07519
3874.48599	0.07478
3872.55742	0.07456
3870.62886	0.07488
3868.70029	0.07592
3866.77173	0.07682
3864.84316	0.07754
3862.91460	0.07825
3860.98604	0.07795
3859.05747	0.07732
3857.12891	0.07738
3855.20034	0.07780
3853.27178	0.07847
3851.34321	0.07945
3849.41465	0.07968
3847.48608	0.07965
3845.55752	0.08016
3843.62896	0.08122
3841.70039	0.08220
3839.77183	0.08272
3837.84326	0.08319
3835.91470	0.08377
3833.98613	0.08419
3832.05757	0.08451
3830.12900	0.08505
3828.20044	0.08591
3826.27187	0.08689
3824.34331	0.08754
3822.41475	0.08803
3820.48618	0.08943
3818.55762	0.09092
3816.62905	0.09172
3814.70049	0.09282
3812.77192	0.09348
3810.84336	0.09348
3808.91479	0.09371
3806.98623	0.09465
3805.05767	0.09591
3803.12910	0.09675
3801.20054	0.09805
3799.27197	0.10009
3797.34341	0.10135
3795.41484	0.10227
3793.48628	0.10361
3791.55771	0.10516
3789.62915	0.10646
3787.70059	0.10735
3785.77202	0.10833
3783.84346	0.10982
3781.91489	0.11124
3779.98633	0.11240
3778.05776	0.11395
3776.12920	0.11546
3774.20063	0.11666
3772.27207	0.11794
3770.34351	0.11961
3768.41494	0.12180
3766.48638	0.12373
3764.55781	0.12554
3762.62925	0.12759
3760.70068	0.12974
3758.77212	0.13215
3756.84355	0.13472
3754.91499	0.13711
3752.98643	0.13941
3751.05786	0.14236
3749.12930	0.14599
3747.20073	0.14852
3745.27217	0.15070
3743.34360	0.15468
3741.41504	0.15898
3739.48647	0.16146
3737.55791	0.16350
3735.62935	0.16693
3733.70078	0.17217
3731.77222	0.17771
3729.84365	0.18241
3727.91509	0.18620
3725.98652	0.19076
3724.05796	0.19710
3722.12939	0.20425
3720.20083	0.21153
3718.27227	0.21879
3716.34370	0.22624
3714.41514	0.23335
3712.48657	0.24125
3710.55801	0.25353
3708.62944	0.26856
3706.70088	0.28099
3704.77231	0.29194
3702.84375	0.30422
3700.91519	0.32025
3698.98662	0.33839
3697.05806	0.35604
3695.12949	0.37454
3693.20093	0.39358
3691.27236	0.41373
3689.34380	0.44037
3687.41523	0.47487
3685.48667	0.50615
3683.55811	0.53264
3681.62954	0.56013
3679.70098	0.59081
3677.77241	0.62295
3675.84385	0.66092
3673.91528	0.71303
3671.98672	0.75581
3670.05815	0.79314
3668.12959	0.84588
3666.20103	0.89482
3664.27246	0.93455
3662.34390	0.97677
3660.41533	1.02289
3658.48677	1.06844
3656.55820	1.11688
3654.62964	1.17111
3652.70107	1.21639
3650.77251	1.25480
3648.84395	1.30795
3646.91538	1.37607
3644.98682	1.42833
3643.05825	1.46851
3641.12969	1.50816
3639.20112	1.55074
3637.27256	1.59358
3635.34399	1.63546
3633.41543	1.67730
3631.48687	1.71620
3629.55830	1.75541
3627.62974	1.80880
3625.70117	1.86118
3623.77261	1.89620
3621.84404	1.92844
3619.91548	1.96520
3617.98691	2.00919
3616.05835	2.05212
3614.12979	2.08895
3612.20122	2.12764
3610.27266	2.16651
3608.34409	2.20616
3606.41553	2.24942
3604.48696	2.28961
3602.55840	2.32481
3600.62983	2.36287
3598.70127	2.40416
3596.77271	2.44269
3594.84414	2.48079
3592.91558	2.52158
3590.98701	2.56096
3589.05845	2.59789
3587.12988	2.64137
3585.20132	2.68960
3583.27275	2.73204
3581.34419	2.77028
3579.41562	2.80884
3577.48706	2.84980
3575.55850	2.89297
3573.62993	2.93776
3571.70137	2.97985
3569.77280	3.01880
3567.84424	3.06189
3565.91567	3.11597
3563.98711	3.16795
3562.05854	3.20991
3560.12998	3.25050
3558.20142	3.29329
3556.27285	3.33845
3554.34429	3.38376
3552.41572	3.42896
3550.48716	3.47384
3548.55859	3.51753
3546.63003	3.56173
3544.70146	3.61076
3542.77290	3.66063
3540.84434	3.70590
3538.91577	3.75120
3536.98721	3.79922
3535.05864	3.85058
3533.13008	3.90293
3531.20151	3.95122
3529.27295	3.99344
3527.34438	4.03692
3525.41582	4.08692
3523.48726	4.13750
3521.55869	4.18460
3519.63013	4.22958
3517.70156	4.27811
3515.77300	4.33167
3513.84443	4.38419
3511.91587	4.43198
3509.98730	4.47939
3508.05874	4.52618
3506.13018	4.56708
3504.20161	4.60612
3502.27305	4.65089
3500.34448	4.70277
3498.41592	4.75728
3496.48735	4.80923
3494.55879	4.85393
3492.63022	4.89586
3490.70166	4.94382
3488.77310	4.99738
3486.84453	5.05184
3484.91597	5.10361
3482.98740	5.15291
3481.05884	5.20322
3479.13027	5.25322
3477.20171	5.29999
3475.27314	5.34587
3473.34458	5.39766
3471.41602	5.45191
3469.48745	5.49709
3467.55889	5.53726
3465.63032	5.58647
3463.70176	5.64908
3461.77319	5.70752
3459.84463	5.75026
3457.91606	5.78620
3455.98750	5.82715
3454.05894	5.87753
3452.13037	5.92685
3450.20181	5.97166
3448.27324	6.01540
3446.34468	6.06320
3444.41611	6.12425
3442.48755	6.18944
3440.55898	6.23523
3438.63042	6.26006
3436.70186	6.29319
3434.77329	6.35645
3432.84473	6.42616
3430.91616	6.47950
3428.98760	6.53965
3427.05903	6.61843
3425.13047	6.69977
3423.20190	6.74653
3421.27334	6.74559
3419.34478	6.74725
3417.41621	6.79485
3415.48765	6.86203
3413.55908	6.91805
3411.63052	6.98637
3409.70195	7.07490
3407.77339	7.14129
3405.84482	7.15677
3403.91626	7.16835
3401.98770	7.19622
3400.05913	7.23287
3398.13057	7.27937
3396.20200	7.30807
3394.27344	7.34312
3392.34487	7.43434
3390.41631	7.55483
3388.48774	7.60223
3386.55918	7.55065
3384.63062	7.48753
3382.70205	7.51000
3380.77349	7.59261
3378.84492	7.65225
3376.91636	7.71378
3374.98779	7.76585
3373.05923	7.76393
3371.13066	7.74362
3369.20210	7.73344
3367.27354	7.72059
3365.34497	7.75044
3363.41641	7.79783
3361.48784	7.79093
3359.55928	7.80795
3357.63071	7.85070
3355.70215	7.82288
3353.77358	7.75153
3351.84502	7.73061
3349.91646	7.77114
3347.98789	7.87049
3346.05933	7.98374
3344.13076	8.00982
3342.20220	7.94538
3340.27363	7.90040
3338.34507	7.99872
3336.41650	8.15482
3334.48794	8.17841
3332.55937	8.13118
3330.63081	8.14971
3328.70225	8.16530
3326.77368	8.08574
3324.84512	7.98316
3322.91655	7.96705
3320.98799	8.07653
3319.05942	8.19439
3317.13086	8.21808
3315.20229	8.16698
3313.27373	8.09145
3311.34517	8.06379
3309.41660	8.08733
3307.48804	8.12944
3305.55947	8.19512
3303.63091	8.24043
3301.70234	8.19332
3299.77378	8.08579
3297.84521	8.00781
3295.91665	8.03281
3293.98809	8.12738
3292.05952	8.19926
3290.13096	8.17586
3288.20239	8.12836
3286.27383	8.18949
3284.34526	8.26713
3282.41670	8.23628
3280.48813	8.16448
3278.55957	8.12256
3276.63101	8.10251
3274.70244	8.14128
3272.77388	8.24087
3270.84531	8.30460
3268.91675	8.29857
3266.98818	8.29284
3265.05962	8.36102
3263.13105	8.38475
3261.20249	8.25070
3259.27393	8.14217
3257.34536	8.20997
3255.41680	8.31907
3253.48823	8.31714
3251.55967	8.25728
3249.63110	8.15332
3247.70254	8.06548
3245.77397	8.03635
3243.84541	8.00276
3241.91685	7.97166
3239.98828	8.01922
3238.05972	8.10878
3236.13115	8.10662
3234.20259	8.05089
3232.27402	8.08247
3230.34546	8.16110
3228.41689	8.15356
3226.48833	8.09187
3224.55977	8.07781
3222.63120	8.07896
3220.70264	8.01651
3218.77407	7.97824
3216.84551	8.01240
3214.91694	8.03725
3212.98838	8.03162
3211.05981	7.98979
3209.13125	7.93623
3207.20269	7.89997
3205.27412	7.85753
3203.34556	7.82875
3201.41699	7.85336
3199.48843	7.89822
3197.55986	7.88347
3195.63130	7.79416
3193.70273	7.66660
3191.77417	7.56215
3189.84561	7.52531
3187.91704	7.50978
3185.98848	7.47721
3184.05991	7.44867
3182.13135	7.41893
3180.20278	7.36245
3178.27422	7.28491
3176.34565	7.21403
3174.41709	7.16443
3172.48853	7.13386
3170.55996	7.08736
3168.63140	7.02979
3166.70283	7.00210
3164.77427	6.94858
3162.84570	6.83464
3160.91714	6.74234
3158.98857	6.70309
3157.06001	6.66493
3155.13145	6.60042
3153.20288	6.52824
3151.27432	6.46233
3149.34575	6.40077
3147.41719	6.33639
3145.48862	6.25759
3143.56006	6.17730
3141.63149	6.11048
3139.70293	6.03741
3137.77437	5.96159
3135.84580	5.90071
3133.91724	5.84408
3131.98867	5.77338
3130.06011	5.68765
3128.13154	5.60471
3126.20298	5.53310
3124.27441	5.46636
3122.34585	5.39930
3120.41729	5.33101
3118.48872	5.25994
3116.56016	5.18883
3114.63159	5.11604
3112.70303	5.03772
3110.77446	4.96378
3108.84590	4.89959
3106.91733	4.83479
3104.98877	4.76121
3103.06021	4.68648
3101.13164	4.61671
3099.20308	4.54919
3097.27451	4.48517
3095.34595	4.42332
3093.41738	4.35977
3091.48882	4.29568
3089.56025	4.23201
3087.63169	4.16662
3085.70312	4.09688
3083.77456	4.02638
3081.84600	3.96273
3079.91743	3.90459
3077.98887	3.84489
3076.06030	3.78303
3074.13174	3.72190
3072.20317	3.66168
3070.27461	3.60183
3068.34604	3.54312
3066.41748	3.48566
3064.48892	3.42824
3062.56035	3.37056
3060.63179	3.31477
3058.70322	3.26180
3056.77466	3.20920
3054.84609	3.15468
3052.91753	3.09925
3050.98896	3.04535
3049.06040	2.99314
3047.13184	2.94205
3045.20327	2.89214
3043.27471	2.84354
3041.34614	2.79573
3039.41758	2.74757
3037.48901	2.69964
3035.56045	2.65311
3033.63188	2.60745
3031.70332	2.56202
3029.77476	2.51732
3027.84619	2.47360
3025.91763	2.43052
3023.98906	2.38811
3022.06050	2.34609
3020.13193	2.30368
3018.20337	2.26161
3016.27480	2.22075
3014.34624	2.18100
3012.41768	2.14259
3010.48911	2.10521
3008.56055	2.06810
3006.63198	2.03149
3004.70342	1.99565
3002.77485	1.95998
3000.84629	1.92458
2998.91772	1.89053
2996.98916	1.85737
2995.06060	1.82434
2993.13203	1.79177
2991.20347	1.75937
2989.27490	1.72728
2987.34634	1.69630
2985.41777	1.66634
2983.48921	1.63669
2981.56064	1.60705
2979.63208	1.57777
2977.70352	1.54922
2975.77495	1.52140
2973.84639	1.49420
2971.91782	1.46730
2969.98926	1.44063
2968.06069	1.41439
2966.13213	1.38839
2964.20356	1.36240
2962.27500	1.33667
2960.34644	1.31185
2958.41787	1.28811
2956.48931	1.26460
2954.56074	1.24113
2952.63218	1.21871
2950.70361	1.19725
2948.77505	1.17564
2946.84648	1.15388
2944.91792	1.13275
2942.98936	1.11223
2941.06079	1.09159
2939.13223	1.07063
2937.20366	1.05023
2935.27510	1.03085
2933.34653	1.01177
2931.41797	0.99216
2929.48940	0.97219
2927.56084	0.95297
2925.63228	0.93476
2923.70371	0.91732
2921.77515	0.90088
2919.84658	0.88518
2917.91802	0.86974
2915.98945	0.85456
2914.06089	0.83962
2912.13232	0.82524
2910.20376	0.81182
2908.27520	0.79892
2906.34663	0.78564
2904.41807	0.77177
2902.48950	0.75811
2900.56094	0.74514
2898.63237	0.73244
2896.70381	0.71991
2894.77524	0.70796
2892.84668	0.69630
2890.91812	0.68435
2888.98955	0.67260
2887.06099	0.66151
2885.13242	0.65069
2883.20386	0.63991
2881.27529	0.62929
2879.34673	0.61886
2877.41816	0.60867
2875.48960	0.59860
2873.56104	0.58868
2871.63247	0.57895
2869.70391	0.56897
2867.77534	0.55859
2865.84678	0.54807
2863.91821	0.53766
2861.98965	0.52760
2860.06108	0.51780
2858.13252	0.50814
2856.20396	0.49885
2854.27539	0.49007
2852.34683	0.48177
2850.41826	0.47391
2848.48970	0.46656
2846.56113	0.45968
2844.63257	0.45327
2842.70400	0.44745
2840.77544	0.44174
2838.84687	0.43570
2836.91831	0.42964
2834.98975	0.42380
2833.06118	0.41799
2831.13262	0.41196
2829.20405	0.40596
2827.27549	0.40007
2825.34692	0.39415
2823.41836	0.38835
2821.48979	0.38269
2819.56123	0.37718
2817.63267	0.37175
2815.70410	0.36627
2813.77554	0.36098
2811.84697	0.35597
2809.91841	0.35078
2807.98984	0.34540
2806.06128	0.34030
2804.13271	0.33555
2802.20415	0.33088
2800.27559	0.32616
2798.34702	0.32137
2796.41846	0.31660
2794.48989	0.31215
2792.56133	0.30807
2790.63276	0.30406
2788.70420	0.29985
2786.77563	0.29556
2784.84707	0.29146
2782.91851	0.28743
2780.98994	0.28345
2779.06138	0.27970
2777.13281	0.27614
2775.20425	0.27264
2773.27568	0.26923
2771.34712	0.26588
2769.41855	0.26243
2767.48999	0.25899
2765.56143	0.25585
2763.63286	0.25286
2761.70430	0.24981
2759.77573	0.24677
2757.84717	0.24366
2755.91860	0.24049
2753.99004	0.23753
2752.06147	0.23467
2750.13291	0.23194
2748.20435	0.22953
2746.27578	0.22709
2744.34722	0.22436
2742.41865	0.22165
2740.49009	0.21925
2738.56152	0.21700
2736.63296	0.21469
2734.70439	0.21233
2732.77583	0.20991
2730.84727	0.20756
2728.91870	0.20550
2726.99014	0.20367
2725.06157	0.20187
2723.13301	0.19993
2721.20444	0.19790
2719.27588	0.19601
2717.34731	0.19430
2715.41875	0.19257
2713.49019	0.19084
2711.56162	0.18922
2709.63306	0.18761
2707.70449	0.18582
2705.77593	0.18398
2703.84736	0.18243
2701.91880	0.18114
2699.99023	0.17979
2698.06167	0.17830
2696.13311	0.17683
2694.20454	0.17553
2692.27598	0.17428
2690.34741	0.17292
2688.41885	0.17165
2686.49028	0.17056
2684.56172	0.16948
2682.63315	0.16845
2680.70459	0.16746
2678.77603	0.16634
2676.84746	0.16512
2674.91890	0.16399
2672.99033	0.16300
2671.06177	0.16210
2669.13320	0.16126
2667.20464	0.16044
2665.27607	0.15951
2663.34751	0.15853
2661.41895	0.15765
2659.49038	0.15678
2657.56182	0.15594
2655.63325	0.15533
2653.70469	0.15480
2651.77612	0.15421
2649.84756	0.15365
2647.91899	0.15311
2645.99043	0.15260
2644.06187	0.15215
2642.13330	0.15168
2640.20474	0.15114
2638.27617	0.15059
2636.34761	0.15009
2634.41904	0.14971
2632.49048	0.14938
2630.56191	0.14893
2628.63335	0.14845
2626.70479	0.14808
2624.77622	0.14773
2622.84766	0.14742
2620.91909	0.14726
2618.99053	0.14715
2617.06196	0.14699
2615.13340	0.14694
2613.20483	0.14708
2611.27627	0.14719
2609.34771	0.14709
2607.41914	0.14685
2605.49058	0.14675
2603.56201	0.14689
2601.63345	0.14706
2599.70488	0.14710
2597.77632	0.14710
2595.84775	0.14715
2593.91919	0.14730
2591.99062	0.14752
2590.06206	0.14773
2588.13350	0.14778
2586.20493	0.14785
2584.27637	0.14817
2582.34780	0.14859
2580.41924	0.14894
2578.49067	0.14933
2576.56211	0.14975
2574.63354	0.15007
2572.70498	0.15030
2570.77642	0.15060
2568.84785	0.15096
2566.91929	0.15133
2564.99072	0.15184
2563.06216	0.15242
2561.13359	0.15280
2559.20503	0.15307
2557.27646	0.15356
2555.34790	0.15429
2553.41934	0.15506
2551.49077	0.15578
2549.56221	0.15638
2547.63364	0.15683
2545.70508	0.15724
2543.77651	0.15777
2541.84795	0.15844
2539.91938	0.15919
2537.99082	0.15996
2536.06226	0.16073
2534.13369	0.16147
2532.20513	0.16221
2530.27656	0.16301
2528.34800	0.16380
2526.41943	0.16452
2524.49087	0.16532
2522.56230	0.16617
2520.63374	0.16697
2518.70518	0.16772
2516.77661	0.16845
2514.84805	0.16914
2512.91948	0.16981
2510.99092	0.17058
2509.06235	0.17141
2507.13379	0.17221
2505.20522	0.17304
2503.27666	0.17391
2501.34810	0.17492
2499.41953	0.17605
2497.49097	0.17700
2495.56240	0.17771
2493.63384	0.17847
2491.70527	0.17937
2489.77671	0.18021
2487.84814	0.18101
2485.91958	0.18193
2483.99102	0.18296
2482.06245	0.18391
2480.13389	0.18478
2478.20532	0.18574
2476.27676	0.18674
2474.34819	0.18766
2472.41963	0.18857
2470.49106	0.18948
2468.56250	0.19035
2466.63394	0.19129
2464.70537	0.19231
2462.77681	0.19326
2460.84824	0.19418
2458.91968	0.19516
2456.99111	0.19620
2455.06255	0.19723
2453.13398	0.19822
2451.20542	0.19919
2449.27686	0.20023
2447.34829	0.20137
2445.41973	0.20252
2443.49116	0.20361
2441.56260	0.20456
2439.63403	0.20541
2437.70547	0.20648
2435.77690	0.20770
2433.84834	0.20877
2431.91978	0.20973
2429.99121	0.21069
2428.06265	0.21162
2426.13408	0.21252
2424.20552	0.21353
2422.27695	0.21474
2420.34839	0.21601
2418.41982	0.21720
2416.49126	0.21828
2414.56270	0.21941
2412.63413	0.22067
2410.70557	0.22196
2408.77700	0.22319
2406.84844	0.22439
2404.91987	0.22561
2402.99131	0.22675
2401.06274	0.22791
2399.13418	0.22917
2397.20562	0.23044
2395.27705	0.23166
2393.34849	0.23292
2391.41992	0.23421
2389.49136	0.23547
2387.56279	0.23665
2385.63423	0.23771
2383.70566	0.23877
2381.77710	0.23986
2379.84854	0.24097
2377.91997	0.24216
2375.99141	0.24317
2374.06284	0.24380
2372.13428	0.24422
2370.20571	0.24457
2368.27715	0.24471
2366.34858	0.24516
2364.42002	0.24709
2362.49146	0.24920
2360.56289	0.24949
2358.63433	0.25034
2356.70576	0.25360
2354.77720	0.25683
2352.84863	0.25932
2350.92007	0.26165
2348.99150	0.26337
2347.06294	0.26442
2345.13437	0.26541
2343.20581	0.26690
2341.27725	0.26874
2339.34868	0.27037
2337.42012	0.27157
2335.49155	0.27249
2333.56299	0.27361
2331.63442	0.27562
2329.70586	0.27818
2327.77729	0.28036
2325.84873	0.28192
2323.92017	0.28346
2321.99160	0.28542
2320.06304	0.28757
2318.13447	0.28960
2316.20591	0.29151
2314.27734	0.29356
2312.34878	0.29573
2310.42021	0.29782
2308.49165	0.29974
2306.56309	0.30154
2304.63452	0.30328
2302.70596	0.30491
2300.77739	0.30664
2298.84883	0.30865
2296.92026	0.31081
2294.99170	0.31278
2293.06313	0.31454
2291.13457	0.31641
2289.20601	0.31844
2287.27744	0.32035
2285.34888	0.32220
2283.42031	0.32427
2281.49175	0.32640
2279.56318	0.32847
2277.63462	0.33054
2275.70605	0.33258
2273.77749	0.33463
2271.84893	0.33678
2269.92036	0.33891
2267.99180	0.34101
2266.06323	0.34307
2264.13467	0.34509
2262.20610	0.34725
2260.27754	0.34952
2258.34897	0.35173
2256.42041	0.35389
2254.49185	0.35608
2252.56328	0.35820
2250.63472	0.36021
2248.70615	0.36224
2246.77759	0.36445
2244.84902	0.36676
2242.92046	0.36906
2240.99189	0.37137
2239.06333	0.37369
2237.13477	0.37599
2235.20620	0.37811
2233.27764	0.38007
2231.34907	0.38210
2229.42051	0.38432
2227.49194	0.38667
2225.56338	0.38906
2223.63481	0.39135
2221.70625	0.39354
2219.77769	0.39567
2217.84912	0.39777
2215.92056	0.39988
2213.99199	0.40205
2212.06343	0.40426
2210.13486	0.40638
2208.20630	0.40850
2206.27773	0.41069
2204.34917	0.41274
2202.42061	0.41478
2200.49204	0.41700
2198.56348	0.41915
2196.63491	0.42111
2194.70635	0.42305
2192.77778	0.42494
2190.84922	0.42667
2188.92065	0.42838
2186.99209	0.43016
2185.06353	0.43195
2183.13496	0.43380
2181.20640	0.43570
2179.27783	0.43751
2177.34927	0.43912
2175.42070	0.44050
2173.49214	0.44176
2171.56357	0.44314
2169.63501	0.44471
2167.70645	0.44618
2165.77788	0.44743
2163.84932	0.44854
2161.92075	0.44957
2159.99219	0.45062
2158.06362	0.45176
2156.13506	0.45280
2154.20649	0.45356
2152.27793	0.45414
2150.34937	0.45475
2148.42080	0.45544
2146.49224	0.45608
2144.56367	0.45660
2142.63511	0.45709
2140.70654	0.45752
2138.77798	0.45779
2136.84941	0.45785
2134.92085	0.45781
2132.99229	0.45774
2131.06372	0.45769
2129.13516	0.45754
2127.20659	0.45721
2125.27803	0.45685
2123.34946	0.45646
2121.42090	0.45594
2119.49233	0.45531
2117.56377	0.45457
2115.63521	0.45374
2113.70664	0.45292
2111.77808	0.45201
2109.84951	0.45102
2107.92095	0.45006
2105.99238	0.44904
2104.06382	0.44787
2102.13525	0.44659
2100.20669	0.44524
2098.27812	0.44382
2096.34956	0.44234
2094.42100	0.44080
2092.49243	0.43922
2090.56387	0.43751
2088.63530	0.43556
2086.70674	0.43360
2084.77817	0.43171
2082.84961	0.42986
2080.92104	0.42801
2078.99248	0.42604
2077.06392	0.42386
2075.13535	0.42159
2073.20679	0.41929
2071.27822	0.41696
2069.34966	0.41466
2067.42109	0.41243
2065.49253	0.41031
2063.56396	0.40810
2061.63540	0.40565
2059.70684	0.40300
2057.77827	0.40031
2055.84971	0.39766
2053.92114	0.39505
2051.99258	0.39246
2050.06401	0.38993
2048.13545	0.38744
2046.20688	0.38486
2044.27832	0.38215
2042.34976	0.37941
2040.42119	0.37664
2038.49263	0.37384
2036.56406	0.37107
2034.63550	0.36843
2032.70693	0.36579
2030.77837	0.36299
2028.84980	0.36004
2026.92124	0.35715
2024.99268	0.35442
2023.06411	0.35178
2021.13555	0.34905
2019.20698	0.34624
2017.27842	0.34355
2015.34985	0.34085
2013.42129	0.33801
2011.49272	0.33520
2009.56416	0.33257
2007.63560	0.32992
2005.70703	0.32715
2003.77847	0.32437
2001.84990	0.32165
1999.92134	0.31905
1997.99277	0.31656
1996.06421	0.31409
1994.13564	0.31157
1992.20708	0.30906
1990.27852	0.30655
1988.34995	0.30410
1986.42139	0.30167
1984.49282	0.29919
1982.56426	0.29676
1980.63569	0.29447
1978.70713	0.29220
1976.77856	0.28988
1974.85000	0.28768
1972.92144	0.28559
1970.99287	0.28346
1969.06431	0.28140
1967.13574	0.27946
1965.20718	0.27743
1963.27861	0.27538
1961.35005	0.27337
1959.42148	0.27145
1957.49292	0.26967
1955.56436	0.26792
1953.63579	0.26613
1951.70723	0.26445
1949.77866	0.26293
1947.85010	0.26141
1945.92153	0.25989
1943.99297	0.25845
1942.06440	0.25701
1940.13584	0.25553
1938.20728	0.25408
1936.27871	0.25263
1934.35015	0.25113
1932.42158	0.24983
1930.49302	0.24881
1928.56445	0.24779
1926.63589	0.24671
1924.70732	0.24579
1922.77876	0.24484
1920.85020	0.24379
1918.92163	0.24286
1916.99307	0.24206
1915.06450	0.24129
1913.13594	0.24043
1911.20737	0.23958
1909.27881	0.23887
1907.35024	0.23836
1905.42168	0.23783
1903.49312	0.23720
1901.56455	0.23656
1899.63599	0.23602
1897.70742	0.23564
1895.77886	0.23529
1893.85029	0.23495
1891.92173	0.23465
1889.99316	0.23445
1888.06460	0.23415
1886.13604	0.23381
1884.20747	0.23357
1882.27891	0.23342
1880.35034	0.23340
1878.42178	0.23344
1876.49321	0.23347
1874.56465	0.23344
1872.63608	0.23339
1870.70752	0.23339
1868.77896	0.23372
1866.85039	0.23413
1864.92183	0.23422
1862.99326	0.23427
1861.06470	0.23445
1859.13613	0.23483
1857.20757	0.23525
1855.27900	0.23574
1853.35044	0.23625
1851.42187	0.23681
1849.49331	0.23745
1847.56475	0.23817
1845.63618	0.23897
1843.70762	0.23986
1841.77905	0.24065
1839.85049	0.24121
1837.92192	0.24200
1835.99336	0.24287
1834.06479	0.24374
1832.13623	0.24465
1830.20767	0.24602
1828.27910	0.24756
1826.35054	0.24866
1824.42197	0.24994
1822.49341	0.25134
1820.56484	0.25263
1818.63628	0.25398
1816.70771	0.25562
1814.77915	0.25720
1812.85059	0.25878
1810.92202	0.26070
1808.99346	0.26281
1807.06489	0.26483
1805.13633	0.26680
1803.20776	0.26901
1801.27920	0.27142
1799.35063	0.27417
1797.42207	0.27683
1795.49351	0.27931
1793.56494	0.28193
1791.63638	0.28540
1789.70781	0.28908
1787.77925	0.29195
1785.85068	0.29514
1783.92212	0.29880
1781.99355	0.30271
1780.06499	0.30693
1778.13643	0.31125
1776.20786	0.31508
1774.27930	0.31913
1772.35073	0.32493
1770.42217	0.33144
1768.49360	0.33689
1766.56504	0.34216
1764.63647	0.34756
1762.70791	0.35338
1760.77935	0.36091
1758.85078	0.36816
1756.92222	0.37533
1754.99365	0.38305
1753.06509	0.38989
1751.13652	0.39800
1749.20796	0.40860
1747.27939	0.41934
1745.35083	0.42871
1743.42227	0.43848
1741.49370	0.44902
1739.56514	0.46135
1737.63657	0.47389
1735.70801	0.48481
1733.77944	0.50117
1731.85088	0.52123
1729.92231	0.53711
1727.99375	0.55293
1726.06519	0.56990
1724.13662	0.58848
1722.20806	0.60847
1720.27949	0.62654
1718.35093	0.64736
1716.42236	0.67905
1714.49380	0.71006
1712.56523	0.73520
1710.63667	0.75939
1708.70811	0.78509
1706.77954	0.81394
1704.85098	0.84850
1702.92241	0.87939
1700.99385	0.90960
1699.06528	0.95478
1697.13672	0.99690
1695.20815	1.04020
1693.27959	1.08179
1691.35103	1.11470
1689.42246	1.15236
1687.49390	1.19213
1685.56533	1.23012
1683.63677	1.28832
1681.70820	1.34954
1679.77964	1.38931
1677.85107	1.42671
1675.92251	1.46936
1673.99395	1.52254
1672.06538	1.56929
1670.13682	1.61379
1668.20825	1.67156
1666.27969	1.71782
1664.35112	1.75601
1662.42256	1.80375
1660.49399	1.85756
1658.56543	1.89982
1656.63687	1.93424
1654.70830	1.96519
1652.77974	2.01462
1650.85117	2.06517
1648.92261	2.08595
1646.99404	2.11265
1645.06548	2.14356
1643.13691	2.16351
1641.20835	2.17555
1639.27979	2.18773
1637.35122	2.19725
1635.42266	2.19930
1633.49409	2.19390
1631.56553	2.18380
1629.63696	2.17008
1627.70840	2.14548
1625.77983	2.11651
1623.85127	2.08041
1621.92271	2.03440
1619.99414	1.99235
1618.06558	1.95184
1616.13701	1.89453
1614.20845	1.83529
1612.27988	1.78916
1610.35132	1.74057
1608.42275	1.68819
1606.49419	1.63655
1604.56562	1.58850
1602.63706	1.54212
1600.70850	1.49707
1598.77993	1.45546
1596.85137	1.41588
1594.92280	1.37709
1592.99424	1.33940
1591.06567	1.30477
1589.13711	1.27188
1587.20854	1.24038
1585.27998	1.21059
1583.35142	1.18244
1581.42285	1.15654
1579.49429	1.13415
1577.56572	1.11341
1575.63716	1.08754
1573.70859	1.06471
1571.78003	1.04950
1569.85146	1.03289
1567.92290	1.01401
1565.99434	0.99900
1564.06577	0.98638
1562.13721	0.97606
1560.20864	0.96735
1558.28008	0.95232
1556.35151	0.93907
1554.42295	0.93157
1552.49438	0.92404
1550.56582	0.91576
1548.63726	0.90647
1546.70869	0.89768
1544.78013	0.88900
1542.85156	0.87932
1540.92300	0.86724
1538.99443	0.85079
1537.06587	0.83949
1535.13730	0.83200
1533.20874	0.82204
1531.28018	0.81107
1529.35161	0.80296
1527.42305	0.79530
1525.49448	0.78707
1523.56592	0.77965
1521.63735	0.77241
1519.70879	0.76474
1517.78022	0.75796
1515.85166	0.75087
1513.92310	0.74416
1511.99453	0.73853
1510.06597	0.73326
1508.13740	0.72801
1506.20884	0.72048
1504.28027	0.71396
1502.35171	0.70991
1500.42314	0.70625
1498.49458	0.70240
1496.56602	0.69802
1494.63745	0.69386
1492.70889	0.69051
1490.78032	0.68746
1488.85176	0.68407
1486.92319	0.68082
1484.99463	0.67818
1483.06606	0.67605
1481.13750	0.67412
1479.20894	0.67230
1477.28037	0.67073
1475.35181	0.66924
1473.42324	0.66758
1471.49468	0.66534
1469.56611	0.66293
1467.63755	0.66066
1465.70898	0.65847
1463.78042	0.65651
1461.85186	0.65483
1459.92329	0.65323
1457.99473	0.65138
1456.06616	0.64882
1454.13760	0.64608
1452.20903	0.64379
1450.28047	0.64159
1448.35190	0.63916
1446.42334	0.63645
1444.49478	0.63407
1442.56621	0.63216
1440.63765	0.63040
1438.70908	0.62862
1436.78052	0.62643
1434.85195	0.62379
1432.92339	0.62151
1430.99482	0.61981
1429.06626	0.61841
1427.13770	0.61716
1425.20913	0.61608
1423.28057	0.61513
1421.35200	0.61428
1419.42344	0.61335
1417.49487	0.61201
1415.56631	0.61039
1413.63774	0.60890
1411.70918	0.60768
1409.78062	0.60677
1407.85205	0.60599
1405.92349	0.60513
1403.99492	0.60408
1402.06636	0.60288
1400.13779	0.60161
1398.20923	0.60018
1396.28066	0.59857
1394.35210	0.59663
1392.42354	0.59458
1390.49497	0.59274
1388.56641	0.59092
1386.63784	0.58894
1384.70928	0.58696
1382.78071	0.58502
1380.85215	0.58311
1378.92358	0.58148
1376.99502	0.58027
1375.06646	0.57934
1373.13789	0.57837
1371.20933	0.57730
1369.28076	0.57638
1367.35220	0.57563
1365.42363	0.57484
1363.49507	0.57385
1361.56650	0.57264
1359.63794	0.57151
1357.70937	0.57057
1355.78081	0.56961
1353.85225	0.56856
1351.92368	0.56747
1349.99512	0.56641
1348.06655	0.56542
1346.13799	0.56442
1344.20942	0.56346
1342.28086	0.56259
1340.35229	0.56171
1338.42373	0.56072
1336.49517	0.55965
1334.56660	0.55875
1332.63804	0.55818
1330.70947	0.55770
1328.78091	0.55709
1326.85234	0.55653
1324.92378	0.55605
1322.99521	0.55554
1321.06665	0.55499
1319.13809	0.55450
1317.20952	0.55399
1315.28096	0.55336
1313.35239	0.55270
1311.42383	0.55204
1309.49526	0.55129
1307.56670	0.55036
1305.63813	0.54940
1303.70957	0.54862
1301.78101	0.54788
1299.85244	0.54699
1297.92388	0.54615
1295.99531	0.54545
1294.06675	0.54475
1292.13818	0.54400
1290.20962	0.54331
1288.28105	0.54263
1286.35249	0.54182
1284.42393	0.54101
1282.49536	0.54030
1280.56680	0.53956
1278.63823	0.53871
1276.70967	0.53788
1274.78110	0.53720
1272.85254	0.53672
1270.92397	0.53625
1268.99541	0.53578
1267.06685	0.53538
1265.13828	0.53490
1263.20972	0.53436
1261.28115	0.53391
1259.35259	0.53346
1257.42402	0.53310
1255.49546	0.53293
1253.56689	0.53267
1251.63833	0.53219
1249.70977	0.53175
1247.78120	0.53153
1245.85264	0.53131
1243.92407	0.53082
1241.99551	0.53016
1240.06694	0.52949
1238.13838	0.52871
1236.20981	0.52777
1234.28125	0.52683
1232.35269	0.52595
1230.42412	0.52506
1228.49556	0.52413
1226.56699	0.52311
1224.63843	0.52199
1222.70986	0.52092
1220.78130	0.51996
1218.85273	0.51904
1216.92417	0.51819
1214.99561	0.51742
1213.06704	0.51685
1211.13848	0.51642
1209.20991	0.51589
1207.28135	0.51527
1205.35278	0.51468
1203.42422	0.51410
1201.49565	0.51337
1199.56709	0.51246
1197.63853	0.51172
1195.70996	0.51131
1193.78140	0.51101
1191.85283	0.51055
1189.92427	0.50997
1187.99570	0.50947
1186.06714	0.50925
1184.13857	0.50926
1182.21001	0.50942
1180.28145	0.50976
1178.35288	0.51032
1176.42432	0.51120
1174.49575	0.51221
1172.56719	0.51302
1170.63862	0.51354
1168.71006	0.51407
1166.78149	0.51476
1164.85293	0.51544
1162.92437	0.51601
1160.99580	0.51645
1159.06724	0.51665
1157.13867	0.51654
1155.21011	0.51610
1153.28154	0.51520
1151.35298	0.51366
1149.42441	0.51154
1147.49585	0.50918
1145.56729	0.50681
1143.63872	0.50441
1141.71016	0.50201
1139.78159	0.49977
1137.85303	0.49786
1135.92446	0.49640
1133.99590	0.49520
1132.06733	0.49412
1130.13877	0.49322
1128.21021	0.49229
1126.28164	0.49125
1124.35308	0.49040
1122.42451	0.48983
1120.49595	0.48945
1118.56738	0.48927
1116.63882	0.48928
1114.71025	0.48955
1112.78169	0.49010
1110.85312	0.49073
1108.92456	0.49134
1106.99600	0.49208
1105.06743	0.49308
1103.13887	0.49429
1101.21030	0.49554
1099.28174	0.49701
1097.35317	0.49916
1095.42461	0.50214
1093.49604	0.50586
1091.56748	0.51039
1089.63892	0.51603
1087.71035	0.52291
1085.78179	0.53072
1083.85322	0.53884
1081.92466	0.54624
1079.99609	0.55201
1078.06753	0.55548
1076.13896	0.55601
1074.21040	0.55366
1072.28184	0.54910
1070.35327	0.54311
1068.42471	0.53644
1066.49614	0.52960
1064.56758	0.52324
1062.63901	0.51770
1060.71045	0.51264
1058.78188	0.50793
1056.85332	0.50372
1054.92476	0.50011
1052.99619	0.49731
1051.06763	0.49538
1049.13906	0.49400
1047.21050	0.49287
1045.28193	0.49209
1043.35337	0.49184
1041.42480	0.49187
1039.49624	0.49180
1037.56768	0.49177
1035.63911	0.49191
1033.71055	0.49178
1031.78198	0.49112
1029.85342	0.49019
1027.92485	0.48932
1025.99629	0.48861
1024.06772	0.48787
1022.13916	0.48722
1020.21060	0.48707
1018.28203	0.48732
1016.35347	0.48746
1014.42490	0.48738
1012.49634	0.48755
1010.56777	0.48819
1008.63921	0.48903
1006.71064	0.48999
1004.78208	0.49130
1002.85352	0.49325
1000.92495	0.49588
998.99639	0.49886
997.06782	0.50210
995.13926	0.50592
993.21069	0.51019
991.28213	0.51385
989.35356	0.51607
987.42500	0.51696
985.49644	0.51708
983.56787	0.51713
981.63931	0.51759
979.71074	0.51861
977.78218	0.52025
975.85361	0.52248
973.92505	0.52511
971.99648	0.52799
970.06792	0.53113
968.13936	0.53469
966.21079	0.53883
964.28223	0.54365
962.35366	0.54875
960.42510	0.55384
958.49653	0.55915
956.56797	0.56468
954.63940	0.57048
952.71084	0.57675
950.78228	0.58310
948.85371	0.58902
946.92515	0.59492
944.99658	0.60123
943.06802	0.60744
941.13945	0.61341
939.21089	0.61952
937.28232	0.62556
935.35376	0.63121
933.42520	0.63677
931.49663	0.64269
929.56807	0.64860
927.63950	0.65435
925.71094	0.66048
923.78237	0.66688
921.85381	0.67347
919.92524	0.68036
917.99668	0.68727
916.06812	0.69422
914.13955	0.70177
912.21099	0.71000
910.28242	0.71828
908.35386	0.72692
906.42529	0.73619
904.49673	0.74510
902.56816	0.75322
900.63960	0.76170
898.71104	0.77182
896.78247	0.78307
894.85391	0.79362
892.92534	0.80240
890.99678	0.81102
889.06821	0.82139
887.13965	0.83199
885.21108	0.84235
883.28252	0.85485
881.35396	0.86842
879.42539	0.88057
877.49683	0.89182
875.56826	0.90302
873.63970	0.91476
871.71113	0.92658
869.78257	0.93695
867.85400	0.94686
865.92544	0.95806
863.99687	0.97040
862.06831	0.98282
860.13975	0.99377
858.21118	1.00419
856.28262	1.01592
854.35405	1.02745
852.42549	1.03832
850.49692	1.05070
848.56836	1.06350
846.63979	1.07409
844.71123	1.08357
842.78267	1.09441
840.85410	1.10719
838.92554	1.11998
836.99697	1.13062
835.06841	1.13843
833.13984	1.14494
831.21128	1.15246
829.28271	1.16235
827.35415	1.17723
825.42559	1.19678
823.49702	1.21531
821.56846	1.22717
819.63989	1.23027
817.71133	1.22933
815.78276	1.23313
813.85420	1.24384
811.92563	1.25882
809.99707	1.27936
808.06851	1.30389
806.13994	1.32064
804.21138	1.31621
802.28281	1.30099
800.35425	1.29959
798.42568	1.31892
796.49712	1.34451
794.56855	1.35130
792.63999	1.32077
790.71143	1.28426
788.78286	1.29938
786.85430	1.36572
784.92573	1.41007
782.99717	1.36301
781.06860	1.28167
779.14004	1.24199
777.21147	1.24765
775.28291	1.28373
773.35435	1.31300
771.42578	1.30195
769.49722	1.31982
767.56865	1.38488
765.64009	1.37375
763.71152	1.32000
761.78296	1.28432
759.85439	1.22658
757.92583	1.21235
755.99727	1.28763
754.06870	1.40614
752.14014	1.50009
750.21157	1.47199
748.28301	1.26955
746.35444	1.08880
744.42588	1.02560
742.49731	1.04020
740.56875	1.06515
738.64019	1.08024
736.71162	0.93913
734.78306	0.74589
732.85449	0.73102
730.92593	0.92926
728.99736	0.98173
727.06880	0.73485
725.14023	0.54581
723.21167	0.39487
721.28311	0.34675
719.35454	0.42737
717.42598	0.38738
715.49741	0.25333
713.56885	0.17340
711.64028	0.06700
709.71172	-0.04119
707.78315	0.05171
705.85459	0.14639
703.92603	0.27824
701.99746	0.35079
700.06890	0.32087
698.14033	0.28004
696.21177	0.21926
694.28320	0.16817
692.35464	0.16126
690.42607	0.22722
688.49751	0.26111
686.56895	0.05335
684.64038	-0.03545
682.71182	0.11679
680.78325	0.35909
678.85469	0.62203
676.92612	0.45843
674.99756	0.23929
673.06899	0.14800
671.14043	0.09469
669.21187	0.13290
667.28330	0.21477
665.35474	0.21537
663.42617	0.19026
661.49761	0.20795
659.56904	0.22599
657.64048	0.20498
655.71191	0.19852
653.78335	0.21118
651.85479	0.21174
649.92622	0.19451
647.99766	0.17673
646.06909	0.19001
644.14053	0.22042
642.21196	0.22846
640.28340	0.20699
638.35483	0.17196
636.42627	0.10083
634.49771	0.04308
632.56914	0.04817
630.64058	0.09274
628.71201	0.16322
626.78345	0.22680
624.85488	0.24197
622.92632	0.23020
620.99775	0.23895
619.06919	0.27492
617.14062	0.27125
615.21206	0.24315
613.28350	0.22067
611.35493	0.22347
609.42637	0.23473
607.49780	0.20830
605.56924	0.14988
603.64067	0.07980
601.71211	0.08141
599.78354	0.13325
597.85498	0.06936
595.92642	-0.05646
593.99785	-0.11850
592.06929	-0.00458
590.14072	0.08957
588.21216	0.09404
586.28359	0.13858
584.35503	0.30251
582.42646	0.48192
580.49790	0.49276
578.56934	0.33137
576.64077	0.27706
574.71221	0.38057
572.78364	0.35118
570.85508	0.23832
568.92651	0.21974
566.99795	0.19842
565.06938	0.08679
563.14082	0.06264
561.21226	0.16676
559.28369	0.25445
557.35513	0.26749
555.42656	0.32110
553.49800	0.39834
551.56943	0.30487
549.64087	0.17958
547.71230	0.19303
545.78374	0.36060
543.85518	0.40553
541.92661	0.23638
539.99805	0.12307
538.06948	0.06603
536.14092	0.07422
534.21235	0.14779
532.28379	0.21240
530.35522	0.23174
528.42666	0.28364
526.49810	0.40478
524.56953	0.48892
522.64097	0.45403
520.71240	0.34683
518.78384	0.23211
516.85527	0.15957
514.92671	0.14201
512.99814	0.17965
511.06958	0.21199
509.14102	0.16245
507.21245	0.14238
505.28389	0.17968
503.35532	0.20593
501.42676	0.23094
499.49819	0.27012
