3997.91411	0.06972
3995.98555	0.07029
3994.05698	0.07078
3992.12842	0.07103
3990.19985	0.07108
3988.27129	0.07112
3986.34272	0.07144
3984.41416	0.07201
3982.48560	0.07239
3980.55703	0.07256
3978.62847	0.07289
3976.69990	0.07334
3974.77134	0.07364
3972.84277	0.07365
3970.91421	0.07347
3968.98564	0.07326
3967.05708	0.07306
3965.12852	0.07305
3963.19995	0.07361
3961.27139	0.07440
3959.34282	0.07456
3957.41426	0.07431
3955.48569	0.07439
3953.55713	0.07447
3951.62856	0.07416
3949.70000	0.07388
3947.77144	0.07381
3945.84287	0.07357
3943.91431	0.07327
3941.98574	0.07328
3940.05718	0.07349
3938.12861	0.07374
3936.20005	0.07404
3934.27148	0.07416
3932.34292	0.07388
3930.41436	0.07345
3928.48579	0.07342
3926.55723	0.07376
3924.62866	0.07397
3922.70010	0.07370
3920.77153	0.07343
3918.84297	0.07357
3916.91440	0.07386
3914.98584	0.07381
3913.05728	0.07337
3911.12871	0.07306
3909.20015	0.07301
3907.27158	0.07293
3905.34302	0.07289
3903.41445	0.07339
3901.48589	0.07383
3899.55732	0.07347
3897.62876	0.07336
3895.70020	0.07368
3893.77163	0.07370
3891.84307	0.07351
3889.91450	0.07340
3887.98594	0.07334
3886.05737	0.07342
3884.12881	0.07347
3882.20024	0.07345
3880.27168	0.07366
3878.34312	0.07388
3876.41455	0.07391
3874.48599	0.07403
3872.55742	0.07440
3870.62886	0.07514
3868.70029	0.07577
3866.77173	0.07568
3864.84316	0.07594
3862.91460	0.07693
3860.98604	0.07755
3859.05747	0.07737
3857.12891	0.07711
3855.20034	0.07714
3853.27178	0.07751
3851.34321	0.07825
3849.41465	0.07849
3847.48608	0.07822
3845.55752	0.07793
3843.62896	0.07822
3841.70039	0.07939
3839.77183	0.08092
3837.84326	0.08256
3835.91470	0.08398
3833.98613	0.08446
3832.05757	0.08417
3830.12900	0.08399
3828.20044	0.08438
3826.27187	0.08518
3824.34331	0.08592
3822.41475	0.08673
3820.48618	0.08822
3818.55762	0.08925
3816.62905	0.08947
3814.70049	0.09021
3812.77192	0.09123
3810.84336	0.09205
3808.91479	0.09295
3806.98623	0.09407
3805.05767	0.09539
3803.12910	0.09666
3801.20054	0.09804
3799.27197	0.09918
3797.34341	0.09969
3795.41484	0.10042
3793.48628	0.10149
3791.55771	0.10259
3789.62915	0.10375
3787.70059	0.10497
3785.77202	0.10651
3783.84346	0.10816
3781.91489	0.10945
3779.98633	0.11107
3778.05776	0.11314
3776.12920	0.11451
3774.20063	0.11568
3772.27207	0.11727
3770.34351	0.11902
3768.41494	0.12105
3766.48638	0.12299
3764.55781	0.12478
3762.62925	0.12650
3760.70068	0.12840
3758.77212	0.13111
3756.84355	0.13373
3754.91499	0.13518
3752.98643	0.13673
3751.05786	0.13964
3749.12930	0.14322
3747.20073	0.14551
3745.27217	0.14761
3743.34360	0.15180
3741.41504	0.15623
3739.48647	0.15891
3737.55791	0.16183
3735.62935	0.16664
3733.70078	0.17236
3731.77222	0.17684
3729.84365	0.18089
3727.91509	0.18506
3725.98652	0.19026
3724.05796	0.19696
3722.12939	0.20414
3720.20083	0.21143
3718.27227	0.21861
3716.34370	0.22560
3714.41514	0.23270
3712.48657	0.24161
3710.55801	0.25450
3708.62944	0.26864
3706.70088	0.28037
3704.77231	0.29123
3702.84375	0.30349
3700.91519	0.31960
3698.98662	0.33785
3697.05806	0.35521
3695.12949	0.37323
3693.20093	0.39188
3691.27236	0.41170
3689.34380	0.43806
3687.41523	0.47241
3685.48667	0.50336
3683.55811	0.52960
3681.62954	0.55737
3679.70098	0.58830
3677.77241	0.62020
3675.84385	0.65776
3673.91528	0.70989
3671.98672	0.75340
3670.05815	0.79084
3668.12959	0.84264
3666.20103	0.89165
3664.27246	0.93260
3662.34390	0.97552
3660.41533	1.02130
3658.48677	1.06636
3656.55820	1.11500
3654.62964	1.17005
3652.70107	1.21575
3650.77251	1.25414
3648.84395	1.30723
3646.91538	1.37459
3644.98682	1.42527
3643.05825	1.46423
3641.12969	1.50405
3639.20112	1.54782
3637.27256	1.59191
3635.34399	1.63499
3633.41543	1.67754
3631.48687	1.71620
3629.55830	1.75445
3627.62974	1.80655
3625.70117	1.85874
3623.77261	1.89437
3621.84404	1.92634
3619.91548	1.96227
3617.98691	2.00719
3616.05835	2.05146
3614.12979	2.08772
3612.20122	2.12587
3610.27266	2.16577
3608.34409	2.20581
3606.41553	2.24739
3604.48696	2.28681
3602.55840	2.32336
3600.62983	2.36221
3598.70127	2.40277
3596.77271	2.44169
3594.84414	2.48152
3592.91558	2.52266
3590.98701	2.56087
3589.05845	2.59733
3587.12988	2.64319
3585.20132	2.69450
3583.27275	2.73626
3581.34419	2.77260
3579.41562	2.81026
3577.48706	2.85042
3575.55850	2.89261
3573.62993	2.93746
3571.70137	2.98147
3569.77280	3.02240
3567.84424	3.06558
3565.91567	3.11784
3563.98711	3.16616
3562.05854	3.20517
3560.12998	3.24627
3558.20142	3.29185
3556.27285	3.33919
3554.34429	3.38492
3552.41572	3.43035
3550.48716	3.47673
3548.55859	3.52216
3546.63003	3.56745
3544.70146	3.61651
3542.77290	3.66788
3540.84434	3.71675
3538.91577	3.76282
3536.98721	3.80882
3535.05864	3.85763
3533.13008	3.90708
3531.20151	3.95582
3529.27295	4.00330
3527.34438	4.04934
3525.41582	4.09522
3523.48726	4.14299
3521.55869	4.19420
3519.63013	4.24679
3517.70156	4.29737
3515.77300	4.34466
3513.84443	4.39231
3511.91587	4.44079
3509.98730	4.48976
3508.05874	4.53676
3506.13018	4.57622
3504.20161	4.61291
3502.27305	4.65614
3500.34448	4.70436
3498.41592	4.75229
3496.48735	4.80312
3494.55879	4.85614
3492.63022	4.90796
3490.70166	4.95772
3488.77310	5.00813
3486.84453	5.06391
3484.91597	5.12171
3482.98740	5.17521
3481.05884	5.22147
3479.13027	5.26129
3477.20171	5.30270
3475.27314	5.35449
3473.34458	5.41150
3471.41602	5.45607
3469.48745	5.48750
3467.55889	5.52630
3465.63032	5.58091
3463.70176	5.63940
3461.77319	5.69188
3459.84463	5.73864
3457.91606	5.78566
3455.98750	5.84533
3454.05894	5.91333
3452.13037	5.96765
3450.20181	6.00842
3448.27324	6.06050
3446.34468	6.12844
3444.41611	6.18300
3442.48755	6.22406
3440.55898	6.27191
3438.63042	6.32240
3436.70186	6.37672
3434.77329	6.44391
3432.84473	6.49731
3430.91616	6.51883
3428.98760	6.54528
3427.05903	6.60566
3425.13047	6.67923
3423.20190	6.72589
3421.27334	6.75872
3419.34478	6.79061
3417.41621	6.82003
3415.48765	6.86558
3413.55908	6.91061
3411.63052	6.94636
3409.70195	7.00453
3407.77339	7.07576
3405.84482	7.11360
3403.91626	7.14992
3401.98770	7.20998
3400.05913	7.25874
3398.13057	7.27617
3396.20200	7.29593
3394.27344	7.36515
3392.34487	7.45748
3390.41631	7.52514
3388.48774	7.54407
3386.55918	7.57043
3384.63062	7.65964
3382.70205	7.74984
3380.77349	7.73765
3378.84492	7.68382
3376.91636	7.69621
3374.98779	7.71777
3373.05923	7.70634
3371.13066	7.69588
3369.20210	7.71608
3367.27354	7.73683
3365.34497	7.74744
3363.41641	7.80574
3361.48784	7.93051
3359.55928	8.06544
3357.63071	8.09236
3355.70215	8.04119
3353.77358	8.01932
3351.84502	8.01885
3349.91646	7.98513
3347.98789	7.92884
3346.05933	7.89325
3344.13076	7.92905
3342.20220	8.02601
3340.27363	8.09705
3338.34507	8.12743
3336.41650	8.15114
3334.48794	8.22135
3332.55937	8.30970
3330.63081	8.33692
3328.70225	8.27136
3326.77368	8.17525
3324.84512	8.12939
3322.91655	8.08444
3320.98799	8.03977
3319.05942	8.09642
3317.13086	8.25157
3315.20229	8.31025
3313.27373	8.27645
3311.34517	8.30998
3309.41660	8.35606
3307.48804	8.34774
3305.55947	8.35559
3303.63091	8.39755
3301.70234	8.36707
3299.77378	8.28904
3297.84521	8.21663
3295.91665	8.17033
3293.98809	8.21126
3292.05952	8.31996
3290.13096	8.39793
3288.20239	8.42548
3286.27383	8.46417
3284.34526	8.48062
3282.41670	8.46506
3280.48813	8.46027
3278.55957	8.51380
3276.63101	8.57903
3274.70244	8.48176
3272.77388	8.29214
3270.84531	8.21600
3268.91675	8.26699
3266.98818	8.34196
3265.05962	8.36983
3263.13105	8.34200
3261.20249	8.34378
3259.27393	8.37728
3257.34536	8.35716
3255.41680	8.37805
3253.48823	8.48563
3251.55967	8.53086
3249.63110	8.52744
3247.70254	8.50338
3245.77397	8.39632
3243.84541	8.33787
3241.91685	8.32440
3239.98828	8.25245
3238.05972	8.18220
3236.13115	8.15066
3234.20259	8.14247
3232.27402	8.18036
3230.34546	8.31235
3228.41689	8.44147
3226.48833	8.40583
3224.55977	8.30985
3222.63120	8.26218
3220.70264	8.21828
3218.77407	8.17250
3216.84551	8.16355
3214.91694	8.16416
3212.98838	8.08486
3211.05981	7.94480
3209.13125	7.87087
3207.20269	7.92214
3205.27412	8.02422
3203.34556	8.03879
3201.41699	7.98910
3199.48843	7.94162
3197.55986	7.85369
3195.63130	7.77257
3193.70273	7.78858
3191.77417	7.84781
3189.84561	7.80565
3187.91704	7.67962
3185.98848	7.59365
3184.05991	7.53365
3182.13135	7.44915
3180.20278	7.34910
3178.27422	7.23934
3176.34565	7.16439
3174.41709	7.15056
3172.48853	7.14659
3170.55996	7.12777
3168.63140	7.10277
3166.70283	7.07366
3164.77427	7.05764
3162.84570	7.01338
3160.91714	6.91290
3158.98857	6.81676
3157.06001	6.72745
3155.13145	6.63496
3153.20288	6.56433
3151.27432	6.49997
3149.34575	6.41911
3147.41719	6.32917
3145.48862	6.23989
3143.56006	6.16391
3141.63149	6.10556
3139.70293	6.04204
3137.77437	5.97608
3135.84580	5.92901
3133.91724	5.88205
3131.98867	5.80009
3130.06011	5.69605
3128.13154	5.60831
3126.20298	5.53910
3124.27441	5.47858
3122.34585	5.42075
3120.41729	5.35038
3118.48872	5.26151
3116.56016	5.16844
3114.63159	5.09106
3112.70303	5.03288
3110.77446	4.97571
3108.84590	4.90392
3106.91733	4.82370
3104.98877	4.75088
3103.06021	4.69169
3101.13164	4.63424
3099.20308	4.56388
3097.27451	4.48609
3095.34595	4.41508
3093.41738	4.35087
3091.48882	4.28710
3089.56025	4.22468
3087.63169	4.16389
3085.70312	4.10042
3083.77456	4.03383
3081.84600	3.97060
3079.91743	3.91259
3077.98887	3.85299
3076.06030	3.78986
3074.13174	3.72895
3072.20317	3.67132
3070.27461	3.61264
3068.34604	3.55382
3066.41748	3.49768
3064.48892	3.44158
3062.56035	3.38352
3060.63179	3.32664
3058.70322	3.27242
3056.77466	3.21822
3054.84609	3.16332
3052.91753	3.11009
3050.98896	3.05917
3049.06040	3.00828
3047.13184	2.95713
3045.20327	2.90752
3043.27471	2.85867
3041.34614	2.80914
3039.41758	2.75980
3037.48901	2.71203
3035.56045	2.66583
3033.63188	2.62044
3031.70332	2.57536
3029.77476	2.53016
3027.84619	2.48556
3025.91763	2.44273
3023.98906	2.40060
3022.06050	2.35836
3020.13193	2.31689
3018.20337	2.27605
3016.27480	2.23585
3014.34624	2.19691
3012.41768	2.15883
3010.48911	2.12116
3008.56055	2.08377
3006.63198	2.04638
3004.70342	2.00925
3002.77485	1.97289
3000.84629	1.93762
2998.91772	1.90366
2996.98916	1.87056
2995.06060	1.83799
2993.13203	1.80628
2991.20347	1.77557
2989.27490	1.74556
2987.34634	1.71576
2985.41777	1.68605
2983.48921	1.65667
2981.56064	1.62787
2979.63208	1.59980
2977.70352	1.57240
2975.77495	1.54585
2973.84639	1.52016
2971.91782	1.49471
2969.98926	1.46967
2968.06069	1.44542
2966.13213	1.42127
2964.20356	1.39684
2962.27500	1.37246
2960.34644	1.34839
2958.41787	1.32486
2956.48931	1.30161
2954.56074	1.27834
2952.63218	1.25521
2950.70361	1.23241
2948.77505	1.21013
2946.84648	1.18834
2944.91792	1.16714
2942.98936	1.14644
2941.06079	1.12615
2939.13223	1.10637
2937.20366	1.08679
2935.27510	1.06735
2933.34653	1.04811
2931.41797	1.02908
2929.48940	1.01074
2927.56084	0.99295
2925.63228	0.97535
2923.70371	0.95822
2921.77515	0.94135
2919.84658	0.92410
2917.91802	0.90661
2915.98945	0.88942
2914.06089	0.87301
2912.13232	0.85737
2910.20376	0.84191
2908.27520	0.82667
2906.34663	0.81210
2904.41807	0.79800
2902.48950	0.78408
2900.56094	0.77036
2898.63237	0.75692
2896.70381	0.74366
2894.77524	0.73073
2892.84668	0.71857
2890.91812	0.70685
2888.98955	0.69526
2887.06099	0.68426
2885.13242	0.67369
2883.20386	0.66303
2881.27529	0.65261
2879.34673	0.64275
2877.41816	0.63303
2875.48960	0.62311
2873.56104	0.61286
2871.63247	0.60217
2869.70391	0.59124
2867.77534	0.58048
2865.84678	0.56994
2863.91821	0.55965
2861.98965	0.54970
2860.06108	0.53992
2858.13252	0.53035
2856.20396	0.52117
2854.27539	0.51229
2852.34683	0.50363
2850.41826	0.49522
2848.48970	0.48697
2846.56113	0.47878
2844.63257	0.47082
2842.70400	0.46351
2840.77544	0.45691
2838.84687	0.45054
2836.91831	0.44409
2834.98975	0.43785
2833.06118	0.43191
2831.13262	0.42588
2829.20405	0.41968
2827.27549	0.41349
2825.34692	0.40743
2823.41836	0.40157
2821.48979	0.39583
2819.56123	0.39003
2817.63267	0.38426
2815.70410	0.37876
2813.77554	0.37353
2811.84697	0.36828
2809.91841	0.36296
2807.98984	0.35768
2806.06128	0.35249
2804.13271	0.34747
2802.20415	0.34275
2800.27559	0.33805
2798.34702	0.33322
2796.41846	0.32852
2794.48989	0.32394
2792.56133	0.31938
2790.63276	0.31492
2788.70420	0.31055
2786.77563	0.30632
2784.84707	0.30226
2782.91851	0.29822
2780.98994	0.29403
2779.06138	0.28986
2777.13281	0.28598
2775.20425	0.28243
2773.27568	0.27895
2771.34712	0.27536
2769.41855	0.27182
2767.48999	0.26841
2765.56143	0.26510
2763.63286	0.26177
2761.70430	0.25847
2759.77573	0.25541
2757.84717	0.25242
2755.91860	0.24936
2753.99004	0.24640
2752.06147	0.24361
2750.13291	0.24077
2748.20435	0.23774
2746.27578	0.23476
2744.34722	0.23220
2742.41865	0.22986
2740.49009	0.22738
2738.56152	0.22480
2736.63296	0.22217
2734.70439	0.21957
2732.77583	0.21721
2730.84727	0.21502
2728.91870	0.21290
2726.99014	0.21081
2725.06157	0.20861
2723.13301	0.20640
2721.20444	0.20440
2719.27588	0.20259
2717.34731	0.20082
2715.41875	0.19903
2713.49019	0.19722
2711.56162	0.19541
2709.63306	0.19369
2707.70449	0.19200
2705.77593	0.19017
2703.84736	0.18834
2701.91880	0.18675
2699.99023	0.18546
2698.06167	0.18430
2696.13311	0.18297
2694.20454	0.18148
2692.27598	0.18009
2690.34741	0.17875
2688.41885	0.17745
2686.49028	0.17621
2684.56172	0.17492
2682.63315	0.17369
2680.70459	0.17257
2678.77603	0.17160
2676.84746	0.17074
2674.91890	0.16974
2672.99033	0.16861
2671.06177	0.16766
2669.13320	0.16673
2667.20464	0.16567
2665.27607	0.16467
2663.34751	0.16373
2661.41895	0.16286
2659.49038	0.16211
2657.56182	0.16137
2655.63325	0.16063
2653.70469	0.15998
2651.77612	0.15930
2649.84756	0.15855
2647.91899	0.15788
2645.99043	0.15732
2644.06187	0.15678
2642.13330	0.15620
2640.20474	0.15572
2638.27617	0.15533
2636.34761	0.15487
2634.41904	0.15439
2632.49048	0.15408
2630.56191	0.15384
2628.63335	0.15347
2626.70479	0.15294
2624.77622	0.15244
2622.84766	0.15213
2620.91909	0.15200
2618.99053	0.15183
2617.06196	0.15162
2615.13340	0.15164
2613.20483	0.15169
2611.27627	0.15153
2609.34771	0.15133
2607.41914	0.15120
2605.49058	0.15103
2603.56201	0.15080
2601.63345	0.15075
2599.70488	0.15085
2597.77632	0.15088
2595.84775	0.15082
2593.91919	0.15084
2591.99062	0.15105
2590.06206	0.15143
2588.13350	0.15174
2586.20493	0.15182
2584.27637	0.15181
2582.34780	0.15190
2580.41924	0.15214
2578.49067	0.15249
2576.56211	0.15278
2574.63354	0.15299
2572.70498	0.15334
2570.77642	0.15386
2568.84785	0.15433
2566.91929	0.15471
2564.99072	0.15503
2563.06216	0.15543
2561.13359	0.15600
2559.20503	0.15662
2557.27646	0.15707
2555.34790	0.15744
2553.41934	0.15795
2551.49077	0.15845
2549.56221	0.15888
2547.63364	0.15935
2545.70508	0.15989
2543.77651	0.16053
2541.84795	0.16119
2539.91938	0.16180
2537.99082	0.16243
2536.06226	0.16311
2534.13369	0.16381
2532.20513	0.16442
2530.27656	0.16498
2528.34800	0.16565
2526.41943	0.16647
2524.49087	0.16731
2522.56230	0.16806
2520.63374	0.16886
2518.70518	0.16973
2516.77661	0.17046
2514.84805	0.17108
2512.91948	0.17181
2510.99092	0.17267
2509.06235	0.17353
2507.13379	0.17437
2505.20522	0.17513
2503.27666	0.17590
2501.34810	0.17678
2499.41953	0.17756
2497.49097	0.17822
2495.56240	0.17910
2493.63384	0.18020
2491.70527	0.18118
2489.77671	0.18192
2487.84814	0.18259
2485.91958	0.18336
2483.99102	0.18418
2482.06245	0.18506
2480.13389	0.18605
2478.20532	0.18705
2476.27676	0.18790
2474.34819	0.18862
2472.41963	0.18936
2470.49106	0.19030
2468.56250	0.19136
2466.63394	0.19228
2464.70537	0.19321
2462.77681	0.19432
2460.84824	0.19533
2458.91968	0.19619
2456.99111	0.19696
2455.06255	0.19773
2453.13398	0.19868
2451.20542	0.19983
2449.27686	0.20101
2447.34829	0.20202
2445.41973	0.20289
2443.49116	0.20385
2441.56260	0.20494
2439.63403	0.20604
2437.70547	0.20703
2435.77690	0.20800
2433.84834	0.20912
2431.91978	0.21019
2429.99121	0.21106
2428.06265	0.21197
2426.13408	0.21308
2424.20552	0.21419
2422.27695	0.21518
2420.34839	0.21621
2418.41982	0.21734
2416.49126	0.21852
2414.56270	0.21974
2412.63413	0.22088
2410.70557	0.22189
2408.77700	0.22290
2406.84844	0.22397
2404.91987	0.22512
2402.99131	0.22649
2401.06274	0.22796
2399.13418	0.22928
2397.20562	0.23043
2395.27705	0.23161
2393.34849	0.23289
2391.41992	0.23415
2389.49136	0.23529
2387.56279	0.23647
2385.63423	0.23780
2383.70566	0.23926
2381.77710	0.24094
2379.84854	0.24285
2377.91997	0.24492
2375.99141	0.24721
2374.06284	0.24987
2372.13428	0.25294
2370.20571	0.25624
2368.27715	0.25950
2366.34858	0.26269
2364.42002	0.26497
2362.49146	0.26577
2360.56289	0.26666
2358.63433	0.26918
2356.70576	0.27174
2354.77720	0.27209
2352.84863	0.27166
2350.92007	0.27153
2348.99150	0.27156
2347.06294	0.27208
2345.13437	0.27367
2343.20581	0.27626
2341.27725	0.27867
2339.34868	0.28044
2337.42012	0.28185
2335.49155	0.28289
2333.56299	0.28396
2331.63442	0.28594
2329.70586	0.28861
2327.77729	0.29086
2325.84873	0.29205
2323.92017	0.29277
2321.99160	0.29367
2320.06304	0.29476
2318.13447	0.29590
2316.20591	0.29705
2314.27734	0.29828
2312.34878	0.29956
2310.42021	0.30089
2308.49165	0.30225
2306.56309	0.30366
2304.63452	0.30519
2302.70596	0.30676
2300.77739	0.30830
2298.84883	0.30989
2296.92026	0.31161
2294.99170	0.31332
2293.06313	0.31502
2291.13457	0.31684
2289.20601	0.31865
2287.27744	0.32035
2285.34888	0.32206
2283.42031	0.32384
2281.49175	0.32562
2279.56318	0.32748
2277.63462	0.32951
2275.70605	0.33160
2273.77749	0.33368
2271.84893	0.33579
2269.92036	0.33791
2267.99180	0.34014
2266.06323	0.34253
2264.13467	0.34476
2262.20610	0.34670
2260.27754	0.34860
2258.34897	0.35061
2256.42041	0.35262
2254.49185	0.35469
2252.56328	0.35685
2250.63472	0.35898
2248.70615	0.36111
2246.77759	0.36332
2244.84902	0.36554
2242.92046	0.36763
2240.99189	0.36976
2239.06333	0.37209
2237.13477	0.37440
2235.20620	0.37654
2233.27764	0.37864
2231.34907	0.38084
2229.42051	0.38308
2227.49194	0.38535
2225.56338	0.38772
2223.63481	0.38996
2221.70625	0.39194
2219.77769	0.39399
2217.84912	0.39624
2215.92056	0.39851
2213.99199	0.40075
2212.06343	0.40296
2210.13486	0.40512
2208.20630	0.40724
2206.27773	0.40929
2204.34917	0.41136
2202.42061	0.41343
2200.49204	0.41546
2198.56348	0.41752
2196.63491	0.41953
2194.70635	0.42140
2192.77778	0.42325
2190.84922	0.42512
2188.92065	0.42698
2186.99209	0.42883
2185.06353	0.43068
2183.13496	0.43242
2181.20640	0.43411
2179.27783	0.43572
2177.34927	0.43716
2175.42070	0.43854
2173.49214	0.44005
2171.56357	0.44167
2169.63501	0.44325
2167.70645	0.44463
2165.77788	0.44573
2163.84932	0.44671
2161.92075	0.44774
2159.99219	0.44884
2158.06362	0.44991
2156.13506	0.45084
2154.20649	0.45172
2152.27793	0.45265
2150.34937	0.45343
2148.42080	0.45402
2146.49224	0.45456
2144.56367	0.45505
2142.63511	0.45542
2140.70654	0.45568
2138.77798	0.45592
2136.84941	0.45614
2134.92085	0.45629
2132.99229	0.45627
2131.06372	0.45612
2129.13516	0.45593
2127.20659	0.45563
2125.27803	0.45520
2123.34946	0.45468
2121.42090	0.45417
2119.49233	0.45365
2117.56377	0.45312
2115.63521	0.45251
2113.70664	0.45174
2111.77808	0.45085
2109.84951	0.44993
2107.92095	0.44888
2105.99238	0.44770
2104.06382	0.44655
2102.13525	0.44536
2100.20669	0.44404
2098.27812	0.44257
2096.34956	0.44091
2094.42100	0.43916
2092.49243	0.43753
2090.56387	0.43598
2088.63530	0.43423
2086.70674	0.43231
2084.77817	0.43039
2082.84961	0.42851
2080.92104	0.42659
2078.99248	0.42464
2077.06392	0.42260
2075.13535	0.42041
2073.20679	0.41816
2071.27822	0.41591
2069.34966	0.41356
2067.42109	0.41113
2065.49253	0.40879
2063.56396	0.40645
2061.63540	0.40405
2059.70684	0.40164
2057.77827	0.39915
2055.84971	0.39660
2053.92114	0.39406
2051.99258	0.39149
2050.06401	0.38885
2048.13545	0.38625
2046.20688	0.38366
2044.27832	0.38101
2042.34976	0.37840
2040.42119	0.37576
2038.49263	0.37293
2036.56406	0.37009
2034.63550	0.36739
2032.70693	0.36468
2030.77837	0.36188
2028.84980	0.35897
2026.92124	0.35609
2024.99268	0.35335
2023.06411	0.35069
2021.13555	0.34794
2019.20698	0.34512
2017.27842	0.34231
2015.34985	0.33956
2013.42129	0.33692
2011.49272	0.33426
2009.56416	0.33151
2007.63560	0.32877
2005.70703	0.32603
2003.77847	0.32330
2001.84990	0.32067
1999.92134	0.31817
1997.99277	0.31567
1996.06421	0.31314
1994.13564	0.31066
1992.20708	0.30825
1990.27852	0.30573
1988.34995	0.30313
1986.42139	0.30060
1984.49282	0.29816
1982.56426	0.29576
1980.63569	0.29342
1978.70713	0.29119
1976.77856	0.28901
1974.85000	0.28681
1972.92144	0.28466
1970.99287	0.28265
1969.06431	0.28065
1967.13574	0.27860
1965.20718	0.27658
1963.27861	0.27460
1961.35005	0.27259
1959.42148	0.27058
1957.49292	0.26872
1955.56436	0.26700
1953.63579	0.26529
1951.70723	0.26355
1949.77866	0.26196
1947.85010	0.26051
1945.92153	0.25900
1943.99297	0.25740
1942.06440	0.25584
1940.13584	0.25441
1938.20728	0.25310
1936.27871	0.25186
1934.35015	0.25063
1932.42158	0.24942
1930.49302	0.24824
1928.56445	0.24705
1926.63589	0.24584
1924.70732	0.24481
1922.77876	0.24394
1920.85020	0.24312
1918.92163	0.24230
1916.99307	0.24138
1915.06450	0.24044
1913.13594	0.23964
1911.20737	0.23894
1909.27881	0.23822
1907.35024	0.23754
1905.42168	0.23692
1903.49312	0.23633
1901.56455	0.23578
1899.63599	0.23522
1897.70742	0.23472
1895.77886	0.23436
1893.85029	0.23413
1891.92173	0.23387
1889.99316	0.23355
1888.06460	0.23315
1886.13604	0.23279
1884.20747	0.23260
1882.27891	0.23260
1880.35034	0.23261
1878.42178	0.23249
1876.49321	0.23248
1874.56465	0.23255
1872.63608	0.23264
1870.70752	0.23274
1868.77896	0.23297
1866.85039	0.23319
1864.92183	0.23327
1862.99326	0.23341
1861.06470	0.23364
1859.13613	0.23402
1857.20757	0.23445
1855.27900	0.23495
1853.35044	0.23543
1851.42187	0.23595
1849.49331	0.23648
1847.56475	0.23705
1845.63618	0.23774
1843.70762	0.23867
1841.77905	0.23959
1839.85049	0.24021
1837.92192	0.24104
1835.99336	0.24207
1834.06479	0.24304
1832.13623	0.24388
1830.20767	0.24509
1828.27910	0.24658
1826.35054	0.24767
1824.42197	0.24885
1822.49341	0.25018
1820.56484	0.25154
1818.63628	0.25299
1816.70771	0.25464
1814.77915	0.25626
1812.85059	0.25794
1810.92202	0.25988
1808.99346	0.26195
1807.06489	0.26400
1805.13633	0.26593
1803.20776	0.26804
1801.27920	0.27046
1799.35063	0.27326
1797.42207	0.27581
1795.49351	0.27814
1793.56494	0.28074
1791.63638	0.28426
1789.70781	0.28798
1787.77925	0.29084
1785.85068	0.29395
1783.92212	0.29759
1781.99355	0.30154
1780.06499	0.30573
1778.13643	0.31008
1776.20786	0.31407
1774.27930	0.31812
1772.35073	0.32356
1770.42217	0.32984
1768.49360	0.33544
1766.56504	0.34084
1764.63647	0.34627
1762.70791	0.35200
1760.77935	0.35926
1758.85078	0.36635
1756.92222	0.37357
1754.99365	0.38147
1753.06509	0.38852
1751.13652	0.39655
1749.20796	0.40678
1747.27939	0.41739
1745.35083	0.42691
1743.42227	0.43675
1741.49370	0.44733
1739.56514	0.45974
1737.63657	0.47230
1735.70801	0.48328
1733.77944	0.49965
1731.85088	0.51939
1729.92231	0.53507
1727.99375	0.55094
1726.06519	0.56792
1724.13662	0.58630
1722.20806	0.60608
1720.27949	0.62416
1718.35093	0.64494
1716.42236	0.67619
1714.49380	0.70702
1712.56523	0.73236
1710.63667	0.75661
1708.70811	0.78226
1706.77954	0.81123
1704.85098	0.84616
1702.92241	0.87748
1700.99385	0.90825
1699.06528	0.95432
1697.13672	0.99721
1695.20815	1.04164
1693.27959	1.08478
1691.35103	1.11930
1689.42246	1.15896
1687.49390	1.20060
1685.56533	1.24068
1683.63677	1.30355
1681.70820	1.36929
1679.77964	1.41144
1677.85107	1.45140
1675.92251	1.49605
1673.99395	1.55082
1672.06538	1.60135
1670.13682	1.65267
1668.20825	1.71832
1666.27969	1.77004
1664.35112	1.81341
1662.42256	1.86913
1660.49399	1.93243
1658.56543	1.98133
1656.63687	2.02066
1654.70830	2.05670
1652.77974	2.11150
1650.85117	2.16366
1648.92261	2.18449
1646.99404	2.21152
1645.06548	2.23997
1643.13691	2.25785
1641.20835	2.26887
1639.27979	2.27809
1637.35122	2.28263
1635.42266	2.28164
1633.49409	2.27330
1631.56553	2.25948
1629.63696	2.24316
1627.70840	2.21527
1625.77983	2.18177
1623.85127	2.14050
1621.92271	2.09009
1619.99414	2.04510
1618.06558	2.00112
1616.13701	1.93760
1614.20845	1.87341
1612.27988	1.82582
1610.35132	1.77623
1608.42275	1.72195
1606.49419	1.66855
1604.56562	1.62009
1602.63706	1.57345
1600.70850	1.52684
1598.77993	1.48314
1596.85137	1.44188
1594.92280	1.40173
1592.99424	1.36305
1591.06567	1.32757
1589.13711	1.29418
1587.20854	1.26322
1585.27998	1.23449
1583.35142	1.20715
1581.42285	1.18216
1579.49429	1.16100
1577.56572	1.14186
1575.63716	1.11888
1573.70859	1.09947
1571.78003	1.08704
1569.85146	1.07361
1567.92290	1.05881
1565.99434	1.04802
1564.06577	1.03973
1562.13721	1.03318
1560.20864	1.02868
1558.28008	1.02423
1556.35151	1.02120
1554.42295	1.01911
1552.49438	1.01652
1550.56582	1.01245
1548.63726	1.00658
1546.70869	0.99975
1544.78013	0.99127
1542.85156	0.98045
1540.92300	0.96528
1538.99443	0.94208
1537.06587	0.92517
1535.13730	0.91353
1533.20874	0.89793
1531.28018	0.88122
1529.35161	0.86901
1527.42305	0.85734
1525.49448	0.84518
1523.56592	0.83499
1521.63735	0.82550
1519.70879	0.81597
1517.78022	0.80782
1515.85166	0.79825
1513.92310	0.78822
1511.99453	0.77950
1510.06597	0.77148
1508.13740	0.76359
1506.20884	0.75159
1504.28027	0.74143
1502.35171	0.73619
1500.42314	0.73174
1498.49458	0.72663
1496.56602	0.72036
1494.63745	0.71423
1492.70889	0.70953
1490.78032	0.70537
1488.85176	0.70080
1486.92319	0.69675
1484.99463	0.69349
1483.06606	0.69079
1481.13750	0.68853
1479.20894	0.68671
1477.28037	0.68547
1475.35181	0.68479
1473.42324	0.68438
1471.49468	0.68348
1469.56611	0.68193
1467.63755	0.67990
1465.70898	0.67770
1463.78042	0.67573
1461.85186	0.67425
1459.92329	0.67329
1457.99473	0.67280
1456.06616	0.67157
1454.13760	0.66890
1452.20903	0.66605
1450.28047	0.66316
1448.35190	0.66058
1446.42334	0.65832
1444.49478	0.65592
1442.56621	0.65335
1440.63765	0.65074
1438.70908	0.64819
1436.78052	0.64501
1434.85195	0.64149
1432.92339	0.63888
1430.99482	0.63689
1429.06626	0.63518
1427.13770	0.63410
1425.20913	0.63365
1423.28057	0.63341
1421.35200	0.63311
1419.42344	0.63273
1417.49487	0.63207
1415.56631	0.63104
1413.63774	0.63003
1411.70918	0.62938
1409.78062	0.62931
1407.85205	0.62959
1405.92349	0.63008
1403.99492	0.63071
1402.06636	0.63075
1400.13779	0.62996
1398.20923	0.62847
1396.28066	0.62637
1394.35210	0.62361
1392.42354	0.62042
1390.49497	0.61730
1388.56641	0.61417
1386.63784	0.61067
1384.70928	0.60704
1382.78071	0.60369
1380.85215	0.60049
1378.92358	0.59760
1376.99502	0.59532
1375.06646	0.59367
1373.13789	0.59251
1371.20933	0.59158
1369.28076	0.59067
1367.35220	0.58957
1365.42363	0.58816
1363.49507	0.58667
1361.56650	0.58532
1359.63794	0.58407
1357.70937	0.58288
1355.78081	0.58165
1353.85225	0.58051
1351.92368	0.57974
1349.99512	0.57911
1348.06655	0.57826
1346.13799	0.57739
1344.20942	0.57663
1342.28086	0.57576
1340.35229	0.57477
1338.42373	0.57386
1336.49517	0.57320
1334.56660	0.57274
1332.63804	0.57234
1330.70947	0.57203
1328.78091	0.57188
1326.85234	0.57190
1324.92378	0.57203
1322.99521	0.57227
1321.06665	0.57243
1319.13809	0.57246
1317.20952	0.57234
1315.28096	0.57208
1313.35239	0.57170
1311.42383	0.57124
1309.49526	0.57072
1307.56670	0.57011
1305.63813	0.56948
1303.70957	0.56892
1301.78101	0.56837
1299.85244	0.56775
1297.92388	0.56705
1295.99531	0.56619
1294.06675	0.56508
1292.13818	0.56381
1290.20962	0.56262
1288.28105	0.56166
1286.35249	0.56080
1284.42393	0.55989
1282.49536	0.55895
1280.56680	0.55803
1278.63823	0.55709
1276.70967	0.55607
1274.78110	0.55496
1272.85254	0.55387
1270.92397	0.55305
1268.99541	0.55242
1267.06685	0.55184
1265.13828	0.55126
1263.20972	0.55066
1261.28115	0.55009
1259.35259	0.54955
1257.42402	0.54903
1255.49546	0.54866
1253.56689	0.54853
1251.63833	0.54856
1249.70977	0.54852
1247.78120	0.54824
1245.85264	0.54779
1243.92407	0.54730
1241.99551	0.54670
1240.06694	0.54576
1238.13838	0.54440
1236.20981	0.54273
1234.28125	0.54091
1232.35269	0.53919
1230.42412	0.53770
1228.49556	0.53622
1226.56699	0.53468
1224.63843	0.53316
1222.70986	0.53168
1220.78130	0.53040
1218.85273	0.52935
1216.92417	0.52837
1214.99561	0.52741
1213.06704	0.52655
1211.13848	0.52584
1209.20991	0.52518
1207.28135	0.52446
1205.35278	0.52366
1203.42422	0.52281
1201.49565	0.52193
1199.56709	0.52111
1197.63853	0.52039
1195.70996	0.51975
1193.78140	0.51927
1191.85283	0.51897
1189.92427	0.51868
1187.99570	0.51834
1186.06714	0.51805
1184.13857	0.51801
1182.21001	0.51839
1180.28145	0.51922
1178.35288	0.52030
1176.42432	0.52139
1174.49575	0.52245
1172.56719	0.52344
1170.63862	0.52408
1168.71006	0.52444
1166.78149	0.52486
1164.85293	0.52536
1162.92437	0.52580
1160.99580	0.52592
1159.06724	0.52569
1157.13867	0.52530
1155.21011	0.52470
1153.28154	0.52368
1151.35298	0.52213
1149.42441	0.52005
1147.49585	0.51760
1145.56729	0.51498
1143.63872	0.51223
1141.71016	0.50969
1139.78159	0.50763
1137.85303	0.50592
1135.92446	0.50439
1133.99590	0.50306
1132.06733	0.50211
1130.13877	0.50155
1128.21021	0.50091
1126.28164	0.49999
1124.35308	0.49906
1122.42451	0.49842
1120.49595	0.49818
1118.56738	0.49830
1116.63882	0.49855
1114.71025	0.49885
1112.78169	0.49943
1110.85312	0.50027
1108.92456	0.50106
1106.99600	0.50176
1105.06743	0.50267
1103.13887	0.50386
1101.21030	0.50519
1099.28174	0.50667
1097.35317	0.50865
1095.42461	0.51154
1093.49604	0.51541
1091.56748	0.52020
1089.63892	0.52587
1087.71035	0.53239
1085.78179	0.53979
1083.85322	0.54771
1081.92466	0.55507
1079.99609	0.56067
1078.06753	0.56386
1076.13896	0.56440
1074.21040	0.56224
1072.28184	0.55757
1070.35327	0.55106
1068.42471	0.54389
1066.49614	0.53699
1064.56758	0.53063
1062.63901	0.52490
1060.71045	0.51983
1058.78188	0.51536
1056.85332	0.51139
1054.92476	0.50788
1052.99619	0.50483
1051.06763	0.50232
1049.13906	0.50042
1047.21050	0.49898
1045.28193	0.49783
1043.35337	0.49698
1041.42480	0.49647
1039.49624	0.49631
1037.56768	0.49637
1035.63911	0.49638
1033.71055	0.49615
1031.78198	0.49557
1029.85342	0.49456
1027.92485	0.49330
1025.99629	0.49215
1024.06772	0.49136
1022.13916	0.49098
1020.21060	0.49093
1018.28203	0.49126
1016.35347	0.49175
1014.42490	0.49202
1012.49634	0.49211
1010.56777	0.49218
1008.63921	0.49238
1006.71064	0.49309
1004.78208	0.49448
1002.85352	0.49639
1000.92495	0.49890
998.99639	0.50214
997.06782	0.50592
995.13926	0.50996
993.21069	0.51408
991.28213	0.51774
989.35356	0.52022
987.42500	0.52133
985.49644	0.52150
983.56787	0.52145
981.63931	0.52174
979.71074	0.52257
977.78218	0.52399
975.85361	0.52594
973.92505	0.52837
971.99648	0.53142
970.06792	0.53496
968.13936	0.53878
966.21079	0.54285
964.28223	0.54732
962.35366	0.55215
960.42510	0.55715
958.49653	0.56235
956.56797	0.56792
954.63940	0.57370
952.71084	0.57951
950.78228	0.58559
948.85371	0.59226
946.92515	0.59925
944.99658	0.60574
943.06802	0.61184
941.13945	0.61820
939.21089	0.62456
937.28232	0.63020
935.35376	0.63535
933.42520	0.64088
931.49663	0.64661
929.56807	0.65221
927.63950	0.65798
925.71094	0.66424
923.78237	0.67130
921.85381	0.67851
919.92524	0.68471
917.99668	0.69086
916.06812	0.69868
914.13955	0.70729
912.21099	0.71554
910.28242	0.72425
908.35386	0.73307
906.42529	0.74105
904.49673	0.74902
902.56816	0.75751
900.63960	0.76652
898.71104	0.77638
896.78247	0.78636
894.85391	0.79609
892.92534	0.80710
890.99678	0.81916
889.06821	0.83032
887.13965	0.84101
885.21108	0.85208
883.28252	0.86247
881.35396	0.87256
879.42539	0.88411
877.49683	0.89586
875.56826	0.90609
873.63970	0.91729
871.71113	0.93113
869.78257	0.94410
867.85400	0.95396
865.92544	0.96345
863.99687	0.97500
862.06831	0.98727
860.13975	1.00009
858.21118	1.01467
856.28262	1.02788
854.35405	1.03877
852.42549	1.05139
850.49692	1.06560
848.56836	1.07742
846.63979	1.08647
844.71123	1.09503
842.78267	1.10507
840.85410	1.11845
838.92554	1.13278
836.99697	1.14401
835.06841	1.15288
833.13984	1.16182
831.21128	1.17195
829.28271	1.18385
827.35415	1.19828
825.42559	1.21644
823.49702	1.23791
821.56846	1.25721
819.63989	1.27029
817.71133	1.27505
815.78276	1.27399
813.85420	1.28066
811.92563	1.30592
809.99707	1.34283
808.06851	1.36622
806.13994	1.36584
804.21138	1.36997
802.28281	1.39789
800.35425	1.42206
798.42568	1.42317
796.49712	1.41996
794.56855	1.42482
792.63999	1.42521
790.71143	1.40238
788.78286	1.38948
786.85430	1.41814
784.92573	1.48636
782.99717	1.55367
781.06860	1.61095
779.14004	1.62819
777.21147	1.51952
775.28291	1.46304
773.35435	1.57294
771.42578	1.83305
769.49722	2.21300
767.56865	2.71227
765.64009	2.02879
763.71152	1.60606
761.78296	1.37903
759.85439	1.22694
757.92583	1.16829
755.99727	1.20338
754.06870	1.27472
752.14014	1.40214
750.21157	1.68192
748.28301	1.51105
746.35444	1.21440
744.42588	1.11161
742.49731	1.11796
740.56875	1.16561
738.64019	1.37659
736.71162	4.42027
734.78306	2.62517
732.85449	1.04777
730.92593	0.72878
728.99736	0.56452
727.06880	0.48112
725.14023	0.42000
723.21167	0.27646
721.28311	0.02044
719.35454	0.03295
717.42598	0.11659
715.49741	0.02751
713.56885	-0.29756
711.64028	4.26984
709.71172	-0.38180
707.78315	-0.00424
705.85459	0.08422
703.92603	0.15968
701.99746	0.27297
700.06890	0.31324
698.14033	0.25117
696.21177	0.25951
694.28320	0.29580
692.35464	0.25886
690.42607	0.28270
688.49751	0.33816
686.56895	0.31386
684.64038	0.31591
682.71182	0.50802
680.78325	1.86679
678.85469	4.07313
676.92612	4.06156
674.99756	4.04999
673.06899	1.02931
671.14043	0.78425
669.21187	0.64025
667.28330	0.46719
665.35474	0.38541
663.42617	0.36587
661.49761	0.30571
659.56904	0.25860
657.64048	0.28157
655.71191	0.28065
653.78335	0.30698
651.85479	0.38279
649.92622	0.40254
647.99766	0.41463
646.06909	0.47989
644.14053	0.50075
642.21196	0.39967
640.28340	0.27051
638.35483	0.23641
636.42627	0.38047
634.49771	0.59708
632.56914	0.52470
630.64058	0.33728
628.71201	0.20033
626.78345	0.19287
624.85488	0.27675
622.92632	0.33442
620.99775	0.33612
619.06919	0.26691
617.14062	0.24733
615.21206	0.32362
613.28350	0.39669
611.35493	0.47249
609.42637	0.45126
607.49780	0.37186
605.56924	0.38512
603.64067	0.49894
601.71211	0.59149
599.78354	0.46500
597.85498	0.35502
595.92642	0.30250
593.99785	0.24948
592.06929	0.19624
590.14072	0.20471
588.21216	0.26176
586.28359	0.29568
584.35503	0.25917
582.42646	0.17592
580.49790	0.12499
578.56934	0.16037
576.64077	0.22727
574.71221	0.24945
572.78364	0.29799
570.85508	0.36209
568.92651	0.27170
566.99795	0.16917
565.06938	0.22384
563.14082	0.42480
561.21226	0.78277
559.28369	0.96026
557.35513	0.57347
555.42656	0.44267
553.49800	0.54530
551.56943	0.62010
549.64087	0.42038
547.71230	0.30770
545.78374	0.23817
543.85518	0.17887
541.92661	0.16777
539.99805	0.19888
538.06948	0.22433
536.14092	0.20481
534.21235	0.17263
532.28379	0.20843
530.35522	0.31427
528.42666	0.40060
526.49810	0.41696
524.56953	0.39243
522.64097	0.34571
520.71240	0.28061
518.78384	0.28700
516.85527	0.49881
514.92671	0.85236
512.99814	0.38465
511.06958	0.24551
509.14102	0.31796
507.21245	0.39998
505.28389	0.27807
503.35532	0.20777
501.42676	0.23258
499.49819	0.25596
