3997.91411	0.07125
3995.98555	0.07130
3994.05698	0.07191
3992.12842	0.07259
3990.19985	0.07305
3988.27129	0.07354
3986.34272	0.07385
3984.41416	0.07387
3982.48560	0.07377
3980.55703	0.07358
3978.62847	0.07344
3976.69990	0.07367
3974.77134	0.07416
3972.84277	0.07444
3970.91421	0.07445
3968.98564	0.07467
3967.05708	0.07487
3965.12852	0.07476
3963.19995	0.07487
3961.27139	0.07532
3959.34282	0.07558
3957.41426	0.07547
3955.48569	0.07520
3953.55713	0.07495
3951.62856	0.07490
3949.70000	0.07508
3947.77144	0.07550
3945.84287	0.07584
3943.91431	0.07594
3941.98574	0.07598
3940.05718	0.07604
3938.12861	0.07604
3936.20005	0.07564
3934.27148	0.07535
3932.34292	0.07587
3930.41436	0.07635
3928.48579	0.07599
3926.55723	0.07544
3924.62866	0.07532
3922.70010	0.07550
3920.77153	0.07573
3918.84297	0.07588
3916.91440	0.07587
3914.98584	0.07564
3913.05728	0.07517
3911.12871	0.07464
3909.20015	0.07419
3907.27158	0.07397
3905.34302	0.07432
3903.41445	0.07547
3901.48589	0.07644
3899.55732	0.07599
3897.62876	0.07492
3895.70020	0.07423
3893.77163	0.07409
3891.84307	0.07462
3889.91450	0.07538
3887.98594	0.07545
3886.05737	0.07528
3884.12881	0.07523
3882.20024	0.07511
3880.27168	0.07545
3878.34312	0.07588
3876.41455	0.07565
3874.48599	0.07544
3872.55742	0.07543
3870.62886	0.07536
3868.70029	0.07564
3866.77173	0.07626
3864.84316	0.07745
3862.91460	0.07871
3860.98604	0.07853
3859.05747	0.07781
3857.12891	0.07763
3855.20034	0.07761
3853.27178	0.07772
3851.34321	0.07870
3849.41465	0.07978
3847.48608	0.08056
3845.55752	0.08123
3843.62896	0.08180
3841.70039	0.08232
3839.77183	0.08290
3837.84326	0.08359
3835.91470	0.08387
3833.98613	0.08408
3832.05757	0.08491
3830.12900	0.08589
3828.20044	0.08634
3826.27187	0.08667
3824.34331	0.08744
3822.41475	0.08852
3820.48618	0.09019
3818.55762	0.09159
3816.62905	0.09206
3814.70049	0.09272
3812.77192	0.09329
3810.84336	0.09355
3808.91479	0.09409
3806.98623	0.09524
3805.05767	0.09660
3803.12910	0.09760
3801.20054	0.09907
3799.27197	0.10101
3797.34341	0.10213
3795.41484	0.10293
3793.48628	0.10404
3791.55771	0.10523
3789.62915	0.10606
3787.70059	0.10664
3785.77202	0.10770
3783.84346	0.10936
3781.91489	0.11069
3779.98633	0.11167
3778.05776	0.11307
3776.12920	0.11462
3774.20063	0.11621
3772.27207	0.11783
3770.34351	0.11940
3768.41494	0.12134
3766.48638	0.12350
3764.55781	0.12570
3762.62925	0.12763
3760.70068	0.12921
3758.77212	0.13136
3756.84355	0.13427
3754.91499	0.13696
3752.98643	0.13934
3751.05786	0.14219
3749.12930	0.14573
3747.20073	0.14824
3745.27217	0.15048
3743.34360	0.15468
3741.41504	0.15854
3739.48647	0.16043
3737.55791	0.16247
3735.62935	0.16620
3733.70078	0.17179
3731.77222	0.17745
3729.84365	0.18135
3727.91509	0.18435
3725.98652	0.18894
3724.05796	0.19532
3722.12939	0.20197
3720.20083	0.20911
3718.27227	0.21678
3716.34370	0.22439
3714.41514	0.23138
3712.48657	0.23948
3710.55801	0.25225
3708.62944	0.26690
3706.70088	0.27832
3704.77231	0.28862
3702.84375	0.30069
3700.91519	0.31687
3698.98662	0.33547
3697.05806	0.35316
3695.12949	0.37118
3693.20093	0.39007
3691.27236	0.41079
3689.34380	0.43777
3687.41523	0.47167
3685.48667	0.50213
3683.55811	0.52820
3681.62954	0.55575
3679.70098	0.58649
3677.77241	0.61816
3675.84385	0.65532
3673.91528	0.70695
3671.98672	0.75016
3670.05815	0.78817
3668.12959	0.84056
3666.20103	0.88877
3664.27246	0.92888
3662.34390	0.97155
3660.41533	1.01728
3658.48677	1.06230
3656.55820	1.11041
3654.62964	1.16437
3652.70107	1.20950
3650.77251	1.24793
3648.84395	1.30099
3646.91538	1.36813
3644.98682	1.41876
3643.05825	1.45775
3641.12969	1.49748
3639.20112	1.54125
3637.27256	1.58554
3635.34399	1.62842
3633.41543	1.67027
3631.48687	1.70886
3629.55830	1.74864
3627.62974	1.80244
3625.70117	1.85325
3623.77261	1.88721
3621.84404	1.91913
3619.91548	1.95610
3617.98691	2.00281
3616.05835	2.04893
3614.12979	2.08647
3612.20122	2.12506
3610.27266	2.16391
3608.34409	2.20312
3606.41553	2.24620
3604.48696	2.28673
3602.55840	2.32138
3600.62983	2.35788
3598.70127	2.39844
3596.77271	2.43741
3594.84414	2.47578
3592.91558	2.51695
3590.98701	2.55700
3589.05845	2.59396
3587.12988	2.63766
3585.20132	2.68577
3583.27275	2.72682
3581.34419	2.76604
3579.41562	2.80814
3577.48706	2.85095
3575.55850	2.89264
3573.62993	2.93471
3571.70137	2.97686
3569.77280	3.01891
3567.84424	3.06159
3565.91567	3.11055
3563.98711	3.16258
3562.05854	3.20912
3560.12998	3.25250
3558.20142	3.29536
3556.27285	3.33850
3554.34429	3.38088
3552.41572	3.42581
3550.48716	3.47431
3548.55859	3.52128
3546.63003	3.56648
3544.70146	3.61449
3542.77290	3.66403
3540.84434	3.71224
3538.91577	3.75928
3536.98721	3.80477
3535.05864	3.85103
3533.13008	3.89874
3531.20151	3.94787
3529.27295	3.99787
3527.34438	4.04880
3525.41582	4.10011
3523.48726	4.14972
3521.55869	4.19773
3519.63013	4.24421
3517.70156	4.28948
3515.77300	4.33399
3513.84443	4.38115
3511.91587	4.43184
3509.98730	4.48259
3508.05874	4.53092
3506.13018	4.57665
3504.20161	4.62256
3502.27305	4.67270
3500.34448	4.72471
3498.41592	4.77312
3496.48735	4.82137
3494.55879	4.87045
3492.63022	4.91569
3490.70166	4.95959
3488.77310	5.00460
3486.84453	5.04886
3484.91597	5.09456
3482.98740	5.14318
3481.05884	5.19639
3479.13027	5.24945
3477.20171	5.29526
3475.27314	5.34171
3473.34458	5.39082
3471.41602	5.43284
3469.48745	5.47001
3467.55889	5.51455
3465.63032	5.57183
3463.70176	5.63772
3461.77319	5.69661
3459.84463	5.74375
3457.91606	5.79514
3455.98750	5.84901
3454.05894	5.89432
3452.13037	5.94277
3450.20181	5.99911
3448.27324	6.04882
3446.34468	6.08655
3444.41611	6.12152
3442.48755	6.16857
3440.55898	6.22092
3438.63042	6.25971
3436.70186	6.28982
3434.77329	6.34404
3432.84473	6.42816
3430.91616	6.49524
3428.98760	6.51998
3427.05903	6.54873
3425.13047	6.63039
3423.20190	6.71375
3421.27334	6.75422
3419.34478	6.79977
3417.41621	6.87108
3415.48765	6.93012
3413.55908	6.94955
3411.63052	6.95955
3409.70195	6.98747
3407.77339	7.02509
3405.84482	7.07578
3403.91626	7.16252
3401.98770	7.22305
3400.05913	7.20924
3398.13057	7.20713
3396.20200	7.25671
3394.27344	7.32286
3392.34487	7.37506
3390.41631	7.42699
3388.48774	7.49101
3386.55918	7.53155
3384.63062	7.50260
3382.70205	7.46476
3380.77349	7.48243
3378.84492	7.50778
3376.91636	7.54332
3374.98779	7.63547
3373.05923	7.73080
3371.13066	7.74679
3369.20210	7.70671
3367.27354	7.63866
3365.34497	7.64580
3363.41641	7.79184
3361.48784	7.90577
3359.55928	7.89213
3357.63071	7.84737
3355.70215	7.81267
3353.77358	7.77576
3351.84502	7.76859
3349.91646	7.82677
3347.98789	7.92201
3346.05933	7.98941
3344.13076	8.01516
3342.20220	8.01007
3340.27363	7.96917
3338.34507	7.94333
3336.41650	7.98579
3334.48794	8.05668
3332.55937	8.05566
3330.63081	8.01513
3328.70225	7.96802
3326.77368	7.89797
3324.84512	7.87012
3322.91655	7.94080
3320.98799	8.05772
3319.05942	8.08130
3317.13086	7.99168
3315.20229	7.91680
3313.27373	7.94327
3311.34517	7.98411
3309.41660	8.01562
3307.48804	8.11957
3305.55947	8.20039
3303.63091	8.19682
3301.70234	8.19469
3299.77378	8.24449
3297.84521	8.28184
3295.91665	8.20313
3293.98809	8.06711
3292.05952	8.06722
3290.13096	8.22590
3288.20239	8.33612
3286.27383	8.27901
3284.34526	8.18307
3282.41670	8.16679
3280.48813	8.13726
3278.55957	8.09946
3276.63101	8.16461
3274.70244	8.23882
3272.77388	8.26626
3270.84531	8.33929
3268.91675	8.40086
3266.98818	8.34112
3265.05962	8.26241
3263.13105	8.27257
3261.20249	8.31863
3259.27393	8.28518
3257.34536	8.23133
3255.41680	8.29099
3253.48823	8.41670
3251.55967	8.41318
3249.63110	8.28095
3247.70254	8.21349
3245.77397	8.24056
3243.84541	8.26954
3241.91685	8.23265
3239.98828	8.20107
3238.05972	8.20568
3236.13115	8.12450
3234.20259	7.99361
3232.27402	7.95240
3230.34546	8.03298
3228.41689	8.15844
3226.48833	8.18501
3224.55977	8.07786
3222.63120	7.97530
3220.70264	7.97685
3218.77407	8.03705
3216.84551	8.05678
3214.91694	8.02701
3212.98838	7.97589
3211.05981	7.91074
3209.13125	7.86675
3207.20269	7.86459
3205.27412	7.85744
3203.34556	7.80706
3201.41699	7.78410
3199.48843	7.83385
3197.55986	7.86865
3195.63130	7.80049
3193.70273	7.66764
3191.77417	7.55825
3189.84561	7.49491
3187.91704	7.43388
3185.98848	7.36405
3184.05991	7.34026
3182.13135	7.36473
3180.20278	7.37528
3178.27422	7.34874
3176.34565	7.30074
3174.41709	7.23895
3172.48853	7.15616
3170.55996	7.07436
3168.63140	7.01424
3166.70283	6.94626
3164.77427	6.86134
3162.84570	6.77888
3160.91714	6.71227
3158.98857	6.66755
3157.06001	6.61785
3155.13145	6.54614
3153.20288	6.47634
3151.27432	6.41685
3149.34575	6.35565
3147.41719	6.28815
3145.48862	6.21480
3143.56006	6.15232
3141.63149	6.10015
3139.70293	6.02644
3137.77437	5.94587
3135.84580	5.88528
3133.91724	5.82155
3131.98867	5.73909
3130.06011	5.65432
3128.13154	5.57660
3126.20298	5.50445
3124.27441	5.43656
3122.34585	5.36777
3120.41729	5.29541
3118.48872	5.22704
3116.56016	5.16404
3114.63159	5.09456
3112.70303	5.02314
3110.77446	4.96036
3108.84590	4.89801
3106.91733	4.83108
3104.98877	4.76159
3103.06021	4.68946
3101.13164	4.61647
3099.20308	4.54626
3097.27451	4.48168
3095.34595	4.42116
3093.41738	4.35996
3091.48882	4.29748
3089.56025	4.23413
3087.63169	4.16814
3085.70312	4.10316
3083.77456	4.04367
3081.84600	3.98564
3079.91743	3.92365
3077.98887	3.86229
3076.06030	3.80514
3074.13174	3.74706
3072.20317	3.68699
3070.27461	3.62699
3068.34604	3.56772
3066.41748	3.51063
3064.48892	3.45667
3062.56035	3.40481
3060.63179	3.35172
3058.70322	3.29682
3056.77466	3.24272
3054.84609	3.18955
3052.91753	3.13723
3050.98896	3.08622
3049.06040	3.03569
3047.13184	2.98594
3045.20327	2.93708
3043.27471	2.88878
3041.34614	2.84118
3039.41758	2.79389
3037.48901	2.74633
3035.56045	2.69867
3033.63188	2.65186
3031.70332	2.60590
3029.77476	2.56095
3027.84619	2.51751
3025.91763	2.47440
3023.98906	2.43040
3022.06050	2.38704
3020.13193	2.34574
3018.20337	2.30505
3016.27480	2.26437
3014.34624	2.22435
3012.41768	2.18545
3010.48911	2.14822
3008.56055	2.11164
3006.63198	2.07485
3004.70342	2.03864
3002.77485	2.00296
3000.84629	1.96783
2998.91772	1.93419
2996.98916	1.90205
2995.06060	1.87048
2993.13203	1.83873
2991.20347	1.80748
2989.27490	1.77802
2987.34634	1.74965
2985.41777	1.72141
2983.48921	1.69368
2981.56064	1.66653
2979.63208	1.63972
2977.70352	1.61329
2975.77495	1.58755
2973.84639	1.56257
2971.91782	1.53814
2969.98926	1.51413
2968.06069	1.49026
2966.13213	1.46648
2964.20356	1.44314
2962.27500	1.42035
2960.34644	1.39733
2958.41787	1.37355
2956.48931	1.34954
2954.56074	1.32548
2952.63218	1.30158
2950.70361	1.27823
2948.77505	1.25511
2946.84648	1.23231
2944.91792	1.21060
2942.98936	1.19005
2941.06079	1.17014
2939.13223	1.15017
2937.20366	1.12963
2935.27510	1.10868
2933.34653	1.08789
2931.41797	1.06774
2929.48940	1.04805
2927.56084	1.02855
2925.63228	1.00932
2923.70371	0.99040
2921.77515	0.97211
2919.84658	0.95495
2917.91802	0.93876
2915.98945	0.92294
2914.06089	0.90710
2912.13232	0.89130
2910.20376	0.87566
2908.27520	0.85989
2906.34663	0.84434
2904.41807	0.82977
2902.48950	0.81592
2900.56094	0.80213
2898.63237	0.78825
2896.70381	0.77453
2894.77524	0.76131
2892.84668	0.74843
2890.91812	0.73584
2888.98955	0.72413
2887.06099	0.71348
2885.13242	0.70345
2883.20386	0.69358
2881.27529	0.68360
2879.34673	0.67371
2877.41816	0.66423
2875.48960	0.65502
2873.56104	0.64551
2871.63247	0.63509
2869.70391	0.62367
2867.77534	0.61162
2865.84678	0.59922
2863.91821	0.58690
2861.98965	0.57517
2860.06108	0.56397
2858.13252	0.55314
2856.20396	0.54284
2854.27539	0.53317
2852.34683	0.52386
2850.41826	0.51488
2848.48970	0.50659
2846.56113	0.49913
2844.63257	0.49219
2842.70400	0.48548
2840.77544	0.47886
2838.84687	0.47251
2836.91831	0.46648
2834.98975	0.46042
2833.06118	0.45424
2831.13262	0.44801
2829.20405	0.44175
2827.27549	0.43563
2825.34692	0.42965
2823.41836	0.42366
2821.48979	0.41771
2819.56123	0.41200
2817.63267	0.40638
2815.70410	0.40057
2813.77554	0.39483
2811.84697	0.38935
2809.91841	0.38380
2807.98984	0.37810
2806.06128	0.37266
2804.13271	0.36762
2802.20415	0.36266
2800.27559	0.35764
2798.34702	0.35253
2796.41846	0.34747
2794.48989	0.34268
2792.56133	0.33817
2790.63276	0.33377
2788.70420	0.32933
2786.77563	0.32477
2784.84707	0.32022
2782.91851	0.31586
2780.98994	0.31165
2779.06138	0.30742
2777.13281	0.30329
2775.20425	0.29950
2773.27568	0.29595
2771.34712	0.29238
2769.41855	0.28868
2767.48999	0.28494
2765.56143	0.28129
2763.63286	0.27774
2761.70430	0.27439
2759.77573	0.27123
2757.84717	0.26787
2755.91860	0.26436
2753.99004	0.26108
2752.06147	0.25800
2750.13291	0.25503
2748.20435	0.25217
2746.27578	0.24924
2744.34722	0.24619
2742.41865	0.24330
2740.49009	0.24071
2738.56152	0.23831
2736.63296	0.23585
2734.70439	0.23328
2732.77583	0.23074
2730.84727	0.22838
2728.91870	0.22614
2726.99014	0.22384
2725.06157	0.22151
2723.13301	0.21923
2721.20444	0.21698
2719.27588	0.21486
2717.34731	0.21290
2715.41875	0.21092
2713.49019	0.20892
2711.56162	0.20712
2709.63306	0.20548
2707.70449	0.20382
2705.77593	0.20209
2703.84736	0.20043
2701.91880	0.19882
2699.99023	0.19712
2698.06167	0.19538
2696.13311	0.19389
2694.20454	0.19271
2692.27598	0.19149
2690.34741	0.19005
2688.41885	0.18871
2686.49028	0.18755
2684.56172	0.18629
2682.63315	0.18505
2680.70459	0.18398
2678.77603	0.18280
2676.84746	0.18145
2674.91890	0.18027
2672.99033	0.17927
2671.06177	0.17826
2669.13320	0.17736
2667.20464	0.17649
2665.27607	0.17541
2663.34751	0.17422
2661.41895	0.17325
2659.49038	0.17242
2657.56182	0.17156
2655.63325	0.17079
2653.70469	0.17007
2651.77612	0.16930
2649.84756	0.16859
2647.91899	0.16786
2645.99043	0.16715
2644.06187	0.16660
2642.13330	0.16605
2640.20474	0.16536
2638.27617	0.16466
2636.34761	0.16408
2634.41904	0.16364
2632.49048	0.16321
2630.56191	0.16262
2628.63335	0.16206
2626.70479	0.16166
2624.77622	0.16129
2622.84766	0.16098
2620.91909	0.16080
2618.99053	0.16056
2617.06196	0.16021
2615.13340	0.15993
2613.20483	0.15979
2611.27627	0.15964
2609.34771	0.15942
2607.41914	0.15923
2605.49058	0.15913
2603.56201	0.15913
2601.63345	0.15907
2599.70488	0.15887
2597.77632	0.15869
2595.84775	0.15873
2593.91919	0.15892
2591.99062	0.15904
2590.06206	0.15906
2588.13350	0.15902
2586.20493	0.15907
2584.27637	0.15936
2582.34780	0.15963
2580.41924	0.15978
2578.49067	0.15995
2576.56211	0.16011
2574.63354	0.16031
2572.70498	0.16062
2570.77642	0.16098
2568.84785	0.16138
2566.91929	0.16182
2564.99072	0.16219
2563.06216	0.16243
2561.13359	0.16256
2559.20503	0.16286
2557.27646	0.16337
2555.34790	0.16393
2553.41934	0.16459
2551.49077	0.16525
2549.56221	0.16569
2547.63364	0.16600
2545.70508	0.16637
2543.77651	0.16688
2541.84795	0.16744
2539.91938	0.16795
2537.99082	0.16859
2536.06226	0.16938
2534.13369	0.17000
2532.20513	0.17044
2530.27656	0.17097
2528.34800	0.17165
2526.41943	0.17239
2524.49087	0.17322
2522.56230	0.17400
2520.63374	0.17462
2518.70518	0.17521
2516.77661	0.17585
2514.84805	0.17652
2512.91948	0.17731
2510.99092	0.17814
2509.06235	0.17879
2507.13379	0.17938
2505.20522	0.18002
2503.27666	0.18065
2501.34810	0.18136
2499.41953	0.18227
2497.49097	0.18319
2495.56240	0.18396
2493.63384	0.18466
2491.70527	0.18545
2489.77671	0.18631
2487.84814	0.18709
2485.91958	0.18792
2483.99102	0.18889
2482.06245	0.18982
2480.13389	0.19061
2478.20532	0.19143
2476.27676	0.19235
2474.34819	0.19329
2472.41963	0.19421
2470.49106	0.19505
2468.56250	0.19589
2466.63394	0.19672
2464.70537	0.19747
2462.77681	0.19835
2460.84824	0.19942
2458.91968	0.20029
2456.99111	0.20096
2455.06255	0.20179
2453.13398	0.20275
2451.20542	0.20360
2449.27686	0.20449
2447.34829	0.20558
2445.41973	0.20672
2443.49116	0.20781
2441.56260	0.20883
2439.63403	0.20971
2437.70547	0.21055
2435.77690	0.21155
2433.84834	0.21257
2431.91978	0.21347
2429.99121	0.21435
2428.06265	0.21531
2426.13408	0.21640
2424.20552	0.21759
2422.27695	0.21874
2420.34839	0.21975
2418.41982	0.22062
2416.49126	0.22157
2414.56270	0.22272
2412.63413	0.22394
2410.70557	0.22517
2408.77700	0.22642
2406.84844	0.22759
2404.91987	0.22872
2402.99131	0.22981
2401.06274	0.23092
2399.13418	0.23216
2397.20562	0.23346
2395.27705	0.23472
2393.34849	0.23586
2391.41992	0.23696
2389.49136	0.23806
2387.56279	0.23909
2385.63423	0.24005
2383.70566	0.24094
2381.77710	0.24171
2379.84854	0.24248
2377.91997	0.24327
2375.99141	0.24364
2374.06284	0.24346
2372.13428	0.24310
2370.20571	0.24271
2368.27715	0.24207
2366.34858	0.24188
2364.42002	0.24288
2362.49146	0.24390
2360.56289	0.24480
2358.63433	0.24662
2356.70576	0.24924
2354.77720	0.25224
2352.84863	0.25556
2350.92007	0.25879
2348.99150	0.26114
2347.06294	0.26246
2345.13437	0.26321
2343.20581	0.26414
2341.27725	0.26566
2339.34868	0.26696
2337.42012	0.26794
2335.49155	0.26960
2333.56299	0.27167
2331.63442	0.27354
2329.70586	0.27522
2327.77729	0.27687
2325.84873	0.27859
2323.92017	0.28066
2321.99160	0.28315
2320.06304	0.28599
2318.13447	0.28896
2316.20591	0.29140
2314.27734	0.29327
2312.34878	0.29511
2310.42021	0.29712
2308.49165	0.29920
2306.56309	0.30137
2304.63452	0.30359
2302.70596	0.30557
2300.77739	0.30740
2298.84883	0.30940
2296.92026	0.31155
2294.99170	0.31355
2293.06313	0.31543
2291.13457	0.31742
2289.20601	0.31951
2287.27744	0.32155
2285.34888	0.32346
2283.42031	0.32536
2281.49175	0.32742
2279.56318	0.32959
2277.63462	0.33166
2275.70605	0.33357
2273.77749	0.33546
2271.84893	0.33744
2269.92036	0.33949
2267.99180	0.34164
2266.06323	0.34376
2264.13467	0.34577
2262.20610	0.34790
2260.27754	0.35011
2258.34897	0.35220
2256.42041	0.35425
2254.49185	0.35644
2252.56328	0.35872
2250.63472	0.36095
2248.70615	0.36307
2246.77759	0.36521
2244.84902	0.36742
2242.92046	0.36962
2240.99189	0.37186
2239.06333	0.37411
2237.13477	0.37634
2235.20620	0.37860
2233.27764	0.38078
2231.34907	0.38281
2229.42051	0.38482
2227.49194	0.38702
2225.56338	0.38935
2223.63481	0.39166
2221.70625	0.39397
2219.77769	0.39627
2217.84912	0.39841
2215.92056	0.40048
2213.99199	0.40257
2212.06343	0.40469
2210.13486	0.40685
2208.20630	0.40906
2206.27773	0.41115
2204.34917	0.41303
2202.42061	0.41490
2200.49204	0.41688
2198.56348	0.41887
2196.63491	0.42084
2194.70635	0.42288
2192.77778	0.42485
2190.84922	0.42666
2188.92065	0.42845
2186.99209	0.43025
2185.06353	0.43200
2183.13496	0.43374
2181.20640	0.43545
2179.27783	0.43702
2177.34927	0.43849
2175.42070	0.43995
2173.49214	0.44146
2171.56357	0.44303
2169.63501	0.44459
2167.70645	0.44595
2165.77788	0.44705
2163.84932	0.44804
2161.92075	0.44907
2159.99219	0.45023
2158.06362	0.45141
2156.13506	0.45236
2154.20649	0.45304
2152.27793	0.45364
2150.34937	0.45424
2148.42080	0.45483
2146.49224	0.45544
2144.56367	0.45606
2142.63511	0.45657
2140.70654	0.45682
2138.77798	0.45692
2136.84941	0.45699
2134.92085	0.45706
2132.99229	0.45713
2131.06372	0.45711
2129.13516	0.45685
2127.20659	0.45642
2125.27803	0.45602
2123.34946	0.45568
2121.42090	0.45529
2119.49233	0.45468
2117.56377	0.45387
2115.63521	0.45307
2113.70664	0.45236
2111.77808	0.45154
2109.84951	0.45050
2107.92095	0.44932
2105.99238	0.44810
2104.06382	0.44689
2102.13525	0.44563
2100.20669	0.44423
2098.27812	0.44269
2096.34956	0.44115
2094.42100	0.43965
2092.49243	0.43803
2090.56387	0.43627
2088.63530	0.43443
2086.70674	0.43254
2084.77817	0.43068
2082.84961	0.42889
2080.92104	0.42697
2078.99248	0.42472
2077.06392	0.42236
2075.13535	0.42009
2073.20679	0.41792
2071.27822	0.41585
2069.34966	0.41378
2067.42109	0.41156
2065.49253	0.40930
2063.56396	0.40698
2061.63540	0.40453
2059.70684	0.40197
2057.77827	0.39938
2055.84971	0.39679
2053.92114	0.39411
2051.99258	0.39136
2050.06401	0.38868
2048.13545	0.38614
2046.20688	0.38350
2044.27832	0.38078
2042.34976	0.37813
2040.42119	0.37549
2038.49263	0.37281
2036.56406	0.37013
2034.63550	0.36739
2032.70693	0.36457
2030.77837	0.36164
2028.84980	0.35865
2026.92124	0.35584
2024.99268	0.35323
2023.06411	0.35060
2021.13555	0.34782
2019.20698	0.34506
2017.27842	0.34243
2015.34985	0.33963
2013.42129	0.33664
2011.49272	0.33382
2009.56416	0.33127
2007.63560	0.32867
2005.70703	0.32599
2003.77847	0.32329
2001.84990	0.32056
1999.92134	0.31786
1997.99277	0.31530
1996.06421	0.31280
1994.13564	0.31035
1992.20708	0.30792
1990.27852	0.30543
1988.34995	0.30292
1986.42139	0.30040
1984.49282	0.29799
1982.56426	0.29575
1980.63569	0.29358
1978.70713	0.29137
1976.77856	0.28913
1974.85000	0.28689
1972.92144	0.28465
1970.99287	0.28250
1969.06431	0.28046
1967.13574	0.27849
1965.20718	0.27655
1963.27861	0.27469
1961.35005	0.27284
1959.42148	0.27089
1957.49292	0.26894
1955.56436	0.26714
1953.63579	0.26548
1951.70723	0.26389
1949.77866	0.26235
1947.85010	0.26076
1945.92153	0.25918
1943.99297	0.25774
1942.06440	0.25630
1940.13584	0.25473
1938.20728	0.25320
1936.27871	0.25182
1934.35015	0.25051
1932.42158	0.24937
1930.49302	0.24831
1928.56445	0.24717
1926.63589	0.24601
1924.70732	0.24507
1922.77876	0.24418
1920.85020	0.24318
1918.92163	0.24214
1916.99307	0.24111
1915.06450	0.24026
1913.13594	0.23959
1911.20737	0.23897
1909.27881	0.23833
1907.35024	0.23777
1905.42168	0.23719
1903.49312	0.23661
1901.56455	0.23606
1899.63599	0.23552
1897.70742	0.23503
1895.77886	0.23467
1893.85029	0.23444
1891.92173	0.23418
1889.99316	0.23395
1888.06460	0.23362
1886.13604	0.23326
1884.20747	0.23306
1882.27891	0.23300
1880.35034	0.23291
1878.42178	0.23272
1876.49321	0.23264
1874.56465	0.23262
1872.63608	0.23265
1870.70752	0.23284
1868.77896	0.23334
1866.85039	0.23372
1864.92183	0.23371
1862.99326	0.23381
1861.06470	0.23414
1859.13613	0.23452
1857.20757	0.23483
1855.27900	0.23525
1853.35044	0.23570
1851.42187	0.23619
1849.49331	0.23672
1847.56475	0.23731
1845.63618	0.23807
1843.70762	0.23907
1841.77905	0.23994
1839.85049	0.24051
1837.92192	0.24132
1835.99336	0.24223
1834.06479	0.24310
1832.13623	0.24400
1830.20767	0.24532
1828.27910	0.24683
1826.35054	0.24801
1824.42197	0.24935
1822.49341	0.25066
1820.56484	0.25184
1818.63628	0.25317
1816.70771	0.25480
1814.77915	0.25645
1812.85059	0.25821
1810.92202	0.26024
1808.99346	0.26233
1807.06489	0.26425
1805.13633	0.26604
1803.20776	0.26813
1801.27920	0.27059
1799.35063	0.27333
1797.42207	0.27581
1795.49351	0.27818
1793.56494	0.28090
1791.63638	0.28449
1789.70781	0.28812
1787.77925	0.29091
1785.85068	0.29405
1783.92212	0.29763
1781.99355	0.30145
1780.06499	0.30559
1778.13643	0.30988
1776.20786	0.31379
1774.27930	0.31787
1772.35073	0.32356
1770.42217	0.33004
1768.49360	0.33547
1766.56504	0.34057
1764.63647	0.34578
1762.70791	0.35141
1760.77935	0.35865
1758.85078	0.36570
1756.92222	0.37291
1754.99365	0.38074
1753.06509	0.38764
1751.13652	0.39561
1749.20796	0.40579
1747.27939	0.41613
1745.35083	0.42534
1743.42227	0.43494
1741.49370	0.44539
1739.56514	0.45794
1737.63657	0.47060
1735.70801	0.48140
1733.77944	0.49748
1731.85088	0.51713
1729.92231	0.53283
1727.99375	0.54867
1726.06519	0.56557
1724.13662	0.58378
1722.20806	0.60337
1720.27949	0.62124
1718.35093	0.64195
1716.42236	0.67345
1714.49380	0.70430
1712.56523	0.72946
1710.63667	0.75376
1708.70811	0.77980
1706.77954	0.80928
1704.85098	0.84471
1702.92241	0.87653
1700.99385	0.90785
1699.06528	0.95454
1697.13672	0.99845
1695.20815	1.04501
1693.27959	1.09053
1691.35103	1.12691
1689.42246	1.16886
1687.49390	1.21350
1685.56533	1.25680
1683.63677	1.32438
1681.70820	1.39513
1679.77964	1.44021
1677.85107	1.48277
1675.92251	1.53191
1673.99395	1.59379
1672.06538	1.64932
1670.13682	1.70359
1668.20825	1.77563
1666.27969	1.83563
1664.35112	1.88659
1662.42256	1.95113
1660.49399	2.02477
1658.56543	2.08273
1656.63687	2.12923
1654.70830	2.16946
1652.77974	2.22807
1650.85117	2.28511
1648.92261	2.30712
1646.99404	2.33280
1645.06548	2.35663
1643.13691	2.36995
1641.20835	2.37565
1639.27979	2.38077
1637.35122	2.38212
1635.42266	2.37688
1633.49409	2.36717
1631.56553	2.35218
1629.63696	2.33330
1627.70840	2.30360
1625.77983	2.26792
1623.85127	2.22048
1621.92271	2.16274
1619.99414	2.11306
1618.06558	2.06562
1616.13701	1.99795
1614.20845	1.92923
1612.27988	1.87748
1610.35132	1.82433
1608.42275	1.76712
1606.49419	1.71117
1604.56562	1.66041
1602.63706	1.61163
1600.70850	1.56388
1598.77993	1.52036
1596.85137	1.47980
1594.92280	1.43994
1592.99424	1.40131
1591.06567	1.36668
1589.13711	1.33477
1587.20854	1.30503
1585.27998	1.27767
1583.35142	1.25259
1581.42285	1.23013
1579.49429	1.21125
1577.56572	1.19481
1575.63716	1.17609
1573.70859	1.16049
1571.78003	1.15066
1569.85146	1.14123
1567.92290	1.13204
1565.99434	1.12639
1564.06577	1.12330
1562.13721	1.12156
1560.20864	1.12241
1558.28008	1.13058
1556.35151	1.13931
1554.42295	1.14349
1552.49438	1.14785
1550.56582	1.15075
1548.63726	1.15014
1546.70869	1.14543
1544.78013	1.13658
1542.85156	1.12394
1540.92300	1.10432
1538.99443	1.07230
1537.06587	1.04844
1535.13730	1.03178
1533.20874	1.00899
1531.28018	0.98444
1529.35161	0.96678
1527.42305	0.95057
1525.49448	0.93380
1523.56592	0.91916
1521.63735	0.90538
1519.70879	0.89217
1517.78022	0.88122
1515.85166	0.86831
1513.92310	0.85436
1511.99453	0.84181
1510.06597	0.83019
1508.13740	0.81850
1506.20884	0.80086
1504.28027	0.78664
1502.35171	0.77913
1500.42314	0.77244
1498.49458	0.76504
1496.56602	0.75625
1494.63745	0.74754
1492.70889	0.74081
1490.78032	0.73498
1488.85176	0.72869
1486.92319	0.72314
1484.99463	0.71885
1483.06606	0.71545
1481.13750	0.71282
1479.20894	0.71114
1477.28037	0.71058
1475.35181	0.71108
1473.42324	0.71239
1471.49468	0.71297
1469.56611	0.71177
1467.63755	0.70978
1465.70898	0.70801
1463.78042	0.70704
1461.85186	0.70670
1459.92329	0.70665
1457.99473	0.70682
1456.06616	0.70634
1454.13760	0.70402
1452.20903	0.70107
1450.28047	0.69819
1448.35190	0.69541
1446.42334	0.69231
1444.49478	0.68927
1442.56621	0.68633
1440.63765	0.68302
1438.70908	0.67949
1436.78052	0.67519
1434.85195	0.67031
1432.92339	0.66669
1430.99482	0.66460
1429.06626	0.66372
1427.13770	0.66369
1425.20913	0.66437
1423.28057	0.66557
1421.35200	0.66641
1419.42344	0.66678
1417.49487	0.66703
1415.56631	0.66681
1413.63774	0.66647
1411.70918	0.66669
1409.78062	0.66804
1407.85205	0.67018
1405.92349	0.67256
1403.99492	0.67460
1402.06636	0.67541
1400.13779	0.67496
1398.20923	0.67350
1396.28066	0.67081
1394.35210	0.66649
1392.42354	0.66131
1390.49497	0.65644
1388.56641	0.65160
1386.63784	0.64602
1384.70928	0.64004
1382.78071	0.63427
1380.85215	0.62883
1378.92358	0.62419
1376.99502	0.62073
1375.06646	0.61833
1373.13789	0.61664
1371.20933	0.61546
1369.28076	0.61458
1367.35220	0.61349
1365.42363	0.61200
1363.49507	0.61025
1361.56650	0.60840
1359.63794	0.60677
1357.70937	0.60542
1355.78081	0.60413
1353.85225	0.60297
1351.92368	0.60209
1349.99512	0.60139
1348.06655	0.60071
1346.13799	0.59990
1344.20942	0.59906
1342.28086	0.59831
1340.35229	0.59777
1338.42373	0.59731
1336.49517	0.59669
1334.56660	0.59615
1332.63804	0.59609
1330.70947	0.59659
1328.78091	0.59738
1326.85234	0.59821
1324.92378	0.59921
1322.99521	0.60040
1321.06665	0.60146
1319.13809	0.60231
1317.20952	0.60289
1315.28096	0.60308
1313.35239	0.60298
1311.42383	0.60265
1309.49526	0.60212
1307.56670	0.60158
1305.63813	0.60114
1303.70957	0.60074
1301.78101	0.60021
1299.85244	0.59943
1297.92388	0.59839
1295.99531	0.59705
1294.06675	0.59551
1292.13818	0.59404
1290.20962	0.59262
1288.28105	0.59126
1286.35249	0.59008
1284.42393	0.58883
1282.49536	0.58722
1280.56680	0.58542
1278.63823	0.58375
1276.70967	0.58233
1274.78110	0.58103
1272.85254	0.57979
1270.92397	0.57877
1268.99541	0.57800
1267.06685	0.57730
1265.13828	0.57654
1263.20972	0.57567
1261.28115	0.57467
1259.35259	0.57367
1257.42402	0.57281
1255.49546	0.57228
1253.56689	0.57208
1251.63833	0.57210
1249.70977	0.57229
1247.78120	0.57249
1245.85264	0.57235
1243.92407	0.57160
1241.99551	0.57038
1240.06694	0.56892
1238.13838	0.56709
1236.20981	0.56472
1234.28125	0.56208
1232.35269	0.55941
1230.42412	0.55683
1228.49556	0.55448
1226.56699	0.55223
1224.63843	0.55008
1222.70986	0.54822
1220.78130	0.54649
1218.85273	0.54471
1216.92417	0.54310
1214.99561	0.54188
1213.06704	0.54091
1211.13848	0.54014
1209.20991	0.53944
1207.28135	0.53860
1205.35278	0.53770
1203.42422	0.53680
1201.49565	0.53576
1199.56709	0.53470
1197.63853	0.53381
1195.70996	0.53310
1193.78140	0.53267
1191.85283	0.53235
1189.92427	0.53192
1187.99570	0.53145
1186.06714	0.53114
1184.13857	0.53124
1182.21001	0.53187
1180.28145	0.53292
1178.35288	0.53441
1176.42432	0.53627
1174.49575	0.53802
1172.56719	0.53919
1170.63862	0.53960
1168.71006	0.53943
1166.78149	0.53920
1164.85293	0.53911
1162.92437	0.53906
1160.99580	0.53905
1159.06724	0.53882
1157.13867	0.53816
1155.21011	0.53726
1153.28154	0.53611
1151.35298	0.53439
1149.42441	0.53202
1147.49585	0.52937
1145.56729	0.52673
1143.63872	0.52414
1141.71016	0.52175
1139.78159	0.51981
1137.85303	0.51832
1135.92446	0.51730
1133.99590	0.51677
1132.06733	0.51653
1130.13877	0.51655
1128.21021	0.51664
1126.28164	0.51624
1124.35308	0.51544
1122.42451	0.51488
1120.49595	0.51472
1118.56738	0.51483
1116.63882	0.51504
1114.71025	0.51534
1112.78169	0.51576
1110.85312	0.51616
1108.92456	0.51664
1106.99600	0.51749
1105.06743	0.51862
1103.13887	0.51978
1101.21030	0.52099
1099.28174	0.52248
1097.35317	0.52461
1095.42461	0.52759
1093.49604	0.53127
1091.56748	0.53573
1089.63892	0.54120
1087.71035	0.54775
1085.78179	0.55523
1083.85322	0.56283
1081.92466	0.56967
1079.99609	0.57511
1078.06753	0.57825
1076.13896	0.57845
1074.21040	0.57587
1072.28184	0.57107
1070.35327	0.56470
1068.42471	0.55750
1066.49614	0.55027
1064.56758	0.54362
1062.63901	0.53781
1060.71045	0.53277
1058.78188	0.52827
1056.85332	0.52398
1054.92476	0.51990
1052.99619	0.51655
1051.06763	0.51397
1049.13906	0.51180
1047.21050	0.51001
1045.28193	0.50883
1043.35337	0.50818
1041.42480	0.50762
1039.49624	0.50694
1037.56768	0.50627
1035.63911	0.50564
1033.71055	0.50486
1031.78198	0.50391
1029.85342	0.50286
1027.92485	0.50182
1025.99629	0.50094
1024.06772	0.50006
1022.13916	0.49923
1020.21060	0.49869
1018.28203	0.49836
1016.35347	0.49835
1014.42490	0.49864
1012.49634	0.49887
1010.56777	0.49912
1008.63921	0.49967
1006.71064	0.50063
1004.78208	0.50195
1002.85352	0.50367
1000.92495	0.50607
998.99639	0.50929
997.06782	0.51319
995.13926	0.51752
993.21069	0.52178
991.28213	0.52528
989.35356	0.52759
987.42500	0.52881
985.49644	0.52911
983.56787	0.52898
981.63931	0.52897
979.71074	0.52940
977.78218	0.53063
975.85361	0.53255
973.92505	0.53478
971.99648	0.53741
970.06792	0.54058
968.13936	0.54420
966.21079	0.54820
964.28223	0.55252
962.35366	0.55717
960.42510	0.56214
958.49653	0.56749
956.56797	0.57340
954.63940	0.57971
952.71084	0.58602
950.78228	0.59211
948.85371	0.59808
946.92515	0.60429
944.99658	0.61086
943.06802	0.61765
941.13945	0.62448
939.21089	0.63083
937.28232	0.63655
935.35376	0.64192
933.42520	0.64723
931.49663	0.65301
929.56807	0.65932
927.63950	0.66531
925.71094	0.67050
923.78237	0.67601
921.85381	0.68298
919.92524	0.69052
917.99668	0.69748
916.06812	0.70413
914.13955	0.71108
912.21099	0.71857
910.28242	0.72718
908.35386	0.73699
906.42529	0.74630
904.49673	0.75377
902.56816	0.76105
900.63960	0.76992
898.71104	0.78016
896.78247	0.79117
894.85391	0.80179
892.92534	0.81134
890.99678	0.82162
889.06821	0.83352
887.13965	0.84523
885.21108	0.85577
883.28252	0.86645
881.35396	0.87808
879.42539	0.89085
877.49683	0.90465
875.56826	0.91726
873.63970	0.92724
871.71113	0.93613
869.78257	0.94662
867.85400	0.95979
865.92544	0.97270
863.99687	0.98365
862.06831	0.99447
860.13975	1.00570
858.21118	1.01790
856.28262	1.03150
854.35405	1.04437
852.42549	1.05460
850.49692	1.06296
848.56836	1.07192
846.63979	1.08366
844.71123	1.09739
842.78267	1.10988
840.85410	1.12291
838.92554	1.13951
836.99697	1.15467
835.06841	1.16299
833.13984	1.16841
831.21128	1.17696
829.28271	1.18770
827.35415	1.19754
825.42559	1.20641
823.49702	1.21463
821.56846	1.22514
819.63989	1.24099
817.71133	1.25518
815.78276	1.26494
813.85420	1.27950
811.92563	1.30198
809.99707	1.32126
808.06851	1.32182
806.13994	1.31453
804.21138	1.32120
802.28281	1.34505
800.35425	1.38308
798.42568	1.42988
796.49712	1.46266
794.56855	1.45411
792.63999	1.39795
790.71143	1.32336
788.78286	1.28905
786.85430	1.30815
784.92573	1.35234
782.99717	1.43224
781.06860	1.52571
779.14004	1.50124
777.21147	1.42125
775.28291	1.38509
773.35435	1.37681
771.42578	1.37218
769.49722	1.37216
767.56865	1.43681
765.64009	1.61776
763.71152	1.79052
761.78296	1.62275
759.85439	1.47666
757.92583	1.52741
755.99727	1.53942
754.06870	1.35162
752.14014	1.24849
750.21157	1.22796
748.28301	1.17118
746.35444	1.08484
744.42588	1.04335
742.49731	1.06878
740.56875	1.18174
738.64019	1.31023
736.71162	1.04042
734.78306	0.77290
732.85449	0.66368
730.92593	0.64091
728.99736	0.62817
727.06880	0.62424
725.14023	0.71137
723.21167	1.01671
721.28311	4.32770
719.35454	4.31613
717.42598	0.97509
715.49741	0.50903
713.56885	0.48241
711.64028	0.78568
709.71172	0.32768
707.78315	0.13347
705.85459	0.13988
703.92603	0.22061
701.99746	0.23250
700.06890	0.16583
698.14033	0.14090
696.21177	0.10962
694.28320	0.10059
692.35464	0.18230
690.42607	0.35567
688.49751	0.27986
686.56895	0.09291
684.64038	0.15024
682.71182	0.26632
680.78325	0.33065
678.85469	0.48513
676.92612	0.62533
674.99756	0.38001
673.06899	0.22374
671.14043	0.12362
669.21187	0.14422
667.28330	0.26258
665.35474	0.34745
663.42617	0.42196
661.49761	0.49916
659.56904	0.50247
657.64048	0.44728
655.71191	0.32506
653.78335	0.20709
651.85479	0.10894
649.92622	0.07086
647.99766	0.17642
646.06909	0.20195
644.14053	0.15368
642.21196	0.14436
640.28340	0.12476
638.35483	0.10243
636.42627	0.15552
634.49771	0.26545
632.56914	0.29384
630.64058	0.25609
628.71201	0.21774
626.78345	0.25760
624.85488	0.36159
622.92632	0.49619
620.99775	0.66617
619.06919	0.61470
617.14062	0.42554
615.21206	0.23992
613.28350	0.12945
611.35493	0.11188
609.42637	0.17046
607.49780	0.19859
605.56924	0.13001
603.64067	0.08371
601.71211	0.19477
599.78354	0.36568
597.85498	0.35727
595.92642	0.23729
593.99785	0.11061
592.06929	0.08793
590.14072	0.09020
588.21216	0.10128
586.28359	0.17569
584.35503	0.26284
582.42646	0.28741
580.49790	0.25961
578.56934	0.19144
576.64077	0.18514
574.71221	0.20083
572.78364	0.21606
570.85508	0.37598
568.92651	3.41356
566.99795	3.40199
565.06938	0.51079
563.14082	0.32582
561.21226	0.30183
559.28369	0.33815
557.35513	0.31349
555.42656	0.18268
553.49800	0.13440
551.56943	0.20253
549.64087	0.26533
547.71230	0.27360
545.78374	0.31655
543.85518	0.33987
541.92661	0.29743
539.99805	0.23583
538.06948	0.23283
536.14092	0.29985
534.21235	0.31712
532.28379	0.23642
530.35522	0.19867
528.42666	0.25838
526.49810	0.42793
524.56953	0.40555
522.64097	0.31157
520.71240	0.34621
518.78384	0.91502
516.85527	3.10113
514.92671	3.08956
512.99814	0.37341
511.06958	0.24295
509.14102	0.28909
507.21245	0.40325
505.28389	0.47202
503.35532	0.43843
501.42676	0.33431
499.49819	0.23065
