3997.91411	0.06075
3995.98555	0.06122
3994.05698	0.06167
3992.12842	0.06207
3990.19985	0.06256
3988.27129	0.06283
3986.34272	0.06273
3984.41416	0.06279
3982.48560	0.06345
3980.55703	0.06403
3978.62847	0.06400
3976.69990	0.06413
3974.77134	0.06470
3972.84277	0.06500
3970.91421	0.06477
3968.98564	0.06453
3967.05708	0.06449
3965.12852	0.06457
3963.19995	0.06498
3961.27139	0.06548
3959.34282	0.06565
3957.41426	0.06570
3955.48569	0.06599
3953.55713	0.06624
3951.62856	0.06615
3949.70000	0.06616
3947.77144	0.06639
3945.84287	0.06613
3943.91431	0.06556
3941.98574	0.06537
3940.05718	0.06538
3938.12861	0.06534
3936.20005	0.06522
3934.27148	0.06512
3932.34292	0.06513
3930.41436	0.06516
3928.48579	0.06541
3926.55723	0.06585
3924.62866	0.06627
3922.70010	0.06659
3920.77153	0.06663
3918.84297	0.06644
3916.91440	0.06606
3914.98584	0.06542
3913.05728	0.06467
3911.12871	0.06429
3909.20015	0.06434
3907.27158	0.06454
3905.34302	0.06529
3903.41445	0.06654
3901.48589	0.06701
3899.55732	0.06688
3897.62876	0.06638
3895.70020	0.06531
3893.77163	0.06472
3891.84307	0.06523
3889.91450	0.06582
3887.98594	0.06558
3886.05737	0.06573
3884.12881	0.06632
3882.20024	0.06634
3880.27168	0.06666
3878.34312	0.06714
3876.41455	0.06682
3874.48599	0.06667
3872.55742	0.06741
3870.62886	0.06852
3868.70029	0.06930
3866.77173	0.06917
3864.84316	0.06897
3862.91460	0.06927
3860.98604	0.06937
3859.05747	0.06928
3857.12891	0.06955
3855.20034	0.07032
3853.27178	0.07174
3851.34321	0.07294
3849.41465	0.07247
3847.48608	0.07159
3845.55752	0.07135
3843.62896	0.07226
3841.70039	0.07416
3839.77183	0.07619
3837.84326	0.07762
3835.91470	0.07762
3833.98613	0.07683
3832.05757	0.07653
3830.12900	0.07697
3828.20044	0.07794
3826.27187	0.07917
3824.34331	0.08022
3822.41475	0.08098
3820.48618	0.08232
3818.55762	0.08349
3816.62905	0.08381
3814.70049	0.08420
3812.77192	0.08429
3810.84336	0.08425
3808.91479	0.08488
3806.98623	0.08674
3805.05767	0.08894
3803.12910	0.09031
3801.20054	0.09238
3799.27197	0.09452
3797.34341	0.09473
3795.41484	0.09486
3793.48628	0.09551
3791.55771	0.09611
3789.62915	0.09688
3787.70059	0.09787
3785.77202	0.09921
3783.84346	0.10094
3781.91489	0.10249
3779.98633	0.10403
3778.05776	0.10601
3776.12920	0.10751
3774.20063	0.10834
3772.27207	0.10933
3770.34351	0.11107
3768.41494	0.11339
3766.48638	0.11550
3764.55781	0.11748
3762.62925	0.11938
3760.70068	0.12165
3758.77212	0.12471
3756.84355	0.12749
3754.91499	0.12947
3752.98643	0.13199
3751.05786	0.13636
3749.12930	0.14137
3747.20073	0.14362
3745.27217	0.14484
3743.34360	0.14793
3741.41504	0.15173
3739.48647	0.15452
3737.55791	0.15805
3735.62935	0.16416
3733.70078	0.17113
3731.77222	0.17569
3729.84365	0.17935
3727.91509	0.18333
3725.98652	0.18838
3724.05796	0.19457
3722.12939	0.20099
3720.20083	0.20761
3718.27227	0.21406
3716.34370	0.22032
3714.41514	0.22709
3712.48657	0.23625
3710.55801	0.25013
3708.62944	0.26489
3706.70088	0.27634
3704.77231	0.28722
3702.84375	0.30014
3700.91519	0.31652
3698.98662	0.33419
3697.05806	0.35130
3695.12949	0.36955
3693.20093	0.38872
3691.27236	0.40970
3689.34380	0.43704
3687.41523	0.47035
3685.48667	0.49950
3683.55811	0.52488
3681.62954	0.55222
3679.70098	0.58287
3677.77241	0.61518
3675.84385	0.65395
3673.91528	0.70638
3671.98672	0.74887
3670.05815	0.78658
3668.12959	0.83903
3666.20103	0.88679
3664.27246	0.92637
3662.34390	0.96908
3660.41533	1.01534
3658.48677	1.06058
3656.55820	1.10854
3654.62964	1.16281
3652.70107	1.20897
3650.77251	1.24898
3648.84395	1.30411
3646.91538	1.37162
3644.98682	1.42047
3643.05825	1.45804
3641.12969	1.49735
3639.20112	1.54115
3637.27256	1.58540
3635.34399	1.62886
3633.41543	1.67226
3631.48687	1.71203
3629.55830	1.75170
3627.62974	1.80417
3625.70117	1.85385
3623.77261	1.88780
3621.84404	1.92031
3619.91548	1.95706
3617.98691	2.00147
3616.05835	2.04528
3614.12979	2.08201
3612.20122	2.12091
3610.27266	2.16103
3608.34409	2.20120
3606.41553	2.24341
3604.48696	2.28219
3602.55840	2.31716
3600.62983	2.35543
3598.70127	2.39599
3596.77271	2.43431
3594.84414	2.47430
3592.91558	2.51733
3590.98701	2.55684
3589.05845	2.59236
3587.12988	2.63545
3585.20132	2.68476
3583.27275	2.72704
3581.34419	2.76466
3579.41562	2.80331
3577.48706	2.84397
3575.55850	2.88600
3573.62993	2.92965
3571.70137	2.97235
3569.77280	3.01248
3567.84424	3.05334
3565.91567	3.10326
3563.98711	3.15377
3562.05854	3.19562
3560.12998	3.23724
3558.20142	3.28210
3556.27285	3.32767
3554.34429	3.37186
3552.41572	3.41806
3550.48716	3.46656
3548.55859	3.51237
3546.63003	3.55505
3544.70146	3.60049
3542.77290	3.64894
3540.84434	3.69650
3538.91577	3.74477
3536.98721	3.79339
3535.05864	3.84052
3533.13008	3.88592
3531.20151	3.93371
3529.27295	3.98537
3527.34438	4.03627
3525.41582	4.08158
3523.48726	4.12653
3521.55869	4.17708
3519.63013	4.22685
3517.70156	4.27173
3515.77300	4.31507
3513.84443	4.36381
3511.91587	4.41880
3509.98730	4.47372
3508.05874	4.52317
3506.13018	4.56479
3504.20161	4.60416
3502.27305	4.65051
3500.34448	4.70391
3498.41592	4.75564
3496.48735	4.80466
3494.55879	4.85350
3492.63022	4.89816
3490.70166	4.93866
3488.77310	4.98255
3486.84453	5.03466
3484.91597	5.09103
3482.98740	5.14111
3481.05884	5.18542
3479.13027	5.23292
3477.20171	5.28531
3475.27314	5.33786
3473.34458	5.38824
3471.41602	5.43761
3469.48745	5.48459
3467.55889	5.52767
3465.63032	5.56584
3463.70176	5.60505
3461.77319	5.64872
3459.84463	5.69999
3457.91606	5.75913
3455.98750	5.81470
3454.05894	5.86922
3452.13037	5.92975
3450.20181	5.98652
3448.27324	6.03542
3446.34468	6.08963
3444.41611	6.13730
3442.48755	6.16286
3440.55898	6.19575
3438.63042	6.25137
3436.70186	6.30305
3434.77329	6.35617
3432.84473	6.42004
3430.91616	6.45681
3428.98760	6.47894
3427.05903	6.53367
3425.13047	6.61733
3423.20190	6.69442
3421.27334	6.74931
3419.34478	6.78490
3417.41621	6.80995
3415.48765	6.83816
3413.55908	6.86529
3411.63052	6.89702
3409.70195	6.96207
3407.77339	7.05959
3405.84482	7.14646
3403.91626	7.20014
3401.98770	7.20777
3400.05913	7.19532
3398.13057	7.21748
3396.20200	7.27198
3394.27344	7.32389
3392.34487	7.34763
3390.41631	7.35154
3388.48774	7.35970
3386.55918	7.38778
3384.63062	7.41954
3382.70205	7.47312
3380.77349	7.54817
3378.84492	7.59825
3376.91636	7.62521
3374.98779	7.62769
3373.05923	7.64385
3371.13066	7.68547
3369.20210	7.73244
3367.27354	7.80117
3365.34497	7.88802
3363.41641	7.94060
3361.48784	7.90672
3359.55928	7.84298
3357.63071	7.83854
3355.70215	7.88501
3353.77358	7.91638
3351.84502	7.93404
3349.91646	7.99334
3347.98789	8.10326
3346.05933	8.12763
3344.13076	8.06302
3342.20220	8.06561
3340.27363	8.09049
3338.34507	8.05527
3336.41650	8.01524
3334.48794	8.00533
3332.55937	7.99920
3330.63081	8.07353
3328.70225	8.20905
3326.77368	8.22034
3324.84512	8.12451
3322.91655	8.07233
3320.98799	8.06622
3319.05942	8.03137
3317.13086	8.01183
3315.20229	8.02537
3313.27373	8.04937
3311.34517	8.06298
3309.41660	8.07066
3307.48804	8.09632
3305.55947	8.09346
3303.63091	8.11386
3301.70234	8.19650
3299.77378	8.22517
3297.84521	8.15194
3295.91665	8.09205
3293.98809	8.07583
3292.05952	8.04106
3290.13096	7.97969
3288.20239	7.99994
3286.27383	8.13527
3284.34526	8.16165
3282.41670	8.03766
3280.48813	7.98516
3278.55957	8.12532
3276.63101	8.38417
3274.70244	8.42736
3272.77388	8.21169
3270.84531	8.08932
3268.91675	8.11104
3266.98818	8.15668
3265.05962	8.20729
3263.13105	8.20062
3261.20249	8.11837
3259.27393	8.04924
3257.34536	8.06032
3255.41680	8.11044
3253.48823	8.08703
3251.55967	8.04120
3249.63110	8.09595
3247.70254	8.21363
3245.77397	8.26072
3243.84541	8.21705
3241.91685	8.06761
3239.98828	7.91735
3238.05972	7.94725
3236.13115	8.10006
3234.20259	8.18902
3232.27402	8.17411
3230.34546	8.12514
3228.41689	8.10242
3226.48833	8.14744
3224.55977	8.20933
3222.63120	8.22318
3220.70264	8.22070
3218.77407	8.16079
3216.84551	8.02321
3214.91694	7.94064
3212.98838	7.93299
3211.05981	7.87571
3209.13125	7.77655
3207.20269	7.76429
3205.27412	7.81990
3203.34556	7.79261
3201.41699	7.73279
3199.48843	7.78490
3197.55986	7.85754
3195.63130	7.82206
3193.70273	7.74718
3191.77417	7.66416
3189.84561	7.56750
3187.91704	7.51124
3185.98848	7.51152
3184.05991	7.51342
3182.13135	7.46342
3180.20278	7.35971
3178.27422	7.23771
3176.34565	7.15618
3174.41709	7.11302
3172.48853	7.08737
3170.55996	7.08684
3168.63140	7.05460
3166.70283	6.96711
3164.77427	6.87999
3162.84570	6.81434
3160.91714	6.75270
3158.98857	6.68858
3157.06001	6.63230
3155.13145	6.57536
3153.20288	6.51184
3151.27432	6.44866
3149.34575	6.37766
3147.41719	6.30288
3145.48862	6.23860
3143.56006	6.16935
3141.63149	6.08547
3139.70293	6.00544
3137.77437	5.93436
3135.84580	5.86581
3133.91724	5.79786
3131.98867	5.72848
3130.06011	5.66090
3128.13154	5.59222
3126.20298	5.51409
3124.27441	5.43731
3122.34585	5.37269
3120.41729	5.30766
3118.48872	5.23411
3116.56016	5.15929
3114.63159	5.08502
3112.70303	5.01264
3110.77446	4.94502
3108.84590	4.88096
3106.91733	4.81809
3104.98877	4.75143
3103.06021	4.67897
3101.13164	4.60665
3099.20308	4.54014
3097.27451	4.47556
3095.34595	4.40724
3093.41738	4.33694
3091.48882	4.27041
3089.56025	4.20930
3087.63169	4.14909
3085.70312	4.08709
3083.77456	4.02345
3081.84600	3.95798
3079.91743	3.89165
3077.98887	3.82770
3076.06030	3.76906
3074.13174	3.71297
3072.20317	3.65384
3070.27461	3.59309
3068.34604	3.53523
3066.41748	3.47877
3064.48892	3.42155
3062.56035	3.36493
3060.63179	3.31000
3058.70322	3.25512
3056.77466	3.20028
3054.84609	3.14762
3052.91753	3.09608
3050.98896	3.04460
3049.06040	2.99306
3047.13184	2.94089
3045.20327	2.88957
3043.27471	2.84040
3041.34614	2.79214
3039.41758	2.74476
3037.48901	2.69920
3035.56045	2.65372
3033.63188	2.60787
3031.70332	2.56297
3029.77476	2.51867
3027.84619	2.47431
3025.91763	2.42988
3023.98906	2.38626
3022.06050	2.34374
3020.13193	2.30168
3018.20337	2.26019
3016.27480	2.22005
3014.34624	2.18135
3012.41768	2.14302
3010.48911	2.10506
3008.56055	2.06808
3006.63198	2.03163
3004.70342	1.99555
3002.77485	1.95993
3000.84629	1.92490
2998.91772	1.89057
2996.98916	1.85700
2995.06060	1.82438
2993.13203	1.79279
2991.20347	1.76202
2989.27490	1.73192
2987.34634	1.70209
2985.41777	1.67208
2983.48921	1.64228
2981.56064	1.61308
2979.63208	1.58470
2977.70352	1.55729
2975.77495	1.53038
2973.84639	1.50392
2971.91782	1.47847
2969.98926	1.45372
2968.06069	1.42898
2966.13213	1.40411
2964.20356	1.37947
2962.27500	1.35538
2960.34644	1.33183
2958.41787	1.30866
2956.48931	1.28551
2954.56074	1.26220
2952.63218	1.23876
2950.70361	1.21551
2948.77505	1.19313
2946.84648	1.17180
2944.91792	1.15104
2942.98936	1.13029
2941.06079	1.10959
2939.13223	1.08974
2937.20366	1.07064
2935.27510	1.05139
2933.34653	1.03211
2931.41797	1.01344
2929.48940	0.99515
2927.56084	0.97673
2925.63228	0.95831
2923.70371	0.94022
2921.77515	0.92247
2919.84658	0.90537
2917.91802	0.88906
2915.98945	0.87275
2914.06089	0.85645
2912.13232	0.84118
2910.20376	0.82682
2908.27520	0.81227
2906.34663	0.79730
2904.41807	0.78260
2902.48950	0.76848
2900.56094	0.75479
2898.63237	0.74164
2896.70381	0.72896
2894.77524	0.71642
2892.84668	0.70400
2890.91812	0.69186
2888.98955	0.68014
2887.06099	0.66879
2885.13242	0.65779
2883.20386	0.64746
2881.27529	0.63780
2879.34673	0.62811
2877.41816	0.61799
2875.48960	0.60768
2873.56104	0.59741
2871.63247	0.58715
2869.70391	0.57694
2867.77534	0.56681
2865.84678	0.55641
2863.91821	0.54570
2861.98965	0.53509
2860.06108	0.52499
2858.13252	0.51555
2856.20396	0.50639
2854.27539	0.49745
2852.34683	0.48910
2850.41826	0.48098
2848.48970	0.47277
2846.56113	0.46484
2844.63257	0.45731
2842.70400	0.45019
2840.77544	0.44371
2838.84687	0.43750
2836.91831	0.43125
2834.98975	0.42526
2833.06118	0.41941
2831.13262	0.41337
2829.20405	0.40727
2827.27549	0.40129
2825.34692	0.39543
2823.41836	0.38963
2821.48979	0.38388
2819.56123	0.37809
2817.63267	0.37226
2815.70410	0.36659
2813.77554	0.36112
2811.84697	0.35591
2809.91841	0.35100
2807.98984	0.34607
2806.06128	0.34089
2804.13271	0.33576
2802.20415	0.33081
2800.27559	0.32587
2798.34702	0.32100
2796.41846	0.31639
2794.48989	0.31203
2792.56133	0.30780
2790.63276	0.30371
2788.70420	0.29966
2786.77563	0.29544
2784.84707	0.29102
2782.91851	0.28662
2780.98994	0.28257
2779.06138	0.27895
2777.13281	0.27546
2775.20425	0.27182
2773.27568	0.26814
2771.34712	0.26457
2769.41855	0.26108
2767.48999	0.25755
2765.56143	0.25421
2763.63286	0.25113
2761.70430	0.24793
2759.77573	0.24467
2757.84717	0.24169
2755.91860	0.23887
2753.99004	0.23595
2752.06147	0.23309
2750.13291	0.23039
2748.20435	0.22762
2746.27578	0.22477
2744.34722	0.22204
2742.41865	0.21943
2740.49009	0.21693
2738.56152	0.21460
2736.63296	0.21229
2734.70439	0.20982
2732.77583	0.20733
2730.84727	0.20502
2728.91870	0.20282
2726.99014	0.20061
2725.06157	0.19845
2723.13301	0.19642
2721.20444	0.19455
2719.27588	0.19268
2717.34731	0.19080
2715.41875	0.18906
2713.49019	0.18737
2711.56162	0.18564
2709.63306	0.18399
2707.70449	0.18253
2705.77593	0.18122
2703.84736	0.17983
2701.91880	0.17824
2699.99023	0.17656
2698.06167	0.17501
2696.13311	0.17370
2694.20454	0.17252
2692.27598	0.17126
2690.34741	0.16988
2688.41885	0.16852
2686.49028	0.16724
2684.56172	0.16599
2682.63315	0.16482
2680.70459	0.16384
2678.77603	0.16298
2676.84746	0.16199
2674.91890	0.16082
2672.99033	0.15975
2671.06177	0.15884
2669.13320	0.15795
2667.20464	0.15706
2665.27607	0.15611
2663.34751	0.15522
2661.41895	0.15451
2659.49038	0.15381
2657.56182	0.15321
2655.63325	0.15268
2653.70469	0.15194
2651.77612	0.15106
2649.84756	0.15023
2647.91899	0.14947
2645.99043	0.14894
2644.06187	0.14857
2642.13330	0.14816
2640.20474	0.14771
2638.27617	0.14723
2636.34761	0.14674
2634.41904	0.14641
2632.49048	0.14621
2630.56191	0.14584
2628.63335	0.14543
2626.70479	0.14520
2624.77622	0.14500
2622.84766	0.14467
2620.91909	0.14434
2618.99053	0.14412
2617.06196	0.14394
2615.13340	0.14373
2613.20483	0.14354
2611.27627	0.14344
2609.34771	0.14345
2607.41914	0.14353
2605.49058	0.14365
2603.56201	0.14371
2601.63345	0.14362
2599.70488	0.14342
2597.77632	0.14331
2595.84775	0.14339
2593.91919	0.14361
2591.99062	0.14381
2590.06206	0.14394
2588.13350	0.14407
2586.20493	0.14427
2584.27637	0.14453
2582.34780	0.14474
2580.41924	0.14503
2578.49067	0.14536
2576.56211	0.14560
2574.63354	0.14589
2572.70498	0.14635
2570.77642	0.14685
2568.84785	0.14719
2566.91929	0.14743
2564.99072	0.14775
2563.06216	0.14826
2561.13359	0.14888
2559.20503	0.14941
2557.27646	0.14982
2555.34790	0.15022
2553.41934	0.15085
2551.49077	0.15156
2549.56221	0.15214
2547.63364	0.15265
2545.70508	0.15319
2543.77651	0.15378
2541.84795	0.15449
2539.91938	0.15519
2537.99082	0.15578
2536.06226	0.15635
2534.13369	0.15705
2532.20513	0.15779
2530.27656	0.15850
2528.34800	0.15925
2526.41943	0.15996
2524.49087	0.16056
2522.56230	0.16115
2520.63374	0.16187
2518.70518	0.16266
2516.77661	0.16339
2514.84805	0.16419
2512.91948	0.16517
2510.99092	0.16611
2509.06235	0.16695
2507.13379	0.16781
2505.20522	0.16864
2503.27666	0.16938
2501.34810	0.17013
2499.41953	0.17090
2497.49097	0.17176
2495.56240	0.17269
2493.63384	0.17363
2491.70527	0.17460
2489.77671	0.17561
2487.84814	0.17651
2485.91958	0.17720
2483.99102	0.17788
2482.06245	0.17879
2480.13389	0.17979
2478.20532	0.18065
2476.27676	0.18147
2474.34819	0.18235
2472.41963	0.18326
2470.49106	0.18417
2468.56250	0.18498
2466.63394	0.18576
2464.70537	0.18675
2462.77681	0.18786
2460.84824	0.18889
2458.91968	0.18982
2456.99111	0.19076
2455.06255	0.19175
2453.13398	0.19270
2451.20542	0.19363
2449.27686	0.19452
2447.34829	0.19536
2445.41973	0.19623
2443.49116	0.19726
2441.56260	0.19840
2439.63403	0.19961
2437.70547	0.20085
2435.77690	0.20200
2433.84834	0.20310
2431.91978	0.20425
2429.99121	0.20534
2428.06265	0.20630
2426.13408	0.20735
2424.20552	0.20856
2422.27695	0.20973
2420.34839	0.21070
2418.41982	0.21166
2416.49126	0.21274
2414.56270	0.21385
2412.63413	0.21500
2410.70557	0.21614
2408.77700	0.21722
2406.84844	0.21833
2404.91987	0.21956
2402.99131	0.22087
2401.06274	0.22215
2399.13418	0.22335
2397.20562	0.22457
2395.27705	0.22583
2393.34849	0.22699
2391.41992	0.22823
2389.49136	0.22972
2387.56279	0.23134
2385.63423	0.23310
2383.70566	0.23539
2381.77710	0.23844
2379.84854	0.24206
2377.91997	0.24607
2375.99141	0.25064
2374.06284	0.25599
2372.13428	0.26196
2370.20571	0.26823
2368.27715	0.27422
2366.34858	0.27933
2364.42002	0.28432
2362.49146	0.28931
2360.56289	0.29274
2358.63433	0.29482
2356.70576	0.29563
2354.77720	0.29400
2352.84863	0.29043
2350.92007	0.28584
2348.99150	0.28258
2347.06294	0.28285
2345.13437	0.28747
2343.20581	0.29429
2341.27725	0.29877
2339.34868	0.30029
2337.42012	0.30084
2335.49155	0.30177
2333.56299	0.30291
2331.63442	0.30410
2329.70586	0.30489
2327.77729	0.30482
2325.84873	0.30432
2323.92017	0.30368
2321.99160	0.30288
2320.06304	0.30218
2318.13447	0.30196
2316.20591	0.30201
2314.27734	0.30217
2312.34878	0.30272
2310.42021	0.30364
2308.49165	0.30430
2306.56309	0.30458
2304.63452	0.30509
2302.70596	0.30618
2300.77739	0.30748
2298.84883	0.30863
2296.92026	0.30977
2294.99170	0.31109
2293.06313	0.31258
2291.13457	0.31404
2289.20601	0.31543
2287.27744	0.31683
2285.34888	0.31831
2283.42031	0.31983
2281.49175	0.32160
2279.56318	0.32375
2277.63462	0.32604
2275.70605	0.32821
2273.77749	0.33032
2271.84893	0.33249
2269.92036	0.33466
2267.99180	0.33678
2266.06323	0.33895
2264.13467	0.34097
2262.20610	0.34269
2260.27754	0.34448
2258.34897	0.34662
2256.42041	0.34884
2254.49185	0.35096
2252.56328	0.35301
2250.63472	0.35506
2248.70615	0.35724
2246.77759	0.35947
2244.84902	0.36164
2242.92046	0.36375
2240.99189	0.36588
2239.06333	0.36806
2237.13477	0.37026
2235.20620	0.37241
2233.27764	0.37457
2231.34907	0.37679
2229.42051	0.37903
2227.49194	0.38130
2225.56338	0.38352
2223.63481	0.38567
2221.70625	0.38782
2219.77769	0.38993
2217.84912	0.39205
2215.92056	0.39430
2213.99199	0.39664
2212.06343	0.39896
2210.13486	0.40113
2208.20630	0.40307
2206.27773	0.40504
2204.34917	0.40723
2202.42061	0.40940
2200.49204	0.41149
2198.56348	0.41358
2196.63491	0.41563
2194.70635	0.41770
2192.77778	0.41969
2190.84922	0.42143
2188.92065	0.42305
2186.99209	0.42477
2185.06353	0.42661
2183.13496	0.42840
2181.20640	0.43008
2179.27783	0.43181
2177.34927	0.43356
2175.42070	0.43505
2173.49214	0.43639
2171.56357	0.43781
2169.63501	0.43918
2167.70645	0.44039
2165.77788	0.44153
2163.84932	0.44270
2161.92075	0.44391
2159.99219	0.44513
2158.06362	0.44625
2156.13506	0.44731
2154.20649	0.44835
2152.27793	0.44928
2150.34937	0.44994
2148.42080	0.45045
2146.49224	0.45098
2144.56367	0.45144
2142.63511	0.45170
2140.70654	0.45184
2138.77798	0.45203
2136.84941	0.45223
2134.92085	0.45235
2132.99229	0.45232
2131.06372	0.45226
2129.13516	0.45219
2127.20659	0.45194
2125.27803	0.45152
2123.34946	0.45103
2121.42090	0.45056
2119.49233	0.45005
2117.56377	0.44947
2115.63521	0.44875
2113.70664	0.44788
2111.77808	0.44695
2109.84951	0.44598
2107.92095	0.44485
2105.99238	0.44358
2104.06382	0.44231
2102.13525	0.44103
2100.20669	0.43983
2098.27812	0.43853
2096.34956	0.43693
2094.42100	0.43522
2092.49243	0.43364
2090.56387	0.43212
2088.63530	0.43044
2086.70674	0.42855
2084.77817	0.42665
2082.84961	0.42482
2080.92104	0.42289
2078.99248	0.42087
2077.06392	0.41882
2075.13535	0.41669
2073.20679	0.41445
2071.27822	0.41205
2069.34966	0.40962
2067.42109	0.40730
2065.49253	0.40514
2063.56396	0.40293
2061.63540	0.40050
2059.70684	0.39788
2057.77827	0.39534
2055.84971	0.39292
2053.92114	0.39044
2051.99258	0.38782
2050.06401	0.38515
2048.13545	0.38251
2046.20688	0.37990
2044.27832	0.37725
2042.34976	0.37456
2040.42119	0.37192
2038.49263	0.36929
2036.56406	0.36656
2034.63550	0.36376
2032.70693	0.36090
2030.77837	0.35807
2028.84980	0.35536
2026.92124	0.35265
2024.99268	0.34980
2023.06411	0.34689
2021.13555	0.34406
2019.20698	0.34139
2017.27842	0.33876
2015.34985	0.33604
2013.42129	0.33332
2011.49272	0.33062
2009.56416	0.32795
2007.63560	0.32527
2005.70703	0.32251
2003.77847	0.31976
2001.84990	0.31709
1999.92134	0.31449
1997.99277	0.31194
1996.06421	0.30944
1994.13564	0.30699
1992.20708	0.30461
1990.27852	0.30213
1988.34995	0.29955
1986.42139	0.29701
1984.49282	0.29455
1982.56426	0.29213
1980.63569	0.28980
1978.70713	0.28756
1976.77856	0.28541
1974.85000	0.28335
1972.92144	0.28122
1970.99287	0.27909
1969.06431	0.27709
1967.13574	0.27506
1965.20718	0.27298
1963.27861	0.27106
1961.35005	0.26916
1959.42148	0.26719
1957.49292	0.26529
1955.56436	0.26352
1953.63579	0.26188
1951.70723	0.26031
1949.77866	0.25872
1947.85010	0.25715
1945.92153	0.25567
1943.99297	0.25429
1942.06440	0.25286
1940.13584	0.25123
1938.20728	0.24964
1936.27871	0.24821
1934.35015	0.24696
1932.42158	0.24587
1930.49302	0.24476
1928.56445	0.24355
1926.63589	0.24241
1924.70732	0.24156
1922.77876	0.24084
1920.85020	0.23990
1918.92163	0.23893
1916.99307	0.23804
1915.06450	0.23709
1913.13594	0.23620
1911.20737	0.23558
1909.27881	0.23506
1907.35024	0.23438
1905.42168	0.23359
1903.49312	0.23290
1901.56455	0.23236
1899.63599	0.23183
1897.70742	0.23141
1895.77886	0.23121
1893.85029	0.23109
1891.92173	0.23080
1889.99316	0.23052
1888.06460	0.23019
1886.13604	0.22983
1884.20747	0.22958
1882.27891	0.22937
1880.35034	0.22921
1878.42178	0.22912
1876.49321	0.22913
1874.56465	0.22911
1872.63608	0.22921
1870.70752	0.22959
1868.77896	0.23028
1866.85039	0.23067
1864.92183	0.23049
1862.99326	0.23033
1861.06470	0.23045
1859.13613	0.23078
1857.20757	0.23112
1855.27900	0.23162
1853.35044	0.23217
1851.42187	0.23270
1849.49331	0.23329
1847.56475	0.23411
1845.63618	0.23517
1843.70762	0.23621
1841.77905	0.23688
1839.85049	0.23725
1837.92192	0.23792
1835.99336	0.23880
1834.06479	0.23976
1832.13623	0.24088
1830.20767	0.24248
1828.27910	0.24401
1826.35054	0.24494
1824.42197	0.24603
1822.49341	0.24721
1820.56484	0.24842
1818.63628	0.24978
1816.70771	0.25142
1814.77915	0.25314
1812.85059	0.25499
1810.92202	0.25710
1808.99346	0.25919
1807.06489	0.26109
1805.13633	0.26289
1803.20776	0.26510
1801.27920	0.26780
1799.35063	0.27077
1797.42207	0.27327
1795.49351	0.27555
1793.56494	0.27838
1791.63638	0.28210
1789.70781	0.28547
1787.77925	0.28787
1785.85068	0.29086
1783.92212	0.29460
1781.99355	0.29865
1780.06499	0.30287
1778.13643	0.30712
1776.20786	0.31108
1774.27930	0.31541
1772.35073	0.32131
1770.42217	0.32768
1768.49360	0.33301
1766.56504	0.33812
1764.63647	0.34328
1762.70791	0.34899
1760.77935	0.35650
1758.85078	0.36374
1756.92222	0.37097
1754.99365	0.37875
1753.06509	0.38578
1751.13652	0.39425
1749.20796	0.40504
1747.27939	0.41566
1745.35083	0.42481
1743.42227	0.43435
1741.49370	0.44490
1739.56514	0.45740
1737.63657	0.46998
1735.70801	0.48099
1733.77944	0.49745
1731.85088	0.51718
1729.92231	0.53264
1727.99375	0.54814
1726.06519	0.56488
1724.13662	0.58330
1722.20806	0.60326
1720.27949	0.62175
1718.35093	0.64345
1716.42236	0.67548
1714.49380	0.70559
1712.56523	0.72976
1710.63667	0.75354
1708.70811	0.77935
1706.77954	0.80851
1704.85098	0.84327
1702.92241	0.87427
1700.99385	0.90471
1699.06528	0.95011
1697.13672	0.99221
1695.20815	1.03557
1693.27959	1.07749
1691.35103	1.11127
1689.42246	1.15051
1687.49390	1.19200
1685.56533	1.23201
1683.63677	1.29354
1681.70820	1.35717
1679.77964	1.39796
1677.85107	1.43674
1675.92251	1.48127
1673.99395	1.53677
1672.06538	1.58627
1670.13682	1.63431
1668.20825	1.69659
1666.27969	1.74761
1664.35112	1.79105
1662.42256	1.84557
1660.49399	1.90736
1658.56543	1.95550
1656.63687	1.99363
1654.70830	2.02803
1652.77974	2.08307
1650.85117	2.13576
1648.92261	2.15499
1646.99404	2.18012
1645.06548	2.20937
1643.13691	2.23043
1641.20835	2.24335
1639.27979	2.25252
1637.35122	2.25469
1635.42266	2.25022
1633.49409	2.24359
1631.56553	2.23259
1629.63696	2.21751
1627.70840	2.19122
1625.77983	2.15904
1623.85127	2.11797
1621.92271	2.06815
1619.99414	2.02441
1618.06558	1.98213
1616.13701	1.92123
1614.20845	1.85826
1612.27988	1.81042
1610.35132	1.76066
1608.42275	1.70599
1606.49419	1.65185
1604.56562	1.60247
1602.63706	1.55501
1600.70850	1.50844
1598.77993	1.46557
1596.85137	1.42543
1594.92280	1.38620
1592.99424	1.34794
1591.06567	1.31313
1589.13711	1.28073
1587.20854	1.25021
1585.27998	1.22191
1583.35142	1.19588
1581.42285	1.17228
1579.49429	1.15203
1577.56572	1.13404
1575.63716	1.11195
1573.70859	1.09203
1571.78003	1.07916
1569.85146	1.06594
1567.92290	1.05099
1565.99434	1.03953
1564.06577	1.03080
1562.13721	1.02424
1560.20864	1.02011
1558.28008	1.01602
1556.35151	1.01221
1554.42295	1.00860
1552.49438	1.00464
1550.56582	1.00002
1548.63726	0.99392
1546.70869	0.98681
1544.78013	0.97821
1542.85156	0.96721
1540.92300	0.95151
1538.99443	0.92813
1537.06587	0.91156
1535.13730	0.90035
1533.20874	0.88541
1531.28018	0.86921
1529.35161	0.85745
1527.42305	0.84669
1525.49448	0.83555
1523.56592	0.82567
1521.63735	0.81571
1519.70879	0.80553
1517.78022	0.79739
1515.85166	0.78838
1513.92310	0.77896
1511.99453	0.77095
1510.06597	0.76380
1508.13740	0.75673
1506.20884	0.74519
1504.28027	0.73480
1502.35171	0.72903
1500.42314	0.72423
1498.49458	0.71943
1496.56602	0.71387
1494.63745	0.70791
1492.70889	0.70307
1490.78032	0.69906
1488.85176	0.69457
1486.92319	0.68986
1484.99463	0.68599
1483.06606	0.68311
1481.13750	0.68083
1479.20894	0.67892
1477.28037	0.67752
1475.35181	0.67672
1473.42324	0.67638
1471.49468	0.67527
1469.56611	0.67310
1467.63755	0.67092
1465.70898	0.66897
1463.78042	0.66708
1461.85186	0.66558
1459.92329	0.66494
1457.99473	0.66479
1456.06616	0.66335
1454.13760	0.66060
1452.20903	0.65807
1450.28047	0.65554
1448.35190	0.65303
1446.42334	0.65047
1444.49478	0.64801
1442.56621	0.64582
1440.63765	0.64366
1438.70908	0.64152
1436.78052	0.63898
1434.85195	0.63574
1432.92339	0.63294
1430.99482	0.63106
1429.06626	0.62982
1427.13770	0.62896
1425.20913	0.62851
1423.28057	0.62842
1421.35200	0.62816
1419.42344	0.62777
1417.49487	0.62727
1415.56631	0.62609
1413.63774	0.62490
1411.70918	0.62433
1409.78062	0.62434
1407.85205	0.62462
1405.92349	0.62514
1403.99492	0.62559
1402.06636	0.62531
1400.13779	0.62424
1398.20923	0.62270
1396.28066	0.62091
1394.35210	0.61830
1392.42354	0.61501
1390.49497	0.61195
1388.56641	0.60902
1386.63784	0.60561
1384.70928	0.60188
1382.78071	0.59842
1380.85215	0.59536
1378.92358	0.59267
1376.99502	0.59052
1375.06646	0.58898
1373.13789	0.58774
1371.20933	0.58676
1369.28076	0.58608
1367.35220	0.58524
1365.42363	0.58401
1363.49507	0.58267
1361.56650	0.58130
1359.63794	0.57985
1357.70937	0.57853
1355.78081	0.57742
1353.85225	0.57647
1351.92368	0.57557
1349.99512	0.57478
1348.06655	0.57406
1346.13799	0.57314
1344.20942	0.57214
1342.28086	0.57131
1340.35229	0.57071
1338.42373	0.57010
1336.49517	0.56923
1334.56660	0.56829
1332.63804	0.56764
1330.70947	0.56746
1328.78091	0.56751
1326.85234	0.56753
1324.92378	0.56762
1322.99521	0.56781
1321.06665	0.56805
1319.13809	0.56825
1317.20952	0.56824
1315.28096	0.56790
1313.35239	0.56738
1311.42383	0.56685
1309.49526	0.56630
1307.56670	0.56561
1305.63813	0.56485
1303.70957	0.56411
1301.78101	0.56327
1299.85244	0.56234
1297.92388	0.56150
1295.99531	0.56067
1294.06675	0.55972
1292.13818	0.55871
1290.20962	0.55772
1288.28105	0.55677
1286.35249	0.55576
1284.42393	0.55473
1282.49536	0.55369
1280.56680	0.55270
1278.63823	0.55185
1276.70967	0.55094
1274.78110	0.54984
1272.85254	0.54888
1270.92397	0.54819
1268.99541	0.54752
1267.06685	0.54680
1265.13828	0.54616
1263.20972	0.54554
1261.28115	0.54482
1259.35259	0.54416
1257.42402	0.54367
1255.49546	0.54327
1253.56689	0.54295
1251.63833	0.54281
1249.70977	0.54293
1247.78120	0.54303
1245.85264	0.54276
1243.92407	0.54218
1241.99551	0.54151
1240.06694	0.54048
1238.13838	0.53904
1236.20981	0.53754
1234.28125	0.53600
1232.35269	0.53442
1230.42412	0.53295
1228.49556	0.53143
1226.56699	0.52985
1224.63843	0.52845
1222.70986	0.52723
1220.78130	0.52606
1218.85273	0.52496
1216.92417	0.52393
1214.99561	0.52297
1213.06704	0.52212
1211.13848	0.52144
1209.20991	0.52083
1207.28135	0.52007
1205.35278	0.51912
1203.42422	0.51823
1201.49565	0.51754
1199.56709	0.51700
1197.63853	0.51639
1195.70996	0.51559
1193.78140	0.51486
1191.85283	0.51443
1189.92427	0.51423
1187.99570	0.51410
1186.06714	0.51387
1184.13857	0.51359
1182.21001	0.51360
1180.28145	0.51395
1178.35288	0.51455
1176.42432	0.51551
1174.49575	0.51662
1172.56719	0.51727
1170.63862	0.51737
1168.71006	0.51740
1166.78149	0.51767
1164.85293	0.51799
1162.92437	0.51812
1160.99580	0.51804
1159.06724	0.51775
1157.13867	0.51726
1155.21011	0.51660
1153.28154	0.51564
1151.35298	0.51413
1149.42441	0.51200
1147.49585	0.50958
1145.56729	0.50724
1143.63872	0.50502
1141.71016	0.50292
1139.78159	0.50098
1137.85303	0.49921
1135.92446	0.49762
1133.99590	0.49623
1132.06733	0.49521
1130.13877	0.49467
1128.21021	0.49410
1126.28164	0.49319
1124.35308	0.49232
1122.42451	0.49169
1120.49595	0.49131
1118.56738	0.49110
1116.63882	0.49096
1114.71025	0.49096
1112.78169	0.49118
1110.85312	0.49177
1108.92456	0.49269
1106.99600	0.49357
1105.06743	0.49434
1103.13887	0.49538
1101.21030	0.49686
1099.28174	0.49857
1097.35317	0.50062
1095.42461	0.50347
1093.49604	0.50721
1091.56748	0.51183
1089.63892	0.51725
1087.71035	0.52356
1085.78179	0.53103
1083.85322	0.53891
1081.92466	0.54578
1079.99609	0.55086
1078.06753	0.55386
1076.13896	0.55439
1074.21040	0.55213
1072.28184	0.54739
1070.35327	0.54099
1068.42471	0.53405
1066.49614	0.52736
1064.56758	0.52099
1062.63901	0.51496
1060.71045	0.50973
1058.78188	0.50542
1056.85332	0.50162
1054.92476	0.49826
1052.99619	0.49547
1051.06763	0.49319
1049.13906	0.49142
1047.21050	0.49010
1045.28193	0.48921
1043.35337	0.48878
1041.42480	0.48836
1039.49624	0.48773
1037.56768	0.48733
1035.63911	0.48731
1033.71055	0.48728
1031.78198	0.48685
1029.85342	0.48596
1027.92485	0.48493
1025.99629	0.48407
1024.06772	0.48346
1022.13916	0.48334
1020.21060	0.48366
1018.28203	0.48398
1016.35347	0.48411
1014.42490	0.48437
1012.49634	0.48487
1010.56777	0.48544
1008.63921	0.48619
1006.71064	0.48723
1004.78208	0.48847
1002.85352	0.49023
1000.92495	0.49276
998.99639	0.49598
997.06782	0.49990
995.13926	0.50420
993.21069	0.50824
991.28213	0.51158
989.35356	0.51392
987.42500	0.51513
985.49644	0.51554
983.56787	0.51589
981.63931	0.51674
979.71074	0.51791
977.78218	0.51920
975.85361	0.52098
973.92505	0.52345
971.99648	0.52652
970.06792	0.53017
968.13936	0.53425
966.21079	0.53859
964.28223	0.54314
962.35366	0.54768
960.42510	0.55246
958.49653	0.55781
956.56797	0.56335
954.63940	0.56900
952.71084	0.57526
950.78228	0.58202
948.85371	0.58849
946.92515	0.59455
944.99658	0.60073
943.06802	0.60719
941.13945	0.61375
939.21089	0.61993
937.28232	0.62544
935.35376	0.63070
933.42520	0.63612
931.49663	0.64201
929.56807	0.64818
927.63950	0.65394
925.71094	0.65971
923.78237	0.66632
921.85381	0.67326
919.92524	0.68006
917.99668	0.68698
916.06812	0.69413
914.13955	0.70176
912.21099	0.70985
910.28242	0.71741
908.35386	0.72433
906.42529	0.73236
904.49673	0.74185
902.56816	0.75073
900.63960	0.75878
898.71104	0.76825
896.78247	0.77941
894.85391	0.79054
892.92534	0.80074
890.99678	0.80975
889.06821	0.81901
887.13965	0.83068
885.21108	0.84358
883.28252	0.85570
881.35396	0.86743
879.42539	0.87867
877.49683	0.88984
875.56826	0.90156
873.63970	0.91226
871.71113	0.92272
869.78257	0.93519
867.85400	0.94880
865.92544	0.96093
863.99687	0.97099
862.06831	0.98167
860.13975	0.99443
858.21118	1.00731
856.28262	1.01829
854.35405	1.02909
852.42549	1.04188
850.49692	1.05395
848.56836	1.06392
846.63979	1.07474
844.71123	1.08776
842.78267	1.10125
840.85410	1.11227
838.92554	1.12144
836.99697	1.13265
835.06841	1.14583
833.13984	1.15878
831.21128	1.16866
829.28271	1.17322
827.35415	1.17918
825.42559	1.19316
823.49702	1.20796
821.56846	1.21475
819.63989	1.21838
817.71133	1.22782
815.78276	1.24620
813.85420	1.26065
811.92563	1.26236
809.99707	1.27180
808.06851	1.29108
806.13994	1.29278
804.21138	1.28270
802.28281	1.29251
800.35425	1.31485
798.42568	1.32206
796.49712	1.31799
794.56855	1.31112
792.63999	1.31169
790.71143	1.33885
788.78286	1.37127
786.85430	1.36420
784.92573	1.35523
782.99717	1.34975
781.06860	1.28616
779.14004	1.23280
777.21147	1.28308
775.28291	1.43106
773.35435	1.52176
771.42578	1.46572
769.49722	1.42108
767.56865	1.44643
765.64009	1.49284
763.71152	1.49584
761.78296	1.50449
759.85439	1.54154
757.92583	1.52921
755.99727	1.51600
754.06870	1.43451
752.14014	1.29268
750.21157	1.26046
748.28301	1.27884
746.35444	1.28940
744.42588	1.39237
742.49731	1.39311
740.56875	1.14129
738.64019	0.99756
736.71162	0.96220
734.78306	0.80117
732.85449	0.54771
730.92593	0.37507
728.99736	0.26738
727.06880	0.21220
725.14023	0.26965
723.21167	0.40788
721.28311	0.09218
719.35454	-0.10509
717.42598	0.13694
715.49741	0.75453
713.56885	0.81462
711.64028	0.49925
709.71172	0.43705
707.78315	0.41742
705.85459	0.38488
703.92603	0.45996
701.99746	0.84865
700.06890	4.20041
698.14033	0.91835
696.21177	0.82796
694.28320	1.14903
692.35464	1.01306
690.42607	0.66245
688.49751	0.50293
686.56895	0.50192
684.64038	0.60200
682.71182	0.58733
680.78325	0.55357
678.85469	0.64635
676.92612	0.73728
674.99756	0.77264
673.06899	0.86138
671.14043	0.74807
669.21187	0.61981
667.28330	0.61339
665.35474	0.64574
663.42617	0.53260
661.49761	0.39163
659.56904	0.34826
657.64048	0.35477
655.71191	0.38138
653.78335	0.49800
651.85479	0.73378
649.92622	0.66988
647.99766	0.48028
646.06909	0.42262
644.14053	0.46057
642.21196	0.52154
640.28340	0.53116
638.35483	0.49718
636.42627	0.45263
634.49771	0.47319
632.56914	0.58801
630.64058	0.69053
628.71201	0.64701
626.78345	0.52577
624.85488	0.42188
622.92632	0.39149
620.99775	0.47248
619.06919	0.70482
617.14062	0.90322
615.21206	0.73724
613.28350	0.58277
611.35493	0.53669
609.42637	0.73801
607.49780	3.64499
605.56924	1.41502
603.64067	0.61623
601.71211	0.53759
599.78354	0.54519
597.85498	0.51635
595.92642	0.44905
593.99785	0.42178
592.06929	0.45730
590.14072	0.49522
588.21216	0.57322
586.28359	0.72179
584.35503	0.61077
582.42646	0.43583
580.49790	0.41113
578.56934	0.49209
576.64077	0.54152
574.71221	0.50892
572.78364	0.50268
570.85508	0.49815
568.92651	0.47561
566.99795	0.50054
565.06938	0.54374
563.14082	0.50282
561.21226	0.39897
559.28369	0.36483
557.35513	0.47013
555.42656	0.68540
553.49800	0.58196
551.56943	0.42395
549.64087	0.33751
547.71230	0.30297
545.78374	0.37184
543.85518	0.65451
541.92661	3.25156
539.99805	0.60821
538.06948	0.39192
536.14092	0.34572
534.21235	0.37751
532.28379	0.43149
530.35522	0.45187
528.42666	0.46137
526.49810	0.52673
524.56953	0.54338
522.64097	0.42837
520.71240	0.36311
518.78384	0.35165
516.85527	0.35625
514.92671	0.32842
512.99814	0.28028
511.06958	0.30557
509.14102	0.43711
507.21245	0.55098
505.28389	0.42552
503.35532	0.33401
501.42676	0.37586
499.49819	0.47607
