3997.91411	0.06672
3995.98555	0.06756
3994.05698	0.06780
3992.12842	0.06742
3990.19985	0.06730
3988.27129	0.06790
3986.34272	0.06834
3984.41416	0.06829
3982.48560	0.06808
3980.55703	0.06795
3978.62847	0.06811
3976.69990	0.06851
3974.77134	0.06887
3972.84277	0.06904
3970.91421	0.06918
3968.98564	0.06943
3967.05708	0.06960
3965.12852	0.06945
3963.19995	0.06924
3961.27139	0.06946
3959.34282	0.07007
3957.41426	0.07047
3955.48569	0.07045
3953.55713	0.07031
3951.62856	0.07014
3949.70000	0.06997
3947.77144	0.06998
3945.84287	0.07015
3943.91431	0.07008
3941.98574	0.07001
3940.05718	0.07025
3938.12861	0.07031
3936.20005	0.06990
3934.27148	0.06932
3932.34292	0.06900
3930.41436	0.06921
3928.48579	0.06954
3926.55723	0.06976
3924.62866	0.07004
3922.70010	0.07004
3920.77153	0.06996
3918.84297	0.07025
3916.91440	0.07031
3914.98584	0.06983
3913.05728	0.06956
3911.12871	0.06974
3909.20015	0.06971
3907.27158	0.06917
3905.34302	0.06858
3903.41445	0.06813
3901.48589	0.06786
3899.55732	0.06808
3897.62876	0.06864
3895.70020	0.06903
3893.77163	0.06893
3891.84307	0.06859
3889.91450	0.06886
3887.98594	0.06970
3886.05737	0.07034
3884.12881	0.07055
3882.20024	0.07017
3880.27168	0.06966
3878.34312	0.06980
3876.41455	0.07022
3874.48599	0.07036
3872.55742	0.07015
3870.62886	0.06970
3868.70029	0.06961
3866.77173	0.07020
3864.84316	0.07116
3862.91460	0.07230
3860.98604	0.07294
3859.05747	0.07275
3857.12891	0.07231
3855.20034	0.07216
3853.27178	0.07260
3851.34321	0.07349
3849.41465	0.07432
3847.48608	0.07501
3845.55752	0.07551
3843.62896	0.07622
3841.70039	0.07690
3839.77183	0.07651
3837.84326	0.07571
3835.91470	0.07606
3833.98613	0.07731
3832.05757	0.07831
3830.12900	0.07912
3828.20044	0.08003
3826.27187	0.08083
3824.34331	0.08154
3822.41475	0.08242
3820.48618	0.08384
3818.55762	0.08518
3816.62905	0.08606
3814.70049	0.08711
3812.77192	0.08777
3810.84336	0.08786
3808.91479	0.08791
3806.98623	0.08856
3805.05767	0.09011
3803.12910	0.09156
3801.20054	0.09293
3799.27197	0.09480
3797.34341	0.09611
3795.41484	0.09685
3793.48628	0.09787
3791.55771	0.09930
3789.62915	0.10077
3787.70059	0.10206
3785.77202	0.10319
3783.84346	0.10458
3781.91489	0.10623
3779.98633	0.10775
3778.05776	0.10930
3776.12920	0.11087
3774.20063	0.11230
3772.27207	0.11371
3770.34351	0.11543
3768.41494	0.11751
3766.48638	0.11936
3764.55781	0.12137
3762.62925	0.12347
3760.70068	0.12522
3758.77212	0.12720
3756.84355	0.12962
3754.91499	0.13170
3752.98643	0.13338
3751.05786	0.13541
3749.12930	0.13849
3747.20073	0.14129
3745.27217	0.14335
3743.34360	0.14631
3741.41504	0.14980
3739.48647	0.15264
3737.55791	0.15540
3735.62935	0.15848
3733.70078	0.16221
3731.77222	0.16707
3729.84365	0.17247
3727.91509	0.17726
3725.98652	0.18216
3724.05796	0.18821
3722.12939	0.19540
3720.20083	0.20351
3718.27227	0.21184
3716.34370	0.22015
3714.41514	0.22798
3712.48657	0.23597
3710.55801	0.24703
3708.62944	0.26089
3706.70088	0.27330
3704.77231	0.28443
3702.84375	0.29698
3700.91519	0.31374
3698.98662	0.33282
3697.05806	0.35078
3695.12949	0.36905
3693.20093	0.38783
3691.27236	0.40758
3689.34380	0.43390
3687.41523	0.46893
3685.48667	0.50087
3683.55811	0.52767
3681.62954	0.55515
3679.70098	0.58554
3677.77241	0.61758
3675.84385	0.65516
3673.91528	0.70667
3671.98672	0.75059
3670.05815	0.78908
3668.12959	0.84138
3666.20103	0.89071
3664.27246	0.93245
3662.34390	0.97636
3660.41533	1.02313
3658.48677	1.06877
3656.55820	1.11669
3654.62964	1.17003
3652.70107	1.21480
3650.77251	1.25258
3648.84395	1.30465
3646.91538	1.37238
3644.98682	1.42424
3643.05825	1.46363
3641.12969	1.50341
3639.20112	1.54692
3637.27256	1.59016
3635.34399	1.63161
3633.41543	1.67304
3631.48687	1.71262
3629.55830	1.75307
3627.62974	1.80601
3625.70117	1.85586
3623.77261	1.88986
3621.84404	1.92287
3619.91548	1.96068
3617.98691	2.00536
3616.05835	2.04754
3614.12979	2.08261
3612.20122	2.12102
3610.27266	2.16122
3608.34409	2.20137
3606.41553	2.24377
3604.48696	2.28293
3602.55840	2.31750
3600.62983	2.35576
3598.70127	2.39809
3596.77271	2.43821
3594.84414	2.47844
3592.91558	2.52062
3590.98701	2.55924
3589.05845	2.59408
3587.12988	2.63608
3585.20132	2.68394
3583.27275	2.72556
3581.34419	2.76354
3579.41562	2.80402
3577.48706	2.84695
3575.55850	2.88897
3573.62993	2.93180
3571.70137	2.97458
3569.77280	3.01520
3567.84424	3.05849
3565.91567	3.11261
3563.98711	3.16516
3562.05854	3.20569
3560.12998	3.24419
3558.20142	3.28552
3556.27285	3.32870
3554.34429	3.37259
3552.41572	3.41817
3550.48716	3.46403
3548.55859	3.50886
3546.63003	3.55603
3544.70146	3.60957
3542.77290	3.66363
3540.84434	3.71239
3538.91577	3.75803
3536.98721	3.80253
3535.05864	3.84898
3533.13008	3.89691
3531.20151	3.94566
3529.27295	3.99290
3527.34438	4.03506
3525.41582	4.07452
3523.48726	4.11961
3521.55869	4.17538
3519.63013	4.23419
3517.70156	4.28521
3515.77300	4.32746
3513.84443	4.37146
3511.91587	4.42331
3509.98730	4.47855
3508.05874	4.52799
3506.13018	4.56891
3504.20161	4.60927
3502.27305	4.65626
3500.34448	4.70855
3498.41592	4.75927
3496.48735	4.81130
3494.55879	4.86555
3492.63022	4.91187
3490.70166	4.94829
3488.77310	4.98343
3486.84453	5.02559
3484.91597	5.07924
3482.98740	5.13850
3481.05884	5.19027
3479.13027	5.23058
3477.20171	5.26846
3475.27314	5.31567
3473.34458	5.37656
3471.41602	5.43442
3469.48745	5.47768
3467.55889	5.52781
3465.63032	5.59236
3463.70176	5.65112
3461.77319	5.70276
3459.84463	5.74975
3457.91606	5.78033
3455.98750	5.81631
3454.05894	5.88226
3452.13037	5.95707
3450.20181	6.01037
3448.27324	6.04489
3446.34468	6.08634
3444.41611	6.14149
3442.48755	6.20940
3440.55898	6.27550
3438.63042	6.31098
3436.70186	6.32957
3434.77329	6.37391
3432.84473	6.44309
3430.91616	6.49353
3428.98760	6.52582
3427.05903	6.57445
3425.13047	6.64469
3423.20190	6.70970
3421.27334	6.75477
3419.34478	6.79174
3417.41621	6.83877
3415.48765	6.89996
3413.55908	6.95803
3411.63052	6.99569
3409.70195	7.00822
3407.77339	7.02347
3405.84482	7.07225
3403.91626	7.15295
3401.98770	7.22567
3400.05913	7.27201
3398.13057	7.31103
3396.20200	7.36850
3394.27344	7.44049
3392.34487	7.48447
3390.41631	7.50228
3388.48774	7.49546
3386.55918	7.50198
3384.63062	7.56531
3382.70205	7.64308
3380.77349	7.65460
3378.84492	7.62490
3376.91636	7.65840
3374.98779	7.72585
3373.05923	7.76152
3371.13066	7.77712
3369.20210	7.79399
3367.27354	7.82324
3365.34497	7.86237
3363.41641	7.85168
3361.48784	7.79795
3359.55928	7.79438
3357.63071	7.84529
3355.70215	7.89829
3353.77358	7.91564
3351.84502	7.93299
3349.91646	7.96564
3347.98789	8.00665
3346.05933	8.02001
3344.13076	7.95811
3342.20220	7.90631
3340.27363	7.92418
3338.34507	7.97991
3336.41650	8.02411
3334.48794	8.07291
3332.55937	8.15822
3330.63081	8.25346
3328.70225	8.25282
3326.77368	8.15698
3324.84512	8.14616
3322.91655	8.23504
3320.98799	8.30660
3319.05942	8.32083
3317.13086	8.29336
3315.20229	8.26017
3313.27373	8.25120
3311.34517	8.24279
3309.41660	8.23219
3307.48804	8.20835
3305.55947	8.15592
3303.63091	8.17079
3301.70234	8.27395
3299.77378	8.28788
3297.84521	8.14255
3295.91665	8.01315
3293.98809	7.99431
3292.05952	8.08664
3290.13096	8.21850
3288.20239	8.30302
3286.27383	8.34150
3284.34526	8.30776
3282.41670	8.22607
3280.48813	8.18464
3278.55957	8.21558
3276.63101	8.25005
3274.70244	8.23045
3272.77388	8.22557
3270.84531	8.33906
3268.91675	8.46687
3266.98818	8.40336
3265.05962	8.24826
3263.13105	8.12674
3261.20249	8.11425
3259.27393	8.18602
3257.34536	8.15726
3255.41680	8.05693
3253.48823	8.01969
3251.55967	8.07185
3249.63110	8.25634
3247.70254	8.43971
3245.77397	8.37306
3243.84541	8.20444
3241.91685	8.12412
3239.98828	8.17859
3238.05972	8.32481
3236.13115	8.38451
3234.20259	8.32634
3232.27402	8.31921
3230.34546	8.33434
3228.41689	8.25273
3226.48833	8.18411
3224.55977	8.14570
3222.63120	8.03028
3220.70264	7.95048
3218.77407	8.01350
3216.84551	8.10320
3214.91694	8.17065
3212.98838	8.25712
3211.05981	8.29767
3209.13125	8.30177
3207.20269	8.28777
3205.27412	8.20549
3203.34556	8.06363
3201.41699	7.97111
3199.48843	7.96362
3197.55986	7.93503
3195.63130	7.85378
3193.70273	7.76992
3191.77417	7.67833
3189.84561	7.60524
3187.91704	7.61556
3185.98848	7.63989
3184.05991	7.56176
3182.13135	7.45878
3180.20278	7.40842
3178.27422	7.35287
3176.34565	7.28291
3174.41709	7.25184
3172.48853	7.22945
3170.55996	7.15914
3168.63140	7.07602
3166.70283	7.02277
3164.77427	6.93705
3162.84570	6.80330
3160.91714	6.71766
3158.98857	6.69526
3157.06001	6.68197
3155.13145	6.63436
3153.20288	6.53469
3151.27432	6.43364
3149.34575	6.36537
3147.41719	6.30101
3145.48862	6.22263
3143.56006	6.14633
3141.63149	6.08244
3139.70293	6.01719
3137.77437	5.94000
3135.84580	5.86236
3133.91724	5.79916
3131.98867	5.73915
3130.06011	5.66564
3128.13154	5.59203
3126.20298	5.53142
3124.27441	5.46594
3122.34585	5.38148
3120.41729	5.29538
3118.48872	5.22294
3116.56016	5.16046
3114.63159	5.09476
3112.70303	5.01771
3110.77446	4.93966
3108.84590	4.87403
3106.91733	4.81407
3104.98877	4.74800
3103.06021	4.67963
3101.13164	4.61023
3099.20308	4.53903
3097.27451	4.47261
3095.34595	4.40857
3093.41738	4.33875
3091.48882	4.26779
3089.56025	4.20384
3087.63169	4.14380
3085.70312	4.08124
3083.77456	4.01622
3081.84600	3.95294
3079.91743	3.89025
3077.98887	3.82513
3076.06030	3.76135
3074.13174	3.70196
3072.20317	3.64379
3070.27461	3.58441
3068.34604	3.52545
3066.41748	3.46770
3064.48892	3.41102
3062.56035	3.35601
3060.63179	3.30211
3058.70322	3.24821
3056.77466	3.19409
3054.84609	3.13935
3052.91753	3.08447
3050.98896	3.03097
3049.06040	2.97965
3047.13184	2.93045
3045.20327	2.88136
3043.27471	2.83113
3041.34614	2.78161
3039.41758	2.73398
3037.48901	2.68722
3035.56045	2.64059
3033.63188	2.59483
3031.70332	2.55017
3029.77476	2.50592
3027.84619	2.46223
3025.91763	2.41922
3023.98906	2.37634
3022.06050	2.33372
3020.13193	2.29191
3018.20337	2.25135
3016.27480	2.21228
3014.34624	2.17407
3012.41768	2.13547
3010.48911	2.09638
3008.56055	2.05811
3006.63198	2.02124
3004.70342	1.98522
3002.77485	1.94975
3000.84629	1.91479
2998.91772	1.88042
2996.98916	1.84707
2995.06060	1.81481
2993.13203	1.78288
2991.20347	1.75125
2989.27490	1.72057
2987.34634	1.69058
2985.41777	1.66041
2983.48921	1.63006
2981.56064	1.60057
2979.63208	1.57250
2977.70352	1.54523
2975.77495	1.51822
2973.84639	1.49153
2971.91782	1.46513
2969.98926	1.43892
2968.06069	1.41322
2966.13213	1.38847
2964.20356	1.36432
2962.27500	1.34014
2960.34644	1.31607
2958.41787	1.29214
2956.48931	1.26802
2954.56074	1.24423
2952.63218	1.22149
2950.70361	1.19961
2948.77505	1.17824
2946.84648	1.15704
2944.91792	1.13595
2942.98936	1.11530
2941.06079	1.09519
2939.13223	1.07555
2937.20366	1.05644
2935.27510	1.03754
2933.34653	1.01824
2931.41797	0.99908
2929.48940	0.98098
2927.56084	0.96358
2925.63228	0.94595
2923.70371	0.92802
2921.77515	0.91060
2919.84658	0.89395
2917.91802	0.87751
2915.98945	0.86125
2914.06089	0.84562
2912.13232	0.83038
2910.20376	0.81516
2908.27520	0.80018
2906.34663	0.78563
2904.41807	0.77152
2902.48950	0.75797
2900.56094	0.74482
2898.63237	0.73182
2896.70381	0.71894
2894.77524	0.70648
2892.84668	0.69462
2890.91812	0.68300
2888.98955	0.67141
2887.06099	0.66010
2885.13242	0.64931
2883.20386	0.63874
2881.27529	0.62817
2879.34673	0.61785
2877.41816	0.60786
2875.48960	0.59807
2873.56104	0.58832
2871.63247	0.57836
2869.70391	0.56796
2867.77534	0.55745
2865.84678	0.54743
2863.91821	0.53780
2861.98965	0.52807
2860.06108	0.51843
2858.13252	0.50941
2856.20396	0.50077
2854.27539	0.49223
2852.34683	0.48385
2850.41826	0.47567
2848.48970	0.46771
2846.56113	0.45993
2844.63257	0.45232
2842.70400	0.44526
2840.77544	0.43876
2838.84687	0.43242
2836.91831	0.42613
2834.98975	0.42001
2833.06118	0.41398
2831.13262	0.40803
2829.20405	0.40218
2827.27549	0.39634
2825.34692	0.39043
2823.41836	0.38456
2821.48979	0.37876
2819.56123	0.37303
2817.63267	0.36755
2815.70410	0.36232
2813.77554	0.35709
2811.84697	0.35178
2809.91841	0.34658
2807.98984	0.34166
2806.06128	0.33688
2804.13271	0.33194
2802.20415	0.32698
2800.27559	0.32235
2798.34702	0.31786
2796.41846	0.31329
2794.48989	0.30878
2792.56133	0.30438
2790.63276	0.30012
2788.70420	0.29600
2786.77563	0.29196
2784.84707	0.28796
2782.91851	0.28406
2780.98994	0.28028
2779.06138	0.27646
2777.13281	0.27273
2775.20425	0.26921
2773.27568	0.26569
2771.34712	0.26203
2769.41855	0.25848
2767.48999	0.25513
2765.56143	0.25184
2763.63286	0.24867
2761.70430	0.24552
2759.77573	0.24246
2757.84717	0.23960
2755.91860	0.23676
2753.99004	0.23383
2752.06147	0.23094
2750.13291	0.22821
2748.20435	0.22560
2746.27578	0.22304
2744.34722	0.22048
2742.41865	0.21787
2740.49009	0.21531
2738.56152	0.21295
2736.63296	0.21069
2734.70439	0.20836
2732.77583	0.20606
2730.84727	0.20396
2728.91870	0.20181
2726.99014	0.19961
2725.06157	0.19765
2723.13301	0.19576
2721.20444	0.19385
2719.27588	0.19205
2717.34731	0.19027
2715.41875	0.18852
2713.49019	0.18681
2711.56162	0.18505
2709.63306	0.18334
2707.70449	0.18175
2705.77593	0.18012
2703.84736	0.17844
2701.91880	0.17695
2699.99023	0.17574
2698.06167	0.17462
2696.13311	0.17327
2694.20454	0.17158
2692.27598	0.17005
2690.34741	0.16891
2688.41885	0.16783
2686.49028	0.16663
2684.56172	0.16543
2682.63315	0.16431
2680.70459	0.16332
2678.77603	0.16246
2676.84746	0.16153
2674.91890	0.16044
2672.99033	0.15936
2671.06177	0.15837
2669.13320	0.15751
2667.20464	0.15675
2665.27607	0.15587
2663.34751	0.15493
2661.41895	0.15412
2659.49038	0.15329
2657.56182	0.15248
2655.63325	0.15185
2653.70469	0.15125
2651.77612	0.15060
2649.84756	0.14995
2647.91899	0.14931
2645.99043	0.14868
2644.06187	0.14813
2642.13330	0.14768
2640.20474	0.14718
2638.27617	0.14664
2636.34761	0.14636
2634.41904	0.14634
2632.49048	0.14620
2630.56191	0.14587
2628.63335	0.14554
2626.70479	0.14518
2624.77622	0.14474
2622.84766	0.14435
2620.91909	0.14418
2618.99053	0.14421
2617.06196	0.14422
2615.13340	0.14410
2613.20483	0.14384
2611.27627	0.14360
2609.34771	0.14360
2607.41914	0.14370
2605.49058	0.14361
2603.56201	0.14340
2601.63345	0.14335
2599.70488	0.14351
2597.77632	0.14363
2595.84775	0.14366
2593.91919	0.14367
2591.99062	0.14376
2590.06206	0.14403
2588.13350	0.14447
2586.20493	0.14487
2584.27637	0.14506
2582.34780	0.14516
2580.41924	0.14541
2578.49067	0.14576
2576.56211	0.14614
2574.63354	0.14656
2572.70498	0.14697
2570.77642	0.14740
2568.84785	0.14791
2566.91929	0.14836
2564.99072	0.14864
2563.06216	0.14902
2561.13359	0.14959
2559.20503	0.15014
2557.27646	0.15065
2555.34790	0.15112
2553.41934	0.15148
2551.49077	0.15198
2549.56221	0.15275
2547.63364	0.15355
2545.70508	0.15421
2543.77651	0.15486
2541.84795	0.15548
2539.91938	0.15589
2537.99082	0.15628
2536.06226	0.15690
2534.13369	0.15773
2532.20513	0.15863
2530.27656	0.15942
2528.34800	0.16017
2526.41943	0.16097
2524.49087	0.16169
2522.56230	0.16235
2520.63374	0.16313
2518.70518	0.16406
2516.77661	0.16495
2514.84805	0.16565
2512.91948	0.16634
2510.99092	0.16716
2509.06235	0.16799
2507.13379	0.16876
2505.20522	0.16954
2503.27666	0.17047
2501.34810	0.17139
2499.41953	0.17206
2497.49097	0.17276
2495.56240	0.17379
2493.63384	0.17483
2491.70527	0.17570
2489.77671	0.17662
2487.84814	0.17752
2485.91958	0.17830
2483.99102	0.17914
2482.06245	0.18005
2480.13389	0.18083
2478.20532	0.18158
2476.27676	0.18250
2474.34819	0.18352
2472.41963	0.18450
2470.49106	0.18542
2468.56250	0.18642
2466.63394	0.18747
2464.70537	0.18835
2462.77681	0.18905
2460.84824	0.18992
2458.91968	0.19105
2456.99111	0.19220
2455.06255	0.19318
2453.13398	0.19415
2451.20542	0.19523
2449.27686	0.19626
2447.34829	0.19715
2445.41973	0.19813
2443.49116	0.19920
2441.56260	0.20024
2439.63403	0.20130
2437.70547	0.20236
2435.77690	0.20341
2433.84834	0.20446
2431.91978	0.20543
2429.99121	0.20644
2428.06265	0.20755
2426.13408	0.20868
2424.20552	0.20990
2422.27695	0.21115
2420.34839	0.21216
2418.41982	0.21305
2416.49126	0.21414
2414.56270	0.21546
2412.63413	0.21669
2410.70557	0.21777
2408.77700	0.21891
2406.84844	0.22017
2404.91987	0.22145
2402.99131	0.22268
2401.06274	0.22383
2399.13418	0.22498
2397.20562	0.22624
2395.27705	0.22753
2393.34849	0.22871
2391.41992	0.22993
2389.49136	0.23117
2387.56279	0.23218
2385.63423	0.23277
2383.70566	0.23282
2381.77710	0.23219
2379.84854	0.23105
2377.91997	0.22960
2375.99141	0.22753
2374.06284	0.22473
2372.13428	0.22161
2370.20571	0.21845
2368.27715	0.21540
2366.34858	0.21213
2364.42002	0.20821
2362.49146	0.20501
2360.56289	0.20384
2358.63433	0.20520
2356.70576	0.21036
2354.77720	0.21870
2352.84863	0.22764
2350.92007	0.23497
2348.99150	0.23925
2347.06294	0.23996
2345.13437	0.23742
2343.20581	0.23439
2341.27725	0.23420
2339.34868	0.23595
2337.42012	0.23848
2335.49155	0.24129
2333.56299	0.24359
2331.63442	0.24587
2329.70586	0.24895
2327.77729	0.25237
2325.84873	0.25559
2323.92017	0.25892
2321.99160	0.26262
2320.06304	0.26668
2318.13447	0.27091
2316.20591	0.27474
2314.27734	0.27776
2312.34878	0.28029
2310.42021	0.28288
2308.49165	0.28574
2306.56309	0.28898
2304.63452	0.29234
2302.70596	0.29525
2300.77739	0.29770
2298.84883	0.30009
2296.92026	0.30237
2294.99170	0.30450
2293.06313	0.30690
2291.13457	0.30967
2289.20601	0.31230
2287.27744	0.31471
2285.34888	0.31710
2283.42031	0.31940
2281.49175	0.32146
2279.56318	0.32337
2277.63462	0.32531
2275.70605	0.32727
2273.77749	0.32917
2271.84893	0.33119
2269.92036	0.33329
2267.99180	0.33526
2266.06323	0.33722
2264.13467	0.33952
2262.20610	0.34204
2260.27754	0.34438
2258.34897	0.34654
2256.42041	0.34864
2254.49185	0.35076
2252.56328	0.35299
2250.63472	0.35526
2248.70615	0.35747
2246.77759	0.35976
2244.84902	0.36213
2242.92046	0.36443
2240.99189	0.36672
2239.06333	0.36900
2237.13477	0.37122
2235.20620	0.37342
2233.27764	0.37569
2231.34907	0.37802
2229.42051	0.38034
2227.49194	0.38255
2225.56338	0.38466
2223.63481	0.38671
2221.70625	0.38879
2219.77769	0.39109
2217.84912	0.39354
2215.92056	0.39577
2213.99199	0.39779
2212.06343	0.39990
2210.13486	0.40206
2208.20630	0.40415
2206.27773	0.40625
2204.34917	0.40835
2202.42061	0.41032
2200.49204	0.41230
2198.56348	0.41445
2196.63491	0.41657
2194.70635	0.41848
2192.77778	0.42037
2190.84922	0.42230
2188.92065	0.42421
2186.99209	0.42606
2185.06353	0.42781
2183.13496	0.42947
2181.20640	0.43113
2179.27783	0.43275
2177.34927	0.43433
2175.42070	0.43583
2173.49214	0.43735
2171.56357	0.43896
2169.63501	0.44054
2167.70645	0.44188
2165.77788	0.44303
2163.84932	0.44416
2161.92075	0.44521
2159.99219	0.44617
2158.06362	0.44714
2156.13506	0.44815
2154.20649	0.44906
2152.27793	0.44981
2150.34937	0.45047
2148.42080	0.45112
2146.49224	0.45171
2144.56367	0.45225
2142.63511	0.45274
2140.70654	0.45303
2138.77798	0.45310
2136.84941	0.45315
2134.92085	0.45333
2132.99229	0.45347
2131.06372	0.45341
2129.13516	0.45324
2127.20659	0.45309
2125.27803	0.45294
2123.34946	0.45257
2121.42090	0.45189
2119.49233	0.45123
2117.56377	0.45077
2115.63521	0.45015
2113.70664	0.44923
2111.77808	0.44824
2109.84951	0.44733
2107.92095	0.44633
2105.99238	0.44514
2104.06382	0.44392
2102.13525	0.44274
2100.20669	0.44142
2098.27812	0.43989
2096.34956	0.43832
2094.42100	0.43681
2092.49243	0.43528
2090.56387	0.43369
2088.63530	0.43201
2086.70674	0.43025
2084.77817	0.42836
2082.84961	0.42639
2080.92104	0.42442
2078.99248	0.42239
2077.06392	0.42026
2075.13535	0.41808
2073.20679	0.41584
2071.27822	0.41352
2069.34966	0.41125
2067.42109	0.40902
2065.49253	0.40669
2063.56396	0.40427
2061.63540	0.40191
2059.70684	0.39958
2057.77827	0.39713
2055.84971	0.39447
2053.92114	0.39172
2051.99258	0.38910
2050.06401	0.38655
2048.13545	0.38400
2046.20688	0.38140
2044.27832	0.37872
2042.34976	0.37598
2040.42119	0.37328
2038.49263	0.37058
2036.56406	0.36786
2034.63550	0.36521
2032.70693	0.36262
2030.77837	0.35998
2028.84980	0.35723
2026.92124	0.35436
2024.99268	0.35149
2023.06411	0.34870
2021.13555	0.34593
2019.20698	0.34316
2017.27842	0.34033
2015.34985	0.33746
2013.42129	0.33474
2011.49272	0.33211
2009.56416	0.32943
2007.63560	0.32667
2005.70703	0.32396
2003.77847	0.32143
2001.84990	0.31890
1999.92134	0.31624
1997.99277	0.31358
1996.06421	0.31106
1994.13564	0.30861
1992.20708	0.30612
1990.27852	0.30354
1988.34995	0.30103
1986.42139	0.29863
1984.49282	0.29627
1982.56426	0.29392
1980.63569	0.29157
1978.70713	0.28929
1976.77856	0.28706
1974.85000	0.28489
1972.92144	0.28274
1970.99287	0.28064
1969.06431	0.27865
1967.13574	0.27662
1965.20718	0.27443
1963.27861	0.27239
1961.35005	0.27058
1959.42148	0.26888
1957.49292	0.26712
1955.56436	0.26520
1953.63579	0.26332
1951.70723	0.26164
1949.77866	0.26008
1947.85010	0.25849
1945.92153	0.25694
1943.99297	0.25550
1942.06440	0.25412
1940.13584	0.25275
1938.20728	0.25134
1936.27871	0.24992
1934.35015	0.24860
1932.42158	0.24739
1930.49302	0.24621
1928.56445	0.24517
1926.63589	0.24417
1924.70732	0.24309
1922.77876	0.24196
1920.85020	0.24087
1918.92163	0.23993
1916.99307	0.23918
1915.06450	0.23855
1913.13594	0.23782
1911.20737	0.23701
1909.27881	0.23624
1907.35024	0.23554
1905.42168	0.23482
1903.49312	0.23415
1901.56455	0.23367
1899.63599	0.23336
1897.70742	0.23304
1895.77886	0.23263
1893.85029	0.23219
1891.92173	0.23170
1889.99316	0.23136
1888.06460	0.23113
1886.13604	0.23094
1884.20747	0.23078
1882.27891	0.23060
1880.35034	0.23051
1878.42178	0.23049
1876.49321	0.23050
1874.56465	0.23044
1872.63608	0.23042
1870.70752	0.23045
1868.77896	0.23067
1866.85039	0.23103
1864.92183	0.23134
1862.99326	0.23158
1861.06470	0.23179
1859.13613	0.23208
1857.20757	0.23242
1855.27900	0.23288
1853.35044	0.23338
1851.42187	0.23395
1849.49331	0.23453
1847.56475	0.23508
1845.63618	0.23568
1843.70762	0.23654
1841.77905	0.23745
1839.85049	0.23808
1837.92192	0.23883
1835.99336	0.23975
1834.06479	0.24072
1832.13623	0.24151
1830.20767	0.24256
1828.27910	0.24405
1826.35054	0.24530
1824.42197	0.24659
1822.49341	0.24804
1820.56484	0.24955
1818.63628	0.25109
1816.70771	0.25282
1814.77915	0.25449
1812.85059	0.25609
1810.92202	0.25794
1808.99346	0.26007
1807.06489	0.26217
1805.13633	0.26405
1803.20776	0.26601
1801.27920	0.26824
1799.35063	0.27100
1797.42207	0.27364
1795.49351	0.27599
1793.56494	0.27852
1791.63638	0.28195
1789.70781	0.28573
1787.77925	0.28876
1785.85068	0.29199
1783.92212	0.29562
1781.99355	0.29944
1780.06499	0.30350
1778.13643	0.30788
1776.20786	0.31204
1774.27930	0.31616
1772.35073	0.32151
1770.42217	0.32770
1768.49360	0.33333
1766.56504	0.33880
1764.63647	0.34424
1762.70791	0.34995
1760.77935	0.35720
1758.85078	0.36427
1756.92222	0.37148
1754.99365	0.37951
1753.06509	0.38662
1751.13652	0.39439
1749.20796	0.40426
1747.27939	0.41488
1745.35083	0.42466
1743.42227	0.43472
1741.49370	0.44548
1739.56514	0.45799
1737.63657	0.47059
1735.70801	0.48156
1733.77944	0.49772
1731.85088	0.51724
1729.92231	0.53305
1727.99375	0.54918
1726.06519	0.56634
1724.13662	0.58477
1722.20806	0.60446
1720.27949	0.62235
1718.35093	0.64289
1716.42236	0.67384
1714.49380	0.70457
1712.56523	0.73007
1710.63667	0.75447
1708.70811	0.78000
1706.77954	0.80848
1704.85098	0.84264
1702.92241	0.87322
1700.99385	0.90320
1699.06528	0.94831
1697.13672	0.99044
1695.20815	1.03375
1693.27959	1.07568
1691.35103	1.10897
1689.42246	1.14671
1687.49390	1.18630
1685.56533	1.22421
1683.63677	1.28311
1681.70820	1.34521
1679.77964	1.38513
1677.85107	1.42272
1675.92251	1.46542
1673.99395	1.51772
1672.06538	1.56397
1670.13682	1.60997
1668.20825	1.67085
1666.27969	1.71966
1664.35112	1.75942
1662.42256	1.80964
1660.49399	1.86791
1658.56543	1.91367
1656.63687	1.94972
1654.70830	1.98173
1652.77974	2.03375
1650.85117	2.08679
1648.92261	2.10759
1646.99404	2.13354
1645.06548	2.16433
1643.13691	2.18530
1641.20835	2.19635
1639.27979	2.20434
1637.35122	2.20901
1635.42266	2.20907
1633.49409	2.20280
1631.56553	2.19071
1629.63696	2.17488
1627.70840	2.14852
1625.77983	2.11812
1623.85127	2.08076
1621.92271	2.03525
1619.99414	1.99389
1618.06558	1.95142
1616.13701	1.88994
1614.20845	1.82841
1612.27988	1.78219
1610.35132	1.73372
1608.42275	1.68055
1606.49419	1.62740
1604.56562	1.57813
1602.63706	1.53081
1600.70850	1.48489
1598.77993	1.44242
1596.85137	1.40190
1594.92280	1.36240
1592.99424	1.32432
1591.06567	1.28941
1589.13711	1.25685
1587.20854	1.22664
1585.27998	1.19866
1583.35142	1.17217
1581.42285	1.14755
1579.49429	1.12641
1577.56572	1.10731
1575.63716	1.08371
1573.70859	1.06284
1571.78003	1.04906
1569.85146	1.03453
1567.92290	1.01858
1565.99434	1.00601
1564.06577	0.99537
1562.13721	0.98677
1560.20864	0.98010
1558.28008	0.96976
1556.35151	0.96062
1554.42295	0.95513
1552.49438	0.94988
1550.56582	0.94409
1548.63726	0.93704
1546.70869	0.92953
1544.78013	0.92072
1542.85156	0.90969
1540.92300	0.89548
1538.99443	0.87646
1537.06587	0.86356
1535.13730	0.85472
1533.20874	0.84276
1531.28018	0.82993
1529.35161	0.82054
1527.42305	0.81123
1525.49448	0.80098
1523.56592	0.79204
1521.63735	0.78392
1519.70879	0.77600
1517.78022	0.76884
1515.85166	0.76076
1513.92310	0.75279
1511.99453	0.74591
1510.06597	0.73960
1508.13740	0.73337
1506.20884	0.72395
1504.28027	0.71642
1502.35171	0.71242
1500.42314	0.70847
1498.49458	0.70361
1496.56602	0.69802
1494.63745	0.69300
1492.70889	0.68901
1490.78032	0.68502
1488.85176	0.68029
1486.92319	0.67618
1484.99463	0.67298
1483.06606	0.67008
1481.13750	0.66725
1479.20894	0.66474
1477.28037	0.66266
1475.35181	0.66062
1473.42324	0.65864
1471.49468	0.65681
1469.56611	0.65503
1467.63755	0.65299
1465.70898	0.65074
1463.78042	0.64875
1461.85186	0.64743
1459.92329	0.64629
1457.99473	0.64483
1456.06616	0.64316
1454.13760	0.64170
1452.20903	0.64012
1450.28047	0.63812
1448.35190	0.63591
1446.42334	0.63380
1444.49478	0.63202
1442.56621	0.63039
1440.63765	0.62859
1438.70908	0.62642
1436.78052	0.62358
1434.85195	0.62076
1432.92339	0.61871
1430.99482	0.61709
1429.06626	0.61590
1427.13770	0.61514
1425.20913	0.61460
1423.28057	0.61403
1421.35200	0.61319
1419.42344	0.61221
1417.49487	0.61141
1415.56631	0.61049
1413.63774	0.60939
1411.70918	0.60837
1409.78062	0.60778
1407.85205	0.60758
1405.92349	0.60738
1403.99492	0.60705
1402.06636	0.60644
1400.13779	0.60545
1398.20923	0.60402
1396.28066	0.60219
1394.35210	0.59997
1392.42354	0.59770
1390.49497	0.59558
1388.56641	0.59328
1386.63784	0.59062
1384.70928	0.58790
1382.78071	0.58534
1380.85215	0.58289
1378.92358	0.58065
1376.99502	0.57876
1375.06646	0.57735
1373.13789	0.57642
1371.20933	0.57569
1369.28076	0.57477
1367.35220	0.57364
1365.42363	0.57242
1363.49507	0.57108
1361.56650	0.56989
1359.63794	0.56892
1357.70937	0.56790
1355.78081	0.56689
1353.85225	0.56597
1351.92368	0.56504
1349.99512	0.56420
1348.06655	0.56348
1346.13799	0.56270
1344.20942	0.56182
1342.28086	0.56081
1340.35229	0.55979
1338.42373	0.55902
1336.49517	0.55848
1334.56660	0.55801
1332.63804	0.55754
1330.70947	0.55703
1328.78091	0.55657
1326.85234	0.55632
1324.92378	0.55615
1322.99521	0.55592
1321.06665	0.55567
1319.13809	0.55544
1317.20952	0.55505
1315.28096	0.55446
1313.35239	0.55382
1311.42383	0.55321
1309.49526	0.55269
1307.56670	0.55229
1305.63813	0.55177
1303.70957	0.55094
1301.78101	0.55002
1299.85244	0.54931
1297.92388	0.54868
1295.99531	0.54789
1294.06675	0.54701
1292.13818	0.54618
1290.20962	0.54536
1288.28105	0.54453
1286.35249	0.54376
1284.42393	0.54309
1282.49536	0.54231
1280.56680	0.54135
1278.63823	0.54047
1276.70967	0.53979
1274.78110	0.53914
1272.85254	0.53843
1270.92397	0.53774
1268.99541	0.53713
1267.06685	0.53660
1265.13828	0.53619
1263.20972	0.53573
1261.28115	0.53514
1259.35259	0.53456
1257.42402	0.53401
1255.49546	0.53359
1253.56689	0.53334
1251.63833	0.53323
1249.70977	0.53324
1247.78120	0.53309
1245.85264	0.53252
1243.92407	0.53185
1241.99551	0.53132
1240.06694	0.53068
1238.13838	0.52974
1236.20981	0.52859
1234.28125	0.52742
1232.35269	0.52619
1230.42412	0.52484
1228.49556	0.52357
1226.56699	0.52247
1224.63843	0.52146
1222.70986	0.52044
1220.78130	0.51937
1218.85273	0.51825
1216.92417	0.51724
1214.99561	0.51646
1213.06704	0.51579
1211.13848	0.51515
1209.20991	0.51464
1207.28135	0.51410
1205.35278	0.51336
1203.42422	0.51259
1201.49565	0.51185
1199.56709	0.51109
1197.63853	0.51043
1195.70996	0.50985
1193.78140	0.50923
1191.85283	0.50869
1189.92427	0.50841
1187.99570	0.50830
1186.06714	0.50814
1184.13857	0.50792
1182.21001	0.50782
1180.28145	0.50800
1178.35288	0.50842
1176.42432	0.50896
1174.49575	0.50950
1172.56719	0.51009
1170.63862	0.51070
1168.71006	0.51104
1166.78149	0.51100
1164.85293	0.51093
1162.92437	0.51105
1160.99580	0.51117
1159.06724	0.51090
1157.13867	0.51032
1155.21011	0.50974
1153.28154	0.50879
1151.35298	0.50716
1149.42441	0.50528
1147.49585	0.50346
1145.56729	0.50138
1143.63872	0.49893
1141.71016	0.49661
1139.78159	0.49474
1137.85303	0.49311
1135.92446	0.49160
1133.99590	0.49010
1132.06733	0.48876
1130.13877	0.48786
1128.21021	0.48701
1126.28164	0.48587
1124.35308	0.48480
1122.42451	0.48399
1120.49595	0.48342
1118.56738	0.48316
1116.63882	0.48304
1114.71025	0.48289
1112.78169	0.48311
1110.85312	0.48366
1108.92456	0.48417
1106.99600	0.48493
1105.06743	0.48613
1103.13887	0.48736
1101.21030	0.48854
1099.28174	0.49014
1097.35317	0.49249
1095.42461	0.49550
1093.49604	0.49903
1091.56748	0.50335
1089.63892	0.50869
1087.71035	0.51482
1085.78179	0.52148
1083.85322	0.52870
1081.92466	0.53602
1079.99609	0.54199
1078.06753	0.54531
1076.13896	0.54567
1074.21040	0.54341
1072.28184	0.53897
1070.35327	0.53289
1068.42471	0.52605
1066.49614	0.51931
1064.56758	0.51313
1062.63901	0.50766
1060.71045	0.50280
1058.78188	0.49830
1056.85332	0.49415
1054.92476	0.49062
1052.99619	0.48781
1051.06763	0.48550
1049.13906	0.48356
1047.21050	0.48216
1045.28193	0.48114
1043.35337	0.48017
1041.42480	0.47931
1039.49624	0.47871
1037.56768	0.47843
1035.63911	0.47830
1033.71055	0.47807
1031.78198	0.47775
1029.85342	0.47747
1027.92485	0.47714
1025.99629	0.47665
1024.06772	0.47638
1022.13916	0.47657
1020.21060	0.47691
1018.28203	0.47727
1016.35347	0.47775
1014.42490	0.47834
1012.49634	0.47912
1010.56777	0.48019
1008.63921	0.48150
1006.71064	0.48285
1004.78208	0.48428
1002.85352	0.48607
1000.92495	0.48845
998.99639	0.49162
997.06782	0.49554
995.13926	0.49984
993.21069	0.50398
991.28213	0.50740
989.35356	0.50970
987.42500	0.51091
985.49644	0.51145
983.56787	0.51195
981.63931	0.51281
979.71074	0.51411
977.78218	0.51597
975.85361	0.51843
973.92505	0.52125
971.99648	0.52435
970.06792	0.52772
968.13936	0.53137
966.21079	0.53530
964.28223	0.53965
962.35366	0.54462
960.42510	0.54993
958.49653	0.55533
956.56797	0.56112
954.63940	0.56729
952.71084	0.57359
950.78228	0.57995
948.85371	0.58626
946.92515	0.59259
944.99658	0.59916
943.06802	0.60563
941.13945	0.61179
939.21089	0.61791
937.28232	0.62374
935.35376	0.62905
933.42520	0.63428
931.49663	0.63999
929.56807	0.64623
927.63950	0.65247
925.71094	0.65861
923.78237	0.66507
921.85381	0.67133
919.92524	0.67723
917.99668	0.68389
916.06812	0.69135
914.13955	0.69927
912.21099	0.70782
910.28242	0.71614
908.35386	0.72369
906.42529	0.73193
904.49673	0.74118
902.56816	0.75017
900.63960	0.75912
898.71104	0.76820
896.78247	0.77744
894.85391	0.78779
892.92534	0.79882
890.99678	0.80968
889.06821	0.82078
887.13965	0.83201
885.21108	0.84240
883.28252	0.85197
881.35396	0.86223
879.42539	0.87458
877.49683	0.88770
875.56826	0.90002
873.63970	0.91181
871.71113	0.92309
869.78257	0.93349
867.85400	0.94298
865.92544	0.95243
863.99687	0.96373
862.06831	0.97705
860.13975	0.99066
858.21118	1.00344
856.28262	1.01469
854.35405	1.02588
852.42549	1.03928
850.49692	1.05301
848.56836	1.06393
846.63979	1.07427
844.71123	1.08701
842.78267	1.09924
840.85410	1.10944
838.92554	1.12002
836.99697	1.13149
835.06841	1.14321
833.13984	1.15537
831.21128	1.16563
829.28271	1.17220
827.35415	1.18256
825.42559	1.19979
823.49702	1.21746
821.56846	1.23252
819.63989	1.24144
817.71133	1.24215
815.78276	1.24607
813.85420	1.26435
811.92563	1.28555
809.99707	1.29820
808.06851	1.31735
806.13994	1.34364
804.21138	1.34291
802.28281	1.31966
800.35425	1.31695
798.42568	1.33239
796.49712	1.32506
794.56855	1.30406
792.63999	1.31494
790.71143	1.35092
788.78286	1.38090
786.85430	1.40917
784.92573	1.42980
782.99717	1.42898
781.06860	1.43437
779.14004	1.45410
777.21147	1.49985
775.28291	1.59467
773.35435	1.79285
771.42578	1.93589
769.49722	1.58066
767.56865	1.39026
765.64009	1.35520
763.71152	1.32148
761.78296	1.28606
759.85439	1.27406
757.92583	1.27130
755.99727	1.28099
754.06870	1.31787
752.14014	1.29475
750.21157	1.19025
748.28301	1.09190
746.35444	1.00541
744.42588	0.92605
742.49731	0.91008
740.56875	0.97116
738.64019	1.00119
736.71162	0.92893
734.78306	0.78393
732.85449	0.62536
730.92593	0.51738
728.99736	0.40503
727.06880	0.25657
725.14023	0.12359
723.21167	0.06346
721.28311	-0.02269
719.35454	-0.16540
717.42598	-0.20236
715.49741	-0.07416
713.56885	0.04672
711.64028	0.18175
709.71172	0.57096
707.78315	0.65162
705.85459	0.43695
703.92603	0.32617
701.99746	0.25650
700.06890	0.22292
698.14033	0.27982
696.21177	0.41853
694.28320	0.53600
692.35464	0.60144
690.42607	0.63901
688.49751	0.55249
686.56895	0.46292
684.64038	0.40732
682.71182	0.34762
680.78325	0.35022
678.85469	0.40544
676.92612	0.41082
674.99756	0.37819
673.06899	0.37838
671.14043	0.38304
669.21187	0.36409
667.28330	0.33945
665.35474	0.30440
663.42617	0.28819
661.49761	0.32964
659.56904	0.41018
657.64048	0.46186
655.71191	0.44075
653.78335	0.41478
651.85479	0.40272
649.92622	0.33314
647.99766	0.26661
646.06909	0.27432
644.14053	0.31547
642.21196	0.29165
640.28340	0.25687
638.35483	0.25902
636.42627	0.26057
634.49771	0.32987
632.56914	0.61670
630.64058	0.81085
628.71201	0.43090
626.78345	0.22802
624.85488	0.16996
622.92632	0.23297
620.99775	0.38068
619.06919	0.45663
617.14062	0.35951
615.21206	0.24884
613.28350	0.20145
611.35493	0.21972
609.42637	0.28037
607.49780	0.39417
605.56924	0.59330
603.64067	0.60854
601.71211	0.45151
599.78354	0.44438
597.85498	0.43810
595.92642	0.36440
593.99785	0.35885
592.06929	0.46384
590.14072	0.67094
588.21216	1.06211
586.28359	0.96693
584.35503	0.60738
582.42646	0.39306
580.49790	0.31530
578.56934	0.42612
576.64077	0.75084
574.71221	0.57491
572.78364	0.32150
570.85508	0.21923
568.92651	0.22342
566.99795	0.25046
565.06938	0.23230
563.14082	0.22877
561.21226	0.27661
559.28369	0.34379
557.35513	0.36621
555.42656	0.34651
553.49800	0.28257
551.56943	0.23285
549.64087	0.29625
547.71230	0.47444
545.78374	0.54986
543.85518	0.50136
541.92661	0.54611
539.99805	0.64108
538.06948	0.61593
536.14092	0.54416
534.21235	0.45884
532.28379	0.36326
530.35522	0.33977
528.42666	0.36364
526.49810	0.37453
524.56953	0.40939
522.64097	0.42893
520.71240	0.34738
518.78384	0.25383
516.85527	0.18088
514.92671	0.12905
512.99814	0.13948
511.06958	0.23362
509.14102	0.37606
507.21245	0.46100
505.28389	0.40011
503.35532	0.30789
501.42676	0.28073
499.49819	0.27868
