3997.91411	0.07217
3995.98555	0.07208
3994.05698	0.07236
3992.12842	0.07283
3990.19985	0.07314
3988.27129	0.07325
3986.34272	0.07356
3984.41416	0.07416
3982.48560	0.07459
3980.55703	0.07495
3978.62847	0.07525
3976.69990	0.07531
3974.77134	0.07543
3972.84277	0.07545
3970.91421	0.07512
3968.98564	0.07514
3967.05708	0.07584
3965.12852	0.07642
3963.19995	0.07663
3961.27139	0.07679
3959.34282	0.07669
3957.41426	0.07621
3955.48569	0.07579
3953.55713	0.07582
3951.62856	0.07601
3949.70000	0.07584
3947.77144	0.07566
3945.84287	0.07589
3943.91431	0.07614
3941.98574	0.07614
3940.05718	0.07591
3938.12861	0.07566
3936.20005	0.07561
3934.27148	0.07557
3932.34292	0.07537
3930.41436	0.07531
3928.48579	0.07557
3926.55723	0.07587
3924.62866	0.07590
3922.70010	0.07538
3920.77153	0.07460
3918.84297	0.07434
3916.91440	0.07476
3914.98584	0.07526
3913.05728	0.07536
3911.12871	0.07510
3909.20015	0.07470
3907.27158	0.07432
3905.34302	0.07385
3903.41445	0.07340
3901.48589	0.07371
3899.55732	0.07452
3897.62876	0.07495
3895.70020	0.07496
3893.77163	0.07484
3891.84307	0.07478
3889.91450	0.07502
3887.98594	0.07560
3886.05737	0.07622
3884.12881	0.07645
3882.20024	0.07594
3880.27168	0.07541
3878.34312	0.07562
3876.41455	0.07597
3874.48599	0.07584
3872.55742	0.07521
3870.62886	0.07472
3868.70029	0.07510
3866.77173	0.07567
3864.84316	0.07614
3862.91460	0.07703
3860.98604	0.07771
3859.05747	0.07776
3857.12891	0.07763
3855.20034	0.07773
3853.27178	0.07886
3851.34321	0.08066
3849.41465	0.08088
3847.48608	0.08080
3845.55752	0.08131
3843.62896	0.08176
3841.70039	0.08153
3839.77183	0.08135
3837.84326	0.08253
3835.91470	0.08396
3833.98613	0.08418
3832.05757	0.08448
3830.12900	0.08557
3828.20044	0.08641
3826.27187	0.08670
3824.34331	0.08701
3822.41475	0.08763
3820.48618	0.08884
3818.55762	0.08987
3816.62905	0.09066
3814.70049	0.09225
3812.77192	0.09363
3810.84336	0.09412
3808.91479	0.09439
3806.98623	0.09496
3805.05767	0.09596
3803.12910	0.09711
3801.20054	0.09866
3799.27197	0.10037
3797.34341	0.10149
3795.41484	0.10278
3793.48628	0.10406
3791.55771	0.10494
3789.62915	0.10594
3787.70059	0.10724
3785.77202	0.10870
3783.84346	0.11038
3781.91489	0.11201
3779.98633	0.11357
3778.05776	0.11559
3776.12920	0.11749
3774.20063	0.11867
3772.27207	0.11967
3770.34351	0.12119
3768.41494	0.12319
3766.48638	0.12499
3764.55781	0.12699
3762.62925	0.12896
3760.70068	0.13046
3758.77212	0.13233
3756.84355	0.13461
3754.91499	0.13644
3752.98643	0.13835
3751.05786	0.14133
3749.12930	0.14507
3747.20073	0.14765
3745.27217	0.14957
3743.34360	0.15300
3741.41504	0.15715
3739.48647	0.16007
3737.55791	0.16253
3735.62935	0.16590
3733.70078	0.17103
3731.77222	0.17649
3729.84365	0.18118
3727.91509	0.18539
3725.98652	0.19017
3724.05796	0.19639
3722.12939	0.20381
3720.20083	0.21168
3718.27227	0.21938
3716.34370	0.22686
3714.41514	0.23391
3712.48657	0.24187
3710.55801	0.25399
3708.62944	0.26844
3706.70088	0.28032
3704.77231	0.29109
3702.84375	0.30365
3700.91519	0.32021
3698.98662	0.33856
3697.05806	0.35587
3695.12949	0.37403
3693.20093	0.39319
3691.27236	0.41370
3689.34380	0.44025
3687.41523	0.47408
3685.48667	0.50498
3683.55811	0.53169
3681.62954	0.55946
3679.70098	0.58967
3677.77241	0.62091
3675.84385	0.65870
3673.91528	0.71119
3671.98672	0.75414
3670.05815	0.79177
3668.12959	0.84469
3666.20103	0.89361
3664.27246	0.93394
3662.34390	0.97710
3660.41533	1.02365
3658.48677	1.06875
3656.55820	1.11615
3654.62964	1.17020
3652.70107	1.21636
3650.77251	1.25526
3648.84395	1.30832
3646.91538	1.37595
3644.98682	1.42684
3643.05825	1.46541
3641.12969	1.50470
3639.20112	1.54826
3637.27256	1.59219
3635.34399	1.63439
3633.41543	1.67591
3631.48687	1.71498
3629.55830	1.75495
3627.62974	1.80820
3625.70117	1.85899
3623.77261	1.89281
3621.84404	1.92450
3619.91548	1.96105
3617.98691	2.00573
3616.05835	2.04947
3614.12979	2.08647
3612.20122	2.12541
3610.27266	2.16517
3608.34409	2.20523
3606.41553	2.24741
3604.48696	2.28701
3602.55840	2.32310
3600.62983	2.36177
3598.70127	2.40270
3596.77271	2.44200
3594.84414	2.48212
3592.91558	2.52414
3590.98701	2.56334
3589.05845	2.59831
3587.12988	2.63900
3585.20132	2.68524
3583.27275	2.72685
3581.34419	2.76688
3579.41562	2.80844
3577.48706	2.85068
3575.55850	2.89361
3573.62993	2.93735
3571.70137	2.97916
3569.77280	3.01869
3567.84424	3.05997
3565.91567	3.10964
3563.98711	3.15932
3562.05854	3.20334
3560.12998	3.24784
3558.20142	3.29161
3556.27285	3.33439
3554.34429	3.37793
3552.41572	3.42414
3550.48716	3.47167
3548.55859	3.51643
3546.63003	3.55949
3544.70146	3.60733
3542.77290	3.65948
3540.84434	3.70763
3538.91577	3.75018
3536.98721	3.79347
3535.05864	3.84282
3533.13008	3.89411
3531.20151	3.94384
3529.27295	3.99149
3527.34438	4.03837
3525.41582	4.08570
3523.48726	4.13351
3521.55869	4.18215
3519.63013	4.22947
3517.70156	4.27668
3515.77300	4.32496
3513.84443	4.37402
3511.91587	4.42525
3509.98730	4.47564
3508.05874	4.52005
3506.13018	4.56339
3504.20161	4.60990
3502.27305	4.65973
3500.34448	4.71133
3498.41592	4.76044
3496.48735	4.81037
3494.55879	4.85907
3492.63022	4.90326
3490.70166	4.95116
3488.77310	5.00244
3486.84453	5.04617
3484.91597	5.08492
3482.98740	5.12892
3481.05884	5.17820
3479.13027	5.22865
3477.20171	5.28044
3475.27314	5.33344
3473.34458	5.38333
3471.41602	5.43066
3469.48745	5.47656
3467.55889	5.52040
3465.63032	5.57065
3463.70176	5.62252
3461.77319	5.66253
3459.84463	5.70455
3457.91606	5.75897
3455.98750	5.81938
3454.05894	5.87819
3452.13037	5.92680
3450.20181	5.96895
3448.27324	6.01346
3446.34468	6.05833
3444.41611	6.10431
3442.48755	6.16647
3440.55898	6.23113
3438.63042	6.27334
3436.70186	6.30360
3434.77329	6.35062
3432.84473	6.41521
3430.91616	6.46850
3428.98760	6.51305
3427.05903	6.56707
3425.13047	6.61743
3423.20190	6.63826
3421.27334	6.67339
3419.34478	6.76018
3417.41621	6.84345
3415.48765	6.88973
3413.55908	6.92006
3411.63052	6.96393
3409.70195	7.01868
3407.77339	7.06637
3405.84482	7.09907
3403.91626	7.11054
3401.98770	7.11242
3400.05913	7.12586
3398.13057	7.16482
3396.20200	7.24136
3394.27344	7.32005
3392.34487	7.34559
3390.41631	7.37033
3388.48774	7.44455
3386.55918	7.51659
3384.63062	7.54301
3382.70205	7.57797
3380.77349	7.62650
3378.84492	7.63724
3376.91636	7.63305
3374.98779	7.64549
3373.05923	7.67326
3371.13066	7.67384
3369.20210	7.64022
3367.27354	7.62153
3365.34497	7.67070
3363.41641	7.76531
3361.48784	7.84437
3359.55928	7.88201
3357.63071	7.87082
3355.70215	7.84387
3353.77358	7.82317
3351.84502	7.86250
3349.91646	7.94967
3347.98789	7.99423
3346.05933	7.97470
3344.13076	7.96139
3342.20220	7.98617
3340.27363	7.99811
3338.34507	8.00031
3336.41650	8.00475
3334.48794	8.05935
3332.55937	8.11767
3330.63081	8.04142
3328.70225	7.92782
3326.77368	7.96247
3324.84512	8.08890
3322.91655	8.07130
3320.98799	7.96106
3319.05942	7.93539
3317.13086	7.98815
3315.20229	8.02464
3313.27373	8.03770
3311.34517	8.05787
3309.41660	8.05762
3307.48804	8.08628
3305.55947	8.19759
3303.63091	8.27714
3301.70234	8.25338
3299.77378	8.24775
3297.84521	8.20900
3295.91665	8.07169
3293.98809	7.98707
3292.05952	8.01729
3290.13096	8.07318
3288.20239	8.09321
3286.27383	8.08863
3284.34526	8.07662
3282.41670	8.08305
3280.48813	8.12415
3278.55957	8.18074
3276.63101	8.17918
3274.70244	8.17374
3272.77388	8.21021
3270.84531	8.16029
3268.91675	8.07287
3266.98818	8.10942
3265.05962	8.20993
3263.13105	8.21803
3261.20249	8.17568
3259.27393	8.13204
3257.34536	8.11743
3255.41680	8.16346
3253.48823	8.22405
3251.55967	8.24878
3249.63110	8.23010
3247.70254	8.22389
3245.77397	8.19894
3243.84541	8.10833
3241.91685	8.02242
3239.98828	8.00106
3238.05972	7.99249
3236.13115	7.95042
3234.20259	7.95139
3232.27402	7.99804
3230.34546	8.01227
3228.41689	8.01669
3226.48833	8.05011
3224.55977	8.08759
3222.63120	8.13482
3220.70264	8.15124
3218.77407	8.09965
3216.84551	8.04711
3214.91694	7.95777
3212.98838	7.85716
3211.05981	7.88939
3209.13125	8.00445
3207.20269	8.01375
3205.27412	7.90729
3203.34556	7.80670
3201.41699	7.76484
3199.48843	7.75523
3197.55986	7.73740
3195.63130	7.70327
3193.70273	7.66128
3191.77417	7.62090
3189.84561	7.58740
3187.91704	7.51777
3185.98848	7.42825
3184.05991	7.40802
3182.13135	7.40590
3180.20278	7.33644
3178.27422	7.24505
3176.34565	7.17104
3174.41709	7.14012
3172.48853	7.14334
3170.55996	7.09708
3168.63140	7.01636
3166.70283	6.97054
3164.77427	6.92572
3162.84570	6.84447
3160.91714	6.76293
3158.98857	6.71803
3157.06001	6.68138
3155.13145	6.61744
3153.20288	6.54928
3151.27432	6.48046
3149.34575	6.38874
3147.41719	6.30407
3145.48862	6.24655
3143.56006	6.18618
3141.63149	6.10633
3139.70293	6.01588
3137.77437	5.93583
3135.84580	5.87168
3133.91724	5.81217
3131.98867	5.75123
3130.06011	5.68617
3128.13154	5.61795
3126.20298	5.54390
3124.27441	5.46646
3122.34585	5.39095
3120.41729	5.31362
3118.48872	5.23735
3116.56016	5.17151
3114.63159	5.10942
3112.70303	5.03772
3110.77446	4.95933
3108.84590	4.88523
3106.91733	4.81890
3104.98877	4.75496
3103.06021	4.69017
3101.13164	4.62352
3099.20308	4.55506
3097.27451	4.48646
3095.34595	4.41539
3093.41738	4.34453
3091.48882	4.28119
3089.56025	4.22229
3087.63169	4.15888
3085.70312	4.09132
3083.77456	4.02700
3081.84600	3.96713
3079.91743	3.90694
3077.98887	3.84457
3076.06030	3.78128
3074.13174	3.71971
3072.20317	3.66178
3070.27461	3.60630
3068.34604	3.55099
3066.41748	3.49368
3064.48892	3.43515
3062.56035	3.37698
3060.63179	3.31976
3058.70322	3.26421
3056.77466	3.20958
3054.84609	3.15610
3052.91753	3.10413
3050.98896	3.05240
3049.06040	3.00027
3047.13184	2.94843
3045.20327	2.89837
3043.27471	2.85029
3041.34614	2.80241
3039.41758	2.75386
3037.48901	2.70559
3035.56045	2.65825
3033.63188	2.61224
3031.70332	2.56772
3029.77476	2.52351
3027.84619	2.47886
3025.91763	2.43438
3023.98906	2.39121
3022.06050	2.34949
3020.13193	2.30816
3018.20337	2.26708
3016.27480	2.22690
3014.34624	2.18784
3012.41768	2.14973
3010.48911	2.11223
3008.56055	2.07468
3006.63198	2.03732
3004.70342	2.00134
3002.77485	1.96644
3000.84629	1.93200
2998.91772	1.89817
2996.98916	1.86471
2995.06060	1.83122
2993.13203	1.79789
2991.20347	1.76558
2989.27490	1.73464
2987.34634	1.70455
2985.41777	1.67487
2983.48921	1.64567
2981.56064	1.61695
2979.63208	1.58849
2977.70352	1.56039
2975.77495	1.53285
2973.84639	1.50586
2971.91782	1.47954
2969.98926	1.45373
2968.06069	1.42791
2966.13213	1.40237
2964.20356	1.37779
2962.27500	1.35375
2960.34644	1.32985
2958.41787	1.30634
2956.48931	1.28321
2954.56074	1.26021
2952.63218	1.23731
2950.70361	1.21496
2948.77505	1.19345
2946.84648	1.17209
2944.91792	1.15042
2942.98936	1.12915
2941.06079	1.10914
2939.13223	1.09023
2937.20366	1.07154
2935.27510	1.05208
2933.34653	1.03197
2931.41797	1.01281
2929.48940	0.99484
2927.56084	0.97742
2925.63228	0.96049
2923.70371	0.94354
2921.77515	0.92638
2919.84658	0.90958
2917.91802	0.89326
2915.98945	0.87703
2914.06089	0.86098
2912.13232	0.84533
2910.20376	0.83011
2908.27520	0.81547
2906.34663	0.80118
2904.41807	0.78705
2902.48950	0.77325
2900.56094	0.75987
2898.63237	0.74686
2896.70381	0.73402
2894.77524	0.72140
2892.84668	0.70932
2890.91812	0.69769
2888.98955	0.68613
2887.06099	0.67465
2885.13242	0.66362
2883.20386	0.65308
2881.27529	0.64277
2879.34673	0.63246
2877.41816	0.62207
2875.48960	0.61196
2873.56104	0.60234
2871.63247	0.59261
2869.70391	0.58218
2867.77534	0.57152
2865.84678	0.56130
2863.91821	0.55140
2861.98965	0.54153
2860.06108	0.53166
2858.13252	0.52209
2856.20396	0.51318
2854.27539	0.50465
2852.34683	0.49637
2850.41826	0.48849
2848.48970	0.48061
2846.56113	0.47249
2844.63257	0.46471
2842.70400	0.45772
2840.77544	0.45116
2838.84687	0.44474
2836.91831	0.43835
2834.98975	0.43199
2833.06118	0.42583
2831.13262	0.41978
2829.20405	0.41363
2827.27549	0.40738
2825.34692	0.40131
2823.41836	0.39563
2821.48979	0.38999
2819.56123	0.38410
2817.63267	0.37821
2815.70410	0.37254
2813.77554	0.36710
2811.84697	0.36187
2809.91841	0.35669
2807.98984	0.35149
2806.06128	0.34638
2804.13271	0.34138
2802.20415	0.33658
2800.27559	0.33193
2798.34702	0.32732
2796.41846	0.32296
2794.48989	0.31865
2792.56133	0.31405
2790.63276	0.30947
2788.70420	0.30509
2786.77563	0.30081
2784.84707	0.29681
2782.91851	0.29305
2780.98994	0.28915
2779.06138	0.28515
2777.13281	0.28128
2775.20425	0.27764
2773.27568	0.27403
2771.34712	0.27035
2769.41855	0.26698
2767.48999	0.26387
2765.56143	0.26068
2763.63286	0.25757
2761.70430	0.25455
2759.77573	0.25145
2757.84717	0.24837
2755.91860	0.24534
2753.99004	0.24222
2752.06147	0.23927
2750.13291	0.23673
2748.20435	0.23429
2746.27578	0.23154
2744.34722	0.22865
2742.41865	0.22610
2740.49009	0.22386
2738.56152	0.22151
2736.63296	0.21897
2734.70439	0.21657
2732.77583	0.21438
2730.84727	0.21225
2728.91870	0.21011
2726.99014	0.20789
2725.06157	0.20565
2723.13301	0.20354
2721.20444	0.20169
2719.27588	0.20004
2717.34731	0.19829
2715.41875	0.19634
2713.49019	0.19448
2711.56162	0.19277
2709.63306	0.19104
2707.70449	0.18933
2705.77593	0.18772
2703.84736	0.18611
2701.91880	0.18452
2699.99023	0.18304
2698.06167	0.18173
2696.13311	0.18048
2694.20454	0.17898
2692.27598	0.17738
2690.34741	0.17610
2688.41885	0.17496
2686.49028	0.17367
2684.56172	0.17248
2682.63315	0.17147
2680.70459	0.17029
2678.77603	0.16908
2676.84746	0.16811
2674.91890	0.16714
2672.99033	0.16598
2671.06177	0.16475
2669.13320	0.16370
2667.20464	0.16288
2665.27607	0.16209
2663.34751	0.16118
2661.41895	0.16023
2659.49038	0.15949
2657.56182	0.15897
2655.63325	0.15837
2653.70469	0.15761
2651.77612	0.15679
2649.84756	0.15599
2647.91899	0.15533
2645.99043	0.15485
2644.06187	0.15437
2642.13330	0.15380
2640.20474	0.15340
2638.27617	0.15312
2636.34761	0.15268
2634.41904	0.15222
2632.49048	0.15186
2630.56191	0.15140
2628.63335	0.15084
2626.70479	0.15043
2624.77622	0.15024
2622.84766	0.15020
2620.91909	0.15012
2618.99053	0.14986
2617.06196	0.14949
2615.13340	0.14925
2613.20483	0.14920
2611.27627	0.14918
2609.34771	0.14916
2607.41914	0.14914
2605.49058	0.14901
2603.56201	0.14884
2601.63345	0.14881
2599.70488	0.14891
2597.77632	0.14905
2595.84775	0.14910
2593.91919	0.14910
2591.99062	0.14926
2590.06206	0.14960
2588.13350	0.14999
2586.20493	0.15031
2584.27637	0.15051
2582.34780	0.15061
2580.41924	0.15080
2578.49067	0.15117
2576.56211	0.15160
2574.63354	0.15193
2572.70498	0.15212
2570.77642	0.15232
2568.84785	0.15264
2566.91929	0.15303
2564.99072	0.15349
2563.06216	0.15403
2561.13359	0.15460
2559.20503	0.15508
2557.27646	0.15545
2555.34790	0.15586
2553.41934	0.15644
2551.49077	0.15711
2549.56221	0.15777
2547.63364	0.15838
2545.70508	0.15896
2543.77651	0.15962
2541.84795	0.16034
2539.91938	0.16090
2537.99082	0.16143
2536.06226	0.16209
2534.13369	0.16280
2532.20513	0.16352
2530.27656	0.16432
2528.34800	0.16504
2526.41943	0.16565
2524.49087	0.16634
2522.56230	0.16718
2520.63374	0.16803
2518.70518	0.16883
2516.77661	0.16966
2514.84805	0.17058
2512.91948	0.17152
2510.99092	0.17231
2509.06235	0.17296
2507.13379	0.17364
2505.20522	0.17430
2503.27666	0.17502
2501.34810	0.17586
2499.41953	0.17676
2497.49097	0.17765
2495.56240	0.17846
2493.63384	0.17925
2491.70527	0.18021
2489.77671	0.18125
2487.84814	0.18218
2485.91958	0.18300
2483.99102	0.18386
2482.06245	0.18478
2480.13389	0.18568
2478.20532	0.18656
2476.27676	0.18745
2474.34819	0.18830
2472.41963	0.18910
2470.49106	0.18999
2468.56250	0.19102
2466.63394	0.19204
2464.70537	0.19299
2462.77681	0.19401
2460.84824	0.19510
2458.91968	0.19605
2456.99111	0.19676
2455.06255	0.19756
2453.13398	0.19865
2451.20542	0.19973
2449.27686	0.20070
2447.34829	0.20169
2445.41973	0.20271
2443.49116	0.20381
2441.56260	0.20497
2439.63403	0.20602
2437.70547	0.20699
2435.77690	0.20799
2433.84834	0.20901
2431.91978	0.21004
2429.99121	0.21113
2428.06265	0.21225
2426.13408	0.21332
2424.20552	0.21432
2422.27695	0.21529
2420.34839	0.21641
2418.41982	0.21771
2416.49126	0.21886
2414.56270	0.21979
2412.63413	0.22086
2410.70557	0.22212
2408.77700	0.22338
2406.84844	0.22454
2404.91987	0.22567
2402.99131	0.22684
2401.06274	0.22801
2399.13418	0.22916
2397.20562	0.23039
2395.27705	0.23177
2393.34849	0.23312
2391.41992	0.23433
2389.49136	0.23542
2387.56279	0.23650
2385.63423	0.23765
2383.70566	0.23871
2381.77710	0.23964
2379.84854	0.24050
2377.91997	0.24123
2375.99141	0.24194
2374.06284	0.24283
2372.13428	0.24370
2370.20571	0.24400
2368.27715	0.24377
2366.34858	0.24387
2364.42002	0.24503
2362.49146	0.24650
2360.56289	0.24730
2358.63433	0.24862
2356.70576	0.25111
2354.77720	0.25404
2352.84863	0.25729
2350.92007	0.26024
2348.99150	0.26198
2347.06294	0.26249
2345.13437	0.26263
2343.20581	0.26379
2341.27725	0.26563
2339.34868	0.26672
2337.42012	0.26811
2335.49155	0.27040
2333.56299	0.27258
2331.63442	0.27449
2329.70586	0.27633
2327.77729	0.27807
2325.84873	0.27981
2323.92017	0.28175
2321.99160	0.28410
2320.06304	0.28661
2318.13447	0.28871
2316.20591	0.29035
2314.27734	0.29203
2312.34878	0.29404
2310.42021	0.29622
2308.49165	0.29840
2306.56309	0.30056
2304.63452	0.30254
2302.70596	0.30428
2300.77739	0.30601
2298.84883	0.30785
2296.92026	0.30984
2294.99170	0.31195
2293.06313	0.31402
2291.13457	0.31595
2289.20601	0.31796
2287.27744	0.32006
2285.34888	0.32214
2283.42031	0.32419
2281.49175	0.32616
2279.56318	0.32804
2277.63462	0.33002
2275.70605	0.33222
2273.77749	0.33442
2271.84893	0.33646
2269.92036	0.33849
2267.99180	0.34061
2266.06323	0.34275
2264.13467	0.34484
2262.20610	0.34689
2260.27754	0.34898
2258.34897	0.35118
2256.42041	0.35335
2254.49185	0.35537
2252.56328	0.35744
2250.63472	0.35968
2248.70615	0.36204
2246.77759	0.36431
2244.84902	0.36647
2242.92046	0.36868
2240.99189	0.37089
2239.06333	0.37308
2237.13477	0.37534
2235.20620	0.37762
2233.27764	0.37989
2231.34907	0.38216
2229.42051	0.38436
2227.49194	0.38649
2225.56338	0.38868
2223.63481	0.39086
2221.70625	0.39299
2219.77769	0.39516
2217.84912	0.39732
2215.92056	0.39953
2213.99199	0.40181
2212.06343	0.40395
2210.13486	0.40599
2208.20630	0.40804
2206.27773	0.41009
2204.34917	0.41224
2202.42061	0.41447
2200.49204	0.41660
2198.56348	0.41863
2196.63491	0.42061
2194.70635	0.42248
2192.77778	0.42423
2190.84922	0.42605
2188.92065	0.42791
2186.99209	0.42965
2185.06353	0.43148
2183.13496	0.43340
2181.20640	0.43512
2179.27783	0.43656
2177.34927	0.43801
2175.42070	0.43963
2173.49214	0.44123
2171.56357	0.44272
2169.63501	0.44417
2167.70645	0.44554
2165.77788	0.44677
2163.84932	0.44790
2161.92075	0.44901
2159.99219	0.45012
2158.06362	0.45110
2156.13506	0.45194
2154.20649	0.45272
2152.27793	0.45350
2150.34937	0.45430
2148.42080	0.45506
2146.49224	0.45574
2144.56367	0.45625
2142.63511	0.45669
2140.70654	0.45713
2138.77798	0.45736
2136.84941	0.45734
2134.92085	0.45731
2132.99229	0.45733
2131.06372	0.45734
2129.13516	0.45727
2127.20659	0.45699
2125.27803	0.45648
2123.34946	0.45596
2121.42090	0.45556
2119.49233	0.45508
2117.56377	0.45449
2115.63521	0.45378
2113.70664	0.45290
2111.77808	0.45196
2109.84951	0.45103
2107.92095	0.45001
2105.99238	0.44877
2104.06382	0.44740
2102.13525	0.44615
2100.20669	0.44503
2098.27812	0.44369
2096.34956	0.44214
2094.42100	0.44059
2092.49243	0.43897
2090.56387	0.43718
2088.63530	0.43531
2086.70674	0.43350
2084.77817	0.43164
2082.84961	0.42968
2080.92104	0.42767
2078.99248	0.42568
2077.06392	0.42361
2075.13535	0.42146
2073.20679	0.41934
2071.27822	0.41720
2069.34966	0.41489
2067.42109	0.41250
2065.49253	0.41013
2063.56396	0.40767
2061.63540	0.40517
2059.70684	0.40270
2057.77827	0.40022
2055.84971	0.39772
2053.92114	0.39513
2051.99258	0.39246
2050.06401	0.38978
2048.13545	0.38712
2046.20688	0.38448
2044.27832	0.38190
2042.34976	0.37929
2040.42119	0.37661
2038.49263	0.37389
2036.56406	0.37115
2034.63550	0.36848
2032.70693	0.36582
2030.77837	0.36307
2028.84980	0.36022
2026.92124	0.35740
2024.99268	0.35463
2023.06411	0.35189
2021.13555	0.34914
2019.20698	0.34630
2017.27842	0.34341
2015.34985	0.34061
2013.42129	0.33795
2011.49272	0.33532
2009.56416	0.33264
2007.63560	0.32988
2005.70703	0.32709
2003.77847	0.32438
2001.84990	0.32173
1999.92134	0.31907
1997.99277	0.31644
1996.06421	0.31388
1994.13564	0.31138
1992.20708	0.30898
1990.27852	0.30660
1988.34995	0.30414
1986.42139	0.30160
1984.49282	0.29911
1982.56426	0.29677
1980.63569	0.29453
1978.70713	0.29226
1976.77856	0.28998
1974.85000	0.28777
1972.92144	0.28563
1970.99287	0.28354
1969.06431	0.28150
1967.13574	0.27945
1965.20718	0.27739
1963.27861	0.27542
1961.35005	0.27349
1959.42148	0.27158
1957.49292	0.26977
1955.56436	0.26803
1953.63579	0.26636
1951.70723	0.26484
1949.77866	0.26341
1947.85010	0.26182
1945.92153	0.26003
1943.99297	0.25825
1942.06440	0.25668
1940.13584	0.25530
1938.20728	0.25398
1936.27871	0.25267
1934.35015	0.25135
1932.42158	0.25014
1930.49302	0.24903
1928.56445	0.24795
1926.63589	0.24680
1924.70732	0.24566
1922.77876	0.24462
1920.85020	0.24369
1918.92163	0.24283
1916.99307	0.24200
1915.06450	0.24120
1913.13594	0.24038
1911.20737	0.23964
1909.27881	0.23901
1907.35024	0.23845
1905.42168	0.23790
1903.49312	0.23731
1901.56455	0.23673
1899.63599	0.23621
1897.70742	0.23574
1895.77886	0.23524
1893.85029	0.23487
1891.92173	0.23452
1889.99316	0.23422
1888.06460	0.23401
1886.13604	0.23382
1884.20747	0.23363
1882.27891	0.23346
1880.35034	0.23337
1878.42178	0.23344
1876.49321	0.23358
1874.56465	0.23359
1872.63608	0.23351
1870.70752	0.23346
1868.77896	0.23367
1866.85039	0.23404
1864.92183	0.23429
1862.99326	0.23448
1861.06470	0.23472
1859.13613	0.23505
1857.20757	0.23541
1855.27900	0.23583
1853.35044	0.23621
1851.42187	0.23664
1849.49331	0.23713
1847.56475	0.23763
1845.63618	0.23827
1843.70762	0.23930
1841.77905	0.24047
1839.85049	0.24120
1837.92192	0.24191
1835.99336	0.24278
1834.06479	0.24375
1832.13623	0.24459
1830.20767	0.24566
1828.27910	0.24706
1826.35054	0.24822
1824.42197	0.24950
1822.49341	0.25101
1820.56484	0.25256
1818.63628	0.25401
1816.70771	0.25558
1814.77915	0.25724
1812.85059	0.25900
1810.92202	0.26092
1808.99346	0.26293
1807.06489	0.26494
1805.13633	0.26686
1803.20776	0.26888
1801.27920	0.27116
1799.35063	0.27399
1797.42207	0.27669
1795.49351	0.27903
1793.56494	0.28152
1791.63638	0.28494
1789.70781	0.28870
1787.77925	0.29165
1785.85068	0.29485
1783.92212	0.29860
1781.99355	0.30255
1780.06499	0.30661
1778.13643	0.31085
1776.20786	0.31477
1774.27930	0.31870
1772.35073	0.32403
1770.42217	0.33045
1768.49360	0.33637
1766.56504	0.34195
1764.63647	0.34730
1762.70791	0.35291
1760.77935	0.36025
1758.85078	0.36737
1756.92222	0.37457
1754.99365	0.38262
1753.06509	0.38980
1751.13652	0.39778
1749.20796	0.40795
1747.27939	0.41861
1745.35083	0.42812
1743.42227	0.43782
1741.49370	0.44840
1739.56514	0.46112
1737.63657	0.47395
1735.70801	0.48473
1733.77944	0.50072
1731.85088	0.52078
1729.92231	0.53695
1727.99375	0.55300
1726.06519	0.57003
1724.13662	0.58851
1722.20806	0.60845
1720.27949	0.62647
1718.35093	0.64684
1716.42236	0.67766
1714.49380	0.70856
1712.56523	0.73403
1710.63667	0.75813
1708.70811	0.78346
1706.77954	0.81217
1704.85098	0.84695
1702.92241	0.87812
1700.99385	0.90832
1699.06528	0.95300
1697.13672	0.99432
1695.20815	1.03735
1693.27959	1.07950
1691.35103	1.11301
1689.42246	1.15121
1687.49390	1.19151
1685.56533	1.22992
1683.63677	1.28886
1681.70820	1.35072
1679.77964	1.39079
1677.85107	1.42853
1675.92251	1.47102
1673.99395	1.52385
1672.06538	1.57169
1670.13682	1.61821
1668.20825	1.67774
1666.27969	1.72562
1664.35112	1.76528
1662.42256	1.81502
1660.49399	1.87208
1658.56543	1.91647
1656.63687	1.95147
1654.70830	1.98279
1652.77974	2.03368
1650.85117	2.08505
1648.92261	2.10498
1646.99404	2.13182
1645.06548	2.16437
1643.13691	2.18433
1641.20835	2.19431
1639.27979	2.20211
1637.35122	2.20512
1635.42266	2.20291
1633.49409	2.19892
1631.56553	2.18977
1629.63696	2.17582
1627.70840	2.15202
1625.77983	2.12393
1623.85127	2.08650
1621.92271	2.03851
1619.99414	1.99539
1618.06558	1.95343
1616.13701	1.89448
1614.20845	1.83480
1612.27988	1.78852
1610.35132	1.73913
1608.42275	1.68547
1606.49419	1.63305
1604.56562	1.58472
1602.63706	1.53786
1600.70850	1.49199
1598.77993	1.44979
1596.85137	1.41023
1594.92280	1.37173
1592.99424	1.33440
1591.06567	1.30013
1589.13711	1.26783
1587.20854	1.23744
1585.27998	1.20902
1583.35142	1.18215
1581.42285	1.15746
1579.49429	1.13608
1577.56572	1.11625
1575.63716	1.09214
1573.70859	1.07131
1571.78003	1.05740
1569.85146	1.04214
1567.92290	1.02511
1565.99434	1.01197
1564.06577	1.00088
1562.13721	0.99159
1560.20864	0.98384
1558.28008	0.97202
1556.35151	0.96259
1554.42295	0.95703
1552.49438	0.95110
1550.56582	0.94444
1548.63726	0.93655
1546.70869	0.92820
1544.78013	0.91875
1542.85156	0.90759
1540.92300	0.89401
1538.99443	0.87633
1537.06587	0.86407
1535.13730	0.85526
1533.20874	0.84325
1531.28018	0.83050
1529.35161	0.82115
1527.42305	0.81202
1525.49448	0.80251
1523.56592	0.79423
1521.63735	0.78575
1519.70879	0.77738
1517.78022	0.77094
1515.85166	0.76367
1513.92310	0.75590
1511.99453	0.74902
1510.06597	0.74253
1508.13740	0.73616
1506.20884	0.72769
1504.28027	0.72069
1502.35171	0.71614
1500.42314	0.71179
1498.49458	0.70706
1496.56602	0.70180
1494.63745	0.69708
1492.70889	0.69336
1490.78032	0.68968
1488.85176	0.68546
1486.92319	0.68185
1484.99463	0.67912
1483.06606	0.67674
1481.13750	0.67438
1479.20894	0.67209
1477.28037	0.67017
1475.35181	0.66871
1473.42324	0.66764
1471.49468	0.66613
1469.56611	0.66408
1467.63755	0.66212
1465.70898	0.66036
1463.78042	0.65862
1461.85186	0.65698
1459.92329	0.65555
1457.99473	0.65400
1456.06616	0.65232
1454.13760	0.65065
1452.20903	0.64868
1450.28047	0.64637
1448.35190	0.64405
1446.42334	0.64179
1444.49478	0.63979
1442.56621	0.63793
1440.63765	0.63593
1438.70908	0.63381
1436.78052	0.63137
1434.85195	0.62888
1432.92339	0.62686
1430.99482	0.62524
1429.06626	0.62392
1427.13770	0.62286
1425.20913	0.62221
1423.28057	0.62189
1421.35200	0.62130
1419.42344	0.62024
1417.49487	0.61899
1415.56631	0.61769
1413.63774	0.61653
1411.70918	0.61560
1409.78062	0.61490
1407.85205	0.61426
1405.92349	0.61356
1403.99492	0.61281
1402.06636	0.61191
1400.13779	0.61070
1398.20923	0.60909
1396.28066	0.60724
1394.35210	0.60528
1392.42354	0.60321
1390.49497	0.60112
1388.56641	0.59896
1386.63784	0.59664
1384.70928	0.59424
1382.78071	0.59192
1380.85215	0.58970
1378.92358	0.58778
1376.99502	0.58623
1375.06646	0.58489
1373.13789	0.58385
1371.20933	0.58321
1369.28076	0.58264
1367.35220	0.58182
1365.42363	0.58064
1363.49507	0.57933
1361.56650	0.57815
1359.63794	0.57704
1357.70937	0.57597
1355.78081	0.57493
1353.85225	0.57387
1351.92368	0.57288
1349.99512	0.57199
1348.06655	0.57116
1346.13799	0.57034
1344.20942	0.56937
1342.28086	0.56821
1340.35229	0.56711
1338.42373	0.56627
1336.49517	0.56545
1334.56660	0.56445
1332.63804	0.56356
1330.70947	0.56308
1328.78091	0.56289
1326.85234	0.56265
1324.92378	0.56229
1322.99521	0.56199
1321.06665	0.56181
1319.13809	0.56160
1317.20952	0.56115
1315.28096	0.56058
1313.35239	0.55998
1311.42383	0.55935
1309.49526	0.55864
1307.56670	0.55773
1305.63813	0.55673
1303.70957	0.55590
1301.78101	0.55524
1299.85244	0.55462
1297.92388	0.55387
1295.99531	0.55290
1294.06675	0.55191
1292.13818	0.55097
1290.20962	0.55001
1288.28105	0.54920
1286.35249	0.54850
1284.42393	0.54774
1282.49536	0.54698
1280.56680	0.54620
1278.63823	0.54543
1276.70967	0.54465
1274.78110	0.54384
1272.85254	0.54319
1270.92397	0.54274
1268.99541	0.54242
1267.06685	0.54200
1265.13828	0.54129
1263.20972	0.54049
1261.28115	0.53987
1259.35259	0.53949
1257.42402	0.53921
1255.49546	0.53883
1253.56689	0.53831
1251.63833	0.53788
1249.70977	0.53757
1247.78120	0.53722
1245.85264	0.53688
1243.92407	0.53635
1241.99551	0.53560
1240.06694	0.53481
1238.13838	0.53394
1236.20981	0.53290
1234.28125	0.53173
1232.35269	0.53050
1230.42412	0.52932
1228.49556	0.52815
1226.56699	0.52691
1224.63843	0.52576
1222.70986	0.52468
1220.78130	0.52350
1218.85273	0.52229
1216.92417	0.52127
1214.99561	0.52051
1213.06704	0.51989
1211.13848	0.51934
1209.20991	0.51882
1207.28135	0.51821
1205.35278	0.51752
1203.42422	0.51690
1201.49565	0.51640
1199.56709	0.51573
1197.63853	0.51483
1195.70996	0.51402
1193.78140	0.51339
1191.85283	0.51276
1189.92427	0.51221
1187.99570	0.51187
1186.06714	0.51167
1184.13857	0.51166
1182.21001	0.51178
1180.28145	0.51196
1178.35288	0.51249
1176.42432	0.51341
1174.49575	0.51433
1172.56719	0.51510
1170.63862	0.51579
1168.71006	0.51634
1166.78149	0.51690
1164.85293	0.51754
1162.92437	0.51804
1160.99580	0.51841
1159.06724	0.51876
1157.13867	0.51888
1155.21011	0.51848
1153.28154	0.51743
1151.35298	0.51572
1149.42441	0.51361
1147.49585	0.51146
1145.56729	0.50932
1143.63872	0.50698
1141.71016	0.50450
1139.78159	0.50222
1137.85303	0.50048
1135.92446	0.49934
1133.99590	0.49856
1132.06733	0.49793
1130.13877	0.49737
1128.21021	0.49689
1126.28164	0.49648
1124.35308	0.49588
1122.42451	0.49519
1120.49595	0.49493
1118.56738	0.49507
1116.63882	0.49530
1114.71025	0.49571
1112.78169	0.49630
1110.85312	0.49694
1108.92456	0.49764
1106.99600	0.49842
1105.06743	0.49928
1103.13887	0.50022
1101.21030	0.50125
1099.28174	0.50262
1097.35317	0.50456
1095.42461	0.50723
1093.49604	0.51079
1091.56748	0.51550
1089.63892	0.52164
1087.71035	0.52904
1085.78179	0.53718
1083.85322	0.54549
1081.92466	0.55328
1079.99609	0.55954
1078.06753	0.56311
1076.13896	0.56329
1074.21040	0.56037
1072.28184	0.55521
1070.35327	0.54846
1068.42471	0.54091
1066.49614	0.53375
1064.56758	0.52756
1062.63901	0.52203
1060.71045	0.51707
1058.78188	0.51286
1056.85332	0.50922
1054.92476	0.50589
1052.99619	0.50291
1051.06763	0.50055
1049.13906	0.49896
1047.21050	0.49817
1045.28193	0.49811
1043.35337	0.49841
1041.42480	0.49864
1039.49624	0.49885
1037.56768	0.49923
1035.63911	0.49942
1033.71055	0.49888
1031.78198	0.49774
1029.85342	0.49631
1027.92485	0.49476
1025.99629	0.49349
1024.06772	0.49257
1022.13916	0.49183
1020.21060	0.49156
1018.28203	0.49189
1016.35347	0.49217
1014.42490	0.49195
1012.49634	0.49161
1010.56777	0.49168
1008.63921	0.49221
1006.71064	0.49292
1004.78208	0.49386
1002.85352	0.49540
1000.92495	0.49775
998.99639	0.50093
997.06782	0.50480
995.13926	0.50911
993.21069	0.51322
991.28213	0.51633
989.35356	0.51826
987.42500	0.51921
985.49644	0.51948
983.56787	0.51961
981.63931	0.51999
979.71074	0.52082
977.78218	0.52217
975.85361	0.52409
973.92505	0.52673
971.99648	0.52978
970.06792	0.53297
968.13936	0.53651
966.21079	0.54037
964.28223	0.54448
962.35366	0.54915
960.42510	0.55435
958.49653	0.55987
956.56797	0.56571
954.63940	0.57183
952.71084	0.57801
950.78228	0.58418
948.85371	0.59061
946.92515	0.59736
944.99658	0.60408
943.06802	0.61024
941.13945	0.61569
939.21089	0.62110
937.28232	0.62714
935.35376	0.63345
933.42520	0.63941
931.49663	0.64470
929.56807	0.64968
927.63950	0.65503
925.71094	0.66099
923.78237	0.66767
921.85381	0.67467
919.92524	0.68153
917.99668	0.68869
916.06812	0.69620
914.13955	0.70346
912.21099	0.71069
910.28242	0.71870
908.35386	0.72701
906.42529	0.73554
904.49673	0.74494
902.56816	0.75448
900.63960	0.76383
898.71104	0.77372
896.78247	0.78427
894.85391	0.79449
892.92534	0.80375
890.99678	0.81295
889.06821	0.82371
887.13965	0.83604
885.21108	0.84735
883.28252	0.85751
881.35396	0.86822
879.42539	0.87898
877.49683	0.88955
875.56826	0.90114
873.63970	0.91421
871.71113	0.92666
869.78257	0.93635
867.85400	0.94563
865.92544	0.95801
863.99687	0.97149
862.06831	0.98328
860.13975	0.99474
858.21118	1.00606
856.28262	1.01639
854.35405	1.02706
852.42549	1.03906
850.49692	1.05160
848.56836	1.06328
846.63979	1.07371
844.71123	1.08405
842.78267	1.09621
840.85410	1.10992
838.92554	1.12134
836.99697	1.13082
835.06841	1.14045
833.13984	1.14870
831.21128	1.15613
829.28271	1.16278
827.35415	1.16925
825.42559	1.17882
823.49702	1.19270
821.56846	1.20840
819.63989	1.22013
817.71133	1.22706
815.78276	1.23733
813.85420	1.25144
811.92563	1.25997
809.99707	1.26761
808.06851	1.28024
806.13994	1.27964
804.21138	1.26023
802.28281	1.25179
800.35425	1.27020
798.42568	1.30671
796.49712	1.33957
794.56855	1.34121
792.63999	1.32766
790.71143	1.32620
788.78286	1.32551
786.85430	1.32449
784.92573	1.34810
782.99717	1.38632
781.06860	1.38893
779.14004	1.33579
777.21147	1.29033
775.28291	1.31476
773.35435	1.37110
771.42578	1.38837
769.49722	1.35383
767.56865	1.23470
765.64009	1.11997
763.71152	1.09388
761.78296	1.12612
759.85439	1.15842
757.92583	1.17022
755.99727	1.16750
754.06870	1.14538
752.14014	1.08403
750.21157	1.04890
748.28301	1.08917
746.35444	1.17609
744.42588	1.19043
742.49731	1.03904
740.56875	0.91401
738.64019	0.90626
736.71162	0.89125
734.78306	0.76483
732.85449	0.65361
730.92593	0.60231
728.99736	0.58432
727.06880	0.58978
725.14023	0.64735
723.21167	0.61658
721.28311	0.49652
719.35454	0.46190
717.42598	0.36839
715.49741	0.22045
713.56885	0.14117
711.64028	0.09776
709.71172	0.05464
707.78315	0.04992
705.85459	0.09688
703.92603	0.12792
701.99746	0.16239
700.06890	0.19453
698.14033	0.19060
696.21177	0.23702
694.28320	0.31965
692.35464	0.36940
690.42607	0.37101
688.49751	0.31089
686.56895	0.21443
684.64038	0.19825
682.71182	0.19446
680.78325	0.15406
678.85469	0.21121
676.92612	0.30809
674.99756	0.22508
673.06899	0.11848
671.14043	0.16451
669.21187	0.23380
667.28330	0.15157
665.35474	0.02961
663.42617	-0.01614
661.49761	-0.01868
659.56904	-0.00154
657.64048	0.02464
655.71191	0.05858
653.78335	0.14307
651.85479	0.24047
649.92622	0.27955
647.99766	0.27769
646.06909	0.22185
644.14053	0.18595
642.21196	0.19750
640.28340	0.20019
638.35483	0.17612
636.42627	0.16986
634.49771	0.15807
632.56914	0.15476
630.64058	0.18737
628.71201	0.16762
626.78345	0.12606
624.85488	0.15584
622.92632	0.19458
620.99775	0.19684
619.06919	0.17750
617.14062	0.13106
615.21206	0.09651
613.28350	0.10751
611.35493	0.14986
609.42637	0.15932
607.49780	0.12222
605.56924	0.06609
603.64067	0.02321
601.71211	0.00760
599.78354	-0.00542
597.85498	-0.02805
595.92642	0.01815
593.99785	0.13518
592.06929	0.22559
590.14072	0.29734
588.21216	0.36183
586.28359	0.38035
584.35503	0.28926
582.42646	0.18991
580.49790	0.16383
578.56934	0.16541
576.64077	0.18207
574.71221	0.22475
572.78364	0.19665
570.85508	0.11794
568.92651	0.10302
566.99795	0.11377
565.06938	0.09495
563.14082	0.07345
561.21226	0.07924
559.28369	0.12229
557.35513	0.17779
555.42656	0.16063
553.49800	0.12466
551.56943	0.15714
549.64087	0.18681
547.71230	0.11536
545.78374	0.05073
543.85518	0.06704
541.92661	0.10724
539.99805	0.11344
538.06948	0.18510
536.14092	0.22192
534.21235	0.16405
532.28379	0.12229
530.35522	0.09575
528.42666	0.08082
526.49810	0.09084
524.56953	0.09843
522.64097	0.07905
520.71240	0.07201
518.78384	0.11620
516.85527	0.15644
514.92671	0.16061
512.99814	0.12669
511.06958	0.08923
509.14102	0.06732
507.21245	0.08310
505.28389	0.17547
503.35532	0.18331
501.42676	0.10571
499.49819	0.11947
