3997.91411	0.06933
3995.98555	0.06972
3994.05698	0.07043
3992.12842	0.07070
3990.19985	0.07063
3988.27129	0.07082
3986.34272	0.07099
3984.41416	0.07107
3982.48560	0.07161
3980.55703	0.07206
3978.62847	0.07198
3976.69990	0.07229
3974.77134	0.07311
3972.84277	0.07358
3970.91421	0.07340
3968.98564	0.07292
3967.05708	0.07260
3965.12852	0.07281
3963.19995	0.07333
3961.27139	0.07359
3959.34282	0.07356
3957.41426	0.07354
3955.48569	0.07366
3953.55713	0.07375
3951.62856	0.07361
3949.70000	0.07331
3947.77144	0.07338
3945.84287	0.07384
3943.91431	0.07385
3941.98574	0.07353
3940.05718	0.07359
3938.12861	0.07378
3936.20005	0.07377
3934.27148	0.07361
3932.34292	0.07347
3930.41436	0.07339
3928.48579	0.07332
3926.55723	0.07316
3924.62866	0.07322
3922.70010	0.07362
3920.77153	0.07376
3918.84297	0.07321
3916.91440	0.07238
3914.98584	0.07215
3913.05728	0.07244
3911.12871	0.07266
3909.20015	0.07266
3907.27158	0.07267
3905.34302	0.07281
3903.41445	0.07269
3901.48589	0.07248
3899.55732	0.07349
3897.62876	0.07468
3895.70020	0.07438
3893.77163	0.07349
3891.84307	0.07280
3889.91450	0.07223
3887.98594	0.07194
3886.05737	0.07203
3884.12881	0.07240
3882.20024	0.07289
3880.27168	0.07365
3878.34312	0.07423
3876.41455	0.07410
3874.48599	0.07411
3872.55742	0.07447
3870.62886	0.07471
3868.70029	0.07476
3866.77173	0.07453
3864.84316	0.07494
3862.91460	0.07636
3860.98604	0.07699
3859.05747	0.07645
3857.12891	0.07614
3855.20034	0.07646
3853.27178	0.07750
3851.34321	0.07891
3849.41465	0.07898
3847.48608	0.07864
3845.55752	0.07879
3843.62896	0.07939
3841.70039	0.08037
3839.77183	0.08140
3837.84326	0.08181
3835.91470	0.08144
3833.98613	0.08139
3832.05757	0.08220
3830.12900	0.08331
3828.20044	0.08418
3826.27187	0.08491
3824.34331	0.08555
3822.41475	0.08630
3820.48618	0.08781
3818.55762	0.08903
3816.62905	0.08953
3814.70049	0.09020
3812.77192	0.09049
3810.84336	0.09070
3808.91479	0.09150
3806.98623	0.09298
3805.05767	0.09478
3803.12910	0.09622
3801.20054	0.09769
3799.27197	0.09903
3797.34341	0.09976
3795.41484	0.10076
3793.48628	0.10175
3791.55771	0.10222
3789.62915	0.10292
3787.70059	0.10434
3785.77202	0.10628
3783.84346	0.10836
3781.91489	0.11008
3779.98633	0.11146
3778.05776	0.11289
3776.12920	0.11416
3774.20063	0.11538
3772.27207	0.11717
3770.34351	0.11960
3768.41494	0.12163
3766.48638	0.12283
3764.55781	0.12435
3762.62925	0.12619
3760.70068	0.12819
3758.77212	0.13094
3756.84355	0.13378
3754.91499	0.13574
3752.98643	0.13755
3751.05786	0.14057
3749.12930	0.14488
3747.20073	0.14777
3745.27217	0.14992
3743.34360	0.15352
3741.41504	0.15669
3739.48647	0.15831
3737.55791	0.16020
3735.62935	0.16392
3733.70078	0.16971
3731.77222	0.17497
3729.84365	0.17897
3727.91509	0.18286
3725.98652	0.18803
3724.05796	0.19481
3722.12939	0.20186
3720.20083	0.20913
3718.27227	0.21674
3716.34370	0.22423
3714.41514	0.23157
3712.48657	0.24017
3710.55801	0.25248
3708.62944	0.26637
3706.70088	0.27810
3704.77231	0.28923
3702.84375	0.30187
3700.91519	0.31800
3698.98662	0.33611
3697.05806	0.35375
3695.12949	0.37228
3693.20093	0.39162
3691.27236	0.41262
3689.34380	0.44008
3687.41523	0.47401
3685.48667	0.50406
3683.55811	0.53027
3681.62954	0.55816
3679.70098	0.58892
3677.77241	0.62061
3675.84385	0.65805
3673.91528	0.71047
3671.98672	0.75470
3670.05815	0.79301
3668.12959	0.84488
3666.20103	0.89278
3664.27246	0.93319
3662.34390	0.97659
3660.41533	1.02298
3658.48677	1.06790
3656.55820	1.11518
3654.62964	1.16859
3652.70107	1.21425
3650.77251	1.25370
3648.84395	1.30768
3646.91538	1.37497
3644.98682	1.42515
3643.05825	1.46379
3641.12969	1.50329
3639.20112	1.54693
3637.27256	1.59084
3635.34399	1.63335
3633.41543	1.67595
3631.48687	1.71596
3629.55830	1.75518
3627.62974	1.80591
3625.70117	1.85623
3623.77261	1.89223
3621.84404	1.92585
3619.91548	1.96254
3617.98691	2.00579
3616.05835	2.04864
3614.12979	2.08679
3612.20122	2.12778
3610.27266	2.16693
3608.34409	2.20398
3606.41553	2.24520
3604.48696	2.28557
3602.55840	2.32083
3600.62983	2.35788
3598.70127	2.39866
3596.77271	2.43877
3594.84414	2.47997
3592.91558	2.52323
3590.98701	2.56288
3589.05845	2.59825
3587.12988	2.64106
3585.20132	2.69078
3583.27275	2.73330
3581.34419	2.77069
3579.41562	2.81010
3577.48706	2.85340
3575.55850	2.89795
3573.62993	2.94124
3571.70137	2.98134
3569.77280	3.01953
3567.84424	3.05987
3565.91567	3.11066
3563.98711	3.16495
3562.05854	3.21020
3560.12998	3.25088
3558.20142	3.29250
3556.27285	3.33594
3554.34429	3.37909
3552.41572	3.42576
3550.48716	3.47653
3548.55859	3.52403
3546.63003	3.56850
3544.70146	3.61735
3542.77290	3.66845
3540.84434	3.71593
3538.91577	3.75893
3536.98721	3.80110
3535.05864	3.85074
3533.13008	3.90278
3531.20151	3.95094
3529.27295	3.99932
3527.34438	4.04859
3525.41582	4.09420
3523.48726	4.13722
3521.55869	4.18426
3519.63013	4.23543
3517.70156	4.28732
3515.77300	4.33674
3513.84443	4.38435
3511.91587	4.43393
3509.98730	4.48439
3508.05874	4.53151
3506.13018	4.57583
3504.20161	4.62011
3502.27305	4.66755
3500.34448	4.72165
3498.41592	4.77672
3496.48735	4.82449
3494.55879	4.86541
3492.63022	4.90861
3490.70166	4.95749
3488.77310	5.00656
3486.84453	5.05691
3484.91597	5.11058
3482.98740	5.16134
3481.05884	5.20795
3479.13027	5.25390
3477.20171	5.29936
3475.27314	5.34552
3473.34458	5.39897
3471.41602	5.45781
3469.48745	5.51330
3467.55889	5.56440
3465.63032	5.60627
3463.70176	5.64189
3461.77319	5.68570
3459.84463	5.74737
3457.91606	5.81449
3455.98750	5.85922
3454.05894	5.88813
3452.13037	5.93283
3450.20181	5.98653
3448.27324	6.02930
3446.34468	6.08299
3444.41611	6.15213
3442.48755	6.20567
3440.55898	6.24811
3438.63042	6.30320
3436.70186	6.34535
3434.77329	6.36829
3432.84473	6.42272
3430.91616	6.49385
3428.98760	6.53955
3427.05903	6.58042
3425.13047	6.62516
3423.20190	6.66275
3421.27334	6.72930
3419.34478	6.83056
3417.41621	6.91951
3415.48765	6.97601
3413.55908	7.00234
3411.63052	7.01884
3409.70195	7.04598
3407.77339	7.09497
3405.84482	7.13817
3403.91626	7.15224
3401.98770	7.17603
3400.05913	7.24205
3398.13057	7.31593
3396.20200	7.36750
3394.27344	7.40269
3392.34487	7.41465
3390.41631	7.43630
3388.48774	7.50015
3386.55918	7.60507
3384.63062	7.68776
3382.70205	7.72854
3380.77349	7.78819
3378.84492	7.83401
3376.91636	7.82600
3374.98779	7.82131
3373.05923	7.87551
3371.13066	7.91065
3369.20210	7.90193
3367.27354	7.90628
3365.34497	7.91492
3363.41641	7.92572
3361.48784	7.95496
3359.55928	8.00397
3357.63071	8.03888
3355.70215	8.06626
3353.77358	8.11114
3351.84502	8.14662
3349.91646	8.09031
3347.98789	7.97586
3346.05933	7.94855
3344.13076	8.05348
3342.20220	8.19756
3340.27363	8.24472
3338.34507	8.22943
3336.41650	8.26613
3334.48794	8.34870
3332.55937	8.35367
3330.63081	8.26475
3328.70225	8.17522
3326.77368	8.14689
3324.84512	8.18349
3322.91655	8.22498
3320.98799	8.23755
3319.05942	8.23040
3317.13086	8.27097
3315.20229	8.34213
3313.27373	8.33544
3311.34517	8.25218
3309.41660	8.17215
3307.48804	8.15872
3305.55947	8.22845
3303.63091	8.30814
3301.70234	8.29061
3299.77378	8.21626
3297.84521	8.15122
3295.91665	8.13604
3293.98809	8.21108
3292.05952	8.32398
3290.13096	8.37914
3288.20239	8.39429
3286.27383	8.35244
3284.34526	8.19584
3282.41670	8.07850
3280.48813	8.12333
3278.55957	8.26273
3276.63101	8.34394
3274.70244	8.39219
3272.77388	8.47353
3270.84531	8.47036
3268.91675	8.38556
3266.98818	8.35827
3265.05962	8.42589
3263.13105	8.48960
3261.20249	8.50982
3259.27393	8.42294
3257.34536	8.24240
3255.41680	8.15626
3253.48823	8.15912
3251.55967	8.17824
3249.63110	8.19082
3247.70254	8.15880
3245.77397	8.14883
3243.84541	8.22819
3241.91685	8.32522
3239.98828	8.29970
3238.05972	8.15610
3236.13115	8.10248
3234.20259	8.25382
3232.27402	8.48584
3230.34546	8.55832
3228.41689	8.45531
3226.48833	8.34470
3224.55977	8.28071
3222.63120	8.25233
3220.70264	8.21976
3218.77407	8.16623
3216.84551	8.15622
3214.91694	8.20694
3212.98838	8.26758
3211.05981	8.29269
3209.13125	8.24729
3207.20269	8.16286
3205.27412	8.08212
3203.34556	7.99158
3201.41699	7.92006
3199.48843	7.89164
3197.55986	7.86665
3195.63130	7.85572
3193.70273	7.87778
3191.77417	7.83643
3189.84561	7.70640
3187.91704	7.59625
3185.98848	7.53947
3184.05991	7.49310
3182.13135	7.45528
3180.20278	7.43930
3178.27422	7.38030
3176.34565	7.26118
3174.41709	7.15598
3172.48853	7.09725
3170.55996	7.07773
3168.63140	7.07439
3166.70283	7.03736
3164.77427	6.96309
3162.84570	6.90073
3160.91714	6.83007
3158.98857	6.74866
3157.06001	6.70329
3155.13145	6.65322
3153.20288	6.55844
3151.27432	6.45699
3149.34575	6.37921
3147.41719	6.33713
3145.48862	6.30999
3143.56006	6.24824
3141.63149	6.15474
3139.70293	6.06930
3137.77437	6.00329
3135.84580	5.93839
3133.91724	5.85605
3131.98867	5.76331
3130.06011	5.68112
3128.13154	5.61781
3126.20298	5.57213
3124.27441	5.52694
3122.34585	5.45394
3120.41729	5.36010
3118.48872	5.27033
3116.56016	5.19206
3114.63159	5.12141
3112.70303	5.04874
3110.77446	4.97395
3108.84590	4.90590
3106.91733	4.84316
3104.98877	4.77664
3103.06021	4.70364
3101.13164	4.63014
3099.20308	4.56581
3097.27451	4.50632
3095.34595	4.43815
3093.41738	4.36664
3091.48882	4.29969
3089.56025	4.23200
3087.63169	4.16339
3085.70312	4.09761
3083.77456	4.03533
3081.84600	3.97464
3079.91743	3.91103
3077.98887	3.84731
3076.06030	3.78874
3074.13174	3.73188
3072.20317	3.67232
3070.27461	3.61160
3068.34604	3.55183
3066.41748	3.49195
3064.48892	3.43264
3062.56035	3.37636
3060.63179	3.32363
3058.70322	3.27249
3056.77466	3.22002
3054.84609	3.16589
3052.91753	3.11221
3050.98896	3.05974
3049.06040	3.00703
3047.13184	2.95376
3045.20327	2.90214
3043.27471	2.85299
3041.34614	2.80442
3039.41758	2.75588
3037.48901	2.70853
3035.56045	2.66197
3033.63188	2.61536
3031.70332	2.56897
3029.77476	2.52392
3027.84619	2.48086
3025.91763	2.43837
3023.98906	2.39569
3022.06050	2.35388
3020.13193	2.31314
3018.20337	2.27262
3016.27480	2.23194
3014.34624	2.19133
3012.41768	2.15132
3010.48911	2.11251
3008.56055	2.07514
3006.63198	2.03885
3004.70342	2.00308
3002.77485	1.96761
3000.84629	1.93258
2998.91772	1.89813
2996.98916	1.86420
2995.06060	1.83068
2993.13203	1.79797
2991.20347	1.76674
2989.27490	1.73648
2987.34634	1.70603
2985.41777	1.67534
2983.48921	1.64529
2981.56064	1.61637
2979.63208	1.58810
2977.70352	1.56011
2975.77495	1.53275
2973.84639	1.50604
2971.91782	1.47986
2969.98926	1.45419
2968.06069	1.42892
2966.13213	1.40408
2964.20356	1.37959
2962.27500	1.35537
2960.34644	1.33134
2958.41787	1.30737
2956.48931	1.28374
2954.56074	1.26039
2952.63218	1.23734
2950.70361	1.21503
2948.77505	1.19348
2946.84648	1.17219
2944.91792	1.15126
2942.98936	1.13101
2941.06079	1.11108
2939.13223	1.09124
2937.20366	1.07187
2935.27510	1.05293
2933.34653	1.03418
2931.41797	1.01554
2929.48940	0.99700
2927.56084	0.97889
2925.63228	0.96132
2923.70371	0.94389
2921.77515	0.92654
2919.84658	0.90956
2917.91802	0.89295
2915.98945	0.87653
2914.06089	0.86039
2912.13232	0.84509
2910.20376	0.83069
2908.27520	0.81620
2906.34663	0.80145
2904.41807	0.78719
2902.48950	0.77340
2900.56094	0.75982
2898.63237	0.74688
2896.70381	0.73439
2894.77524	0.72166
2892.84668	0.70913
2890.91812	0.69758
2888.98955	0.68662
2887.06099	0.67558
2885.13242	0.66455
2883.20386	0.65376
2881.27529	0.64312
2879.34673	0.63262
2877.41816	0.62256
2875.48960	0.61278
2873.56104	0.60269
2871.63247	0.59235
2869.70391	0.58210
2867.77534	0.57188
2865.84678	0.56179
2863.91821	0.55205
2861.98965	0.54224
2860.06108	0.53223
2858.13252	0.52264
2856.20396	0.51379
2854.27539	0.50530
2852.34683	0.49682
2850.41826	0.48849
2848.48970	0.48033
2846.56113	0.47215
2844.63257	0.46438
2842.70400	0.45746
2840.77544	0.45104
2838.84687	0.44475
2836.91831	0.43855
2834.98975	0.43241
2833.06118	0.42620
2831.13262	0.42004
2829.20405	0.41396
2827.27549	0.40782
2825.34692	0.40168
2823.41836	0.39566
2821.48979	0.38980
2819.56123	0.38415
2817.63267	0.37847
2815.70410	0.37268
2813.77554	0.36698
2811.84697	0.36149
2809.91841	0.35637
2807.98984	0.35150
2806.06128	0.34650
2804.13271	0.34146
2802.20415	0.33664
2800.27559	0.33202
2798.34702	0.32746
2796.41846	0.32287
2794.48989	0.31827
2792.56133	0.31378
2790.63276	0.30937
2788.70420	0.30512
2786.77563	0.30109
2784.84707	0.29711
2782.91851	0.29302
2780.98994	0.28896
2779.06138	0.28507
2777.13281	0.28137
2775.20425	0.27781
2773.27568	0.27422
2771.34712	0.27047
2769.41855	0.26675
2767.48999	0.26343
2765.56143	0.26043
2763.63286	0.25743
2761.70430	0.25434
2759.77573	0.25118
2757.84717	0.24785
2755.91860	0.24458
2753.99004	0.24168
2752.06147	0.23899
2750.13291	0.23627
2748.20435	0.23354
2746.27578	0.23079
2744.34722	0.22808
2742.41865	0.22555
2740.49009	0.22327
2738.56152	0.22101
2736.63296	0.21858
2734.70439	0.21617
2732.77583	0.21389
2730.84727	0.21161
2728.91870	0.20937
2726.99014	0.20729
2725.06157	0.20531
2723.13301	0.20334
2721.20444	0.20124
2719.27588	0.19901
2717.34731	0.19704
2715.41875	0.19536
2713.49019	0.19362
2711.56162	0.19176
2709.63306	0.19014
2707.70449	0.18876
2705.77593	0.18736
2703.84736	0.18587
2701.91880	0.18433
2699.99023	0.18288
2698.06167	0.18158
2696.13311	0.18023
2694.20454	0.17870
2692.27598	0.17712
2690.34741	0.17562
2688.41885	0.17427
2686.49028	0.17312
2684.56172	0.17202
2682.63315	0.17078
2680.70459	0.16948
2678.77603	0.16835
2676.84746	0.16735
2674.91890	0.16637
2672.99033	0.16545
2671.06177	0.16459
2669.13320	0.16358
2667.20464	0.16231
2665.27607	0.16112
2663.34751	0.16026
2661.41895	0.15949
2659.49038	0.15869
2657.56182	0.15804
2655.63325	0.15747
2653.70469	0.15681
2651.77612	0.15615
2649.84756	0.15565
2647.91899	0.15512
2645.99043	0.15444
2644.06187	0.15378
2642.13330	0.15333
2640.20474	0.15292
2638.27617	0.15244
2636.34761	0.15207
2634.41904	0.15172
2632.49048	0.15118
2630.56191	0.15068
2628.63335	0.15037
2626.70479	0.15013
2624.77622	0.14989
2622.84766	0.14969
2620.91909	0.14942
2618.99053	0.14893
2617.06196	0.14853
2615.13340	0.14848
2613.20483	0.14857
2611.27627	0.14850
2609.34771	0.14824
2607.41914	0.14809
2605.49058	0.14816
2603.56201	0.14822
2601.63345	0.14818
2599.70488	0.14821
2597.77632	0.14841
2595.84775	0.14851
2593.91919	0.14847
2591.99062	0.14860
2590.06206	0.14881
2588.13350	0.14889
2586.20493	0.14901
2584.27637	0.14930
2582.34780	0.14956
2580.41924	0.14977
2578.49067	0.15005
2576.56211	0.15039
2574.63354	0.15069
2572.70498	0.15099
2570.77642	0.15123
2568.84785	0.15152
2566.91929	0.15203
2564.99072	0.15267
2563.06216	0.15322
2561.13359	0.15364
2559.20503	0.15405
2557.27646	0.15451
2555.34790	0.15499
2553.41934	0.15555
2551.49077	0.15624
2549.56221	0.15698
2547.63364	0.15758
2545.70508	0.15807
2543.77651	0.15859
2541.84795	0.15914
2539.91938	0.15965
2537.99082	0.16022
2536.06226	0.16092
2534.13369	0.16172
2532.20513	0.16253
2530.27656	0.16324
2528.34800	0.16385
2526.41943	0.16445
2524.49087	0.16512
2522.56230	0.16593
2520.63374	0.16683
2518.70518	0.16774
2516.77661	0.16869
2514.84805	0.16954
2512.91948	0.17021
2510.99092	0.17089
2509.06235	0.17172
2507.13379	0.17261
2505.20522	0.17347
2503.27666	0.17432
2501.34810	0.17517
2499.41953	0.17591
2497.49097	0.17662
2495.56240	0.17747
2493.63384	0.17837
2491.70527	0.17923
2489.77671	0.18007
2487.84814	0.18094
2485.91958	0.18182
2483.99102	0.18264
2482.06245	0.18348
2480.13389	0.18444
2478.20532	0.18548
2476.27676	0.18653
2474.34819	0.18750
2472.41963	0.18830
2470.49106	0.18909
2468.56250	0.19005
2466.63394	0.19103
2464.70537	0.19198
2462.77681	0.19298
2460.84824	0.19398
2458.91968	0.19494
2456.99111	0.19590
2455.06255	0.19691
2453.13398	0.19797
2451.20542	0.19897
2449.27686	0.19991
2447.34829	0.20088
2445.41973	0.20182
2443.49116	0.20275
2441.56260	0.20369
2439.63403	0.20472
2437.70547	0.20586
2435.77690	0.20694
2433.84834	0.20779
2431.91978	0.20866
2429.99121	0.20978
2428.06265	0.21100
2426.13408	0.21211
2424.20552	0.21310
2422.27695	0.21409
2420.34839	0.21524
2418.41982	0.21643
2416.49126	0.21753
2414.56270	0.21864
2412.63413	0.21996
2410.70557	0.22128
2408.77700	0.22232
2406.84844	0.22330
2404.91987	0.22459
2402.99131	0.22596
2401.06274	0.22707
2399.13418	0.22819
2397.20562	0.22952
2395.27705	0.23080
2393.34849	0.23198
2391.41992	0.23321
2389.49136	0.23442
2387.56279	0.23554
2385.63423	0.23665
2383.70566	0.23770
2381.77710	0.23860
2379.84854	0.23935
2377.91997	0.24003
2375.99141	0.24061
2374.06284	0.24081
2372.13428	0.24097
2370.20571	0.24164
2368.27715	0.24202
2366.34858	0.24157
2364.42002	0.24138
2362.49146	0.24187
2360.56289	0.24289
2358.63433	0.24577
2356.70576	0.24976
2354.77720	0.25259
2352.84863	0.25472
2350.92007	0.25670
2348.99150	0.25810
2347.06294	0.25876
2345.13437	0.25924
2343.20581	0.26018
2341.27725	0.26111
2339.34868	0.26224
2337.42012	0.26440
2335.49155	0.26696
2333.56299	0.26951
2331.63442	0.27222
2329.70586	0.27410
2327.77729	0.27484
2325.84873	0.27607
2323.92017	0.27860
2321.99160	0.28152
2320.06304	0.28427
2318.13447	0.28687
2316.20591	0.28895
2314.27734	0.29074
2312.34878	0.29268
2310.42021	0.29470
2308.49165	0.29668
2306.56309	0.29866
2304.63452	0.30060
2302.70596	0.30244
2300.77739	0.30428
2298.84883	0.30627
2296.92026	0.30847
2294.99170	0.31074
2293.06313	0.31287
2291.13457	0.31488
2289.20601	0.31685
2287.27744	0.31886
2285.34888	0.32102
2283.42031	0.32315
2281.49175	0.32508
2279.56318	0.32702
2277.63462	0.32908
2275.70605	0.33111
2273.77749	0.33309
2271.84893	0.33517
2269.92036	0.33728
2267.99180	0.33942
2266.06323	0.34162
2264.13467	0.34379
2262.20610	0.34596
2260.27754	0.34806
2258.34897	0.35006
2256.42041	0.35219
2254.49185	0.35452
2252.56328	0.35679
2250.63472	0.35889
2248.70615	0.36101
2246.77759	0.36331
2244.84902	0.36567
2242.92046	0.36793
2240.99189	0.37010
2239.06333	0.37220
2237.13477	0.37426
2235.20620	0.37638
2233.27764	0.37865
2231.34907	0.38100
2229.42051	0.38334
2227.49194	0.38556
2225.56338	0.38770
2223.63481	0.38982
2221.70625	0.39198
2219.77769	0.39418
2217.84912	0.39641
2215.92056	0.39865
2213.99199	0.40084
2212.06343	0.40296
2210.13486	0.40513
2208.20630	0.40735
2206.27773	0.40947
2204.34917	0.41152
2202.42061	0.41353
2200.49204	0.41549
2198.56348	0.41749
2196.63491	0.41954
2194.70635	0.42161
2192.77778	0.42354
2190.84922	0.42531
2188.92065	0.42708
2186.99209	0.42895
2185.06353	0.43088
2183.13496	0.43277
2181.20640	0.43445
2179.27783	0.43589
2177.34927	0.43733
2175.42070	0.43896
2173.49214	0.44065
2171.56357	0.44215
2169.63501	0.44340
2167.70645	0.44465
2165.77788	0.44600
2163.84932	0.44724
2161.92075	0.44823
2159.99219	0.44917
2158.06362	0.45022
2156.13506	0.45125
2154.20649	0.45218
2152.27793	0.45301
2150.34937	0.45365
2148.42080	0.45423
2146.49224	0.45481
2144.56367	0.45528
2142.63511	0.45564
2140.70654	0.45596
2138.77798	0.45627
2136.84941	0.45649
2134.92085	0.45657
2132.99229	0.45652
2131.06372	0.45639
2129.13516	0.45628
2127.20659	0.45613
2125.27803	0.45582
2123.34946	0.45540
2121.42090	0.45491
2119.49233	0.45429
2117.56377	0.45357
2115.63521	0.45292
2113.70664	0.45227
2111.77808	0.45129
2109.84951	0.45013
2107.92095	0.44904
2105.99238	0.44797
2104.06382	0.44681
2102.13525	0.44553
2100.20669	0.44419
2098.27812	0.44280
2096.34956	0.44132
2094.42100	0.43967
2092.49243	0.43791
2090.56387	0.43608
2088.63530	0.43418
2086.70674	0.43235
2084.77817	0.43058
2082.84961	0.42875
2080.92104	0.42675
2078.99248	0.42461
2077.06392	0.42250
2075.13535	0.42046
2073.20679	0.41839
2071.27822	0.41624
2069.34966	0.41405
2067.42109	0.41174
2065.49253	0.40930
2063.56396	0.40686
2061.63540	0.40452
2059.70684	0.40218
2057.77827	0.39970
2055.84971	0.39709
2053.92114	0.39442
2051.99258	0.39176
2050.06401	0.38908
2048.13545	0.38641
2046.20688	0.38378
2044.27832	0.38125
2042.34976	0.37867
2040.42119	0.37589
2038.49263	0.37301
2036.56406	0.37029
2034.63550	0.36767
2032.70693	0.36497
2030.77837	0.36220
2028.84980	0.35949
2026.92124	0.35677
2024.99268	0.35394
2023.06411	0.35114
2021.13555	0.34836
2019.20698	0.34553
2017.27842	0.34265
2015.34985	0.33975
2013.42129	0.33692
2011.49272	0.33423
2009.56416	0.33160
2007.63560	0.32887
2005.70703	0.32609
2003.77847	0.32339
2001.84990	0.32079
1999.92134	0.31830
1997.99277	0.31577
1996.06421	0.31319
1994.13564	0.31074
1992.20708	0.30833
1990.27852	0.30575
1988.34995	0.30319
1986.42139	0.30072
1984.49282	0.29830
1982.56426	0.29597
1980.63569	0.29372
1978.70713	0.29146
1976.77856	0.28917
1974.85000	0.28695
1972.92144	0.28484
1970.99287	0.28277
1969.06431	0.28071
1967.13574	0.27867
1965.20718	0.27668
1963.27861	0.27473
1961.35005	0.27279
1959.42148	0.27084
1957.49292	0.26891
1955.56436	0.26710
1953.63579	0.26541
1951.70723	0.26370
1949.77866	0.26202
1947.85010	0.26044
1945.92153	0.25900
1943.99297	0.25763
1942.06440	0.25623
1940.13584	0.25475
1938.20728	0.25324
1936.27871	0.25185
1934.35015	0.25059
1932.42158	0.24938
1930.49302	0.24816
1928.56445	0.24696
1926.63589	0.24584
1924.70732	0.24484
1922.77876	0.24388
1920.85020	0.24293
1918.92163	0.24213
1916.99307	0.24133
1915.06450	0.24038
1913.13594	0.23948
1911.20737	0.23877
1909.27881	0.23816
1907.35024	0.23763
1905.42168	0.23709
1903.49312	0.23650
1901.56455	0.23586
1899.63599	0.23520
1897.70742	0.23468
1895.77886	0.23432
1893.85029	0.23404
1891.92173	0.23371
1889.99316	0.23349
1888.06460	0.23337
1886.13604	0.23315
1884.20747	0.23285
1882.27891	0.23257
1880.35034	0.23245
1878.42178	0.23245
1876.49321	0.23246
1874.56465	0.23236
1872.63608	0.23237
1870.70752	0.23259
1868.77896	0.23303
1866.85039	0.23337
1864.92183	0.23346
1862.99326	0.23357
1861.06470	0.23382
1859.13613	0.23425
1857.20757	0.23470
1855.27900	0.23516
1853.35044	0.23563
1851.42187	0.23615
1849.49331	0.23671
1847.56475	0.23738
1845.63618	0.23816
1843.70762	0.23906
1841.77905	0.23987
1839.85049	0.24041
1837.92192	0.24118
1835.99336	0.24216
1834.06479	0.24315
1832.13623	0.24409
1830.20767	0.24536
1828.27910	0.24674
1826.35054	0.24771
1824.42197	0.24891
1822.49341	0.25027
1820.56484	0.25163
1818.63628	0.25316
1816.70771	0.25488
1814.77915	0.25648
1812.85059	0.25805
1810.92202	0.25990
1808.99346	0.26194
1807.06489	0.26397
1805.13633	0.26593
1803.20776	0.26818
1801.27920	0.27074
1799.35063	0.27355
1797.42207	0.27608
1795.49351	0.27845
1793.56494	0.28110
1791.63638	0.28456
1789.70781	0.28821
1787.77925	0.29102
1785.85068	0.29417
1783.92212	0.29796
1781.99355	0.30195
1780.06499	0.30604
1778.13643	0.31029
1776.20786	0.31428
1774.27930	0.31844
1772.35073	0.32413
1770.42217	0.33060
1768.49360	0.33619
1766.56504	0.34147
1764.63647	0.34681
1762.70791	0.35267
1760.77935	0.36021
1758.85078	0.36732
1756.92222	0.37426
1754.99365	0.38184
1753.06509	0.38879
1751.13652	0.39696
1749.20796	0.40739
1747.27939	0.41815
1745.35083	0.42780
1743.42227	0.43777
1741.49370	0.44851
1739.56514	0.46092
1737.63657	0.47322
1735.70801	0.48395
1733.77944	0.50028
1731.85088	0.52029
1729.92231	0.53626
1727.99375	0.55220
1726.06519	0.56902
1724.13662	0.58724
1722.20806	0.60710
1720.27949	0.62541
1718.35093	0.64655
1716.42236	0.67815
1714.49380	0.70888
1712.56523	0.73392
1710.63667	0.75795
1708.70811	0.78360
1706.77954	0.81268
1704.85098	0.84747
1702.92241	0.87853
1700.99385	0.90896
1699.06528	0.95432
1697.13672	0.99619
1695.20815	1.03904
1693.27959	1.08071
1691.35103	1.11416
1689.42246	1.15256
1687.49390	1.19318
1685.56533	1.23230
1683.63677	1.29259
1681.70820	1.35530
1679.77964	1.39538
1677.85107	1.43352
1675.92251	1.47688
1673.99395	1.52979
1672.06538	1.57688
1670.13682	1.62361
1668.20825	1.68451
1666.27969	1.73352
1664.35112	1.77517
1662.42256	1.82792
1660.49399	1.88567
1658.56543	1.92876
1656.63687	1.96373
1654.70830	1.99745
1652.77974	2.05246
1650.85117	2.10382
1648.92261	2.12299
1646.99404	2.14962
1645.06548	2.17897
1643.13691	2.19752
1641.20835	2.20972
1639.27979	2.22060
1637.35122	2.22659
1635.42266	2.22784
1633.49409	2.22293
1631.56553	2.20936
1629.63696	2.19173
1627.70840	2.16556
1625.77983	2.13657
1623.85127	2.09988
1621.92271	2.05371
1619.99414	2.01132
1618.06558	1.96874
1616.13701	1.90813
1614.20845	1.84666
1612.27988	1.79988
1610.35132	1.75075
1608.42275	1.69684
1606.49419	1.64357
1604.56562	1.59517
1602.63706	1.54872
1600.70850	1.50269
1598.77993	1.46002
1596.85137	1.41995
1594.92280	1.38097
1592.99424	1.34291
1591.06567	1.30745
1589.13711	1.27404
1587.20854	1.24280
1585.27998	1.21351
1583.35142	1.18556
1581.42285	1.15968
1579.49429	1.13744
1577.56572	1.11718
1575.63716	1.09285
1573.70859	1.07185
1571.78003	1.05781
1569.85146	1.04244
1567.92290	1.02536
1565.99434	1.01256
1564.06577	1.00203
1562.13721	0.99294
1560.20864	0.98536
1558.28008	0.97493
1556.35151	0.96675
1554.42295	0.96142
1552.49438	0.95567
1550.56582	0.94929
1548.63726	0.94167
1546.70869	0.93366
1544.78013	0.92497
1542.85156	0.91511
1540.92300	0.90242
1538.99443	0.88338
1537.06587	0.86976
1535.13730	0.86072
1533.20874	0.84858
1531.28018	0.83522
1529.35161	0.82540
1527.42305	0.81618
1525.49448	0.80638
1523.56592	0.79779
1521.63735	0.78983
1519.70879	0.78191
1517.78022	0.77484
1515.85166	0.76676
1513.92310	0.75876
1511.99453	0.75221
1510.06597	0.74630
1508.13740	0.74046
1506.20884	0.73153
1504.28027	0.72347
1502.35171	0.71867
1500.42314	0.71446
1498.49458	0.70999
1496.56602	0.70492
1494.63745	0.70007
1492.70889	0.69619
1490.78032	0.69271
1488.85176	0.68877
1486.92319	0.68516
1484.99463	0.68245
1483.06606	0.68021
1481.13750	0.67808
1479.20894	0.67611
1477.28037	0.67452
1475.35181	0.67332
1473.42324	0.67239
1471.49468	0.67093
1469.56611	0.66886
1467.63755	0.66677
1465.70898	0.66479
1463.78042	0.66300
1461.85186	0.66149
1459.92329	0.66009
1457.99473	0.65852
1456.06616	0.65664
1454.13760	0.65458
1452.20903	0.65238
1450.28047	0.65001
1448.35190	0.64756
1446.42334	0.64508
1444.49478	0.64289
1442.56621	0.64094
1440.63765	0.63891
1438.70908	0.63680
1436.78052	0.63427
1434.85195	0.63150
1432.92339	0.62925
1430.99482	0.62735
1429.06626	0.62555
1427.13770	0.62407
1425.20913	0.62307
1423.28057	0.62232
1421.35200	0.62145
1419.42344	0.62038
1417.49487	0.61931
1415.56631	0.61822
1413.63774	0.61707
1411.70918	0.61596
1409.78062	0.61511
1407.85205	0.61461
1405.92349	0.61432
1403.99492	0.61402
1402.06636	0.61342
1400.13779	0.61245
1398.20923	0.61100
1396.28066	0.60921
1394.35210	0.60712
1392.42354	0.60476
1390.49497	0.60248
1388.56641	0.60028
1386.63784	0.59788
1384.70928	0.59539
1382.78071	0.59304
1380.85215	0.59079
1378.92358	0.58880
1376.99502	0.58720
1375.06646	0.58604
1373.13789	0.58524
1371.20933	0.58456
1369.28076	0.58373
1367.35220	0.58252
1365.42363	0.58114
1363.49507	0.57992
1361.56650	0.57885
1359.63794	0.57779
1357.70937	0.57673
1355.78081	0.57560
1353.85225	0.57445
1351.92368	0.57334
1349.99512	0.57231
1348.06655	0.57131
1346.13799	0.57038
1344.20942	0.56947
1342.28086	0.56843
1340.35229	0.56738
1338.42373	0.56652
1336.49517	0.56582
1334.56660	0.56517
1332.63804	0.56451
1330.70947	0.56389
1328.78091	0.56347
1326.85234	0.56325
1324.92378	0.56306
1322.99521	0.56289
1321.06665	0.56265
1319.13809	0.56231
1317.20952	0.56193
1315.28096	0.56141
1313.35239	0.56065
1311.42383	0.55983
1309.49526	0.55915
1307.56670	0.55846
1305.63813	0.55771
1303.70957	0.55700
1301.78101	0.55628
1299.85244	0.55539
1297.92388	0.55448
1295.99531	0.55367
1294.06675	0.55294
1292.13818	0.55226
1290.20962	0.55146
1288.28105	0.55052
1286.35249	0.54978
1284.42393	0.54915
1282.49536	0.54834
1280.56680	0.54747
1278.63823	0.54663
1276.70967	0.54573
1274.78110	0.54486
1272.85254	0.54416
1270.92397	0.54364
1268.99541	0.54313
1267.06685	0.54267
1265.13828	0.54211
1263.20972	0.54136
1261.28115	0.54065
1259.35259	0.54013
1257.42402	0.53981
1255.49546	0.53974
1253.56689	0.53965
1251.63833	0.53935
1249.70977	0.53905
1247.78120	0.53881
1245.85264	0.53846
1243.92407	0.53801
1241.99551	0.53741
1240.06694	0.53656
1238.13838	0.53554
1236.20981	0.53444
1234.28125	0.53316
1232.35269	0.53183
1230.42412	0.53074
1228.49556	0.52968
1226.56699	0.52839
1224.63843	0.52699
1222.70986	0.52568
1220.78130	0.52455
1218.85273	0.52346
1216.92417	0.52239
1214.99561	0.52157
1213.06704	0.52092
1211.13848	0.52024
1209.20991	0.51951
1207.28135	0.51883
1205.35278	0.51819
1203.42422	0.51756
1201.49565	0.51698
1199.56709	0.51647
1197.63853	0.51585
1195.70996	0.51517
1193.78140	0.51468
1191.85283	0.51422
1189.92427	0.51362
1187.99570	0.51307
1186.06714	0.51279
1184.13857	0.51271
1182.21001	0.51282
1180.28145	0.51325
1178.35288	0.51404
1176.42432	0.51506
1174.49575	0.51610
1172.56719	0.51691
1170.63862	0.51743
1168.71006	0.51790
1166.78149	0.51859
1164.85293	0.51943
1162.92437	0.52028
1160.99580	0.52103
1159.06724	0.52142
1157.13867	0.52118
1155.21011	0.52047
1153.28154	0.51951
1151.35298	0.51818
1149.42441	0.51636
1147.49585	0.51420
1145.56729	0.51168
1143.63872	0.50889
1141.71016	0.50634
1139.78159	0.50419
1137.85303	0.50230
1135.92446	0.50070
1133.99590	0.49935
1132.06733	0.49833
1130.13877	0.49756
1128.21021	0.49686
1126.28164	0.49633
1124.35308	0.49584
1122.42451	0.49529
1120.49595	0.49511
1118.56738	0.49535
1116.63882	0.49580
1114.71025	0.49657
1112.78169	0.49744
1110.85312	0.49818
1108.92456	0.49895
1106.99600	0.49987
1105.06743	0.50092
1103.13887	0.50188
1101.21030	0.50274
1099.28174	0.50390
1097.35317	0.50569
1095.42461	0.50822
1093.49604	0.51163
1091.56748	0.51635
1089.63892	0.52275
1087.71035	0.53058
1085.78179	0.53935
1083.85322	0.54846
1081.92466	0.55644
1079.99609	0.56193
1078.06753	0.56484
1076.13896	0.56510
1074.21040	0.56233
1072.28184	0.55696
1070.35327	0.55016
1068.42471	0.54293
1066.49614	0.53600
1064.56758	0.52994
1062.63901	0.52467
1060.71045	0.51975
1058.78188	0.51538
1056.85332	0.51165
1054.92476	0.50818
1052.99619	0.50515
1051.06763	0.50289
1049.13906	0.50133
1047.21050	0.50049
1045.28193	0.50048
1043.35337	0.50090
1041.42480	0.50124
1039.49624	0.50137
1037.56768	0.50158
1035.63911	0.50195
1033.71055	0.50184
1031.78198	0.50095
1029.85342	0.49969
1027.92485	0.49826
1025.99629	0.49661
1024.06772	0.49508
1022.13916	0.49420
1020.21060	0.49396
1018.28203	0.49396
1016.35347	0.49404
1014.42490	0.49410
1012.49634	0.49392
1010.56777	0.49360
1008.63921	0.49333
1006.71064	0.49342
1004.78208	0.49438
1002.85352	0.49618
1000.92495	0.49862
998.99639	0.50199
997.06782	0.50619
995.13926	0.51058
993.21069	0.51450
991.28213	0.51740
989.35356	0.51912
987.42500	0.51992
985.49644	0.52020
983.56787	0.52021
981.63931	0.52020
979.71074	0.52086
977.78218	0.52254
975.85361	0.52476
973.92505	0.52712
971.99648	0.53000
970.06792	0.53357
968.13936	0.53731
966.21079	0.54122
964.28223	0.54563
962.35366	0.55033
960.42510	0.55545
958.49653	0.56119
956.56797	0.56699
954.63940	0.57258
952.71084	0.57848
950.78228	0.58494
948.85371	0.59155
946.92515	0.59813
944.99658	0.60465
943.06802	0.61069
941.13945	0.61646
939.21089	0.62237
937.28232	0.62809
935.35376	0.63369
933.42520	0.63961
931.49663	0.64568
929.56807	0.65152
927.63950	0.65721
925.71094	0.66329
923.78237	0.66998
921.85381	0.67686
919.92524	0.68375
917.99668	0.69057
916.06812	0.69732
914.13955	0.70439
912.21099	0.71185
910.28242	0.71979
908.35386	0.72843
906.42529	0.73749
904.49673	0.74703
902.56816	0.75698
900.63960	0.76648
898.71104	0.77559
896.78247	0.78508
894.85391	0.79495
892.92534	0.80495
890.99678	0.81520
889.06821	0.82632
887.13965	0.83845
885.21108	0.85117
883.28252	0.86370
881.35396	0.87449
879.42539	0.88394
877.49683	0.89404
875.56826	0.90503
873.63970	0.91594
871.71113	0.92666
869.78257	0.93859
867.85400	0.95271
865.92544	0.96657
863.99687	0.97782
862.06831	0.98802
860.13975	0.99861
858.21118	1.01039
856.28262	1.02213
854.35405	1.03206
852.42549	1.04301
850.49692	1.05628
848.56836	1.07007
846.63979	1.08455
844.71123	1.09783
842.78267	1.10584
840.85410	1.11264
838.92554	1.12502
836.99697	1.14026
835.06841	1.15394
833.13984	1.16605
831.21128	1.17523
829.28271	1.18427
827.35415	1.19745
825.42559	1.21072
823.49702	1.22414
821.56846	1.23829
819.63989	1.24932
817.71133	1.26214
815.78276	1.27843
813.85420	1.28827
811.92563	1.28988
809.99707	1.29318
808.06851	1.29868
806.13994	1.30598
804.21138	1.32414
802.28281	1.35471
800.35425	1.38631
798.42568	1.41447
796.49712	1.43986
794.56855	1.44051
792.63999	1.42058
790.71143	1.43982
788.78286	1.49684
786.85430	1.49381
784.92573	1.46109
782.99717	1.47805
781.06860	1.48774
779.14004	1.43227
777.21147	1.39179
775.28291	1.47876
773.35435	1.79178
771.42578	3.01581
769.49722	4.61698
767.56865	2.22021
765.64009	1.78027
763.71152	1.50592
761.78296	1.40980
759.85439	1.39735
757.92583	1.36130
755.99727	1.37510
754.06870	1.45489
752.14014	1.56234
750.21157	1.62003
748.28301	1.49847
746.35444	1.27641
744.42588	1.05569
742.49731	0.96917
740.56875	1.03430
738.64019	1.16315
736.71162	1.15306
734.78306	1.05439
732.85449	1.05043
730.92593	0.97405
728.99736	0.75159
727.06880	0.65702
725.14023	0.74443
723.21167	0.63272
721.28311	0.22107
719.35454	0.04129
717.42598	0.05854
715.49741	0.14442
713.56885	0.13904
711.64028	-0.06307
709.71172	4.25827
707.78315	4.24670
705.85459	4.23513
703.92603	0.68530
701.99746	0.12028
700.06890	0.06868
698.14033	0.09258
696.21177	0.14812
694.28320	0.43042
692.35464	1.09663
690.42607	0.62128
688.49751	0.40698
686.56895	0.45305
684.64038	0.64338
682.71182	0.43308
680.78325	0.23332
678.85469	0.24492
676.92612	0.38388
674.99756	0.70147
673.06899	1.48610
671.14043	0.82209
669.21187	0.61407
667.28330	0.57156
665.35474	0.45488
663.42617	0.41185
661.49761	0.47748
659.56904	0.39821
657.64048	0.24477
655.71191	0.32144
653.78335	0.63895
651.85479	0.76227
649.92622	0.36051
647.99766	0.22158
646.06909	0.26846
644.14053	0.33655
642.21196	0.42577
640.28340	0.59351
638.35483	0.63689
636.42627	0.51765
634.49771	0.49190
632.56914	0.45022
630.64058	0.38483
628.71201	0.41358
626.78345	0.47932
624.85488	0.28403
622.92632	0.14245
620.99775	0.13431
619.06919	0.19590
617.14062	0.25238
615.21206	0.26153
613.28350	0.23021
611.35493	0.20460
609.42637	0.19912
607.49780	0.22045
605.56924	0.30318
603.64067	0.44214
601.71211	0.66482
599.78354	1.05094
597.85498	0.57556
595.92642	0.32186
593.99785	0.25341
592.06929	0.24323
590.14072	0.30310
588.21216	0.31899
586.28359	0.21342
584.35503	0.13157
582.42646	0.12115
580.49790	0.14380
578.56934	0.21557
576.64077	0.49935
574.71221	3.44827
572.78364	0.52697
570.85508	0.35935
568.92651	0.37591
566.99795	0.51455
565.06938	0.59937
563.14082	0.32220
561.21226	0.16570
559.28369	0.13462
557.35513	0.15865
555.42656	0.21041
553.49800	0.27724
551.56943	0.35674
549.64087	0.42070
547.71230	0.34942
545.78374	0.28397
543.85518	0.30403
541.92661	0.33935
539.99805	0.29747
538.06948	0.26068
536.14092	0.26039
534.21235	0.25118
532.28379	0.29255
530.35522	0.45199
528.42666	0.69601
526.49810	0.68736
524.56953	0.44808
522.64097	0.31048
520.71240	0.26778
518.78384	0.29511
516.85527	0.35934
514.92671	0.37550
512.99814	0.36691
511.06958	0.32087
509.14102	0.23183
507.21245	0.19937
505.28389	0.21019
503.35532	0.21668
501.42676	0.21428
499.49819	0.19373
