3997.91411	0.07516
3995.98555	0.07541
3994.05698	0.07561
3992.12842	0.07582
3990.19985	0.07588
3988.27129	0.07575
3986.34272	0.07587
3984.41416	0.07658
3982.48560	0.07758
3980.55703	0.07822
3978.62847	0.07842
3976.69990	0.07855
3974.77134	0.07838
3972.84277	0.07779
3970.91421	0.07746
3968.98564	0.07787
3967.05708	0.07843
3965.12852	0.07852
3963.19995	0.07841
3961.27139	0.07852
3959.34282	0.07865
3957.41426	0.07876
3955.48569	0.07894
3953.55713	0.07887
3951.62856	0.07866
3949.70000	0.07886
3947.77144	0.07935
3945.84287	0.07966
3943.91431	0.07992
3941.98574	0.08017
3940.05718	0.07986
3938.12861	0.07918
3936.20005	0.07866
3934.27148	0.07855
3932.34292	0.07902
3930.41436	0.07948
3928.48579	0.07913
3926.55723	0.07856
3924.62866	0.07871
3922.70010	0.07932
3920.77153	0.07950
3918.84297	0.07927
3916.91440	0.07894
3914.98584	0.07861
3913.05728	0.07856
3911.12871	0.07861
3909.20015	0.07831
3907.27158	0.07819
3905.34302	0.07843
3903.41445	0.07832
3901.48589	0.07793
3899.55732	0.07781
3897.62876	0.07776
3895.70020	0.07761
3893.77163	0.07764
3891.84307	0.07797
3889.91450	0.07830
3887.98594	0.07837
3886.05737	0.07870
3884.12881	0.07926
3882.20024	0.07947
3880.27168	0.07951
3878.34312	0.07917
3876.41455	0.07866
3874.48599	0.07876
3872.55742	0.07924
3870.62886	0.07940
3868.70029	0.07945
3866.77173	0.07962
3864.84316	0.08009
3862.91460	0.08092
3860.98604	0.08134
3859.05747	0.08112
3857.12891	0.08098
3855.20034	0.08160
3853.27178	0.08370
3851.34321	0.08526
3849.41465	0.08397
3847.48608	0.08287
3845.55752	0.08307
3843.62896	0.08382
3841.70039	0.08466
3839.77183	0.08581
3837.84326	0.08695
3835.91470	0.08772
3833.98613	0.08810
3832.05757	0.08813
3830.12900	0.08829
3828.20044	0.08899
3826.27187	0.09022
3824.34331	0.09153
3822.41475	0.09257
3820.48618	0.09359
3818.55762	0.09415
3816.62905	0.09469
3814.70049	0.09594
3812.77192	0.09678
3810.84336	0.09704
3808.91479	0.09766
3806.98623	0.09911
3805.05767	0.10081
3803.12910	0.10189
3801.20054	0.10309
3799.27197	0.10421
3797.34341	0.10451
3795.41484	0.10536
3793.48628	0.10678
3791.55771	0.10782
3789.62915	0.10884
3787.70059	0.11026
3785.77202	0.11179
3783.84346	0.11297
3781.91489	0.11388
3779.98633	0.11512
3778.05776	0.11691
3776.12920	0.11872
3774.20063	0.12034
3772.27207	0.12197
3770.34351	0.12394
3768.41494	0.12620
3766.48638	0.12809
3764.55781	0.12978
3762.62925	0.13124
3760.70068	0.13286
3758.77212	0.13544
3756.84355	0.13839
3754.91499	0.14062
3752.98643	0.14270
3751.05786	0.14591
3749.12930	0.15012
3747.20073	0.15262
3745.27217	0.15443
3743.34360	0.15759
3741.41504	0.16057
3739.48647	0.16273
3737.55791	0.16528
3735.62935	0.16908
3733.70078	0.17438
3731.77222	0.17936
3729.84365	0.18302
3727.91509	0.18650
3725.98652	0.19169
3724.05796	0.19841
3722.12939	0.20509
3720.20083	0.21204
3718.27227	0.21940
3716.34370	0.22704
3714.41514	0.23487
3712.48657	0.24391
3710.55801	0.25588
3708.62944	0.26868
3706.70088	0.27999
3704.77231	0.29140
3702.84375	0.30459
3700.91519	0.32115
3698.98662	0.33897
3697.05806	0.35585
3695.12949	0.37386
3693.20093	0.39286
3691.27236	0.41347
3689.34380	0.44101
3687.41523	0.47569
3685.48667	0.50593
3683.55811	0.53164
3681.62954	0.55908
3679.70098	0.58968
3677.77241	0.62141
3675.84385	0.65890
3673.91528	0.71106
3671.98672	0.75522
3670.05815	0.79345
3668.12959	0.84468
3666.20103	0.89262
3664.27246	0.93347
3662.34390	0.97654
3660.41533	1.02241
3658.48677	1.06778
3656.55820	1.11631
3654.62964	1.17053
3652.70107	1.21597
3650.77251	1.25503
3648.84395	1.30878
3646.91538	1.37590
3644.98682	1.42651
3643.05825	1.46547
3641.12969	1.50428
3639.20112	1.54686
3637.27256	1.59085
3635.34399	1.63430
3633.41543	1.67698
3631.48687	1.71623
3629.55830	1.75644
3627.62974	1.81066
3625.70117	1.86131
3623.77261	1.89429
3621.84404	1.92557
3619.91548	1.96214
3617.98691	2.00797
3616.05835	2.05365
3614.12979	2.09115
3612.20122	2.12917
3610.27266	2.16792
3608.34409	2.20806
3606.41553	2.25112
3604.48696	2.29068
3602.55840	2.32573
3600.62983	2.36337
3598.70127	2.40390
3596.77271	2.44361
3594.84414	2.48471
3592.91558	2.52732
3590.98701	2.56705
3589.05845	2.60385
3587.12988	2.64783
3585.20132	2.69614
3583.27275	2.73530
3581.34419	2.77114
3579.41562	2.81172
3577.48706	2.85608
3575.55850	2.90004
3573.62993	2.94324
3571.70137	2.98422
3569.77280	3.02331
3567.84424	3.06691
3565.91567	3.12152
3563.98711	3.17133
3562.05854	3.20915
3560.12998	3.24892
3558.20142	3.29441
3556.27285	3.34077
3554.34429	3.38524
3552.41572	3.43187
3550.48716	3.48166
3548.55859	3.53196
3546.63003	3.58133
3544.70146	3.62942
3542.77290	3.67676
3540.84434	3.72254
3538.91577	3.76634
3536.98721	3.81151
3535.05864	3.86086
3533.13008	3.90917
3531.20151	3.95426
3529.27295	3.99948
3527.34438	4.04755
3525.41582	4.09751
3523.48726	4.14903
3521.55869	4.20112
3519.63013	4.24924
3517.70156	4.29524
3515.77300	4.34128
3513.84443	4.38729
3511.91587	4.43422
3509.98730	4.48323
3508.05874	4.53381
3506.13018	4.58478
3504.20161	4.63365
3502.27305	4.68060
3500.34448	4.72843
3498.41592	4.77468
3496.48735	4.82402
3494.55879	4.87881
3492.63022	4.92605
3490.70166	4.96226
3488.77310	5.00161
3486.84453	5.05362
3484.91597	5.11186
3482.98740	5.16850
3481.05884	5.22287
3479.13027	5.27055
3477.20171	5.31244
3475.27314	5.35502
3473.34458	5.39943
3471.41602	5.44678
3469.48745	5.49691
3467.55889	5.54817
3465.63032	5.59833
3463.70176	5.65038
3461.77319	5.70984
3459.84463	5.76922
3457.91606	5.81990
3455.98750	5.86919
3454.05894	5.91466
3452.13037	5.95045
3450.20181	5.98969
3448.27324	6.03746
3446.34468	6.09156
3444.41611	6.15411
3442.48755	6.21246
3440.55898	6.24711
3438.63042	6.27949
3436.70186	6.32942
3434.77329	6.38317
3432.84473	6.43932
3430.91616	6.49231
3428.98760	6.52749
3427.05903	6.55682
3425.13047	6.60877
3423.20190	6.67758
3421.27334	6.74294
3419.34478	6.80606
3417.41621	6.86790
3415.48765	6.90433
3413.55908	6.92618
3411.63052	6.97160
3409.70195	7.02438
3407.77339	7.07817
3405.84482	7.12835
3403.91626	7.15889
3401.98770	7.18108
3400.05913	7.22138
3398.13057	7.26293
3396.20200	7.26057
3394.27344	7.24144
3392.34487	7.27369
3390.41631	7.39183
3388.48774	7.51910
3386.55918	7.58541
3384.63062	7.61074
3382.70205	7.62194
3380.77349	7.63685
3378.84492	7.65320
3376.91636	7.67113
3374.98779	7.71877
3373.05923	7.81606
3371.13066	7.88990
3369.20210	7.90386
3367.27354	7.87261
3365.34497	7.86398
3363.41641	7.93587
3361.48784	7.99778
3359.55928	8.00698
3357.63071	7.99307
3355.70215	7.96712
3353.77358	7.95006
3351.84502	7.96624
3349.91646	7.95155
3347.98789	7.88997
3346.05933	7.89280
3344.13076	7.99869
3342.20220	8.11458
3340.27363	8.13953
3338.34507	8.15433
3336.41650	8.24045
3334.48794	8.31897
3332.55937	8.25281
3330.63081	8.13460
3328.70225	8.14223
3326.77368	8.25730
3324.84512	8.34471
3322.91655	8.33192
3320.98799	8.29892
3319.05942	8.30939
3317.13086	8.31310
3315.20229	8.24925
3313.27373	8.21117
3311.34517	8.23692
3309.41660	8.24657
3307.48804	8.24669
3305.55947	8.24313
3303.63091	8.24929
3301.70234	8.30296
3299.77378	8.37843
3297.84521	8.37013
3295.91665	8.26178
3293.98809	8.20408
3292.05952	8.25727
3290.13096	8.32271
3288.20239	8.37545
3286.27383	8.41480
3284.34526	8.32507
3282.41670	8.19367
3280.48813	8.18007
3278.55957	8.23822
3276.63101	8.27465
3274.70244	8.32051
3272.77388	8.33041
3270.84531	8.27459
3268.91675	8.28736
3266.98818	8.38704
3265.05962	8.46999
3263.13105	8.45099
3261.20249	8.41210
3259.27393	8.43416
3257.34536	8.50090
3255.41680	8.60505
3253.48823	8.60119
3251.55967	8.42161
3249.63110	8.34321
3247.70254	8.60424
3245.77397	9.11998
3243.84541	9.25308
3241.91685	8.90057
3239.98828	8.68723
3238.05972	8.61837
3236.13115	8.52033
3234.20259	8.42923
3232.27402	8.38936
3230.34546	8.39840
3228.41689	8.40595
3226.48833	8.34932
3224.55977	8.26151
3222.63120	8.24191
3220.70264	8.30831
3218.77407	8.31688
3216.84551	8.22433
3214.91694	8.15054
3212.98838	8.07587
3211.05981	7.95420
3209.13125	7.86570
3207.20269	7.86373
3205.27412	7.87635
3203.34556	7.85137
3201.41699	7.83172
3199.48843	7.78648
3197.55986	7.70892
3195.63130	7.66800
3193.70273	7.65894
3191.77417	7.66968
3189.84561	7.70183
3187.91704	7.67943
3185.98848	7.58401
3184.05991	7.50504
3182.13135	7.46337
3180.20278	7.41783
3178.27422	7.33506
3176.34565	7.24820
3174.41709	7.21658
3172.48853	7.21073
3170.55996	7.16259
3168.63140	7.06922
3166.70283	6.98157
3164.77427	6.92800
3162.84570	6.87463
3160.91714	6.79517
3158.98857	6.72975
3157.06001	6.69061
3155.13145	6.64347
3153.20288	6.57178
3151.27432	6.46994
3149.34575	6.35438
3147.41719	6.26171
3145.48862	6.19950
3143.56006	6.14777
3141.63149	6.10067
3139.70293	6.05450
3137.77437	5.99946
3135.84580	5.93251
3133.91724	5.84653
3131.98867	5.75451
3130.06011	5.68226
3128.13154	5.62128
3126.20298	5.54858
3124.27441	5.46603
3122.34585	5.38784
3120.41729	5.31942
3118.48872	5.25365
3116.56016	5.18118
3114.63159	5.10694
3112.70303	5.04074
3110.77446	4.97815
3108.84590	4.90736
3106.91733	4.82796
3104.98877	4.75153
3103.06021	4.68203
3101.13164	4.61534
3099.20308	4.55372
3097.27451	4.49650
3095.34595	4.43654
3093.41738	4.37140
3091.48882	4.30261
3089.56025	4.23336
3087.63169	4.16895
3085.70312	4.10927
3083.77456	4.04723
3081.84600	3.98196
3079.91743	3.91933
3077.98887	3.86159
3076.06030	3.80546
3074.13174	3.74856
3072.20317	3.69229
3070.27461	3.63577
3068.34604	3.57728
3066.41748	3.51817
3064.48892	3.46063
3062.56035	3.40566
3060.63179	3.35231
3058.70322	3.29975
3056.77466	3.24737
3054.84609	3.19425
3052.91753	3.14102
3050.98896	3.08882
3049.06040	3.03805
3047.13184	2.98800
3045.20327	2.93727
3043.27471	2.88645
3041.34614	2.83770
3039.41758	2.79139
3037.48901	2.74553
3035.56045	2.69878
3033.63188	2.65170
3031.70332	2.60543
3029.77476	2.56061
3027.84619	2.51697
3025.91763	2.47388
3023.98906	2.43116
3022.06050	2.38917
3020.13193	2.34770
3018.20337	2.30630
3016.27480	2.26535
3014.34624	2.22513
3012.41768	2.18545
3010.48911	2.14697
3008.56055	2.11027
3006.63198	2.07442
3004.70342	2.03865
3002.77485	2.00313
3000.84629	1.96861
2998.91772	1.93580
2996.98916	1.90391
2995.06060	1.87174
2993.13203	1.83964
2991.20347	1.80863
2989.27490	1.77873
2987.34634	1.74913
2985.41777	1.71981
2983.48921	1.69144
2981.56064	1.66398
2979.63208	1.63736
2977.70352	1.61206
2975.77495	1.58799
2973.84639	1.56423
2971.91782	1.54024
2969.98926	1.51629
2968.06069	1.49284
2966.13213	1.47000
2964.20356	1.44707
2962.27500	1.42375
2960.34644	1.40039
2958.41787	1.37666
2956.48931	1.35227
2954.56074	1.32797
2952.63218	1.30449
2950.70361	1.28143
2948.77505	1.25819
2946.84648	1.23539
2944.91792	1.21394
2942.98936	1.19348
2941.06079	1.17348
2939.13223	1.15419
2937.20366	1.13498
2935.27510	1.11495
2933.34653	1.09485
2931.41797	1.07561
2929.48940	1.05669
2927.56084	1.03732
2925.63228	1.01790
2923.70371	0.99940
2921.77515	0.98197
2919.84658	0.96466
2917.91802	0.94691
2915.98945	0.92923
2914.06089	0.91203
2912.13232	0.89520
2910.20376	0.87878
2908.27520	0.86286
2906.34663	0.84760
2904.41807	0.83276
2902.48950	0.81770
2900.56094	0.80275
2898.63237	0.78886
2896.70381	0.77602
2894.77524	0.76337
2892.84668	0.75048
2890.91812	0.73785
2888.98955	0.72586
2887.06099	0.71467
2885.13242	0.70434
2883.20386	0.69448
2881.27529	0.68481
2879.34673	0.67537
2877.41816	0.66597
2875.48960	0.65627
2873.56104	0.64620
2871.63247	0.63575
2869.70391	0.62464
2867.77534	0.61281
2865.84678	0.60064
2863.91821	0.58855
2861.98965	0.57699
2860.06108	0.56636
2858.13252	0.55625
2856.20396	0.54624
2854.27539	0.53670
2852.34683	0.52772
2850.41826	0.51909
2848.48970	0.51039
2846.56113	0.50162
2844.63257	0.49361
2842.70400	0.48653
2840.77544	0.47970
2838.84687	0.47290
2836.91831	0.46634
2834.98975	0.45984
2833.06118	0.45338
2831.13262	0.44724
2829.20405	0.44124
2827.27549	0.43525
2825.34692	0.42937
2823.41836	0.42340
2821.48979	0.41729
2819.56123	0.41118
2817.63267	0.40512
2815.70410	0.39938
2813.77554	0.39390
2811.84697	0.38833
2809.91841	0.38267
2807.98984	0.37709
2806.06128	0.37173
2804.13271	0.36658
2802.20415	0.36139
2800.27559	0.35629
2798.34702	0.35163
2796.41846	0.34720
2794.48989	0.34249
2792.56133	0.33771
2790.63276	0.33325
2788.70420	0.32870
2786.77563	0.32383
2784.84707	0.31918
2782.91851	0.31501
2780.98994	0.31115
2779.06138	0.30726
2777.13281	0.30312
2775.20425	0.29889
2773.27568	0.29486
2771.34712	0.29114
2769.41855	0.28760
2767.48999	0.28409
2765.56143	0.28066
2763.63286	0.27732
2761.70430	0.27409
2759.77573	0.27084
2757.84717	0.26736
2755.91860	0.26374
2753.99004	0.26036
2752.06147	0.25742
2750.13291	0.25469
2748.20435	0.25183
2746.27578	0.24881
2744.34722	0.24592
2742.41865	0.24312
2740.49009	0.24026
2738.56152	0.23742
2736.63296	0.23481
2734.70439	0.23240
2732.77583	0.23003
2730.84727	0.22764
2728.91870	0.22531
2726.99014	0.22304
2725.06157	0.22076
2723.13301	0.21860
2721.20444	0.21660
2719.27588	0.21458
2717.34731	0.21258
2715.41875	0.21072
2713.49019	0.20892
2711.56162	0.20710
2709.63306	0.20528
2707.70449	0.20342
2705.77593	0.20154
2703.84736	0.19972
2701.91880	0.19801
2699.99023	0.19645
2698.06167	0.19507
2696.13311	0.19376
2694.20454	0.19241
2692.27598	0.19115
2690.34741	0.18996
2688.41885	0.18871
2686.49028	0.18734
2684.56172	0.18599
2682.63315	0.18475
2680.70459	0.18359
2678.77603	0.18257
2676.84746	0.18161
2674.91890	0.18048
2672.99033	0.17918
2671.06177	0.17791
2669.13320	0.17681
2667.20464	0.17586
2665.27607	0.17499
2663.34751	0.17411
2661.41895	0.17317
2659.49038	0.17226
2657.56182	0.17147
2655.63325	0.17079
2653.70469	0.17016
2651.77612	0.16949
2649.84756	0.16871
2647.91899	0.16790
2645.99043	0.16720
2644.06187	0.16666
2642.13330	0.16619
2640.20474	0.16565
2638.27617	0.16505
2636.34761	0.16454
2634.41904	0.16417
2632.49048	0.16387
2630.56191	0.16349
2628.63335	0.16306
2626.70479	0.16265
2624.77622	0.16213
2622.84766	0.16159
2620.91909	0.16123
2618.99053	0.16097
2617.06196	0.16066
2615.13340	0.16036
2613.20483	0.16023
2611.27627	0.16017
2609.34771	0.16004
2607.41914	0.15996
2605.49058	0.16002
2603.56201	0.16001
2601.63345	0.15982
2599.70488	0.15975
2597.77632	0.15984
2595.84775	0.15978
2593.91919	0.15949
2591.99062	0.15933
2590.06206	0.15942
2588.13350	0.15959
2586.20493	0.15969
2584.27637	0.15970
2582.34780	0.15984
2580.41924	0.16017
2578.49067	0.16040
2576.56211	0.16052
2574.63354	0.16079
2572.70498	0.16124
2570.77642	0.16168
2568.84785	0.16198
2566.91929	0.16223
2564.99072	0.16250
2563.06216	0.16285
2561.13359	0.16332
2559.20503	0.16380
2557.27646	0.16424
2555.34790	0.16468
2553.41934	0.16510
2551.49077	0.16561
2549.56221	0.16620
2547.63364	0.16677
2545.70508	0.16721
2543.77651	0.16762
2541.84795	0.16811
2539.91938	0.16851
2537.99082	0.16899
2536.06226	0.16981
2534.13369	0.17068
2532.20513	0.17126
2530.27656	0.17172
2528.34800	0.17230
2526.41943	0.17293
2524.49087	0.17357
2522.56230	0.17435
2520.63374	0.17525
2518.70518	0.17607
2516.77661	0.17671
2514.84805	0.17728
2512.91948	0.17796
2510.99092	0.17878
2509.06235	0.17958
2507.13379	0.18025
2505.20522	0.18088
2503.27666	0.18162
2501.34810	0.18253
2499.41953	0.18340
2497.49097	0.18415
2495.56240	0.18488
2493.63384	0.18562
2491.70527	0.18635
2489.77671	0.18707
2487.84814	0.18783
2485.91958	0.18869
2483.99102	0.18956
2482.06245	0.19037
2480.13389	0.19122
2478.20532	0.19209
2476.27676	0.19296
2474.34819	0.19381
2472.41963	0.19466
2470.49106	0.19553
2468.56250	0.19642
2466.63394	0.19723
2464.70537	0.19798
2462.77681	0.19880
2460.84824	0.19969
2458.91968	0.20059
2456.99111	0.20153
2455.06255	0.20247
2453.13398	0.20343
2451.20542	0.20444
2449.27686	0.20540
2447.34829	0.20628
2445.41973	0.20719
2443.49116	0.20815
2441.56260	0.20912
2439.63403	0.21007
2437.70547	0.21090
2435.77690	0.21173
2433.84834	0.21281
2431.91978	0.21408
2429.99121	0.21532
2428.06265	0.21641
2426.13408	0.21740
2424.20552	0.21839
2422.27695	0.21937
2420.34839	0.22038
2418.41982	0.22144
2416.49126	0.22252
2414.56270	0.22355
2412.63413	0.22453
2410.70557	0.22559
2408.77700	0.22686
2406.84844	0.22814
2404.91987	0.22915
2402.99131	0.23007
2401.06274	0.23115
2399.13418	0.23242
2397.20562	0.23378
2395.27705	0.23517
2393.34849	0.23657
2391.41992	0.23784
2389.49136	0.23886
2387.56279	0.23980
2385.63423	0.24069
2383.70566	0.24130
2381.77710	0.24153
2379.84854	0.24148
2377.91997	0.24120
2375.99141	0.24084
2374.06284	0.24030
2372.13428	0.23916
2370.20571	0.23742
2368.27715	0.23543
2366.34858	0.23386
2364.42002	0.23345
2362.49146	0.23364
2360.56289	0.23395
2358.63433	0.23545
2356.70576	0.23879
2354.77720	0.24351
2352.84863	0.24886
2350.92007	0.25374
2348.99150	0.25660
2347.06294	0.25711
2345.13437	0.25636
2343.20581	0.25593
2341.27725	0.25633
2339.34868	0.25773
2337.42012	0.26019
2335.49155	0.26292
2333.56299	0.26523
2331.63442	0.26705
2329.70586	0.26866
2327.77729	0.27043
2325.84873	0.27248
2323.92017	0.27510
2321.99160	0.27840
2320.06304	0.28192
2318.13447	0.28509
2316.20591	0.28781
2314.27734	0.29024
2312.34878	0.29251
2310.42021	0.29482
2308.49165	0.29729
2306.56309	0.29979
2304.63452	0.30210
2302.70596	0.30427
2300.77739	0.30640
2298.84883	0.30850
2296.92026	0.31078
2294.99170	0.31320
2293.06313	0.31540
2291.13457	0.31742
2289.20601	0.31954
2287.27744	0.32172
2285.34888	0.32385
2283.42031	0.32590
2281.49175	0.32792
2279.56318	0.32985
2277.63462	0.33169
2275.70605	0.33369
2273.77749	0.33579
2271.84893	0.33780
2269.92036	0.33980
2267.99180	0.34201
2266.06323	0.34432
2264.13467	0.34654
2262.20610	0.34867
2260.27754	0.35072
2258.34897	0.35284
2256.42041	0.35507
2254.49185	0.35730
2252.56328	0.35954
2250.63472	0.36185
2248.70615	0.36409
2246.77759	0.36627
2244.84902	0.36845
2242.92046	0.37071
2240.99189	0.37300
2239.06333	0.37512
2237.13477	0.37713
2235.20620	0.37922
2233.27764	0.38149
2231.34907	0.38384
2229.42051	0.38621
2227.49194	0.38852
2225.56338	0.39073
2223.63481	0.39291
2221.70625	0.39506
2219.77769	0.39718
2217.84912	0.39925
2215.92056	0.40134
2213.99199	0.40359
2212.06343	0.40588
2210.13486	0.40803
2208.20630	0.41010
2206.27773	0.41212
2204.34917	0.41409
2202.42061	0.41613
2200.49204	0.41820
2198.56348	0.42020
2196.63491	0.42215
2194.70635	0.42417
2192.77778	0.42620
2190.84922	0.42814
2188.92065	0.42998
2186.99209	0.43177
2185.06353	0.43348
2183.13496	0.43517
2181.20640	0.43684
2179.27783	0.43848
2177.34927	0.44017
2175.42070	0.44183
2173.49214	0.44334
2171.56357	0.44463
2169.63501	0.44577
2167.70645	0.44701
2165.77788	0.44843
2163.84932	0.44972
2161.92075	0.45070
2159.99219	0.45155
2158.06362	0.45242
2156.13506	0.45328
2154.20649	0.45416
2152.27793	0.45499
2150.34937	0.45572
2148.42080	0.45634
2146.49224	0.45676
2144.56367	0.45704
2142.63511	0.45743
2140.70654	0.45795
2138.77798	0.45839
2136.84941	0.45853
2134.92085	0.45848
2132.99229	0.45840
2131.06372	0.45832
2129.13516	0.45815
2127.20659	0.45789
2125.27803	0.45753
2123.34946	0.45707
2121.42090	0.45654
2119.49233	0.45592
2117.56377	0.45521
2115.63521	0.45431
2113.70664	0.45333
2111.77808	0.45249
2109.84951	0.45171
2107.92095	0.45076
2105.99238	0.44963
2104.06382	0.44843
2102.13525	0.44711
2100.20669	0.44569
2098.27812	0.44424
2096.34956	0.44280
2094.42100	0.44127
2092.49243	0.43959
2090.56387	0.43778
2088.63530	0.43595
2086.70674	0.43423
2084.77817	0.43256
2082.84961	0.43068
2080.92104	0.42860
2078.99248	0.42648
2077.06392	0.42433
2075.13535	0.42219
2073.20679	0.42004
2071.27822	0.41781
2069.34966	0.41555
2067.42109	0.41323
2065.49253	0.41075
2063.56396	0.40808
2061.63540	0.40550
2059.70684	0.40313
2057.77827	0.40075
2055.84971	0.39821
2053.92114	0.39554
2051.99258	0.39285
2050.06401	0.39019
2048.13545	0.38762
2046.20688	0.38510
2044.27832	0.38250
2042.34976	0.37976
2040.42119	0.37699
2038.49263	0.37427
2036.56406	0.37152
2034.63550	0.36870
2032.70693	0.36590
2030.77837	0.36316
2028.84980	0.36039
2026.92124	0.35751
2024.99268	0.35465
2023.06411	0.35200
2021.13555	0.34943
2019.20698	0.34666
2017.27842	0.34373
2015.34985	0.34084
2013.42129	0.33811
2011.49272	0.33541
2009.56416	0.33269
2007.63560	0.33002
2005.70703	0.32745
2003.77847	0.32488
2001.84990	0.32228
1999.92134	0.31967
1997.99277	0.31704
1996.06421	0.31448
1994.13564	0.31204
1992.20708	0.30959
1990.27852	0.30702
1988.34995	0.30451
1986.42139	0.30209
1984.49282	0.29968
1982.56426	0.29726
1980.63569	0.29486
1978.70713	0.29257
1976.77856	0.29038
1974.85000	0.28827
1972.92144	0.28617
1970.99287	0.28407
1969.06431	0.28199
1967.13574	0.27992
1965.20718	0.27789
1963.27861	0.27598
1961.35005	0.27414
1959.42148	0.27227
1957.49292	0.27039
1955.56436	0.26858
1953.63579	0.26686
1951.70723	0.26520
1949.77866	0.26357
1947.85010	0.26197
1945.92153	0.26044
1943.99297	0.25897
1942.06440	0.25752
1940.13584	0.25604
1938.20728	0.25460
1936.27871	0.25329
1934.35015	0.25208
1932.42158	0.25089
1930.49302	0.24969
1928.56445	0.24855
1926.63589	0.24748
1924.70732	0.24649
1922.77876	0.24547
1920.85020	0.24449
1918.92163	0.24369
1916.99307	0.24293
1915.06450	0.24204
1913.13594	0.24112
1911.20737	0.24035
1909.27881	0.23967
1907.35024	0.23903
1905.42168	0.23849
1903.49312	0.23797
1901.56455	0.23737
1899.63599	0.23678
1897.70742	0.23635
1895.77886	0.23605
1893.85029	0.23579
1891.92173	0.23552
1889.99316	0.23531
1888.06460	0.23505
1886.13604	0.23478
1884.20747	0.23461
1882.27891	0.23446
1880.35034	0.23430
1878.42178	0.23409
1876.49321	0.23396
1874.56465	0.23388
1872.63608	0.23385
1870.70752	0.23398
1868.77896	0.23447
1866.85039	0.23491
1864.92183	0.23493
1862.99326	0.23495
1861.06470	0.23517
1859.13613	0.23550
1857.20757	0.23587
1855.27900	0.23640
1853.35044	0.23696
1851.42187	0.23753
1849.49331	0.23810
1847.56475	0.23873
1845.63618	0.23945
1843.70762	0.24043
1841.77905	0.24140
1839.85049	0.24200
1837.92192	0.24273
1835.99336	0.24362
1834.06479	0.24446
1832.13623	0.24524
1830.20767	0.24650
1828.27910	0.24813
1826.35054	0.24936
1824.42197	0.25060
1822.49341	0.25191
1820.56484	0.25315
1818.63628	0.25440
1816.70771	0.25589
1814.77915	0.25752
1812.85059	0.25936
1810.92202	0.26142
1808.99346	0.26344
1807.06489	0.26537
1805.13633	0.26731
1803.20776	0.26951
1801.27920	0.27196
1799.35063	0.27467
1797.42207	0.27716
1795.49351	0.27954
1793.56494	0.28222
1791.63638	0.28572
1789.70781	0.28932
1787.77925	0.29221
1785.85068	0.29540
1783.92212	0.29896
1781.99355	0.30278
1780.06499	0.30687
1778.13643	0.31113
1776.20786	0.31514
1774.27930	0.31930
1772.35073	0.32485
1770.42217	0.33106
1768.49360	0.33648
1766.56504	0.34174
1764.63647	0.34712
1762.70791	0.35290
1760.77935	0.36023
1758.85078	0.36726
1756.92222	0.37437
1754.99365	0.38216
1753.06509	0.38913
1751.13652	0.39721
1749.20796	0.40751
1747.27939	0.41806
1745.35083	0.42740
1743.42227	0.43702
1741.49370	0.44747
1739.56514	0.45987
1737.63657	0.47240
1735.70801	0.48323
1733.77944	0.49938
1731.85088	0.51916
1729.92231	0.53507
1727.99375	0.55101
1726.06519	0.56777
1724.13662	0.58575
1722.20806	0.60533
1720.27949	0.62353
1718.35093	0.64464
1716.42236	0.67633
1714.49380	0.70706
1712.56523	0.73191
1710.63667	0.75591
1708.70811	0.78169
1706.77954	0.81089
1704.85098	0.84615
1702.92241	0.87804
1700.99385	0.90958
1699.06528	0.95647
1697.13672	0.99989
1695.20815	1.04544
1693.27959	1.09068
1691.35103	1.12749
1689.42246	1.16989
1687.49390	1.21458
1685.56533	1.25747
1683.63677	1.32447
1681.70820	1.39497
1679.77964	1.43996
1677.85107	1.48278
1675.92251	1.53240
1673.99395	1.59388
1672.06538	1.64862
1670.13682	1.70253
1668.20825	1.77324
1666.27969	1.83175
1664.35112	1.88271
1662.42256	1.94853
1660.49399	2.02398
1658.56543	2.08267
1656.63687	2.12964
1654.70830	2.17178
1652.77974	2.23060
1650.85117	2.28384
1648.92261	2.30498
1646.99404	2.33182
1645.06548	2.35658
1643.13691	2.36917
1641.20835	2.37371
1639.27979	2.37824
1637.35122	2.38065
1635.42266	2.37842
1633.49409	2.37063
1631.56553	2.35654
1629.63696	2.33691
1627.70840	2.30288
1625.77983	2.26358
1623.85127	2.21705
1621.92271	2.16116
1619.99414	2.11127
1618.06558	2.06350
1616.13701	1.99697
1614.20845	1.92999
1612.27988	1.87965
1610.35132	1.82715
1608.42275	1.76924
1606.49419	1.71149
1604.56562	1.65905
1602.63706	1.61017
1600.70850	1.56387
1598.77993	1.52127
1596.85137	1.48017
1594.92280	1.43974
1592.99424	1.40102
1591.06567	1.36579
1589.13711	1.33313
1587.20854	1.30349
1585.27998	1.27674
1583.35142	1.25203
1581.42285	1.22982
1579.49429	1.21105
1577.56572	1.19431
1575.63716	1.17517
1573.70859	1.15951
1571.78003	1.14975
1569.85146	1.14034
1567.92290	1.13107
1565.99434	1.12543
1564.06577	1.12271
1562.13721	1.12165
1560.20864	1.12330
1558.28008	1.13139
1556.35151	1.13899
1554.42295	1.14295
1552.49438	1.14719
1550.56582	1.14962
1548.63726	1.14861
1546.70869	1.14399
1544.78013	1.13521
1542.85156	1.12199
1540.92300	1.10171
1538.99443	1.06970
1537.06587	1.04616
1535.13730	1.02968
1533.20874	1.00711
1531.28018	0.98303
1529.35161	0.96567
1527.42305	0.94918
1525.49448	0.93225
1523.56592	0.91849
1521.63735	0.90570
1519.70879	0.89253
1517.78022	0.88119
1515.85166	0.86796
1513.92310	0.85408
1511.99453	0.84174
1510.06597	0.83010
1508.13740	0.81836
1506.20884	0.80107
1504.28027	0.78689
1502.35171	0.77896
1500.42314	0.77185
1498.49458	0.76429
1496.56602	0.75552
1494.63745	0.74681
1492.70889	0.74024
1490.78032	0.73478
1488.85176	0.72871
1486.92319	0.72292
1484.99463	0.71843
1483.06606	0.71508
1481.13750	0.71254
1479.20894	0.71088
1477.28037	0.71016
1475.35181	0.71021
1473.42324	0.71103
1471.49468	0.71168
1469.56611	0.71089
1467.63755	0.70920
1465.70898	0.70751
1463.78042	0.70620
1461.85186	0.70554
1459.92329	0.70551
1457.99473	0.70588
1456.06616	0.70561
1454.13760	0.70371
1452.20903	0.70113
1450.28047	0.69814
1448.35190	0.69484
1446.42334	0.69150
1444.49478	0.68864
1442.56621	0.68600
1440.63765	0.68306
1438.70908	0.67980
1436.78052	0.67550
1434.85195	0.67058
1432.92339	0.66701
1430.99482	0.66479
1429.06626	0.66368
1427.13770	0.66356
1425.20913	0.66416
1423.28057	0.66533
1421.35200	0.66650
1419.42344	0.66742
1417.49487	0.66755
1415.56631	0.66654
1413.63774	0.66574
1411.70918	0.66591
1409.78062	0.66715
1407.85205	0.66925
1405.92349	0.67180
1403.99492	0.67400
1402.06636	0.67484
1400.13779	0.67435
1398.20923	0.67261
1396.28066	0.66960
1394.35210	0.66548
1392.42354	0.66085
1390.49497	0.65627
1388.56641	0.65133
1386.63784	0.64560
1384.70928	0.63966
1382.78071	0.63404
1380.85215	0.62868
1378.92358	0.62407
1376.99502	0.62070
1375.06646	0.61841
1373.13789	0.61675
1371.20933	0.61561
1369.28076	0.61481
1367.35220	0.61376
1365.42363	0.61209
1363.49507	0.61014
1361.56650	0.60842
1359.63794	0.60693
1357.70937	0.60545
1355.78081	0.60405
1353.85225	0.60294
1351.92368	0.60206
1349.99512	0.60130
1348.06655	0.60064
1346.13799	0.59994
1344.20942	0.59912
1342.28086	0.59819
1340.35229	0.59743
1338.42373	0.59697
1336.49517	0.59669
1334.56660	0.59653
1332.63804	0.59661
1330.70947	0.59690
1328.78091	0.59732
1326.85234	0.59800
1324.92378	0.59906
1322.99521	0.60034
1321.06665	0.60145
1319.13809	0.60223
1317.20952	0.60273
1315.28096	0.60300
1313.35239	0.60294
1311.42383	0.60247
1309.49526	0.60191
1307.56670	0.60157
1305.63813	0.60138
1303.70957	0.60104
1301.78101	0.60042
1299.85244	0.59955
1297.92388	0.59847
1295.99531	0.59727
1294.06675	0.59603
1292.13818	0.59472
1290.20962	0.59325
1288.28105	0.59175
1286.35249	0.59024
1284.42393	0.58864
1282.49536	0.58700
1280.56680	0.58550
1278.63823	0.58420
1276.70967	0.58283
1274.78110	0.58136
1272.85254	0.58024
1270.92397	0.57958
1268.99541	0.57892
1267.06685	0.57805
1265.13828	0.57699
1263.20972	0.57588
1261.28115	0.57487
1259.35259	0.57399
1257.42402	0.57325
1255.49546	0.57279
1253.56689	0.57268
1251.63833	0.57280
1249.70977	0.57300
1247.78120	0.57310
1245.85264	0.57288
1243.92407	0.57221
1241.99551	0.57110
1240.06694	0.56956
1238.13838	0.56761
1236.20981	0.56519
1234.28125	0.56246
1232.35269	0.55982
1230.42412	0.55741
1228.49556	0.55515
1226.56699	0.55291
1224.63843	0.55078
1222.70986	0.54879
1220.78130	0.54700
1218.85273	0.54537
1216.92417	0.54386
1214.99561	0.54254
1213.06704	0.54143
1211.13848	0.54045
1209.20991	0.53970
1207.28135	0.53913
1205.35278	0.53842
1203.42422	0.53736
1201.49565	0.53617
1199.56709	0.53521
1197.63853	0.53447
1195.70996	0.53381
1193.78140	0.53328
1191.85283	0.53281
1189.92427	0.53234
1187.99570	0.53202
1186.06714	0.53195
1184.13857	0.53210
1182.21001	0.53254
1180.28145	0.53343
1178.35288	0.53479
1176.42432	0.53641
1174.49575	0.53796
1172.56719	0.53899
1170.63862	0.53930
1168.71006	0.53923
1166.78149	0.53906
1164.85293	0.53888
1162.92437	0.53865
1160.99580	0.53829
1159.06724	0.53776
1157.13867	0.53705
1155.21011	0.53606
1153.28154	0.53475
1151.35298	0.53311
1149.42441	0.53099
1147.49585	0.52842
1145.56729	0.52556
1143.63872	0.52266
1141.71016	0.52017
1139.78159	0.51839
1137.85303	0.51709
1135.92446	0.51601
1133.99590	0.51544
1132.06733	0.51534
1130.13877	0.51528
1128.21021	0.51501
1126.28164	0.51452
1124.35308	0.51384
1122.42451	0.51311
1120.49595	0.51262
1118.56738	0.51262
1116.63882	0.51282
1114.71025	0.51289
1112.78169	0.51288
1110.85312	0.51301
1108.92456	0.51369
1106.99600	0.51498
1105.06743	0.51624
1103.13887	0.51716
1101.21030	0.51833
1099.28174	0.52012
1097.35317	0.52239
1095.42461	0.52510
1093.49604	0.52820
1091.56748	0.53200
1089.63892	0.53737
1087.71035	0.54449
1085.78179	0.55241
1083.85322	0.56009
1081.92466	0.56685
1079.99609	0.57203
1078.06753	0.57483
1076.13896	0.57470
1074.21040	0.57178
1072.28184	0.56682
1070.35327	0.56035
1068.42471	0.55302
1066.49614	0.54586
1064.56758	0.53955
1062.63901	0.53410
1060.71045	0.52919
1058.78188	0.52452
1056.85332	0.52011
1054.92476	0.51618
1052.99619	0.51294
1051.06763	0.51061
1049.13906	0.50889
1047.21050	0.50713
1045.28193	0.50531
1043.35337	0.50408
1041.42480	0.50348
1039.49624	0.50289
1037.56768	0.50236
1035.63911	0.50226
1033.71055	0.50225
1031.78198	0.50168
1029.85342	0.50041
1027.92485	0.49888
1025.99629	0.49765
1024.06772	0.49706
1022.13916	0.49690
1020.21060	0.49677
1018.28203	0.49665
1016.35347	0.49670
1014.42490	0.49681
1012.49634	0.49682
1010.56777	0.49702
1008.63921	0.49747
1006.71064	0.49822
1004.78208	0.49953
1002.85352	0.50143
1000.92495	0.50396
998.99639	0.50729
997.06782	0.51144
995.13926	0.51582
993.21069	0.51986
991.28213	0.52326
989.35356	0.52569
987.42500	0.52686
985.49644	0.52693
983.56787	0.52666
981.63931	0.52700
979.71074	0.52818
977.78218	0.52994
975.85361	0.53210
973.92505	0.53459
971.99648	0.53749
970.06792	0.54088
968.13936	0.54473
966.21079	0.54882
964.28223	0.55297
962.35366	0.55737
960.42510	0.56240
958.49653	0.56799
956.56797	0.57377
954.63940	0.57995
952.71084	0.58647
950.78228	0.59269
948.85371	0.59879
946.92515	0.60512
944.99658	0.61139
943.06802	0.61767
941.13945	0.62417
939.21089	0.63059
937.28232	0.63650
935.35376	0.64194
933.42520	0.64771
931.49663	0.65438
929.56807	0.66122
927.63950	0.66721
925.71094	0.67225
923.78237	0.67728
921.85381	0.68329
919.92524	0.69050
917.99668	0.69867
916.06812	0.70677
914.13955	0.71376
912.21099	0.72027
910.28242	0.72743
908.35386	0.73583
906.42529	0.74552
904.49673	0.75491
902.56816	0.76295
900.63960	0.77146
898.71104	0.78128
896.78247	0.79167
894.85391	0.80249
892.92534	0.81312
890.99678	0.82313
889.06821	0.83311
887.13965	0.84363
885.21108	0.85602
883.28252	0.86994
881.35396	0.88250
879.42539	0.89384
877.49683	0.90641
875.56826	0.91969
873.63970	0.93159
871.71113	0.94316
869.78257	0.95519
867.85400	0.96469
865.92544	0.97167
863.99687	0.98011
862.06831	0.99172
860.13975	1.00508
858.21118	1.01845
856.28262	1.03191
854.35405	1.04611
852.42549	1.05944
850.49692	1.07105
848.56836	1.08270
846.63979	1.09470
844.71123	1.10628
842.78267	1.11756
840.85410	1.12910
838.92554	1.14149
836.99697	1.15552
835.06841	1.17078
833.13984	1.18530
831.21128	1.19702
829.28271	1.20651
827.35415	1.21795
825.42559	1.23154
823.49702	1.24466
821.56846	1.25337
819.63989	1.25526
817.71133	1.25958
815.78276	1.27657
813.85420	1.30403
811.92563	1.32574
809.99707	1.32841
808.06851	1.32186
806.13994	1.32864
804.21138	1.35421
802.28281	1.38173
800.35425	1.40559
798.42568	1.41857
796.49712	1.40508
794.56855	1.42068
792.63999	1.50577
790.71143	1.57720
788.78286	1.62989
786.85430	1.71370
784.92573	1.63590
782.99717	1.50607
781.06860	1.46137
779.14004	1.46539
777.21147	1.52831
775.28291	1.53567
773.35435	1.40333
771.42578	1.35355
769.49722	1.45842
767.56865	1.63643
765.64009	1.53813
763.71152	1.33521
761.78296	1.24717
759.85439	1.26525
757.92583	1.35876
755.99727	1.39736
754.06870	1.38746
752.14014	1.42986
750.21157	1.36836
748.28301	1.17759
746.35444	1.03615
744.42588	0.94766
742.49731	0.89265
740.56875	0.88842
738.64019	0.92992
736.71162	0.93144
734.78306	0.88703
732.85449	0.82093
730.92593	0.75740
728.99736	0.72934
727.06880	0.62253
725.14023	0.46205
723.21167	0.42003
721.28311	0.59401
719.35454	1.24101
717.42598	0.66546
715.49741	0.15741
713.56885	-0.08270
711.64028	-0.07195
709.71172	0.07365
707.78315	0.17206
705.85459	0.06405
703.92603	0.11208
701.99746	0.43763
700.06890	4.20041
698.14033	0.57086
696.21177	0.28150
694.28320	0.23949
692.35464	0.23525
690.42607	0.18717
688.49751	0.15208
686.56895	0.18731
684.64038	0.21290
682.71182	0.25677
680.78325	0.32168
678.85469	0.27194
676.92612	0.22397
674.99756	0.22371
673.06899	0.29578
671.14043	0.51444
669.21187	0.47571
667.28330	0.13432
665.35474	-0.06305
663.42617	-0.01469
661.49761	0.30511
659.56904	0.57696
657.64048	0.54181
655.71191	0.34553
653.78335	0.22531
651.85479	0.18984
649.92622	0.16319
647.99766	0.12797
646.06909	0.14594
644.14053	0.19541
642.21196	0.13899
640.28340	0.04436
638.35483	0.00941
636.42627	0.02063
634.49771	0.10013
632.56914	0.25969
630.64058	0.40475
628.71201	0.49333
626.78345	0.65687
624.85488	0.63964
622.92632	0.37461
620.99775	0.23173
619.06919	0.14732
617.14062	0.11339
615.21206	0.18114
613.28350	0.29236
611.35493	0.28831
609.42637	0.23348
607.49780	0.25202
605.56924	0.31217
603.64067	0.24935
601.71211	0.08980
599.78354	0.08746
597.85498	0.15193
595.92642	0.09252
593.99785	0.02583
592.06929	0.04755
590.14072	0.12557
588.21216	0.24406
586.28359	0.29607
584.35503	0.29891
582.42646	0.28155
580.49790	0.16599
578.56934	0.08171
576.64077	0.09322
574.71221	0.16584
572.78364	0.23377
570.85508	0.23840
568.92651	0.15836
566.99795	0.14132
565.06938	0.20329
563.14082	0.24299
561.21226	0.21662
559.28369	0.15621
557.35513	0.09634
555.42656	0.13764
553.49800	0.23516
551.56943	0.22918
549.64087	0.21863
547.71230	0.35398
545.78374	0.59554
543.85518	0.51329
541.92661	0.36488
539.99805	0.35575
538.06948	0.32842
536.14092	0.23228
534.21235	0.20538
532.28379	0.30947
530.35522	0.45291
528.42666	0.34448
526.49810	0.28668
524.56953	0.29296
522.64097	0.26777
520.71240	0.16776
518.78384	0.07379
516.85527	0.02857
514.92671	0.07138
512.99814	0.12545
511.06958	0.13833
509.14102	0.16876
507.21245	0.16898
505.28389	0.16620
503.35532	0.21392
501.42676	0.24105
499.49819	0.23751
