3997.91411	0.06681
3995.98555	0.06759
3994.05698	0.06800
3992.12842	0.06816
3990.19985	0.06873
3988.27129	0.06943
3986.34272	0.06963
3984.41416	0.06980
3982.48560	0.07051
3980.55703	0.07097
3978.62847	0.07068
3976.69990	0.07045
3974.77134	0.07076
3972.84277	0.07124
3970.91421	0.07148
3968.98564	0.07143
3967.05708	0.07140
3965.12852	0.07161
3963.19995	0.07184
3961.27139	0.07182
3959.34282	0.07169
3957.41426	0.07159
3955.48569	0.07155
3953.55713	0.07174
3951.62856	0.07193
3949.70000	0.07187
3947.77144	0.07171
3945.84287	0.07138
3943.91431	0.07108
3941.98574	0.07128
3940.05718	0.07180
3938.12861	0.07206
3936.20005	0.07209
3934.27148	0.07208
3932.34292	0.07195
3930.41436	0.07191
3928.48579	0.07221
3926.55723	0.07237
3924.62866	0.07216
3922.70010	0.07192
3920.77153	0.07193
3918.84297	0.07202
3916.91440	0.07208
3914.98584	0.07192
3913.05728	0.07155
3911.12871	0.07123
3909.20015	0.07098
3907.27158	0.07090
3905.34302	0.07132
3903.41445	0.07217
3901.48589	0.07273
3899.55732	0.07273
3897.62876	0.07202
3895.70020	0.07092
3893.77163	0.07051
3891.84307	0.07106
3889.91450	0.07159
3887.98594	0.07149
3886.05737	0.07160
3884.12881	0.07187
3882.20024	0.07182
3880.27168	0.07219
3878.34312	0.07282
3876.41455	0.07285
3874.48599	0.07304
3872.55742	0.07367
3870.62886	0.07397
3868.70029	0.07403
3866.77173	0.07383
3864.84316	0.07371
3862.91460	0.07400
3860.98604	0.07423
3859.05747	0.07473
3857.12891	0.07537
3855.20034	0.07552
3853.27178	0.07608
3851.34321	0.07776
3849.41465	0.07804
3847.48608	0.07722
3845.55752	0.07659
3843.62896	0.07716
3841.70039	0.07888
3839.77183	0.08042
3837.84326	0.08140
3835.91470	0.08203
3833.98613	0.08231
3832.05757	0.08222
3830.12900	0.08240
3828.20044	0.08330
3826.27187	0.08448
3824.34331	0.08555
3822.41475	0.08640
3820.48618	0.08742
3818.55762	0.08828
3816.62905	0.08872
3814.70049	0.08932
3812.77192	0.08992
3810.84336	0.09038
3808.91479	0.09091
3806.98623	0.09206
3805.05767	0.09364
3803.12910	0.09474
3801.20054	0.09644
3799.27197	0.09854
3797.34341	0.09933
3795.41484	0.09996
3793.48628	0.10095
3791.55771	0.10183
3789.62915	0.10263
3787.70059	0.10364
3785.77202	0.10510
3783.84346	0.10670
3781.91489	0.10784
3779.98633	0.10902
3778.05776	0.11105
3776.12920	0.11294
3774.20063	0.11396
3772.27207	0.11480
3770.34351	0.11630
3768.41494	0.11882
3766.48638	0.12127
3764.55781	0.12318
3762.62925	0.12476
3760.70068	0.12660
3758.77212	0.12931
3756.84355	0.13198
3754.91499	0.13392
3752.98643	0.13607
3751.05786	0.13970
3749.12930	0.14429
3747.20073	0.14654
3745.27217	0.14776
3743.34360	0.15125
3741.41504	0.15539
3739.48647	0.15789
3737.55791	0.16052
3735.62935	0.16491
3733.70078	0.17047
3731.77222	0.17504
3729.84365	0.17906
3727.91509	0.18327
3725.98652	0.18832
3724.05796	0.19426
3722.12939	0.20073
3720.20083	0.20793
3718.27227	0.21522
3716.34370	0.22237
3714.41514	0.22948
3712.48657	0.23800
3710.55801	0.25093
3708.62944	0.26563
3706.70088	0.27743
3704.77231	0.28830
3702.84375	0.30102
3700.91519	0.31742
3698.98662	0.33527
3697.05806	0.35218
3695.12949	0.37000
3693.20093	0.38877
3691.27236	0.40894
3689.34380	0.43574
3687.41523	0.47026
3685.48667	0.50077
3683.55811	0.52656
3681.62954	0.55406
3679.70098	0.58483
3677.77241	0.61695
3675.84385	0.65506
3673.91528	0.70676
3671.98672	0.74894
3670.05815	0.78601
3668.12959	0.83841
3666.20103	0.88728
3664.27246	0.92742
3662.34390	0.97010
3660.41533	1.01613
3658.48677	1.06086
3656.55820	1.10845
3654.62964	1.16254
3652.70107	1.20821
3650.77251	1.24723
3648.84395	1.30114
3646.91538	1.36946
3644.98682	1.42087
3643.05825	1.45965
3641.12969	1.49908
3639.20112	1.54325
3637.27256	1.58777
3635.34399	1.63010
3633.41543	1.67178
3631.48687	1.71100
3629.55830	1.75066
3627.62974	1.80278
3625.70117	1.85297
3623.77261	1.88732
3621.84404	1.91946
3619.91548	1.95657
3617.98691	2.00302
3616.05835	2.04832
3614.12979	2.08501
3612.20122	2.12327
3610.27266	2.16279
3608.34409	2.20328
3606.41553	2.24700
3604.48696	2.28701
3602.55840	2.32143
3600.62983	2.35900
3598.70127	2.40047
3596.77271	2.43958
3594.84414	2.47917
3592.91558	2.52154
3590.98701	2.56110
3589.05845	2.59676
3587.12988	2.63928
3585.20132	2.68844
3583.27275	2.73128
3581.34419	2.77037
3579.41562	2.81178
3577.48706	2.85379
3575.55850	2.89475
3573.62993	2.93758
3571.70137	2.97954
3569.77280	3.01871
3567.84424	3.06085
3565.91567	3.11408
3563.98711	3.16682
3562.05854	3.20973
3560.12998	3.25096
3558.20142	3.29389
3556.27285	3.33883
3554.34429	3.38394
3552.41572	3.43093
3550.48716	3.48061
3548.55859	3.52776
3546.63003	3.57115
3544.70146	3.61633
3542.77290	3.66420
3540.84434	3.71068
3538.91577	3.75510
3536.98721	3.79991
3535.05864	3.85193
3533.13008	3.90901
3531.20151	3.96051
3529.27295	4.00667
3527.34438	4.05666
3525.41582	4.10924
3523.48726	4.15690
3521.55869	4.20136
3519.63013	4.24811
3517.70156	4.29574
3515.77300	4.34069
3513.84443	4.38788
3511.91587	4.43841
3509.98730	4.48868
3508.05874	4.53890
3506.13018	4.58710
3504.20161	4.62943
3502.27305	4.66874
3500.34448	4.71433
3498.41592	4.76770
3496.48735	4.82304
3494.55879	4.87618
3492.63022	4.92556
3490.70166	4.97032
3488.77310	5.01440
3486.84453	5.06643
3484.91597	5.12186
3482.98740	5.16749
3481.05884	5.20674
3479.13027	5.25094
3477.20171	5.29927
3475.27314	5.34701
3473.34458	5.40266
3471.41602	5.46898
3469.48745	5.52910
3467.55889	5.57404
3465.63032	5.61408
3463.70176	5.66288
3461.77319	5.71924
3459.84463	5.77447
3457.91606	5.82285
3455.98750	5.87055
3454.05894	5.92051
3452.13037	5.97019
3450.20181	6.02551
3448.27324	6.08048
3446.34468	6.12974
3444.41611	6.17462
3442.48755	6.21817
3440.55898	6.26351
3438.63042	6.31498
3436.70186	6.37381
3434.77329	6.43478
3432.84473	6.48358
3430.91616	6.51633
3428.98760	6.55940
3427.05903	6.61858
3425.13047	6.69758
3423.20190	6.78191
3421.27334	6.83360
3419.34478	6.86135
3417.41621	6.89010
3415.48765	6.91167
3413.55908	6.93326
3411.63052	6.98480
3409.70195	7.04646
3407.77339	7.10801
3405.84482	7.17046
3403.91626	7.21600
3401.98770	7.25120
3400.05913	7.29147
3398.13057	7.33388
3396.20200	7.38173
3394.27344	7.43409
3392.34487	7.43997
3390.41631	7.42140
3388.48774	7.44244
3386.55918	7.51116
3384.63062	7.60248
3382.70205	7.67791
3380.77349	7.70453
3378.84492	7.68775
3376.91636	7.67075
3374.98779	7.70243
3373.05923	7.80759
3371.13066	7.90579
3369.20210	7.94261
3367.27354	7.92230
3365.34497	7.88526
3363.41641	7.88542
3361.48784	7.88065
3359.55928	7.87924
3357.63071	7.94488
3355.70215	8.06906
3353.77358	8.14895
3351.84502	8.14564
3349.91646	8.12253
3347.98789	8.12135
3346.05933	8.14186
3344.13076	8.15108
3342.20220	8.11662
3340.27363	8.08075
3338.34507	8.09756
3336.41650	8.14320
3334.48794	8.25402
3332.55937	8.40356
3330.63081	8.46760
3328.70225	8.46017
3326.77368	8.40243
3324.84512	8.26722
3322.91655	8.20424
3320.98799	8.33721
3319.05942	8.54773
3317.13086	8.67057
3315.20229	8.55677
3313.27373	8.35727
3311.34517	8.29542
3309.41660	8.28523
3307.48804	8.28003
3305.55947	8.33138
3303.63091	8.39875
3301.70234	8.42383
3299.77378	8.43200
3297.84521	8.45921
3295.91665	8.47071
3293.98809	8.42055
3292.05952	8.37164
3290.13096	8.37735
3288.20239	8.40404
3286.27383	8.40811
3284.34526	8.37000
3282.41670	8.34435
3280.48813	8.37741
3278.55957	8.45374
3276.63101	8.46680
3274.70244	8.39136
3272.77388	8.34458
3270.84531	8.37208
3268.91675	8.47113
3266.98818	8.57313
3265.05962	8.56243
3263.13105	8.53484
3261.20249	8.64760
3259.27393	8.69459
3257.34536	8.50209
3255.41680	8.34151
3253.48823	8.39842
3251.55967	8.57400
3249.63110	8.56448
3247.70254	8.40441
3245.77397	8.39546
3243.84541	8.50898
3241.91685	8.46625
3239.98828	8.34646
3238.05972	8.39487
3236.13115	8.57268
3234.20259	8.73542
3232.27402	8.79235
3230.34546	8.65442
3228.41689	8.45284
3226.48833	8.32833
3224.55977	8.26586
3222.63120	8.31180
3220.70264	8.37516
3218.77407	8.32246
3216.84551	8.29756
3214.91694	8.32497
3212.98838	8.27438
3211.05981	8.16975
3209.13125	8.11600
3207.20269	8.11740
3205.27412	8.10585
3203.34556	8.06735
3201.41699	8.04467
3199.48843	8.02238
3197.55986	7.95337
3195.63130	7.88296
3193.70273	7.85013
3191.77417	7.80536
3189.84561	7.72244
3187.91704	7.63289
3185.98848	7.57665
3184.05991	7.55249
3182.13135	7.50645
3180.20278	7.44347
3178.27422	7.41247
3176.34565	7.36329
3174.41709	7.23927
3172.48853	7.12302
3170.55996	7.07843
3168.63140	7.06039
3166.70283	7.03209
3164.77427	6.99607
3162.84570	6.93458
3160.91714	6.84642
3158.98857	6.76248
3157.06001	6.70300
3155.13145	6.65365
3153.20288	6.58264
3151.27432	6.50183
3149.34575	6.42651
3147.41719	6.33759
3145.48862	6.25443
3143.56006	6.20475
3141.63149	6.14796
3139.70293	6.05560
3137.77437	5.97135
3135.84580	5.91046
3133.91724	5.84758
3131.98867	5.77751
3130.06011	5.70689
3128.13154	5.63538
3126.20298	5.56039
3124.27441	5.47922
3122.34585	5.39926
3120.41729	5.33055
3118.48872	5.26074
3116.56016	5.18306
3114.63159	5.11034
3112.70303	5.04645
3110.77446	4.98335
3108.84590	4.91447
3106.91733	4.83952
3104.98877	4.76000
3103.06021	4.68189
3101.13164	4.61378
3099.20308	4.55690
3097.27451	4.50016
3095.34595	4.43499
3093.41738	4.36714
3091.48882	4.30248
3089.56025	4.23881
3087.63169	4.17238
3085.70312	4.10298
3083.77456	4.03428
3081.84600	3.97236
3079.91743	3.91654
3077.98887	3.85993
3076.06030	3.80174
3074.13174	3.74292
3072.20317	3.68262
3070.27461	3.62343
3068.34604	3.56750
3066.41748	3.51243
3064.48892	3.45619
3062.56035	3.40052
3060.63179	3.34700
3058.70322	3.29366
3056.77466	3.23907
3054.84609	3.18527
3052.91753	3.13329
3050.98896	3.08180
3049.06040	3.02968
3047.13184	2.97813
3045.20327	2.92883
3043.27471	2.88057
3041.34614	2.83173
3039.41758	2.78262
3037.48901	2.73448
3035.56045	2.68749
3033.63188	2.64071
3031.70332	2.59460
3029.77476	2.55053
3027.84619	2.50766
3025.91763	2.46440
3023.98906	2.42128
3022.06050	2.37917
3020.13193	2.33794
3018.20337	2.29731
3016.27480	2.25681
3014.34624	2.21629
3012.41768	2.17678
3010.48911	2.13883
3008.56055	2.10180
3006.63198	2.06522
3004.70342	2.02922
3002.77485	1.99412
3000.84629	1.95995
2998.91772	1.92661
2996.98916	1.89426
2995.06060	1.86258
2993.13203	1.83108
2991.20347	1.80028
2989.27490	1.77052
2987.34634	1.74100
2985.41777	1.71197
2983.48921	1.68458
2981.56064	1.65847
2979.63208	1.63252
2977.70352	1.60652
2975.77495	1.58086
2973.84639	1.55576
2971.91782	1.53154
2969.98926	1.50811
2968.06069	1.48487
2966.13213	1.46166
2964.20356	1.43840
2962.27500	1.41485
2960.34644	1.39099
2958.41787	1.36725
2956.48931	1.34400
2954.56074	1.32091
2952.63218	1.29770
2950.70361	1.27430
2948.77505	1.25105
2946.84648	1.22868
2944.91792	1.20774
2942.98936	1.18781
2941.06079	1.16797
2939.13223	1.14807
2937.20366	1.12827
2935.27510	1.10876
2933.34653	1.08948
2931.41797	1.07013
2929.48940	1.05104
2927.56084	1.03209
2925.63228	1.01290
2923.70371	0.99443
2921.77515	0.97671
2919.84658	0.95866
2917.91802	0.94082
2915.98945	0.92372
2914.06089	0.90664
2912.13232	0.88964
2910.20376	0.87342
2908.27520	0.85786
2906.34663	0.84261
2904.41807	0.82764
2902.48950	0.81289
2900.56094	0.79853
2898.63237	0.78495
2896.70381	0.77190
2894.77524	0.75901
2892.84668	0.74638
2890.91812	0.73395
2888.98955	0.72212
2887.06099	0.71129
2885.13242	0.70080
2883.20386	0.69042
2881.27529	0.68057
2879.34673	0.67113
2877.41816	0.66185
2875.48960	0.65239
2873.56104	0.64230
2871.63247	0.63167
2869.70391	0.62066
2867.77534	0.60939
2865.84678	0.59788
2863.91821	0.58593
2861.98965	0.57392
2860.06108	0.56279
2858.13252	0.55266
2856.20396	0.54307
2854.27539	0.53358
2852.34683	0.52411
2850.41826	0.51502
2848.48970	0.50641
2846.56113	0.49809
2844.63257	0.49022
2842.70400	0.48280
2840.77544	0.47576
2838.84687	0.46894
2836.91831	0.46201
2834.98975	0.45514
2833.06118	0.44884
2831.13262	0.44302
2829.20405	0.43719
2827.27549	0.43112
2825.34692	0.42491
2823.41836	0.41875
2821.48979	0.41282
2819.56123	0.40696
2817.63267	0.40095
2815.70410	0.39511
2813.77554	0.38955
2811.84697	0.38399
2809.91841	0.37845
2807.98984	0.37317
2806.06128	0.36814
2804.13271	0.36304
2802.20415	0.35766
2800.27559	0.35227
2798.34702	0.34724
2796.41846	0.34246
2794.48989	0.33762
2792.56133	0.33281
2790.63276	0.32833
2788.70420	0.32409
2786.77563	0.31976
2784.84707	0.31536
2782.91851	0.31110
2780.98994	0.30707
2779.06138	0.30305
2777.13281	0.29888
2775.20425	0.29479
2773.27568	0.29098
2771.34712	0.28724
2769.41855	0.28350
2767.48999	0.27998
2765.56143	0.27676
2763.63286	0.27341
2761.70430	0.26977
2759.77573	0.26626
2757.84717	0.26306
2755.91860	0.25990
2753.99004	0.25667
2752.06147	0.25353
2750.13291	0.25056
2748.20435	0.24769
2746.27578	0.24494
2744.34722	0.24226
2742.41865	0.23951
2740.49009	0.23678
2738.56152	0.23417
2736.63296	0.23154
2734.70439	0.22888
2732.77583	0.22631
2730.84727	0.22380
2728.91870	0.22137
2726.99014	0.21911
2725.06157	0.21699
2723.13301	0.21494
2721.20444	0.21285
2719.27588	0.21069
2717.34731	0.20853
2715.41875	0.20652
2713.49019	0.20467
2711.56162	0.20298
2709.63306	0.20135
2707.70449	0.19978
2705.77593	0.19829
2703.84736	0.19666
2701.91880	0.19481
2699.99023	0.19306
2698.06167	0.19162
2696.13311	0.19029
2694.20454	0.18891
2692.27598	0.18750
2690.34741	0.18604
2688.41885	0.18459
2686.49028	0.18329
2684.56172	0.18203
2682.63315	0.18083
2680.70459	0.17976
2678.77603	0.17871
2676.84746	0.17754
2674.91890	0.17635
2672.99033	0.17518
2671.06177	0.17404
2669.13320	0.17303
2667.20464	0.17217
2665.27607	0.17128
2663.34751	0.17041
2661.41895	0.16959
2659.49038	0.16869
2657.56182	0.16774
2655.63325	0.16684
2653.70469	0.16605
2651.77612	0.16535
2649.84756	0.16451
2647.91899	0.16363
2645.99043	0.16308
2644.06187	0.16271
2642.13330	0.16216
2640.20474	0.16148
2638.27617	0.16084
2636.34761	0.16027
2634.41904	0.15984
2632.49048	0.15945
2630.56191	0.15898
2628.63335	0.15849
2626.70479	0.15806
2624.77622	0.15770
2622.84766	0.15737
2620.91909	0.15704
2618.99053	0.15677
2617.06196	0.15664
2615.13340	0.15655
2613.20483	0.15630
2611.27627	0.15595
2609.34771	0.15569
2607.41914	0.15560
2605.49058	0.15573
2603.56201	0.15597
2601.63345	0.15596
2599.70488	0.15564
2597.77632	0.15543
2595.84775	0.15551
2593.91919	0.15565
2591.99062	0.15562
2590.06206	0.15548
2588.13350	0.15548
2586.20493	0.15579
2584.27637	0.15617
2582.34780	0.15629
2580.41924	0.15632
2578.49067	0.15643
2576.56211	0.15659
2574.63354	0.15690
2572.70498	0.15735
2570.77642	0.15780
2568.84785	0.15811
2566.91929	0.15826
2564.99072	0.15841
2563.06216	0.15874
2561.13359	0.15920
2559.20503	0.15968
2557.27646	0.16016
2555.34790	0.16066
2553.41934	0.16117
2551.49077	0.16161
2549.56221	0.16199
2547.63364	0.16246
2545.70508	0.16300
2543.77651	0.16353
2541.84795	0.16415
2539.91938	0.16491
2537.99082	0.16570
2536.06226	0.16638
2534.13369	0.16688
2532.20513	0.16724
2530.27656	0.16766
2528.34800	0.16836
2526.41943	0.16925
2524.49087	0.17005
2522.56230	0.17065
2520.63374	0.17133
2518.70518	0.17216
2516.77661	0.17282
2514.84805	0.17336
2512.91948	0.17409
2510.99092	0.17495
2509.06235	0.17573
2507.13379	0.17651
2505.20522	0.17726
2503.27666	0.17788
2501.34810	0.17844
2499.41953	0.17915
2497.49097	0.18005
2495.56240	0.18096
2493.63384	0.18176
2491.70527	0.18259
2489.77671	0.18348
2487.84814	0.18433
2485.91958	0.18510
2483.99102	0.18586
2482.06245	0.18674
2480.13389	0.18770
2478.20532	0.18864
2476.27676	0.18952
2474.34819	0.19028
2472.41963	0.19099
2470.49106	0.19174
2468.56250	0.19250
2466.63394	0.19330
2464.70537	0.19424
2462.77681	0.19533
2460.84824	0.19639
2458.91968	0.19730
2456.99111	0.19813
2455.06255	0.19896
2453.13398	0.19981
2451.20542	0.20071
2449.27686	0.20167
2447.34829	0.20260
2445.41973	0.20345
2443.49116	0.20438
2441.56260	0.20535
2439.63403	0.20629
2437.70547	0.20729
2435.77690	0.20835
2433.84834	0.20939
2431.91978	0.21043
2429.99121	0.21148
2428.06265	0.21247
2426.13408	0.21349
2424.20552	0.21467
2422.27695	0.21586
2420.34839	0.21692
2418.41982	0.21796
2416.49126	0.21900
2414.56270	0.22002
2412.63413	0.22102
2410.70557	0.22202
2408.77700	0.22308
2406.84844	0.22420
2404.91987	0.22551
2402.99131	0.22697
2401.06274	0.22839
2399.13418	0.22963
2397.20562	0.23066
2395.27705	0.23157
2393.34849	0.23260
2391.41992	0.23387
2389.49136	0.23519
2387.56279	0.23640
2385.63423	0.23761
2383.70566	0.23897
2381.77710	0.24041
2379.84854	0.24171
2377.91997	0.24281
2375.99141	0.24412
2374.06284	0.24587
2372.13428	0.24758
2370.20571	0.24885
2368.27715	0.24960
2366.34858	0.25013
2364.42002	0.25124
2362.49146	0.25257
2360.56289	0.25368
2358.63433	0.25587
2356.70576	0.25909
2354.77720	0.26175
2352.84863	0.26374
2350.92007	0.26511
2348.99150	0.26579
2347.06294	0.26649
2345.13437	0.26805
2343.20581	0.27025
2341.27725	0.27219
2339.34868	0.27354
2337.42012	0.27455
2335.49155	0.27629
2333.56299	0.27839
2331.63442	0.28003
2329.70586	0.28153
2327.77729	0.28314
2325.84873	0.28470
2323.92017	0.28625
2321.99160	0.28783
2320.06304	0.28944
2318.13447	0.29115
2316.20591	0.29286
2314.27734	0.29451
2312.34878	0.29618
2310.42021	0.29787
2308.49165	0.29956
2306.56309	0.30135
2304.63452	0.30326
2302.70596	0.30513
2300.77739	0.30687
2298.84883	0.30852
2296.92026	0.31014
2294.99170	0.31191
2293.06313	0.31402
2291.13457	0.31611
2289.20601	0.31788
2287.27744	0.31949
2285.34888	0.32118
2283.42031	0.32302
2281.49175	0.32506
2279.56318	0.32730
2277.63462	0.32950
2275.70605	0.33149
2273.77749	0.33345
2271.84893	0.33562
2269.92036	0.33788
2267.99180	0.33997
2266.06323	0.34196
2264.13467	0.34395
2262.20610	0.34587
2260.27754	0.34784
2258.34897	0.34999
2256.42041	0.35217
2254.49185	0.35436
2252.56328	0.35654
2250.63472	0.35873
2248.70615	0.36101
2246.77759	0.36324
2244.84902	0.36533
2242.92046	0.36747
2240.99189	0.36979
2239.06333	0.37214
2237.13477	0.37436
2235.20620	0.37642
2233.27764	0.37857
2231.34907	0.38083
2229.42051	0.38295
2227.49194	0.38517
2225.56338	0.38756
2223.63481	0.38991
2221.70625	0.39218
2219.77769	0.39443
2217.84912	0.39652
2215.92056	0.39848
2213.99199	0.40051
2212.06343	0.40267
2210.13486	0.40478
2208.20630	0.40676
2206.27773	0.40882
2204.34917	0.41103
2202.42061	0.41321
2200.49204	0.41521
2198.56348	0.41716
2196.63491	0.41913
2194.70635	0.42109
2192.77778	0.42306
2190.84922	0.42499
2188.92065	0.42679
2186.99209	0.42851
2185.06353	0.43024
2183.13496	0.43192
2181.20640	0.43357
2179.27783	0.43532
2177.34927	0.43708
2175.42070	0.43871
2173.49214	0.44018
2171.56357	0.44153
2169.63501	0.44284
2167.70645	0.44409
2165.77788	0.44521
2163.84932	0.44621
2161.92075	0.44717
2159.99219	0.44819
2158.06362	0.44926
2156.13506	0.45033
2154.20649	0.45129
2152.27793	0.45219
2150.34937	0.45298
2148.42080	0.45352
2146.49224	0.45393
2144.56367	0.45437
2142.63511	0.45482
2140.70654	0.45524
2138.77798	0.45559
2136.84941	0.45572
2134.92085	0.45560
2132.99229	0.45540
2131.06372	0.45528
2129.13516	0.45524
2127.20659	0.45505
2125.27803	0.45466
2123.34946	0.45415
2121.42090	0.45357
2119.49233	0.45295
2117.56377	0.45231
2115.63521	0.45165
2113.70664	0.45089
2111.77808	0.45002
2109.84951	0.44906
2107.92095	0.44790
2105.99238	0.44667
2104.06382	0.44554
2102.13525	0.44426
2100.20669	0.44274
2098.27812	0.44127
2096.34956	0.43989
2094.42100	0.43846
2092.49243	0.43685
2090.56387	0.43504
2088.63530	0.43320
2086.70674	0.43148
2084.77817	0.42974
2082.84961	0.42780
2080.92104	0.42567
2078.99248	0.42359
2077.06392	0.42157
2075.13535	0.41941
2073.20679	0.41715
2071.27822	0.41491
2069.34966	0.41259
2067.42109	0.41016
2065.49253	0.40778
2063.56396	0.40550
2061.63540	0.40314
2059.70684	0.40058
2057.77827	0.39795
2055.84971	0.39542
2053.92114	0.39299
2051.99258	0.39057
2050.06401	0.38787
2048.13545	0.38494
2046.20688	0.38215
2044.27832	0.37962
2042.34976	0.37708
2040.42119	0.37440
2038.49263	0.37167
2036.56406	0.36901
2034.63550	0.36635
2032.70693	0.36352
2030.77837	0.36073
2028.84980	0.35805
2026.92124	0.35528
2024.99268	0.35240
2023.06411	0.34957
2021.13555	0.34678
2019.20698	0.34404
2017.27842	0.34130
2015.34985	0.33845
2013.42129	0.33565
2011.49272	0.33299
2009.56416	0.33038
2007.63560	0.32770
2005.70703	0.32499
2003.77847	0.32226
2001.84990	0.31959
1999.92134	0.31707
1997.99277	0.31454
1996.06421	0.31192
1994.13564	0.30946
1992.20708	0.30718
1990.27852	0.30473
1988.34995	0.30208
1986.42139	0.29947
1984.49282	0.29705
1982.56426	0.29476
1980.63569	0.29255
1978.70713	0.29038
1976.77856	0.28815
1974.85000	0.28602
1972.92144	0.28402
1970.99287	0.28201
1969.06431	0.27987
1967.13574	0.27767
1965.20718	0.27553
1963.27861	0.27357
1961.35005	0.27171
1959.42148	0.26987
1957.49292	0.26811
1955.56436	0.26638
1953.63579	0.26470
1951.70723	0.26307
1949.77866	0.26142
1947.85010	0.25982
1945.92153	0.25836
1943.99297	0.25698
1942.06440	0.25553
1940.13584	0.25398
1938.20728	0.25248
1936.27871	0.25106
1934.35015	0.24974
1932.42158	0.24859
1930.49302	0.24748
1928.56445	0.24635
1926.63589	0.24526
1924.70732	0.24433
1922.77876	0.24349
1920.85020	0.24256
1918.92163	0.24165
1916.99307	0.24087
1915.06450	0.24005
1913.13594	0.23911
1911.20737	0.23829
1909.27881	0.23765
1907.35024	0.23700
1905.42168	0.23624
1903.49312	0.23554
1901.56455	0.23504
1899.63599	0.23466
1897.70742	0.23432
1895.77886	0.23400
1893.85029	0.23367
1891.92173	0.23331
1889.99316	0.23313
1888.06460	0.23299
1886.13604	0.23275
1884.20747	0.23248
1882.27891	0.23223
1880.35034	0.23212
1878.42178	0.23214
1876.49321	0.23215
1874.56465	0.23203
1872.63608	0.23202
1870.70752	0.23223
1868.77896	0.23271
1866.85039	0.23298
1864.92183	0.23295
1862.99326	0.23305
1861.06470	0.23331
1859.13613	0.23363
1857.20757	0.23396
1855.27900	0.23447
1853.35044	0.23506
1851.42187	0.23562
1849.49331	0.23609
1847.56475	0.23669
1845.63618	0.23755
1843.70762	0.23856
1841.77905	0.23939
1839.85049	0.23989
1837.92192	0.24056
1835.99336	0.24138
1834.06479	0.24224
1832.13623	0.24317
1830.20767	0.24453
1828.27910	0.24603
1826.35054	0.24717
1824.42197	0.24851
1822.49341	0.24986
1820.56484	0.25108
1818.63628	0.25241
1816.70771	0.25409
1814.77915	0.25578
1812.85059	0.25747
1810.92202	0.25944
1808.99346	0.26162
1807.06489	0.26366
1805.13633	0.26549
1803.20776	0.26751
1801.27920	0.26991
1799.35063	0.27271
1797.42207	0.27525
1795.49351	0.27757
1793.56494	0.28023
1791.63638	0.28380
1789.70781	0.28733
1787.77925	0.28997
1785.85068	0.29306
1783.92212	0.29677
1781.99355	0.30076
1780.06499	0.30493
1778.13643	0.30919
1776.20786	0.31315
1774.27930	0.31733
1772.35073	0.32298
1770.42217	0.32934
1768.49360	0.33476
1766.56504	0.33982
1764.63647	0.34500
1762.70791	0.35084
1760.77935	0.35834
1758.85078	0.36535
1756.92222	0.37235
1754.99365	0.38008
1753.06509	0.38709
1751.13652	0.39527
1749.20796	0.40561
1747.27939	0.41606
1745.35083	0.42532
1743.42227	0.43497
1741.49370	0.44547
1739.56514	0.45793
1737.63657	0.47046
1735.70801	0.48133
1733.77944	0.49782
1731.85088	0.51773
1729.92231	0.53323
1727.99375	0.54865
1726.06519	0.56506
1724.13662	0.58296
1722.20806	0.60253
1720.27949	0.62073
1718.35093	0.64212
1716.42236	0.67406
1714.49380	0.70446
1712.56523	0.72894
1710.63667	0.75287
1708.70811	0.77871
1706.77954	0.80788
1704.85098	0.84264
1702.92241	0.87366
1700.99385	0.90439
1699.06528	0.95099
1697.13672	0.99486
1695.20815	1.04041
1693.27959	1.08474
1691.35103	1.12058
1689.42246	1.16200
1687.49390	1.20585
1685.56533	1.24854
1683.63677	1.31508
1681.70820	1.38398
1679.77964	1.42765
1677.85107	1.46945
1675.92251	1.51807
1673.99395	1.57917
1672.06538	1.63400
1670.13682	1.68763
1668.20825	1.75821
1666.27969	1.81653
1664.35112	1.86679
1662.42256	1.93203
1660.49399	2.00717
1658.56543	2.06541
1656.63687	2.11134
1654.70830	2.15278
1652.77974	2.21536
1650.85117	2.27132
1648.92261	2.28844
1646.99404	2.31056
1645.06548	2.33540
1643.13691	2.35103
1641.20835	2.35754
1639.27979	2.36319
1637.35122	2.36649
1635.42266	2.36176
1633.49409	2.34661
1631.56553	2.32793
1629.63696	2.30845
1627.70840	2.27862
1625.77983	2.24358
1623.85127	2.19855
1621.92271	2.14238
1619.99414	2.09228
1618.06558	2.04490
1616.13701	1.97836
1614.20845	1.91008
1612.27988	1.85830
1610.35132	1.80517
1608.42275	1.74742
1606.49419	1.69007
1604.56562	1.63793
1602.63706	1.58860
1600.70850	1.54057
1598.77993	1.49609
1596.85137	1.45450
1594.92280	1.41460
1592.99424	1.37635
1591.06567	1.34155
1589.13711	1.30978
1587.20854	1.28117
1585.27998	1.25512
1583.35142	1.23111
1581.42285	1.20976
1579.49429	1.19204
1577.56572	1.17683
1575.63716	1.15930
1573.70859	1.14405
1571.78003	1.13439
1569.85146	1.12596
1567.92290	1.11808
1565.99434	1.11286
1564.06577	1.10987
1562.13721	1.10850
1560.20864	1.11012
1558.28008	1.11902
1556.35151	1.12773
1554.42295	1.13204
1552.49438	1.13624
1550.56582	1.13850
1548.63726	1.13776
1546.70869	1.13381
1544.78013	1.12560
1542.85156	1.11234
1540.92300	1.09125
1538.99443	1.05930
1537.06587	1.03680
1535.13730	1.02105
1533.20874	0.99871
1531.28018	0.97443
1529.35161	0.95693
1527.42305	0.94044
1525.49448	0.92343
1523.56592	0.90955
1521.63735	0.89683
1519.70879	0.88386
1517.78022	0.87283
1515.85166	0.86002
1513.92310	0.84625
1511.99453	0.83384
1510.06597	0.82250
1508.13740	0.81144
1506.20884	0.79436
1504.28027	0.77996
1502.35171	0.77211
1500.42314	0.76513
1498.49458	0.75761
1496.56602	0.74887
1494.63745	0.74033
1492.70889	0.73377
1490.78032	0.72787
1488.85176	0.72109
1486.92319	0.71486
1484.99463	0.71007
1483.06606	0.70643
1481.13750	0.70354
1479.20894	0.70141
1477.28037	0.70037
1475.35181	0.70035
1473.42324	0.70114
1471.49468	0.70153
1469.56611	0.70049
1467.63755	0.69877
1465.70898	0.69716
1463.78042	0.69628
1461.85186	0.69624
1459.92329	0.69653
1457.99473	0.69722
1456.06616	0.69796
1454.13760	0.69667
1452.20903	0.69421
1450.28047	0.69151
1448.35190	0.68886
1446.42334	0.68632
1444.49478	0.68387
1442.56621	0.68119
1440.63765	0.67824
1438.70908	0.67527
1436.78052	0.67151
1434.85195	0.66711
1432.92339	0.66382
1430.99482	0.66170
1429.06626	0.66052
1427.13770	0.66031
1425.20913	0.66094
1423.28057	0.66219
1421.35200	0.66335
1419.42344	0.66429
1417.49487	0.66464
1415.56631	0.66389
1413.63774	0.66316
1411.70918	0.66329
1409.78062	0.66456
1407.85205	0.66654
1405.92349	0.66885
1403.99492	0.67106
1402.06636	0.67207
1400.13779	0.67169
1398.20923	0.67021
1396.28066	0.66767
1394.35210	0.66363
1392.42354	0.65858
1390.49497	0.65377
1388.56641	0.64903
1386.63784	0.64364
1384.70928	0.63800
1382.78071	0.63254
1380.85215	0.62729
1378.92358	0.62284
1376.99502	0.61952
1375.06646	0.61722
1373.13789	0.61569
1371.20933	0.61480
1369.28076	0.61424
1367.35220	0.61330
1365.42363	0.61167
1363.49507	0.60974
1361.56650	0.60790
1359.63794	0.60618
1357.70937	0.60466
1355.78081	0.60341
1353.85225	0.60226
1351.92368	0.60113
1349.99512	0.60025
1348.06655	0.59960
1346.13799	0.59881
1344.20942	0.59785
1342.28086	0.59701
1340.35229	0.59647
1338.42373	0.59609
1336.49517	0.59568
1334.56660	0.59523
1332.63804	0.59499
1330.70947	0.59525
1328.78091	0.59592
1326.85234	0.59669
1324.92378	0.59761
1322.99521	0.59873
1321.06665	0.59978
1319.13809	0.60055
1317.20952	0.60107
1315.28096	0.60132
1313.35239	0.60120
1311.42383	0.60075
1309.49526	0.60024
1307.56670	0.59975
1305.63813	0.59930
1303.70957	0.59883
1301.78101	0.59821
1299.85244	0.59734
1297.92388	0.59629
1295.99531	0.59515
1294.06675	0.59407
1292.13818	0.59308
1290.20962	0.59190
1288.28105	0.59039
1286.35249	0.58873
1284.42393	0.58709
1282.49536	0.58544
1280.56680	0.58386
1278.63823	0.58243
1276.70967	0.58101
1274.78110	0.57962
1272.85254	0.57844
1270.92397	0.57755
1268.99541	0.57684
1267.06685	0.57617
1265.13828	0.57535
1263.20972	0.57442
1261.28115	0.57337
1259.35259	0.57219
1257.42402	0.57126
1255.49546	0.57088
1253.56689	0.57082
1251.63833	0.57084
1249.70977	0.57100
1247.78120	0.57109
1245.85264	0.57086
1243.92407	0.57029
1241.99551	0.56926
1240.06694	0.56758
1238.13838	0.56536
1236.20981	0.56282
1234.28125	0.56023
1232.35269	0.55777
1230.42412	0.55533
1228.49556	0.55286
1226.56699	0.55051
1224.63843	0.54844
1222.70986	0.54658
1220.78130	0.54484
1218.85273	0.54317
1216.92417	0.54157
1214.99561	0.54013
1213.06704	0.53907
1211.13848	0.53828
1209.20991	0.53764
1207.28135	0.53712
1205.35278	0.53644
1203.42422	0.53543
1201.49565	0.53436
1199.56709	0.53339
1197.63853	0.53243
1195.70996	0.53144
1193.78140	0.53048
1191.85283	0.52965
1189.92427	0.52905
1187.99570	0.52871
1186.06714	0.52863
1184.13857	0.52877
1182.21001	0.52922
1180.28145	0.53001
1178.35288	0.53108
1176.42432	0.53242
1174.49575	0.53381
1172.56719	0.53477
1170.63862	0.53506
1168.71006	0.53485
1166.78149	0.53453
1164.85293	0.53459
1162.92437	0.53484
1160.99580	0.53469
1159.06724	0.53424
1157.13867	0.53377
1155.21011	0.53309
1153.28154	0.53207
1151.35298	0.53060
1149.42441	0.52836
1147.49585	0.52559
1145.56729	0.52287
1143.63872	0.52037
1141.71016	0.51810
1139.78159	0.51631
1137.85303	0.51503
1135.92446	0.51416
1133.99590	0.51380
1132.06733	0.51394
1130.13877	0.51419
1128.21021	0.51418
1126.28164	0.51377
1124.35308	0.51319
1122.42451	0.51282
1120.49595	0.51276
1118.56738	0.51292
1116.63882	0.51335
1114.71025	0.51402
1112.78169	0.51474
1110.85312	0.51552
1108.92456	0.51640
1106.99600	0.51738
1105.06743	0.51824
1103.13887	0.51896
1101.21030	0.51990
1099.28174	0.52128
1097.35317	0.52318
1095.42461	0.52589
1093.49604	0.52962
1091.56748	0.53448
1089.63892	0.54054
1087.71035	0.54789
1085.78179	0.55635
1083.85322	0.56496
1081.92466	0.57225
1079.99609	0.57714
1078.06753	0.57933
1076.13896	0.57905
1074.21040	0.57612
1072.28184	0.57042
1070.35327	0.56316
1068.42471	0.55567
1066.49614	0.54856
1064.56758	0.54218
1062.63901	0.53662
1060.71045	0.53175
1058.78188	0.52743
1056.85332	0.52354
1054.92476	0.52009
1052.99619	0.51714
1051.06763	0.51469
1049.13906	0.51275
1047.21050	0.51136
1045.28193	0.51068
1043.35337	0.51068
1041.42480	0.51072
1039.49624	0.51037
1037.56768	0.51002
1035.63911	0.50978
1033.71055	0.50925
1031.78198	0.50827
1029.85342	0.50690
1027.92485	0.50540
1025.99629	0.50396
1024.06772	0.50260
1022.13916	0.50156
1020.21060	0.50096
1018.28203	0.50064
1016.35347	0.50037
1014.42490	0.49995
1012.49634	0.49953
1010.56777	0.49928
1008.63921	0.49933
1006.71064	0.49981
1004.78208	0.50078
1002.85352	0.50247
1000.92495	0.50500
998.99639	0.50829
997.06782	0.51239
995.13926	0.51702
993.21069	0.52141
991.28213	0.52473
989.35356	0.52666
987.42500	0.52740
985.49644	0.52744
983.56787	0.52726
981.63931	0.52728
979.71074	0.52784
977.78218	0.52910
975.85361	0.53095
973.92505	0.53337
971.99648	0.53646
970.06792	0.53997
968.13936	0.54356
966.21079	0.54736
964.28223	0.55145
962.35366	0.55598
960.42510	0.56120
958.49653	0.56691
956.56797	0.57272
954.63940	0.57871
952.71084	0.58488
950.78228	0.59115
948.85371	0.59754
946.92515	0.60393
944.99658	0.61031
943.06802	0.61685
941.13945	0.62339
939.21089	0.62940
937.28232	0.63509
935.35376	0.64085
933.42520	0.64632
931.49663	0.65166
929.56807	0.65738
927.63950	0.66336
925.71094	0.66966
923.78237	0.67643
921.85381	0.68347
919.92524	0.69076
917.99668	0.69816
916.06812	0.70549
914.13955	0.71327
912.21099	0.72160
910.28242	0.72965
908.35386	0.73738
906.42529	0.74572
904.49673	0.75478
902.56816	0.76375
900.63960	0.77216
898.71104	0.78089
896.78247	0.79161
894.85391	0.80366
892.92534	0.81454
890.99678	0.82420
889.06821	0.83501
887.13965	0.84792
885.21108	0.86100
883.28252	0.87195
881.35396	0.88184
879.42539	0.89372
877.49683	0.90735
875.56826	0.91982
873.63970	0.93115
871.71113	0.94344
869.78257	0.95520
867.85400	0.96377
865.92544	0.97159
863.99687	0.98216
862.06831	0.99509
860.13975	1.00882
858.21118	1.02163
856.28262	1.03300
854.35405	1.04492
852.42549	1.05782
850.49692	1.07060
848.56836	1.08263
846.63979	1.09443
844.71123	1.10680
842.78267	1.11945
840.85410	1.13317
838.92554	1.14690
836.99697	1.15879
835.06841	1.16997
833.13984	1.18178
831.21128	1.19280
829.28271	1.20274
827.35415	1.21757
825.42559	1.23461
823.49702	1.24497
821.56846	1.25683
819.63989	1.27534
817.71133	1.29024
815.78276	1.30427
813.85420	1.32174
811.92563	1.32922
809.99707	1.33068
808.06851	1.34725
806.13994	1.37249
804.21138	1.39112
802.28281	1.41588
800.35425	1.44963
798.42568	1.48324
796.49712	1.50703
794.56855	1.53099
792.63999	1.57774
790.71143	1.60478
788.78286	1.56459
786.85430	1.51335
784.92573	1.50836
782.99717	1.58694
781.06860	1.75738
779.14004	1.93355
777.21147	1.83337
775.28291	1.62644
773.35435	1.49968
771.42578	1.47586
769.49722	1.55647
767.56865	1.55286
765.64009	1.43771
763.71152	1.42084
761.78296	1.60792
759.85439	1.85221
757.92583	1.66512
755.99727	1.46128
754.06870	1.31715
752.14014	1.28333
750.21157	1.20982
748.28301	1.00529
746.35444	0.87743
744.42588	0.85693
742.49731	0.88586
740.56875	0.88550
738.64019	0.79191
736.71162	0.63262
734.78306	0.47229
732.85449	0.34871
730.92593	0.27301
728.99736	0.17760
727.06880	0.03731
725.14023	-0.08936
723.21167	-0.21887
721.28311	-0.40605
719.35454	-0.42352
717.42598	-0.23736
715.49741	0.01031
713.56885	0.22766
711.64028	0.30766
709.71172	0.31808
707.78315	0.34821
705.85459	0.37665
703.92603	0.38210
701.99746	0.39055
700.06890	0.39541
698.14033	0.36962
696.21177	0.35103
694.28320	0.40761
692.35464	0.51373
690.42607	0.52948
688.49751	0.51673
686.56895	0.57500
684.64038	0.65288
682.71182	0.53796
680.78325	0.36808
678.85469	0.29257
676.92612	0.32883
674.99756	0.40539
673.06899	0.40797
671.14043	0.37721
669.21187	0.40783
667.28330	0.42347
665.35474	0.33999
663.42617	0.31876
661.49761	0.38322
659.56904	0.40669
657.64048	0.37573
655.71191	0.36620
653.78335	0.37956
651.85479	0.37798
649.92622	0.38668
647.99766	0.40976
646.06909	0.38734
644.14053	0.34460
642.21196	0.34575
640.28340	0.38276
638.35483	0.39988
636.42627	0.36276
634.49771	0.31924
632.56914	0.33221
630.64058	0.37073
628.71201	0.37048
626.78345	0.36812
624.85488	0.42848
622.92632	0.51286
620.99775	0.46273
619.06919	0.32841
617.14062	0.29838
615.21206	0.35684
613.28350	0.38424
611.35493	0.33789
609.42637	0.29041
607.49780	0.29610
605.56924	0.35525
603.64067	0.40168
601.71211	0.36629
599.78354	0.29963
597.85498	0.26598
595.92642	0.26512
593.99785	0.28129
592.06929	0.31721
590.14072	0.34171
588.21216	0.36556
586.28359	0.43199
584.35503	0.45341
582.42646	0.39234
580.49790	0.39226
578.56934	0.44162
576.64077	0.40877
574.71221	0.34614
572.78364	0.36910
570.85508	0.45243
568.92651	0.45376
566.99795	0.37613
565.06938	0.32199
563.14082	0.29114
561.21226	0.27367
559.28369	0.30093
557.35513	0.37019
555.42656	0.38691
553.49800	0.32286
551.56943	0.24663
549.64087	0.18831
547.71230	0.17882
545.78374	0.20723
543.85518	0.22259
541.92661	0.21267
539.99805	0.20043
538.06948	0.21857
536.14092	0.27094
534.21235	0.29661
532.28379	0.28885
530.35522	0.30720
528.42666	0.35862
526.49810	0.40352
524.56953	0.34413
522.64097	0.24955
520.71240	0.22498
518.78384	0.23891
516.85527	0.23125
514.92671	0.19577
512.99814	0.19948
511.06958	0.26869
509.14102	0.31538
507.21245	0.30527
505.28389	0.29748
503.35532	0.29594
501.42676	0.29425
499.49819	0.28844
