3997.91411	0.05986
3995.98555	0.06020
3994.05698	0.06085
3992.12842	0.06171
3990.19985	0.06239
3988.27129	0.06270
3986.34272	0.06277
3984.41416	0.06261
3982.48560	0.06246
3980.55703	0.06275
3978.62847	0.06317
3976.69990	0.06299
3974.77134	0.06259
3972.84277	0.06297
3970.91421	0.06393
3968.98564	0.06464
3967.05708	0.06489
3965.12852	0.06482
3963.19995	0.06475
3961.27139	0.06465
3959.34282	0.06431
3957.41426	0.06400
3955.48569	0.06414
3953.55713	0.06441
3951.62856	0.06447
3949.70000	0.06475
3947.77144	0.06522
3945.84287	0.06540
3943.91431	0.06535
3941.98574	0.06520
3940.05718	0.06486
3938.12861	0.06454
3936.20005	0.06437
3934.27148	0.06428
3932.34292	0.06438
3930.41436	0.06467
3928.48579	0.06475
3926.55723	0.06457
3924.62866	0.06485
3922.70010	0.06535
3920.77153	0.06507
3918.84297	0.06439
3916.91440	0.06417
3914.98584	0.06432
3913.05728	0.06433
3911.12871	0.06407
3909.20015	0.06367
3907.27158	0.06338
3905.34302	0.06333
3903.41445	0.06365
3901.48589	0.06399
3899.55732	0.06401
3897.62876	0.06376
3895.70020	0.06351
3893.77163	0.06364
3891.84307	0.06401
3889.91450	0.06426
3887.98594	0.06415
3886.05737	0.06423
3884.12881	0.06488
3882.20024	0.06537
3880.27168	0.06580
3878.34312	0.06630
3876.41455	0.06625
3874.48599	0.06601
3872.55742	0.06587
3870.62886	0.06569
3868.70029	0.06593
3866.77173	0.06649
3864.84316	0.06675
3862.91460	0.06676
3860.98604	0.06666
3859.05747	0.06659
3857.12891	0.06682
3855.20034	0.06735
3853.27178	0.06823
3851.34321	0.06954
3849.41465	0.07026
3847.48608	0.07038
3845.55752	0.07029
3843.62896	0.07043
3841.70039	0.07134
3839.77183	0.07294
3837.84326	0.07455
3835.91470	0.07544
3833.98613	0.07549
3832.05757	0.07530
3830.12900	0.07543
3828.20044	0.07571
3826.27187	0.07614
3824.34331	0.07689
3822.41475	0.07798
3820.48618	0.07993
3818.55762	0.08147
3816.62905	0.08154
3814.70049	0.08148
3812.77192	0.08184
3810.84336	0.08270
3808.91479	0.08403
3806.98623	0.08563
3805.05767	0.08694
3803.12910	0.08778
3801.20054	0.08939
3799.27197	0.09138
3797.34341	0.09181
3795.41484	0.09202
3793.48628	0.09287
3791.55771	0.09368
3789.62915	0.09464
3787.70059	0.09601
3785.77202	0.09749
3783.84346	0.09900
3781.91489	0.10069
3779.98633	0.10265
3778.05776	0.10439
3776.12920	0.10524
3774.20063	0.10612
3772.27207	0.10791
3770.34351	0.11023
3768.41494	0.11228
3766.48638	0.11405
3764.55781	0.11631
3762.62925	0.11863
3760.70068	0.12067
3758.77212	0.12274
3756.84355	0.12462
3754.91499	0.12638
3752.98643	0.12885
3751.05786	0.13305
3749.12930	0.13827
3747.20073	0.14059
3745.27217	0.14155
3743.34360	0.14487
3741.41504	0.14869
3739.48647	0.15113
3737.55791	0.15391
3735.62935	0.15800
3733.70078	0.16353
3731.77222	0.16892
3729.84365	0.17341
3727.91509	0.17792
3725.98652	0.18373
3724.05796	0.19064
3722.12939	0.19725
3720.20083	0.20363
3718.27227	0.21033
3716.34370	0.21746
3714.41514	0.22474
3712.48657	0.23348
3710.55801	0.24614
3708.62944	0.25989
3706.70088	0.27119
3704.77231	0.28212
3702.84375	0.29503
3700.91519	0.31180
3698.98662	0.32994
3697.05806	0.34689
3695.12949	0.36504
3693.20093	0.38436
3691.27236	0.40484
3689.34380	0.43116
3687.41523	0.46462
3685.48667	0.49511
3683.55811	0.52163
3681.62954	0.54994
3679.70098	0.58154
3677.77241	0.61402
3675.84385	0.65172
3673.91528	0.70320
3671.98672	0.74574
3670.05815	0.78291
3668.12959	0.83498
3666.20103	0.88417
3664.27246	0.92506
3662.34390	0.96766
3660.41533	1.01347
3658.48677	1.05910
3656.55820	1.10773
3654.62964	1.16186
3652.70107	1.20662
3650.77251	1.24420
3648.84395	1.29687
3646.91538	1.36516
3644.98682	1.41735
3643.05825	1.45701
3641.12969	1.49645
3639.20112	1.53970
3637.27256	1.58371
3635.34399	1.62661
3633.41543	1.66897
3631.48687	1.70815
3629.55830	1.74752
3627.62974	1.80029
3625.70117	1.85196
3623.77261	1.88719
3621.84404	1.91926
3619.91548	1.95506
3617.98691	1.99891
3616.05835	2.04179
3614.12979	2.07761
3612.20122	2.11644
3610.27266	2.15707
3608.34409	2.19705
3606.41553	2.23846
3604.48696	2.27748
3602.55840	2.31247
3600.62983	2.34959
3598.70127	2.38996
3596.77271	2.43000
3594.84414	2.47044
3592.91558	2.51128
3590.98701	2.55005
3589.05845	2.58745
3587.12988	2.63196
3585.20132	2.68006
3583.27275	2.72053
3581.34419	2.75856
3579.41562	2.80029
3577.48706	2.84393
3575.55850	2.88576
3573.62993	2.92738
3571.70137	2.96860
3569.77280	3.00863
3567.84424	3.05096
3565.91567	3.10270
3563.98711	3.15328
3562.05854	3.19429
3560.12998	3.23513
3558.20142	3.27879
3556.27285	3.32415
3554.34429	3.36899
3552.41572	3.41500
3550.48716	3.46337
3548.55859	3.50946
3546.63003	3.55352
3544.70146	3.60213
3542.77290	3.65335
3540.84434	3.70007
3538.91577	3.74340
3536.98721	3.78827
3535.05864	3.83690
3533.13008	3.88515
3531.20151	3.93239
3529.27295	3.98058
3527.34438	4.02927
3525.41582	4.07606
3523.48726	4.12310
3521.55869	4.17365
3519.63013	4.22182
3517.70156	4.26591
3515.77300	4.31216
3513.84443	4.36319
3511.91587	4.41409
3509.98730	4.46412
3508.05874	4.51523
3506.13018	4.56365
3504.20161	4.60852
3502.27305	4.65567
3500.34448	4.70492
3498.41592	4.74927
3496.48735	4.79595
3494.55879	4.84926
3492.63022	4.89675
3490.70166	4.93927
3488.77310	4.98639
3486.84453	5.03486
3484.91597	5.08079
3482.98740	5.12601
3481.05884	5.17492
3479.13027	5.22576
3477.20171	5.27483
3475.27314	5.32908
3473.34458	5.38455
3471.41602	5.43144
3469.48745	5.47617
3467.55889	5.52163
3465.63032	5.56466
3463.70176	5.60877
3461.77319	5.65319
3459.84463	5.69582
3457.91606	5.74624
3455.98750	5.81335
3454.05894	5.87744
3452.13037	5.92090
3450.20181	5.96121
3448.27324	6.01139
3446.34468	6.06600
3444.41611	6.11551
3442.48755	6.16327
3440.55898	6.21816
3438.63042	6.27413
3436.70186	6.31576
3434.77329	6.35186
3432.84473	6.39250
3430.91616	6.43948
3428.98760	6.50958
3427.05903	6.58139
3425.13047	6.62694
3423.20190	6.66285
3421.27334	6.71819
3419.34478	6.78898
3417.41621	6.84719
3415.48765	6.87494
3413.55908	6.88114
3411.63052	6.89840
3409.70195	6.92883
3407.77339	6.97557
3405.84482	7.03050
3403.91626	7.06394
3401.98770	7.07236
3400.05913	7.07644
3398.13057	7.09606
3396.20200	7.14378
3394.27344	7.21930
3392.34487	7.29159
3390.41631	7.34854
3388.48774	7.39843
3386.55918	7.46017
3384.63062	7.51594
3382.70205	7.54319
3380.77349	7.56857
3378.84492	7.58373
3376.91636	7.57509
3374.98779	7.58963
3373.05923	7.64829
3371.13066	7.66877
3369.20210	7.66574
3367.27354	7.71884
3365.34497	7.79460
3363.41641	7.83921
3361.48784	7.84359
3359.55928	7.80329
3357.63071	7.75295
3355.70215	7.76656
3353.77358	7.85853
3351.84502	7.97641
3349.91646	7.99924
3347.98789	7.90781
3346.05933	7.82930
3344.13076	7.83881
3342.20220	7.89871
3340.27363	7.94599
3338.34507	7.97547
3336.41650	7.95813
3334.48794	7.90973
3332.55937	7.87789
3330.63081	7.89645
3328.70225	7.95868
3326.77368	8.01269
3324.84512	8.03726
3322.91655	8.06269
3320.98799	8.13651
3319.05942	8.18813
3317.13086	8.12386
3315.20229	8.02561
3313.27373	8.04288
3311.34517	8.14119
3309.41660	8.18316
3307.48804	8.16568
3305.55947	8.11836
3303.63091	8.08567
3301.70234	8.09553
3299.77378	8.04955
3297.84521	7.94690
3295.91665	8.00921
3293.98809	8.24615
3292.05952	8.37693
3290.13096	8.31982
3288.20239	8.22234
3286.27383	8.15360
3284.34526	8.14879
3282.41670	8.20522
3280.48813	8.21395
3278.55957	8.14316
3276.63101	8.04943
3274.70244	7.98964
3272.77388	7.99891
3270.84531	8.04075
3268.91675	8.06656
3266.98818	8.04994
3265.05962	8.03736
3263.13105	8.05618
3261.20249	8.05846
3259.27393	8.03675
3257.34536	8.04795
3255.41680	8.12922
3253.48823	8.22703
3251.55967	8.24282
3249.63110	8.19705
3247.70254	8.18736
3245.77397	8.18841
3243.84541	8.10408
3241.91685	7.98919
3239.98828	7.95880
3238.05972	8.00884
3236.13115	8.10163
3234.20259	8.19342
3232.27402	8.23385
3230.34546	8.20315
3228.41689	8.10022
3226.48833	8.00944
3224.55977	7.98084
3222.63120	7.98159
3220.70264	7.97110
3218.77407	7.92830
3216.84551	7.89701
3214.91694	7.90367
3212.98838	7.91468
3211.05981	7.94144
3209.13125	7.96870
3207.20269	7.89530
3205.27412	7.73557
3203.34556	7.63821
3201.41699	7.64931
3199.48843	7.66528
3197.55986	7.65551
3195.63130	7.64274
3193.70273	7.58244
3191.77417	7.48984
3189.84561	7.42059
3187.91704	7.41243
3185.98848	7.45464
3184.05991	7.47262
3182.13135	7.42220
3180.20278	7.34363
3178.27422	7.27250
3176.34565	7.21089
3174.41709	7.16451
3172.48853	7.11854
3170.55996	7.05757
3168.63140	6.99806
3166.70283	6.93556
3164.77427	6.84602
3162.84570	6.73904
3160.91714	6.65472
3158.98857	6.61426
3157.06001	6.58357
3155.13145	6.53376
3153.20288	6.47180
3151.27432	6.39058
3149.34575	6.30637
3147.41719	6.24961
3145.48862	6.19815
3143.56006	6.12813
3141.63149	6.05588
3139.70293	5.99157
3137.77437	5.92761
3135.84580	5.85730
3133.91724	5.78616
3131.98867	5.71902
3130.06011	5.65326
3128.13154	5.58601
3126.20298	5.51753
3124.27441	5.45296
3122.34585	5.38410
3120.41729	5.30352
3118.48872	5.22171
3116.56016	5.14667
3114.63159	5.07866
3112.70303	5.01380
3110.77446	4.94610
3108.84590	4.87372
3106.91733	4.80027
3104.98877	4.73001
3103.06021	4.66468
3101.13164	4.60197
3099.20308	4.53992
3097.27451	4.47737
3095.34595	4.41041
3093.41738	4.34150
3091.48882	4.27717
3089.56025	4.21504
3087.63169	4.15067
3085.70312	4.08656
3083.77456	4.02454
3081.84600	3.96136
3079.91743	3.89662
3077.98887	3.83418
3076.06030	3.77481
3074.13174	3.71554
3072.20317	3.65589
3070.27461	3.59905
3068.34604	3.54434
3066.41748	3.48830
3064.48892	3.43124
3062.56035	3.37470
3060.63179	3.31965
3058.70322	3.26592
3056.77466	3.21263
3054.84609	3.15981
3052.91753	3.10678
3050.98896	3.05360
3049.06040	3.00227
3047.13184	2.95282
3045.20327	2.90283
3043.27471	2.85253
3041.34614	2.80328
3039.41758	2.75449
3037.48901	2.70647
3035.56045	2.65969
3033.63188	2.61330
3031.70332	2.56767
3029.77476	2.52347
3027.84619	2.48012
3025.91763	2.43717
3023.98906	2.39499
3022.06050	2.35422
3020.13193	2.31420
3018.20337	2.27417
3016.27480	2.23447
3014.34624	2.19478
3012.41768	2.15463
3010.48911	2.11493
3008.56055	2.07724
3006.63198	2.04139
3004.70342	2.00592
3002.77485	1.97059
3000.84629	1.93577
2998.91772	1.90137
2996.98916	1.86765
2995.06060	1.83494
2993.13203	1.80329
2991.20347	1.77278
2989.27490	1.74299
2987.34634	1.71353
2985.41777	1.68456
2983.48921	1.65597
2981.56064	1.62771
2979.63208	1.59979
2977.70352	1.57210
2975.77495	1.54511
2973.84639	1.51913
2971.91782	1.49386
2969.98926	1.46910
2968.06069	1.44468
2966.13213	1.42052
2964.20356	1.39659
2962.27500	1.37279
2960.34644	1.34926
2958.41787	1.32588
2956.48931	1.30216
2954.56074	1.27818
2952.63218	1.25452
2950.70361	1.23160
2948.77505	1.20943
2946.84648	1.18762
2944.91792	1.16585
2942.98936	1.14455
2941.06079	1.12409
2939.13223	1.10391
2937.20366	1.08354
2935.27510	1.06361
2933.34653	1.04457
2931.41797	1.02591
2929.48940	1.00734
2927.56084	0.98896
2925.63228	0.97077
2923.70371	0.95298
2921.77515	0.93538
2919.84658	0.91776
2917.91802	0.90024
2915.98945	0.88314
2914.06089	0.86661
2912.13232	0.85076
2910.20376	0.83542
2908.27520	0.82020
2906.34663	0.80507
2904.41807	0.79023
2902.48950	0.77594
2900.56094	0.76213
2898.63237	0.74878
2896.70381	0.73602
2894.77524	0.72343
2892.84668	0.71084
2890.91812	0.69856
2888.98955	0.68675
2887.06099	0.67559
2885.13242	0.66508
2883.20386	0.65482
2881.27529	0.64468
2879.34673	0.63501
2877.41816	0.62564
2875.48960	0.61596
2873.56104	0.60580
2871.63247	0.59536
2869.70391	0.58466
2867.77534	0.57378
2865.84678	0.56288
2863.91821	0.55199
2861.98965	0.54137
2860.06108	0.53128
2858.13252	0.52163
2856.20396	0.51231
2854.27539	0.50345
2852.34683	0.49509
2850.41826	0.48676
2848.48970	0.47826
2846.56113	0.47004
2844.63257	0.46243
2842.70400	0.45528
2840.77544	0.44853
2838.84687	0.44238
2836.91831	0.43644
2834.98975	0.43033
2833.06118	0.42422
2831.13262	0.41828
2829.20405	0.41239
2827.27549	0.40645
2825.34692	0.40055
2823.41836	0.39478
2821.48979	0.38910
2819.56123	0.38340
2817.63267	0.37759
2815.70410	0.37180
2813.77554	0.36622
2811.84697	0.36093
2809.91841	0.35585
2807.98984	0.35075
2806.06128	0.34560
2804.13271	0.34048
2802.20415	0.33551
2800.27559	0.33069
2798.34702	0.32594
2796.41846	0.32128
2794.48989	0.31675
2792.56133	0.31238
2790.63276	0.30809
2788.70420	0.30371
2786.77563	0.29933
2784.84707	0.29522
2782.91851	0.29132
2780.98994	0.28736
2779.06138	0.28330
2777.13281	0.27940
2775.20425	0.27577
2773.27568	0.27219
2771.34712	0.26854
2769.41855	0.26498
2767.48999	0.26155
2765.56143	0.25815
2763.63286	0.25484
2761.70430	0.25171
2759.77573	0.24864
2757.84717	0.24548
2755.91860	0.24223
2753.99004	0.23900
2752.06147	0.23598
2750.13291	0.23324
2748.20435	0.23066
2746.27578	0.22809
2744.34722	0.22544
2742.41865	0.22263
2740.49009	0.21979
2738.56152	0.21712
2736.63296	0.21465
2734.70439	0.21226
2732.77583	0.20995
2730.84727	0.20774
2728.91870	0.20571
2726.99014	0.20384
2725.06157	0.20182
2723.13301	0.19961
2721.20444	0.19745
2719.27588	0.19533
2717.34731	0.19334
2715.41875	0.19152
2713.49019	0.18965
2711.56162	0.18776
2709.63306	0.18607
2707.70449	0.18454
2705.77593	0.18309
2703.84736	0.18164
2701.91880	0.18005
2699.99023	0.17849
2698.06167	0.17718
2696.13311	0.17599
2694.20454	0.17468
2692.27598	0.17338
2690.34741	0.17217
2688.41885	0.17093
2686.49028	0.16965
2684.56172	0.16843
2682.63315	0.16724
2680.70459	0.16600
2678.77603	0.16472
2676.84746	0.16355
2674.91890	0.16262
2672.99033	0.16182
2671.06177	0.16100
2669.13320	0.16008
2667.20464	0.15907
2665.27607	0.15824
2663.34751	0.15771
2661.41895	0.15714
2659.49038	0.15629
2657.56182	0.15536
2655.63325	0.15453
2653.70469	0.15387
2651.77612	0.15334
2649.84756	0.15286
2647.91899	0.15229
2645.99043	0.15166
2644.06187	0.15105
2642.13330	0.15045
2640.20474	0.14992
2638.27617	0.14944
2636.34761	0.14903
2634.41904	0.14866
2632.49048	0.14827
2630.56191	0.14784
2628.63335	0.14739
2626.70479	0.14704
2624.77622	0.14680
2622.84766	0.14664
2620.91909	0.14654
2618.99053	0.14641
2617.06196	0.14625
2615.13340	0.14611
2613.20483	0.14585
2611.27627	0.14555
2609.34771	0.14540
2607.41914	0.14542
2605.49058	0.14541
2603.56201	0.14526
2601.63345	0.14516
2599.70488	0.14523
2597.77632	0.14548
2595.84775	0.14585
2593.91919	0.14607
2591.99062	0.14602
2590.06206	0.14585
2588.13350	0.14590
2586.20493	0.14625
2584.27637	0.14656
2582.34780	0.14677
2580.41924	0.14710
2578.49067	0.14752
2576.56211	0.14781
2574.63354	0.14803
2572.70498	0.14830
2570.77642	0.14852
2568.84785	0.14875
2566.91929	0.14907
2564.99072	0.14947
2563.06216	0.15002
2561.13359	0.15071
2559.20503	0.15134
2557.27646	0.15169
2555.34790	0.15186
2553.41934	0.15219
2551.49077	0.15284
2549.56221	0.15359
2547.63364	0.15422
2545.70508	0.15470
2543.77651	0.15516
2541.84795	0.15578
2539.91938	0.15651
2537.99082	0.15724
2536.06226	0.15790
2534.13369	0.15844
2532.20513	0.15900
2530.27656	0.15974
2528.34800	0.16053
2526.41943	0.16116
2524.49087	0.16164
2522.56230	0.16223
2520.63374	0.16302
2518.70518	0.16383
2516.77661	0.16468
2514.84805	0.16564
2512.91948	0.16661
2510.99092	0.16749
2509.06235	0.16817
2507.13379	0.16878
2505.20522	0.16954
2503.27666	0.17034
2501.34810	0.17120
2499.41953	0.17213
2497.49097	0.17290
2495.56240	0.17362
2493.63384	0.17449
2491.70527	0.17536
2489.77671	0.17621
2487.84814	0.17711
2485.91958	0.17807
2483.99102	0.17906
2482.06245	0.17996
2480.13389	0.18072
2478.20532	0.18151
2476.27676	0.18238
2474.34819	0.18328
2472.41963	0.18425
2470.49106	0.18537
2468.56250	0.18645
2466.63394	0.18731
2464.70537	0.18813
2462.77681	0.18902
2460.84824	0.18985
2458.91968	0.19067
2456.99111	0.19166
2455.06255	0.19270
2453.13398	0.19355
2451.20542	0.19438
2449.27686	0.19541
2447.34829	0.19650
2445.41973	0.19759
2443.49116	0.19869
2441.56260	0.19971
2439.63403	0.20066
2437.70547	0.20159
2435.77690	0.20255
2433.84834	0.20357
2431.91978	0.20472
2429.99121	0.20589
2428.06265	0.20699
2426.13408	0.20813
2424.20552	0.20935
2422.27695	0.21049
2420.34839	0.21138
2418.41982	0.21223
2416.49126	0.21335
2414.56270	0.21463
2412.63413	0.21581
2410.70557	0.21692
2408.77700	0.21804
2406.84844	0.21912
2404.91987	0.22037
2402.99131	0.22181
2401.06274	0.22310
2399.13418	0.22418
2397.20562	0.22534
2395.27705	0.22667
2393.34849	0.22800
2391.41992	0.22927
2389.49136	0.23048
2387.56279	0.23175
2385.63423	0.23324
2383.70566	0.23509
2381.77710	0.23722
2379.84854	0.23934
2377.91997	0.24140
2375.99141	0.24378
2374.06284	0.24658
2372.13428	0.24950
2370.20571	0.25252
2368.27715	0.25556
2366.34858	0.25842
2364.42002	0.26115
2362.49146	0.26381
2360.56289	0.26614
2358.63433	0.26716
2356.70576	0.26713
2354.77720	0.26727
2352.84863	0.26783
2350.92007	0.26833
2348.99150	0.26882
2347.06294	0.27005
2345.13437	0.27301
2343.20581	0.27722
2341.27725	0.27993
2339.34868	0.28060
2337.42012	0.28117
2335.49155	0.28261
2333.56299	0.28409
2331.63442	0.28545
2329.70586	0.28719
2327.77729	0.28878
2325.84873	0.28947
2323.92017	0.28984
2321.99160	0.29065
2320.06304	0.29174
2318.13447	0.29288
2316.20591	0.29413
2314.27734	0.29550
2312.34878	0.29697
2310.42021	0.29840
2308.49165	0.29972
2306.56309	0.30093
2304.63452	0.30202
2302.70596	0.30326
2300.77739	0.30472
2298.84883	0.30621
2296.92026	0.30783
2294.99170	0.30953
2293.06313	0.31118
2291.13457	0.31289
2289.20601	0.31471
2287.27744	0.31651
2285.34888	0.31821
2283.42031	0.31985
2281.49175	0.32162
2279.56318	0.32365
2277.63462	0.32575
2275.70605	0.32775
2273.77749	0.32973
2271.84893	0.33186
2269.92036	0.33407
2267.99180	0.33618
2266.06323	0.33818
2264.13467	0.34021
2262.20610	0.34234
2260.27754	0.34449
2258.34897	0.34657
2256.42041	0.34868
2254.49185	0.35089
2252.56328	0.35312
2250.63472	0.35524
2248.70615	0.35727
2246.77759	0.35936
2244.84902	0.36160
2242.92046	0.36396
2240.99189	0.36626
2239.06333	0.36843
2237.13477	0.37065
2235.20620	0.37287
2233.27764	0.37503
2231.34907	0.37727
2229.42051	0.37950
2227.49194	0.38159
2225.56338	0.38359
2223.63481	0.38566
2221.70625	0.38787
2219.77769	0.39017
2217.84912	0.39236
2215.92056	0.39439
2213.99199	0.39651
2212.06343	0.39881
2210.13486	0.40105
2208.20630	0.40320
2206.27773	0.40543
2204.34917	0.40764
2202.42061	0.40965
2200.49204	0.41157
2198.56348	0.41353
2196.63491	0.41545
2194.70635	0.41735
2192.77778	0.41931
2190.84922	0.42130
2188.92065	0.42314
2186.99209	0.42487
2185.06353	0.42664
2183.13496	0.42844
2181.20640	0.43032
2179.27783	0.43211
2177.34927	0.43363
2175.42070	0.43511
2173.49214	0.43670
2171.56357	0.43815
2169.63501	0.43943
2167.70645	0.44076
2165.77788	0.44204
2163.84932	0.44320
2161.92075	0.44434
2159.99219	0.44542
2158.06362	0.44638
2156.13506	0.44727
2154.20649	0.44812
2152.27793	0.44890
2150.34937	0.44952
2148.42080	0.45008
2146.49224	0.45066
2144.56367	0.45111
2142.63511	0.45146
2140.70654	0.45182
2138.77798	0.45216
2136.84941	0.45237
2134.92085	0.45250
2132.99229	0.45239
2131.06372	0.45205
2129.13516	0.45183
2127.20659	0.45173
2125.27803	0.45153
2123.34946	0.45112
2121.42090	0.45051
2119.49233	0.44983
2117.56377	0.44917
2115.63521	0.44853
2113.70664	0.44788
2111.77808	0.44713
2109.84951	0.44619
2107.92095	0.44512
2105.99238	0.44394
2104.06382	0.44267
2102.13525	0.44139
2100.20669	0.44006
2098.27812	0.43854
2096.34956	0.43688
2094.42100	0.43521
2092.49243	0.43358
2090.56387	0.43190
2088.63530	0.43009
2086.70674	0.42832
2084.77817	0.42655
2082.84961	0.42469
2080.92104	0.42263
2078.99248	0.42042
2077.06392	0.41831
2075.13535	0.41634
2073.20679	0.41421
2071.27822	0.41186
2069.34966	0.40945
2067.42109	0.40706
2065.49253	0.40464
2063.56396	0.40217
2061.63540	0.39980
2059.70684	0.39742
2057.77827	0.39484
2055.84971	0.39223
2053.92114	0.38977
2051.99258	0.38729
2050.06401	0.38465
2048.13545	0.38195
2046.20688	0.37925
2044.27832	0.37654
2042.34976	0.37388
2040.42119	0.37123
2038.49263	0.36853
2036.56406	0.36585
2034.63550	0.36320
2032.70693	0.36042
2030.77837	0.35756
2028.84980	0.35471
2026.92124	0.35184
2024.99268	0.34896
2023.06411	0.34629
2021.13555	0.34374
2019.20698	0.34107
2017.27842	0.33832
2015.34985	0.33558
2013.42129	0.33287
2011.49272	0.33020
2009.56416	0.32747
2007.63560	0.32458
2005.70703	0.32174
2003.77847	0.31916
2001.84990	0.31671
1999.92134	0.31412
1997.99277	0.31139
1996.06421	0.30873
1994.13564	0.30625
1992.20708	0.30390
1990.27852	0.30150
1988.34995	0.29905
1986.42139	0.29661
1984.49282	0.29419
1982.56426	0.29181
1980.63569	0.28961
1978.70713	0.28747
1976.77856	0.28520
1974.85000	0.28292
1972.92144	0.28073
1970.99287	0.27863
1969.06431	0.27665
1967.13574	0.27477
1965.20718	0.27279
1963.27861	0.27067
1961.35005	0.26859
1959.42148	0.26669
1957.49292	0.26493
1955.56436	0.26314
1953.63579	0.26138
1951.70723	0.25969
1949.77866	0.25802
1947.85010	0.25638
1945.92153	0.25487
1943.99297	0.25342
1942.06440	0.25197
1940.13584	0.25050
1938.20728	0.24907
1936.27871	0.24769
1934.35015	0.24646
1932.42158	0.24545
1930.49302	0.24433
1928.56445	0.24305
1926.63589	0.24188
1924.70732	0.24091
1922.77876	0.23992
1920.85020	0.23889
1918.92163	0.23809
1916.99307	0.23741
1915.06450	0.23660
1913.13594	0.23577
1911.20737	0.23513
1909.27881	0.23443
1907.35024	0.23359
1905.42168	0.23288
1903.49312	0.23233
1901.56455	0.23186
1899.63599	0.23143
1897.70742	0.23104
1895.77886	0.23064
1893.85029	0.23030
1891.92173	0.22995
1889.99316	0.22973
1888.06460	0.22956
1886.13604	0.22926
1884.20747	0.22904
1882.27891	0.22895
1880.35034	0.22882
1878.42178	0.22868
1876.49321	0.22862
1874.56465	0.22854
1872.63608	0.22858
1870.70752	0.22883
1868.77896	0.22933
1866.85039	0.22969
1864.92183	0.22972
1862.99326	0.22977
1861.06470	0.23000
1859.13613	0.23040
1857.20757	0.23077
1855.27900	0.23119
1853.35044	0.23167
1851.42187	0.23224
1849.49331	0.23285
1847.56475	0.23349
1845.63618	0.23425
1843.70762	0.23526
1841.77905	0.23617
1839.85049	0.23672
1837.92192	0.23745
1835.99336	0.23826
1834.06479	0.23907
1832.13623	0.23999
1830.20767	0.24138
1828.27910	0.24296
1826.35054	0.24416
1824.42197	0.24540
1822.49341	0.24664
1820.56484	0.24791
1818.63628	0.24935
1816.70771	0.25102
1814.77915	0.25268
1812.85059	0.25438
1810.92202	0.25631
1808.99346	0.25834
1807.06489	0.26038
1805.13633	0.26239
1803.20776	0.26457
1801.27920	0.26701
1799.35063	0.26989
1797.42207	0.27254
1795.49351	0.27492
1793.56494	0.27764
1791.63638	0.28122
1789.70781	0.28475
1787.77925	0.28743
1785.85068	0.29053
1783.92212	0.29415
1781.99355	0.29805
1780.06499	0.30228
1778.13643	0.30666
1776.20786	0.31059
1774.27930	0.31464
1772.35073	0.32034
1770.42217	0.32682
1768.49360	0.33227
1766.56504	0.33743
1764.63647	0.34278
1762.70791	0.34860
1760.77935	0.35598
1758.85078	0.36307
1756.92222	0.37027
1754.99365	0.37813
1753.06509	0.38512
1751.13652	0.39316
1749.20796	0.40350
1747.27939	0.41420
1745.35083	0.42359
1743.42227	0.43324
1741.49370	0.44382
1739.56514	0.45628
1737.63657	0.46878
1735.70801	0.47971
1733.77944	0.49607
1731.85088	0.51595
1729.92231	0.53164
1727.99375	0.54732
1726.06519	0.56418
1724.13662	0.58256
1722.20806	0.60229
1720.27949	0.62024
1718.35093	0.64108
1716.42236	0.67276
1714.49380	0.70377
1712.56523	0.72881
1710.63667	0.75281
1708.70811	0.77860
1706.77954	0.80790
1704.85098	0.84299
1702.92241	0.87431
1700.99385	0.90527
1699.06528	0.95185
1697.13672	0.99481
1695.20815	1.03901
1693.27959	1.08239
1691.35103	1.11740
1689.42246	1.15749
1687.49390	1.19964
1685.56533	1.24018
1683.63677	1.30367
1681.70820	1.37081
1679.77964	1.41373
1677.85107	1.45404
1675.92251	1.50011
1673.99395	1.55716
1672.06538	1.60811
1670.13682	1.65754
1668.20825	1.72202
1666.27969	1.77653
1664.35112	1.82445
1662.42256	1.88410
1660.49399	1.94960
1658.56543	1.99976
1656.63687	2.03991
1654.70830	2.07511
1652.77974	2.12933
1650.85117	2.18493
1648.92261	2.20578
1646.99404	2.22940
1645.06548	2.25704
1643.13691	2.27711
1641.20835	2.28842
1639.27979	2.29682
1637.35122	2.30032
1635.42266	2.29783
1633.49409	2.28943
1631.56553	2.27541
1629.63696	2.25722
1627.70840	2.22699
1625.77983	2.19236
1623.85127	2.15014
1621.92271	2.09817
1619.99414	2.05190
1618.06558	2.00731
1616.13701	1.94436
1614.20845	1.88029
1612.27988	1.83147
1610.35132	1.78063
1608.42275	1.72541
1606.49419	1.67124
1604.56562	1.62177
1602.63706	1.57411
1600.70850	1.52748
1598.77993	1.48432
1596.85137	1.44366
1594.92280	1.40449
1592.99424	1.36686
1591.06567	1.33230
1589.13711	1.30006
1587.20854	1.27045
1585.27998	1.24313
1583.35142	1.21742
1581.42285	1.19429
1579.49429	1.17481
1577.56572	1.15683
1575.63716	1.13492
1573.70859	1.11665
1571.78003	1.10515
1569.85146	1.09293
1567.92290	1.07979
1565.99434	1.07077
1564.06577	1.06415
1562.13721	1.05881
1560.20864	1.05533
1558.28008	1.05384
1556.35151	1.05436
1554.42295	1.05427
1552.49438	1.05366
1550.56582	1.05148
1548.63726	1.04686
1546.70869	1.04014
1544.78013	1.03095
1542.85156	1.01906
1540.92300	1.00182
1538.99443	0.97560
1537.06587	0.95714
1535.13730	0.94442
1533.20874	0.92668
1531.28018	0.90747
1529.35161	0.89383
1527.42305	0.88120
1525.49448	0.86794
1523.56592	0.85651
1521.63735	0.84562
1519.70879	0.83477
1517.78022	0.82559
1515.85166	0.81474
1513.92310	0.80330
1511.99453	0.79338
1510.06597	0.78447
1508.13740	0.77560
1506.20884	0.76184
1504.28027	0.75073
1502.35171	0.74472
1500.42314	0.73912
1498.49458	0.73306
1496.56602	0.72616
1494.63745	0.71930
1492.70889	0.71388
1490.78032	0.70903
1488.85176	0.70351
1486.92319	0.69848
1484.99463	0.69456
1483.06606	0.69147
1481.13750	0.68895
1479.20894	0.68692
1477.28037	0.68557
1475.35181	0.68487
1473.42324	0.68456
1471.49468	0.68379
1469.56611	0.68210
1467.63755	0.67995
1465.70898	0.67786
1463.78042	0.67622
1461.85186	0.67505
1459.92329	0.67407
1457.99473	0.67311
1456.06616	0.67194
1454.13760	0.67012
1452.20903	0.66780
1450.28047	0.66517
1448.35190	0.66245
1446.42334	0.65963
1444.49478	0.65692
1442.56621	0.65436
1440.63765	0.65174
1438.70908	0.64904
1436.78052	0.64578
1434.85195	0.64212
1432.92339	0.63915
1430.99482	0.63712
1429.06626	0.63610
1427.13770	0.63584
1425.20913	0.63596
1423.28057	0.63628
1421.35200	0.63643
1419.42344	0.63652
1417.49487	0.63653
1415.56631	0.63590
1413.63774	0.63513
1411.70918	0.63483
1409.78062	0.63517
1407.85205	0.63590
1405.92349	0.63686
1403.99492	0.63780
1402.06636	0.63804
1400.13779	0.63752
1398.20923	0.63617
1396.28066	0.63386
1394.35210	0.63050
1392.42354	0.62655
1390.49497	0.62277
1388.56641	0.61889
1386.63784	0.61443
1384.70928	0.60996
1382.78071	0.60587
1380.85215	0.60200
1378.92358	0.59857
1376.99502	0.59580
1375.06646	0.59368
1373.13789	0.59206
1371.20933	0.59094
1369.28076	0.59015
1367.35220	0.58913
1365.42363	0.58766
1363.49507	0.58605
1361.56650	0.58461
1359.63794	0.58332
1357.70937	0.58202
1355.78081	0.58075
1353.85225	0.57980
1351.92368	0.57918
1349.99512	0.57867
1348.06655	0.57805
1346.13799	0.57729
1344.20942	0.57656
1342.28086	0.57586
1340.35229	0.57518
1338.42373	0.57448
1336.49517	0.57377
1334.56660	0.57330
1332.63804	0.57314
1330.70947	0.57308
1328.78091	0.57317
1326.85234	0.57359
1324.92378	0.57421
1322.99521	0.57481
1321.06665	0.57527
1319.13809	0.57569
1317.20952	0.57598
1315.28096	0.57596
1313.35239	0.57567
1311.42383	0.57518
1309.49526	0.57466
1307.56670	0.57413
1305.63813	0.57352
1303.70957	0.57295
1301.78101	0.57233
1299.85244	0.57143
1297.92388	0.57027
1295.99531	0.56907
1294.06675	0.56795
1292.13818	0.56686
1290.20962	0.56580
1288.28105	0.56473
1286.35249	0.56356
1284.42393	0.56245
1282.49536	0.56143
1280.56680	0.56040
1278.63823	0.55934
1276.70967	0.55817
1274.78110	0.55695
1272.85254	0.55597
1270.92397	0.55518
1268.99541	0.55440
1267.06685	0.55369
1265.13828	0.55307
1263.20972	0.55241
1261.28115	0.55159
1259.35259	0.55070
1257.42402	0.54991
1255.49546	0.54941
1253.56689	0.54922
1251.63833	0.54931
1249.70977	0.54957
1247.78120	0.54968
1245.85264	0.54946
1243.92407	0.54903
1241.99551	0.54826
1240.06694	0.54700
1238.13838	0.54551
1236.20981	0.54386
1234.28125	0.54186
1232.35269	0.53966
1230.42412	0.53761
1228.49556	0.53583
1226.56699	0.53429
1224.63843	0.53291
1222.70986	0.53156
1220.78130	0.53027
1218.85273	0.52911
1216.92417	0.52803
1214.99561	0.52695
1213.06704	0.52591
1211.13848	0.52498
1209.20991	0.52413
1207.28135	0.52341
1205.35278	0.52269
1203.42422	0.52177
1201.49565	0.52083
1199.56709	0.52014
1197.63853	0.51971
1195.70996	0.51934
1193.78140	0.51880
1191.85283	0.51819
1189.92427	0.51784
1187.99570	0.51759
1186.06714	0.51730
1184.13857	0.51735
1182.21001	0.51790
1180.28145	0.51866
1178.35288	0.51953
1176.42432	0.52062
1174.49575	0.52171
1172.56719	0.52237
1170.63862	0.52254
1168.71006	0.52240
1166.78149	0.52220
1164.85293	0.52206
1162.92437	0.52183
1160.99580	0.52137
1159.06724	0.52072
1157.13867	0.51984
1155.21011	0.51879
1153.28154	0.51754
1151.35298	0.51593
1149.42441	0.51383
1147.49585	0.51139
1145.56729	0.50892
1143.63872	0.50663
1141.71016	0.50455
1139.78159	0.50253
1137.85303	0.50053
1135.92446	0.49885
1133.99590	0.49775
1132.06733	0.49699
1130.13877	0.49639
1128.21021	0.49582
1126.28164	0.49498
1124.35308	0.49390
1122.42451	0.49289
1120.49595	0.49202
1118.56738	0.49130
1116.63882	0.49085
1114.71025	0.49058
1112.78169	0.49039
1110.85312	0.49043
1108.92456	0.49081
1106.99600	0.49152
1105.06743	0.49255
1103.13887	0.49389
1101.21030	0.49559
1099.28174	0.49776
1097.35317	0.50041
1095.42461	0.50341
1093.49604	0.50676
1091.56748	0.51065
1089.63892	0.51507
1087.71035	0.52012
1085.78179	0.52599
1083.85322	0.53235
1081.92466	0.53854
1079.99609	0.54379
1078.06753	0.54716
1076.13896	0.54801
1074.21040	0.54621
1072.28184	0.54195
1070.35327	0.53602
1068.42471	0.52945
1066.49614	0.52296
1064.56758	0.51676
1062.63901	0.51078
1060.71045	0.50511
1058.78188	0.50004
1056.85332	0.49582
1054.92476	0.49247
1052.99619	0.48965
1051.06763	0.48715
1049.13906	0.48512
1047.21050	0.48345
1045.28193	0.48178
1043.35337	0.47999
1041.42480	0.47824
1039.49624	0.47682
1037.56768	0.47579
1035.63911	0.47514
1033.71055	0.47478
1031.78198	0.47451
1029.85342	0.47431
1027.92485	0.47417
1025.99629	0.47412
1024.06772	0.47429
1022.13916	0.47462
1020.21060	0.47516
1018.28203	0.47607
1016.35347	0.47717
1014.42490	0.47828
1012.49634	0.47950
1010.56777	0.48085
1008.63921	0.48224
1006.71064	0.48379
1004.78208	0.48568
1002.85352	0.48803
1000.92495	0.49091
998.99639	0.49423
997.06782	0.49787
995.13926	0.50180
993.21069	0.50573
991.28213	0.50920
989.35356	0.51196
987.42500	0.51393
985.49644	0.51522
983.56787	0.51613
981.63931	0.51686
979.71074	0.51779
977.78218	0.51944
975.85361	0.52203
973.92505	0.52515
971.99648	0.52831
970.06792	0.53162
968.13936	0.53527
966.21079	0.53914
964.28223	0.54343
962.35366	0.54843
960.42510	0.55397
958.49653	0.55983
956.56797	0.56580
954.63940	0.57184
952.71084	0.57808
950.78228	0.58437
948.85371	0.59041
946.92515	0.59645
944.99658	0.60279
943.06802	0.60895
941.13945	0.61478
939.21089	0.62063
937.28232	0.62626
935.35376	0.63180
933.42520	0.63785
931.49663	0.64391
929.56807	0.64967
927.63950	0.65573
925.71094	0.66215
923.78237	0.66838
921.85381	0.67415
919.92524	0.68027
917.99668	0.68691
916.06812	0.69347
914.13955	0.70129
912.21099	0.71043
910.28242	0.71881
908.35386	0.72652
906.42529	0.73480
904.49673	0.74398
902.56816	0.75359
900.63960	0.76226
898.71104	0.77015
896.78247	0.77941
894.85391	0.79009
892.92534	0.80010
890.99678	0.80959
889.06821	0.82067
887.13965	0.83317
885.21108	0.84581
883.28252	0.85748
881.35396	0.86737
879.42539	0.87818
877.49683	0.89100
875.56826	0.90365
873.63970	0.91611
871.71113	0.92838
869.78257	0.93919
867.85400	0.94863
865.92544	0.95844
863.99687	0.96993
862.06831	0.98277
860.13975	0.99556
858.21118	1.00692
856.28262	1.01744
854.35405	1.02790
852.42549	1.03775
850.49692	1.04778
848.56836	1.05915
846.63979	1.07204
844.71123	1.08608
842.78267	1.09868
840.85410	1.10903
838.92554	1.11951
836.99697	1.13054
835.06841	1.14052
833.13984	1.14806
831.21128	1.15462
829.28271	1.16595
827.35415	1.18355
825.42559	1.19868
823.49702	1.20428
821.56846	1.20490
819.63989	1.20899
817.71133	1.21991
815.78276	1.23232
813.85420	1.23842
811.92563	1.24295
809.99707	1.25179
808.06851	1.26000
806.13994	1.27096
804.21138	1.28769
802.28281	1.30013
800.35425	1.30206
798.42568	1.28686
796.49712	1.25917
794.56855	1.25671
792.63999	1.29349
790.71143	1.34018
788.78286	1.38544
786.85430	1.44652
784.92573	1.49839
782.99717	1.43149
781.06860	1.30477
779.14004	1.24880
777.21147	1.28207
775.28291	1.33709
773.35435	1.33996
771.42578	1.32070
769.49722	1.24989
767.56865	1.14009
765.64009	1.10731
763.71152	1.19495
761.78296	1.30130
759.85439	1.24190
757.92583	1.11816
755.99727	1.03005
754.06870	0.97784
752.14014	0.94051
750.21157	0.92921
748.28301	0.94398
746.35444	0.94708
744.42588	0.93339
742.49731	0.90088
740.56875	0.80703
738.64019	0.67186
736.71162	0.54934
734.78306	0.45166
732.85449	0.38985
730.92593	0.34612
728.99736	0.22575
727.06880	-0.00638
725.14023	-0.33443
723.21167	-0.43721
721.28311	-1.05390
719.35454	4.31613
717.42598	4.30456
715.49741	-0.06724
713.56885	0.18545
711.64028	0.24025
709.71172	0.24248
707.78315	0.26932
705.85459	0.32753
703.92603	0.38135
701.99746	0.39736
700.06890	0.36286
698.14033	0.32691
696.21177	0.34583
694.28320	0.44797
692.35464	0.56126
690.42607	0.49767
688.49751	0.36079
686.56895	0.28788
684.64038	0.30548
682.71182	0.38920
680.78325	0.44561
678.85469	0.39720
676.92612	0.34969
674.99756	0.35000
673.06899	0.38093
671.14043	0.39840
669.21187	0.35880
667.28330	0.31095
665.35474	0.31852
663.42617	0.35177
661.49761	0.35144
659.56904	0.34182
657.64048	0.33762
655.71191	0.33079
653.78335	0.34711
651.85479	0.38827
649.92622	0.41851
647.99766	0.47457
646.06909	0.56528
644.14053	0.60627
642.21196	0.58731
640.28340	0.52604
638.35483	0.43946
636.42627	0.37102
634.49771	0.31036
632.56914	0.27167
630.64058	0.31073
628.71201	0.39591
626.78345	0.42766
624.85488	0.41954
622.92632	0.40337
620.99775	0.39379
619.06919	0.44154
617.14062	0.54677
615.21206	0.58452
613.28350	0.51713
611.35493	0.43735
609.42637	0.39958
607.49780	0.42503
605.56924	0.45740
603.64067	0.41673
601.71211	0.37760
599.78354	0.40622
597.85498	0.43908
595.92642	0.41202
593.99785	0.37572
592.06929	0.35796
590.14072	0.34763
588.21216	0.36191
586.28359	0.41934
584.35503	0.46689
582.42646	0.42054
580.49790	0.34214
578.56934	0.29922
576.64077	0.27429
574.71221	0.28222
572.78364	0.33708
570.85508	0.35893
568.92651	0.31336
566.99795	0.29669
565.06938	0.34738
563.14082	0.42293
561.21226	0.48401
559.28369	0.49817
557.35513	0.44201
555.42656	0.38081
553.49800	0.33957
551.56943	0.30059
549.64087	0.29678
547.71230	0.32200
545.78374	0.32482
543.85518	0.31839
541.92661	0.35926
539.99805	0.43347
538.06948	0.48542
536.14092	0.50653
534.21235	0.47004
532.28379	0.41052
530.35522	0.38103
528.42666	0.38232
526.49810	0.41596
524.56953	0.50209
522.64097	0.56692
520.71240	0.46601
518.78384	0.36784
516.85527	0.33770
514.92671	0.32649
512.99814	0.31221
511.06958	0.31630
509.14102	0.33120
507.21245	0.36360
505.28389	0.40709
503.35532	0.37394
501.42676	0.34046
499.49819	0.36531
