3997.91411	0.07936
3995.98555	0.07939
3994.05698	0.07964
3992.12842	0.08034
3990.19985	0.08090
3988.27129	0.08082
3986.34272	0.08075
3984.41416	0.08103
3982.48560	0.08125
3980.55703	0.08153
3978.62847	0.08197
3976.69990	0.08228
3974.77134	0.08259
3972.84277	0.08289
3970.91421	0.08281
3968.98564	0.08252
3967.05708	0.08237
3965.12852	0.08221
3963.19995	0.08224
3961.27139	0.08270
3959.34282	0.08289
3957.41426	0.08271
3955.48569	0.08261
3953.55713	0.08265
3951.62856	0.08307
3949.70000	0.08382
3947.77144	0.08451
3945.84287	0.08471
3943.91431	0.08439
3941.98574	0.08379
3940.05718	0.08322
3938.12861	0.08318
3936.20005	0.08362
3934.27148	0.08412
3932.34292	0.08435
3930.41436	0.08411
3928.48579	0.08356
3926.55723	0.08325
3924.62866	0.08337
3922.70010	0.08347
3920.77153	0.08329
3918.84297	0.08296
3916.91440	0.08280
3914.98584	0.08290
3913.05728	0.08278
3911.12871	0.08242
3909.20015	0.08200
3907.27158	0.08196
3905.34302	0.08321
3903.41445	0.08562
3901.48589	0.08677
3899.55732	0.08561
3897.62876	0.08392
3895.70020	0.08294
3893.77163	0.08309
3891.84307	0.08414
3889.91450	0.08457
3887.98594	0.08372
3886.05737	0.08341
3884.12881	0.08432
3882.20024	0.08541
3880.27168	0.08595
3878.34312	0.08524
3876.41455	0.08387
3874.48599	0.08339
3872.55742	0.08417
3870.62886	0.08593
3868.70029	0.08754
3866.77173	0.08759
3864.84316	0.08741
3862.91460	0.08755
3860.98604	0.08682
3859.05747	0.08606
3857.12891	0.08638
3855.20034	0.08786
3853.27178	0.09045
3851.34321	0.09172
3849.41465	0.09033
3847.48608	0.08916
3845.55752	0.08915
3843.62896	0.09027
3841.70039	0.09188
3839.77183	0.09339
3837.84326	0.09490
3835.91470	0.09589
3833.98613	0.09582
3832.05757	0.09509
3830.12900	0.09431
3828.20044	0.09443
3826.27187	0.09544
3824.34331	0.09631
3822.41475	0.09760
3820.48618	0.10034
3818.55762	0.10195
3816.62905	0.10203
3814.70049	0.10202
3812.77192	0.10118
3810.84336	0.10054
3808.91479	0.10133
3806.98623	0.10366
3805.05767	0.10593
3803.12910	0.10724
3801.20054	0.10905
3799.27197	0.11041
3797.34341	0.11053
3795.41484	0.11081
3793.48628	0.11102
3791.55771	0.11105
3789.62915	0.11161
3787.70059	0.11306
3785.77202	0.11501
3783.84346	0.11686
3781.91489	0.11830
3779.98633	0.11996
3778.05776	0.12200
3776.12920	0.12307
3774.20063	0.12360
3772.27207	0.12504
3770.34351	0.12777
3768.41494	0.13086
3766.48638	0.13285
3764.55781	0.13418
3762.62925	0.13549
3760.70068	0.13742
3758.77212	0.14052
3756.84355	0.14376
3754.91499	0.14613
3752.98643	0.14865
3751.05786	0.15268
3749.12930	0.15734
3747.20073	0.15962
3745.27217	0.16117
3743.34360	0.16435
3741.41504	0.16759
3739.48647	0.17006
3737.55791	0.17346
3735.62935	0.17877
3733.70078	0.18470
3731.77222	0.18871
3729.84365	0.19134
3727.91509	0.19465
3725.98652	0.20011
3724.05796	0.20703
3722.12939	0.21393
3720.20083	0.22073
3718.27227	0.22745
3716.34370	0.23420
3714.41514	0.24124
3712.48657	0.25050
3710.55801	0.26396
3708.62944	0.27756
3706.70088	0.28820
3704.77231	0.29852
3702.84375	0.31083
3700.91519	0.32723
3698.98662	0.34539
3697.05806	0.36256
3695.12949	0.38065
3693.20093	0.39976
3691.27236	0.42089
3689.34380	0.44890
3687.41523	0.48289
3685.48667	0.51173
3683.55811	0.53644
3681.62954	0.56371
3679.70098	0.59520
3677.77241	0.62865
3675.84385	0.66801
3673.91528	0.72012
3671.98672	0.76242
3670.05815	0.80029
3668.12959	0.85189
3666.20103	0.89808
3664.27246	0.93677
3662.34390	0.97945
3660.41533	1.02624
3658.48677	1.07203
3656.55820	1.12012
3654.62964	1.17382
3652.70107	1.21945
3650.77251	1.25991
3648.84395	1.31580
3646.91538	1.38281
3644.98682	1.43132
3643.05825	1.46894
3641.12969	1.50753
3639.20112	1.55061
3637.27256	1.59485
3635.34399	1.63780
3633.41543	1.68031
3631.48687	1.72024
3629.55830	1.76143
3627.62974	1.81606
3625.70117	1.86621
3623.77261	1.89945
3621.84404	1.93218
3619.91548	1.97068
3617.98691	2.01671
3616.05835	2.06027
3614.12979	2.09691
3612.20122	2.13569
3610.27266	2.17459
3608.34409	2.21408
3606.41553	2.25666
3604.48696	2.29610
3602.55840	2.33081
3600.62983	2.36791
3598.70127	2.40770
3596.77271	2.44647
3594.84414	2.48808
3592.91558	2.53256
3590.98701	2.57269
3589.05845	2.60859
3587.12988	2.65239
3585.20132	2.70178
3583.27275	2.74272
3581.34419	2.78040
3579.41562	2.82104
3577.48706	2.86278
3575.55850	2.90402
3573.62993	2.94699
3571.70137	2.99048
3569.77280	3.03315
3567.84424	3.07895
3565.91567	3.13296
3563.98711	3.18131
3562.05854	3.21993
3560.12998	3.26159
3558.20142	3.30650
3556.27285	3.35045
3554.34429	3.39490
3552.41572	3.44364
3550.48716	3.49286
3548.55859	3.53865
3546.63003	3.58344
3544.70146	3.62943
3542.77290	3.67476
3540.84434	3.71912
3538.91577	3.76538
3536.98721	3.81343
3535.05864	3.86448
3533.13008	3.91562
3531.20151	3.96261
3529.27295	4.01021
3527.34438	4.06285
3525.41582	4.11225
3523.48726	4.15434
3521.55869	4.19862
3519.63013	4.24778
3517.70156	4.29555
3515.77300	4.34139
3513.84443	4.39177
3511.91587	4.44542
3509.98730	4.49783
3508.05874	4.54887
3506.13018	4.59562
3504.20161	4.63797
3502.27305	4.68369
3500.34448	4.73295
3498.41592	4.77932
3496.48735	4.82540
3494.55879	4.87361
3492.63022	4.92460
3490.70166	4.98138
3488.77310	5.04154
3486.84453	5.09531
3484.91597	5.13917
3482.98740	5.17962
3481.05884	5.22337
3479.13027	5.27415
3477.20171	5.32957
3475.27314	5.38385
3473.34458	5.43535
3471.41602	5.48300
3469.48745	5.52476
3467.55889	5.56689
3465.63032	5.61611
3463.70176	5.67031
3461.77319	5.72716
3459.84463	5.78513
3457.91606	5.83565
3455.98750	5.87868
3454.05894	5.91737
3452.13037	5.95779
3450.20181	6.01867
3448.27324	6.09354
3446.34468	6.15024
3444.41611	6.18250
3442.48755	6.21921
3440.55898	6.26572
3438.63042	6.31214
3436.70186	6.35815
3434.77329	6.40987
3432.84473	6.46943
3430.91616	6.52340
3428.98760	6.57628
3427.05903	6.62610
3425.13047	6.66272
3423.20190	6.70865
3421.27334	6.78521
3419.34478	6.85697
3417.41621	6.89697
3415.48765	6.92824
3413.55908	6.96074
3411.63052	7.00582
3409.70195	7.05680
3407.77339	7.10541
3405.84482	7.16140
3403.91626	7.23414
3401.98770	7.29416
3400.05913	7.31328
3398.13057	7.33854
3396.20200	7.37662
3394.27344	7.38557
3392.34487	7.38685
3390.41631	7.42555
3388.48774	7.50139
3386.55918	7.61160
3384.63062	7.71173
3382.70205	7.74429
3380.77349	7.73882
3378.84492	7.73423
3376.91636	7.72512
3374.98779	7.73108
3373.05923	7.81048
3371.13066	7.93165
3369.20210	8.01622
3367.27354	8.03834
3365.34497	8.04889
3363.41641	8.05195
3361.48784	8.01315
3359.55928	8.00437
3357.63071	8.05244
3355.70215	8.11674
3353.77358	8.12828
3351.84502	8.05712
3349.91646	7.98315
3347.98789	7.96049
3346.05933	7.96647
3344.13076	8.03344
3342.20220	8.18129
3340.27363	8.34553
3338.34507	8.46378
3336.41650	8.44664
3334.48794	8.37774
3332.55937	8.34977
3330.63081	8.31753
3328.70225	8.29782
3326.77368	8.35104
3324.84512	8.45473
3322.91655	8.48321
3320.98799	8.43723
3319.05942	8.42150
3317.13086	8.40227
3315.20229	8.35001
3313.27373	8.37582
3311.34517	8.45626
3309.41660	8.50725
3307.48804	8.53576
3305.55947	8.53712
3303.63091	8.55568
3301.70234	8.56630
3299.77378	8.51701
3297.84521	8.44308
3295.91665	8.40777
3293.98809	8.42498
3292.05952	8.46702
3290.13096	8.51790
3288.20239	8.56991
3286.27383	8.55735
3284.34526	8.46911
3282.41670	8.45220
3280.48813	8.52490
3278.55957	8.57856
3276.63101	8.55369
3274.70244	8.50081
3272.77388	8.49385
3270.84531	8.51104
3268.91675	8.45820
3266.98818	8.34279
3265.05962	8.30449
3263.13105	8.34570
3261.20249	8.40101
3259.27393	8.48274
3257.34536	8.60709
3255.41680	8.69519
3253.48823	8.61787
3251.55967	8.43447
3249.63110	8.29300
3247.70254	8.26063
3245.77397	8.29635
3243.84541	8.33350
3241.91685	8.38037
3239.98828	8.44226
3238.05972	8.45723
3236.13115	8.40557
3234.20259	8.36530
3232.27402	8.40037
3230.34546	8.46019
3228.41689	8.43857
3226.48833	8.36397
3224.55977	8.31717
3222.63120	8.27961
3220.70264	8.23574
3218.77407	8.22573
3216.84551	8.24295
3214.91694	8.26940
3212.98838	8.27591
3211.05981	8.21313
3209.13125	8.11515
3207.20269	8.06079
3205.27412	8.09186
3203.34556	8.14326
3201.41699	8.12158
3199.48843	8.03487
3197.55986	7.95168
3195.63130	7.93348
3193.70273	7.93244
3191.77417	7.84323
3189.84561	7.71317
3187.91704	7.64377
3185.98848	7.62506
3184.05991	7.59154
3182.13135	7.53820
3180.20278	7.49049
3178.27422	7.43192
3176.34565	7.37613
3174.41709	7.30281
3172.48853	7.17261
3170.55996	7.07240
3168.63140	7.04328
3166.70283	7.01478
3164.77427	6.96264
3162.84570	6.90007
3160.91714	6.83304
3158.98857	6.77843
3157.06001	6.71238
3155.13145	6.61632
3153.20288	6.52728
3151.27432	6.46782
3149.34575	6.42355
3147.41719	6.36815
3145.48862	6.28835
3143.56006	6.20193
3141.63149	6.12798
3139.70293	6.05707
3137.77437	5.98255
3135.84580	5.90687
3133.91724	5.82950
3131.98867	5.75558
3130.06011	5.68517
3128.13154	5.61810
3126.20298	5.55448
3124.27441	5.48286
3122.34585	5.40390
3120.41729	5.33230
3118.48872	5.26646
3116.56016	5.19844
3114.63159	5.12700
3112.70303	5.05100
3110.77446	4.97303
3108.84590	4.89779
3106.91733	4.82735
3104.98877	4.76103
3103.06021	4.69945
3101.13164	4.64176
3099.20308	4.57924
3097.27451	4.50742
3095.34595	4.43537
3093.41738	4.36918
3091.48882	4.30575
3089.56025	4.24402
3087.63169	4.18282
3085.70312	4.11965
3083.77456	4.05657
3081.84600	3.99544
3079.91743	3.93392
3077.98887	3.87167
3076.06030	3.81221
3074.13174	3.75504
3072.20317	3.69640
3070.27461	3.63841
3068.34604	3.58360
3066.41748	3.52778
3064.48892	3.46928
3062.56035	3.41162
3060.63179	3.35525
3058.70322	3.29938
3056.77466	3.24589
3054.84609	3.19533
3052.91753	3.14553
3050.98896	3.09544
3049.06040	3.04519
3047.13184	2.99445
3045.20327	2.94358
3043.27471	2.89351
3041.34614	2.84415
3039.41758	2.79556
3037.48901	2.74833
3035.56045	2.70236
3033.63188	2.65709
3031.70332	2.61200
3029.77476	2.56665
3027.84619	2.52230
3025.91763	2.47999
3023.98906	2.43786
3022.06050	2.39502
3020.13193	2.35267
3018.20337	2.31138
3016.27480	2.27116
3014.34624	2.23182
3012.41768	2.19248
3010.48911	2.15345
3008.56055	2.11609
3006.63198	2.07978
3004.70342	2.04357
3002.77485	2.00789
3000.84629	1.97314
2998.91772	1.93948
2996.98916	1.90664
2995.06060	1.87417
2993.13203	1.84242
2991.20347	1.81186
2989.27490	1.78254
2987.34634	1.75417
2985.41777	1.72638
2983.48921	1.69903
2981.56064	1.67214
2979.63208	1.64563
2977.70352	1.61934
2975.77495	1.59355
2973.84639	1.56891
2971.91782	1.54536
2969.98926	1.52212
2968.06069	1.49850
2966.13213	1.47493
2964.20356	1.45196
2962.27500	1.42875
2960.34644	1.40504
2958.41787	1.38160
2956.48931	1.35809
2954.56074	1.33411
2952.63218	1.31019
2950.70361	1.28704
2948.77505	1.26491
2946.84648	1.24300
2944.91792	1.22094
2942.98936	1.19968
2941.06079	1.17948
2939.13223	1.15982
2937.20366	1.14063
2935.27510	1.12133
2933.34653	1.10158
2931.41797	1.08194
2929.48940	1.06241
2927.56084	1.04293
2925.63228	1.02415
2923.70371	1.00624
2921.77515	0.98854
2919.84658	0.97054
2917.91802	0.95235
2915.98945	0.93432
2914.06089	0.91663
2912.13232	0.89949
2910.20376	0.88304
2908.27520	0.86723
2906.34663	0.85205
2904.41807	0.83721
2902.48950	0.82261
2900.56094	0.80859
2898.63237	0.79511
2896.70381	0.78183
2894.77524	0.76866
2892.84668	0.75582
2890.91812	0.74344
2888.98955	0.73144
2887.06099	0.71987
2885.13242	0.70902
2883.20386	0.69899
2881.27529	0.68960
2879.34673	0.68048
2877.41816	0.67114
2875.48960	0.66134
2873.56104	0.65117
2871.63247	0.64076
2869.70391	0.63001
2867.77534	0.61874
2865.84678	0.60691
2863.91821	0.59484
2861.98965	0.58299
2860.06108	0.57171
2858.13252	0.56111
2856.20396	0.55126
2854.27539	0.54217
2852.34683	0.53342
2850.41826	0.52430
2848.48970	0.51498
2846.56113	0.50628
2844.63257	0.49843
2842.70400	0.49113
2840.77544	0.48423
2838.84687	0.47773
2836.91831	0.47137
2834.98975	0.46490
2833.06118	0.45848
2831.13262	0.45218
2829.20405	0.44604
2827.27549	0.44004
2825.34692	0.43398
2823.41836	0.42785
2821.48979	0.42171
2819.56123	0.41556
2817.63267	0.40963
2815.70410	0.40404
2813.77554	0.39852
2811.84697	0.39286
2809.91841	0.38714
2807.98984	0.38151
2806.06128	0.37619
2804.13271	0.37119
2802.20415	0.36632
2800.27559	0.36146
2798.34702	0.35647
2796.41846	0.35149
2794.48989	0.34667
2792.56133	0.34196
2790.63276	0.33730
2788.70420	0.33276
2786.77563	0.32837
2784.84707	0.32403
2782.91851	0.31970
2780.98994	0.31549
2779.06138	0.31139
2777.13281	0.30747
2775.20425	0.30368
2773.27568	0.29972
2771.34712	0.29559
2769.41855	0.29177
2767.48999	0.28833
2765.56143	0.28487
2763.63286	0.28124
2761.70430	0.27767
2759.77573	0.27430
2757.84717	0.27114
2755.91860	0.26810
2753.99004	0.26498
2752.06147	0.26186
2750.13291	0.25887
2748.20435	0.25586
2746.27578	0.25278
2744.34722	0.24968
2742.41865	0.24672
2740.49009	0.24418
2738.56152	0.24187
2736.63296	0.23939
2734.70439	0.23681
2732.77583	0.23433
2730.84727	0.23191
2728.91870	0.22951
2726.99014	0.22712
2725.06157	0.22479
2723.13301	0.22258
2721.20444	0.22039
2719.27588	0.21819
2717.34731	0.21616
2715.41875	0.21434
2713.49019	0.21260
2711.56162	0.21091
2709.63306	0.20925
2707.70449	0.20752
2705.77593	0.20584
2703.84736	0.20423
2701.91880	0.20252
2699.99023	0.20082
2698.06167	0.19924
2696.13311	0.19771
2694.20454	0.19622
2692.27598	0.19483
2690.34741	0.19356
2688.41885	0.19231
2686.49028	0.19101
2684.56172	0.18977
2682.63315	0.18864
2680.70459	0.18738
2678.77603	0.18594
2676.84746	0.18473
2674.91890	0.18387
2672.99033	0.18300
2671.06177	0.18199
2669.13320	0.18099
2667.20464	0.17994
2665.27607	0.17880
2663.34751	0.17775
2661.41895	0.17685
2659.49038	0.17594
2657.56182	0.17493
2655.63325	0.17392
2653.70469	0.17309
2651.77612	0.17250
2649.84756	0.17205
2647.91899	0.17147
2645.99043	0.17079
2644.06187	0.17013
2642.13330	0.16941
2640.20474	0.16879
2638.27617	0.16831
2636.34761	0.16783
2634.41904	0.16739
2632.49048	0.16705
2630.56191	0.16673
2628.63335	0.16638
2626.70479	0.16597
2624.77622	0.16544
2622.84766	0.16487
2620.91909	0.16439
2618.99053	0.16415
2617.06196	0.16405
2615.13340	0.16374
2613.20483	0.16333
2611.27627	0.16318
2609.34771	0.16320
2607.41914	0.16309
2605.49058	0.16281
2603.56201	0.16258
2601.63345	0.16255
2599.70488	0.16261
2597.77632	0.16260
2595.84775	0.16253
2593.91919	0.16248
2591.99062	0.16246
2590.06206	0.16248
2588.13350	0.16256
2586.20493	0.16267
2584.27637	0.16285
2582.34780	0.16311
2580.41924	0.16333
2578.49067	0.16348
2576.56211	0.16362
2574.63354	0.16382
2572.70498	0.16407
2570.77642	0.16427
2568.84785	0.16448
2566.91929	0.16485
2564.99072	0.16528
2563.06216	0.16563
2561.13359	0.16597
2559.20503	0.16646
2557.27646	0.16708
2555.34790	0.16754
2553.41934	0.16794
2551.49077	0.16838
2549.56221	0.16880
2547.63364	0.16932
2545.70508	0.16988
2543.77651	0.17035
2541.84795	0.17085
2539.91938	0.17141
2537.99082	0.17195
2536.06226	0.17249
2534.13369	0.17318
2532.20513	0.17399
2530.27656	0.17469
2528.34800	0.17532
2526.41943	0.17604
2524.49087	0.17673
2522.56230	0.17738
2520.63374	0.17812
2518.70518	0.17885
2516.77661	0.17946
2514.84805	0.18008
2512.91948	0.18080
2510.99092	0.18156
2509.06235	0.18229
2507.13379	0.18293
2505.20522	0.18355
2503.27666	0.18432
2501.34810	0.18516
2499.41953	0.18594
2497.49097	0.18673
2495.56240	0.18750
2493.63384	0.18823
2491.70527	0.18910
2489.77671	0.19009
2487.84814	0.19089
2485.91958	0.19155
2483.99102	0.19230
2482.06245	0.19304
2480.13389	0.19377
2478.20532	0.19461
2476.27676	0.19554
2474.34819	0.19652
2472.41963	0.19748
2470.49106	0.19833
2468.56250	0.19911
2466.63394	0.19998
2464.70537	0.20088
2462.77681	0.20171
2460.84824	0.20251
2458.91968	0.20336
2456.99111	0.20425
2455.06255	0.20515
2453.13398	0.20613
2451.20542	0.20728
2449.27686	0.20831
2447.34829	0.20912
2445.41973	0.20994
2443.49116	0.21075
2441.56260	0.21155
2439.63403	0.21248
2437.70547	0.21344
2435.77690	0.21429
2433.84834	0.21530
2431.91978	0.21659
2429.99121	0.21784
2428.06265	0.21885
2426.13408	0.21978
2424.20552	0.22086
2422.27695	0.22202
2420.34839	0.22304
2418.41982	0.22403
2416.49126	0.22515
2414.56270	0.22636
2412.63413	0.22753
2410.70557	0.22870
2408.77700	0.22994
2406.84844	0.23115
2404.91987	0.23220
2402.99131	0.23317
2401.06274	0.23423
2399.13418	0.23534
2397.20562	0.23649
2395.27705	0.23776
2393.34849	0.23904
2391.41992	0.24025
2389.49136	0.24151
2387.56279	0.24288
2385.63423	0.24423
2383.70566	0.24562
2381.77710	0.24727
2379.84854	0.24927
2377.91997	0.25145
2375.99141	0.25355
2374.06284	0.25566
2372.13428	0.25820
2370.20571	0.26140
2368.27715	0.26470
2366.34858	0.26742
2364.42002	0.27018
2362.49146	0.27342
2360.56289	0.27547
2358.63433	0.27621
2356.70576	0.27660
2354.77720	0.27660
2352.84863	0.27713
2350.92007	0.27752
2348.99150	0.27742
2347.06294	0.27796
2345.13437	0.28024
2343.20581	0.28373
2341.27725	0.28586
2339.34868	0.28667
2337.42012	0.28786
2335.49155	0.28963
2333.56299	0.29137
2331.63442	0.29313
2329.70586	0.29480
2327.77729	0.29608
2325.84873	0.29694
2323.92017	0.29766
2321.99160	0.29873
2320.06304	0.29996
2318.13447	0.30110
2316.20591	0.30243
2314.27734	0.30405
2312.34878	0.30563
2310.42021	0.30683
2308.49165	0.30788
2306.56309	0.30921
2304.63452	0.31065
2302.70596	0.31207
2300.77739	0.31371
2298.84883	0.31551
2296.92026	0.31721
2294.99170	0.31881
2293.06313	0.32050
2291.13457	0.32232
2289.20601	0.32406
2287.27744	0.32576
2285.34888	0.32753
2283.42031	0.32939
2281.49175	0.33132
2279.56318	0.33331
2277.63462	0.33530
2275.70605	0.33729
2273.77749	0.33936
2271.84893	0.34148
2269.92036	0.34349
2267.99180	0.34551
2266.06323	0.34765
2264.13467	0.34977
2262.20610	0.35184
2260.27754	0.35398
2258.34897	0.35610
2256.42041	0.35816
2254.49185	0.36029
2252.56328	0.36250
2250.63472	0.36469
2248.70615	0.36679
2246.77759	0.36880
2244.84902	0.37086
2242.92046	0.37303
2240.99189	0.37524
2239.06333	0.37742
2237.13477	0.37955
2235.20620	0.38161
2233.27764	0.38373
2231.34907	0.38607
2229.42051	0.38852
2227.49194	0.39082
2225.56338	0.39303
2223.63481	0.39522
2221.70625	0.39729
2219.77769	0.39928
2217.84912	0.40142
2215.92056	0.40364
2213.99199	0.40581
2212.06343	0.40799
2210.13486	0.41014
2208.20630	0.41226
2206.27773	0.41435
2204.34917	0.41633
2202.42061	0.41825
2200.49204	0.42021
2198.56348	0.42228
2196.63491	0.42441
2194.70635	0.42647
2192.77778	0.42835
2190.84922	0.43015
2188.92065	0.43202
2186.99209	0.43390
2185.06353	0.43566
2183.13496	0.43730
2181.20640	0.43889
2179.27783	0.44043
2177.34927	0.44200
2175.42070	0.44358
2173.49214	0.44512
2171.56357	0.44653
2169.63501	0.44777
2167.70645	0.44901
2165.77788	0.45041
2163.84932	0.45172
2161.92075	0.45270
2159.99219	0.45355
2158.06362	0.45442
2156.13506	0.45534
2154.20649	0.45623
2152.27793	0.45704
2150.34937	0.45782
2148.42080	0.45858
2146.49224	0.45908
2144.56367	0.45937
2142.63511	0.45969
2140.70654	0.46003
2138.77798	0.46034
2136.84941	0.46056
2134.92085	0.46069
2132.99229	0.46070
2131.06372	0.46049
2129.13516	0.46015
2127.20659	0.45979
2125.27803	0.45938
2123.34946	0.45890
2121.42090	0.45836
2119.49233	0.45774
2117.56377	0.45713
2115.63521	0.45648
2113.70664	0.45572
2111.77808	0.45482
2109.84951	0.45369
2107.92095	0.45239
2105.99238	0.45116
2104.06382	0.44999
2102.13525	0.44875
2100.20669	0.44743
2098.27812	0.44602
2096.34956	0.44457
2094.42100	0.44312
2092.49243	0.44156
2090.56387	0.43981
2088.63530	0.43797
2086.70674	0.43614
2084.77817	0.43426
2082.84961	0.43227
2080.92104	0.43023
2078.99248	0.42821
2077.06392	0.42616
2075.13535	0.42408
2073.20679	0.42196
2071.27822	0.41976
2069.34966	0.41751
2067.42109	0.41525
2065.49253	0.41288
2063.56396	0.41033
2061.63540	0.40774
2059.70684	0.40514
2057.77827	0.40248
2055.84971	0.39992
2053.92114	0.39751
2051.99258	0.39508
2050.06401	0.39240
2048.13545	0.38957
2046.20688	0.38682
2044.27832	0.38424
2042.34976	0.38165
2040.42119	0.37894
2038.49263	0.37613
2036.56406	0.37326
2034.63550	0.37047
2032.70693	0.36773
2030.77837	0.36496
2028.84980	0.36213
2026.92124	0.35936
2024.99268	0.35671
2023.06411	0.35408
2021.13555	0.35143
2019.20698	0.34884
2017.27842	0.34614
2015.34985	0.34321
2013.42129	0.34031
2011.49272	0.33752
2009.56416	0.33473
2007.63560	0.33193
2005.70703	0.32927
2003.77847	0.32670
2001.84990	0.32417
1999.92134	0.32166
1997.99277	0.31910
1996.06421	0.31653
1994.13564	0.31403
1992.20708	0.31150
1990.27852	0.30886
1988.34995	0.30629
1986.42139	0.30380
1984.49282	0.30140
1982.56426	0.29918
1980.63569	0.29702
1978.70713	0.29480
1976.77856	0.29249
1974.85000	0.29018
1972.92144	0.28793
1970.99287	0.28581
1969.06431	0.28388
1967.13574	0.28195
1965.20718	0.27984
1963.27861	0.27781
1961.35005	0.27598
1959.42148	0.27412
1957.49292	0.27223
1955.56436	0.27043
1953.63579	0.26875
1951.70723	0.26709
1949.77866	0.26545
1947.85010	0.26389
1945.92153	0.26249
1943.99297	0.26124
1942.06440	0.25988
1940.13584	0.25819
1938.20728	0.25653
1936.27871	0.25520
1934.35015	0.25402
1932.42158	0.25284
1930.49302	0.25168
1928.56445	0.25060
1926.63589	0.24954
1924.70732	0.24855
1922.77876	0.24762
1920.85020	0.24664
1918.92163	0.24578
1916.99307	0.24497
1915.06450	0.24400
1913.13594	0.24305
1911.20737	0.24241
1909.27881	0.24191
1907.35024	0.24128
1905.42168	0.24053
1903.49312	0.23984
1901.56455	0.23921
1899.63599	0.23868
1897.70742	0.23831
1895.77886	0.23798
1893.85029	0.23762
1891.92173	0.23734
1889.99316	0.23728
1888.06460	0.23712
1886.13604	0.23676
1884.20747	0.23648
1882.27891	0.23628
1880.35034	0.23610
1878.42178	0.23596
1876.49321	0.23590
1874.56465	0.23588
1872.63608	0.23602
1870.70752	0.23638
1868.77896	0.23700
1866.85039	0.23732
1864.92183	0.23717
1862.99326	0.23709
1861.06470	0.23730
1859.13613	0.23776
1857.20757	0.23816
1855.27900	0.23853
1853.35044	0.23895
1851.42187	0.23943
1849.49331	0.23995
1847.56475	0.24070
1845.63618	0.24177
1843.70762	0.24279
1841.77905	0.24327
1839.85049	0.24362
1837.92192	0.24451
1835.99336	0.24550
1834.06479	0.24636
1832.13623	0.24735
1830.20767	0.24886
1828.27910	0.25037
1826.35054	0.25143
1824.42197	0.25270
1822.49341	0.25390
1820.56484	0.25504
1818.63628	0.25641
1816.70771	0.25806
1814.77915	0.25966
1812.85059	0.26139
1810.92202	0.26349
1808.99346	0.26555
1807.06489	0.26743
1805.13633	0.26932
1803.20776	0.27155
1801.27920	0.27415
1799.35063	0.27703
1797.42207	0.27948
1795.49351	0.28181
1793.56494	0.28482
1791.63638	0.28870
1789.70781	0.29208
1787.77925	0.29452
1785.85068	0.29754
1783.92212	0.30114
1781.99355	0.30507
1780.06499	0.30928
1778.13643	0.31354
1776.20786	0.31749
1774.27930	0.32172
1772.35073	0.32746
1770.42217	0.33375
1768.49360	0.33906
1766.56504	0.34414
1764.63647	0.34931
1762.70791	0.35502
1760.77935	0.36240
1758.85078	0.36944
1756.92222	0.37654
1754.99365	0.38434
1753.06509	0.39153
1751.13652	0.40001
1749.20796	0.41058
1747.27939	0.42096
1745.35083	0.43006
1743.42227	0.43967
1741.49370	0.45034
1739.56514	0.46288
1737.63657	0.47526
1735.70801	0.48611
1733.77944	0.50262
1731.85088	0.52234
1729.92231	0.53768
1727.99375	0.55294
1726.06519	0.56930
1724.13662	0.58746
1722.20806	0.60735
1720.27949	0.62564
1718.35093	0.64695
1716.42236	0.67883
1714.49380	0.70952
1712.56523	0.73427
1710.63667	0.75809
1708.70811	0.78387
1706.77954	0.81349
1704.85098	0.84927
1702.92241	0.88144
1700.99385	0.91324
1699.06528	0.96057
1697.13672	1.00461
1695.20815	1.05022
1693.27959	1.09453
1691.35103	1.13069
1689.42246	1.17318
1687.49390	1.21861
1685.56533	1.26287
1683.63677	1.33129
1681.70820	1.40169
1679.77964	1.44578
1677.85107	1.48780
1675.92251	1.53725
1673.99395	1.59946
1672.06538	1.65505
1670.13682	1.71035
1668.20825	1.78278
1666.27969	1.84114
1664.35112	1.89110
1662.42256	1.95611
1660.49399	2.03157
1658.56543	2.09103
1656.63687	2.13820
1654.70830	2.18115
1652.77974	2.24627
1650.85117	2.30154
1648.92261	2.31650
1646.99404	2.33794
1645.06548	2.36210
1643.13691	2.37690
1641.20835	2.38449
1639.27979	2.39250
1637.35122	2.39711
1635.42266	2.39371
1633.49409	2.38140
1631.56553	2.36335
1629.63696	2.34278
1627.70840	2.31096
1625.77983	2.27337
1623.85127	2.22596
1621.92271	2.16919
1619.99414	2.12038
1618.06558	2.07411
1616.13701	2.00720
1614.20845	1.93843
1612.27988	1.88654
1610.35132	1.83242
1608.42275	1.77382
1606.49419	1.71714
1604.56562	1.66613
1602.63706	1.61737
1600.70850	1.56998
1598.77993	1.52662
1596.85137	1.48557
1594.92280	1.44501
1592.99424	1.40604
1591.06567	1.37125
1589.13711	1.33913
1587.20854	1.30927
1585.27998	1.28196
1583.35142	1.25706
1581.42285	1.23501
1579.49429	1.21670
1577.56572	1.20073
1575.63716	1.18148
1573.70859	1.16479
1571.78003	1.15508
1569.85146	1.14670
1567.92290	1.13760
1565.99434	1.13101
1564.06577	1.12785
1562.13721	1.12722
1560.20864	1.12981
1558.28008	1.13928
1556.35151	1.14714
1554.42295	1.15077
1552.49438	1.15482
1550.56582	1.15721
1548.63726	1.15658
1546.70869	1.15269
1544.78013	1.14493
1542.85156	1.13277
1540.92300	1.11291
1538.99443	1.07962
1537.06587	1.05418
1535.13730	1.03674
1533.20874	1.01379
1531.28018	0.98930
1529.35161	0.97179
1527.42305	0.95576
1525.49448	0.93914
1523.56592	0.92478
1521.63735	0.91098
1519.70879	0.89736
1517.78022	0.88629
1515.85166	0.87310
1513.92310	0.85854
1511.99453	0.84561
1510.06597	0.83414
1508.13740	0.82333
1506.20884	0.80671
1504.28027	0.79183
1502.35171	0.78328
1500.42314	0.77592
1498.49458	0.76833
1496.56602	0.75965
1494.63745	0.75089
1492.70889	0.74417
1490.78032	0.73852
1488.85176	0.73214
1486.92319	0.72617
1484.99463	0.72164
1483.06606	0.71835
1481.13750	0.71602
1479.20894	0.71452
1477.28037	0.71401
1475.35181	0.71466
1473.42324	0.71617
1471.49468	0.71685
1469.56611	0.71572
1467.63755	0.71407
1465.70898	0.71269
1463.78042	0.71144
1461.85186	0.71048
1459.92329	0.71041
1457.99473	0.71144
1456.06616	0.71188
1454.13760	0.70951
1452.20903	0.70629
1450.28047	0.70305
1448.35190	0.69989
1446.42334	0.69641
1444.49478	0.69298
1442.56621	0.68993
1440.63765	0.68683
1438.70908	0.68352
1436.78052	0.67944
1434.85195	0.67468
1432.92339	0.67089
1430.99482	0.66848
1429.06626	0.66725
1427.13770	0.66706
1425.20913	0.66780
1423.28057	0.66906
1421.35200	0.67003
1419.42344	0.67090
1417.49487	0.67125
1415.56631	0.67033
1413.63774	0.66965
1411.70918	0.67012
1409.78062	0.67155
1407.85205	0.67330
1405.92349	0.67533
1403.99492	0.67745
1402.06636	0.67859
1400.13779	0.67844
1398.20923	0.67711
1396.28066	0.67436
1394.35210	0.66993
1392.42354	0.66473
1390.49497	0.65999
1388.56641	0.65515
1386.63784	0.64929
1384.70928	0.64302
1382.78071	0.63719
1380.85215	0.63175
1378.92358	0.62712
1376.99502	0.62376
1375.06646	0.62158
1373.13789	0.62001
1371.20933	0.61889
1369.28076	0.61806
1367.35220	0.61692
1365.42363	0.61531
1363.49507	0.61356
1361.56650	0.61173
1359.63794	0.60996
1357.70937	0.60839
1355.78081	0.60688
1353.85225	0.60561
1351.92368	0.60484
1349.99512	0.60434
1348.06655	0.60364
1346.13799	0.60280
1344.20942	0.60206
1342.28086	0.60134
1340.35229	0.60069
1338.42373	0.60012
1336.49517	0.59953
1334.56660	0.59906
1332.63804	0.59898
1330.70947	0.59932
1328.78091	0.59994
1326.85234	0.60087
1324.92378	0.60213
1322.99521	0.60346
1321.06665	0.60456
1319.13809	0.60541
1317.20952	0.60607
1315.28096	0.60640
1313.35239	0.60632
1311.42383	0.60592
1309.49526	0.60531
1307.56670	0.60462
1305.63813	0.60404
1303.70957	0.60357
1301.78101	0.60307
1299.85244	0.60231
1297.92388	0.60129
1295.99531	0.60014
1294.06675	0.59892
1292.13818	0.59751
1290.20962	0.59592
1288.28105	0.59435
1286.35249	0.59290
1284.42393	0.59147
1282.49536	0.58995
1280.56680	0.58834
1278.63823	0.58670
1276.70967	0.58520
1274.78110	0.58406
1272.85254	0.58319
1270.92397	0.58228
1268.99541	0.58135
1267.06685	0.58046
1265.13828	0.57954
1263.20972	0.57863
1261.28115	0.57774
1259.35259	0.57679
1257.42402	0.57583
1255.49546	0.57517
1253.56689	0.57515
1251.63833	0.57560
1249.70977	0.57597
1247.78120	0.57590
1245.85264	0.57546
1243.92407	0.57467
1241.99551	0.57366
1240.06694	0.57234
1238.13838	0.57044
1236.20981	0.56800
1234.28125	0.56524
1232.35269	0.56242
1230.42412	0.55976
1228.49556	0.55728
1226.56699	0.55496
1224.63843	0.55282
1222.70986	0.55081
1220.78130	0.54899
1218.85273	0.54733
1216.92417	0.54581
1214.99561	0.54458
1213.06704	0.54368
1211.13848	0.54301
1209.20991	0.54249
1207.28135	0.54182
1205.35278	0.54075
1203.42422	0.53957
1201.49565	0.53860
1199.56709	0.53771
1197.63853	0.53683
1195.70996	0.53607
1193.78140	0.53551
1191.85283	0.53504
1189.92427	0.53460
1187.99570	0.53426
1186.06714	0.53411
1184.13857	0.53424
1182.21001	0.53488
1180.28145	0.53608
1178.35288	0.53757
1176.42432	0.53912
1174.49575	0.54061
1172.56719	0.54184
1170.63862	0.54236
1168.71006	0.54201
1166.78149	0.54142
1164.85293	0.54126
1162.92437	0.54143
1160.99580	0.54156
1159.06724	0.54141
1157.13867	0.54088
1155.21011	0.53990
1153.28154	0.53844
1151.35298	0.53659
1149.42441	0.53432
1147.49585	0.53157
1145.56729	0.52866
1143.63872	0.52584
1141.71016	0.52324
1139.78159	0.52121
1137.85303	0.52003
1135.92446	0.51950
1133.99590	0.51920
1132.06733	0.51894
1130.13877	0.51864
1128.21021	0.51828
1126.28164	0.51795
1124.35308	0.51769
1122.42451	0.51732
1120.49595	0.51690
1118.56738	0.51679
1116.63882	0.51700
1114.71025	0.51723
1112.78169	0.51744
1110.85312	0.51798
1108.92456	0.51882
1106.99600	0.51975
1105.06743	0.52073
1103.13887	0.52168
1101.21030	0.52275
1099.28174	0.52429
1097.35317	0.52626
1095.42461	0.52884
1093.49604	0.53251
1091.56748	0.53727
1089.63892	0.54290
1087.71035	0.54919
1085.78179	0.55615
1083.85322	0.56386
1081.92466	0.57144
1079.99609	0.57736
1078.06753	0.58055
1076.13896	0.58048
1074.21040	0.57726
1072.28184	0.57171
1070.35327	0.56507
1068.42471	0.55791
1066.49614	0.55055
1064.56758	0.54386
1062.63901	0.53815
1060.71045	0.53314
1058.78188	0.52884
1056.85332	0.52508
1054.92476	0.52141
1052.99619	0.51788
1051.06763	0.51491
1049.13906	0.51276
1047.21050	0.51125
1045.28193	0.51000
1043.35337	0.50896
1041.42480	0.50828
1039.49624	0.50787
1037.56768	0.50757
1035.63911	0.50725
1033.71055	0.50663
1031.78198	0.50565
1029.85342	0.50453
1027.92485	0.50340
1025.99629	0.50230
1024.06772	0.50148
1022.13916	0.50099
1020.21060	0.50077
1018.28203	0.50071
1016.35347	0.50076
1014.42490	0.50102
1012.49634	0.50136
1010.56777	0.50151
1008.63921	0.50167
1006.71064	0.50210
1004.78208	0.50297
1002.85352	0.50468
1000.92495	0.50735
998.99639	0.51084
997.06782	0.51502
995.13926	0.51942
993.21069	0.52339
991.28213	0.52657
989.35356	0.52881
987.42500	0.53000
985.49644	0.53040
983.56787	0.53047
981.63931	0.53067
979.71074	0.53138
977.78218	0.53270
975.85361	0.53468
973.92505	0.53733
971.99648	0.54031
970.06792	0.54343
968.13936	0.54697
966.21079	0.55098
964.28223	0.55530
962.35366	0.56001
960.42510	0.56509
958.49653	0.57030
956.56797	0.57589
954.63940	0.58226
952.71084	0.58899
950.78228	0.59533
948.85371	0.60136
946.92515	0.60748
944.99658	0.61371
943.06802	0.62038
941.13945	0.62768
939.21089	0.63452
937.28232	0.64016
935.35376	0.64529
933.42520	0.65073
931.49663	0.65670
929.56807	0.66292
927.63950	0.66892
925.71094	0.67493
923.78237	0.68143
921.85381	0.68802
919.92524	0.69450
917.99668	0.70131
916.06812	0.70879
914.13955	0.71682
912.21099	0.72513
910.28242	0.73335
908.35386	0.74100
906.42529	0.74904
904.49673	0.75853
902.56816	0.76860
900.63960	0.77862
898.71104	0.78883
896.78247	0.79940
894.85391	0.81041
892.92534	0.82128
890.99678	0.83106
889.06821	0.84068
887.13965	0.85169
885.21108	0.86322
883.28252	0.87405
881.35396	0.88445
879.42539	0.89499
877.49683	0.90636
875.56826	0.91915
873.63970	0.93267
871.71113	0.94494
869.78257	0.95526
867.85400	0.96659
865.92544	0.97998
863.99687	0.99220
862.06831	1.00325
860.13975	1.01525
858.21118	1.02735
856.28262	1.03782
854.35405	1.04732
852.42549	1.05842
850.49692	1.07202
848.56836	1.08674
846.63979	1.10034
844.71123	1.11099
842.78267	1.12001
840.85410	1.13014
838.92554	1.14108
836.99697	1.15279
835.06841	1.16596
833.13984	1.17973
831.21128	1.19355
829.28271	1.20414
827.35415	1.21132
825.42559	1.22224
823.49702	1.23892
821.56846	1.25595
819.63989	1.26895
817.71133	1.28227
815.78276	1.30457
813.85420	1.32346
811.92563	1.33022
809.99707	1.34989
808.06851	1.38495
806.13994	1.40642
804.21138	1.41767
802.28281	1.43413
800.35425	1.43729
798.42568	1.45326
796.49712	1.52267
794.56855	1.61031
792.63999	1.67009
790.71143	1.66665
788.78286	1.61770
786.85430	1.61485
784.92573	1.70876
782.99717	1.75922
781.06860	1.75874
779.14004	1.79754
777.21147	1.78551
775.28291	1.74863
773.35435	1.85573
771.42578	4.62855
769.49722	4.61698
767.56865	4.60541
765.64009	1.64554
763.71152	1.55903
761.78296	1.53985
759.85439	1.50126
757.92583	1.49735
755.99727	1.40527
754.06870	1.29582
752.14014	1.26375
750.21157	1.24430
748.28301	1.17402
746.35444	1.12721
744.42588	1.08843
742.49731	0.99284
740.56875	0.91807
738.64019	0.89021
736.71162	0.83608
734.78306	0.77433
732.85449	0.76477
730.92593	0.79716
728.99736	0.77290
727.06880	0.57930
725.14023	0.38359
723.21167	0.29775
721.28311	0.28152
719.35454	0.25111
717.42598	0.22251
715.49741	0.24494
713.56885	0.32342
711.64028	0.45594
709.71172	0.58196
707.78315	0.51401
705.85459	0.20149
703.92603	-0.06985
701.99746	0.00291
700.06890	0.18736
698.14033	0.19352
696.21177	0.19599
694.28320	0.18775
692.35464	0.13079
690.42607	0.12811
688.49751	0.13986
686.56895	0.14861
684.64038	0.14164
682.71182	0.16665
680.78325	0.24389
678.85469	0.23471
676.92612	0.10841
674.99756	0.00421
673.06899	-0.03053
671.14043	-0.01614
669.21187	-0.00775
667.28330	-0.00479
665.35474	0.00750
663.42617	0.01905
661.49761	0.03871
659.56904	0.04407
657.64048	0.01433
655.71191	0.01082
653.78335	0.07085
651.85479	0.14870
649.92622	0.22947
647.99766	0.29787
646.06909	0.24895
644.14053	0.13514
642.21196	0.08360
640.28340	0.07655
638.35483	0.02440
636.42627	0.01805
634.49771	0.15293
632.56914	0.26967
630.64058	0.22153
628.71201	0.12742
626.78345	0.08516
624.85488	0.03960
622.92632	-0.03942
620.99775	-0.06045
619.06919	0.02169
617.14062	0.12264
615.21206	0.12650
613.28350	0.10505
611.35493	0.12890
609.42637	0.15533
607.49780	0.10556
605.56924	0.03988
603.64067	0.05819
601.71211	0.23808
599.78354	0.49257
597.85498	0.38952
595.92642	0.23549
593.99785	0.15785
592.06929	0.15408
590.14072	0.15019
588.21216	0.12677
586.28359	0.12637
584.35503	0.11084
582.42646	0.07175
580.49790	0.05576
578.56934	0.06209
576.64077	0.09004
574.71221	0.12312
572.78364	0.11923
570.85508	0.08842
568.92651	0.03238
566.99795	0.02334
565.06938	0.10886
563.14082	0.12069
561.21226	0.06888
559.28369	0.14669
557.35513	0.18851
555.42656	0.10350
553.49800	0.06989
551.56943	0.08191
549.64087	0.09076
547.71230	0.10900
545.78374	0.14224
543.85518	0.14781
541.92661	0.14379
539.99805	0.20270
538.06948	0.26382
536.14092	0.18863
534.21235	0.09649
532.28379	0.09850
530.35522	0.12632
528.42666	0.14810
526.49810	0.16273
524.56953	0.14657
522.64097	0.09390
520.71240	0.05575
518.78384	0.04240
516.85527	0.06335
514.92671	0.12837
512.99814	0.15597
511.06958	0.13362
509.14102	0.15942
507.21245	0.17478
505.28389	0.13956
503.35532	0.14013
501.42676	0.13918
499.49819	0.07645
