3997.91411	0.05808
3995.98555	0.05880
3994.05698	0.05937
3992.12842	0.05980
3990.19985	0.06030
3988.27129	0.06071
3986.34272	0.06087
3984.41416	0.06109
3982.48560	0.06155
3980.55703	0.06178
3978.62847	0.06149
3976.69990	0.06129
3974.77134	0.06150
3972.84277	0.06182
3970.91421	0.06198
3968.98564	0.06194
3967.05708	0.06204
3965.12852	0.06244
3963.19995	0.06284
3961.27139	0.06291
3959.34282	0.06288
3957.41426	0.06304
3955.48569	0.06329
3953.55713	0.06357
3951.62856	0.06387
3949.70000	0.06408
3947.77144	0.06388
3945.84287	0.06324
3943.91431	0.06295
3941.98574	0.06348
3940.05718	0.06395
3938.12861	0.06373
3936.20005	0.06320
3934.27148	0.06295
3932.34292	0.06294
3930.41436	0.06265
3928.48579	0.06253
3926.55723	0.06303
3924.62866	0.06361
3922.70010	0.06368
3920.77153	0.06337
3918.84297	0.06315
3916.91440	0.06310
3914.98584	0.06283
3913.05728	0.06234
3911.12871	0.06217
3909.20015	0.06233
3907.27158	0.06275
3905.34302	0.06375
3903.41445	0.06509
3901.48589	0.06557
3899.55732	0.06507
3897.62876	0.06396
3895.70020	0.06272
3893.77163	0.06247
3891.84307	0.06337
3889.91450	0.06391
3887.98594	0.06341
3886.05737	0.06343
3884.12881	0.06423
3882.20024	0.06486
3880.27168	0.06541
3878.34312	0.06553
3876.41455	0.06500
3874.48599	0.06511
3872.55742	0.06589
3870.62886	0.06639
3868.70029	0.06657
3866.77173	0.06647
3864.84316	0.06682
3862.91460	0.06760
3860.98604	0.06766
3859.05747	0.06780
3857.12891	0.06863
3855.20034	0.06951
3853.27178	0.07048
3851.34321	0.07142
3849.41465	0.07088
3847.48608	0.06985
3845.55752	0.06961
3843.62896	0.07062
3841.70039	0.07233
3839.77183	0.07419
3837.84326	0.07588
3835.91470	0.07612
3833.98613	0.07535
3832.05757	0.07480
3830.12900	0.07491
3828.20044	0.07586
3826.27187	0.07728
3824.34331	0.07831
3822.41475	0.07919
3820.48618	0.08123
3818.55762	0.08307
3816.62905	0.08340
3814.70049	0.08329
3812.77192	0.08260
3810.84336	0.08203
3808.91479	0.08270
3806.98623	0.08464
3805.05767	0.08669
3803.12910	0.08820
3801.20054	0.09047
3799.27197	0.09233
3797.34341	0.09231
3795.41484	0.09245
3793.48628	0.09289
3791.55771	0.09326
3789.62915	0.09417
3787.70059	0.09562
3785.77202	0.09729
3783.84346	0.09885
3781.91489	0.10013
3779.98633	0.10193
3778.05776	0.10443
3776.12920	0.10609
3774.20063	0.10676
3772.27207	0.10759
3770.34351	0.10934
3768.41494	0.11189
3766.48638	0.11402
3764.55781	0.11579
3762.62925	0.11772
3760.70068	0.12030
3758.77212	0.12363
3756.84355	0.12629
3754.91499	0.12791
3752.98643	0.13041
3751.05786	0.13539
3749.12930	0.14085
3747.20073	0.14274
3745.27217	0.14324
3743.34360	0.14551
3741.41504	0.14886
3739.48647	0.15125
3737.55791	0.15388
3735.62935	0.15874
3733.70078	0.16483
3731.77222	0.16875
3729.84365	0.17172
3727.91509	0.17537
3725.98652	0.18065
3724.05796	0.18764
3722.12939	0.19502
3720.20083	0.20216
3718.27227	0.20881
3716.34370	0.21549
3714.41514	0.22273
3712.48657	0.23185
3710.55801	0.24517
3708.62944	0.25950
3706.70088	0.27063
3704.77231	0.28103
3702.84375	0.29367
3700.91519	0.31054
3698.98662	0.32913
3697.05806	0.34650
3695.12949	0.36455
3693.20093	0.38369
3691.27236	0.40492
3689.34380	0.43300
3687.41523	0.46728
3685.48667	0.49656
3683.55811	0.52163
3681.62954	0.54912
3679.70098	0.58059
3677.77241	0.61364
3675.84385	0.65245
3673.91528	0.70454
3671.98672	0.74682
3670.05815	0.78445
3668.12959	0.83695
3666.20103	0.88502
3664.27246	0.92504
3662.34390	0.96765
3660.41533	1.01326
3658.48677	1.05850
3656.55820	1.10725
3654.62964	1.16145
3652.70107	1.20665
3650.77251	1.24624
3648.84395	1.30146
3646.91538	1.36911
3644.98682	1.41866
3643.05825	1.45696
3641.12969	1.49591
3639.20112	1.53851
3637.27256	1.58180
3635.34399	1.62418
3633.41543	1.66618
3631.48687	1.70547
3629.55830	1.74523
3627.62974	1.79750
3625.70117	1.84772
3623.77261	1.88255
3621.84404	1.91586
3619.91548	1.95409
3617.98691	2.00019
3616.05835	2.04409
3614.12979	2.08031
3612.20122	2.11817
3610.27266	2.15573
3608.34409	2.19379
3606.41553	2.23656
3604.48696	2.27692
3602.55840	2.31185
3600.62983	2.34980
3598.70127	2.39104
3596.77271	2.42975
3594.84414	2.46935
3592.91558	2.51187
3590.98701	2.55129
3589.05845	2.58621
3587.12988	2.62794
3585.20132	2.67649
3583.27275	2.71880
3581.34419	2.75741
3579.41562	2.79749
3577.48706	2.83874
3575.55850	2.88121
3573.62993	2.92550
3571.70137	2.96757
3569.77280	3.00700
3567.84424	3.04932
3565.91567	3.10101
3563.98711	3.15153
3562.05854	3.19310
3560.12998	3.23366
3558.20142	3.27647
3556.27285	3.32050
3554.34429	3.36331
3552.41572	3.40809
3550.48716	3.45657
3548.55859	3.50473
3546.63003	3.55185
3544.70146	3.60075
3542.77290	3.65005
3540.84434	3.69734
3538.91577	3.74413
3536.98721	3.79266
3535.05864	3.84260
3533.13008	3.88847
3531.20151	3.93179
3529.27295	3.97678
3527.34438	4.02311
3525.41582	4.06954
3523.48726	4.11755
3521.55869	4.16788
3519.63013	4.21637
3517.70156	4.26468
3515.77300	4.31284
3513.84443	4.35815
3511.91587	4.40413
3509.98730	4.45310
3508.05874	4.50409
3506.13018	4.55361
3504.20161	4.59769
3502.27305	4.64049
3500.34448	4.68610
3498.41592	4.73019
3496.48735	4.77248
3494.55879	4.81953
3492.63022	4.87493
3490.70166	4.93425
3488.77310	4.98880
3486.84453	5.03467
3484.91597	5.08397
3482.98740	5.14555
3481.05884	5.20483
3479.13027	5.24530
3477.20171	5.27565
3475.27314	5.31409
3473.34458	5.36341
3471.41602	5.41216
3469.48745	5.45882
3467.55889	5.51112
3465.63032	5.56083
3463.70176	5.60354
3461.77319	5.65089
3459.84463	5.70742
3457.91606	5.76637
3455.98750	5.83032
3454.05894	5.88732
3452.13037	5.91381
3450.20181	5.93478
3448.27324	5.98606
3446.34468	6.06021
3444.41611	6.12353
3442.48755	6.17288
3440.55898	6.21126
3438.63042	6.24029
3436.70186	6.28522
3434.77329	6.33962
3432.84473	6.38404
3430.91616	6.42473
3428.98760	6.46849
3427.05903	6.51732
3425.13047	6.58189
3423.20190	6.65766
3421.27334	6.71808
3419.34478	6.75011
3417.41621	6.78394
3415.48765	6.82703
3413.55908	6.86172
3411.63052	6.91780
3409.70195	6.98920
3407.77339	7.03839
3405.84482	7.06433
3403.91626	7.06942
3401.98770	7.06376
3400.05913	7.09918
3398.13057	7.18110
3396.20200	7.25001
3394.27344	7.28552
3392.34487	7.29515
3390.41631	7.32705
3388.48774	7.40653
3386.55918	7.49666
3384.63062	7.56249
3382.70205	7.60504
3380.77349	7.62571
3378.84492	7.60289
3376.91636	7.56805
3374.98779	7.56576
3373.05923	7.58799
3371.13066	7.60599
3369.20210	7.65234
3367.27354	7.72948
3365.34497	7.77257
3363.41641	7.75782
3361.48784	7.75516
3359.55928	7.81139
3357.63071	7.84292
3355.70215	7.86553
3353.77358	7.97847
3351.84502	8.13866
3349.91646	8.19663
3347.98789	8.12800
3346.05933	8.01286
3344.13076	7.90918
3342.20220	7.86972
3340.27363	7.86214
3338.34507	7.86645
3336.41650	7.92563
3334.48794	7.98698
3332.55937	7.95480
3330.63081	7.89224
3328.70225	7.89097
3326.77368	7.97080
3324.84512	8.06536
3322.91655	8.07545
3320.98799	8.03526
3319.05942	8.00587
3317.13086	8.01313
3315.20229	8.02656
3313.27373	8.01594
3311.34517	8.02860
3309.41660	8.08340
3307.48804	8.13184
3305.55947	8.16637
3303.63091	8.19061
3301.70234	8.13329
3299.77378	8.01969
3297.84521	7.97413
3295.91665	8.02967
3293.98809	8.09573
3292.05952	8.17713
3290.13096	8.28743
3288.20239	8.29806
3286.27383	8.17849
3284.34526	8.01797
3282.41670	7.95458
3280.48813	8.00114
3278.55957	8.04058
3276.63101	8.04682
3274.70244	8.05734
3272.77388	8.05596
3270.84531	8.07824
3268.91675	8.14365
3266.98818	8.18844
3265.05962	8.21730
3263.13105	8.17941
3261.20249	8.06072
3259.27393	7.98943
3257.34536	8.01237
3255.41680	8.06285
3253.48823	8.07978
3251.55967	8.11396
3249.63110	8.14764
3247.70254	8.04143
3245.77397	7.85915
3243.84541	7.80904
3241.91685	7.94911
3239.98828	8.13796
3238.05972	8.18575
3236.13115	8.11559
3234.20259	8.07644
3232.27402	8.12768
3230.34546	8.20034
3228.41689	8.21017
3226.48833	8.15250
3224.55977	8.04623
3222.63120	7.95735
3220.70264	7.89999
3218.77407	7.86924
3216.84551	7.91420
3214.91694	7.98328
3212.98838	7.97673
3211.05981	7.92378
3209.13125	7.86122
3207.20269	7.80290
3205.27412	7.78066
3203.34556	7.75343
3201.41699	7.70881
3199.48843	7.68197
3197.55986	7.64175
3195.63130	7.57814
3193.70273	7.52169
3191.77417	7.48893
3189.84561	7.46790
3187.91704	7.43044
3185.98848	7.38720
3184.05991	7.32965
3182.13135	7.25531
3180.20278	7.21471
3178.27422	7.18077
3176.34565	7.12546
3174.41709	7.10325
3172.48853	7.09598
3170.55996	7.03999
3168.63140	6.96075
3166.70283	6.89056
3164.77427	6.81159
3162.84570	6.73263
3160.91714	6.67657
3158.98857	6.63785
3157.06001	6.60572
3155.13145	6.57938
3153.20288	6.52588
3151.27432	6.41818
3149.34575	6.31711
3147.41719	6.26657
3145.48862	6.22981
3143.56006	6.17422
3141.63149	6.09812
3139.70293	6.00952
3137.77437	5.93022
3135.84580	5.86633
3133.91724	5.79432
3131.98867	5.70557
3130.06011	5.62147
3128.13154	5.54963
3126.20298	5.48230
3124.27441	5.42076
3122.34585	5.35853
3120.41729	5.28432
3118.48872	5.20457
3116.56016	5.13044
3114.63159	5.06304
3112.70303	5.00005
3110.77446	4.93455
3108.84590	4.86078
3106.91733	4.78699
3104.98877	4.71967
3103.06021	4.65547
3101.13164	4.59307
3099.20308	4.53020
3097.27451	4.46296
3095.34595	4.39358
3093.41738	4.32439
3091.48882	4.25735
3089.56025	4.19520
3087.63169	4.13527
3085.70312	4.07379
3083.77456	4.00932
3081.84600	3.94302
3079.91743	3.87877
3077.98887	3.81771
3076.06030	3.75807
3074.13174	3.70073
3072.20317	3.64632
3070.27461	3.59130
3068.34604	3.53402
3066.41748	3.47688
3064.48892	3.42129
3062.56035	3.36563
3060.63179	3.30835
3058.70322	3.25086
3056.77466	3.19534
3054.84609	3.14133
3052.91753	3.08824
3050.98896	3.03685
3049.06040	2.98639
3047.13184	2.93625
3045.20327	2.88702
3043.27471	2.83812
3041.34614	2.78889
3039.41758	2.74058
3037.48901	2.69432
3035.56045	2.64940
3033.63188	2.60454
3031.70332	2.55846
3029.77476	2.51147
3027.84619	2.46603
3025.91763	2.42303
3023.98906	2.38114
3022.06050	2.33949
3020.13193	2.29798
3018.20337	2.25715
3016.27480	2.21746
3014.34624	2.17813
3012.41768	2.13894
3010.48911	2.10070
3008.56055	2.06397
3006.63198	2.02821
3004.70342	1.99211
3002.77485	1.95591
3000.84629	1.92106
2998.91772	1.88767
2996.98916	1.85474
2995.06060	1.82197
2993.13203	1.78976
2991.20347	1.75805
2989.27490	1.72689
2987.34634	1.69684
2985.41777	1.66769
2983.48921	1.63879
2981.56064	1.61051
2979.63208	1.58315
2977.70352	1.55637
2975.77495	1.53007
2973.84639	1.50400
2971.91782	1.47808
2969.98926	1.45246
2968.06069	1.42704
2966.13213	1.40215
2964.20356	1.37813
2962.27500	1.35456
2960.34644	1.33099
2958.41787	1.30751
2956.48931	1.28397
2954.56074	1.25990
2952.63218	1.23583
2950.70361	1.21263
2948.77505	1.19009
2946.84648	1.16812
2944.91792	1.14699
2942.98936	1.12643
2941.06079	1.10640
2939.13223	1.08661
2937.20366	1.06673
2935.27510	1.04737
2933.34653	1.02862
2931.41797	1.00990
2929.48940	0.99119
2927.56084	0.97260
2925.63228	0.95436
2923.70371	0.93701
2921.77515	0.92034
2919.84658	0.90384
2917.91802	0.88742
2915.98945	0.87062
2914.06089	0.85360
2912.13232	0.83739
2910.20376	0.82196
2908.27520	0.80678
2906.34663	0.79209
2904.41807	0.77794
2902.48950	0.76389
2900.56094	0.75005
2898.63237	0.73707
2896.70381	0.72469
2894.77524	0.71225
2892.84668	0.69994
2890.91812	0.68804
2888.98955	0.67658
2887.06099	0.66538
2885.13242	0.65423
2883.20386	0.64330
2881.27529	0.63301
2879.34673	0.62343
2877.41816	0.61415
2875.48960	0.60446
2873.56104	0.59434
2871.63247	0.58423
2869.70391	0.57400
2867.77534	0.56345
2865.84678	0.55274
2863.91821	0.54203
2861.98965	0.53158
2860.06108	0.52170
2858.13252	0.51234
2856.20396	0.50318
2854.27539	0.49421
2852.34683	0.48553
2850.41826	0.47711
2848.48970	0.46897
2846.56113	0.46132
2844.63257	0.45409
2842.70400	0.44699
2840.77544	0.44022
2838.84687	0.43400
2836.91831	0.42802
2834.98975	0.42187
2833.06118	0.41569
2831.13262	0.40972
2829.20405	0.40404
2827.27549	0.39855
2825.34692	0.39285
2823.41836	0.38681
2821.48979	0.38083
2819.56123	0.37511
2817.63267	0.36943
2815.70410	0.36397
2813.77554	0.35890
2811.84697	0.35378
2809.91841	0.34847
2807.98984	0.34330
2806.06128	0.33837
2804.13271	0.33355
2802.20415	0.32861
2800.27559	0.32350
2798.34702	0.31861
2796.41846	0.31395
2794.48989	0.30925
2792.56133	0.30474
2790.63276	0.30065
2788.70420	0.29664
2786.77563	0.29238
2784.84707	0.28805
2782.91851	0.28409
2780.98994	0.28046
2779.06138	0.27674
2777.13281	0.27285
2775.20425	0.26904
2773.27568	0.26541
2771.34712	0.26186
2769.41855	0.25850
2767.48999	0.25533
2765.56143	0.25211
2763.63286	0.24877
2761.70430	0.24546
2759.77573	0.24225
2757.84717	0.23920
2755.91860	0.23637
2753.99004	0.23353
2752.06147	0.23057
2750.13291	0.22768
2748.20435	0.22500
2746.27578	0.22240
2744.34722	0.21964
2742.41865	0.21693
2740.49009	0.21458
2738.56152	0.21239
2736.63296	0.21004
2734.70439	0.20751
2732.77583	0.20490
2730.84727	0.20239
2728.91870	0.20012
2726.99014	0.19808
2725.06157	0.19615
2723.13301	0.19426
2721.20444	0.19242
2719.27588	0.19061
2717.34731	0.18879
2715.41875	0.18693
2713.49019	0.18504
2711.56162	0.18326
2709.63306	0.18164
2707.70449	0.18023
2705.77593	0.17898
2703.84736	0.17756
2701.91880	0.17584
2699.99023	0.17412
2698.06167	0.17263
2696.13311	0.17136
2694.20454	0.17017
2692.27598	0.16884
2690.34741	0.16734
2688.41885	0.16598
2686.49028	0.16487
2684.56172	0.16383
2682.63315	0.16283
2680.70459	0.16181
2678.77603	0.16073
2676.84746	0.15969
2674.91890	0.15861
2672.99033	0.15751
2671.06177	0.15667
2669.13320	0.15601
2667.20464	0.15524
2665.27607	0.15435
2663.34751	0.15347
2661.41895	0.15262
2659.49038	0.15166
2657.56182	0.15077
2655.63325	0.15021
2653.70469	0.14980
2651.77612	0.14922
2649.84756	0.14839
2647.91899	0.14762
2645.99043	0.14718
2644.06187	0.14688
2642.13330	0.14648
2640.20474	0.14610
2638.27617	0.14563
2636.34761	0.14501
2634.41904	0.14454
2632.49048	0.14433
2630.56191	0.14407
2628.63335	0.14371
2626.70479	0.14335
2624.77622	0.14300
2622.84766	0.14270
2620.91909	0.14247
2618.99053	0.14231
2617.06196	0.14219
2615.13340	0.14208
2613.20483	0.14196
2611.27627	0.14185
2609.34771	0.14173
2607.41914	0.14164
2605.49058	0.14173
2603.56201	0.14195
2601.63345	0.14209
2599.70488	0.14201
2597.77632	0.14190
2595.84775	0.14195
2593.91919	0.14207
2591.99062	0.14215
2590.06206	0.14226
2588.13350	0.14241
2586.20493	0.14262
2584.27637	0.14292
2582.34780	0.14315
2580.41924	0.14336
2578.49067	0.14366
2576.56211	0.14392
2574.63354	0.14418
2572.70498	0.14464
2570.77642	0.14519
2568.84785	0.14560
2566.91929	0.14591
2564.99072	0.14623
2563.06216	0.14663
2561.13359	0.14711
2559.20503	0.14762
2557.27646	0.14807
2555.34790	0.14859
2553.41934	0.14925
2551.49077	0.14986
2549.56221	0.15039
2547.63364	0.15096
2545.70508	0.15159
2543.77651	0.15222
2541.84795	0.15289
2539.91938	0.15361
2537.99082	0.15428
2536.06226	0.15488
2534.13369	0.15550
2532.20513	0.15616
2530.27656	0.15678
2528.34800	0.15749
2526.41943	0.15830
2524.49087	0.15898
2522.56230	0.15959
2520.63374	0.16036
2518.70518	0.16119
2516.77661	0.16184
2514.84805	0.16241
2512.91948	0.16318
2510.99092	0.16412
2509.06235	0.16512
2507.13379	0.16617
2505.20522	0.16713
2503.27666	0.16791
2501.34810	0.16871
2499.41953	0.16963
2497.49097	0.17048
2495.56240	0.17113
2493.63384	0.17186
2491.70527	0.17288
2489.77671	0.17398
2487.84814	0.17495
2485.91958	0.17576
2483.99102	0.17647
2482.06245	0.17724
2480.13389	0.17819
2478.20532	0.17923
2476.27676	0.18019
2474.34819	0.18104
2472.41963	0.18187
2470.49106	0.18271
2468.56250	0.18348
2466.63394	0.18428
2464.70537	0.18526
2462.77681	0.18640
2460.84824	0.18754
2458.91968	0.18855
2456.99111	0.18949
2455.06255	0.19045
2453.13398	0.19129
2451.20542	0.19212
2449.27686	0.19311
2447.34829	0.19415
2445.41973	0.19512
2443.49116	0.19622
2441.56260	0.19737
2439.63403	0.19836
2437.70547	0.19935
2435.77690	0.20041
2433.84834	0.20146
2431.91978	0.20250
2429.99121	0.20353
2428.06265	0.20453
2426.13408	0.20553
2424.20552	0.20664
2422.27695	0.20783
2420.34839	0.20901
2418.41982	0.21021
2416.49126	0.21136
2414.56270	0.21240
2412.63413	0.21343
2410.70557	0.21451
2408.77700	0.21561
2406.84844	0.21670
2404.91987	0.21786
2402.99131	0.21921
2401.06274	0.22073
2399.13418	0.22214
2397.20562	0.22321
2395.27705	0.22417
2393.34849	0.22530
2391.41992	0.22665
2389.49136	0.22807
2387.56279	0.22934
2385.63423	0.23037
2383.70566	0.23133
2381.77710	0.23231
2379.84854	0.23317
2377.91997	0.23394
2375.99141	0.23470
2374.06284	0.23530
2372.13428	0.23554
2370.20571	0.23556
2368.27715	0.23556
2366.34858	0.23559
2364.42002	0.23596
2362.49146	0.23695
2360.56289	0.23840
2358.63433	0.24062
2356.70576	0.24378
2354.77720	0.24752
2352.84863	0.25073
2350.92007	0.25283
2348.99150	0.25421
2347.06294	0.25502
2345.13437	0.25556
2343.20581	0.25628
2341.27725	0.25748
2339.34868	0.25879
2337.42012	0.26005
2335.49155	0.26211
2333.56299	0.26464
2331.63442	0.26697
2329.70586	0.26923
2327.77729	0.27150
2325.84873	0.27357
2323.92017	0.27549
2321.99160	0.27752
2320.06304	0.27957
2318.13447	0.28158
2316.20591	0.28363
2314.27734	0.28565
2312.34878	0.28756
2310.42021	0.28954
2308.49165	0.29155
2306.56309	0.29337
2304.63452	0.29523
2302.70596	0.29738
2300.77739	0.29954
2298.84883	0.30144
2296.92026	0.30337
2294.99170	0.30547
2293.06313	0.30756
2291.13457	0.30951
2289.20601	0.31132
2287.27744	0.31309
2285.34888	0.31502
2283.42031	0.31716
2281.49175	0.31927
2279.56318	0.32126
2277.63462	0.32325
2275.70605	0.32523
2273.77749	0.32721
2271.84893	0.32934
2269.92036	0.33159
2267.99180	0.33374
2266.06323	0.33581
2264.13467	0.33783
2262.20610	0.33980
2260.27754	0.34195
2258.34897	0.34434
2256.42041	0.34664
2254.49185	0.34880
2252.56328	0.35098
2250.63472	0.35318
2248.70615	0.35549
2246.77759	0.35788
2244.84902	0.36002
2242.92046	0.36198
2240.99189	0.36404
2239.06333	0.36620
2237.13477	0.36835
2235.20620	0.37055
2233.27764	0.37293
2231.34907	0.37530
2229.42051	0.37738
2227.49194	0.37945
2225.56338	0.38179
2223.63481	0.38427
2221.70625	0.38660
2219.77769	0.38882
2217.84912	0.39105
2215.92056	0.39322
2213.99199	0.39532
2212.06343	0.39742
2210.13486	0.39947
2208.20630	0.40142
2206.27773	0.40340
2204.34917	0.40558
2202.42061	0.40792
2200.49204	0.41019
2198.56348	0.41223
2196.63491	0.41409
2194.70635	0.41595
2192.77778	0.41782
2190.84922	0.41973
2188.92065	0.42162
2186.99209	0.42339
2185.06353	0.42511
2183.13496	0.42681
2181.20640	0.42854
2179.27783	0.43030
2177.34927	0.43197
2175.42070	0.43345
2173.49214	0.43487
2171.56357	0.43627
2169.63501	0.43764
2167.70645	0.43900
2165.77788	0.44027
2163.84932	0.44141
2161.92075	0.44256
2159.99219	0.44378
2158.06362	0.44484
2156.13506	0.44572
2154.20649	0.44660
2152.27793	0.44751
2150.34937	0.44827
2148.42080	0.44877
2146.49224	0.44918
2144.56367	0.44955
2142.63511	0.44989
2140.70654	0.45022
2138.77798	0.45053
2136.84941	0.45079
2134.92085	0.45109
2132.99229	0.45121
2131.06372	0.45106
2129.13516	0.45082
2127.20659	0.45061
2125.27803	0.45037
2123.34946	0.44990
2121.42090	0.44926
2119.49233	0.44867
2117.56377	0.44809
2115.63521	0.44731
2113.70664	0.44641
2111.77808	0.44553
2109.84951	0.44460
2107.92095	0.44352
2105.99238	0.44236
2104.06382	0.44125
2102.13525	0.44007
2100.20669	0.43869
2098.27812	0.43721
2096.34956	0.43573
2094.42100	0.43418
2092.49243	0.43255
2090.56387	0.43096
2088.63530	0.42932
2086.70674	0.42746
2084.77817	0.42544
2082.84961	0.42342
2080.92104	0.42134
2078.99248	0.41933
2077.06392	0.41737
2075.13535	0.41523
2073.20679	0.41296
2071.27822	0.41069
2069.34966	0.40844
2067.42109	0.40620
2065.49253	0.40397
2063.56396	0.40160
2061.63540	0.39913
2059.70684	0.39661
2057.77827	0.39406
2055.84971	0.39157
2053.92114	0.38916
2051.99258	0.38665
2050.06401	0.38395
2048.13545	0.38122
2046.20688	0.37846
2044.27832	0.37571
2042.34976	0.37307
2040.42119	0.37047
2038.49263	0.36778
2036.56406	0.36503
2034.63550	0.36230
2032.70693	0.35947
2030.77837	0.35660
2028.84980	0.35380
2026.92124	0.35111
2024.99268	0.34841
2023.06411	0.34561
2021.13555	0.34283
2019.20698	0.34019
2017.27842	0.33756
2015.34985	0.33475
2013.42129	0.33188
2011.49272	0.32911
2009.56416	0.32645
2007.63560	0.32382
2005.70703	0.32115
2003.77847	0.31845
2001.84990	0.31582
1999.92134	0.31328
1997.99277	0.31076
1996.06421	0.30825
1994.13564	0.30584
1992.20708	0.30348
1990.27852	0.30091
1988.34995	0.29823
1986.42139	0.29564
1984.49282	0.29319
1982.56426	0.29086
1980.63569	0.28868
1978.70713	0.28657
1976.77856	0.28438
1974.85000	0.28219
1972.92144	0.28002
1970.99287	0.27787
1969.06431	0.27582
1967.13574	0.27382
1965.20718	0.27175
1963.27861	0.26976
1961.35005	0.26786
1959.42148	0.26590
1957.49292	0.26395
1955.56436	0.26217
1953.63579	0.26056
1951.70723	0.25895
1949.77866	0.25733
1947.85010	0.25578
1945.92153	0.25436
1943.99297	0.25310
1942.06440	0.25170
1940.13584	0.24995
1938.20728	0.24825
1936.27871	0.24685
1934.35015	0.24558
1932.42158	0.24442
1930.49302	0.24333
1928.56445	0.24224
1926.63589	0.24115
1924.70732	0.24030
1922.77876	0.23957
1920.85020	0.23861
1918.92163	0.23764
1916.99307	0.23685
1915.06450	0.23600
1913.13594	0.23506
1911.20737	0.23432
1909.27881	0.23374
1907.35024	0.23308
1905.42168	0.23234
1903.49312	0.23173
1901.56455	0.23120
1899.63599	0.23061
1897.70742	0.23006
1895.77886	0.22975
1893.85029	0.22960
1891.92173	0.22940
1889.99316	0.22927
1888.06460	0.22900
1886.13604	0.22857
1884.20747	0.22827
1882.27891	0.22812
1880.35034	0.22803
1878.42178	0.22791
1876.49321	0.22787
1874.56465	0.22787
1872.63608	0.22802
1870.70752	0.22847
1868.77896	0.22922
1866.85039	0.22956
1864.92183	0.22935
1862.99326	0.22923
1861.06470	0.22934
1859.13613	0.22958
1857.20757	0.22989
1855.27900	0.23038
1853.35044	0.23094
1851.42187	0.23150
1849.49331	0.23211
1847.56475	0.23298
1845.63618	0.23407
1843.70762	0.23514
1841.77905	0.23577
1839.85049	0.23610
1837.92192	0.23674
1835.99336	0.23757
1834.06479	0.23848
1832.13623	0.23960
1830.20767	0.24118
1828.27910	0.24258
1826.35054	0.24353
1824.42197	0.24481
1822.49341	0.24604
1820.56484	0.24714
1818.63628	0.24850
1816.70771	0.25017
1814.77915	0.25178
1812.85059	0.25354
1810.92202	0.25571
1808.99346	0.25790
1807.06489	0.25986
1805.13633	0.26170
1803.20776	0.26388
1801.27920	0.26648
1799.35063	0.26937
1797.42207	0.27188
1795.49351	0.27422
1793.56494	0.27707
1791.63638	0.28089
1789.70781	0.28437
1787.77925	0.28673
1785.85068	0.28966
1783.92212	0.29343
1781.99355	0.29754
1780.06499	0.30180
1778.13643	0.30607
1776.20786	0.31004
1774.27930	0.31441
1772.35073	0.32035
1770.42217	0.32666
1768.49360	0.33186
1766.56504	0.33688
1764.63647	0.34213
1762.70791	0.34812
1760.77935	0.35576
1758.85078	0.36279
1756.92222	0.36977
1754.99365	0.37742
1753.06509	0.38441
1751.13652	0.39287
1749.20796	0.40372
1747.27939	0.41438
1745.35083	0.42350
1743.42227	0.43297
1741.49370	0.44349
1739.56514	0.45611
1737.63657	0.46877
1735.70801	0.47973
1733.77944	0.49629
1731.85088	0.51608
1729.92231	0.53142
1727.99375	0.54688
1726.06519	0.56358
1724.13662	0.58177
1722.20806	0.60149
1720.27949	0.61999
1718.35093	0.64189
1716.42236	0.67401
1714.49380	0.70423
1712.56523	0.72864
1710.63667	0.75238
1708.70811	0.77794
1706.77954	0.80705
1704.85098	0.84203
1702.92241	0.87323
1700.99385	0.90395
1699.06528	0.95002
1697.13672	0.99261
1695.20815	1.03575
1693.27959	1.07730
1691.35103	1.11111
1689.42246	1.15062
1687.49390	1.19214
1685.56533	1.23166
1683.63677	1.29317
1681.70820	1.35792
1679.77964	1.39894
1677.85107	1.43720
1675.92251	1.48156
1673.99395	1.53785
1672.06538	1.58856
1670.13682	1.63814
1668.20825	1.70178
1666.27969	1.75228
1664.35112	1.79484
1662.42256	1.84968
1660.49399	1.91252
1658.56543	1.96169
1656.63687	2.00101
1654.70830	2.03538
1652.77974	2.08722
1650.85117	2.14017
1648.92261	2.16158
1646.99404	2.18716
1645.06548	2.21738
1643.13691	2.23841
1641.20835	2.24916
1639.27979	2.25647
1637.35122	2.25947
1635.42266	2.25841
1633.49409	2.25317
1631.56553	2.24087
1629.63696	2.22372
1627.70840	2.19645
1625.77983	2.16583
1623.85127	2.12647
1621.92271	2.07574
1619.99414	2.03000
1618.06558	1.98611
1616.13701	1.92378
1614.20845	1.86046
1612.27988	1.81208
1610.35132	1.76138
1608.42275	1.70685
1606.49419	1.65349
1604.56562	1.60398
1602.63706	1.55556
1600.70850	1.50842
1598.77993	1.46568
1596.85137	1.42578
1594.92280	1.38671
1592.99424	1.34842
1591.06567	1.31294
1589.13711	1.27983
1587.20854	1.24939
1585.27998	1.22138
1583.35142	1.19515
1581.42285	1.17117
1579.49429	1.15063
1577.56572	1.13227
1575.63716	1.11052
1573.70859	1.09147
1571.78003	1.07891
1569.85146	1.06607
1567.92290	1.05203
1565.99434	1.04152
1564.06577	1.03356
1562.13721	1.02745
1560.20864	1.02336
1558.28008	1.01952
1556.35151	1.01697
1554.42295	1.01472
1552.49438	1.01199
1550.56582	1.00825
1548.63726	1.00267
1546.70869	0.99582
1544.78013	0.98730
1542.85156	0.97646
1540.92300	0.96161
1538.99443	0.93855
1537.06587	0.92077
1535.13730	0.90855
1533.20874	0.89272
1531.28018	0.87569
1529.35161	0.86339
1527.42305	0.85209
1525.49448	0.84028
1523.56592	0.83006
1521.63735	0.82057
1519.70879	0.81117
1517.78022	0.80292
1515.85166	0.79297
1513.92310	0.78265
1511.99453	0.77412
1510.06597	0.76676
1508.13740	0.75966
1506.20884	0.74793
1504.28027	0.73724
1502.35171	0.73128
1500.42314	0.72626
1498.49458	0.72093
1496.56602	0.71454
1494.63745	0.70822
1492.70889	0.70359
1490.78032	0.69983
1488.85176	0.69525
1486.92319	0.69027
1484.99463	0.68612
1483.06606	0.68295
1481.13750	0.68045
1479.20894	0.67846
1477.28037	0.67708
1475.35181	0.67626
1473.42324	0.67577
1471.49468	0.67440
1469.56611	0.67208
1467.63755	0.66982
1465.70898	0.66780
1463.78042	0.66589
1461.85186	0.66446
1459.92329	0.66380
1457.99473	0.66347
1456.06616	0.66194
1454.13760	0.65918
1452.20903	0.65678
1450.28047	0.65456
1448.35190	0.65227
1446.42334	0.64974
1444.49478	0.64727
1442.56621	0.64500
1440.63765	0.64264
1438.70908	0.64022
1436.78052	0.63750
1434.85195	0.63439
1432.92339	0.63161
1430.99482	0.62957
1429.06626	0.62821
1427.13770	0.62739
1425.20913	0.62707
1423.28057	0.62711
1421.35200	0.62710
1419.42344	0.62704
1417.49487	0.62640
1415.56631	0.62492
1413.63774	0.62359
1411.70918	0.62292
1409.78062	0.62301
1407.85205	0.62362
1405.92349	0.62448
1403.99492	0.62515
1402.06636	0.62507
1400.13779	0.62432
1398.20923	0.62309
1396.28066	0.62139
1394.35210	0.61883
1392.42354	0.61543
1390.49497	0.61199
1388.56641	0.60862
1386.63784	0.60494
1384.70928	0.60106
1382.78071	0.59734
1380.85215	0.59389
1378.92358	0.59090
1376.99502	0.58876
1375.06646	0.58733
1373.13789	0.58601
1371.20933	0.58477
1369.28076	0.58374
1367.35220	0.58263
1365.42363	0.58139
1363.49507	0.58014
1361.56650	0.57875
1359.63794	0.57725
1357.70937	0.57599
1355.78081	0.57496
1353.85225	0.57406
1351.92368	0.57324
1349.99512	0.57245
1348.06655	0.57159
1346.13799	0.57067
1344.20942	0.56986
1342.28086	0.56930
1340.35229	0.56891
1338.42373	0.56830
1336.49517	0.56742
1334.56660	0.56665
1332.63804	0.56627
1330.70947	0.56622
1328.78091	0.56626
1326.85234	0.56626
1324.92378	0.56632
1322.99521	0.56651
1321.06665	0.56674
1319.13809	0.56696
1317.20952	0.56706
1315.28096	0.56679
1313.35239	0.56623
1311.42383	0.56561
1309.49526	0.56501
1307.56670	0.56443
1305.63813	0.56381
1303.70957	0.56316
1301.78101	0.56245
1299.85244	0.56165
1297.92388	0.56088
1295.99531	0.56016
1294.06675	0.55940
1292.13818	0.55854
1290.20962	0.55749
1288.28105	0.55633
1286.35249	0.55520
1284.42393	0.55409
1282.49536	0.55299
1280.56680	0.55203
1278.63823	0.55120
1276.70967	0.55034
1274.78110	0.54949
1272.85254	0.54886
1270.92397	0.54841
1268.99541	0.54772
1267.06685	0.54663
1265.13828	0.54556
1263.20972	0.54478
1261.28115	0.54414
1259.35259	0.54349
1257.42402	0.54295
1255.49546	0.54279
1253.56689	0.54287
1251.63833	0.54274
1249.70977	0.54249
1247.78120	0.54237
1245.85264	0.54218
1243.92407	0.54167
1241.99551	0.54092
1240.06694	0.53991
1238.13838	0.53859
1236.20981	0.53705
1234.28125	0.53533
1232.35269	0.53362
1230.42412	0.53212
1228.49556	0.53069
1226.56699	0.52926
1224.63843	0.52795
1222.70986	0.52673
1220.78130	0.52558
1218.85273	0.52449
1216.92417	0.52333
1214.99561	0.52213
1213.06704	0.52117
1211.13848	0.52054
1209.20991	0.52008
1207.28135	0.51951
1205.35278	0.51865
1203.42422	0.51766
1201.49565	0.51677
1199.56709	0.51612
1197.63853	0.51567
1195.70996	0.51518
1193.78140	0.51457
1191.85283	0.51402
1189.92427	0.51362
1187.99570	0.51328
1186.06714	0.51302
1184.13857	0.51296
1182.21001	0.51330
1180.28145	0.51400
1178.35288	0.51485
1176.42432	0.51566
1174.49575	0.51627
1172.56719	0.51673
1170.63862	0.51711
1168.71006	0.51740
1166.78149	0.51740
1164.85293	0.51705
1162.92437	0.51671
1160.99580	0.51641
1159.06724	0.51598
1157.13867	0.51546
1155.21011	0.51475
1153.28154	0.51361
1151.35298	0.51188
1149.42441	0.50982
1147.49585	0.50772
1145.56729	0.50538
1143.63872	0.50275
1141.71016	0.50022
1139.78159	0.49806
1137.85303	0.49628
1135.92446	0.49482
1133.99590	0.49369
1132.06733	0.49271
1130.13877	0.49156
1128.21021	0.49044
1126.28164	0.48954
1124.35308	0.48860
1122.42451	0.48772
1120.49595	0.48721
1118.56738	0.48692
1116.63882	0.48664
1114.71025	0.48648
1112.78169	0.48665
1110.85312	0.48713
1108.92456	0.48782
1106.99600	0.48873
1105.06743	0.48986
1103.13887	0.49112
1101.21030	0.49255
1099.28174	0.49428
1097.35317	0.49655
1095.42461	0.49948
1093.49604	0.50311
1091.56748	0.50745
1089.63892	0.51241
1087.71035	0.51801
1085.78179	0.52445
1083.85322	0.53148
1081.92466	0.53831
1079.99609	0.54397
1078.06753	0.54748
1076.13896	0.54826
1074.21040	0.54612
1072.28184	0.54143
1070.35327	0.53518
1068.42471	0.52832
1066.49614	0.52150
1064.56758	0.51520
1062.63901	0.50958
1060.71045	0.50456
1058.78188	0.50013
1056.85332	0.49636
1054.92476	0.49309
1052.99619	0.49006
1051.06763	0.48731
1049.13906	0.48506
1047.21050	0.48329
1045.28193	0.48184
1043.35337	0.48063
1041.42480	0.47963
1039.49624	0.47872
1037.56768	0.47805
1035.63911	0.47781
1033.71055	0.47771
1031.78198	0.47745
1029.85342	0.47710
1027.92485	0.47692
1025.99629	0.47698
1024.06772	0.47703
1022.13916	0.47698
1020.21060	0.47714
1018.28203	0.47768
1016.35347	0.47839
1014.42490	0.47904
1012.49634	0.47981
1010.56777	0.48085
1008.63921	0.48198
1006.71064	0.48314
1004.78208	0.48465
1002.85352	0.48677
1000.92495	0.48938
998.99639	0.49255
997.06782	0.49640
995.13926	0.50061
993.21069	0.50473
991.28213	0.50823
989.35356	0.51069
987.42500	0.51225
985.49644	0.51326
983.56787	0.51399
981.63931	0.51475
979.71074	0.51594
977.78218	0.51771
975.85361	0.51982
973.92505	0.52210
971.99648	0.52490
970.06792	0.52855
968.13936	0.53269
966.21079	0.53678
964.28223	0.54103
962.35366	0.54600
960.42510	0.55146
958.49653	0.55682
956.56797	0.56230
954.63940	0.56836
952.71084	0.57467
950.78228	0.58091
948.85371	0.58723
946.92515	0.59354
944.99658	0.59970
943.06802	0.60590
941.13945	0.61207
939.21089	0.61789
937.28232	0.62356
935.35376	0.62950
933.42520	0.63532
931.49663	0.64080
929.56807	0.64648
927.63950	0.65227
925.71094	0.65793
923.78237	0.66393
921.85381	0.67052
919.92524	0.67749
917.99668	0.68489
916.06812	0.69243
914.13955	0.69936
912.21099	0.70569
910.28242	0.71261
908.35386	0.72128
906.42529	0.73100
904.49673	0.74061
902.56816	0.75018
900.63960	0.75954
898.71104	0.76832
896.78247	0.77653
894.85391	0.78461
892.92534	0.79462
890.99678	0.80705
889.06821	0.81948
887.13965	0.83064
885.21108	0.84159
883.28252	0.85361
881.35396	0.86602
879.42539	0.87761
877.49683	0.88858
875.56826	0.89934
873.63970	0.90974
871.71113	0.92068
869.78257	0.93319
867.85400	0.94600
865.92544	0.95795
863.99687	0.96945
862.06831	0.98005
860.13975	0.98888
858.21118	0.99774
856.28262	1.00918
854.35405	1.02272
852.42549	1.03566
850.49692	1.04727
848.56836	1.05948
846.63979	1.07285
844.71123	1.08471
842.78267	1.09442
840.85410	1.10580
838.92554	1.11916
836.99697	1.13206
835.06841	1.14401
833.13984	1.15423
831.21128	1.16257
829.28271	1.16889
827.35415	1.17625
825.42559	1.18857
823.49702	1.20129
821.56846	1.20962
819.63989	1.21944
817.71133	1.23583
815.78276	1.25365
813.85420	1.26468
811.92563	1.26552
809.99707	1.26107
808.06851	1.25496
806.13994	1.24699
804.21138	1.23966
802.28281	1.24159
800.35425	1.26189
798.42568	1.28822
796.49712	1.28763
794.56855	1.27640
792.63999	1.29321
790.71143	1.29765
788.78286	1.27469
786.85430	1.27558
784.92573	1.28395
782.99717	1.28664
781.06860	1.29900
779.14004	1.29252
777.21147	1.28703
775.28291	1.29743
773.35435	1.27575
771.42578	1.26624
769.49722	1.32945
767.56865	1.36296
765.64009	1.27360
763.71152	1.18853
761.78296	1.14311
759.85439	1.15284
757.92583	1.19759
755.99727	1.14740
754.06870	1.07233
752.14014	1.08006
750.21157	1.11764
748.28301	1.01946
746.35444	0.86958
744.42588	0.76616
742.49731	0.70809
740.56875	0.66640
738.64019	0.62203
736.71162	0.56887
734.78306	0.46130
732.85449	0.32569
730.92593	0.25655
728.99736	0.20686
727.06880	0.03565
725.14023	-0.18144
723.21167	-0.38322
721.28311	-0.59641
719.35454	-0.57225
717.42598	-0.34237
715.49741	-0.16407
713.56885	-0.04821
711.64028	0.05949
709.71172	0.16139
707.78315	0.25639
705.85459	0.30132
703.92603	0.27105
701.99746	0.24264
700.06890	0.23414
698.14033	0.22384
696.21177	0.22002
694.28320	0.27103
692.35464	0.41338
690.42607	0.51780
688.49751	0.43670
686.56895	0.31286
684.64038	0.25537
682.71182	0.25725
680.78325	0.24654
678.85469	0.19373
676.92612	0.17995
674.99756	0.23701
673.06899	0.28767
671.14043	0.30477
669.21187	0.30044
667.28330	0.25695
665.35474	0.23108
663.42617	0.25494
661.49761	0.26100
659.56904	0.26528
657.64048	0.28821
655.71191	0.29653
653.78335	0.29192
651.85479	0.30777
649.92622	0.33016
647.99766	0.31457
646.06909	0.29743
644.14053	0.28561
642.21196	0.23658
640.28340	0.20129
638.35483	0.19501
636.42627	0.16734
634.49771	0.14932
632.56914	0.19963
630.64058	0.27199
628.71201	0.29314
626.78345	0.29826
624.85488	0.30517
622.92632	0.29567
620.99775	0.31462
619.06919	0.33363
617.14062	0.31360
615.21206	0.29594
613.28350	0.26995
611.35493	0.24842
609.42637	0.25630
607.49780	0.26312
605.56924	0.22449
603.64067	0.17181
601.71211	0.16048
599.78354	0.17100
597.85498	0.17994
595.92642	0.22302
593.99785	0.24321
592.06929	0.20684
590.14072	0.17918
588.21216	0.17603
586.28359	0.20359
584.35503	0.22416
582.42646	0.19260
580.49790	0.17325
578.56934	0.20047
576.64077	0.23223
574.71221	0.24880
572.78364	0.24610
570.85508	0.21859
568.92651	0.22502
566.99795	0.27445
565.06938	0.26864
563.14082	0.21554
561.21226	0.21432
559.28369	0.24581
557.35513	0.24082
555.42656	0.21311
553.49800	0.20968
551.56943	0.22877
549.64087	0.24985
547.71230	0.24325
545.78374	0.20727
543.85518	0.18533
541.92661	0.19053
539.99805	0.21098
538.06948	0.21297
536.14092	0.17739
534.21235	0.15881
532.28379	0.18395
530.35522	0.21024
528.42666	0.19941
526.49810	0.18455
524.56953	0.19436
522.64097	0.22546
520.71240	0.24723
518.78384	0.24967
516.85527	0.21961
514.92671	0.16798
512.99814	0.14560
511.06958	0.17671
509.14102	0.21211
507.21245	0.21963
505.28389	0.22361
503.35532	0.21311
501.42676	0.18870
499.49819	0.17952
