3997.91411	0.07593
3995.98555	0.07612
3994.05698	0.07622
3992.12842	0.07638
3990.19985	0.07659
3988.27129	0.07658
3986.34272	0.07656
3984.41416	0.07685
3982.48560	0.07743
3980.55703	0.07805
3978.62847	0.07842
3976.69990	0.07860
3974.77134	0.07866
3972.84277	0.07843
3970.91421	0.07815
3968.98564	0.07830
3967.05708	0.07883
3965.12852	0.07920
3963.19995	0.07925
3961.27139	0.07940
3959.34282	0.07966
3957.41426	0.07954
3955.48569	0.07904
3953.55713	0.07889
3951.62856	0.07938
3949.70000	0.07969
3947.77144	0.07934
3945.84287	0.07897
3943.91431	0.07937
3941.98574	0.08011
3940.05718	0.07996
3938.12861	0.07920
3936.20005	0.07898
3934.27148	0.07938
3932.34292	0.07997
3930.41436	0.08026
3928.48579	0.07991
3926.55723	0.07950
3924.62866	0.07958
3922.70010	0.07972
3920.77153	0.07953
3918.84297	0.07930
3916.91440	0.07907
3914.98584	0.07885
3913.05728	0.07878
3911.12871	0.07863
3909.20015	0.07832
3907.27158	0.07816
3905.34302	0.07851
3903.41445	0.07930
3901.48589	0.07966
3899.55732	0.07963
3897.62876	0.07975
3895.70020	0.07970
3893.77163	0.07948
3891.84307	0.07950
3889.91450	0.07972
3887.98594	0.07962
3886.05737	0.07955
3884.12881	0.07992
3882.20024	0.08034
3880.27168	0.08075
3878.34312	0.08092
3876.41455	0.08064
3874.48599	0.08056
3872.55742	0.08078
3870.62886	0.08107
3868.70029	0.08183
3866.77173	0.08262
3864.84316	0.08327
3862.91460	0.08387
3860.98604	0.08360
3859.05747	0.08292
3857.12891	0.08266
3855.20034	0.08301
3853.27178	0.08447
3851.34321	0.08581
3849.41465	0.08502
3847.48608	0.08442
3845.55752	0.08474
3843.62896	0.08531
3841.70039	0.08598
3839.77183	0.08716
3837.84326	0.08901
3835.91470	0.09045
3833.98613	0.09058
3832.05757	0.09010
3830.12900	0.08985
3828.20044	0.09024
3826.27187	0.09116
3824.34331	0.09195
3822.41475	0.09252
3820.48618	0.09372
3818.55762	0.09478
3816.62905	0.09518
3814.70049	0.09597
3812.77192	0.09693
3810.84336	0.09771
3808.91479	0.09858
3806.98623	0.09988
3805.05767	0.10140
3803.12910	0.10235
3801.20054	0.10326
3799.27197	0.10444
3797.34341	0.10559
3795.41484	0.10705
3793.48628	0.10807
3791.55771	0.10835
3789.62915	0.10904
3787.70059	0.11051
3785.77202	0.11214
3783.84346	0.11366
3781.91489	0.11530
3779.98633	0.11730
3778.05776	0.11897
3776.12920	0.11969
3774.20063	0.12060
3772.27207	0.12231
3770.34351	0.12473
3768.41494	0.12759
3766.48638	0.12979
3764.55781	0.13142
3762.62925	0.13303
3760.70068	0.13477
3758.77212	0.13688
3756.84355	0.13921
3754.91499	0.14144
3752.98643	0.14377
3751.05786	0.14704
3749.12930	0.15144
3747.20073	0.15420
3745.27217	0.15588
3743.34360	0.15913
3741.41504	0.16279
3739.48647	0.16568
3737.55791	0.16898
3735.62935	0.17352
3733.70078	0.17972
3731.77222	0.18514
3729.84365	0.18849
3727.91509	0.19163
3725.98652	0.19605
3724.05796	0.20178
3722.12939	0.20863
3720.20083	0.21658
3718.27227	0.22440
3716.34370	0.23173
3714.41514	0.23904
3712.48657	0.24772
3710.55801	0.26000
3708.62944	0.27385
3706.70088	0.28561
3704.77231	0.29676
3702.84375	0.30981
3700.91519	0.32641
3698.98662	0.34407
3697.05806	0.36096
3695.12949	0.37943
3693.20093	0.39899
3691.27236	0.41958
3689.34380	0.44627
3687.41523	0.48033
3685.48667	0.51087
3683.55811	0.53697
3681.62954	0.56462
3679.70098	0.59553
3677.77241	0.62783
3675.84385	0.66623
3673.91528	0.71865
3671.98672	0.76144
3670.05815	0.79898
3668.12959	0.85191
3666.20103	0.90122
3664.27246	0.94134
3662.34390	0.98362
3660.41533	1.03007
3658.48677	1.07642
3656.55820	1.12531
3654.62964	1.17936
3652.70107	1.22452
3650.77251	1.26343
3648.84395	1.31729
3646.91538	1.38435
3644.98682	1.43432
3643.05825	1.47347
3641.12969	1.51403
3639.20112	1.55839
3637.27256	1.60227
3635.34399	1.64416
3633.41543	1.68590
3631.48687	1.72564
3629.55830	1.76635
3627.62974	1.82077
3625.70117	1.87222
3623.77261	1.90550
3621.84404	1.93637
3619.91548	1.97206
3617.98691	2.01555
3616.05835	2.05866
3614.12979	2.09614
3612.20122	2.13517
3610.27266	2.17388
3608.34409	2.21344
3606.41553	2.25608
3604.48696	2.29572
3602.55840	2.33078
3600.62983	2.36824
3598.70127	2.40958
3596.77271	2.45030
3594.84414	2.49088
3592.91558	2.53223
3590.98701	2.57119
3589.05845	2.60791
3587.12988	2.65130
3585.20132	2.69841
3583.27275	2.73851
3581.34419	2.77590
3579.41562	2.81600
3577.48706	2.85842
3575.55850	2.90119
3573.62993	2.94467
3571.70137	2.98664
3569.77280	3.02624
3567.84424	3.06776
3565.91567	3.11840
3563.98711	3.16867
3562.05854	3.21052
3560.12998	3.25243
3558.20142	3.29769
3556.27285	3.34298
3554.34429	3.38653
3552.41572	3.43337
3550.48716	3.48156
3548.55859	3.52612
3546.63003	3.56993
3544.70146	3.61747
3542.77290	3.66829
3540.84434	3.71798
3538.91577	3.76495
3536.98721	3.81149
3535.05864	3.86027
3533.13008	3.90709
3531.20151	3.95163
3529.27295	3.99848
3527.34438	4.04779
3525.41582	4.09665
3523.48726	4.14641
3521.55869	4.19692
3519.63013	4.24268
3517.70156	4.28551
3515.77300	4.33082
3513.84443	4.38149
3511.91587	4.43555
3509.98730	4.49130
3508.05874	4.54591
3506.13018	4.59220
3504.20161	4.63400
3502.27305	4.68006
3500.34448	4.72822
3498.41592	4.77369
3496.48735	4.82115
3494.55879	4.87546
3492.63022	4.93110
3490.70166	4.98230
3488.77310	5.03284
3486.84453	5.08051
3484.91597	5.11990
3482.98740	5.16303
3481.05884	5.21827
3479.13027	5.27048
3477.20171	5.31257
3475.27314	5.35486
3473.34458	5.40272
3471.41602	5.45660
3469.48745	5.51341
3467.55889	5.56266
3465.63032	5.60118
3463.70176	5.64386
3461.77319	5.69629
3459.84463	5.75166
3457.91606	5.80591
3455.98750	5.85684
3454.05894	5.90230
3452.13037	5.95197
3450.20181	6.01789
3448.27324	6.08182
3446.34468	6.12763
3444.41611	6.17211
3442.48755	6.22334
3440.55898	6.26756
3438.63042	6.31413
3436.70186	6.36700
3434.77329	6.41855
3432.84473	6.47919
3430.91616	6.53641
3428.98760	6.57967
3427.05903	6.62347
3425.13047	6.67035
3423.20190	6.70906
3421.27334	6.76033
3419.34478	6.84291
3417.41621	6.91774
3415.48765	6.94642
3413.55908	6.95504
3411.63052	6.98934
3409.70195	7.04964
3407.77339	7.11496
3405.84482	7.16750
3403.91626	7.22726
3401.98770	7.29251
3400.05913	7.34180
3398.13057	7.39438
3396.20200	7.45487
3394.27344	7.49986
3392.34487	7.49152
3390.41631	7.47971
3388.48774	7.53383
3386.55918	7.62875
3384.63062	7.68756
3382.70205	7.69564
3380.77349	7.68642
3378.84492	7.67975
3376.91636	7.72656
3374.98779	7.82885
3373.05923	7.92538
3371.13066	7.94337
3369.20210	7.91133
3367.27354	7.93071
3365.34497	8.02922
3363.41641	8.12428
3361.48784	8.12531
3359.55928	8.05538
3357.63071	7.96873
3355.70215	7.95645
3353.77358	8.05130
3351.84502	8.12222
3349.91646	8.08529
3347.98789	8.07181
3346.05933	8.12210
3344.13076	8.14079
3342.20220	8.15539
3340.27363	8.21607
3338.34507	8.24847
3336.41650	8.21360
3334.48794	8.22164
3332.55937	8.27298
3330.63081	8.23955
3328.70225	8.13863
3326.77368	8.12109
3324.84512	8.20455
3322.91655	8.24175
3320.98799	8.21017
3319.05942	8.26827
3317.13086	8.42375
3315.20229	8.46961
3313.27373	8.41320
3311.34517	8.36835
3309.41660	8.32924
3307.48804	8.27948
3305.55947	8.24581
3303.63091	8.28535
3301.70234	8.31897
3299.77378	8.29063
3297.84521	8.30657
3295.91665	8.39709
3293.98809	8.45086
3292.05952	8.44761
3290.13096	8.41837
3288.20239	8.36615
3286.27383	8.36252
3284.34526	8.44212
3282.41670	8.54328
3280.48813	8.55051
3278.55957	8.52568
3276.63101	8.55176
3274.70244	8.54610
3272.77388	8.50387
3270.84531	8.47541
3268.91675	8.43654
3266.98818	8.39517
3265.05962	8.34688
3263.13105	8.27686
3261.20249	8.27572
3259.27393	8.35154
3257.34536	8.43689
3255.41680	8.55615
3253.48823	8.75215
3251.55967	8.82592
3249.63110	8.56698
3247.70254	8.33952
3245.77397	8.43361
3243.84541	8.65281
3241.91685	8.59685
3239.98828	8.46092
3238.05972	8.50523
3236.13115	8.62163
3234.20259	8.60767
3232.27402	8.45742
3230.34546	8.31904
3228.41689	8.29033
3226.48833	8.37301
3224.55977	8.41632
3222.63120	8.35908
3220.70264	8.30981
3218.77407	8.27041
3216.84551	8.20006
3214.91694	8.16030
3212.98838	8.19154
3211.05981	8.25834
3209.13125	8.33287
3207.20269	8.30546
3205.27412	8.16803
3203.34556	8.07284
3201.41699	8.05368
3199.48843	8.06304
3197.55986	8.05114
3195.63130	7.98300
3193.70273	7.87994
3191.77417	7.80092
3189.84561	7.76534
3187.91704	7.74309
3185.98848	7.69038
3184.05991	7.59115
3182.13135	7.48664
3180.20278	7.42848
3178.27422	7.41121
3176.34565	7.35804
3174.41709	7.25910
3172.48853	7.20854
3170.55996	7.20847
3168.63140	7.17704
3166.70283	7.09793
3164.77427	7.00686
3162.84570	6.92969
3160.91714	6.86598
3158.98857	6.79798
3157.06001	6.71673
3155.13145	6.63191
3153.20288	6.56319
3151.27432	6.51801
3149.34575	6.47416
3147.41719	6.41160
3145.48862	6.33768
3143.56006	6.25873
3141.63149	6.17733
3139.70293	6.10003
3137.77437	6.03003
3135.84580	5.96791
3133.91724	5.91249
3131.98867	5.84831
3130.06011	5.75763
3128.13154	5.65397
3126.20298	5.56203
3124.27441	5.48882
3122.34585	5.42886
3120.41729	5.36823
3118.48872	5.29413
3116.56016	5.20868
3114.63159	5.12362
3112.70303	5.05178
3110.77446	4.98972
3108.84590	4.92387
3106.91733	4.85624
3104.98877	4.79252
3103.06021	4.72784
3101.13164	4.65464
3099.20308	4.57442
3097.27451	4.49531
3095.34595	4.42344
3093.41738	4.36044
3091.48882	4.30008
3089.56025	4.23741
3087.63169	4.17486
3085.70312	4.11166
3083.77456	4.04371
3081.84600	3.97498
3079.91743	3.91087
3077.98887	3.84860
3076.06030	3.78624
3074.13174	3.72573
3072.20317	3.66592
3070.27461	3.60566
3068.34604	3.54585
3066.41748	3.48639
3064.48892	3.42821
3062.56035	3.37215
3060.63179	3.31716
3058.70322	3.26193
3056.77466	3.20694
3054.84609	3.15353
3052.91753	3.10045
3050.98896	3.04644
3049.06040	2.99302
3047.13184	2.94171
3045.20327	2.89185
3043.27471	2.84262
3041.34614	2.79400
3039.41758	2.74590
3037.48901	2.69849
3035.56045	2.65172
3033.63188	2.60551
3031.70332	2.55941
3029.77476	2.51308
3027.84619	2.46800
3025.91763	2.42478
3023.98906	2.38237
3022.06050	2.34075
3020.13193	2.30021
3018.20337	2.25986
3016.27480	2.21900
3014.34624	2.17830
3012.41768	2.13869
3010.48911	2.10029
3008.56055	2.06282
3006.63198	2.02593
3004.70342	1.98972
3002.77485	1.95429
3000.84629	1.91923
2998.91772	1.88427
2996.98916	1.84985
2995.06060	1.81671
2993.13203	1.78452
2991.20347	1.75259
2989.27490	1.72112
2987.34634	1.69029
2985.41777	1.65980
2983.48921	1.62954
2981.56064	1.59964
2979.63208	1.57023
2977.70352	1.54173
2975.77495	1.51432
2973.84639	1.48726
2971.91782	1.45992
2969.98926	1.43257
2968.06069	1.40575
2966.13213	1.37954
2964.20356	1.35366
2962.27500	1.32815
2960.34644	1.30341
2958.41787	1.27970
2956.48931	1.25652
2954.56074	1.23364
2952.63218	1.21147
2950.70361	1.18980
2948.77505	1.16831
2946.84648	1.14726
2944.91792	1.12675
2942.98936	1.10625
2941.06079	1.08575
2939.13223	1.06580
2937.20366	1.04643
2935.27510	1.02739
2933.34653	1.00876
2931.41797	0.99054
2929.48940	0.97284
2927.56084	0.95546
2925.63228	0.93778
2923.70371	0.92025
2921.77515	0.90364
2919.84658	0.88778
2917.91802	0.87197
2915.98945	0.85609
2914.06089	0.84092
2912.13232	0.82624
2910.20376	0.81135
2908.27520	0.79651
2906.34663	0.78248
2904.41807	0.76940
2902.48950	0.75649
2900.56094	0.74325
2898.63237	0.72991
2896.70381	0.71699
2894.77524	0.70493
2892.84668	0.69357
2890.91812	0.68219
2888.98955	0.67048
2887.06099	0.65878
2885.13242	0.64742
2883.20386	0.63641
2881.27529	0.62567
2879.34673	0.61522
2877.41816	0.60502
2875.48960	0.59484
2873.56104	0.58465
2871.63247	0.57467
2869.70391	0.56492
2867.77534	0.55525
2865.84678	0.54562
2863.91821	0.53620
2861.98965	0.52709
2860.06108	0.51827
2858.13252	0.50973
2856.20396	0.50119
2854.27539	0.49259
2852.34683	0.48429
2850.41826	0.47654
2848.48970	0.46909
2846.56113	0.46151
2844.63257	0.45372
2842.70400	0.44628
2840.77544	0.43967
2838.84687	0.43363
2836.91831	0.42772
2834.98975	0.42175
2833.06118	0.41571
2831.13262	0.40958
2829.20405	0.40352
2827.27549	0.39773
2825.34692	0.39207
2823.41836	0.38621
2821.48979	0.38018
2819.56123	0.37426
2817.63267	0.36875
2815.70410	0.36357
2813.77554	0.35825
2811.84697	0.35283
2809.91841	0.34769
2807.98984	0.34271
2806.06128	0.33774
2804.13271	0.33290
2802.20415	0.32818
2800.27559	0.32353
2798.34702	0.31895
2796.41846	0.31444
2794.48989	0.31003
2792.56133	0.30580
2790.63276	0.30168
2788.70420	0.29757
2786.77563	0.29350
2784.84707	0.28963
2782.91851	0.28598
2780.98994	0.28233
2779.06138	0.27861
2777.13281	0.27491
2775.20425	0.27133
2773.27568	0.26786
2771.34712	0.26454
2769.41855	0.26126
2767.48999	0.25792
2765.56143	0.25463
2763.63286	0.25144
2761.70430	0.24833
2759.77573	0.24528
2757.84717	0.24225
2755.91860	0.23942
2753.99004	0.23678
2752.06147	0.23402
2750.13291	0.23107
2748.20435	0.22830
2746.27578	0.22583
2744.34722	0.22343
2742.41865	0.22097
2740.49009	0.21859
2738.56152	0.21635
2736.63296	0.21416
2734.70439	0.21204
2732.77583	0.20990
2730.84727	0.20765
2728.91870	0.20536
2726.99014	0.20325
2725.06157	0.20145
2723.13301	0.19966
2721.20444	0.19768
2719.27588	0.19570
2717.34731	0.19384
2715.41875	0.19213
2713.49019	0.19066
2711.56162	0.18916
2709.63306	0.18732
2707.70449	0.18538
2705.77593	0.18369
2703.84736	0.18220
2701.91880	0.18072
2699.99023	0.17930
2698.06167	0.17805
2696.13311	0.17676
2694.20454	0.17528
2692.27598	0.17387
2690.34741	0.17268
2688.41885	0.17164
2686.49028	0.17051
2684.56172	0.16927
2682.63315	0.16808
2680.70459	0.16695
2678.77603	0.16587
2676.84746	0.16480
2674.91890	0.16364
2672.99033	0.16254
2671.06177	0.16159
2669.13320	0.16070
2667.20464	0.15986
2665.27607	0.15916
2663.34751	0.15854
2661.41895	0.15780
2659.49038	0.15691
2657.56182	0.15611
2655.63325	0.15537
2653.70469	0.15457
2651.77612	0.15385
2649.84756	0.15322
2647.91899	0.15264
2645.99043	0.15219
2644.06187	0.15181
2642.13330	0.15139
2640.20474	0.15095
2638.27617	0.15051
2636.34761	0.15010
2634.41904	0.14972
2632.49048	0.14939
2630.56191	0.14908
2628.63335	0.14882
2626.70479	0.14856
2624.77622	0.14824
2622.84766	0.14786
2620.91909	0.14749
2618.99053	0.14730
2617.06196	0.14727
2615.13340	0.14721
2613.20483	0.14714
2611.27627	0.14710
2609.34771	0.14698
2607.41914	0.14688
2605.49058	0.14690
2603.56201	0.14694
2601.63345	0.14696
2599.70488	0.14705
2597.77632	0.14727
2595.84775	0.14753
2593.91919	0.14772
2591.99062	0.14786
2590.06206	0.14807
2588.13350	0.14822
2586.20493	0.14824
2584.27637	0.14840
2582.34780	0.14876
2580.41924	0.14927
2578.49067	0.14977
2576.56211	0.15007
2574.63354	0.15032
2572.70498	0.15083
2570.77642	0.15145
2568.84785	0.15189
2566.91929	0.15221
2564.99072	0.15255
2563.06216	0.15294
2561.13359	0.15348
2559.20503	0.15405
2557.27646	0.15454
2555.34790	0.15506
2553.41934	0.15569
2551.49077	0.15635
2549.56221	0.15695
2547.63364	0.15752
2545.70508	0.15817
2543.77651	0.15883
2541.84795	0.15943
2539.91938	0.16009
2537.99082	0.16088
2536.06226	0.16152
2534.13369	0.16198
2532.20513	0.16269
2530.27656	0.16375
2528.34800	0.16465
2526.41943	0.16518
2524.49087	0.16573
2522.56230	0.16647
2520.63374	0.16725
2518.70518	0.16808
2516.77661	0.16901
2514.84805	0.17001
2512.91948	0.17102
2510.99092	0.17192
2509.06235	0.17276
2507.13379	0.17350
2505.20522	0.17422
2503.27666	0.17507
2501.34810	0.17596
2499.41953	0.17682
2497.49097	0.17769
2495.56240	0.17853
2493.63384	0.17945
2491.70527	0.18053
2489.77671	0.18154
2487.84814	0.18238
2485.91958	0.18322
2483.99102	0.18416
2482.06245	0.18513
2480.13389	0.18603
2478.20532	0.18690
2476.27676	0.18784
2474.34819	0.18881
2472.41963	0.18965
2470.49106	0.19048
2468.56250	0.19147
2466.63394	0.19248
2464.70537	0.19341
2462.77681	0.19443
2460.84824	0.19561
2458.91968	0.19666
2456.99111	0.19747
2455.06255	0.19836
2453.13398	0.19938
2451.20542	0.20034
2449.27686	0.20133
2447.34829	0.20245
2445.41973	0.20353
2443.49116	0.20463
2441.56260	0.20576
2439.63403	0.20682
2437.70547	0.20775
2435.77690	0.20864
2433.84834	0.20969
2431.91978	0.21091
2429.99121	0.21214
2428.06265	0.21324
2426.13408	0.21427
2424.20552	0.21532
2422.27695	0.21641
2420.34839	0.21744
2418.41982	0.21851
2416.49126	0.21968
2414.56270	0.22083
2412.63413	0.22192
2410.70557	0.22305
2408.77700	0.22424
2406.84844	0.22535
2404.91987	0.22652
2402.99131	0.22784
2401.06274	0.22917
2399.13418	0.23041
2397.20562	0.23162
2395.27705	0.23283
2393.34849	0.23407
2391.41992	0.23543
2389.49136	0.23688
2387.56279	0.23817
2385.63423	0.23937
2383.70566	0.24069
2381.77710	0.24216
2379.84854	0.24382
2377.91997	0.24564
2375.99141	0.24744
2374.06284	0.24899
2372.13428	0.25028
2370.20571	0.25205
2368.27715	0.25468
2366.34858	0.25750
2364.42002	0.26004
2362.49146	0.26244
2360.56289	0.26449
2358.63433	0.26575
2356.70576	0.26627
2354.77720	0.26660
2352.84863	0.26731
2350.92007	0.26834
2348.99150	0.26932
2347.06294	0.27034
2345.13437	0.27215
2343.20581	0.27485
2341.27725	0.27712
2339.34868	0.27872
2337.42012	0.28053
2335.49155	0.28270
2333.56299	0.28427
2331.63442	0.28513
2329.70586	0.28606
2327.77729	0.28717
2325.84873	0.28822
2323.92017	0.28953
2321.99160	0.29149
2320.06304	0.29377
2318.13447	0.29558
2316.20591	0.29681
2314.27734	0.29792
2312.34878	0.29927
2310.42021	0.30096
2308.49165	0.30274
2306.56309	0.30448
2304.63452	0.30623
2302.70596	0.30795
2300.77739	0.30966
2298.84883	0.31133
2296.92026	0.31304
2294.99170	0.31496
2293.06313	0.31698
2291.13457	0.31885
2289.20601	0.32063
2287.27744	0.32247
2285.34888	0.32437
2283.42031	0.32635
2281.49175	0.32847
2279.56318	0.33059
2277.63462	0.33245
2275.70605	0.33425
2273.77749	0.33637
2271.84893	0.33870
2269.92036	0.34088
2267.99180	0.34282
2266.06323	0.34474
2264.13467	0.34682
2262.20610	0.34898
2260.27754	0.35109
2258.34897	0.35327
2256.42041	0.35561
2254.49185	0.35798
2252.56328	0.36011
2250.63472	0.36199
2248.70615	0.36385
2246.77759	0.36595
2244.84902	0.36825
2242.92046	0.37056
2240.99189	0.37284
2239.06333	0.37506
2237.13477	0.37728
2235.20620	0.37954
2233.27764	0.38178
2231.34907	0.38400
2229.42051	0.38618
2227.49194	0.38830
2225.56338	0.39042
2223.63481	0.39269
2221.70625	0.39510
2219.77769	0.39742
2217.84912	0.39953
2215.92056	0.40157
2213.99199	0.40373
2212.06343	0.40591
2210.13486	0.40797
2208.20630	0.41000
2206.27773	0.41215
2204.34917	0.41427
2202.42061	0.41633
2200.49204	0.41849
2198.56348	0.42067
2196.63491	0.42273
2194.70635	0.42467
2192.77778	0.42650
2190.84922	0.42835
2188.92065	0.43030
2186.99209	0.43220
2185.06353	0.43399
2183.13496	0.43566
2181.20640	0.43720
2179.27783	0.43877
2177.34927	0.44042
2175.42070	0.44203
2173.49214	0.44361
2171.56357	0.44511
2169.63501	0.44642
2167.70645	0.44766
2165.77788	0.44894
2163.84932	0.45019
2161.92075	0.45139
2159.99219	0.45250
2158.06362	0.45349
2156.13506	0.45442
2154.20649	0.45538
2152.27793	0.45630
2150.34937	0.45699
2148.42080	0.45753
2146.49224	0.45802
2144.56367	0.45852
2142.63511	0.45905
2140.70654	0.45950
2138.77798	0.45971
2136.84941	0.45972
2134.92085	0.45966
2132.99229	0.45956
2131.06372	0.45945
2129.13516	0.45930
2127.20659	0.45896
2125.27803	0.45852
2123.34946	0.45818
2121.42090	0.45797
2119.49233	0.45766
2117.56377	0.45711
2115.63521	0.45632
2113.70664	0.45540
2111.77808	0.45442
2109.84951	0.45334
2107.92095	0.45224
2105.99238	0.45119
2104.06382	0.45010
2102.13525	0.44875
2100.20669	0.44717
2098.27812	0.44552
2096.34956	0.44398
2094.42100	0.44256
2092.49243	0.44097
2090.56387	0.43924
2088.63530	0.43760
2086.70674	0.43592
2084.77817	0.43395
2082.84961	0.43185
2080.92104	0.42981
2078.99248	0.42780
2077.06392	0.42575
2075.13535	0.42376
2073.20679	0.42175
2071.27822	0.41954
2069.34966	0.41718
2067.42109	0.41484
2065.49253	0.41249
2063.56396	0.40998
2061.63540	0.40750
2059.70684	0.40511
2057.77827	0.40260
2055.84971	0.39999
2053.92114	0.39742
2051.99258	0.39494
2050.06401	0.39243
2048.13545	0.38978
2046.20688	0.38695
2044.27832	0.38407
2042.34976	0.38133
2040.42119	0.37872
2038.49263	0.37604
2036.56406	0.37320
2034.63550	0.37035
2032.70693	0.36760
2030.77837	0.36490
2028.84980	0.36221
2026.92124	0.35955
2024.99268	0.35685
2023.06411	0.35402
2021.13555	0.35121
2019.20698	0.34854
2017.27842	0.34591
2015.34985	0.34320
2013.42129	0.34035
2011.49272	0.33743
2009.56416	0.33462
2007.63560	0.33199
2005.70703	0.32943
2003.77847	0.32678
2001.84990	0.32410
1999.92134	0.32142
1997.99277	0.31871
1996.06421	0.31610
1994.13564	0.31369
1992.20708	0.31126
1990.27852	0.30870
1988.34995	0.30618
1986.42139	0.30370
1984.49282	0.30124
1982.56426	0.29885
1980.63569	0.29655
1978.70713	0.29430
1976.77856	0.29205
1974.85000	0.28985
1972.92144	0.28768
1970.99287	0.28551
1969.06431	0.28339
1967.13574	0.28138
1965.20718	0.27942
1963.27861	0.27752
1961.35005	0.27564
1959.42148	0.27367
1957.49292	0.27175
1955.56436	0.26991
1953.63579	0.26816
1951.70723	0.26653
1949.77866	0.26494
1947.85010	0.26327
1945.92153	0.26166
1943.99297	0.26024
1942.06440	0.25886
1940.13584	0.25741
1938.20728	0.25595
1936.27871	0.25458
1934.35015	0.25332
1932.42158	0.25213
1930.49302	0.25093
1928.56445	0.24980
1926.63589	0.24873
1924.70732	0.24777
1922.77876	0.24697
1920.85020	0.24612
1918.92163	0.24509
1916.99307	0.24404
1915.06450	0.24310
1913.13594	0.24224
1911.20737	0.24154
1909.27881	0.24092
1907.35024	0.24025
1905.42168	0.23958
1903.49312	0.23896
1901.56455	0.23841
1899.63599	0.23792
1897.70742	0.23748
1895.77886	0.23711
1893.85029	0.23681
1891.92173	0.23643
1889.99316	0.23603
1888.06460	0.23574
1886.13604	0.23558
1884.20747	0.23535
1882.27891	0.23510
1880.35034	0.23503
1878.42178	0.23510
1876.49321	0.23515
1874.56465	0.23512
1872.63608	0.23515
1870.70752	0.23530
1868.77896	0.23575
1866.85039	0.23623
1864.92183	0.23640
1862.99326	0.23644
1861.06470	0.23652
1859.13613	0.23681
1857.20757	0.23721
1855.27900	0.23768
1853.35044	0.23821
1851.42187	0.23879
1849.49331	0.23930
1847.56475	0.23982
1845.63618	0.24053
1843.70762	0.24159
1841.77905	0.24255
1839.85049	0.24310
1837.92192	0.24384
1835.99336	0.24470
1834.06479	0.24555
1832.13623	0.24647
1830.20767	0.24779
1828.27910	0.24924
1826.35054	0.25036
1824.42197	0.25166
1822.49341	0.25303
1820.56484	0.25434
1818.63628	0.25566
1816.70771	0.25716
1814.77915	0.25877
1812.85059	0.26055
1810.92202	0.26261
1808.99346	0.26468
1807.06489	0.26663
1805.13633	0.26856
1803.20776	0.27074
1801.27920	0.27312
1799.35063	0.27591
1797.42207	0.27863
1795.49351	0.28116
1793.56494	0.28391
1791.63638	0.28752
1789.70781	0.29115
1787.77925	0.29386
1785.85068	0.29688
1783.92212	0.30048
1781.99355	0.30451
1780.06499	0.30881
1778.13643	0.31310
1776.20786	0.31701
1774.27930	0.32115
1772.35073	0.32685
1770.42217	0.33329
1768.49360	0.33882
1766.56504	0.34404
1764.63647	0.34936
1762.70791	0.35518
1760.77935	0.36268
1758.85078	0.36994
1756.92222	0.37724
1754.99365	0.38516
1753.06509	0.39222
1751.13652	0.40040
1749.20796	0.41089
1747.27939	0.42152
1745.35083	0.43084
1743.42227	0.44047
1741.49370	0.45115
1739.56514	0.46399
1737.63657	0.47696
1735.70801	0.48814
1733.77944	0.50464
1731.85088	0.52443
1729.92231	0.53996
1727.99375	0.55562
1726.06519	0.57255
1724.13662	0.59111
1722.20806	0.61121
1720.27949	0.62961
1718.35093	0.65071
1716.42236	0.68215
1714.49380	0.71277
1712.56523	0.73772
1710.63667	0.76170
1708.70811	0.78738
1706.77954	0.81656
1704.85098	0.85124
1702.92241	0.88184
1700.99385	0.91170
1699.06528	0.95660
1697.13672	0.99819
1695.20815	1.04019
1693.27959	1.08049
1691.35103	1.11268
1689.42246	1.14938
1687.49390	1.18779
1685.56533	1.22483
1683.63677	1.28185
1681.70820	1.34057
1679.77964	1.37839
1677.85107	1.41481
1675.92251	1.45656
1673.99395	1.50761
1672.06538	1.55231
1670.13682	1.59580
1668.20825	1.65155
1666.27969	1.69491
1664.35112	1.73005
1662.42256	1.77405
1660.49399	1.82396
1658.56543	1.86278
1656.63687	1.89435
1654.70830	1.92462
1652.77974	1.97668
1650.85117	2.02836
1648.92261	2.04825
1646.99404	2.07468
1645.06548	2.10731
1643.13691	2.12939
1641.20835	2.14286
1639.27979	2.15439
1637.35122	2.16233
1635.42266	2.16603
1633.49409	2.16335
1631.56553	2.15357
1629.63696	2.13993
1627.70840	2.11671
1625.77983	2.08920
1623.85127	2.05330
1621.92271	2.00799
1619.99414	1.96807
1618.06558	1.92988
1616.13701	1.87447
1614.20845	1.81660
1612.27988	1.77173
1610.35132	1.72427
1608.42275	1.67313
1606.49419	1.62303
1604.56562	1.57638
1602.63706	1.53068
1600.70850	1.48568
1598.77993	1.44426
1596.85137	1.40512
1594.92280	1.36644
1592.99424	1.32852
1591.06567	1.29347
1589.13711	1.25985
1587.20854	1.22739
1585.27998	1.19690
1583.35142	1.16844
1581.42285	1.14220
1579.49429	1.11917
1577.56572	1.09758
1575.63716	1.07022
1573.70859	1.04571
1571.78003	1.02946
1569.85146	1.01156
1567.92290	0.99098
1565.99434	0.97466
1564.06577	0.96032
1562.13721	0.94796
1560.20864	0.93752
1558.28008	0.91917
1556.35151	0.90193
1554.42295	0.89167
1552.49438	0.88155
1550.56582	0.87106
1548.63726	0.86017
1546.70869	0.85065
1544.78013	0.84197
1542.85156	0.83301
1540.92300	0.82288
1538.99443	0.80997
1537.06587	0.80123
1535.13730	0.79543
1533.20874	0.78776
1531.28018	0.77928
1529.35161	0.77296
1527.42305	0.76696
1525.49448	0.76052
1523.56592	0.75458
1521.63735	0.74844
1519.70879	0.74202
1517.78022	0.73671
1515.85166	0.73093
1513.92310	0.72503
1511.99453	0.72032
1510.06597	0.71646
1508.13740	0.71288
1506.20884	0.70701
1504.28027	0.70146
1502.35171	0.69805
1500.42314	0.69510
1498.49458	0.69217
1496.56602	0.68873
1494.63745	0.68502
1492.70889	0.68193
1490.78032	0.67940
1488.85176	0.67675
1486.92319	0.67409
1484.99463	0.67184
1483.06606	0.66986
1481.13750	0.66779
1479.20894	0.66564
1477.28037	0.66376
1475.35181	0.66212
1473.42324	0.66053
1471.49468	0.65834
1469.56611	0.65587
1467.63755	0.65368
1465.70898	0.65162
1463.78042	0.64945
1461.85186	0.64727
1459.92329	0.64529
1457.99473	0.64302
1456.06616	0.63989
1454.13760	0.63701
1452.20903	0.63478
1450.28047	0.63263
1448.35190	0.63040
1446.42334	0.62824
1444.49478	0.62634
1442.56621	0.62452
1440.63765	0.62270
1438.70908	0.62107
1436.78052	0.61937
1434.85195	0.61735
1432.92339	0.61545
1430.99482	0.61380
1429.06626	0.61222
1427.13770	0.61085
1425.20913	0.60966
1423.28057	0.60819
1421.35200	0.60654
1419.42344	0.60510
1417.49487	0.60366
1415.56631	0.60190
1413.63774	0.60018
1411.70918	0.59866
1409.78062	0.59715
1407.85205	0.59553
1405.92349	0.59401
1403.99492	0.59269
1402.06636	0.59136
1400.13779	0.58994
1398.20923	0.58845
1396.28066	0.58705
1394.35210	0.58570
1392.42354	0.58422
1390.49497	0.58274
1388.56641	0.58145
1386.63784	0.58028
1384.70928	0.57902
1382.78071	0.57773
1380.85215	0.57658
1378.92358	0.57558
1376.99502	0.57473
1375.06646	0.57406
1373.13789	0.57340
1371.20933	0.57259
1369.28076	0.57182
1367.35220	0.57116
1365.42363	0.57043
1363.49507	0.56958
1361.56650	0.56863
1359.63794	0.56748
1357.70937	0.56626
1355.78081	0.56510
1353.85225	0.56389
1351.92368	0.56271
1349.99512	0.56167
1348.06655	0.56065
1346.13799	0.55966
1344.20942	0.55881
1342.28086	0.55801
1340.35229	0.55718
1338.42373	0.55625
1336.49517	0.55524
1334.56660	0.55427
1332.63804	0.55333
1330.70947	0.55235
1328.78091	0.55148
1326.85234	0.55081
1324.92378	0.55014
1322.99521	0.54940
1321.06665	0.54869
1319.13809	0.54795
1317.20952	0.54708
1315.28096	0.54625
1313.35239	0.54558
1311.42383	0.54484
1309.49526	0.54389
1307.56670	0.54286
1305.63813	0.54182
1303.70957	0.54082
1301.78101	0.54000
1299.85244	0.53929
1297.92388	0.53856
1295.99531	0.53783
1294.06675	0.53709
1292.13818	0.53633
1290.20962	0.53569
1288.28105	0.53524
1286.35249	0.53485
1284.42393	0.53429
1282.49536	0.53358
1280.56680	0.53290
1278.63823	0.53242
1276.70967	0.53207
1274.78110	0.53162
1272.85254	0.53107
1270.92397	0.53054
1268.99541	0.53011
1267.06685	0.52984
1265.13828	0.52963
1263.20972	0.52941
1261.28115	0.52898
1259.35259	0.52829
1257.42402	0.52769
1255.49546	0.52738
1253.56689	0.52718
1251.63833	0.52685
1249.70977	0.52638
1247.78120	0.52595
1245.85264	0.52556
1243.92407	0.52510
1241.99551	0.52461
1240.06694	0.52409
1238.13838	0.52347
1236.20981	0.52290
1234.28125	0.52240
1232.35269	0.52176
1230.42412	0.52101
1228.49556	0.52022
1226.56699	0.51946
1224.63843	0.51879
1222.70986	0.51812
1220.78130	0.51736
1218.85273	0.51658
1216.92417	0.51582
1214.99561	0.51493
1213.06704	0.51390
1211.13848	0.51298
1209.20991	0.51250
1207.28135	0.51233
1205.35278	0.51200
1203.42422	0.51134
1201.49565	0.51069
1199.56709	0.51009
1197.63853	0.50936
1195.70996	0.50867
1193.78140	0.50823
1191.85283	0.50793
1189.92427	0.50763
1187.99570	0.50741
1186.06714	0.50730
1184.13857	0.50710
1182.21001	0.50685
1180.28145	0.50693
1178.35288	0.50743
1176.42432	0.50811
1174.49575	0.50882
1172.56719	0.50961
1170.63862	0.51047
1168.71006	0.51129
1166.78149	0.51209
1164.85293	0.51293
1162.92437	0.51380
1160.99580	0.51466
1159.06724	0.51527
1157.13867	0.51525
1155.21011	0.51464
1153.28154	0.51357
1151.35298	0.51215
1149.42441	0.51043
1147.49585	0.50816
1145.56729	0.50548
1143.63872	0.50284
1141.71016	0.50047
1139.78159	0.49844
1137.85303	0.49661
1135.92446	0.49479
1133.99590	0.49314
1132.06733	0.49193
1130.13877	0.49106
1128.21021	0.49022
1126.28164	0.48934
1124.35308	0.48862
1122.42451	0.48800
1120.49595	0.48753
1118.56738	0.48756
1116.63882	0.48792
1114.71025	0.48824
1112.78169	0.48863
1110.85312	0.48916
1108.92456	0.48989
1106.99600	0.49106
1105.06743	0.49245
1103.13887	0.49350
1101.21030	0.49426
1099.28174	0.49530
1097.35317	0.49707
1095.42461	0.49973
1093.49604	0.50340
1091.56748	0.50822
1089.63892	0.51417
1087.71035	0.52137
1085.78179	0.52968
1083.85322	0.53832
1081.92466	0.54620
1079.99609	0.55226
1078.06753	0.55565
1076.13896	0.55598
1074.21040	0.55335
1072.28184	0.54808
1070.35327	0.54111
1068.42471	0.53405
1066.49614	0.52778
1064.56758	0.52196
1062.63901	0.51623
1060.71045	0.51097
1058.78188	0.50663
1056.85332	0.50294
1054.92476	0.49970
1052.99619	0.49717
1051.06763	0.49527
1049.13906	0.49377
1047.21050	0.49283
1045.28193	0.49265
1043.35337	0.49302
1041.42480	0.49352
1039.49624	0.49397
1037.56768	0.49438
1035.63911	0.49453
1033.71055	0.49407
1031.78198	0.49308
1029.85342	0.49205
1027.92485	0.49110
1025.99629	0.49008
1024.06772	0.48922
1022.13916	0.48878
1020.21060	0.48865
1018.28203	0.48863
1016.35347	0.48866
1014.42490	0.48878
1012.49634	0.48890
1010.56777	0.48896
1008.63921	0.48925
1006.71064	0.49009
1004.78208	0.49136
1002.85352	0.49299
1000.92495	0.49519
998.99639	0.49823
997.06782	0.50216
995.13926	0.50635
993.21069	0.51012
991.28213	0.51317
989.35356	0.51524
987.42500	0.51636
985.49644	0.51683
983.56787	0.51693
981.63931	0.51730
979.71074	0.51849
977.78218	0.52025
975.85361	0.52232
973.92505	0.52480
971.99648	0.52779
970.06792	0.53124
968.13936	0.53515
966.21079	0.53940
964.28223	0.54374
962.35366	0.54824
960.42510	0.55340
958.49653	0.55916
956.56797	0.56499
954.63940	0.57085
952.71084	0.57712
950.78228	0.58369
948.85371	0.59024
946.92515	0.59656
944.99658	0.60262
943.06802	0.60879
941.13945	0.61517
939.21089	0.62136
937.28232	0.62718
935.35376	0.63290
933.42520	0.63883
931.49663	0.64460
929.56807	0.65008
927.63950	0.65600
925.71094	0.66257
923.78237	0.66905
921.85381	0.67515
919.92524	0.68149
917.99668	0.68863
916.06812	0.69641
914.13955	0.70401
912.21099	0.71121
910.28242	0.71893
908.35386	0.72746
906.42529	0.73588
904.49673	0.74405
902.56816	0.75286
900.63960	0.76269
898.71104	0.77355
896.78247	0.78466
894.85391	0.79531
892.92534	0.80633
890.99678	0.81684
889.06821	0.82602
887.13965	0.83597
885.21108	0.84685
883.28252	0.85737
881.35396	0.86835
879.42539	0.88073
877.49683	0.89338
875.56826	0.90509
873.63970	0.91707
871.71113	0.92974
869.78257	0.94103
867.85400	0.95167
865.92544	0.96330
863.99687	0.97397
862.06831	0.98330
860.13975	0.99436
858.21118	1.00881
856.28262	1.02297
854.35405	1.03411
852.42549	1.04532
850.49692	1.05624
848.56836	1.06423
846.63979	1.07348
844.71123	1.08703
842.78267	1.10018
840.85410	1.11229
838.92554	1.12691
836.99697	1.14260
835.06841	1.15798
833.13984	1.17080
831.21128	1.17616
829.28271	1.17594
827.35415	1.17973
825.42559	1.19472
823.49702	1.21803
821.56846	1.23962
819.63989	1.25105
817.71133	1.25490
815.78276	1.26648
813.85420	1.28905
811.92563	1.30474
809.99707	1.31122
808.06851	1.31823
806.13994	1.31945
804.21138	1.32645
802.28281	1.35688
800.35425	1.38432
798.42568	1.39979
796.49712	1.43469
794.56855	1.46823
792.63999	1.46975
790.71143	1.49269
788.78286	1.58026
786.85430	1.66776
784.92573	1.67497
782.99717	1.61642
781.06860	1.53999
779.14004	1.47807
777.21147	1.42335
775.28291	1.40327
773.35435	1.40518
771.42578	1.41643
769.49722	1.46537
767.56865	1.50290
765.64009	1.44336
763.71152	1.35596
761.78296	1.35925
759.85439	1.52236
757.92583	1.61293
755.99727	1.33760
754.06870	1.18055
752.14014	1.19095
750.21157	1.25049
748.28301	1.20394
746.35444	1.13644
744.42588	1.19050
742.49731	1.63603
740.56875	4.44341
738.64019	4.43184
736.71162	1.18452
734.78306	0.93384
732.85449	0.80160
730.92593	0.69406
728.99736	0.64453
727.06880	0.68297
725.14023	0.86545
723.21167	1.17088
721.28311	1.03891
719.35454	0.98108
717.42598	0.93091
715.49741	0.45181
713.56885	0.18451
711.64028	0.11107
709.71172	0.13147
707.78315	0.06727
705.85459	-0.02948
703.92603	0.04660
701.99746	0.22526
700.06890	0.31263
698.14033	0.16850
696.21177	0.09362
694.28320	0.18982
692.35464	0.26965
690.42607	0.27673
688.49751	0.23079
686.56895	0.11237
684.64038	0.04011
682.71182	0.15422
680.78325	0.22519
678.85469	0.16208
676.92612	0.15163
674.99756	0.20704
673.06899	0.25430
671.14043	0.25446
669.21187	0.28293
667.28330	0.31427
665.35474	0.21179
663.42617	0.07942
661.49761	0.02771
659.56904	0.10124
657.64048	0.28846
655.71191	0.47242
653.78335	0.37032
651.85479	0.22491
649.92622	0.18077
647.99766	0.17987
646.06909	0.17412
644.14053	0.13683
642.21196	0.05573
640.28340	0.00105
638.35483	0.04924
636.42627	0.21897
634.49771	0.46872
632.56914	0.36248
630.64058	0.15788
628.71201	0.11471
626.78345	0.11448
624.85488	0.07236
622.92632	0.07429
620.99775	0.12695
619.06919	0.08790
617.14062	0.02195
615.21206	0.09843
613.28350	0.24069
611.35493	0.33930
609.42637	0.37249
607.49780	0.28417
605.56924	0.18779
603.64067	0.17863
601.71211	0.17865
599.78354	0.11517
597.85498	0.13476
595.92642	0.25658
593.99785	0.27173
592.06929	0.18715
590.14072	0.15484
588.21216	0.15962
586.28359	0.11779
584.35503	0.10168
582.42646	0.15559
580.49790	0.20166
578.56934	0.15079
576.64077	0.10039
574.71221	0.11109
572.78364	0.11845
570.85508	0.11699
568.92651	0.08507
566.99795	0.02917
565.06938	0.04894
563.14082	0.13276
561.21226	0.15411
559.28369	0.14331
557.35513	0.15726
555.42656	0.18325
553.49800	0.20533
551.56943	0.19828
549.64087	0.16625
547.71230	0.10467
545.78374	0.09017
543.85518	0.15851
541.92661	0.20636
539.99805	0.16978
538.06948	0.13553
536.14092	0.13498
534.21235	0.14345
532.28379	0.16593
530.35522	0.19321
528.42666	0.21320
526.49810	0.19210
524.56953	0.14644
522.64097	0.15661
520.71240	0.25099
518.78384	0.27800
516.85527	0.21840
514.92671	0.19617
512.99814	0.21364
511.06958	0.24050
509.14102	0.28396
507.21245	0.32521
505.28389	0.32157
503.35532	0.26414
501.42676	0.17458
499.49819	0.11435
