3997.91411	0.06426
3995.98555	0.06491
3994.05698	0.06538
3992.12842	0.06538
3990.19985	0.06525
3988.27129	0.06506
3986.34272	0.06518
3984.41416	0.06605
3982.48560	0.06704
3980.55703	0.06746
3978.62847	0.06742
3976.69990	0.06720
3974.77134	0.06718
3972.84277	0.06752
3970.91421	0.06786
3968.98564	0.06804
3967.05708	0.06805
3965.12852	0.06801
3963.19995	0.06801
3961.27139	0.06824
3959.34282	0.06901
3957.41426	0.06974
3955.48569	0.06974
3953.55713	0.06918
3951.62856	0.06867
3949.70000	0.06873
3947.77144	0.06903
3945.84287	0.06912
3943.91431	0.06938
3941.98574	0.06945
3940.05718	0.06888
3938.12861	0.06843
3936.20005	0.06840
3934.27148	0.06878
3932.34292	0.06934
3930.41436	0.06959
3928.48579	0.06959
3926.55723	0.06954
3924.62866	0.06964
3922.70010	0.06987
3920.77153	0.07007
3918.84297	0.07022
3916.91440	0.07014
3914.98584	0.06951
3913.05728	0.06855
3911.12871	0.06800
3909.20015	0.06798
3907.27158	0.06819
3905.34302	0.06885
3903.41445	0.06957
3901.48589	0.06910
3899.55732	0.06813
3897.62876	0.06791
3895.70020	0.06807
3893.77163	0.06840
3891.84307	0.06907
3889.91450	0.06934
3887.98594	0.06863
3886.05737	0.06820
3884.12881	0.06852
3882.20024	0.06880
3880.27168	0.06912
3878.34312	0.06929
3876.41455	0.06901
3874.48599	0.06920
3872.55742	0.06998
3870.62886	0.07072
3868.70029	0.07120
3866.77173	0.07119
3864.84316	0.07156
3862.91460	0.07241
3860.98604	0.07243
3859.05747	0.07182
3857.12891	0.07168
3855.20034	0.07223
3853.27178	0.07337
3851.34321	0.07439
3849.41465	0.07417
3847.48608	0.07368
3845.55752	0.07383
3843.62896	0.07459
3841.70039	0.07519
3839.77183	0.07589
3837.84326	0.07781
3835.91470	0.07943
3833.98613	0.07922
3832.05757	0.07883
3830.12900	0.07921
3828.20044	0.07984
3826.27187	0.08068
3824.34331	0.08164
3822.41475	0.08253
3820.48618	0.08386
3818.55762	0.08511
3816.62905	0.08587
3814.70049	0.08662
3812.77192	0.08683
3810.84336	0.08674
3808.91479	0.08736
3806.98623	0.08923
3805.05767	0.09121
3803.12910	0.09207
3801.20054	0.09289
3799.27197	0.09382
3797.34341	0.09456
3795.41484	0.09568
3793.48628	0.09675
3791.55771	0.09773
3789.62915	0.09898
3787.70059	0.10032
3785.77202	0.10190
3783.84346	0.10351
3781.91489	0.10459
3779.98633	0.10577
3778.05776	0.10779
3776.12920	0.10961
3774.20063	0.11072
3772.27207	0.11198
3770.34351	0.11407
3768.41494	0.11660
3766.48638	0.11860
3764.55781	0.12054
3762.62925	0.12250
3760.70068	0.12439
3758.77212	0.12690
3756.84355	0.12944
3754.91499	0.13085
3752.98643	0.13220
3751.05786	0.13530
3749.12930	0.13989
3747.20073	0.14318
3745.27217	0.14560
3743.34360	0.14915
3741.41504	0.15256
3739.48647	0.15470
3737.55791	0.15721
3735.62935	0.16146
3733.70078	0.16684
3731.77222	0.17130
3729.84365	0.17531
3727.91509	0.17987
3725.98652	0.18564
3724.05796	0.19218
3722.12939	0.19864
3720.20083	0.20532
3718.27227	0.21234
3716.34370	0.21977
3714.41514	0.22730
3712.48657	0.23602
3710.55801	0.24846
3708.62944	0.26242
3706.70088	0.27404
3704.77231	0.28481
3702.84375	0.29719
3700.91519	0.31337
3698.98662	0.33124
3697.05806	0.34832
3695.12949	0.36671
3693.20093	0.38607
3691.27236	0.40652
3689.34380	0.43333
3687.41523	0.46746
3685.48667	0.49790
3683.55811	0.52413
3681.62954	0.55187
3679.70098	0.58267
3677.77241	0.61472
3675.84385	0.65230
3673.91528	0.70369
3671.98672	0.74666
3670.05815	0.78512
3668.12959	0.83818
3666.20103	0.88637
3664.27246	0.92577
3662.34390	0.96785
3660.41533	1.01402
3658.48677	1.06010
3656.55820	1.10904
3654.62964	1.16323
3652.70107	1.20795
3650.77251	1.24594
3648.84395	1.29891
3646.91538	1.36629
3644.98682	1.41753
3643.05825	1.45713
3641.12969	1.49729
3639.20112	1.54147
3637.27256	1.58616
3635.34399	1.62910
3633.41543	1.67126
3631.48687	1.71136
3629.55830	1.75260
3627.62974	1.80547
3625.70117	1.85425
3623.77261	1.88727
3621.84404	1.91969
3619.91548	1.95794
3617.98691	2.00421
3616.05835	2.04901
3614.12979	2.08679
3612.20122	2.12602
3610.27266	2.16539
3608.34409	2.20482
3606.41553	2.24643
3604.48696	2.28528
3602.55840	2.32031
3600.62983	2.35798
3598.70127	2.39939
3596.77271	2.44006
3594.84414	2.48017
3592.91558	2.52150
3590.98701	2.56035
3589.05845	2.59548
3587.12988	2.63852
3585.20132	2.68900
3583.27275	2.73189
3581.34419	2.76974
3579.41562	2.80999
3577.48706	2.85369
3575.55850	2.89840
3573.62993	2.94304
3571.70137	2.98579
3569.77280	3.02638
3567.84424	3.06789
3565.91567	3.11817
3563.98711	3.17012
3562.05854	3.21456
3560.12998	3.25645
3558.20142	3.29765
3556.27285	3.34022
3554.34429	3.38519
3552.41572	3.43277
3550.48716	3.48072
3548.55859	3.52662
3546.63003	3.57245
3544.70146	3.62164
3542.77290	3.67180
3540.84434	3.71996
3538.91577	3.76667
3536.98721	3.81211
3535.05864	3.85798
3533.13008	3.90349
3531.20151	3.94938
3529.27295	3.99827
3527.34438	4.05219
3525.41582	4.10597
3523.48726	4.15398
3521.55869	4.19928
3519.63013	4.24276
3517.70156	4.28445
3515.77300	4.32700
3513.84443	4.37593
3511.91587	4.43163
3509.98730	4.48708
3508.05874	4.53563
3506.13018	4.57978
3504.20161	4.62565
3502.27305	4.67303
3500.34448	4.72113
3498.41592	4.77095
3496.48735	4.82323
3494.55879	4.87351
3492.63022	4.91800
3490.70166	4.96077
3488.77310	5.00707
3486.84453	5.05527
3484.91597	5.10258
3482.98740	5.15498
3481.05884	5.20966
3479.13027	5.25308
3477.20171	5.28926
3475.27314	5.32895
3473.34458	5.37361
3471.41602	5.42002
3469.48745	5.46293
3467.55889	5.50895
3465.63032	5.57099
3463.70176	5.64246
3461.77319	5.70028
3459.84463	5.73725
3457.91606	5.76878
3455.98750	5.80788
3454.05894	5.85744
3452.13037	5.91800
3450.20181	5.97915
3448.27324	6.02999
3446.34468	6.07153
3444.41611	6.10590
3442.48755	6.13725
3440.55898	6.16745
3438.63042	6.21610
3436.70186	6.27980
3434.77329	6.32858
3432.84473	6.37119
3430.91616	6.42410
3428.98760	6.48150
3427.05903	6.52931
3425.13047	6.57082
3423.20190	6.61365
3421.27334	6.66925
3419.34478	6.74201
3417.41621	6.80726
3415.48765	6.83835
3413.55908	6.83802
3411.63052	6.84103
3409.70195	6.87339
3407.77339	6.94057
3405.84482	7.00761
3403.91626	7.05933
3401.98770	7.11162
3400.05913	7.14850
3398.13057	7.17610
3396.20200	7.23491
3394.27344	7.29346
3392.34487	7.29208
3390.41631	7.30072
3388.48774	7.35811
3386.55918	7.40661
3384.63062	7.42400
3382.70205	7.45401
3380.77349	7.50965
3378.84492	7.56425
3376.91636	7.60735
3374.98779	7.62185
3373.05923	7.63637
3371.13066	7.65698
3369.20210	7.70403
3367.27354	7.77379
3365.34497	7.74533
3363.41641	7.64493
3361.48784	7.64212
3359.55928	7.74199
3357.63071	7.80486
3355.70215	7.81723
3353.77358	7.82278
3351.84502	7.81341
3349.91646	7.81735
3347.98789	7.85231
3346.05933	7.86183
3344.13076	7.84865
3342.20220	7.88166
3340.27363	7.93934
3338.34507	7.96887
3336.41650	7.95710
3334.48794	7.93484
3332.55937	7.91654
3330.63081	7.87845
3328.70225	7.81355
3326.77368	7.81668
3324.84512	7.92643
3322.91655	7.99019
3320.98799	7.95089
3319.05942	7.89764
3317.13086	7.87579
3315.20229	7.88448
3313.27373	7.89981
3311.34517	7.90253
3309.41660	7.93394
3307.48804	8.00311
3305.55947	8.04577
3303.63091	8.04534
3301.70234	8.00828
3299.77378	7.97613
3297.84521	7.98773
3295.91665	7.99794
3293.98809	7.95858
3292.05952	7.94475
3290.13096	7.98322
3288.20239	8.00266
3286.27383	8.02658
3284.34526	8.08418
3282.41670	8.09067
3280.48813	8.02526
3278.55957	8.04314
3276.63101	8.16345
3274.70244	8.25367
3272.77388	8.30292
3270.84531	8.32492
3268.91675	8.17738
3266.98818	7.92611
3265.05962	7.83234
3263.13105	7.88588
3261.20249	7.97285
3259.27393	8.10960
3257.34536	8.23091
3255.41680	8.19127
3253.48823	8.10530
3251.55967	8.10635
3249.63110	8.08282
3247.70254	7.99037
3245.77397	7.94196
3243.84541	7.94830
3241.91685	7.90652
3239.98828	7.85014
3238.05972	7.85391
3236.13115	7.87029
3234.20259	7.91123
3232.27402	8.00754
3230.34546	8.06629
3228.41689	8.05056
3226.48833	8.03609
3224.55977	8.00472
3222.63120	7.94576
3220.70264	7.92490
3218.77407	7.93117
3216.84551	7.90886
3214.91694	7.83903
3212.98838	7.75030
3211.05981	7.72278
3209.13125	7.79874
3207.20269	7.91503
3205.27412	7.96465
3203.34556	7.89829
3201.41699	7.79617
3199.48843	7.73348
3197.55986	7.66586
3195.63130	7.59490
3193.70273	7.57037
3191.77417	7.55876
3189.84561	7.52857
3187.91704	7.48316
3185.98848	7.40059
3184.05991	7.30540
3182.13135	7.26436
3180.20278	7.24904
3178.27422	7.19444
3176.34565	7.12293
3174.41709	7.05756
3172.48853	7.00147
3170.55996	6.95094
3168.63140	6.89119
3166.70283	6.83593
3164.77427	6.79441
3162.84570	6.74651
3160.91714	6.67467
3158.98857	6.61087
3157.06001	6.58194
3155.13145	6.54732
3153.20288	6.47733
3151.27432	6.40271
3149.34575	6.34472
3147.41719	6.28157
3145.48862	6.20580
3143.56006	6.13846
3141.63149	6.07482
3139.70293	5.99654
3137.77437	5.91192
3135.84580	5.83629
3133.91724	5.77450
3131.98867	5.72003
3130.06011	5.66007
3128.13154	5.59267
3126.20298	5.52334
3124.27441	5.45230
3122.34585	5.37979
3120.41729	5.31114
3118.48872	5.24944
3116.56016	5.18967
3114.63159	5.12116
3112.70303	5.04248
3110.77446	4.96370
3108.84590	4.89392
3106.91733	4.83298
3104.98877	4.77174
3103.06021	4.70153
3101.13164	4.62314
3099.20308	4.55222
3097.27451	4.49466
3095.34595	4.43598
3093.41738	4.36992
3091.48882	4.30195
3089.56025	4.23624
3087.63169	4.17292
3085.70312	4.11013
3083.77456	4.04938
3081.84600	3.99143
3079.91743	3.93266
3077.98887	3.87232
3076.06030	3.81259
3074.13174	3.75320
3072.20317	3.69233
3070.27461	3.63185
3068.34604	3.57622
3066.41748	3.52436
3064.48892	3.47115
3062.56035	3.41484
3060.63179	3.35878
3058.70322	3.30458
3056.77466	3.24967
3054.84609	3.19446
3052.91753	3.14180
3050.98896	3.09094
3049.06040	3.04017
3047.13184	2.99045
3045.20327	2.94118
3043.27471	2.89131
3041.34614	2.84321
3039.41758	2.79730
3037.48901	2.75087
3035.56045	2.70360
3033.63188	2.65726
3031.70332	2.61233
3029.77476	2.56765
3027.84619	2.52271
3025.91763	2.47824
3023.98906	2.43486
3022.06050	2.39258
3020.13193	2.35087
3018.20337	2.31001
3016.27480	2.27030
3014.34624	2.23069
3012.41768	2.19110
3010.48911	2.15251
3008.56055	2.11515
3006.63198	2.07878
3004.70342	2.04270
3002.77485	2.00650
3000.84629	1.97139
2998.91772	1.93793
2996.98916	1.90526
2995.06060	1.87316
2993.13203	1.84194
2991.20347	1.81155
2989.27490	1.78168
2987.34634	1.75259
2985.41777	1.72478
2983.48921	1.69787
2981.56064	1.67098
2979.63208	1.64418
2977.70352	1.61783
2975.77495	1.59206
2973.84639	1.56747
2971.91782	1.54400
2969.98926	1.52034
2968.06069	1.49637
2966.13213	1.47315
2964.20356	1.45036
2962.27500	1.42694
2960.34644	1.40297
2958.41787	1.37919
2956.48931	1.35589
2954.56074	1.33239
2952.63218	1.30855
2950.70361	1.28510
2948.77505	1.26210
2946.84648	1.23972
2944.91792	1.21857
2942.98936	1.19837
2941.06079	1.17842
2939.13223	1.15890
2937.20366	1.13991
2935.27510	1.12044
2933.34653	1.10012
2931.41797	1.08012
2929.48940	1.06107
2927.56084	1.04243
2925.63228	1.02384
2923.70371	1.00519
2921.77515	0.98684
2919.84658	0.96933
2917.91802	0.95214
2915.98945	0.93470
2914.06089	0.91713
2912.13232	0.89965
2910.20376	0.88259
2908.27520	0.86622
2906.34663	0.85092
2904.41807	0.83671
2902.48950	0.82286
2900.56094	0.80900
2898.63237	0.79534
2896.70381	0.78177
2894.77524	0.76822
2892.84668	0.75530
2890.91812	0.74318
2888.98955	0.73149
2887.06099	0.72017
2885.13242	0.70956
2883.20386	0.69979
2881.27529	0.69049
2879.34673	0.68120
2877.41816	0.67156
2875.48960	0.66149
2873.56104	0.65115
2871.63247	0.64036
2869.70391	0.62883
2867.77534	0.61686
2865.84678	0.60509
2863.91821	0.59360
2861.98965	0.58228
2860.06108	0.57149
2858.13252	0.56125
2856.20396	0.55123
2854.27539	0.54119
2852.34683	0.53122
2850.41826	0.52167
2848.48970	0.51273
2846.56113	0.50410
2844.63257	0.49588
2842.70400	0.48844
2840.77544	0.48160
2838.84687	0.47497
2836.91831	0.46850
2834.98975	0.46209
2833.06118	0.45568
2831.13262	0.44930
2829.20405	0.44301
2827.27549	0.43683
2825.34692	0.43076
2823.41836	0.42468
2821.48979	0.41848
2819.56123	0.41224
2817.63267	0.40621
2815.70410	0.40042
2813.77554	0.39474
2811.84697	0.38917
2809.91841	0.38382
2807.98984	0.37859
2806.06128	0.37328
2804.13271	0.36794
2802.20415	0.36277
2800.27559	0.35776
2798.34702	0.35274
2796.41846	0.34765
2794.48989	0.34267
2792.56133	0.33793
2790.63276	0.33345
2788.70420	0.32907
2786.77563	0.32455
2784.84707	0.31994
2782.91851	0.31543
2780.98994	0.31108
2779.06138	0.30699
2777.13281	0.30311
2775.20425	0.29913
2773.27568	0.29512
2771.34712	0.29124
2769.41855	0.28742
2767.48999	0.28367
2765.56143	0.28005
2763.63286	0.27657
2761.70430	0.27314
2759.77573	0.26976
2757.84717	0.26648
2755.91860	0.26310
2753.99004	0.25972
2752.06147	0.25665
2750.13291	0.25384
2748.20435	0.25103
2746.27578	0.24809
2744.34722	0.24522
2742.41865	0.24253
2740.49009	0.23993
2738.56152	0.23737
2736.63296	0.23480
2734.70439	0.23223
2732.77583	0.22972
2730.84727	0.22720
2728.91870	0.22472
2726.99014	0.22243
2725.06157	0.22015
2723.13301	0.21776
2721.20444	0.21554
2719.27588	0.21356
2717.34731	0.21158
2715.41875	0.20959
2713.49019	0.20765
2711.56162	0.20564
2709.63306	0.20364
2707.70449	0.20186
2705.77593	0.20021
2703.84736	0.19855
2701.91880	0.19689
2699.99023	0.19529
2698.06167	0.19371
2696.13311	0.19210
2694.20454	0.19057
2692.27598	0.18925
2690.34741	0.18802
2688.41885	0.18676
2686.49028	0.18538
2684.56172	0.18409
2682.63315	0.18298
2680.70459	0.18181
2678.77603	0.18053
2676.84746	0.17927
2674.91890	0.17812
2672.99033	0.17700
2671.06177	0.17591
2669.13320	0.17486
2667.20464	0.17376
2665.27607	0.17279
2663.34751	0.17195
2661.41895	0.17109
2659.49038	0.17011
2657.56182	0.16905
2655.63325	0.16816
2653.70469	0.16746
2651.77612	0.16657
2649.84756	0.16556
2647.91899	0.16480
2645.99043	0.16426
2644.06187	0.16373
2642.13330	0.16314
2640.20474	0.16247
2638.27617	0.16188
2636.34761	0.16146
2634.41904	0.16103
2632.49048	0.16055
2630.56191	0.16014
2628.63335	0.15975
2626.70479	0.15923
2624.77622	0.15866
2622.84766	0.15831
2620.91909	0.15810
2618.99053	0.15787
2617.06196	0.15749
2615.13340	0.15699
2613.20483	0.15670
2611.27627	0.15673
2609.34771	0.15672
2607.41914	0.15649
2605.49058	0.15619
2603.56201	0.15602
2601.63345	0.15603
2599.70488	0.15605
2597.77632	0.15595
2595.84775	0.15583
2593.91919	0.15577
2591.99062	0.15579
2590.06206	0.15594
2588.13350	0.15618
2586.20493	0.15638
2584.27637	0.15652
2582.34780	0.15670
2580.41924	0.15688
2578.49067	0.15695
2576.56211	0.15699
2574.63354	0.15716
2572.70498	0.15755
2570.77642	0.15811
2568.84785	0.15857
2566.91929	0.15867
2564.99072	0.15872
2563.06216	0.15913
2561.13359	0.15971
2559.20503	0.16018
2557.27646	0.16052
2555.34790	0.16093
2553.41934	0.16155
2551.49077	0.16213
2549.56221	0.16246
2547.63364	0.16277
2545.70508	0.16328
2543.77651	0.16392
2541.84795	0.16453
2539.91938	0.16506
2537.99082	0.16558
2536.06226	0.16614
2534.13369	0.16671
2532.20513	0.16737
2530.27656	0.16807
2528.34800	0.16864
2526.41943	0.16918
2524.49087	0.16988
2522.56230	0.17072
2520.63374	0.17163
2518.70518	0.17249
2516.77661	0.17317
2514.84805	0.17375
2512.91948	0.17441
2510.99092	0.17517
2509.06235	0.17590
2507.13379	0.17649
2505.20522	0.17712
2503.27666	0.17792
2501.34810	0.17874
2499.41953	0.17961
2497.49097	0.18059
2495.56240	0.18147
2493.63384	0.18211
2491.70527	0.18268
2489.77671	0.18337
2487.84814	0.18411
2485.91958	0.18494
2483.99102	0.18595
2482.06245	0.18695
2480.13389	0.18779
2478.20532	0.18858
2476.27676	0.18933
2474.34819	0.19017
2472.41963	0.19110
2470.49106	0.19188
2468.56250	0.19251
2466.63394	0.19325
2464.70537	0.19420
2462.77681	0.19518
2460.84824	0.19610
2458.91968	0.19701
2456.99111	0.19795
2455.06255	0.19875
2453.13398	0.19952
2451.20542	0.20049
2449.27686	0.20158
2447.34829	0.20258
2445.41973	0.20348
2443.49116	0.20434
2441.56260	0.20521
2439.63403	0.20618
2437.70547	0.20724
2435.77690	0.20828
2433.84834	0.20926
2431.91978	0.21023
2429.99121	0.21130
2428.06265	0.21244
2426.13408	0.21346
2424.20552	0.21434
2422.27695	0.21526
2420.34839	0.21621
2418.41982	0.21716
2416.49126	0.21828
2414.56270	0.21957
2412.63413	0.22076
2410.70557	0.22183
2408.77700	0.22290
2406.84844	0.22401
2404.91987	0.22523
2402.99131	0.22653
2401.06274	0.22778
2399.13418	0.22904
2397.20562	0.23027
2395.27705	0.23135
2393.34849	0.23240
2391.41992	0.23362
2389.49136	0.23490
2387.56279	0.23611
2385.63423	0.23730
2383.70566	0.23845
2381.77710	0.23958
2379.84854	0.24079
2377.91997	0.24200
2375.99141	0.24301
2374.06284	0.24367
2372.13428	0.24400
2370.20571	0.24451
2368.27715	0.24506
2366.34858	0.24508
2364.42002	0.24484
2362.49146	0.24507
2360.56289	0.24701
2358.63433	0.24994
2356.70576	0.25206
2354.77720	0.25412
2352.84863	0.25727
2350.92007	0.26037
2348.99150	0.26201
2347.06294	0.26238
2345.13437	0.26242
2343.20581	0.26337
2341.27725	0.26524
2339.34868	0.26688
2337.42012	0.26846
2335.49155	0.27045
2333.56299	0.27242
2331.63442	0.27428
2329.70586	0.27606
2327.77729	0.27795
2325.84873	0.28029
2323.92017	0.28302
2321.99160	0.28563
2320.06304	0.28757
2318.13447	0.28905
2316.20591	0.29060
2314.27734	0.29247
2312.34878	0.29474
2310.42021	0.29705
2308.49165	0.29890
2306.56309	0.30039
2304.63452	0.30198
2302.70596	0.30385
2300.77739	0.30577
2298.84883	0.30768
2296.92026	0.30967
2294.99170	0.31160
2293.06313	0.31331
2291.13457	0.31506
2289.20601	0.31706
2287.27744	0.31920
2285.34888	0.32127
2283.42031	0.32321
2281.49175	0.32506
2279.56318	0.32692
2277.63462	0.32892
2275.70605	0.33103
2273.77749	0.33305
2271.84893	0.33501
2269.92036	0.33715
2267.99180	0.33942
2266.06323	0.34161
2264.13467	0.34364
2262.20610	0.34557
2260.27754	0.34756
2258.34897	0.34977
2256.42041	0.35213
2254.49185	0.35447
2252.56328	0.35664
2250.63472	0.35873
2248.70615	0.36084
2246.77759	0.36289
2244.84902	0.36487
2242.92046	0.36701
2240.99189	0.36930
2239.06333	0.37159
2237.13477	0.37389
2235.20620	0.37627
2233.27764	0.37860
2231.34907	0.38071
2229.42051	0.38275
2227.49194	0.38500
2225.56338	0.38733
2223.63481	0.38953
2221.70625	0.39165
2219.77769	0.39383
2217.84912	0.39604
2215.92056	0.39820
2213.99199	0.40030
2212.06343	0.40238
2210.13486	0.40443
2208.20630	0.40659
2206.27773	0.40894
2204.34917	0.41113
2202.42061	0.41305
2200.49204	0.41500
2198.56348	0.41713
2196.63491	0.41920
2194.70635	0.42115
2192.77778	0.42303
2190.84922	0.42485
2188.92065	0.42667
2186.99209	0.42853
2185.06353	0.43037
2183.13496	0.43220
2181.20640	0.43402
2179.27783	0.43566
2177.34927	0.43711
2175.42070	0.43852
2173.49214	0.43990
2171.56357	0.44121
2169.63501	0.44254
2167.70645	0.44389
2165.77788	0.44516
2163.84932	0.44635
2161.92075	0.44746
2159.99219	0.44846
2158.06362	0.44950
2156.13506	0.45060
2154.20649	0.45147
2152.27793	0.45209
2150.34937	0.45267
2148.42080	0.45324
2146.49224	0.45368
2144.56367	0.45413
2142.63511	0.45466
2140.70654	0.45505
2138.77798	0.45527
2136.84941	0.45546
2134.92085	0.45565
2132.99229	0.45572
2131.06372	0.45569
2129.13516	0.45557
2127.20659	0.45528
2125.27803	0.45481
2123.34946	0.45432
2121.42090	0.45383
2119.49233	0.45318
2117.56377	0.45242
2115.63521	0.45168
2113.70664	0.45091
2111.77808	0.44993
2109.84951	0.44880
2107.92095	0.44779
2105.99238	0.44678
2104.06382	0.44560
2102.13525	0.44421
2100.20669	0.44277
2098.27812	0.44133
2096.34956	0.43982
2094.42100	0.43830
2092.49243	0.43669
2090.56387	0.43499
2088.63530	0.43324
2086.70674	0.43140
2084.77817	0.42950
2082.84961	0.42759
2080.92104	0.42558
2078.99248	0.42348
2077.06392	0.42136
2075.13535	0.41927
2073.20679	0.41707
2071.27822	0.41473
2069.34966	0.41244
2067.42109	0.41022
2065.49253	0.40798
2063.56396	0.40559
2061.63540	0.40306
2059.70684	0.40043
2057.77827	0.39782
2055.84971	0.39538
2053.92114	0.39292
2051.99258	0.39024
2050.06401	0.38751
2048.13545	0.38489
2046.20688	0.38224
2044.27832	0.37950
2042.34976	0.37674
2040.42119	0.37399
2038.49263	0.37122
2036.56406	0.36850
2034.63550	0.36584
2032.70693	0.36308
2030.77837	0.36017
2028.84980	0.35726
2026.92124	0.35456
2024.99268	0.35196
2023.06411	0.34926
2021.13555	0.34645
2019.20698	0.34369
2017.27842	0.34101
2015.34985	0.33823
2013.42129	0.33546
2011.49272	0.33280
2009.56416	0.33008
2007.63560	0.32721
2005.70703	0.32436
2003.77847	0.32166
2001.84990	0.31905
1999.92134	0.31644
1997.99277	0.31383
1996.06421	0.31135
1994.13564	0.30902
1992.20708	0.30660
1990.27852	0.30394
1988.34995	0.30135
1986.42139	0.29903
1984.49282	0.29684
1982.56426	0.29449
1980.63569	0.29196
1978.70713	0.28960
1976.77856	0.28750
1974.85000	0.28543
1972.92144	0.28327
1970.99287	0.28112
1969.06431	0.27905
1967.13574	0.27704
1965.20718	0.27502
1963.27861	0.27301
1961.35005	0.27109
1959.42148	0.26926
1957.49292	0.26754
1955.56436	0.26582
1953.63579	0.26411
1951.70723	0.26238
1949.77866	0.26060
1947.85010	0.25893
1945.92153	0.25750
1943.99297	0.25617
1942.06440	0.25478
1940.13584	0.25328
1938.20728	0.25175
1936.27871	0.25023
1934.35015	0.24884
1932.42158	0.24769
1930.49302	0.24660
1928.56445	0.24546
1926.63589	0.24443
1924.70732	0.24356
1922.77876	0.24269
1920.85020	0.24174
1918.92163	0.24077
1916.99307	0.23985
1915.06450	0.23899
1913.13594	0.23822
1911.20737	0.23760
1909.27881	0.23701
1907.35024	0.23634
1905.42168	0.23567
1903.49312	0.23509
1901.56455	0.23454
1899.63599	0.23400
1897.70742	0.23355
1895.77886	0.23313
1893.85029	0.23274
1891.92173	0.23244
1889.99316	0.23230
1888.06460	0.23206
1886.13604	0.23167
1884.20747	0.23137
1882.27891	0.23124
1880.35034	0.23120
1878.42178	0.23115
1876.49321	0.23115
1874.56465	0.23117
1872.63608	0.23128
1870.70752	0.23156
1868.77896	0.23212
1866.85039	0.23251
1864.92183	0.23247
1862.99326	0.23250
1861.06470	0.23276
1859.13613	0.23309
1857.20757	0.23334
1855.27900	0.23369
1853.35044	0.23412
1851.42187	0.23462
1849.49331	0.23522
1847.56475	0.23595
1845.63618	0.23684
1843.70762	0.23797
1841.77905	0.23885
1839.85049	0.23929
1837.92192	0.23992
1835.99336	0.24076
1834.06479	0.24169
1832.13623	0.24270
1830.20767	0.24415
1828.27910	0.24576
1826.35054	0.24690
1824.42197	0.24813
1822.49341	0.24941
1820.56484	0.25058
1818.63628	0.25187
1816.70771	0.25350
1814.77915	0.25518
1812.85059	0.25698
1810.92202	0.25905
1808.99346	0.26111
1807.06489	0.26300
1805.13633	0.26483
1803.20776	0.26694
1801.27920	0.26940
1799.35063	0.27219
1797.42207	0.27478
1795.49351	0.27729
1793.56494	0.28015
1791.63638	0.28382
1789.70781	0.28733
1787.77925	0.28986
1785.85068	0.29280
1783.92212	0.29635
1781.99355	0.30022
1780.06499	0.30430
1778.13643	0.30857
1776.20786	0.31260
1774.27930	0.31686
1772.35073	0.32255
1770.42217	0.32883
1768.49360	0.33429
1766.56504	0.33959
1764.63647	0.34496
1762.70791	0.35070
1760.77935	0.35799
1758.85078	0.36501
1756.92222	0.37221
1754.99365	0.38004
1753.06509	0.38701
1751.13652	0.39521
1749.20796	0.40563
1747.27939	0.41604
1745.35083	0.42520
1743.42227	0.43489
1741.49370	0.44560
1739.56514	0.45802
1737.63657	0.47026
1735.70801	0.48089
1733.77944	0.49698
1731.85088	0.51671
1729.92231	0.53255
1727.99375	0.54838
1726.06519	0.56519
1724.13662	0.58348
1722.20806	0.60325
1720.27949	0.62151
1718.35093	0.64279
1716.42236	0.67435
1714.49380	0.70492
1712.56523	0.73001
1710.63667	0.75409
1708.70811	0.77971
1706.77954	0.80883
1704.85098	0.84408
1702.92241	0.87585
1700.99385	0.90713
1699.06528	0.95379
1697.13672	0.99730
1695.20815	1.04300
1693.27959	1.08821
1691.35103	1.12471
1689.42246	1.16642
1687.49390	1.21034
1685.56533	1.25280
1683.63677	1.32006
1681.70820	1.39114
1679.77964	1.43597
1677.85107	1.47794
1675.92251	1.52625
1673.99395	1.58656
1672.06538	1.64051
1670.13682	1.69357
1668.20825	1.76427
1666.27969	1.82349
1664.35112	1.87389
1662.42256	1.93796
1660.49399	2.01225
1658.56543	2.07114
1656.63687	2.11782
1654.70830	2.15720
1652.77974	2.21472
1650.85117	2.27225
1648.92261	2.29187
1646.99404	2.31334
1645.06548	2.33732
1643.13691	2.35406
1641.20835	2.36267
1639.27979	2.36783
1637.35122	2.36511
1635.42266	2.35592
1633.49409	2.34840
1631.56553	2.33700
1629.63696	2.31833
1627.70840	2.28466
1625.77983	2.24587
1623.85127	2.19907
1621.92271	2.14247
1619.99414	2.09262
1618.06558	2.04488
1616.13701	1.97911
1614.20845	1.91341
1612.27988	1.86284
1610.35132	1.80956
1608.42275	1.75188
1606.49419	1.69520
1604.56562	1.64293
1602.63706	1.59267
1600.70850	1.54449
1598.77993	1.50102
1596.85137	1.46037
1594.92280	1.42081
1592.99424	1.38293
1591.06567	1.34868
1589.13711	1.31699
1587.20854	1.28796
1585.27998	1.26195
1583.35142	1.23847
1581.42285	1.21740
1579.49429	1.19952
1577.56572	1.18377
1575.63716	1.16591
1573.70859	1.15138
1571.78003	1.14236
1569.85146	1.13370
1567.92290	1.12517
1565.99434	1.12001
1564.06577	1.11767
1562.13721	1.11657
1560.20864	1.11712
1558.28008	1.12466
1556.35151	1.13489
1554.42295	1.14063
1552.49438	1.14541
1550.56582	1.14798
1548.63726	1.14746
1546.70869	1.14345
1544.78013	1.13512
1542.85156	1.12203
1540.92300	1.10103
1538.99443	1.06882
1537.06587	1.04591
1535.13730	1.02969
1533.20874	1.00700
1531.28018	0.98249
1529.35161	0.96493
1527.42305	0.94857
1525.49448	0.93146
1523.56592	0.91696
1521.63735	0.90369
1519.70879	0.89100
1517.78022	0.88023
1515.85166	0.86692
1513.92310	0.85254
1511.99453	0.83995
1510.06597	0.82849
1508.13740	0.81702
1506.20884	0.79935
1504.28027	0.78461
1502.35171	0.77666
1500.42314	0.76961
1498.49458	0.76172
1496.56602	0.75235
1494.63745	0.74356
1492.70889	0.73713
1490.78032	0.73126
1488.85176	0.72426
1486.92319	0.71788
1484.99463	0.71304
1483.06606	0.70932
1481.13750	0.70643
1479.20894	0.70446
1477.28037	0.70368
1475.35181	0.70378
1473.42324	0.70433
1471.49468	0.70469
1469.56611	0.70383
1467.63755	0.70200
1465.70898	0.70031
1463.78042	0.69953
1461.85186	0.69940
1459.92329	0.69961
1457.99473	0.70045
1456.06616	0.70116
1454.13760	0.70001
1452.20903	0.69815
1450.28047	0.69601
1448.35190	0.69339
1446.42334	0.69032
1444.49478	0.68750
1442.56621	0.68493
1440.63765	0.68220
1438.70908	0.67920
1436.78052	0.67527
1434.85195	0.67093
1432.92339	0.66777
1430.99482	0.66574
1429.06626	0.66483
1427.13770	0.66482
1425.20913	0.66541
1423.28057	0.66656
1421.35200	0.66760
1419.42344	0.66837
1417.49487	0.66878
1415.56631	0.66829
1413.63774	0.66779
1411.70918	0.66816
1409.78062	0.66953
1407.85205	0.67137
1405.92349	0.67347
1403.99492	0.67556
1402.06636	0.67656
1400.13779	0.67624
1398.20923	0.67472
1396.28066	0.67203
1394.35210	0.66803
1392.42354	0.66323
1390.49497	0.65863
1388.56641	0.65387
1386.63784	0.64811
1384.70928	0.64194
1382.78071	0.63621
1380.85215	0.63092
1378.92358	0.62640
1376.99502	0.62302
1375.06646	0.62066
1373.13789	0.61901
1371.20933	0.61807
1369.28076	0.61747
1367.35220	0.61642
1365.42363	0.61477
1363.49507	0.61289
1361.56650	0.61101
1359.63794	0.60938
1357.70937	0.60807
1355.78081	0.60685
1353.85225	0.60570
1351.92368	0.60470
1349.99512	0.60373
1348.06655	0.60284
1346.13799	0.60210
1344.20942	0.60133
1342.28086	0.60051
1340.35229	0.59986
1338.42373	0.59920
1336.49517	0.59851
1334.56660	0.59817
1332.63804	0.59821
1330.70947	0.59850
1328.78091	0.59917
1326.85234	0.60025
1324.92378	0.60140
1322.99521	0.60236
1321.06665	0.60320
1319.13809	0.60404
1317.20952	0.60475
1315.28096	0.60510
1313.35239	0.60508
1311.42383	0.60480
1309.49526	0.60429
1307.56670	0.60359
1305.63813	0.60283
1303.70957	0.60216
1301.78101	0.60154
1299.85244	0.60076
1297.92388	0.59970
1295.99531	0.59848
1294.06675	0.59732
1292.13818	0.59614
1290.20962	0.59471
1288.28105	0.59311
1286.35249	0.59164
1284.42393	0.59025
1282.49536	0.58854
1280.56680	0.58652
1278.63823	0.58475
1276.70967	0.58351
1274.78110	0.58252
1272.85254	0.58156
1270.92397	0.58064
1268.99541	0.57982
1267.06685	0.57901
1265.13828	0.57798
1263.20972	0.57678
1261.28115	0.57574
1259.35259	0.57498
1257.42402	0.57439
1255.49546	0.57406
1253.56689	0.57395
1251.63833	0.57380
1249.70977	0.57374
1247.78120	0.57385
1245.85264	0.57371
1243.92407	0.57298
1241.99551	0.57178
1240.06694	0.57019
1238.13838	0.56819
1236.20981	0.56584
1234.28125	0.56329
1232.35269	0.56062
1230.42412	0.55791
1228.49556	0.55529
1226.56699	0.55292
1224.63843	0.55079
1222.70986	0.54884
1220.78130	0.54708
1218.85273	0.54539
1216.92417	0.54367
1214.99561	0.54218
1213.06704	0.54112
1211.13848	0.54036
1209.20991	0.53966
1207.28135	0.53893
1205.35278	0.53807
1203.42422	0.53706
1201.49565	0.53599
1199.56709	0.53496
1197.63853	0.53393
1195.70996	0.53306
1193.78140	0.53244
1191.85283	0.53178
1189.92427	0.53110
1187.99570	0.53068
1186.06714	0.53051
1184.13857	0.53050
1182.21001	0.53088
1180.28145	0.53178
1178.35288	0.53302
1176.42432	0.53429
1174.49575	0.53553
1172.56719	0.53661
1170.63862	0.53729
1168.71006	0.53757
1166.78149	0.53752
1164.85293	0.53739
1162.92437	0.53754
1160.99580	0.53774
1159.06724	0.53751
1157.13867	0.53695
1155.21011	0.53639
1153.28154	0.53558
1151.35298	0.53410
1149.42441	0.53178
1147.49585	0.52889
1145.56729	0.52597
1143.63872	0.52338
1141.71016	0.52103
1139.78159	0.51897
1137.85303	0.51761
1135.92446	0.51701
1133.99590	0.51690
1132.06733	0.51725
1130.13877	0.51788
1128.21021	0.51822
1126.28164	0.51800
1124.35308	0.51751
1122.42451	0.51724
1120.49595	0.51740
1118.56738	0.51781
1116.63882	0.51835
1114.71025	0.51903
1112.78169	0.51977
1110.85312	0.52053
1108.92456	0.52121
1106.99600	0.52193
1105.06743	0.52292
1103.13887	0.52389
1101.21030	0.52463
1099.28174	0.52569
1097.35317	0.52760
1095.42461	0.53031
1093.49604	0.53372
1091.56748	0.53839
1089.63892	0.54471
1087.71035	0.55236
1085.78179	0.56091
1083.85322	0.56963
1081.92466	0.57727
1079.99609	0.58267
1078.06753	0.58516
1076.13896	0.58448
1074.21040	0.58090
1072.28184	0.57516
1070.35327	0.56815
1068.42471	0.56067
1066.49614	0.55353
1064.56758	0.54707
1062.63901	0.54136
1060.71045	0.53660
1058.78188	0.53256
1056.85332	0.52861
1054.92476	0.52481
1052.99619	0.52170
1051.06763	0.51946
1049.13906	0.51788
1047.21050	0.51702
1045.28193	0.51684
1043.35337	0.51692
1041.42480	0.51710
1039.49624	0.51716
1037.56768	0.51699
1035.63911	0.51668
1033.71055	0.51598
1031.78198	0.51466
1029.85342	0.51287
1027.92485	0.51087
1025.99629	0.50886
1024.06772	0.50705
1022.13916	0.50581
1020.21060	0.50515
1018.28203	0.50464
1016.35347	0.50410
1014.42490	0.50363
1012.49634	0.50316
1010.56777	0.50264
1008.63921	0.50230
1006.71064	0.50244
1004.78208	0.50326
1002.85352	0.50484
1000.92495	0.50715
998.99639	0.51031
997.06782	0.51440
995.13926	0.51923
993.21069	0.52417
991.28213	0.52793
989.35356	0.52956
987.42500	0.52956
985.49644	0.52909
983.56787	0.52874
981.63931	0.52864
979.71074	0.52913
977.78218	0.53044
975.85361	0.53231
973.92505	0.53463
971.99648	0.53757
970.06792	0.54093
968.13936	0.54461
966.21079	0.54865
964.28223	0.55299
962.35366	0.55759
960.42510	0.56235
958.49653	0.56743
956.56797	0.57305
954.63940	0.57906
952.71084	0.58533
950.78228	0.59160
948.85371	0.59763
946.92515	0.60364
944.99658	0.61004
943.06802	0.61678
941.13945	0.62333
939.21089	0.62940
937.28232	0.63517
935.35376	0.64080
933.42520	0.64619
931.49663	0.65160
929.56807	0.65746
927.63950	0.66354
925.71094	0.66984
923.78237	0.67662
921.85381	0.68333
919.92524	0.68985
917.99668	0.69633
916.06812	0.70295
914.13955	0.71033
912.21099	0.71808
910.28242	0.72576
908.35386	0.73401
906.42529	0.74299
904.49673	0.75208
902.56816	0.76070
900.63960	0.76932
898.71104	0.77872
896.78247	0.78892
894.85391	0.79890
892.92534	0.80804
890.99678	0.81780
889.06821	0.82905
887.13965	0.84078
885.21108	0.85179
883.28252	0.86232
881.35396	0.87370
879.42539	0.88646
877.49683	0.89915
875.56826	0.91031
873.63970	0.92093
871.71113	0.93290
869.78257	0.94546
867.85400	0.95638
865.92544	0.96673
863.99687	0.97851
862.06831	0.99054
860.13975	1.00147
858.21118	1.01239
856.28262	1.02396
854.35405	1.03453
852.42549	1.04439
850.49692	1.05552
848.56836	1.06602
846.63979	1.07514
844.71123	1.08627
842.78267	1.10030
840.85410	1.11435
838.92554	1.12455
836.99697	1.13262
835.06841	1.14256
833.13984	1.15247
831.21128	1.16173
829.28271	1.17316
827.35415	1.18411
825.42559	1.18978
823.49702	1.19372
821.56846	1.20310
819.63989	1.21948
817.71133	1.23626
815.78276	1.24557
813.85420	1.24505
811.92563	1.24278
809.99707	1.24898
808.06851	1.25275
806.13994	1.24453
804.21138	1.23615
802.28281	1.23921
800.35425	1.25599
798.42568	1.26963
796.49712	1.26716
794.56855	1.28243
792.63999	1.32637
790.71143	1.33527
788.78286	1.29665
786.85430	1.25031
784.92573	1.20670
782.99717	1.18164
781.06860	1.16700
779.14004	1.14241
777.21147	1.13107
775.28291	1.15177
773.35435	1.17176
771.42578	1.15261
769.49722	1.12282
767.56865	1.12321
765.64009	1.12488
763.71152	1.09223
761.78296	1.07380
759.85439	1.08540
757.92583	1.04023
755.99727	0.95889
754.06870	0.92434
752.14014	0.90806
750.21157	0.89250
748.28301	0.89861
746.35444	0.89295
744.42588	0.84004
742.49731	0.77952
740.56875	0.75300
738.64019	0.76878
736.71162	0.78149
734.78306	0.71772
732.85449	0.61933
730.92593	0.50466
728.99736	0.35759
727.06880	0.23749
725.14023	0.19339
723.21167	0.19349
721.28311	0.11967
719.35454	0.01764
717.42598	-0.01745
715.49741	-0.05207
713.56885	-0.12253
711.64028	-0.15565
709.71172	-0.16062
707.78315	-0.12476
705.85459	-0.11546
703.92603	-0.15648
701.99746	-0.09446
700.06890	-0.01441
698.14033	-0.03968
696.21177	-0.01457
694.28320	0.11969
692.35464	0.25364
690.42607	0.22289
688.49751	0.09227
686.56895	0.01175
684.64038	0.02763
682.71182	0.04548
680.78325	0.02957
678.85469	-0.00507
676.92612	-0.04356
674.99756	-0.02325
673.06899	0.02572
671.14043	0.06103
669.21187	0.06432
667.28330	0.03725
665.35474	0.02967
663.42617	0.04288
661.49761	-0.00712
659.56904	-0.05501
657.64048	-0.00569
655.71191	0.06342
653.78335	0.07808
651.85479	0.06060
649.92622	0.02917
647.99766	-0.01524
646.06909	-0.05152
644.14053	-0.06890
642.21196	-0.07814
640.28340	-0.06922
638.35483	-0.03851
636.42627	0.00301
634.49771	0.04001
632.56914	0.04525
630.64058	0.03369
628.71201	0.02523
626.78345	0.03430
624.85488	0.05757
622.92632	0.06139
620.99775	0.06978
619.06919	0.06927
617.14062	0.02542
615.21206	0.01189
613.28350	0.07439
611.35493	0.12298
609.42637	0.08487
607.49780	-0.00787
605.56924	-0.11492
603.64067	-0.18904
601.71211	-0.14635
599.78354	-0.04384
597.85498	0.00879
595.92642	0.03418
593.99785	0.09782
592.06929	0.12189
590.14072	0.04829
588.21216	0.01772
586.28359	0.07800
584.35503	0.13174
582.42646	0.11101
580.49790	0.03397
578.56934	-0.03754
576.64077	-0.04231
574.71221	0.02544
572.78364	0.10301
570.85508	0.14525
568.92651	0.13065
566.99795	0.07405
565.06938	0.06815
563.14082	0.10922
561.21226	0.01869
559.28369	-0.06145
557.35513	-0.00388
555.42656	0.09585
553.49800	0.15390
551.56943	0.15599
549.64087	0.10352
547.71230	0.07054
545.78374	0.06632
543.85518	0.05672
541.92661	0.06287
539.99805	0.09291
538.06948	0.12342
536.14092	0.13379
534.21235	0.10789
532.28379	0.05309
530.35522	0.03028
528.42666	0.07333
526.49810	0.10870
524.56953	0.07388
522.64097	0.04650
520.71240	0.04895
518.78384	0.06243
516.85527	0.09296
514.92671	0.09763
512.99814	0.04130
511.06958	0.00791
509.14102	0.01746
507.21245	0.02429
505.28389	0.02548
503.35532	0.02538
501.42676	-0.00015
499.49819	-0.03648
