3997.91411	0.06285
3995.98555	0.06361
3994.05698	0.06401
3992.12842	0.06413
3990.19985	0.06435
3988.27129	0.06479
3986.34272	0.06521
3984.41416	0.06562
3982.48560	0.06599
3980.55703	0.06628
3978.62847	0.06660
3976.69990	0.06681
3974.77134	0.06668
3972.84277	0.06645
3970.91421	0.06638
3968.98564	0.06650
3967.05708	0.06671
3965.12852	0.06714
3963.19995	0.06757
3961.27139	0.06763
3959.34282	0.06751
3957.41426	0.06743
3955.48569	0.06756
3953.55713	0.06788
3951.62856	0.06795
3949.70000	0.06766
3947.77144	0.06737
3945.84287	0.06745
3943.91431	0.06801
3941.98574	0.06857
3940.05718	0.06848
3938.12861	0.06803
3936.20005	0.06765
3934.27148	0.06753
3932.34292	0.06785
3930.41436	0.06833
3928.48579	0.06841
3926.55723	0.06785
3924.62866	0.06730
3922.70010	0.06736
3920.77153	0.06781
3918.84297	0.06824
3916.91440	0.06836
3914.98584	0.06787
3913.05728	0.06686
3911.12871	0.06593
3909.20015	0.06560
3907.27158	0.06577
3905.34302	0.06618
3903.41445	0.06679
3901.48589	0.06745
3899.55732	0.06781
3897.62876	0.06722
3895.70020	0.06630
3893.77163	0.06637
3891.84307	0.06737
3889.91450	0.06801
3887.98594	0.06763
3886.05737	0.06732
3884.12881	0.06753
3882.20024	0.06750
3880.27168	0.06761
3878.34312	0.06836
3876.41455	0.06878
3874.48599	0.06870
3872.55742	0.06872
3870.62886	0.06896
3868.70029	0.06910
3866.77173	0.06923
3864.84316	0.06980
3862.91460	0.07052
3860.98604	0.07060
3859.05747	0.07031
3857.12891	0.07017
3855.20034	0.07037
3853.27178	0.07191
3851.34321	0.07402
3849.41465	0.07348
3847.48608	0.07243
3845.55752	0.07243
3843.62896	0.07305
3841.70039	0.07386
3839.77183	0.07538
3837.84326	0.07752
3835.91470	0.07862
3833.98613	0.07823
3832.05757	0.07741
3830.12900	0.07727
3828.20044	0.07811
3826.27187	0.07925
3824.34331	0.08007
3822.41475	0.08084
3820.48618	0.08221
3818.55762	0.08340
3816.62905	0.08400
3814.70049	0.08474
3812.77192	0.08542
3810.84336	0.08583
3808.91479	0.08634
3806.98623	0.08747
3805.05767	0.08899
3803.12910	0.09026
3801.20054	0.09203
3799.27197	0.09403
3797.34341	0.09507
3795.41484	0.09594
3793.48628	0.09672
3791.55771	0.09729
3789.62915	0.09807
3787.70059	0.09927
3785.77202	0.10087
3783.84346	0.10251
3781.91489	0.10389
3779.98633	0.10548
3778.05776	0.10758
3776.12920	0.10920
3774.20063	0.11021
3772.27207	0.11124
3770.34351	0.11280
3768.41494	0.11510
3766.48638	0.11728
3764.55781	0.11939
3762.62925	0.12165
3760.70068	0.12375
3758.77212	0.12591
3756.84355	0.12787
3754.91499	0.12943
3752.98643	0.13126
3751.05786	0.13416
3749.12930	0.13831
3747.20073	0.14149
3745.27217	0.14380
3743.34360	0.14753
3741.41504	0.15160
3739.48647	0.15459
3737.55791	0.15802
3735.62935	0.16316
3733.70078	0.16965
3731.77222	0.17490
3729.84365	0.17836
3727.91509	0.18168
3725.98652	0.18663
3724.05796	0.19300
3722.12939	0.19940
3720.20083	0.20610
3718.27227	0.21316
3716.34370	0.22020
3714.41514	0.22728
3712.48657	0.23592
3710.55801	0.24867
3708.62944	0.26312
3706.70088	0.27505
3704.77231	0.28578
3702.84375	0.29788
3700.91519	0.31410
3698.98662	0.33278
3697.05806	0.35056
3695.12949	0.36879
3693.20093	0.38795
3691.27236	0.40899
3689.34380	0.43609
3687.41523	0.46964
3685.48667	0.49991
3683.55811	0.52622
3681.62954	0.55428
3679.70098	0.58574
3677.77241	0.61835
3675.84385	0.65598
3673.91528	0.70703
3671.98672	0.74982
3670.05815	0.78761
3668.12959	0.84014
3666.20103	0.88921
3664.27246	0.92946
3662.34390	0.97176
3660.41533	1.01787
3658.48677	1.06354
3656.55820	1.11176
3654.62964	1.16585
3652.70107	1.21127
3650.77251	1.24953
3648.84395	1.30280
3646.91538	1.37084
3644.98682	1.42167
3643.05825	1.46086
3641.12969	1.50104
3639.20112	1.54500
3637.27256	1.58916
3635.34399	1.63210
3633.41543	1.67486
3631.48687	1.71507
3629.55830	1.75552
3627.62974	1.80743
3625.70117	1.85690
3623.77261	1.89184
3621.84404	1.92510
3619.91548	1.96256
3617.98691	2.00804
3616.05835	2.05187
3614.12979	2.08878
3612.20122	2.12858
3610.27266	2.16820
3608.34409	2.20690
3606.41553	2.24881
3604.48696	2.28852
3602.55840	2.32294
3600.62983	2.35915
3598.70127	2.39995
3596.77271	2.44092
3594.84414	2.48172
3592.91558	2.52376
3590.98701	2.56362
3589.05845	2.59856
3587.12988	2.63734
3585.20132	2.68360
3583.27275	2.72685
3581.34419	2.76586
3579.41562	2.80651
3577.48706	2.85014
3575.55850	2.89396
3573.62993	2.93747
3571.70137	2.97893
3569.77280	3.01773
3567.84424	3.05853
3565.91567	3.11041
3563.98711	3.16328
3562.05854	3.20538
3560.12998	3.24563
3558.20142	3.29019
3556.27285	3.33691
3554.34429	3.38175
3552.41572	3.42806
3550.48716	3.47708
3548.55859	3.52433
3546.63003	3.56912
3544.70146	3.61487
3542.77290	3.66151
3540.84434	3.70877
3538.91577	3.75730
3536.98721	3.80390
3535.05864	3.85078
3533.13008	3.89844
3531.20151	3.94345
3529.27295	3.98940
3527.34438	4.04021
3525.41582	4.08980
3523.48726	4.13629
3521.55869	4.18532
3519.63013	4.23403
3517.70156	4.28064
3515.77300	4.32883
3513.84443	4.37820
3511.91587	4.42725
3509.98730	4.47699
3508.05874	4.52419
3506.13018	4.56670
3504.20161	4.60863
3502.27305	4.65592
3500.34448	4.70802
3498.41592	4.75626
3496.48735	4.79814
3494.55879	4.83752
3492.63022	4.88096
3490.70166	4.93333
3488.77310	4.99204
3486.84453	5.04858
3484.91597	5.09813
3482.98740	5.13795
3481.05884	5.17458
3479.13027	5.22612
3477.20171	5.28710
3475.27314	5.33821
3473.34458	5.38452
3471.41602	5.43304
3469.48745	5.47652
3467.55889	5.51920
3465.63032	5.56583
3463.70176	5.61155
3461.77319	5.65437
3459.84463	5.69957
3457.91606	5.75332
3455.98750	5.80948
3454.05894	5.86014
3452.13037	5.91143
3450.20181	5.96129
3448.27324	6.00608
3446.34468	6.06390
3444.41611	6.13804
3442.48755	6.20836
3440.55898	6.25708
3438.63042	6.29385
3436.70186	6.32321
3434.77329	6.34323
3432.84473	6.37710
3430.91616	6.41714
3428.98760	6.45637
3427.05903	6.51392
3425.13047	6.58145
3423.20190	6.63104
3421.27334	6.67164
3419.34478	6.72715
3417.41621	6.79675
3415.48765	6.86476
3413.55908	6.90382
3411.63052	6.91666
3409.70195	6.93797
3407.77339	6.99228
3405.84482	7.05298
3403.91626	7.08641
3401.98770	7.10949
3400.05913	7.14783
3398.13057	7.18738
3396.20200	7.20830
3394.27344	7.21911
3392.34487	7.24555
3390.41631	7.31608
3388.48774	7.36218
3386.55918	7.34122
3384.63062	7.34767
3382.70205	7.44272
3380.77349	7.55882
3378.84492	7.60959
3376.91636	7.63670
3374.98779	7.67112
3373.05923	7.64683
3371.13066	7.56394
3369.20210	7.54184
3367.27354	7.60510
3365.34497	7.68274
3363.41641	7.72360
3361.48784	7.73445
3359.55928	7.74655
3357.63071	7.74475
3355.70215	7.76655
3353.77358	7.80964
3351.84502	7.82513
3349.91646	7.83239
3347.98789	7.84063
3346.05933	7.83896
3344.13076	7.83922
3342.20220	7.85530
3340.27363	7.86075
3338.34507	7.85429
3336.41650	7.88562
3334.48794	7.91725
3332.55937	7.87781
3330.63081	7.87120
3328.70225	7.95330
3326.77368	8.03017
3324.84512	8.01733
3322.91655	7.94062
3320.98799	7.87966
3319.05942	7.84357
3317.13086	7.87339
3315.20229	7.96792
3313.27373	8.02270
3311.34517	7.98496
3309.41660	7.90342
3307.48804	7.83537
3305.55947	7.82290
3303.63091	7.86871
3301.70234	7.90602
3299.77378	7.95656
3297.84521	8.04842
3295.91665	8.12260
3293.98809	8.16615
3292.05952	8.20716
3290.13096	8.24340
3288.20239	8.24961
3286.27383	8.19638
3284.34526	8.11821
3282.41670	8.11500
3280.48813	8.11911
3278.55957	8.04146
3276.63101	8.00578
3274.70244	8.08861
3272.77388	8.20445
3270.84531	8.29725
3268.91675	8.35667
3266.98818	8.31757
3265.05962	8.24948
3263.13105	8.23866
3261.20249	8.22156
3259.27393	8.18885
3257.34536	8.24104
3255.41680	8.32522
3253.48823	8.27415
3251.55967	8.14093
3249.63110	8.11794
3247.70254	8.21577
3245.77397	8.18061
3243.84541	7.99851
3241.91685	7.94425
3239.98828	8.01970
3238.05972	8.05171
3236.13115	8.04426
3234.20259	8.03203
3232.27402	7.98211
3230.34546	7.96660
3228.41689	8.00647
3226.48833	7.98217
3224.55977	7.86799
3222.63120	7.81835
3220.70264	7.91405
3218.77407	8.03878
3216.84551	8.04574
3214.91694	7.99475
3212.98838	7.95684
3211.05981	7.87366
3209.13125	7.77630
3207.20269	7.73943
3205.27412	7.72505
3203.34556	7.70354
3201.41699	7.69648
3199.48843	7.68387
3197.55986	7.64455
3195.63130	7.58135
3193.70273	7.51587
3191.77417	7.47284
3189.84561	7.41850
3187.91704	7.33688
3185.98848	7.29504
3184.05991	7.30715
3182.13135	7.28749
3180.20278	7.21528
3178.27422	7.15483
3176.34565	7.11913
3174.41709	7.08055
3172.48853	7.03011
3170.55996	6.96592
3168.63140	6.90191
3166.70283	6.85478
3164.77427	6.81201
3162.84570	6.75483
3160.91714	6.69401
3158.98857	6.65091
3157.06001	6.60667
3155.13145	6.53313
3153.20288	6.43979
3151.27432	6.36276
3149.34575	6.31344
3147.41719	6.26361
3145.48862	6.20119
3143.56006	6.13338
3141.63149	6.06807
3139.70293	6.00301
3137.77437	5.92155
3135.84580	5.83456
3133.91724	5.77003
3131.98867	5.71424
3130.06011	5.64215
3128.13154	5.56926
3126.20298	5.50883
3124.27441	5.44867
3122.34585	5.37598
3120.41729	5.29679
3118.48872	5.22239
3116.56016	5.14394
3114.63159	5.06302
3112.70303	4.99616
3110.77446	4.93596
3108.84590	4.87197
3106.91733	4.80620
3104.98877	4.73815
3103.06021	4.67048
3101.13164	4.60259
3099.20308	4.53259
3097.27451	4.46484
3095.34595	4.40107
3093.41738	4.33791
3091.48882	4.27038
3089.56025	4.20205
3087.63169	4.14049
3085.70312	4.08320
3083.77456	4.02441
3081.84600	3.96281
3079.91743	3.89850
3077.98887	3.83451
3076.06030	3.77477
3074.13174	3.71766
3072.20317	3.66020
3070.27461	3.60370
3068.34604	3.54815
3066.41748	3.49036
3064.48892	3.43131
3062.56035	3.37544
3060.63179	3.32364
3058.70322	3.27210
3056.77466	3.21755
3054.84609	3.16207
3052.91753	3.11009
3050.98896	3.06143
3049.06040	3.01136
3047.13184	2.95954
3045.20327	2.90942
3043.27471	2.86095
3041.34614	2.81351
3039.41758	2.76703
3037.48901	2.72037
3035.56045	2.67340
3033.63188	2.62717
3031.70332	2.58223
3029.77476	2.53787
3027.84619	2.49375
3025.91763	2.45033
3023.98906	2.40724
3022.06050	2.36463
3020.13193	2.32351
3018.20337	2.28357
3016.27480	2.24397
3014.34624	2.20467
3012.41768	2.16541
3010.48911	2.12670
3008.56055	2.08974
3006.63198	2.05394
3004.70342	2.01835
3002.77485	1.98328
3000.84629	1.94866
2998.91772	1.91407
2996.98916	1.88014
2995.06060	1.84768
2993.13203	1.81680
2991.20347	1.78696
2989.27490	1.75729
2987.34634	1.72749
2985.41777	1.69828
2983.48921	1.66999
2981.56064	1.64220
2979.63208	1.61510
2977.70352	1.58894
2975.77495	1.56326
2973.84639	1.53799
2971.91782	1.51321
2969.98926	1.48842
2968.06069	1.46406
2966.13213	1.44090
2964.20356	1.41801
2962.27500	1.39475
2960.34644	1.37117
2958.41787	1.34722
2956.48931	1.32350
2954.56074	1.30000
2952.63218	1.27635
2950.70361	1.25293
2948.77505	1.22990
2946.84648	1.20746
2944.91792	1.18629
2942.98936	1.16616
2941.06079	1.14638
2939.13223	1.12684
2937.20366	1.10732
2935.27510	1.08767
2933.34653	1.06828
2931.41797	1.04943
2929.48940	1.03089
2927.56084	1.01236
2925.63228	0.99375
2923.70371	0.97513
2921.77515	0.95660
2919.84658	0.93887
2917.91802	0.92208
2915.98945	0.90504
2914.06089	0.88790
2912.13232	0.87166
2910.20376	0.85602
2908.27520	0.84053
2906.34663	0.82542
2904.41807	0.81075
2902.48950	0.79642
2900.56094	0.78245
2898.63237	0.76897
2896.70381	0.75587
2894.77524	0.74299
2892.84668	0.73048
2890.91812	0.71838
2888.98955	0.70670
2887.06099	0.69580
2885.13242	0.68576
2883.20386	0.67558
2881.27529	0.66505
2879.34673	0.65499
2877.41816	0.64541
2875.48960	0.63579
2873.56104	0.62598
2871.63247	0.61587
2869.70391	0.60531
2867.77534	0.59428
2865.84678	0.58281
2863.91821	0.57112
2861.98965	0.55972
2860.06108	0.54892
2858.13252	0.53880
2856.20396	0.52934
2854.27539	0.52032
2852.34683	0.51145
2850.41826	0.50257
2848.48970	0.49396
2846.56113	0.48593
2844.63257	0.47827
2842.70400	0.47102
2840.77544	0.46419
2838.84687	0.45746
2836.91831	0.45097
2834.98975	0.44495
2833.06118	0.43906
2831.13262	0.43314
2829.20405	0.42729
2827.27549	0.42125
2825.34692	0.41498
2823.41836	0.40894
2821.48979	0.40311
2819.56123	0.39714
2817.63267	0.39105
2815.70410	0.38513
2813.77554	0.37963
2811.84697	0.37447
2809.91841	0.36923
2807.98984	0.36378
2806.06128	0.35847
2804.13271	0.35348
2802.20415	0.34858
2800.27559	0.34363
2798.34702	0.33867
2796.41846	0.33376
2794.48989	0.32907
2792.56133	0.32461
2790.63276	0.32015
2788.70420	0.31577
2786.77563	0.31152
2784.84707	0.30731
2782.91851	0.30311
2780.98994	0.29890
2779.06138	0.29475
2777.13281	0.29081
2775.20425	0.28703
2773.27568	0.28335
2771.34712	0.27977
2769.41855	0.27620
2767.48999	0.27259
2765.56143	0.26899
2763.63286	0.26536
2761.70430	0.26182
2759.77573	0.25857
2757.84717	0.25561
2755.91860	0.25281
2753.99004	0.24990
2752.06147	0.24681
2750.13291	0.24381
2748.20435	0.24099
2746.27578	0.23821
2744.34722	0.23538
2742.41865	0.23247
2740.49009	0.22969
2738.56152	0.22722
2736.63296	0.22488
2734.70439	0.22249
2732.77583	0.22012
2730.84727	0.21775
2728.91870	0.21539
2726.99014	0.21313
2725.06157	0.21080
2723.13301	0.20847
2721.20444	0.20642
2719.27588	0.20451
2717.34731	0.20257
2715.41875	0.20062
2713.49019	0.19878
2711.56162	0.19706
2709.63306	0.19542
2707.70449	0.19378
2705.77593	0.19211
2703.84736	0.19045
2701.91880	0.18884
2699.99023	0.18726
2698.06167	0.18562
2696.13311	0.18410
2694.20454	0.18275
2692.27598	0.18138
2690.34741	0.17999
2688.41885	0.17879
2686.49028	0.17771
2684.56172	0.17670
2682.63315	0.17574
2680.70459	0.17461
2678.77603	0.17325
2676.84746	0.17200
2674.91890	0.17093
2672.99033	0.16979
2671.06177	0.16880
2669.13320	0.16797
2667.20464	0.16702
2665.27607	0.16602
2663.34751	0.16503
2661.41895	0.16407
2659.49038	0.16321
2657.56182	0.16246
2655.63325	0.16173
2653.70469	0.16101
2651.77612	0.16034
2649.84756	0.15972
2647.91899	0.15923
2645.99043	0.15874
2644.06187	0.15817
2642.13330	0.15752
2640.20474	0.15688
2638.27617	0.15634
2636.34761	0.15583
2634.41904	0.15529
2632.49048	0.15484
2630.56191	0.15445
2628.63335	0.15405
2626.70479	0.15376
2624.77622	0.15358
2622.84766	0.15341
2620.91909	0.15316
2618.99053	0.15283
2617.06196	0.15254
2615.13340	0.15230
2613.20483	0.15203
2611.27627	0.15186
2609.34771	0.15186
2607.41914	0.15186
2605.49058	0.15174
2603.56201	0.15162
2601.63345	0.15147
2599.70488	0.15136
2597.77632	0.15142
2595.84775	0.15153
2593.91919	0.15156
2591.99062	0.15158
2590.06206	0.15162
2588.13350	0.15174
2586.20493	0.15189
2584.27637	0.15206
2582.34780	0.15227
2580.41924	0.15246
2578.49067	0.15268
2576.56211	0.15307
2574.63354	0.15356
2572.70498	0.15402
2570.77642	0.15447
2568.84785	0.15479
2566.91929	0.15497
2564.99072	0.15523
2563.06216	0.15560
2561.13359	0.15600
2559.20503	0.15643
2557.27646	0.15684
2555.34790	0.15731
2553.41934	0.15786
2551.49077	0.15837
2549.56221	0.15879
2547.63364	0.15916
2545.70508	0.15963
2543.77651	0.16028
2541.84795	0.16093
2539.91938	0.16153
2537.99082	0.16218
2536.06226	0.16287
2534.13369	0.16364
2532.20513	0.16442
2530.27656	0.16504
2528.34800	0.16551
2526.41943	0.16603
2524.49087	0.16675
2522.56230	0.16758
2520.63374	0.16834
2518.70518	0.16903
2516.77661	0.16964
2514.84805	0.17018
2512.91948	0.17081
2510.99092	0.17165
2509.06235	0.17254
2507.13379	0.17340
2505.20522	0.17419
2503.27666	0.17496
2501.34810	0.17580
2499.41953	0.17665
2497.49097	0.17736
2495.56240	0.17802
2493.63384	0.17876
2491.70527	0.17961
2489.77671	0.18054
2487.84814	0.18147
2485.91958	0.18239
2483.99102	0.18337
2482.06245	0.18429
2480.13389	0.18495
2478.20532	0.18553
2476.27676	0.18627
2474.34819	0.18711
2472.41963	0.18787
2470.49106	0.18865
2468.56250	0.18964
2466.63394	0.19072
2464.70537	0.19173
2462.77681	0.19269
2460.84824	0.19355
2458.91968	0.19427
2456.99111	0.19499
2455.06255	0.19587
2453.13398	0.19697
2451.20542	0.19816
2449.27686	0.19928
2447.34829	0.20033
2445.41973	0.20120
2443.49116	0.20198
2441.56260	0.20287
2439.63403	0.20386
2437.70547	0.20487
2435.77690	0.20595
2433.84834	0.20713
2431.91978	0.20824
2429.99121	0.20921
2428.06265	0.21020
2426.13408	0.21130
2424.20552	0.21240
2422.27695	0.21347
2420.34839	0.21451
2418.41982	0.21560
2416.49126	0.21673
2414.56270	0.21778
2412.63413	0.21876
2410.70557	0.21978
2408.77700	0.22089
2406.84844	0.22214
2404.91987	0.22352
2402.99131	0.22481
2401.06274	0.22593
2399.13418	0.22704
2397.20562	0.22824
2395.27705	0.22947
2393.34849	0.23066
2391.41992	0.23188
2389.49136	0.23317
2387.56279	0.23453
2385.63423	0.23601
2383.70566	0.23764
2381.77710	0.23934
2379.84854	0.24118
2377.91997	0.24340
2375.99141	0.24595
2374.06284	0.24833
2372.13428	0.25046
2370.20571	0.25306
2368.27715	0.25600
2366.34858	0.25853
2364.42002	0.26055
2362.49146	0.26177
2360.56289	0.26318
2358.63433	0.26572
2356.70576	0.26742
2354.77720	0.26759
2352.84863	0.26770
2350.92007	0.26811
2348.99150	0.26881
2347.06294	0.27009
2345.13437	0.27227
2343.20581	0.27477
2341.27725	0.27635
2339.34868	0.27722
2337.42012	0.27836
2335.49155	0.28026
2333.56299	0.28253
2331.63442	0.28456
2329.70586	0.28627
2327.77729	0.28794
2325.84873	0.28948
2323.92017	0.29102
2321.99160	0.29238
2320.06304	0.29305
2318.13447	0.29346
2316.20591	0.29431
2314.27734	0.29581
2312.34878	0.29749
2310.42021	0.29897
2308.49165	0.30040
2306.56309	0.30175
2304.63452	0.30295
2302.70596	0.30425
2300.77739	0.30586
2298.84883	0.30763
2296.92026	0.30940
2294.99170	0.31126
2293.06313	0.31319
2291.13457	0.31504
2289.20601	0.31679
2287.27744	0.31855
2285.34888	0.32037
2283.42031	0.32215
2281.49175	0.32389
2279.56318	0.32575
2277.63462	0.32769
2275.70605	0.32960
2273.77749	0.33164
2271.84893	0.33387
2269.92036	0.33607
2267.99180	0.33821
2266.06323	0.34043
2264.13467	0.34259
2262.20610	0.34454
2260.27754	0.34655
2258.34897	0.34870
2256.42041	0.35076
2254.49185	0.35278
2252.56328	0.35504
2250.63472	0.35748
2248.70615	0.35981
2246.77759	0.36191
2244.84902	0.36385
2242.92046	0.36571
2240.99189	0.36771
2239.06333	0.36999
2237.13477	0.37243
2235.20620	0.37476
2233.27764	0.37689
2231.34907	0.37896
2229.42051	0.38114
2227.49194	0.38346
2225.56338	0.38575
2223.63481	0.38801
2221.70625	0.39032
2219.77769	0.39258
2217.84912	0.39467
2215.92056	0.39675
2213.99199	0.39893
2212.06343	0.40115
2210.13486	0.40324
2208.20630	0.40521
2206.27773	0.40727
2204.34917	0.40949
2202.42061	0.41166
2200.49204	0.41365
2198.56348	0.41552
2196.63491	0.41744
2194.70635	0.41946
2192.77778	0.42145
2190.84922	0.42339
2188.92065	0.42522
2186.99209	0.42692
2185.06353	0.42866
2183.13496	0.43038
2181.20640	0.43198
2179.27783	0.43370
2177.34927	0.43560
2175.42070	0.43725
2173.49214	0.43863
2171.56357	0.44001
2169.63501	0.44139
2167.70645	0.44272
2165.77788	0.44403
2163.84932	0.44526
2161.92075	0.44631
2159.99219	0.44732
2158.06362	0.44834
2156.13506	0.44924
2154.20649	0.44996
2152.27793	0.45061
2150.34937	0.45131
2148.42080	0.45203
2146.49224	0.45265
2144.56367	0.45305
2142.63511	0.45332
2140.70654	0.45359
2138.77798	0.45392
2136.84941	0.45418
2134.92085	0.45425
2132.99229	0.45423
2131.06372	0.45421
2129.13516	0.45404
2127.20659	0.45370
2125.27803	0.45338
2123.34946	0.45305
2121.42090	0.45261
2119.49233	0.45202
2117.56377	0.45133
2115.63521	0.45049
2113.70664	0.44967
2111.77808	0.44893
2109.84951	0.44798
2107.92095	0.44680
2105.99238	0.44565
2104.06382	0.44461
2102.13525	0.44340
2100.20669	0.44192
2098.27812	0.44043
2096.34956	0.43907
2094.42100	0.43754
2092.49243	0.43582
2090.56387	0.43421
2088.63530	0.43266
2086.70674	0.43089
2084.77817	0.42891
2082.84961	0.42688
2080.92104	0.42482
2078.99248	0.42277
2077.06392	0.42065
2075.13535	0.41845
2073.20679	0.41633
2071.27822	0.41424
2069.34966	0.41202
2067.42109	0.40968
2065.49253	0.40727
2063.56396	0.40479
2061.63540	0.40228
2059.70684	0.39976
2057.77827	0.39727
2055.84971	0.39482
2053.92114	0.39234
2051.99258	0.38977
2050.06401	0.38711
2048.13545	0.38443
2046.20688	0.38175
2044.27832	0.37916
2042.34976	0.37660
2040.42119	0.37389
2038.49263	0.37107
2036.56406	0.36815
2034.63550	0.36517
2032.70693	0.36235
2030.77837	0.35974
2028.84980	0.35709
2026.92124	0.35435
2024.99268	0.35166
2023.06411	0.34896
2021.13555	0.34612
2019.20698	0.34329
2017.27842	0.34054
2015.34985	0.33780
2013.42129	0.33506
2011.49272	0.33234
2009.56416	0.32967
2007.63560	0.32697
2005.70703	0.32417
2003.77847	0.32140
2001.84990	0.31878
1999.92134	0.31623
1997.99277	0.31368
1996.06421	0.31118
1994.13564	0.30870
1992.20708	0.30626
1990.27852	0.30382
1988.34995	0.30130
1986.42139	0.29878
1984.49282	0.29640
1982.56426	0.29415
1980.63569	0.29186
1978.70713	0.28958
1976.77856	0.28740
1974.85000	0.28527
1972.92144	0.28307
1970.99287	0.28090
1969.06431	0.27887
1967.13574	0.27684
1965.20718	0.27475
1963.27861	0.27274
1961.35005	0.27081
1959.42148	0.26889
1957.49292	0.26706
1955.56436	0.26530
1953.63579	0.26358
1951.70723	0.26189
1949.77866	0.26028
1947.85010	0.25879
1945.92153	0.25741
1943.99297	0.25603
1942.06440	0.25453
1940.13584	0.25291
1938.20728	0.25139
1936.27871	0.25009
1934.35015	0.24889
1932.42158	0.24769
1930.49302	0.24637
1928.56445	0.24503
1926.63589	0.24388
1924.70732	0.24302
1922.77876	0.24220
1920.85020	0.24123
1918.92163	0.24030
1916.99307	0.23950
1915.06450	0.23866
1913.13594	0.23780
1911.20737	0.23712
1909.27881	0.23655
1907.35024	0.23585
1905.42168	0.23503
1903.49312	0.23435
1901.56455	0.23382
1899.63599	0.23335
1897.70742	0.23294
1895.77886	0.23252
1893.85029	0.23210
1891.92173	0.23176
1889.99316	0.23171
1888.06460	0.23163
1886.13604	0.23138
1884.20747	0.23119
1882.27891	0.23103
1880.35034	0.23082
1878.42178	0.23061
1876.49321	0.23051
1874.56465	0.23051
1872.63608	0.23068
1870.70752	0.23104
1868.77896	0.23153
1866.85039	0.23177
1864.92183	0.23174
1862.99326	0.23179
1861.06470	0.23203
1859.13613	0.23242
1857.20757	0.23276
1855.27900	0.23313
1853.35044	0.23360
1851.42187	0.23416
1849.49331	0.23470
1847.56475	0.23535
1845.63618	0.23618
1843.70762	0.23722
1841.77905	0.23812
1839.85049	0.23857
1837.92192	0.23919
1835.99336	0.24009
1834.06479	0.24109
1832.13623	0.24215
1830.20767	0.24363
1828.27910	0.24512
1826.35054	0.24611
1824.42197	0.24722
1822.49341	0.24842
1820.56484	0.24967
1818.63628	0.25108
1816.70771	0.25278
1814.77915	0.25449
1812.85059	0.25623
1810.92202	0.25823
1808.99346	0.26033
1807.06489	0.26230
1805.13633	0.26418
1803.20776	0.26632
1801.27920	0.26871
1799.35063	0.27141
1797.42207	0.27395
1795.49351	0.27637
1793.56494	0.27917
1791.63638	0.28280
1789.70781	0.28631
1787.77925	0.28893
1785.85068	0.29200
1783.92212	0.29565
1781.99355	0.29957
1780.06499	0.30374
1778.13643	0.30802
1776.20786	0.31196
1774.27930	0.31614
1772.35073	0.32190
1770.42217	0.32827
1768.49360	0.33368
1766.56504	0.33887
1764.63647	0.34418
1762.70791	0.34994
1760.77935	0.35728
1758.85078	0.36435
1756.92222	0.37157
1754.99365	0.37942
1753.06509	0.38638
1751.13652	0.39442
1749.20796	0.40474
1747.27939	0.41532
1745.35083	0.42467
1743.42227	0.43434
1741.49370	0.44484
1739.56514	0.45729
1737.63657	0.46975
1735.70801	0.48032
1733.77944	0.49629
1731.85088	0.51621
1729.92231	0.53212
1727.99375	0.54792
1726.06519	0.56490
1724.13662	0.58346
1722.20806	0.60333
1720.27949	0.62141
1718.35093	0.64265
1716.42236	0.67471
1714.49380	0.70528
1712.56523	0.72972
1710.63667	0.75348
1708.70811	0.77916
1706.77954	0.80827
1704.85098	0.84329
1702.92241	0.87482
1700.99385	0.90583
1699.06528	0.95196
1697.13672	0.99506
1695.20815	1.04024
1693.27959	1.08425
1691.35103	1.11948
1689.42246	1.16003
1687.49390	1.20306
1685.56533	1.24474
1683.63677	1.30914
1681.70820	1.37602
1679.77964	1.41864
1677.85107	1.45937
1675.92251	1.50684
1673.99395	1.56604
1672.06538	1.61848
1670.13682	1.66972
1668.20825	1.73768
1666.27969	1.79452
1664.35112	1.84329
1662.42256	1.90451
1660.49399	1.97355
1658.56543	2.02690
1656.63687	2.06891
1654.70830	2.10534
1652.77974	2.16098
1650.85117	2.21771
1648.92261	2.23924
1646.99404	2.26310
1645.06548	2.28834
1643.13691	2.30436
1641.20835	2.31089
1639.27979	2.31556
1637.35122	2.31806
1635.42266	2.31703
1633.49409	2.31085
1631.56553	2.29770
1629.63696	2.27971
1627.70840	2.24908
1625.77983	2.21207
1623.85127	2.16612
1621.92271	2.11200
1619.99414	2.06571
1618.06558	2.02053
1616.13701	1.95453
1614.20845	1.88789
1612.27988	1.83833
1610.35132	1.78695
1608.42275	1.73093
1606.49419	1.67571
1604.56562	1.62465
1602.63706	1.57469
1600.70850	1.52611
1598.77993	1.48242
1596.85137	1.44172
1594.92280	1.40181
1592.99424	1.36363
1591.06567	1.32959
1589.13711	1.29809
1587.20854	1.26887
1585.27998	1.24218
1583.35142	1.21752
1581.42285	1.19519
1579.49429	1.17634
1577.56572	1.15971
1575.63716	1.14010
1573.70859	1.12326
1571.78003	1.11256
1569.85146	1.10234
1567.92290	1.09221
1565.99434	1.08549
1564.06577	1.08119
1562.13721	1.07805
1560.20864	1.07642
1558.28008	1.07908
1556.35151	1.08382
1554.42295	1.08597
1552.49438	1.08801
1550.56582	1.08895
1548.63726	1.08706
1546.70869	1.08198
1544.78013	1.07343
1542.85156	1.06137
1540.92300	1.04317
1538.99443	1.01425
1537.06587	0.99297
1535.13730	0.97829
1533.20874	0.95861
1531.28018	0.93770
1529.35161	0.92254
1527.42305	0.90806
1525.49448	0.89292
1523.56592	0.88008
1521.63735	0.86837
1519.70879	0.85725
1517.78022	0.84750
1515.85166	0.83543
1513.92310	0.82287
1511.99453	0.81203
1510.06597	0.80192
1508.13740	0.79142
1506.20884	0.77574
1504.28027	0.76342
1502.35171	0.75673
1500.42314	0.75057
1498.49458	0.74389
1496.56602	0.73599
1494.63745	0.72806
1492.70889	0.72195
1490.78032	0.71659
1488.85176	0.71037
1486.92319	0.70454
1484.99463	0.70008
1483.06606	0.69650
1481.13750	0.69333
1479.20894	0.69097
1477.28037	0.68989
1475.35181	0.68970
1473.42324	0.68987
1471.49468	0.68925
1469.56611	0.68749
1467.63755	0.68543
1465.70898	0.68356
1463.78042	0.68218
1461.85186	0.68160
1459.92329	0.68168
1457.99473	0.68217
1456.06616	0.68215
1454.13760	0.68057
1452.20903	0.67829
1450.28047	0.67560
1448.35190	0.67285
1446.42334	0.67033
1444.49478	0.66819
1442.56621	0.66614
1440.63765	0.66379
1438.70908	0.66109
1436.78052	0.65767
1434.85195	0.65378
1432.92339	0.65067
1430.99482	0.64861
1429.06626	0.64766
1427.13770	0.64751
1425.20913	0.64775
1423.28057	0.64833
1421.35200	0.64884
1419.42344	0.64917
1417.49487	0.64912
1415.56631	0.64836
1413.63774	0.64775
1411.70918	0.64786
1409.78062	0.64867
1407.85205	0.64996
1405.92349	0.65170
1403.99492	0.65331
1402.06636	0.65368
1400.13779	0.65299
1398.20923	0.65162
1396.28066	0.64931
1394.35210	0.64561
1392.42354	0.64131
1390.49497	0.63739
1388.56641	0.63337
1386.63784	0.62860
1384.70928	0.62354
1382.78071	0.61873
1380.85215	0.61411
1378.92358	0.61004
1376.99502	0.60703
1375.06646	0.60508
1373.13789	0.60371
1371.20933	0.60278
1369.28076	0.60209
1367.35220	0.60096
1365.42363	0.59939
1363.49507	0.59783
1361.56650	0.59622
1359.63794	0.59459
1357.70937	0.59315
1355.78081	0.59184
1353.85225	0.59076
1351.92368	0.59000
1349.99512	0.58946
1348.06655	0.58880
1346.13799	0.58787
1344.20942	0.58695
1342.28086	0.58618
1340.35229	0.58549
1338.42373	0.58484
1336.49517	0.58419
1334.56660	0.58366
1332.63804	0.58349
1330.70947	0.58373
1328.78091	0.58424
1326.85234	0.58482
1324.92378	0.58541
1322.99521	0.58606
1321.06665	0.58678
1319.13809	0.58747
1317.20952	0.58786
1315.28096	0.58784
1313.35239	0.58756
1311.42383	0.58701
1309.49526	0.58630
1307.56670	0.58568
1305.63813	0.58528
1303.70957	0.58489
1301.78101	0.58435
1299.85244	0.58361
1297.92388	0.58251
1295.99531	0.58125
1294.06675	0.58021
1292.13818	0.57923
1290.20962	0.57799
1288.28105	0.57664
1286.35249	0.57532
1284.42393	0.57408
1282.49536	0.57285
1280.56680	0.57153
1278.63823	0.57003
1276.70967	0.56857
1274.78110	0.56746
1272.85254	0.56669
1270.92397	0.56602
1268.99541	0.56525
1267.06685	0.56437
1265.13828	0.56342
1263.20972	0.56253
1261.28115	0.56182
1259.35259	0.56120
1257.42402	0.56049
1255.49546	0.55992
1253.56689	0.55977
1251.63833	0.55978
1249.70977	0.55975
1247.78120	0.55972
1245.85264	0.55967
1243.92407	0.55935
1241.99551	0.55849
1240.06694	0.55708
1238.13838	0.55535
1236.20981	0.55334
1234.28125	0.55106
1232.35269	0.54874
1230.42412	0.54656
1228.49556	0.54445
1226.56699	0.54239
1224.63843	0.54056
1222.70986	0.53901
1220.78130	0.53748
1218.85273	0.53589
1216.92417	0.53442
1214.99561	0.53318
1213.06704	0.53222
1211.13848	0.53153
1209.20991	0.53091
1207.28135	0.53024
1205.35278	0.52942
1203.42422	0.52841
1201.49565	0.52745
1199.56709	0.52666
1197.63853	0.52591
1195.70996	0.52522
1193.78140	0.52457
1191.85283	0.52388
1189.92427	0.52323
1187.99570	0.52282
1186.06714	0.52267
1184.13857	0.52271
1182.21001	0.52295
1180.28145	0.52347
1178.35288	0.52436
1176.42432	0.52549
1174.49575	0.52660
1172.56719	0.52733
1170.63862	0.52763
1168.71006	0.52778
1166.78149	0.52778
1164.85293	0.52761
1162.92437	0.52746
1160.99580	0.52720
1159.06724	0.52670
1157.13867	0.52619
1155.21011	0.52550
1153.28154	0.52426
1151.35298	0.52245
1149.42441	0.52018
1147.49585	0.51768
1145.56729	0.51527
1143.63872	0.51308
1141.71016	0.51100
1139.78159	0.50893
1137.85303	0.50710
1135.92446	0.50595
1133.99590	0.50538
1132.06733	0.50486
1130.13877	0.50429
1128.21021	0.50380
1126.28164	0.50317
1124.35308	0.50243
1122.42451	0.50203
1120.49595	0.50206
1118.56738	0.50218
1116.63882	0.50221
1114.71025	0.50224
1112.78169	0.50264
1110.85312	0.50354
1108.92456	0.50450
1106.99600	0.50535
1105.06743	0.50642
1103.13887	0.50758
1101.21030	0.50857
1099.28174	0.51003
1097.35317	0.51230
1095.42461	0.51495
1093.49604	0.51819
1091.56748	0.52267
1089.63892	0.52834
1087.71035	0.53498
1085.78179	0.54251
1083.85322	0.55028
1081.92466	0.55720
1079.99609	0.56239
1078.06753	0.56528
1076.13896	0.56539
1074.21040	0.56259
1072.28184	0.55744
1070.35327	0.55084
1068.42471	0.54369
1066.49614	0.53663
1064.56758	0.53011
1062.63901	0.52444
1060.71045	0.51943
1058.78188	0.51503
1056.85332	0.51125
1054.92476	0.50802
1052.99619	0.50524
1051.06763	0.50258
1049.13906	0.50015
1047.21050	0.49846
1045.28193	0.49741
1043.35337	0.49664
1041.42480	0.49603
1039.49624	0.49550
1037.56768	0.49504
1035.63911	0.49477
1033.71055	0.49443
1031.78198	0.49380
1029.85342	0.49301
1027.92485	0.49211
1025.99629	0.49118
1024.06772	0.49046
1022.13916	0.49005
1020.21060	0.48982
1018.28203	0.48987
1016.35347	0.49020
1014.42490	0.49046
1012.49634	0.49062
1010.56777	0.49089
1008.63921	0.49132
1006.71064	0.49216
1004.78208	0.49373
1002.85352	0.49574
1000.92495	0.49809
998.99639	0.50124
997.06782	0.50518
995.13926	0.50942
993.21069	0.51364
991.28213	0.51729
989.35356	0.51974
987.42500	0.52089
985.49644	0.52116
983.56787	0.52128
981.63931	0.52185
979.71074	0.52283
977.78218	0.52409
975.85361	0.52600
973.92505	0.52869
971.99648	0.53195
970.06792	0.53541
968.13936	0.53878
966.21079	0.54239
964.28223	0.54667
962.35366	0.55167
960.42510	0.55695
958.49653	0.56220
956.56797	0.56774
954.63940	0.57368
952.71084	0.57994
950.78228	0.58646
948.85371	0.59291
946.92515	0.59915
944.99658	0.60540
943.06802	0.61132
941.13945	0.61661
939.21089	0.62232
937.28232	0.62889
935.35376	0.63536
933.42520	0.64099
931.49663	0.64605
929.56807	0.65153
927.63950	0.65771
925.71094	0.66412
923.78237	0.67080
921.85381	0.67787
919.92524	0.68464
917.99668	0.69109
916.06812	0.69782
914.13955	0.70509
912.21099	0.71322
910.28242	0.72127
908.35386	0.72879
906.42529	0.73723
904.49673	0.74694
902.56816	0.75677
900.63960	0.76612
898.71104	0.77511
896.78247	0.78351
894.85391	0.79206
892.92534	0.80267
890.99678	0.81465
889.06821	0.82609
887.13965	0.83720
885.21108	0.84825
883.28252	0.85871
881.35396	0.86825
879.42539	0.87786
877.49683	0.88946
875.56826	0.90295
873.63970	0.91625
871.71113	0.92832
869.78257	0.93940
867.85400	0.95111
865.92544	0.96471
863.99687	0.97769
862.06831	0.98865
860.13975	0.99991
858.21118	1.01080
856.28262	1.01979
854.35405	1.02999
852.42549	1.04198
850.49692	1.05251
848.56836	1.06316
846.63979	1.07557
844.71123	1.08739
842.78267	1.09999
840.85410	1.11439
838.92554	1.12527
836.99697	1.13138
835.06841	1.13787
833.13984	1.14747
831.21128	1.15772
829.28271	1.16593
827.35415	1.17478
825.42559	1.18617
823.49702	1.19734
821.56846	1.20691
819.63989	1.21386
817.71133	1.21793
815.78276	1.22574
813.85420	1.23976
811.92563	1.26284
809.99707	1.29310
808.06851	1.30527
806.13994	1.29315
804.21138	1.27348
802.28281	1.25986
800.35425	1.26864
798.42568	1.30026
796.49712	1.32231
794.56855	1.31538
792.63999	1.30882
790.71143	1.31475
788.78286	1.30229
786.85430	1.24581
784.92573	1.20032
782.99717	1.21509
781.06860	1.26941
779.14004	1.30975
777.21147	1.27130
775.28291	1.20220
773.35435	1.19725
771.42578	1.22133
769.49722	1.21097
767.56865	1.20862
765.64009	1.20026
763.71152	1.15408
761.78296	1.12167
759.85439	1.10883
757.92583	1.06834
755.99727	1.01860
754.06870	1.00463
752.14014	1.00287
750.21157	1.00470
748.28301	1.02266
746.35444	1.01623
744.42588	0.99447
742.49731	1.00387
740.56875	0.99863
738.64019	0.87083
736.71162	0.68483
734.78306	0.54692
732.85449	0.46476
730.92593	0.40862
728.99736	0.35861
727.06880	0.27722
725.14023	0.04918
723.21167	-0.45852
721.28311	4.32770
719.35454	-0.86899
717.42598	-0.05913
715.49741	0.12168
713.56885	0.12866
711.64028	0.13357
709.71172	0.19772
707.78315	0.30309
705.85459	0.48475
703.92603	0.63607
701.99746	0.53601
700.06890	0.39936
698.14033	0.36952
696.21177	0.46585
694.28320	0.57450
692.35464	0.57614
690.42607	0.53680
688.49751	0.52351
686.56895	0.55493
684.64038	0.59660
682.71182	0.56537
680.78325	0.50627
678.85469	0.46167
676.92612	0.41317
674.99756	0.41684
673.06899	0.51923
671.14043	0.54566
669.21187	0.42709
667.28330	0.35526
665.35474	0.34086
663.42617	0.35519
661.49761	0.37705
659.56904	0.36619
657.64048	0.33617
655.71191	0.31800
653.78335	0.32196
651.85479	0.33229
649.92622	0.31719
647.99766	0.24172
646.06909	0.16549
644.14053	0.16615
642.21196	0.20834
640.28340	0.24246
638.35483	0.29992
636.42627	0.38007
634.49771	0.34302
632.56914	0.24582
630.64058	0.24768
628.71201	0.37804
626.78345	0.49412
624.85488	0.38808
622.92632	0.29163
620.99775	0.28827
619.06919	0.32690
617.14062	0.34829
615.21206	0.37169
613.28350	0.36242
611.35493	0.32766
609.42637	0.34554
607.49780	0.37836
605.56924	0.34729
603.64067	0.28425
601.71211	0.25747
599.78354	0.29123
597.85498	0.33598
595.92642	0.34882
593.99785	0.34018
592.06929	0.36503
590.14072	0.43919
588.21216	0.46404
586.28359	0.37785
584.35503	0.31055
582.42646	0.34043
580.49790	0.44480
578.56934	0.44767
576.64077	0.33015
574.71221	0.27075
572.78364	0.32154
570.85508	0.41171
568.92651	0.43212
566.99795	0.41533
565.06938	0.43443
563.14082	0.43487
561.21226	0.34632
559.28369	0.26789
557.35513	0.25428
555.42656	0.26199
553.49800	0.25961
551.56943	0.30270
549.64087	0.37244
547.71230	0.35607
545.78374	0.28140
543.85518	0.22826
541.92661	0.21481
539.99805	0.26299
538.06948	0.38041
536.14092	0.45497
534.21235	0.41586
532.28379	0.39653
530.35522	0.40039
528.42666	0.33162
526.49810	0.27687
524.56953	0.27312
522.64097	0.24972
520.71240	0.22262
518.78384	0.23864
516.85527	0.24539
514.92671	0.21589
512.99814	0.19235
511.06958	0.19396
509.14102	0.22749
507.21245	0.27899
505.28389	0.28378
503.35532	0.22427
501.42676	0.20801
499.49819	0.25703
