3997.91411	0.06648
3995.98555	0.06708
3994.05698	0.06788
3992.12842	0.06855
3990.19985	0.06842
3988.27129	0.06765
3986.34272	0.06757
3984.41416	0.06832
3982.48560	0.06887
3980.55703	0.06893
3978.62847	0.06878
3976.69990	0.06853
3974.77134	0.06852
3972.84277	0.06916
3970.91421	0.06989
3968.98564	0.07030
3967.05708	0.07043
3965.12852	0.07009
3963.19995	0.06979
3961.27139	0.06998
3959.34282	0.07004
3957.41426	0.06977
3955.48569	0.06988
3953.55713	0.07039
3951.62856	0.07066
3949.70000	0.07063
3947.77144	0.07073
3945.84287	0.07103
3943.91431	0.07122
3941.98574	0.07108
3940.05718	0.07053
3938.12861	0.06995
3936.20005	0.06976
3934.27148	0.06984
3932.34292	0.06988
3930.41436	0.06976
3928.48579	0.06940
3926.55723	0.06894
3924.62866	0.06905
3922.70010	0.06976
3920.77153	0.07042
3918.84297	0.07089
3916.91440	0.07108
3914.98584	0.07053
3913.05728	0.06977
3911.12871	0.06946
3909.20015	0.06925
3907.27158	0.06885
3905.34302	0.06851
3903.41445	0.06859
3901.48589	0.06871
3899.55732	0.06859
3897.62876	0.06896
3895.70020	0.06949
3893.77163	0.06972
3891.84307	0.06998
3889.91450	0.07006
3887.98594	0.06965
3886.05737	0.06966
3884.12881	0.07027
3882.20024	0.07032
3880.27168	0.06984
3878.34312	0.06983
3876.41455	0.07019
3874.48599	0.07044
3872.55742	0.07048
3870.62886	0.07038
3868.70029	0.07054
3866.77173	0.07098
3864.84316	0.07151
3862.91460	0.07233
3860.98604	0.07314
3859.05747	0.07339
3857.12891	0.07296
3855.20034	0.07209
3853.27178	0.07194
3851.34321	0.07392
3849.41465	0.07539
3847.48608	0.07559
3845.55752	0.07551
3843.62896	0.07566
3841.70039	0.07614
3839.77183	0.07671
3837.84326	0.07741
3835.91470	0.07807
3833.98613	0.07868
3832.05757	0.07962
3830.12900	0.08063
3828.20044	0.08123
3826.27187	0.08176
3824.34331	0.08238
3822.41475	0.08272
3820.48618	0.08354
3818.55762	0.08489
3816.62905	0.08566
3814.70049	0.08683
3812.77192	0.08828
3810.84336	0.08894
3808.91479	0.08923
3806.98623	0.08990
3805.05767	0.09122
3803.12910	0.09234
3801.20054	0.09305
3799.27197	0.09442
3797.34341	0.09652
3795.41484	0.09865
3793.48628	0.10003
3791.55771	0.10087
3789.62915	0.10180
3787.70059	0.10280
3785.77202	0.10401
3783.84346	0.10546
3781.91489	0.10677
3779.98633	0.10818
3778.05776	0.11030
3776.12920	0.11232
3774.20063	0.11357
3772.27207	0.11450
3770.34351	0.11572
3768.41494	0.11794
3766.48638	0.12064
3764.55781	0.12283
3762.62925	0.12429
3760.70068	0.12552
3758.77212	0.12730
3756.84355	0.12987
3754.91499	0.13249
3752.98643	0.13441
3751.05786	0.13632
3749.12930	0.13966
3747.20073	0.14279
3745.27217	0.14476
3743.34360	0.14757
3741.41504	0.15141
3739.48647	0.15466
3737.55791	0.15730
3735.62935	0.16014
3733.70078	0.16446
3731.77222	0.16954
3729.84365	0.17403
3727.91509	0.17812
3725.98652	0.18290
3724.05796	0.18938
3722.12939	0.19733
3720.20083	0.20559
3718.27227	0.21353
3716.34370	0.22157
3714.41514	0.22936
3712.48657	0.23769
3710.55801	0.24919
3708.62944	0.26267
3706.70088	0.27454
3704.77231	0.28581
3702.84375	0.29869
3700.91519	0.31535
3698.98662	0.33422
3697.05806	0.35238
3695.12949	0.37095
3693.20093	0.38979
3691.27236	0.40978
3689.34380	0.43657
3687.41523	0.47163
3685.48667	0.50350
3683.55811	0.53043
3681.62954	0.55820
3679.70098	0.58857
3677.77241	0.61996
3675.84385	0.65769
3673.91528	0.71097
3671.98672	0.75531
3670.05815	0.79324
3668.12959	0.84576
3666.20103	0.89508
3664.27246	0.93613
3662.34390	0.97973
3660.41533	1.02687
3658.48677	1.07275
3656.55820	1.12054
3654.62964	1.17387
3652.70107	1.21872
3650.77251	1.25644
3648.84395	1.30837
3646.91538	1.37645
3644.98682	1.42946
3643.05825	1.46991
3641.12969	1.51007
3639.20112	1.55333
3637.27256	1.59623
3635.34399	1.63760
3633.41543	1.67918
3631.48687	1.71852
3629.55830	1.75734
3627.62974	1.80853
3625.70117	1.85989
3623.77261	1.89543
3621.84404	1.92777
3619.91548	1.96455
3617.98691	2.01005
3616.05835	2.05447
3614.12979	2.09144
3612.20122	2.12971
3610.27266	2.16795
3608.34409	2.20692
3606.41553	2.24978
3604.48696	2.29042
3602.55840	2.32582
3600.62983	2.36216
3598.70127	2.40099
3596.77271	2.44008
3594.84414	2.48111
3592.91558	2.52340
3590.98701	2.56253
3589.05845	2.59785
3587.12988	2.63964
3585.20132	2.68792
3583.27275	2.73009
3581.34419	2.76939
3579.41562	2.81158
3577.48706	2.85392
3575.55850	2.89452
3573.62993	2.93763
3571.70137	2.98130
3569.77280	3.02133
3567.84424	3.06167
3565.91567	3.11319
3563.98711	3.16634
3562.05854	3.20813
3560.12998	3.24832
3558.20142	3.29295
3556.27285	3.33892
3554.34429	3.38353
3552.41572	3.42959
3550.48716	3.47581
3548.55859	3.52015
3546.63003	3.56527
3544.70146	3.61205
3542.77290	3.65759
3540.84434	3.70266
3538.91577	3.74927
3536.98721	3.79464
3535.05864	3.83930
3533.13008	3.88663
3531.20151	3.93746
3529.27295	3.98786
3527.34438	4.03570
3525.41582	4.08160
3523.48726	4.12915
3521.55869	4.18313
3519.63013	4.23816
3517.70156	4.28795
3515.77300	4.33308
3513.84443	4.37586
3511.91587	4.41828
3509.98730	4.46695
3508.05874	4.52266
3506.13018	4.57599
3504.20161	4.62400
3502.27305	4.66801
3500.34448	4.70837
3498.41592	4.75038
3496.48735	4.80180
3494.55879	4.85953
3492.63022	4.91211
3490.70166	4.95771
3488.77310	5.00119
3486.84453	5.04207
3484.91597	5.08535
3482.98740	5.14157
3481.05884	5.20338
3479.13027	5.25443
3477.20171	5.29559
3475.27314	5.33608
3473.34458	5.38002
3471.41602	5.42795
3469.48745	5.47880
3467.55889	5.52675
3465.63032	5.56911
3463.70176	5.60750
3461.77319	5.64926
3459.84463	5.71149
3457.91606	5.77824
3455.98750	5.82739
3454.05894	5.87296
3452.13037	5.92871
3450.20181	5.98526
3448.27324	6.02844
3446.34468	6.07057
3444.41611	6.11993
3442.48755	6.16923
3440.55898	6.21152
3438.63042	6.25222
3436.70186	6.29708
3434.77329	6.34759
3432.84473	6.41113
3430.91616	6.46596
3428.98760	6.50132
3427.05903	6.53865
3425.13047	6.59348
3423.20190	6.66162
3421.27334	6.73097
3419.34478	6.78638
3417.41621	6.84027
3415.48765	6.92137
3413.55908	6.99562
3411.63052	7.02127
3409.70195	7.02670
3407.77339	7.06902
3405.84482	7.13119
3403.91626	7.15318
3401.98770	7.14740
3400.05913	7.17777
3398.13057	7.23074
3396.20200	7.25951
3394.27344	7.31496
3392.34487	7.40388
3390.41631	7.47920
3388.48774	7.53969
3386.55918	7.55487
3384.63062	7.51052
3382.70205	7.50967
3380.77349	7.57486
3378.84492	7.60592
3376.91636	7.59104
3374.98779	7.60368
3373.05923	7.69331
3371.13066	7.77277
3369.20210	7.76653
3367.27354	7.74260
3365.34497	7.75785
3363.41641	7.80352
3361.48784	7.83133
3359.55928	7.84047
3357.63071	7.84693
3355.70215	7.82983
3353.77358	7.80033
3351.84502	7.84132
3349.91646	7.95809
3347.98789	8.03369
3346.05933	8.00442
3344.13076	7.94818
3342.20220	7.92092
3340.27363	7.92541
3338.34507	7.99530
3336.41650	8.09885
3334.48794	8.13007
3332.55937	8.05513
3330.63081	7.99339
3328.70225	7.99633
3326.77368	8.02107
3324.84512	8.06725
3322.91655	8.10163
3320.98799	8.11931
3319.05942	8.13012
3317.13086	8.08401
3315.20229	8.03296
3313.27373	8.04685
3311.34517	8.03452
3309.41660	7.99444
3307.48804	8.00467
3305.55947	8.05466
3303.63091	8.14649
3301.70234	8.21158
3299.77378	8.15574
3297.84521	8.03525
3295.91665	7.96440
3293.98809	7.97695
3292.05952	8.09102
3290.13096	8.23666
3288.20239	8.23503
3286.27383	8.18231
3284.34526	8.23611
3282.41670	8.27621
3280.48813	8.18666
3278.55957	8.10737
3276.63101	8.11199
3274.70244	8.12662
3272.77388	8.10491
3270.84531	8.08638
3268.91675	8.10183
3266.98818	8.13225
3265.05962	8.16712
3263.13105	8.19463
3261.20249	8.17499
3259.27393	8.09891
3257.34536	8.08533
3255.41680	8.17181
3253.48823	8.27707
3251.55967	8.36171
3249.63110	8.40937
3247.70254	8.38613
3245.77397	8.26941
3243.84541	8.13760
3241.91685	8.07346
3239.98828	8.14612
3238.05972	8.33424
3236.13115	8.42856
3234.20259	8.34070
3232.27402	8.19789
3230.34546	8.06004
3228.41689	7.97969
3226.48833	8.03533
3224.55977	8.14760
3222.63120	8.12274
3220.70264	7.98179
3218.77407	7.90367
3216.84551	7.96503
3214.91694	8.11124
3212.98838	8.19659
3211.05981	8.13972
3209.13125	8.01131
3207.20269	7.88721
3205.27412	7.79872
3203.34556	7.73557
3201.41699	7.68487
3199.48843	7.66979
3197.55986	7.71138
3195.63130	7.71770
3193.70273	7.62366
3191.77417	7.56464
3189.84561	7.58516
3187.91704	7.56497
3185.98848	7.49018
3184.05991	7.45587
3182.13135	7.44045
3180.20278	7.37866
3178.27422	7.29952
3176.34565	7.24392
3174.41709	7.22407
3172.48853	7.23222
3170.55996	7.20604
3168.63140	7.11188
3166.70283	7.01040
3164.77427	6.92296
3162.84570	6.82343
3160.91714	6.74287
3158.98857	6.70329
3157.06001	6.64884
3155.13145	6.56885
3153.20288	6.50310
3151.27432	6.44286
3149.34575	6.37172
3147.41719	6.29313
3145.48862	6.22484
3143.56006	6.16801
3141.63149	6.10156
3139.70293	6.02730
3137.77437	5.95072
3135.84580	5.87274
3133.91724	5.80903
3131.98867	5.75704
3130.06011	5.69433
3128.13154	5.62217
3126.20298	5.55082
3124.27441	5.47268
3122.34585	5.38684
3120.41729	5.31075
3118.48872	5.24735
3116.56016	5.18182
3114.63159	5.10917
3112.70303	5.03208
3110.77446	4.95649
3108.84590	4.88781
3106.91733	4.82212
3104.98877	4.75538
3103.06021	4.68630
3101.13164	4.61508
3099.20308	4.54715
3097.27451	4.48157
3095.34595	4.41195
3093.41738	4.34095
3091.48882	4.27306
3089.56025	4.20670
3087.63169	4.13972
3085.70312	4.07237
3083.77456	4.00852
3081.84600	3.94861
3079.91743	3.88648
3077.98887	3.82222
3076.06030	3.76085
3074.13174	3.70210
3072.20317	3.64371
3070.27461	3.58407
3068.34604	3.52362
3066.41748	3.46514
3064.48892	3.40865
3062.56035	3.35198
3060.63179	3.29609
3058.70322	3.24225
3056.77466	3.18876
3054.84609	3.13464
3052.91753	3.08124
3050.98896	3.02897
3049.06040	2.97689
3047.13184	2.92505
3045.20327	2.87438
3043.27471	2.82528
3041.34614	2.77649
3039.41758	2.72761
3037.48901	2.68034
3035.56045	2.63445
3033.63188	2.58810
3031.70332	2.54155
3029.77476	2.49665
3027.84619	2.45328
3025.91763	2.41006
3023.98906	2.36706
3022.06050	2.32510
3020.13193	2.28433
3018.20337	2.24405
3016.27480	2.20351
3014.34624	2.16299
3012.41768	2.12330
3010.48911	2.08517
3008.56055	2.04843
3006.63198	2.01227
3004.70342	1.97649
3002.77485	1.94083
3000.84629	1.90511
2998.91772	1.87036
2996.98916	1.83726
2995.06060	1.80483
2993.13203	1.77179
2991.20347	1.73854
2989.27490	1.70612
2987.34634	1.67474
2985.41777	1.64440
2983.48921	1.61497
2981.56064	1.58567
2979.63208	1.55592
2977.70352	1.52634
2975.77495	1.49771
2973.84639	1.46995
2971.91782	1.44270
2969.98926	1.41549
2968.06069	1.38803
2966.13213	1.36106
2964.20356	1.33559
2962.27500	1.31160
2960.34644	1.28801
2958.41787	1.26416
2956.48931	1.24062
2954.56074	1.21817
2952.63218	1.19626
2950.70361	1.17413
2948.77505	1.15227
2946.84648	1.13112
2944.91792	1.11056
2942.98936	1.09020
2941.06079	1.06998
2939.13223	1.05018
2937.20366	1.03090
2935.27510	1.01206
2933.34653	0.99344
2931.41797	0.97484
2929.48940	0.95641
2927.56084	0.93871
2925.63228	0.92181
2923.70371	0.90543
2921.77515	0.88936
2919.84658	0.87361
2917.91802	0.85829
2915.98945	0.84270
2914.06089	0.82679
2912.13232	0.81171
2910.20376	0.79756
2908.27520	0.78371
2906.34663	0.76982
2904.41807	0.75601
2902.48950	0.74257
2900.56094	0.72935
2898.63237	0.71642
2896.70381	0.70421
2894.77524	0.69253
2892.84668	0.68102
2890.91812	0.66939
2888.98955	0.65750
2887.06099	0.64589
2885.13242	0.63492
2883.20386	0.62420
2881.27529	0.61345
2879.34673	0.60280
2877.41816	0.59246
2875.48960	0.58227
2873.56104	0.57188
2871.63247	0.56145
2869.70391	0.55146
2867.77534	0.54220
2865.84678	0.53346
2863.91821	0.52450
2861.98965	0.51520
2860.06108	0.50621
2858.13252	0.49767
2856.20396	0.48924
2854.27539	0.48079
2852.34683	0.47243
2850.41826	0.46460
2848.48970	0.45738
2846.56113	0.45013
2844.63257	0.44284
2842.70400	0.43584
2840.77544	0.42905
2838.84687	0.42275
2836.91831	0.41695
2834.98975	0.41104
2833.06118	0.40485
2831.13262	0.39875
2829.20405	0.39284
2827.27549	0.38699
2825.34692	0.38127
2823.41836	0.37562
2821.48979	0.36988
2819.56123	0.36418
2817.63267	0.35871
2815.70410	0.35341
2813.77554	0.34818
2811.84697	0.34289
2809.91841	0.33759
2807.98984	0.33251
2806.06128	0.32765
2804.13271	0.32280
2802.20415	0.31804
2800.27559	0.31355
2798.34702	0.30923
2796.41846	0.30496
2794.48989	0.30073
2792.56133	0.29650
2790.63276	0.29220
2788.70420	0.28787
2786.77563	0.28365
2784.84707	0.27973
2782.91851	0.27612
2780.98994	0.27255
2779.06138	0.26890
2777.13281	0.26528
2775.20425	0.26169
2773.27568	0.25817
2771.34712	0.25486
2769.41855	0.25165
2767.48999	0.24848
2765.56143	0.24547
2763.63286	0.24249
2761.70430	0.23936
2759.77573	0.23624
2757.84717	0.23336
2755.91860	0.23066
2753.99004	0.22796
2752.06147	0.22521
2750.13291	0.22251
2748.20435	0.21986
2746.27578	0.21719
2744.34722	0.21461
2742.41865	0.21209
2740.49009	0.20965
2738.56152	0.20745
2736.63296	0.20536
2734.70439	0.20330
2732.77583	0.20130
2730.84727	0.19925
2728.91870	0.19720
2726.99014	0.19523
2725.06157	0.19319
2723.13301	0.19104
2721.20444	0.18911
2719.27588	0.18759
2717.34731	0.18623
2715.41875	0.18462
2713.49019	0.18275
2711.56162	0.18097
2709.63306	0.17932
2707.70449	0.17765
2705.77593	0.17593
2703.84736	0.17432
2701.91880	0.17292
2699.99023	0.17178
2698.06167	0.17072
2696.13311	0.16936
2694.20454	0.16779
2692.27598	0.16645
2690.34741	0.16532
2688.41885	0.16414
2686.49028	0.16288
2684.56172	0.16162
2682.63315	0.16046
2680.70459	0.15933
2678.77603	0.15818
2676.84746	0.15711
2674.91890	0.15618
2672.99033	0.15541
2671.06177	0.15466
2669.13320	0.15365
2667.20464	0.15252
2665.27607	0.15157
2663.34751	0.15071
2661.41895	0.14986
2659.49038	0.14919
2657.56182	0.14873
2655.63325	0.14822
2653.70469	0.14750
2651.77612	0.14671
2649.84756	0.14613
2647.91899	0.14571
2645.99043	0.14520
2644.06187	0.14470
2642.13330	0.14434
2640.20474	0.14392
2638.27617	0.14334
2636.34761	0.14280
2634.41904	0.14244
2632.49048	0.14222
2630.56191	0.14208
2628.63335	0.14190
2626.70479	0.14156
2624.77622	0.14128
2622.84766	0.14127
2620.91909	0.14126
2618.99053	0.14109
2617.06196	0.14097
2615.13340	0.14093
2613.20483	0.14075
2611.27627	0.14049
2609.34771	0.14037
2607.41914	0.14035
2605.49058	0.14040
2603.56201	0.14046
2601.63345	0.14047
2599.70488	0.14050
2597.77632	0.14061
2595.84775	0.14077
2593.91919	0.14099
2591.99062	0.14125
2590.06206	0.14154
2588.13350	0.14183
2586.20493	0.14212
2584.27637	0.14252
2582.34780	0.14303
2580.41924	0.14343
2578.49067	0.14373
2576.56211	0.14408
2574.63354	0.14444
2572.70498	0.14483
2570.77642	0.14523
2568.84785	0.14564
2566.91929	0.14614
2564.99072	0.14661
2563.06216	0.14697
2561.13359	0.14738
2559.20503	0.14793
2557.27646	0.14854
2555.34790	0.14905
2553.41934	0.14951
2551.49077	0.15016
2549.56221	0.15095
2547.63364	0.15172
2545.70508	0.15242
2543.77651	0.15302
2541.84795	0.15366
2539.91938	0.15441
2537.99082	0.15516
2536.06226	0.15579
2534.13369	0.15633
2532.20513	0.15691
2530.27656	0.15757
2528.34800	0.15834
2526.41943	0.15921
2524.49087	0.16007
2522.56230	0.16087
2520.63374	0.16170
2518.70518	0.16258
2516.77661	0.16337
2514.84805	0.16411
2512.91948	0.16497
2510.99092	0.16589
2509.06235	0.16672
2507.13379	0.16757
2505.20522	0.16846
2503.27666	0.16927
2501.34810	0.17011
2499.41953	0.17108
2497.49097	0.17204
2495.56240	0.17296
2493.63384	0.17389
2491.70527	0.17477
2489.77671	0.17562
2487.84814	0.17651
2485.91958	0.17742
2483.99102	0.17833
2482.06245	0.17937
2480.13389	0.18045
2478.20532	0.18137
2476.27676	0.18226
2474.34819	0.18325
2472.41963	0.18426
2470.49106	0.18511
2468.56250	0.18583
2466.63394	0.18671
2464.70537	0.18775
2462.77681	0.18879
2460.84824	0.18990
2458.91968	0.19107
2456.99111	0.19216
2455.06255	0.19319
2453.13398	0.19419
2451.20542	0.19520
2449.27686	0.19618
2447.34829	0.19711
2445.41973	0.19810
2443.49116	0.19922
2441.56260	0.20025
2439.63403	0.20126
2437.70547	0.20236
2435.77690	0.20343
2433.84834	0.20439
2431.91978	0.20544
2429.99121	0.20666
2428.06265	0.20787
2426.13408	0.20898
2424.20552	0.21002
2422.27695	0.21103
2420.34839	0.21208
2418.41982	0.21327
2416.49126	0.21457
2414.56270	0.21583
2412.63413	0.21704
2410.70557	0.21830
2408.77700	0.21966
2406.84844	0.22092
2404.91987	0.22201
2402.99131	0.22302
2401.06274	0.22404
2399.13418	0.22519
2397.20562	0.22652
2395.27705	0.22793
2393.34849	0.22924
2391.41992	0.23035
2389.49136	0.23137
2387.56279	0.23233
2385.63423	0.23290
2383.70566	0.23277
2381.77710	0.23188
2379.84854	0.23038
2377.91997	0.22834
2375.99141	0.22567
2374.06284	0.22242
2372.13428	0.21861
2370.20571	0.21424
2368.27715	0.20957
2366.34858	0.20523
2364.42002	0.20180
2362.49146	0.19919
2360.56289	0.19763
2358.63433	0.19978
2356.70576	0.20701
2354.77720	0.21544
2352.84863	0.22320
2350.92007	0.23113
2348.99150	0.23661
2347.06294	0.23752
2345.13437	0.23448
2343.20581	0.23063
2341.27725	0.22971
2339.34868	0.23217
2337.42012	0.23569
2335.49155	0.23830
2333.56299	0.24037
2331.63442	0.24253
2329.70586	0.24529
2327.77729	0.24898
2325.84873	0.25279
2323.92017	0.25654
2321.99160	0.26073
2320.06304	0.26520
2318.13447	0.26957
2316.20591	0.27357
2314.27734	0.27694
2312.34878	0.27960
2310.42021	0.28216
2308.49165	0.28528
2306.56309	0.28889
2304.63452	0.29242
2302.70596	0.29538
2300.77739	0.29800
2298.84883	0.30053
2296.92026	0.30299
2294.99170	0.30552
2293.06313	0.30813
2291.13457	0.31064
2289.20601	0.31323
2287.27744	0.31597
2285.34888	0.31865
2283.42031	0.32106
2281.49175	0.32300
2279.56318	0.32458
2277.63462	0.32621
2275.70605	0.32808
2273.77749	0.33016
2271.84893	0.33242
2269.92036	0.33469
2267.99180	0.33687
2266.06323	0.33899
2264.13467	0.34118
2262.20610	0.34343
2260.27754	0.34567
2258.34897	0.34789
2256.42041	0.35007
2254.49185	0.35229
2252.56328	0.35466
2250.63472	0.35701
2248.70615	0.35927
2246.77759	0.36155
2244.84902	0.36383
2242.92046	0.36606
2240.99189	0.36833
2239.06333	0.37061
2237.13477	0.37284
2235.20620	0.37511
2233.27764	0.37745
2231.34907	0.37971
2229.42051	0.38193
2227.49194	0.38419
2225.56338	0.38644
2223.63481	0.38864
2221.70625	0.39080
2219.77769	0.39310
2217.84912	0.39550
2215.92056	0.39778
2213.99199	0.39989
2212.06343	0.40194
2210.13486	0.40398
2208.20630	0.40612
2206.27773	0.40839
2204.34917	0.41052
2202.42061	0.41241
2200.49204	0.41434
2198.56348	0.41645
2196.63491	0.41854
2194.70635	0.42049
2192.77778	0.42232
2190.84922	0.42414
2188.92065	0.42601
2186.99209	0.42789
2185.06353	0.42973
2183.13496	0.43146
2181.20640	0.43315
2179.27783	0.43487
2177.34927	0.43656
2175.42070	0.43815
2173.49214	0.43967
2171.56357	0.44110
2169.63501	0.44249
2167.70645	0.44388
2165.77788	0.44522
2163.84932	0.44646
2161.92075	0.44759
2159.99219	0.44863
2158.06362	0.44960
2156.13506	0.45052
2154.20649	0.45134
2152.27793	0.45214
2150.34937	0.45290
2148.42080	0.45352
2146.49224	0.45409
2144.56367	0.45466
2142.63511	0.45520
2140.70654	0.45559
2138.77798	0.45577
2136.84941	0.45581
2134.92085	0.45581
2132.99229	0.45581
2131.06372	0.45581
2129.13516	0.45568
2127.20659	0.45537
2125.27803	0.45503
2123.34946	0.45472
2121.42090	0.45434
2119.49233	0.45380
2117.56377	0.45314
2115.63521	0.45238
2113.70664	0.45158
2111.77808	0.45074
2109.84951	0.44972
2107.92095	0.44858
2105.99238	0.44747
2104.06382	0.44638
2102.13525	0.44511
2100.20669	0.44357
2098.27812	0.44195
2096.34956	0.44042
2094.42100	0.43895
2092.49243	0.43744
2090.56387	0.43582
2088.63530	0.43408
2086.70674	0.43228
2084.77817	0.43045
2082.84961	0.42865
2080.92104	0.42673
2078.99248	0.42458
2077.06392	0.42232
2075.13535	0.42015
2073.20679	0.41809
2071.27822	0.41607
2069.34966	0.41395
2067.42109	0.41160
2065.49253	0.40909
2063.56396	0.40653
2061.63540	0.40398
2059.70684	0.40143
2057.77827	0.39891
2055.84971	0.39648
2053.92114	0.39404
2051.99258	0.39155
2050.06401	0.38898
2048.13545	0.38633
2046.20688	0.38361
2044.27832	0.38092
2042.34976	0.37823
2040.42119	0.37551
2038.49263	0.37277
2036.56406	0.37012
2034.63550	0.36751
2032.70693	0.36474
2030.77837	0.36187
2028.84980	0.35901
2026.92124	0.35620
2024.99268	0.35345
2023.06411	0.35064
2021.13555	0.34772
2019.20698	0.34486
2017.27842	0.34219
2015.34985	0.33960
2013.42129	0.33692
2011.49272	0.33413
2009.56416	0.33136
2007.63560	0.32864
2005.70703	0.32595
2003.77847	0.32327
2001.84990	0.32066
1999.92134	0.31810
1997.99277	0.31550
1996.06421	0.31289
1994.13564	0.31031
1992.20708	0.30775
1990.27852	0.30531
1988.34995	0.30298
1986.42139	0.30052
1984.49282	0.29798
1982.56426	0.29554
1980.63569	0.29319
1978.70713	0.29091
1976.77856	0.28871
1974.85000	0.28653
1972.92144	0.28428
1970.99287	0.28206
1969.06431	0.27992
1967.13574	0.27783
1965.20718	0.27582
1963.27861	0.27385
1961.35005	0.27193
1959.42148	0.27007
1957.49292	0.26824
1955.56436	0.26645
1953.63579	0.26475
1951.70723	0.26308
1949.77866	0.26143
1947.85010	0.25986
1945.92153	0.25830
1943.99297	0.25668
1942.06440	0.25519
1940.13584	0.25392
1938.20728	0.25264
1936.27871	0.25127
1934.35015	0.24991
1932.42158	0.24867
1930.49302	0.24743
1928.56445	0.24624
1926.63589	0.24521
1924.70732	0.24431
1922.77876	0.24335
1920.85020	0.24235
1918.92163	0.24139
1916.99307	0.24049
1915.06450	0.23969
1913.13594	0.23894
1911.20737	0.23823
1909.27881	0.23753
1907.35024	0.23680
1905.42168	0.23606
1903.49312	0.23544
1901.56455	0.23489
1899.63599	0.23432
1897.70742	0.23386
1895.77886	0.23352
1893.85029	0.23320
1891.92173	0.23279
1889.99316	0.23246
1888.06460	0.23235
1886.13604	0.23227
1884.20747	0.23211
1882.27891	0.23196
1880.35034	0.23187
1878.42178	0.23177
1876.49321	0.23173
1874.56465	0.23173
1872.63608	0.23176
1870.70752	0.23176
1868.77896	0.23190
1866.85039	0.23217
1864.92183	0.23242
1862.99326	0.23268
1861.06470	0.23298
1859.13613	0.23335
1857.20757	0.23377
1855.27900	0.23427
1853.35044	0.23475
1851.42187	0.23526
1849.49331	0.23578
1847.56475	0.23631
1845.63618	0.23694
1843.70762	0.23774
1841.77905	0.23862
1839.85049	0.23936
1837.92192	0.24028
1835.99336	0.24131
1834.06479	0.24227
1832.13623	0.24309
1830.20767	0.24417
1828.27910	0.24554
1826.35054	0.24675
1824.42197	0.24813
1822.49341	0.24961
1820.56484	0.25105
1818.63628	0.25251
1816.70771	0.25412
1814.77915	0.25571
1812.85059	0.25734
1810.92202	0.25920
1808.99346	0.26127
1807.06489	0.26339
1805.13633	0.26536
1803.20776	0.26741
1801.27920	0.26972
1799.35063	0.27253
1797.42207	0.27516
1795.49351	0.27747
1793.56494	0.28003
1791.63638	0.28361
1789.70781	0.28744
1787.77925	0.29037
1785.85068	0.29350
1783.92212	0.29709
1781.99355	0.30105
1780.06499	0.30527
1778.13643	0.30965
1776.20786	0.31372
1774.27930	0.31778
1772.35073	0.32322
1770.42217	0.32962
1768.49360	0.33535
1766.56504	0.34087
1764.63647	0.34633
1762.70791	0.35197
1760.77935	0.35928
1758.85078	0.36654
1756.92222	0.37374
1754.99365	0.38150
1753.06509	0.38854
1751.13652	0.39662
1749.20796	0.40683
1747.27939	0.41750
1745.35083	0.42716
1743.42227	0.43702
1741.49370	0.44762
1739.56514	0.46021
1737.63657	0.47295
1735.70801	0.48376
1733.77944	0.49982
1731.85088	0.52018
1729.92231	0.53673
1727.99375	0.55291
1726.06519	0.56969
1724.13662	0.58776
1722.20806	0.60743
1720.27949	0.62553
1718.35093	0.64622
1716.42236	0.67744
1714.49380	0.70855
1712.56523	0.73416
1710.63667	0.75845
1708.70811	0.78387
1706.77954	0.81220
1704.85098	0.84606
1702.92241	0.87644
1700.99385	0.90577
1699.06528	0.94906
1697.13672	0.98960
1695.20815	1.03190
1693.27959	1.07265
1691.35103	1.10447
1689.42246	1.14038
1687.49390	1.17792
1685.56533	1.21320
1683.63677	1.26776
1681.70820	1.32624
1679.77964	1.36427
1677.85107	1.39987
1675.92251	1.43993
1673.99395	1.48877
1672.06538	1.53181
1670.13682	1.57353
1668.20825	1.62797
1666.27969	1.67168
1664.35112	1.70690
1662.42256	1.74913
1660.49399	1.79640
1658.56543	1.83371
1656.63687	1.86401
1654.70830	1.89214
1652.77974	1.94223
1650.85117	1.99541
1648.92261	2.01566
1646.99404	2.04124
1645.06548	2.07571
1643.13691	2.10064
1641.20835	2.11636
1639.27979	2.12948
1637.35122	2.13682
1635.42266	2.13832
1633.49409	2.13665
1631.56553	2.12931
1629.63696	2.11728
1627.70840	2.09480
1625.77983	2.06745
1623.85127	2.03241
1621.92271	1.98902
1619.99414	1.94987
1618.06558	1.91065
1616.13701	1.85494
1614.20845	1.79842
1612.27988	1.75453
1610.35132	1.70752
1608.42275	1.65641
1606.49419	1.60648
1604.56562	1.56015
1602.63706	1.51466
1600.70850	1.46963
1598.77993	1.42776
1596.85137	1.38768
1594.92280	1.34838
1592.99424	1.31073
1591.06567	1.27634
1589.13711	1.24361
1587.20854	1.21236
1585.27998	1.18284
1583.35142	1.15480
1581.42285	1.12881
1579.49429	1.10597
1577.56572	1.08436
1575.63716	1.05692
1573.70859	1.03242
1571.78003	1.01597
1569.85146	0.99764
1567.92290	0.97673
1565.99434	0.96019
1564.06577	0.94548
1562.13721	0.93256
1560.20864	0.92099
1558.28008	0.90071
1556.35151	0.88280
1554.42295	0.87230
1552.49438	0.86150
1550.56582	0.85052
1548.63726	0.83963
1546.70869	0.83039
1544.78013	0.82197
1542.85156	0.81309
1540.92300	0.80298
1538.99443	0.79065
1537.06587	0.78258
1535.13730	0.77694
1533.20874	0.76979
1531.28018	0.76243
1529.35161	0.75689
1527.42305	0.75123
1525.49448	0.74499
1523.56592	0.73921
1521.63735	0.73312
1519.70879	0.72676
1517.78022	0.72164
1515.85166	0.71657
1513.92310	0.71191
1511.99453	0.70816
1510.06597	0.70454
1508.13740	0.70037
1506.20884	0.69469
1504.28027	0.69103
1502.35171	0.68872
1500.42314	0.68592
1498.49458	0.68260
1496.56602	0.67917
1494.63745	0.67613
1492.70889	0.67345
1490.78032	0.67069
1488.85176	0.66761
1486.92319	0.66504
1484.99463	0.66293
1483.06606	0.66080
1481.13750	0.65848
1479.20894	0.65614
1477.28037	0.65401
1475.35181	0.65186
1473.42324	0.64937
1471.49468	0.64653
1469.56611	0.64420
1467.63755	0.64214
1465.70898	0.63990
1463.78042	0.63765
1461.85186	0.63578
1459.92329	0.63407
1457.99473	0.63183
1456.06616	0.62875
1454.13760	0.62620
1452.20903	0.62435
1450.28047	0.62245
1448.35190	0.62032
1446.42334	0.61818
1444.49478	0.61630
1442.56621	0.61464
1440.63765	0.61306
1438.70908	0.61153
1436.78052	0.60992
1434.85195	0.60841
1432.92339	0.60705
1430.99482	0.60567
1429.06626	0.60423
1427.13770	0.60287
1425.20913	0.60158
1423.28057	0.60030
1421.35200	0.59901
1419.42344	0.59744
1417.49487	0.59559
1415.56631	0.59383
1413.63774	0.59221
1411.70918	0.59063
1409.78062	0.58912
1407.85205	0.58764
1405.92349	0.58609
1403.99492	0.58443
1402.06636	0.58275
1400.13779	0.58114
1398.20923	0.57967
1396.28066	0.57826
1394.35210	0.57684
1392.42354	0.57569
1390.49497	0.57475
1388.56641	0.57374
1386.63784	0.57263
1384.70928	0.57156
1382.78071	0.57060
1380.85215	0.56970
1378.92358	0.56893
1376.99502	0.56817
1375.06646	0.56735
1373.13789	0.56656
1371.20933	0.56582
1369.28076	0.56517
1367.35220	0.56459
1365.42363	0.56382
1363.49507	0.56277
1361.56650	0.56168
1359.63794	0.56078
1357.70937	0.55998
1355.78081	0.55904
1353.85225	0.55788
1351.92368	0.55671
1349.99512	0.55579
1348.06655	0.55500
1346.13799	0.55406
1344.20942	0.55302
1342.28086	0.55194
1340.35229	0.55085
1338.42373	0.54975
1336.49517	0.54877
1334.56660	0.54795
1332.63804	0.54710
1330.70947	0.54621
1328.78091	0.54537
1326.85234	0.54453
1324.92378	0.54369
1322.99521	0.54289
1321.06665	0.54211
1319.13809	0.54142
1317.20952	0.54087
1315.28096	0.54023
1313.35239	0.53937
1311.42383	0.53842
1309.49526	0.53751
1307.56670	0.53661
1305.63813	0.53565
1303.70957	0.53467
1301.78101	0.53378
1299.85244	0.53291
1297.92388	0.53202
1295.99531	0.53134
1294.06675	0.53087
1292.13818	0.53038
1290.20962	0.52980
1288.28105	0.52917
1286.35249	0.52854
1284.42393	0.52796
1282.49536	0.52737
1280.56680	0.52681
1278.63823	0.52633
1276.70967	0.52589
1274.78110	0.52540
1272.85254	0.52493
1270.92397	0.52446
1268.99541	0.52390
1267.06685	0.52336
1265.13828	0.52299
1263.20972	0.52285
1261.28115	0.52266
1259.35259	0.52226
1257.42402	0.52180
1255.49546	0.52141
1253.56689	0.52098
1251.63833	0.52054
1249.70977	0.52020
1247.78120	0.51986
1245.85264	0.51953
1243.92407	0.51915
1241.99551	0.51865
1240.06694	0.51809
1238.13838	0.51758
1236.20981	0.51705
1234.28125	0.51640
1232.35269	0.51573
1230.42412	0.51506
1228.49556	0.51440
1226.56699	0.51380
1224.63843	0.51330
1222.70986	0.51269
1220.78130	0.51187
1218.85273	0.51106
1216.92417	0.51034
1214.99561	0.50970
1213.06704	0.50910
1211.13848	0.50851
1209.20991	0.50792
1207.28135	0.50747
1205.35278	0.50714
1203.42422	0.50662
1201.49565	0.50589
1199.56709	0.50512
1197.63853	0.50437
1195.70996	0.50369
1193.78140	0.50312
1191.85283	0.50262
1189.92427	0.50219
1187.99570	0.50179
1186.06714	0.50153
1184.13857	0.50144
1182.21001	0.50144
1180.28145	0.50156
1178.35288	0.50181
1176.42432	0.50220
1174.49575	0.50281
1172.56719	0.50359
1170.63862	0.50436
1168.71006	0.50515
1166.78149	0.50597
1164.85293	0.50675
1162.92437	0.50746
1160.99580	0.50797
1159.06724	0.50819
1157.13867	0.50807
1155.21011	0.50760
1153.28154	0.50672
1151.35298	0.50541
1149.42441	0.50371
1147.49585	0.50159
1145.56729	0.49916
1143.63872	0.49664
1141.71016	0.49413
1139.78159	0.49169
1137.85303	0.48958
1135.92446	0.48796
1133.99590	0.48670
1132.06733	0.48575
1130.13877	0.48508
1128.21021	0.48447
1126.28164	0.48374
1124.35308	0.48295
1122.42451	0.48214
1120.49595	0.48137
1118.56738	0.48090
1116.63882	0.48093
1114.71025	0.48130
1112.78169	0.48176
1110.85312	0.48229
1108.92456	0.48293
1106.99600	0.48371
1105.06743	0.48463
1103.13887	0.48574
1101.21030	0.48709
1099.28174	0.48862
1097.35317	0.49060
1095.42461	0.49338
1093.49604	0.49706
1091.56748	0.50172
1089.63892	0.50731
1087.71035	0.51381
1085.78179	0.52144
1083.85322	0.52992
1081.92466	0.53800
1079.99609	0.54412
1078.06753	0.54755
1076.13896	0.54816
1074.21040	0.54566
1072.28184	0.54031
1070.35327	0.53348
1068.42471	0.52651
1066.49614	0.51982
1064.56758	0.51359
1062.63901	0.50823
1060.71045	0.50364
1058.78188	0.49951
1056.85332	0.49581
1054.92476	0.49271
1052.99619	0.49020
1051.06763	0.48812
1049.13906	0.48655
1047.21050	0.48564
1045.28193	0.48528
1043.35337	0.48524
1041.42480	0.48541
1039.49624	0.48566
1037.56768	0.48587
1035.63911	0.48587
1033.71055	0.48548
1031.78198	0.48476
1029.85342	0.48400
1027.92485	0.48330
1025.99629	0.48262
1024.06772	0.48221
1022.13916	0.48219
1020.21060	0.48228
1018.28203	0.48240
1016.35347	0.48261
1014.42490	0.48288
1012.49634	0.48318
1010.56777	0.48359
1008.63921	0.48422
1006.71064	0.48512
1004.78208	0.48636
1002.85352	0.48814
1000.92495	0.49062
998.99639	0.49372
997.06782	0.49732
995.13926	0.50131
993.21069	0.50531
991.28213	0.50857
989.35356	0.51069
987.42500	0.51176
985.49644	0.51204
983.56787	0.51210
981.63931	0.51266
979.71074	0.51397
977.78218	0.51589
975.85361	0.51825
973.92505	0.52090
971.99648	0.52398
970.06792	0.52752
968.13936	0.53136
966.21079	0.53544
964.28223	0.53976
962.35366	0.54450
960.42510	0.54976
958.49653	0.55522
956.56797	0.56080
954.63940	0.56675
952.71084	0.57307
950.78228	0.57951
948.85371	0.58580
946.92515	0.59195
944.99658	0.59817
943.06802	0.60448
941.13945	0.61064
939.21089	0.61643
937.28232	0.62183
935.35376	0.62720
933.42520	0.63279
931.49663	0.63837
929.56807	0.64384
927.63950	0.64980
925.71094	0.65648
923.78237	0.66303
921.85381	0.66903
919.92524	0.67520
917.99668	0.68244
916.06812	0.69072
914.13955	0.69894
912.21099	0.70651
910.28242	0.71369
908.35386	0.72116
906.42529	0.72984
904.49673	0.73932
902.56816	0.74800
900.63960	0.75596
898.71104	0.76471
896.78247	0.77449
894.85391	0.78450
892.92534	0.79450
890.99678	0.80414
889.06821	0.81384
887.13965	0.82465
885.21108	0.83559
883.28252	0.84595
881.35396	0.85795
879.42539	0.87182
877.49683	0.88391
875.56826	0.89432
873.63970	0.90606
871.71113	0.91852
869.78257	0.92980
867.85400	0.94084
865.92544	0.95357
863.99687	0.96589
862.06831	0.97624
860.13975	0.98749
858.21118	0.99973
856.28262	1.00944
854.35405	1.01747
852.42549	1.02757
850.49692	1.03960
848.56836	1.05196
846.63979	1.06427
844.71123	1.07550
842.78267	1.08542
840.85410	1.09526
838.92554	1.10495
836.99697	1.11443
835.06841	1.12616
833.13984	1.14172
831.21128	1.15695
829.28271	1.16609
827.35415	1.17166
825.42559	1.17838
823.49702	1.18697
821.56846	1.19715
819.63989	1.20682
817.71133	1.21453
815.78276	1.22460
813.85420	1.24009
811.92563	1.25448
809.99707	1.26325
808.06851	1.27028
806.13994	1.27875
804.21138	1.28573
802.28281	1.28359
800.35425	1.26875
798.42568	1.26048
796.49712	1.29075
794.56855	1.34181
792.63999	1.34397
790.71143	1.31094
788.78286	1.29712
786.85430	1.28925
784.92573	1.26760
782.99717	1.25527
781.06860	1.27506
779.14004	1.30410
777.21147	1.30664
775.28291	1.27759
773.35435	1.23373
771.42578	1.19765
769.49722	1.16583
767.56865	1.15371
765.64009	1.18228
763.71152	1.22189
761.78296	1.23440
759.85439	1.22649
757.92583	1.19626
755.99727	1.11974
754.06870	1.03438
752.14014	0.98789
750.21157	0.96500
748.28301	0.96335
746.35444	1.05231
744.42588	1.32662
742.49731	1.75632
740.56875	1.39582
738.64019	1.08570
736.71162	0.91725
734.78306	0.75135
732.85449	0.56588
730.92593	0.42963
728.99736	0.33332
727.06880	0.19585
725.14023	0.09939
723.21167	0.10409
721.28311	-0.05821
719.35454	-0.15324
717.42598	0.04196
715.49741	0.28917
713.56885	0.34312
711.64028	0.17382
709.71172	0.08572
707.78315	0.06568
705.85459	0.10901
703.92603	0.19494
701.99746	0.24353
700.06890	0.26457
698.14033	0.35073
696.21177	0.44299
694.28320	0.44513
692.35464	0.36351
690.42607	0.28927
688.49751	0.26389
686.56895	0.23529
684.64038	0.21475
682.71182	0.27238
680.78325	0.41315
678.85469	0.51125
676.92612	0.45283
674.99756	0.35348
673.06899	0.35534
671.14043	0.51795
669.21187	0.76481
667.28330	0.64718
665.35474	0.41413
663.42617	0.31207
661.49761	0.34508
659.56904	0.41739
657.64048	0.38452
655.71191	0.31244
653.78335	0.30551
651.85479	0.32827
649.92622	0.30777
647.99766	0.27670
646.06909	0.33396
644.14053	0.47623
642.21196	0.53035
640.28340	0.44530
638.35483	0.33466
636.42627	0.29370
634.49771	0.34885
632.56914	0.32337
630.64058	0.21343
628.71201	0.21872
626.78345	0.25337
624.85488	0.23203
622.92632	0.25597
620.99775	0.45895
619.06919	3.71442
617.14062	3.70284
615.21206	0.70350
613.28350	0.64351
611.35493	0.51459
609.42637	0.37454
607.49780	0.36829
605.56924	0.38739
603.64067	0.35258
601.71211	0.32500
599.78354	0.37554
597.85498	0.44064
595.92642	0.36828
593.99785	0.28858
592.06929	0.28808
590.14072	0.34076
588.21216	0.40275
586.28359	0.35369
584.35503	0.22883
582.42646	0.15324
580.49790	0.14039
578.56934	0.17194
576.64077	0.20110
574.71221	0.20399
572.78364	0.23013
570.85508	0.29700
568.92651	0.29579
566.99795	0.28600
565.06938	0.36917
563.14082	0.46887
561.21226	0.42775
559.28369	0.35419
557.35513	0.36557
555.42656	0.35823
553.49800	0.29763
551.56943	0.28442
549.64087	0.30538
547.71230	0.31337
545.78374	0.29138
543.85518	0.26050
541.92661	0.24376
539.99805	0.23739
538.06948	0.23696
536.14092	0.24073
534.21235	0.23877
532.28379	0.20095
530.35522	0.13498
528.42666	0.14069
526.49810	0.21863
524.56953	0.25114
522.64097	0.22961
520.71240	0.19520
518.78384	0.16896
516.85527	0.18765
514.92671	0.22633
512.99814	0.23328
511.06958	0.24189
509.14102	0.23272
507.21245	0.18624
505.28389	0.17713
503.35532	0.23755
501.42676	0.29214
499.49819	0.26757
