3997.91411	0.06035
3995.98555	0.06072
3994.05698	0.06102
3992.12842	0.06143
3990.19985	0.06220
3988.27129	0.06273
3986.34272	0.06239
3984.41416	0.06205
3982.48560	0.06265
3980.55703	0.06344
3978.62847	0.06365
3976.69990	0.06365
3974.77134	0.06385
3972.84277	0.06426
3970.91421	0.06461
3968.98564	0.06472
3967.05708	0.06491
3965.12852	0.06540
3963.19995	0.06572
3961.27139	0.06569
3959.34282	0.06577
3957.41426	0.06574
3955.48569	0.06536
3953.55713	0.06527
3951.62856	0.06569
3949.70000	0.06600
3947.77144	0.06584
3945.84287	0.06535
3943.91431	0.06493
3941.98574	0.06494
3940.05718	0.06521
3938.12861	0.06525
3936.20005	0.06508
3934.27148	0.06503
3932.34292	0.06519
3930.41436	0.06535
3928.48579	0.06552
3926.55723	0.06566
3924.62866	0.06554
3922.70010	0.06517
3920.77153	0.06508
3918.84297	0.06534
3916.91440	0.06543
3914.98584	0.06512
3913.05728	0.06458
3911.12871	0.06426
3909.20015	0.06426
3907.27158	0.06427
3905.34302	0.06439
3903.41445	0.06494
3901.48589	0.06550
3899.55732	0.06561
3897.62876	0.06508
3895.70020	0.06425
3893.77163	0.06407
3891.84307	0.06471
3889.91450	0.06511
3887.98594	0.06482
3886.05737	0.06500
3884.12881	0.06551
3882.20024	0.06555
3880.27168	0.06583
3878.34312	0.06622
3876.41455	0.06604
3874.48599	0.06598
3872.55742	0.06628
3870.62886	0.06665
3868.70029	0.06719
3866.77173	0.06758
3864.84316	0.06791
3862.91460	0.06845
3860.98604	0.06877
3859.05747	0.06886
3857.12891	0.06889
3855.20034	0.06902
3853.27178	0.06959
3851.34321	0.07054
3849.41465	0.07098
3847.48608	0.07105
3845.55752	0.07123
3843.62896	0.07179
3841.70039	0.07261
3839.77183	0.07364
3837.84326	0.07496
3835.91470	0.07573
3833.98613	0.07571
3832.05757	0.07563
3830.12900	0.07615
3828.20044	0.07728
3826.27187	0.07835
3824.34331	0.07897
3822.41475	0.07965
3820.48618	0.08123
3818.55762	0.08258
3816.62905	0.08297
3814.70049	0.08333
3812.77192	0.08365
3810.84336	0.08398
3808.91479	0.08461
3806.98623	0.08594
3805.05767	0.08768
3803.12910	0.08907
3801.20054	0.09101
3799.27197	0.09285
3797.34341	0.09313
3795.41484	0.09347
3793.48628	0.09434
3791.55771	0.09523
3789.62915	0.09613
3787.70059	0.09714
3785.77202	0.09865
3783.84346	0.10038
3781.91489	0.10153
3779.98633	0.10265
3778.05776	0.10449
3776.12920	0.10619
3774.20063	0.10747
3772.27207	0.10904
3770.34351	0.11115
3768.41494	0.11348
3766.48638	0.11555
3764.55781	0.11769
3762.62925	0.11978
3760.70068	0.12175
3758.77212	0.12410
3756.84355	0.12650
3754.91499	0.12848
3752.98643	0.13055
3751.05786	0.13384
3749.12930	0.13808
3747.20073	0.14062
3745.27217	0.14246
3743.34360	0.14608
3741.41504	0.14985
3739.48647	0.15224
3737.55791	0.15531
3735.62935	0.16058
3733.70078	0.16680
3731.77222	0.17152
3729.84365	0.17530
3727.91509	0.17892
3725.98652	0.18369
3724.05796	0.19019
3722.12939	0.19699
3720.20083	0.20381
3718.27227	0.21093
3716.34370	0.21816
3714.41514	0.22528
3712.48657	0.23367
3710.55801	0.24641
3708.62944	0.26130
3706.70088	0.27365
3704.77231	0.28508
3702.84375	0.29813
3700.91519	0.31457
3698.98662	0.33242
3697.05806	0.34952
3695.12949	0.36764
3693.20093	0.38671
3691.27236	0.40738
3689.34380	0.43441
3687.41523	0.46807
3685.48667	0.49781
3683.55811	0.52348
3681.62954	0.55093
3679.70098	0.58170
3677.77241	0.61392
3675.84385	0.65230
3673.91528	0.70501
3671.98672	0.74827
3670.05815	0.78591
3668.12959	0.83798
3666.20103	0.88601
3664.27246	0.92603
3662.34390	0.96899
3660.41533	1.01553
3658.48677	1.06139
3656.55820	1.10993
3654.62964	1.16382
3652.70107	1.20867
3650.77251	1.24688
3648.84395	1.30058
3646.91538	1.36928
3644.98682	1.42011
3643.05825	1.45846
3641.12969	1.49763
3639.20112	1.54094
3637.27256	1.58480
3635.34399	1.62789
3633.41543	1.67080
3631.48687	1.70987
3629.55830	1.74887
3627.62974	1.80172
3625.70117	1.85281
3623.77261	1.88761
3621.84404	1.92031
3619.91548	1.95747
3617.98691	2.00270
3616.05835	2.04731
3614.12979	2.08514
3612.20122	2.12360
3610.27266	2.16074
3608.34409	2.19828
3606.41553	2.23990
3604.48696	2.27948
3602.55840	2.31510
3600.62983	2.35333
3598.70127	2.39391
3596.77271	2.43203
3594.84414	2.47073
3592.91558	2.51298
3590.98701	2.55388
3589.05845	2.59098
3587.12988	2.63347
3585.20132	2.68000
3583.27275	2.72026
3581.34419	2.75786
3579.41562	2.79754
3577.48706	2.83967
3575.55850	2.88368
3573.62993	2.92894
3571.70137	2.97160
3569.77280	3.01064
3567.84424	3.05167
3565.91567	3.10312
3563.98711	3.15387
3562.05854	3.19503
3560.12998	3.23587
3558.20142	3.28091
3556.27285	3.32918
3554.34429	3.37631
3552.41572	3.42189
3550.48716	3.46637
3548.55859	3.51005
3546.63003	3.55477
3544.70146	3.60342
3542.77290	3.65466
3540.84434	3.70202
3538.91577	3.74500
3536.98721	3.78871
3535.05864	3.83659
3533.13008	3.88606
3531.20151	3.93586
3529.27295	3.98473
3527.34438	4.03240
3525.41582	4.08015
3523.48726	4.12999
3521.55869	4.18168
3519.63013	4.22769
3517.70156	4.26804
3515.77300	4.31118
3513.84443	4.36134
3511.91587	4.41289
3509.98730	4.46192
3508.05874	4.51096
3506.13018	4.55839
3504.20161	4.60041
3502.27305	4.63965
3500.34448	4.68508
3498.41592	4.73890
3496.48735	4.79679
3494.55879	4.85549
3492.63022	4.91075
3490.70166	4.95651
3488.77310	4.99286
3486.84453	5.03300
3484.91597	5.08810
3482.98740	5.15213
3481.05884	5.21203
3479.13027	5.26005
3477.20171	5.29965
3475.27314	5.34065
3473.34458	5.39055
3471.41602	5.44313
3469.48745	5.49108
3467.55889	5.54173
3465.63032	5.59614
3463.70176	5.64873
3461.77319	5.69470
3459.84463	5.73404
3457.91606	5.77588
3455.98750	5.82466
3454.05894	5.87712
3452.13037	5.93674
3450.20181	5.99251
3448.27324	6.02615
3446.34468	6.05965
3444.41611	6.10804
3442.48755	6.15311
3440.55898	6.19654
3438.63042	6.26010
3436.70186	6.32191
3434.77329	6.35761
3432.84473	6.40195
3430.91616	6.46624
3428.98760	6.52668
3427.05903	6.57714
3425.13047	6.61662
3423.20190	6.64274
3421.27334	6.69044
3419.34478	6.76782
3417.41621	6.84174
3415.48765	6.90424
3413.55908	6.95560
3411.63052	7.00256
3409.70195	7.03800
3407.77339	7.07476
3405.84482	7.12331
3403.91626	7.15591
3401.98770	7.17155
3400.05913	7.21448
3398.13057	7.28942
3396.20200	7.34554
3394.27344	7.36899
3392.34487	7.38692
3390.41631	7.43793
3388.48774	7.50696
3386.55918	7.53152
3384.63062	7.49490
3382.70205	7.49352
3380.77349	7.56451
3378.84492	7.63099
3376.91636	7.69594
3374.98779	7.74314
3373.05923	7.75090
3371.13066	7.78884
3369.20210	7.84021
3367.27354	7.81021
3365.34497	7.77547
3363.41641	7.83092
3361.48784	7.91730
3359.55928	7.96483
3357.63071	7.95025
3355.70215	7.92131
3353.77358	7.93992
3351.84502	7.98777
3349.91646	7.99470
3347.98789	8.02735
3346.05933	8.14669
3344.13076	8.19287
3342.20220	8.06743
3340.27363	7.93376
3338.34507	7.94324
3336.41650	8.05829
3334.48794	8.15312
3332.55937	8.16068
3330.63081	8.14515
3328.70225	8.16676
3326.77368	8.18804
3324.84512	8.15089
3322.91655	8.10383
3320.98799	8.12992
3319.05942	8.15252
3317.13086	8.13161
3315.20229	8.10646
3313.27373	8.10238
3311.34517	8.13658
3309.41660	8.13815
3307.48804	8.08692
3305.55947	8.06513
3303.63091	8.05561
3301.70234	8.01099
3299.77378	7.99448
3297.84521	8.00734
3295.91665	8.03169
3293.98809	8.11049
3292.05952	8.16923
3290.13096	8.10434
3288.20239	8.07434
3286.27383	8.17840
3284.34526	8.23877
3282.41670	8.18480
3280.48813	8.15348
3278.55957	8.21126
3276.63101	8.26706
3274.70244	8.27027
3272.77388	8.27450
3270.84531	8.27578
3268.91675	8.29164
3266.98818	8.30935
3265.05962	8.25454
3263.13105	8.16167
3261.20249	8.10292
3259.27393	8.08159
3257.34536	8.15979
3255.41680	8.36206
3253.48823	8.52712
3251.55967	8.46913
3249.63110	8.26213
3247.70254	8.12283
3245.77397	8.15393
3243.84541	8.29102
3241.91685	8.39656
3239.98828	8.49224
3238.05972	8.55763
3236.13115	8.46943
3234.20259	8.31409
3232.27402	8.23763
3230.34546	8.25525
3228.41689	8.23843
3226.48833	8.16644
3224.55977	8.16539
3222.63120	8.18653
3220.70264	8.09381
3218.77407	8.00253
3216.84551	8.04072
3214.91694	8.11277
3212.98838	8.11067
3211.05981	8.08775
3209.13125	8.10347
3207.20269	8.07961
3205.27412	7.95001
3203.34556	7.83442
3201.41699	7.83491
3199.48843	7.87687
3197.55986	7.86335
3195.63130	7.82060
3193.70273	7.78506
3191.77417	7.73724
3189.84561	7.65947
3187.91704	7.57134
3185.98848	7.50805
3184.05991	7.46416
3182.13135	7.39631
3180.20278	7.34205
3178.27422	7.35525
3176.34565	7.37438
3174.41709	7.31527
3172.48853	7.18662
3170.55996	7.06098
3168.63140	7.00395
3166.70283	6.99556
3164.77427	6.94233
3162.84570	6.83257
3160.91714	6.74668
3158.98857	6.71349
3157.06001	6.68739
3155.13145	6.61865
3153.20288	6.52451
3151.27432	6.44644
3149.34575	6.37813
3147.41719	6.30317
3145.48862	6.22948
3143.56006	6.17636
3141.63149	6.13200
3139.70293	6.05573
3137.77437	5.96147
3135.84580	5.88143
3133.91724	5.81033
3131.98867	5.74227
3130.06011	5.68030
3128.13154	5.61897
3126.20298	5.54844
3124.27441	5.47373
3122.34585	5.39822
3120.41729	5.31236
3118.48872	5.22502
3116.56016	5.15312
3114.63159	5.09202
3112.70303	5.03122
3110.77446	4.96504
3108.84590	4.89035
3106.91733	4.81064
3104.98877	4.73339
3103.06021	4.66380
3101.13164	4.59995
3099.20308	4.53806
3097.27451	4.47282
3095.34595	4.40415
3093.41738	4.33849
3091.48882	4.27341
3089.56025	4.20599
3087.63169	4.14132
3085.70312	4.08253
3083.77456	4.02447
3081.84600	3.96090
3079.91743	3.89347
3077.98887	3.82698
3076.06030	3.76505
3074.13174	3.70751
3072.20317	3.64897
3070.27461	3.58896
3068.34604	3.53205
3066.41748	3.47655
3064.48892	3.41918
3062.56035	3.36100
3060.63179	3.30379
3058.70322	3.24822
3056.77466	3.19374
3054.84609	3.14026
3052.91753	3.08768
3050.98896	3.03487
3049.06040	2.98251
3047.13184	2.93235
3045.20327	2.88299
3043.27471	2.83287
3041.34614	2.78335
3039.41758	2.73516
3037.48901	2.68778
3035.56045	2.64176
3033.63188	2.59697
3031.70332	2.55231
3029.77476	2.50782
3027.84619	2.46393
3025.91763	2.42068
3023.98906	2.37815
3022.06050	2.33603
3020.13193	2.29443
3018.20337	2.25423
3016.27480	2.21466
3014.34624	2.17437
3012.41768	2.13430
3010.48911	2.09559
3008.56055	2.05794
3006.63198	2.02131
3004.70342	1.98581
3002.77485	1.95110
3000.84629	1.91687
2998.91772	1.88264
2996.98916	1.84866
2995.06060	1.81539
2993.13203	1.78276
2991.20347	1.75128
2989.27490	1.72067
2987.34634	1.68983
2985.41777	1.65906
2983.48921	1.62937
2981.56064	1.60080
2979.63208	1.57276
2977.70352	1.54516
2975.77495	1.51819
2973.84639	1.49141
2971.91782	1.46459
2969.98926	1.43844
2968.06069	1.41315
2966.13213	1.38831
2964.20356	1.36379
2962.27500	1.33972
2960.34644	1.31638
2958.41787	1.29365
2956.48931	1.27066
2954.56074	1.24712
2952.63218	1.22398
2950.70361	1.20185
2948.77505	1.17982
2946.84648	1.15773
2944.91792	1.13673
2942.98936	1.11673
2941.06079	1.09699
2939.13223	1.07759
2937.20366	1.05848
2935.27510	1.03914
2933.34653	1.01962
2931.41797	1.00062
2929.48940	0.98246
2927.56084	0.96459
2925.63228	0.94646
2923.70371	0.92885
2921.77515	0.91237
2919.84658	0.89617
2917.91802	0.87984
2915.98945	0.86362
2914.06089	0.84755
2912.13232	0.83193
2910.20376	0.81703
2908.27520	0.80261
2906.34663	0.78847
2904.41807	0.77458
2902.48950	0.76079
2900.56094	0.74732
2898.63237	0.73446
2896.70381	0.72197
2894.77524	0.70973
2892.84668	0.69775
2890.91812	0.68585
2888.98955	0.67420
2887.06099	0.66307
2885.13242	0.65230
2883.20386	0.64166
2881.27529	0.63120
2879.34673	0.62102
2877.41816	0.61092
2875.48960	0.60070
2873.56104	0.59044
2871.63247	0.58032
2869.70391	0.57029
2867.77534	0.56008
2865.84678	0.54989
2863.91821	0.53991
2861.98965	0.52995
2860.06108	0.52030
2858.13252	0.51137
2856.20396	0.50272
2854.27539	0.49386
2852.34683	0.48503
2850.41826	0.47655
2848.48970	0.46841
2846.56113	0.46083
2844.63257	0.45376
2842.70400	0.44669
2840.77544	0.43988
2838.84687	0.43359
2836.91831	0.42734
2834.98975	0.42094
2833.06118	0.41473
2831.13262	0.40888
2829.20405	0.40320
2827.27549	0.39767
2825.34692	0.39208
2823.41836	0.38617
2821.48979	0.38020
2819.56123	0.37444
2817.63267	0.36876
2815.70410	0.36317
2813.77554	0.35787
2811.84697	0.35271
2809.91841	0.34745
2807.98984	0.34209
2806.06128	0.33685
2804.13271	0.33196
2802.20415	0.32722
2800.27559	0.32250
2798.34702	0.31790
2796.41846	0.31330
2794.48989	0.30871
2792.56133	0.30432
2790.63276	0.30006
2788.70420	0.29577
2786.77563	0.29144
2784.84707	0.28715
2782.91851	0.28313
2780.98994	0.27948
2779.06138	0.27589
2777.13281	0.27214
2775.20425	0.26846
2773.27568	0.26497
2771.34712	0.26154
2769.41855	0.25814
2767.48999	0.25486
2765.56143	0.25161
2763.63286	0.24822
2761.70430	0.24481
2759.77573	0.24169
2757.84717	0.23896
2755.91860	0.23621
2753.99004	0.23316
2752.06147	0.23018
2750.13291	0.22743
2748.20435	0.22475
2746.27578	0.22216
2744.34722	0.21967
2742.41865	0.21718
2740.49009	0.21473
2738.56152	0.21244
2736.63296	0.21022
2734.70439	0.20778
2732.77583	0.20527
2730.84727	0.20301
2728.91870	0.20090
2726.99014	0.19871
2725.06157	0.19649
2723.13301	0.19443
2721.20444	0.19267
2719.27588	0.19098
2717.34731	0.18913
2715.41875	0.18729
2713.49019	0.18560
2711.56162	0.18399
2709.63306	0.18234
2707.70449	0.18081
2705.77593	0.17946
2703.84736	0.17802
2701.91880	0.17632
2699.99023	0.17465
2698.06167	0.17322
2696.13311	0.17197
2694.20454	0.17072
2692.27598	0.16942
2690.34741	0.16811
2688.41885	0.16680
2686.49028	0.16547
2684.56172	0.16422
2682.63315	0.16306
2680.70459	0.16188
2678.77603	0.16070
2676.84746	0.15964
2674.91890	0.15872
2672.99033	0.15786
2671.06177	0.15695
2669.13320	0.15591
2667.20464	0.15491
2665.27607	0.15406
2663.34751	0.15338
2661.41895	0.15276
2659.49038	0.15199
2657.56182	0.15113
2655.63325	0.15031
2653.70469	0.14955
2651.77612	0.14886
2649.84756	0.14818
2647.91899	0.14752
2645.99043	0.14702
2644.06187	0.14663
2642.13330	0.14620
2640.20474	0.14575
2638.27617	0.14532
2636.34761	0.14494
2634.41904	0.14458
2632.49048	0.14418
2630.56191	0.14375
2628.63335	0.14331
2626.70479	0.14283
2624.77622	0.14240
2622.84766	0.14211
2620.91909	0.14195
2618.99053	0.14185
2617.06196	0.14182
2615.13340	0.14174
2613.20483	0.14157
2611.27627	0.14145
2609.34771	0.14139
2607.41914	0.14140
2605.49058	0.14152
2603.56201	0.14163
2601.63345	0.14163
2599.70488	0.14160
2597.77632	0.14164
2595.84775	0.14175
2593.91919	0.14193
2591.99062	0.14214
2590.06206	0.14222
2588.13350	0.14225
2586.20493	0.14238
2584.27637	0.14258
2582.34780	0.14286
2580.41924	0.14319
2578.49067	0.14350
2576.56211	0.14383
2574.63354	0.14425
2572.70498	0.14471
2570.77642	0.14522
2568.84785	0.14569
2566.91929	0.14599
2564.99072	0.14621
2563.06216	0.14659
2561.13359	0.14714
2559.20503	0.14773
2557.27646	0.14820
2555.34790	0.14867
2553.41934	0.14932
2551.49077	0.14998
2549.56221	0.15052
2547.63364	0.15108
2545.70508	0.15162
2543.77651	0.15219
2541.84795	0.15291
2539.91938	0.15363
2537.99082	0.15419
2536.06226	0.15473
2534.13369	0.15537
2532.20513	0.15605
2530.27656	0.15680
2528.34800	0.15771
2526.41943	0.15862
2524.49087	0.15936
2522.56230	0.15993
2520.63374	0.16055
2518.70518	0.16133
2516.77661	0.16206
2514.84805	0.16275
2512.91948	0.16356
2510.99092	0.16441
2509.06235	0.16527
2507.13379	0.16621
2505.20522	0.16718
2503.27666	0.16805
2501.34810	0.16885
2499.41953	0.16961
2497.49097	0.17035
2495.56240	0.17110
2493.63384	0.17197
2491.70527	0.17302
2489.77671	0.17405
2487.84814	0.17485
2485.91958	0.17550
2483.99102	0.17626
2482.06245	0.17730
2480.13389	0.17846
2478.20532	0.17950
2476.27676	0.18034
2474.34819	0.18109
2472.41963	0.18195
2470.49106	0.18294
2468.56250	0.18393
2466.63394	0.18487
2464.70537	0.18586
2462.77681	0.18685
2460.84824	0.18778
2458.91968	0.18870
2456.99111	0.18971
2455.06255	0.19079
2453.13398	0.19176
2451.20542	0.19254
2449.27686	0.19333
2447.34829	0.19426
2445.41973	0.19530
2443.49116	0.19640
2441.56260	0.19743
2439.63403	0.19841
2437.70547	0.19946
2435.77690	0.20046
2433.84834	0.20140
2431.91978	0.20252
2429.99121	0.20375
2428.06265	0.20487
2426.13408	0.20601
2424.20552	0.20728
2422.27695	0.20846
2420.34839	0.20950
2418.41982	0.21059
2416.49126	0.21170
2414.56270	0.21272
2412.63413	0.21374
2410.70557	0.21484
2408.77700	0.21592
2406.84844	0.21701
2404.91987	0.21831
2402.99131	0.21978
2401.06274	0.22117
2399.13418	0.22238
2397.20562	0.22350
2395.27705	0.22461
2393.34849	0.22572
2391.41992	0.22691
2389.49136	0.22823
2387.56279	0.22969
2385.63423	0.23126
2383.70566	0.23302
2381.77710	0.23506
2379.84854	0.23732
2377.91997	0.23956
2375.99141	0.24200
2374.06284	0.24518
2372.13428	0.24868
2370.20571	0.25172
2368.27715	0.25453
2366.34858	0.25788
2364.42002	0.26178
2362.49146	0.26506
2360.56289	0.26681
2358.63433	0.26770
2356.70576	0.26823
2354.77720	0.26852
2352.84863	0.26878
2350.92007	0.26848
2348.99150	0.26800
2347.06294	0.26833
2345.13437	0.27048
2343.20581	0.27425
2341.27725	0.27717
2339.34868	0.27817
2337.42012	0.27911
2335.49155	0.28123
2333.56299	0.28308
2331.63442	0.28388
2329.70586	0.28468
2327.77729	0.28591
2325.84873	0.28734
2323.92017	0.28884
2321.99160	0.29002
2320.06304	0.29069
2318.13447	0.29147
2316.20591	0.29260
2314.27734	0.29377
2312.34878	0.29490
2310.42021	0.29620
2308.49165	0.29748
2306.56309	0.29858
2304.63452	0.29986
2302.70596	0.30142
2300.77739	0.30294
2298.84883	0.30435
2296.92026	0.30595
2294.99170	0.30782
2293.06313	0.30981
2291.13457	0.31154
2289.20601	0.31301
2287.27744	0.31462
2285.34888	0.31645
2283.42031	0.31833
2281.49175	0.32024
2279.56318	0.32228
2277.63462	0.32439
2275.70605	0.32637
2273.77749	0.32824
2271.84893	0.33023
2269.92036	0.33246
2267.99180	0.33481
2266.06323	0.33710
2264.13467	0.33914
2262.20610	0.34097
2260.27754	0.34296
2258.34897	0.34524
2256.42041	0.34748
2254.49185	0.34957
2252.56328	0.35165
2250.63472	0.35384
2248.70615	0.35611
2246.77759	0.35828
2244.84902	0.36026
2242.92046	0.36229
2240.99189	0.36452
2239.06333	0.36684
2237.13477	0.36910
2235.20620	0.37132
2233.27764	0.37359
2231.34907	0.37579
2229.42051	0.37792
2227.49194	0.38018
2225.56338	0.38248
2223.63481	0.38465
2221.70625	0.38680
2219.77769	0.38903
2217.84912	0.39123
2215.92056	0.39336
2213.99199	0.39557
2212.06343	0.39791
2210.13486	0.40017
2208.20630	0.40215
2206.27773	0.40407
2204.34917	0.40622
2202.42061	0.40848
2200.49204	0.41059
2198.56348	0.41254
2196.63491	0.41446
2194.70635	0.41643
2192.77778	0.41845
2190.84922	0.42048
2188.92065	0.42248
2186.99209	0.42437
2185.06353	0.42611
2183.13496	0.42770
2181.20640	0.42933
2179.27783	0.43115
2177.34927	0.43300
2175.42070	0.43456
2173.49214	0.43583
2171.56357	0.43702
2169.63501	0.43835
2167.70645	0.43974
2165.77788	0.44113
2163.84932	0.44248
2161.92075	0.44365
2159.99219	0.44461
2158.06362	0.44549
2156.13506	0.44637
2154.20649	0.44725
2152.27793	0.44812
2150.34937	0.44884
2148.42080	0.44948
2146.49224	0.45014
2144.56367	0.45067
2142.63511	0.45095
2140.70654	0.45111
2138.77798	0.45128
2136.84941	0.45146
2134.92085	0.45169
2132.99229	0.45187
2131.06372	0.45191
2129.13516	0.45181
2127.20659	0.45149
2125.27803	0.45103
2123.34946	0.45051
2121.42090	0.44996
2119.49233	0.44945
2117.56377	0.44893
2115.63521	0.44821
2113.70664	0.44729
2111.77808	0.44638
2109.84951	0.44544
2107.92095	0.44442
2105.99238	0.44336
2104.06382	0.44227
2102.13525	0.44099
2100.20669	0.43952
2098.27812	0.43796
2096.34956	0.43645
2094.42100	0.43505
2092.49243	0.43365
2090.56387	0.43206
2088.63530	0.43027
2086.70674	0.42836
2084.77817	0.42638
2082.84961	0.42441
2080.92104	0.42247
2078.99248	0.42047
2077.06392	0.41833
2075.13535	0.41617
2073.20679	0.41411
2071.27822	0.41202
2069.34966	0.40977
2067.42109	0.40741
2065.49253	0.40506
2063.56396	0.40269
2061.63540	0.40028
2059.70684	0.39779
2057.77827	0.39521
2055.84971	0.39264
2053.92114	0.39016
2051.99258	0.38764
2050.06401	0.38492
2048.13545	0.38215
2046.20688	0.37949
2044.27832	0.37690
2042.34976	0.37428
2040.42119	0.37162
2038.49263	0.36895
2036.56406	0.36622
2034.63550	0.36344
2032.70693	0.36061
2030.77837	0.35786
2028.84980	0.35522
2026.92124	0.35250
2024.99268	0.34963
2023.06411	0.34676
2021.13555	0.34392
2019.20698	0.34109
2017.27842	0.33833
2015.34985	0.33562
2013.42129	0.33290
2011.49272	0.33023
2009.56416	0.32769
2007.63560	0.32509
2005.70703	0.32229
2003.77847	0.31949
2001.84990	0.31679
1999.92134	0.31416
1997.99277	0.31169
1996.06421	0.30935
1994.13564	0.30705
1992.20708	0.30466
1990.27852	0.30207
1988.34995	0.29942
1986.42139	0.29689
1984.49282	0.29447
1982.56426	0.29211
1980.63569	0.28985
1978.70713	0.28764
1976.77856	0.28538
1974.85000	0.28319
1972.92144	0.28111
1970.99287	0.27903
1969.06431	0.27693
1967.13574	0.27484
1965.20718	0.27279
1963.27861	0.27086
1961.35005	0.26889
1959.42148	0.26693
1957.49292	0.26513
1955.56436	0.26341
1953.63579	0.26167
1951.70723	0.25995
1949.77866	0.25832
1947.85010	0.25677
1945.92153	0.25533
1943.99297	0.25395
1942.06440	0.25241
1940.13584	0.25073
1938.20728	0.24920
1936.27871	0.24785
1934.35015	0.24665
1932.42158	0.24554
1930.49302	0.24442
1928.56445	0.24331
1926.63589	0.24222
1924.70732	0.24124
1922.77876	0.24037
1920.85020	0.23948
1918.92163	0.23863
1916.99307	0.23787
1915.06450	0.23705
1913.13594	0.23611
1911.20737	0.23533
1909.27881	0.23469
1907.35024	0.23396
1905.42168	0.23314
1903.49312	0.23250
1901.56455	0.23203
1899.63599	0.23150
1897.70742	0.23100
1895.77886	0.23069
1893.85029	0.23049
1891.92173	0.23026
1889.99316	0.23011
1888.06460	0.22986
1886.13604	0.22946
1884.20747	0.22915
1882.27891	0.22895
1880.35034	0.22880
1878.42178	0.22866
1876.49321	0.22864
1874.56465	0.22868
1872.63608	0.22883
1870.70752	0.22919
1868.77896	0.22986
1866.85039	0.23025
1864.92183	0.23017
1862.99326	0.23014
1861.06470	0.23025
1859.13613	0.23047
1857.20757	0.23075
1855.27900	0.23120
1853.35044	0.23172
1851.42187	0.23226
1849.49331	0.23285
1847.56475	0.23357
1845.63618	0.23443
1843.70762	0.23541
1841.77905	0.23615
1839.85049	0.23659
1837.92192	0.23731
1835.99336	0.23821
1834.06479	0.23916
1832.13623	0.24022
1830.20767	0.24168
1828.27910	0.24317
1826.35054	0.24426
1824.42197	0.24549
1822.49341	0.24675
1820.56484	0.24801
1818.63628	0.24939
1816.70771	0.25097
1814.77915	0.25257
1812.85059	0.25429
1810.92202	0.25634
1808.99346	0.25857
1807.06489	0.26072
1805.13633	0.26261
1803.20776	0.26459
1801.27920	0.26696
1799.35063	0.26985
1797.42207	0.27248
1795.49351	0.27485
1793.56494	0.27756
1791.63638	0.28112
1789.70781	0.28463
1787.77925	0.28733
1785.85068	0.29049
1783.92212	0.29422
1781.99355	0.29817
1780.06499	0.30232
1778.13643	0.30666
1776.20786	0.31071
1774.27930	0.31484
1772.35073	0.32049
1770.42217	0.32695
1768.49360	0.33246
1766.56504	0.33765
1764.63647	0.34292
1762.70791	0.34878
1760.77935	0.35626
1758.85078	0.36324
1756.92222	0.37025
1754.99365	0.37807
1753.06509	0.38520
1751.13652	0.39356
1749.20796	0.40422
1747.27939	0.41490
1745.35083	0.42418
1743.42227	0.43384
1741.49370	0.44447
1739.56514	0.45705
1737.63657	0.46964
1735.70801	0.48044
1733.77944	0.49672
1731.85088	0.51665
1729.92231	0.53239
1727.99375	0.54812
1726.06519	0.56499
1724.13662	0.58323
1722.20806	0.60288
1720.27949	0.62127
1718.35093	0.64283
1716.42236	0.67465
1714.49380	0.70513
1712.56523	0.72983
1710.63667	0.75364
1708.70811	0.77906
1706.77954	0.80786
1704.85098	0.84231
1702.92241	0.87292
1700.99385	0.90287
1699.06528	0.94799
1697.13672	0.99017
1695.20815	1.03351
1693.27959	1.07526
1691.35103	1.10850
1689.42246	1.14650
1687.49390	1.18626
1685.56533	1.22450
1683.63677	1.28420
1681.70820	1.34631
1679.77964	1.38582
1677.85107	1.42333
1675.92251	1.46646
1673.99395	1.52001
1672.06538	1.56759
1670.13682	1.61400
1668.20825	1.67408
1666.27969	1.72224
1664.35112	1.76237
1662.42256	1.81226
1660.49399	1.86875
1658.56543	1.91387
1656.63687	1.95150
1654.70830	1.98697
1652.77974	2.04173
1650.85117	2.09338
1648.92261	2.11414
1646.99404	2.14056
1645.06548	2.16881
1643.13691	2.18806
1641.20835	2.20078
1639.27979	2.21188
1637.35122	2.21833
1635.42266	2.21768
1633.49409	2.21083
1631.56553	2.19946
1629.63696	2.18436
1627.70840	2.15860
1625.77983	2.12981
1623.85127	2.09340
1621.92271	2.04509
1619.99414	2.00108
1618.06558	1.95987
1616.13701	1.90161
1614.20845	1.84019
1612.27988	1.79214
1610.35132	1.74231
1608.42275	1.68897
1606.49419	1.63687
1604.56562	1.58867
1602.63706	1.54198
1600.70850	1.49647
1598.77993	1.45410
1596.85137	1.41380
1594.92280	1.37446
1592.99424	1.33601
1591.06567	1.30029
1589.13711	1.26667
1587.20854	1.23533
1585.27998	1.20617
1583.35142	1.17864
1581.42285	1.15337
1579.49429	1.13179
1577.56572	1.11205
1575.63716	1.08716
1573.70859	1.06496
1571.78003	1.05058
1569.85146	1.03533
1567.92290	1.01823
1565.99434	1.00511
1564.06577	0.99437
1562.13721	0.98557
1560.20864	0.97843
1558.28008	0.96773
1556.35151	0.95923
1554.42295	0.95376
1552.49438	0.94760
1550.56582	0.94094
1548.63726	0.93333
1546.70869	0.92541
1544.78013	0.91679
1542.85156	0.90699
1540.92300	0.89455
1538.99443	0.87562
1537.06587	0.86132
1535.13730	0.85172
1533.20874	0.83952
1531.28018	0.82659
1529.35161	0.81725
1527.42305	0.80834
1525.49448	0.79880
1523.56592	0.79050
1521.63735	0.78262
1519.70879	0.77450
1517.78022	0.76756
1515.85166	0.75991
1513.92310	0.75206
1511.99453	0.74541
1510.06597	0.73967
1508.13740	0.73429
1506.20884	0.72549
1504.28027	0.71729
1502.35171	0.71261
1500.42314	0.70862
1498.49458	0.70448
1496.56602	0.69971
1494.63745	0.69491
1492.70889	0.69118
1490.78032	0.68823
1488.85176	0.68495
1486.92319	0.68128
1484.99463	0.67808
1483.06606	0.67554
1481.13750	0.67329
1479.20894	0.67124
1477.28037	0.66959
1475.35181	0.66833
1473.42324	0.66732
1471.49468	0.66561
1469.56611	0.66342
1467.63755	0.66156
1465.70898	0.65996
1463.78042	0.65833
1461.85186	0.65670
1459.92329	0.65541
1457.99473	0.65419
1456.06616	0.65204
1454.13760	0.64948
1452.20903	0.64726
1450.28047	0.64501
1448.35190	0.64274
1446.42334	0.64047
1444.49478	0.63826
1442.56621	0.63609
1440.63765	0.63380
1438.70908	0.63155
1436.78052	0.62918
1434.85195	0.62672
1432.92339	0.62456
1430.99482	0.62261
1429.06626	0.62082
1427.13770	0.61947
1425.20913	0.61862
1423.28057	0.61792
1421.35200	0.61710
1419.42344	0.61623
1417.49487	0.61501
1415.56631	0.61332
1413.63774	0.61188
1411.70918	0.61093
1409.78062	0.61031
1407.85205	0.60989
1405.92349	0.60973
1403.99492	0.60955
1402.06636	0.60889
1400.13779	0.60772
1398.20923	0.60601
1396.28066	0.60404
1394.35210	0.60194
1392.42354	0.59970
1390.49497	0.59749
1388.56641	0.59529
1386.63784	0.59289
1384.70928	0.59039
1382.78071	0.58806
1380.85215	0.58591
1378.92358	0.58408
1376.99502	0.58268
1375.06646	0.58162
1373.13789	0.58073
1371.20933	0.57996
1369.28076	0.57928
1367.35220	0.57843
1365.42363	0.57727
1363.49507	0.57599
1361.56650	0.57476
1359.63794	0.57348
1357.70937	0.57227
1355.78081	0.57117
1353.85225	0.57012
1351.92368	0.56903
1349.99512	0.56795
1348.06655	0.56695
1346.13799	0.56599
1344.20942	0.56504
1342.28086	0.56414
1340.35229	0.56338
1338.42373	0.56257
1336.49517	0.56163
1334.56660	0.56074
1332.63804	0.56008
1330.70947	0.55964
1328.78091	0.55924
1326.85234	0.55880
1324.92378	0.55840
1322.99521	0.55819
1321.06665	0.55812
1319.13809	0.55792
1317.20952	0.55739
1315.28096	0.55675
1313.35239	0.55610
1311.42383	0.55534
1309.49526	0.55450
1307.56670	0.55361
1305.63813	0.55274
1303.70957	0.55205
1301.78101	0.55150
1299.85244	0.55080
1297.92388	0.54997
1295.99531	0.54920
1294.06675	0.54849
1292.13818	0.54773
1290.20962	0.54699
1288.28105	0.54632
1286.35249	0.54558
1284.42393	0.54467
1282.49536	0.54365
1280.56680	0.54265
1278.63823	0.54170
1276.70967	0.54089
1274.78110	0.54033
1272.85254	0.53988
1270.92397	0.53937
1268.99541	0.53878
1267.06685	0.53823
1265.13828	0.53780
1263.20972	0.53746
1261.28115	0.53697
1259.35259	0.53623
1257.42402	0.53557
1255.49546	0.53511
1253.56689	0.53470
1251.63833	0.53449
1249.70977	0.53451
1247.78120	0.53439
1245.85264	0.53395
1243.92407	0.53338
1241.99551	0.53275
1240.06694	0.53189
1238.13838	0.53083
1236.20981	0.52973
1234.28125	0.52851
1232.35269	0.52726
1230.42412	0.52619
1228.49556	0.52511
1226.56699	0.52381
1224.63843	0.52254
1222.70986	0.52154
1220.78130	0.52069
1218.85273	0.51973
1216.92417	0.51859
1214.99561	0.51749
1213.06704	0.51670
1211.13848	0.51619
1209.20991	0.51582
1207.28135	0.51548
1205.35278	0.51492
1203.42422	0.51416
1201.49565	0.51336
1199.56709	0.51251
1197.63853	0.51171
1195.70996	0.51101
1193.78140	0.51038
1191.85283	0.50974
1189.92427	0.50914
1187.99570	0.50868
1186.06714	0.50845
1184.13857	0.50842
1182.21001	0.50863
1180.28145	0.50902
1178.35288	0.50954
1176.42432	0.51023
1174.49575	0.51111
1172.56719	0.51215
1170.63862	0.51313
1168.71006	0.51382
1166.78149	0.51433
1164.85293	0.51503
1162.92437	0.51588
1160.99580	0.51648
1159.06724	0.51668
1157.13867	0.51652
1155.21011	0.51602
1153.28154	0.51507
1151.35298	0.51350
1149.42441	0.51131
1147.49585	0.50893
1145.56729	0.50650
1143.63872	0.50385
1141.71016	0.50126
1139.78159	0.49910
1137.85303	0.49714
1135.92446	0.49527
1133.99590	0.49386
1132.06733	0.49279
1130.13877	0.49181
1128.21021	0.49108
1126.28164	0.49058
1124.35308	0.49003
1122.42451	0.48943
1120.49595	0.48903
1118.56738	0.48913
1116.63882	0.48970
1114.71025	0.49048
1112.78169	0.49141
1110.85312	0.49229
1108.92456	0.49294
1106.99600	0.49362
1105.06743	0.49462
1103.13887	0.49576
1101.21030	0.49686
1099.28174	0.49817
1097.35317	0.50008
1095.42461	0.50263
1093.49604	0.50613
1091.56748	0.51110
1089.63892	0.51751
1087.71035	0.52492
1085.78179	0.53307
1083.85322	0.54154
1081.92466	0.54944
1079.99609	0.55553
1078.06753	0.55881
1076.13896	0.55891
1074.21040	0.55594
1072.28184	0.55047
1070.35327	0.54363
1068.42471	0.53644
1066.49614	0.52951
1064.56758	0.52333
1062.63901	0.51807
1060.71045	0.51351
1058.78188	0.50940
1056.85332	0.50560
1054.92476	0.50227
1052.99619	0.49948
1051.06763	0.49722
1049.13906	0.49561
1047.21050	0.49474
1045.28193	0.49443
1043.35337	0.49443
1041.42480	0.49457
1039.49624	0.49487
1037.56768	0.49543
1035.63911	0.49602
1033.71055	0.49628
1031.78198	0.49577
1029.85342	0.49426
1027.92485	0.49260
1025.99629	0.49149
1024.06772	0.49065
1022.13916	0.48990
1020.21060	0.48946
1018.28203	0.48928
1016.35347	0.48910
1014.42490	0.48892
1012.49634	0.48885
1010.56777	0.48886
1008.63921	0.48901
1006.71064	0.48943
1004.78208	0.49030
1002.85352	0.49185
1000.92495	0.49430
998.99639	0.49762
997.06782	0.50164
995.13926	0.50601
993.21069	0.51005
991.28213	0.51301
989.35356	0.51464
987.42500	0.51530
985.49644	0.51556
983.56787	0.51585
981.63931	0.51619
979.71074	0.51677
977.78218	0.51814
975.85361	0.52040
973.92505	0.52322
971.99648	0.52635
970.06792	0.52956
968.13936	0.53297
966.21079	0.53704
964.28223	0.54173
962.35366	0.54664
960.42510	0.55173
958.49653	0.55699
956.56797	0.56232
954.63940	0.56791
952.71084	0.57399
950.78228	0.58054
948.85371	0.58741
946.92515	0.59425
944.99658	0.60050
943.06802	0.60620
941.13945	0.61193
939.21089	0.61762
937.28232	0.62308
935.35376	0.62904
933.42520	0.63559
931.49663	0.64166
929.56807	0.64719
927.63950	0.65311
925.71094	0.65952
923.78237	0.66548
921.85381	0.67118
919.92524	0.67807
917.99668	0.68564
916.06812	0.69263
914.13955	0.69979
912.21099	0.70715
910.28242	0.71401
908.35386	0.72179
906.42529	0.73164
904.49673	0.74195
902.56816	0.75123
900.63960	0.76039
898.71104	0.76983
896.78247	0.77885
894.85391	0.78773
892.92534	0.79693
890.99678	0.80677
889.06821	0.81741
887.13965	0.82875
885.21108	0.84052
883.28252	0.85294
881.35396	0.86625
879.42539	0.87883
877.49683	0.88955
875.56826	0.89975
873.63970	0.91087
871.71113	0.92317
869.78257	0.93535
867.85400	0.94642
865.92544	0.95796
863.99687	0.97056
862.06831	0.98326
860.13975	0.99509
858.21118	1.00574
856.28262	1.01658
854.35405	1.02805
852.42549	1.03993
850.49692	1.05243
848.56836	1.06400
846.63979	1.07311
844.71123	1.08115
842.78267	1.09095
840.85410	1.10378
838.92554	1.11769
836.99697	1.13263
835.06841	1.14984
833.13984	1.16515
831.21128	1.17414
829.28271	1.17656
827.35415	1.17784
825.42559	1.18605
823.49702	1.20252
821.56846	1.22402
819.63989	1.23889
817.71133	1.23825
815.78276	1.24088
813.85420	1.25817
811.92563	1.27989
809.99707	1.30373
808.06851	1.32352
806.13994	1.32846
804.21138	1.32609
802.28281	1.33261
800.35425	1.34986
798.42568	1.36905
796.49712	1.38880
794.56855	1.38863
792.63999	1.36704
790.71143	1.37968
788.78286	1.44636
786.85430	1.50212
784.92573	1.53724
782.99717	1.54355
781.06860	1.48645
779.14004	1.41568
777.21147	1.35164
775.28291	1.29520
773.35435	1.25810
771.42578	1.21245
769.49722	1.17986
767.56865	1.21668
765.64009	1.25690
763.71152	1.15883
761.78296	1.04721
759.85439	1.01027
757.92583	1.00629
755.99727	0.99103
754.06870	0.97691
752.14014	0.98689
750.21157	0.95974
748.28301	0.87639
746.35444	0.85142
744.42588	0.90651
742.49731	0.87879
740.56875	0.72599
738.64019	0.61905
736.71162	0.55301
734.78306	0.46632
732.85449	0.35891
730.92593	0.22013
728.99736	0.05789
727.06880	-0.06145
725.14023	-0.13230
723.21167	-0.23416
721.28311	-0.43291
719.35454	-0.49047
717.42598	-0.32231
715.49741	-0.07272
713.56885	0.14910
711.64028	0.32551
709.71172	0.46669
707.78315	0.45063
705.85459	0.33479
703.92603	0.30632
701.99746	0.32174
700.06890	0.30475
698.14033	0.27460
696.21177	0.25983
694.28320	0.29935
692.35464	0.36361
690.42607	0.33009
688.49751	0.26769
686.56895	0.26272
684.64038	0.27492
682.71182	0.28125
680.78325	0.30441
678.85469	0.27179
676.92612	0.21412
674.99756	0.23760
673.06899	0.28458
671.14043	0.27989
669.21187	0.25045
667.28330	0.20378
665.35474	0.14924
663.42617	0.16486
661.49761	0.23668
659.56904	0.25325
657.64048	0.23649
655.71191	0.27774
653.78335	0.33049
651.85479	0.32686
649.92622	0.32440
647.99766	0.30928
646.06909	0.27178
644.14053	0.24772
642.21196	0.21764
640.28340	0.17569
638.35483	0.17637
636.42627	0.22511
634.49771	0.23359
632.56914	0.19981
630.64058	0.22449
628.71201	0.30117
626.78345	0.31337
624.85488	0.27846
622.92632	0.32507
620.99775	0.38453
619.06919	0.31153
617.14062	0.25273
615.21206	0.24995
613.28350	0.23298
611.35493	0.21635
609.42637	0.23979
607.49780	0.30853
605.56924	0.33480
603.64067	0.26553
601.71211	0.20704
599.78354	0.20603
597.85498	0.23763
595.92642	0.26818
593.99785	0.25082
592.06929	0.20420
590.14072	0.19878
588.21216	0.27233
586.28359	0.39689
584.35503	0.35837
582.42646	0.22681
580.49790	0.20881
578.56934	0.25910
576.64077	0.24611
574.71221	0.19701
572.78364	0.18609
570.85508	0.21720
568.92651	0.30295
566.99795	0.40981
565.06938	0.40723
563.14082	0.30814
561.21226	0.23607
559.28369	0.21820
557.35513	0.26379
555.42656	0.38771
553.49800	0.43634
551.56943	0.31758
549.64087	0.23654
547.71230	0.20546
545.78374	0.19474
543.85518	0.19023
541.92661	0.19172
539.99805	0.19484
538.06948	0.17857
536.14092	0.15488
534.21235	0.15191
532.28379	0.15913
530.35522	0.17516
528.42666	0.18399
526.49810	0.14901
524.56953	0.12176
522.64097	0.14669
520.71240	0.17269
518.78384	0.17381
516.85527	0.17441
514.92671	0.19500
512.99814	0.22850
511.06958	0.24561
509.14102	0.25767
507.21245	0.26676
505.28389	0.24438
503.35532	0.22036
501.42676	0.20880
499.49819	0.18918
