3997.91411	0.06583
3995.98555	0.06686
3994.05698	0.06808
3992.12842	0.06865
3990.19985	0.06832
3988.27129	0.06777
3986.34272	0.06782
3984.41416	0.06838
3982.48560	0.06902
3980.55703	0.06945
3978.62847	0.06918
3976.69990	0.06855
3974.77134	0.06845
3972.84277	0.06901
3970.91421	0.06980
3968.98564	0.07041
3967.05708	0.07042
3965.12852	0.06986
3963.19995	0.06939
3961.27139	0.06952
3959.34282	0.07006
3957.41426	0.07060
3955.48569	0.07099
3953.55713	0.07105
3951.62856	0.07073
3949.70000	0.07035
3947.77144	0.07032
3945.84287	0.07057
3943.91431	0.07050
3941.98574	0.07001
3940.05718	0.06963
3938.12861	0.06968
3936.20005	0.06981
3934.27148	0.06967
3932.34292	0.06943
3930.41436	0.06929
3928.48579	0.06925
3926.55723	0.06922
3924.62866	0.06918
3922.70010	0.06939
3920.77153	0.06980
3918.84297	0.07023
3916.91440	0.07050
3914.98584	0.07030
3913.05728	0.06997
3911.12871	0.06980
3909.20015	0.06944
3907.27158	0.06903
3905.34302	0.06875
3903.41445	0.06835
3901.48589	0.06813
3899.55732	0.06853
3897.62876	0.06910
3895.70020	0.06951
3893.77163	0.06961
3891.84307	0.06935
3889.91450	0.06890
3887.98594	0.06839
3886.05737	0.06848
3884.12881	0.06944
3882.20024	0.06994
3880.27168	0.06965
3878.34312	0.06970
3876.41455	0.07014
3874.48599	0.07048
3872.55742	0.07071
3870.62886	0.07082
3868.70029	0.07061
3866.77173	0.07011
3864.84316	0.07038
3862.91460	0.07160
3860.98604	0.07259
3859.05747	0.07302
3857.12891	0.07305
3855.20034	0.07258
3853.27178	0.07214
3851.34321	0.07304
3849.41465	0.07416
3847.48608	0.07461
3845.55752	0.07495
3843.62896	0.07563
3841.70039	0.07650
3839.77183	0.07696
3837.84326	0.07733
3835.91470	0.07793
3833.98613	0.07845
3832.05757	0.07923
3830.12900	0.08048
3828.20044	0.08144
3826.27187	0.08183
3824.34331	0.08184
3822.41475	0.08174
3820.48618	0.08277
3818.55762	0.08469
3816.62905	0.08554
3814.70049	0.08614
3812.77192	0.08722
3810.84336	0.08827
3808.91479	0.08900
3806.98623	0.08951
3805.05767	0.09036
3803.12910	0.09129
3801.20054	0.09216
3799.27197	0.09388
3797.34341	0.09610
3795.41484	0.09815
3793.48628	0.09951
3791.55771	0.10033
3789.62915	0.10117
3787.70059	0.10219
3785.77202	0.10369
3783.84346	0.10539
3781.91489	0.10654
3779.98633	0.10768
3778.05776	0.10965
3776.12920	0.11168
3774.20063	0.11324
3772.27207	0.11450
3770.34351	0.11573
3768.41494	0.11769
3766.48638	0.12022
3764.55781	0.12247
3762.62925	0.12401
3760.70068	0.12507
3758.77212	0.12676
3756.84355	0.12966
3754.91499	0.13250
3752.98643	0.13455
3751.05786	0.13713
3749.12930	0.14109
3747.20073	0.14369
3745.27217	0.14507
3743.34360	0.14802
3741.41504	0.15198
3739.48647	0.15500
3737.55791	0.15770
3735.62935	0.16121
3733.70078	0.16667
3731.77222	0.17262
3729.84365	0.17713
3727.91509	0.18068
3725.98652	0.18501
3724.05796	0.19123
3722.12939	0.19867
3720.20083	0.20639
3718.27227	0.21429
3716.34370	0.22232
3714.41514	0.22987
3712.48657	0.23801
3710.55801	0.24960
3708.62944	0.26359
3706.70088	0.27591
3704.77231	0.28717
3702.84375	0.30007
3700.91519	0.31706
3698.98662	0.33586
3697.05806	0.35364
3695.12949	0.37180
3693.20093	0.39026
3691.27236	0.41016
3689.34380	0.43696
3687.41523	0.47201
3685.48667	0.50397
3683.55811	0.53124
3681.62954	0.55928
3679.70098	0.58951
3677.77241	0.62087
3675.84385	0.65878
3673.91528	0.71116
3671.98672	0.75426
3670.05815	0.79186
3668.12959	0.84448
3666.20103	0.89413
3664.27246	0.93568
3662.34390	0.97944
3660.41533	1.02616
3658.48677	1.07169
3656.55820	1.11957
3654.62964	1.17333
3652.70107	1.21881
3650.77251	1.25729
3648.84395	1.31035
3646.91538	1.37857
3644.98682	1.43015
3643.05825	1.46946
3641.12969	1.50904
3639.20112	1.55216
3637.27256	1.59569
3635.34399	1.63835
3633.41543	1.68074
3631.48687	1.71950
3629.55830	1.75746
3627.62974	1.80869
3625.70117	1.86047
3623.77261	1.89672
3621.84404	1.92985
3619.91548	1.96654
3617.98691	2.01101
3616.05835	2.05501
3614.12979	2.09269
3612.20122	2.13187
3610.27266	2.17034
3608.34409	2.20917
3606.41553	2.25173
3604.48696	2.29182
3602.55840	2.32729
3600.62983	2.36485
3598.70127	2.40524
3596.77271	2.44430
3594.84414	2.48372
3592.91558	2.52508
3590.98701	2.56544
3589.05845	2.60434
3587.12988	2.64937
3585.20132	2.69511
3583.27275	2.73228
3581.34419	2.76958
3579.41562	2.81264
3577.48706	2.85773
3575.55850	2.90045
3573.62993	2.94217
3571.70137	2.98296
3569.77280	3.02187
3567.84424	3.06257
3565.91567	3.11416
3563.98711	3.16732
3562.05854	3.21155
3560.12998	3.25457
3558.20142	3.29917
3556.27285	3.34354
3554.34429	3.38629
3552.41572	3.43033
3550.48716	3.47673
3548.55859	3.52292
3546.63003	3.56896
3544.70146	3.61689
3542.77290	3.66332
3540.84434	3.70820
3538.91577	3.75467
3536.98721	3.80027
3535.05864	3.84756
3533.13008	3.89813
3531.20151	3.94853
3529.27295	3.99712
3527.34438	4.04650
3525.41582	4.09857
3523.48726	4.14976
3521.55869	4.19534
3519.63013	4.23694
3517.70156	4.28246
3515.77300	4.33188
3513.84443	4.38003
3511.91587	4.42436
3509.98730	4.46936
3508.05874	4.52137
3506.13018	4.57272
3504.20161	4.61514
3502.27305	4.65956
3500.34448	4.71559
3498.41592	4.77178
3496.48735	4.81868
3494.55879	4.86180
3492.63022	4.90976
3490.70166	4.95982
3488.77310	5.00793
3486.84453	5.05614
3484.91597	5.10283
3482.98740	5.14799
3481.05884	5.19490
3479.13027	5.24648
3477.20171	5.30469
3475.27314	5.36303
3473.34458	5.41587
3471.41602	5.46310
3469.48745	5.50252
3467.55889	5.53973
3465.63032	5.58752
3463.70176	5.65012
3461.77319	5.71770
3459.84463	5.77581
3457.91606	5.82105
3455.98750	5.86745
3454.05894	5.91850
3452.13037	5.97154
3450.20181	6.02561
3448.27324	6.07084
3446.34468	6.11483
3444.41611	6.16002
3442.48755	6.20221
3440.55898	6.25241
3438.63042	6.30496
3436.70186	6.33701
3434.77329	6.37092
3432.84473	6.44132
3430.91616	6.52443
3428.98760	6.59207
3427.05903	6.64287
3425.13047	6.69170
3423.20190	6.74109
3421.27334	6.79093
3419.34478	6.84518
3417.41621	6.89470
3415.48765	6.93309
3413.55908	6.95376
3411.63052	6.97284
3409.70195	7.01953
3407.77339	7.10581
3405.84482	7.19874
3403.91626	7.26334
3401.98770	7.30611
3400.05913	7.35757
3398.13057	7.41527
3396.20200	7.44194
3394.27344	7.45222
3392.34487	7.46780
3390.41631	7.48278
3388.48774	7.49528
3386.55918	7.53066
3384.63062	7.57894
3382.70205	7.61946
3380.77349	7.66578
3378.84492	7.71971
3376.91636	7.75082
3374.98779	7.76232
3373.05923	7.80988
3371.13066	7.86454
3369.20210	7.91489
3367.27354	7.94568
3365.34497	7.94437
3363.41641	7.95107
3361.48784	7.96311
3359.55928	7.97545
3357.63071	7.95648
3355.70215	7.96445
3353.77358	8.04918
3351.84502	8.11418
3349.91646	8.08125
3347.98789	8.06632
3346.05933	8.14441
3344.13076	8.19254
3342.20220	8.14256
3340.27363	8.06496
3338.34507	8.05851
3336.41650	8.11021
3334.48794	8.11901
3332.55937	8.06117
3330.63081	8.04909
3328.70225	8.13755
3326.77368	8.23046
3324.84512	8.27098
3322.91655	8.23049
3320.98799	8.14041
3319.05942	8.10717
3317.13086	8.10020
3315.20229	8.05123
3313.27373	8.07508
3311.34517	8.22893
3309.41660	8.34435
3307.48804	8.30937
3305.55947	8.21871
3303.63091	8.14949
3301.70234	8.12482
3299.77378	8.16218
3297.84521	8.20742
3295.91665	8.23921
3293.98809	8.35031
3292.05952	8.50268
3290.13096	8.45651
3288.20239	8.32452
3286.27383	8.34027
3284.34526	8.41192
3282.41670	8.44977
3280.48813	8.39180
3278.55957	8.22741
3276.63101	8.13836
3274.70244	8.21714
3272.77388	8.33505
3270.84531	8.32011
3268.91675	8.25077
3266.98818	8.22257
3265.05962	8.15857
3263.13105	8.09653
3261.20249	8.15977
3259.27393	8.23704
3257.34536	8.19025
3255.41680	8.13540
3253.48823	8.14463
3251.55967	8.13074
3249.63110	8.07770
3247.70254	8.07748
3245.77397	8.14799
3243.84541	8.22150
3241.91685	8.27765
3239.98828	8.36473
3238.05972	8.44025
3236.13115	8.43972
3234.20259	8.34598
3232.27402	8.21737
3230.34546	8.16828
3228.41689	8.20280
3226.48833	8.26967
3224.55977	8.31516
3222.63120	8.27909
3220.70264	8.19060
3218.77407	8.12031
3216.84551	8.04043
3214.91694	7.96330
3212.98838	7.96993
3211.05981	8.02834
3209.13125	8.01242
3207.20269	7.89300
3205.27412	7.78959
3203.34556	7.73623
3201.41699	7.71235
3199.48843	7.75723
3197.55986	7.82488
3195.63130	7.80237
3193.70273	7.70762
3191.77417	7.64510
3189.84561	7.64903
3187.91704	7.66086
3185.98848	7.61285
3184.05991	7.51726
3182.13135	7.47029
3180.20278	7.49549
3178.27422	7.47834
3176.34565	7.38296
3174.41709	7.28456
3172.48853	7.21433
3170.55996	7.15333
3168.63140	7.06486
3166.70283	6.96873
3164.77427	6.90946
3162.84570	6.86537
3160.91714	6.80098
3158.98857	6.74215
3157.06001	6.70666
3155.13145	6.65585
3153.20288	6.56719
3151.27432	6.46598
3149.34575	6.38255
3147.41719	6.32749
3145.48862	6.28084
3143.56006	6.21209
3141.63149	6.13035
3139.70293	6.06389
3137.77437	6.00160
3135.84580	5.92495
3133.91724	5.84796
3131.98867	5.77596
3130.06011	5.70370
3128.13154	5.63283
3126.20298	5.56074
3124.27441	5.48785
3122.34585	5.41826
3120.41729	5.34688
3118.48872	5.26206
3116.56016	5.17400
3114.63159	5.10147
3112.70303	5.03972
3110.77446	4.97484
3108.84590	4.90318
3106.91733	4.82993
3104.98877	4.75901
3103.06021	4.68903
3101.13164	4.61799
3099.20308	4.54927
3097.27451	4.48468
3095.34595	4.42151
3093.41738	4.35690
3091.48882	4.28709
3089.56025	4.21337
3087.63169	4.14267
3085.70312	4.07886
3083.77456	4.01796
3081.84600	3.95522
3079.91743	3.89187
3077.98887	3.83009
3076.06030	3.76892
3074.13174	3.70887
3072.20317	3.65127
3070.27461	3.59302
3068.34604	3.53274
3066.41748	3.47276
3064.48892	3.41360
3062.56035	3.35593
3060.63179	3.30039
3058.70322	3.24486
3056.77466	3.18989
3054.84609	3.13731
3052.91753	3.08420
3050.98896	3.03076
3049.06040	2.97977
3047.13184	2.92923
3045.20327	2.87761
3043.27471	2.82722
3041.34614	2.77913
3039.41758	2.73158
3037.48901	2.68351
3035.56045	2.63587
3033.63188	2.58925
3031.70332	2.54277
3029.77476	2.49684
3027.84619	2.45292
3025.91763	2.40998
3023.98906	2.36772
3022.06050	2.32672
3020.13193	2.28548
3018.20337	2.24406
3016.27480	2.20427
3014.34624	2.16589
3012.41768	2.12747
3010.48911	2.08880
3008.56055	2.05079
3006.63198	2.01381
3004.70342	1.97730
3002.77485	1.94124
3000.84629	1.90623
2998.91772	1.87181
2996.98916	1.83739
2995.06060	1.80364
2993.13203	1.77095
2991.20347	1.73870
2989.27490	1.70686
2987.34634	1.67584
2985.41777	1.64518
2983.48921	1.61445
2981.56064	1.58447
2979.63208	1.55550
2977.70352	1.52677
2975.77495	1.49848
2973.84639	1.47081
2971.91782	1.44315
2969.98926	1.41572
2968.06069	1.38911
2966.13213	1.36356
2964.20356	1.33852
2962.27500	1.31309
2960.34644	1.28790
2958.41787	1.26415
2956.48931	1.24141
2954.56074	1.21883
2952.63218	1.19633
2950.70361	1.17429
2948.77505	1.15278
2946.84648	1.13150
2944.91792	1.11043
2942.98936	1.08956
2941.06079	1.06908
2939.13223	1.04931
2937.20366	1.03026
2935.27510	1.01200
2933.34653	0.99430
2931.41797	0.97625
2929.48940	0.95747
2927.56084	0.93887
2925.63228	0.92124
2923.70371	0.90451
2921.77515	0.88841
2919.84658	0.87285
2917.91802	0.85733
2915.98945	0.84129
2914.06089	0.82558
2912.13232	0.81091
2910.20376	0.79685
2908.27520	0.78292
2906.34663	0.76907
2904.41807	0.75541
2902.48950	0.74216
2900.56094	0.72930
2898.63237	0.71652
2896.70381	0.70383
2894.77524	0.69162
2892.84668	0.68001
2890.91812	0.66851
2888.98955	0.65664
2887.06099	0.64473
2885.13242	0.63342
2883.20386	0.62286
2881.27529	0.61254
2879.34673	0.60204
2877.41816	0.59163
2875.48960	0.58151
2873.56104	0.57134
2871.63247	0.56113
2869.70391	0.55109
2867.77534	0.54128
2865.84678	0.53189
2863.91821	0.52287
2861.98965	0.51399
2860.06108	0.50532
2858.13252	0.49667
2856.20396	0.48786
2854.27539	0.47933
2852.34683	0.47125
2850.41826	0.46350
2848.48970	0.45608
2846.56113	0.44898
2844.63257	0.44207
2842.70400	0.43513
2840.77544	0.42831
2838.84687	0.42205
2836.91831	0.41621
2834.98975	0.41023
2833.06118	0.40398
2831.13262	0.39783
2829.20405	0.39197
2827.27549	0.38637
2825.34692	0.38093
2823.41836	0.37534
2821.48979	0.36956
2819.56123	0.36392
2817.63267	0.35848
2815.70410	0.35314
2813.77554	0.34781
2811.84697	0.34247
2809.91841	0.33725
2807.98984	0.33209
2806.06128	0.32684
2804.13271	0.32185
2802.20415	0.31739
2800.27559	0.31310
2798.34702	0.30876
2796.41846	0.30446
2794.48989	0.30023
2792.56133	0.29604
2790.63276	0.29189
2788.70420	0.28767
2786.77563	0.28351
2784.84707	0.27969
2782.91851	0.27617
2780.98994	0.27251
2779.06138	0.26864
2777.13281	0.26500
2775.20425	0.26160
2773.27568	0.25813
2771.34712	0.25464
2769.41855	0.25128
2767.48999	0.24802
2765.56143	0.24483
2763.63286	0.24175
2761.70430	0.23875
2759.77573	0.23581
2757.84717	0.23289
2755.91860	0.23004
2753.99004	0.22726
2752.06147	0.22453
2750.13291	0.22196
2748.20435	0.21956
2746.27578	0.21703
2744.34722	0.21420
2742.41865	0.21131
2740.49009	0.20878
2738.56152	0.20677
2736.63296	0.20488
2734.70439	0.20285
2732.77583	0.20080
2730.84727	0.19878
2728.91870	0.19683
2726.99014	0.19486
2725.06157	0.19269
2723.13301	0.19051
2721.20444	0.18875
2719.27588	0.18730
2717.34731	0.18574
2715.41875	0.18396
2713.49019	0.18207
2711.56162	0.18029
2709.63306	0.17870
2707.70449	0.17714
2705.77593	0.17560
2703.84736	0.17412
2701.91880	0.17271
2699.99023	0.17138
2698.06167	0.17014
2696.13311	0.16881
2694.20454	0.16741
2692.27598	0.16604
2690.34741	0.16464
2688.41885	0.16322
2686.49028	0.16189
2684.56172	0.16081
2682.63315	0.15989
2680.70459	0.15882
2678.77603	0.15762
2676.84746	0.15654
2674.91890	0.15556
2672.99033	0.15472
2671.06177	0.15396
2669.13320	0.15304
2667.20464	0.15204
2665.27607	0.15120
2663.34751	0.15040
2661.41895	0.14957
2659.49038	0.14888
2657.56182	0.14832
2655.63325	0.14777
2653.70469	0.14716
2651.77612	0.14649
2649.84756	0.14596
2647.91899	0.14553
2645.99043	0.14495
2644.06187	0.14432
2642.13330	0.14381
2640.20474	0.14341
2638.27617	0.14298
2636.34761	0.14245
2634.41904	0.14199
2632.49048	0.14174
2630.56191	0.14159
2628.63335	0.14139
2626.70479	0.14106
2624.77622	0.14073
2622.84766	0.14061
2620.91909	0.14063
2618.99053	0.14058
2617.06196	0.14051
2615.13340	0.14054
2613.20483	0.14049
2611.27627	0.14018
2609.34771	0.13991
2607.41914	0.13985
2605.49058	0.13989
2603.56201	0.13998
2601.63345	0.14017
2599.70488	0.14038
2597.77632	0.14050
2595.84775	0.14051
2593.91919	0.14053
2591.99062	0.14071
2590.06206	0.14106
2588.13350	0.14135
2586.20493	0.14153
2584.27637	0.14196
2582.34780	0.14255
2580.41924	0.14286
2578.49067	0.14297
2576.56211	0.14325
2574.63354	0.14370
2572.70498	0.14415
2570.77642	0.14451
2568.84785	0.14487
2566.91929	0.14541
2564.99072	0.14601
2563.06216	0.14661
2561.13359	0.14717
2559.20503	0.14759
2557.27646	0.14805
2555.34790	0.14864
2553.41934	0.14913
2551.49077	0.14961
2549.56221	0.15037
2547.63364	0.15126
2545.70508	0.15199
2543.77651	0.15253
2541.84795	0.15302
2539.91938	0.15366
2537.99082	0.15446
2536.06226	0.15523
2534.13369	0.15586
2532.20513	0.15644
2530.27656	0.15714
2528.34800	0.15803
2526.41943	0.15896
2524.49087	0.15971
2522.56230	0.16030
2520.63374	0.16107
2518.70518	0.16204
2516.77661	0.16291
2514.84805	0.16371
2512.91948	0.16463
2510.99092	0.16563
2509.06235	0.16652
2507.13379	0.16733
2505.20522	0.16810
2503.27666	0.16884
2501.34810	0.16970
2499.41953	0.17068
2497.49097	0.17158
2495.56240	0.17251
2493.63384	0.17351
2491.70527	0.17433
2489.77671	0.17500
2487.84814	0.17584
2485.91958	0.17685
2483.99102	0.17786
2482.06245	0.17880
2480.13389	0.17970
2478.20532	0.18065
2476.27676	0.18164
2474.34819	0.18262
2472.41963	0.18364
2470.49106	0.18463
2468.56250	0.18553
2466.63394	0.18649
2464.70537	0.18756
2462.77681	0.18858
2460.84824	0.18954
2458.91968	0.19051
2456.99111	0.19157
2455.06255	0.19273
2453.13398	0.19382
2451.20542	0.19477
2449.27686	0.19572
2447.34829	0.19675
2445.41973	0.19780
2443.49116	0.19885
2441.56260	0.19985
2439.63403	0.20087
2437.70547	0.20200
2435.77690	0.20313
2433.84834	0.20416
2431.91978	0.20523
2429.99121	0.20638
2428.06265	0.20743
2426.13408	0.20841
2424.20552	0.20945
2422.27695	0.21059
2420.34839	0.21177
2418.41982	0.21299
2416.49126	0.21419
2414.56270	0.21531
2412.63413	0.21642
2410.70557	0.21755
2408.77700	0.21877
2406.84844	0.21998
2404.91987	0.22115
2402.99131	0.22237
2401.06274	0.22368
2399.13418	0.22493
2397.20562	0.22612
2395.27705	0.22741
2393.34849	0.22871
2391.41992	0.22985
2389.49136	0.23096
2387.56279	0.23208
2385.63423	0.23304
2383.70566	0.23374
2381.77710	0.23405
2379.84854	0.23391
2377.91997	0.23354
2375.99141	0.23310
2374.06284	0.23270
2372.13428	0.23221
2370.20571	0.23139
2368.27715	0.23009
2366.34858	0.22843
2364.42002	0.22730
2362.49146	0.22645
2360.56289	0.22514
2358.63433	0.22603
2356.70576	0.23123
2354.77720	0.23689
2352.84863	0.24125
2350.92007	0.24597
2348.99150	0.24957
2347.06294	0.25057
2345.13437	0.24935
2343.20581	0.24812
2341.27725	0.24965
2339.34868	0.25311
2337.42012	0.25581
2335.49155	0.25730
2333.56299	0.25868
2331.63442	0.26025
2329.70586	0.26260
2327.77729	0.26599
2325.84873	0.26883
2323.92017	0.27074
2321.99160	0.27276
2320.06304	0.27557
2318.13447	0.27890
2316.20591	0.28194
2314.27734	0.28446
2312.34878	0.28657
2310.42021	0.28862
2308.49165	0.29106
2306.56309	0.29378
2304.63452	0.29629
2302.70596	0.29846
2300.77739	0.30062
2298.84883	0.30299
2296.92026	0.30535
2294.99170	0.30751
2293.06313	0.30957
2291.13457	0.31179
2289.20601	0.31419
2287.27744	0.31658
2285.34888	0.31887
2283.42031	0.32099
2281.49175	0.32289
2279.56318	0.32478
2277.63462	0.32671
2275.70605	0.32858
2273.77749	0.33047
2271.84893	0.33251
2269.92036	0.33465
2267.99180	0.33689
2266.06323	0.33926
2264.13467	0.34156
2262.20610	0.34362
2260.27754	0.34563
2258.34897	0.34791
2256.42041	0.35028
2254.49185	0.35252
2252.56328	0.35478
2250.63472	0.35709
2248.70615	0.35928
2246.77759	0.36132
2244.84902	0.36338
2242.92046	0.36558
2240.99189	0.36790
2239.06333	0.37025
2237.13477	0.37251
2235.20620	0.37473
2233.27764	0.37703
2231.34907	0.37942
2229.42051	0.38178
2227.49194	0.38396
2225.56338	0.38599
2223.63481	0.38809
2221.70625	0.39035
2219.77769	0.39264
2217.84912	0.39494
2215.92056	0.39725
2213.99199	0.39956
2212.06343	0.40172
2210.13486	0.40376
2208.20630	0.40581
2206.27773	0.40793
2204.34917	0.41006
2202.42061	0.41205
2200.49204	0.41393
2198.56348	0.41592
2196.63491	0.41799
2194.70635	0.42004
2192.77778	0.42206
2190.84922	0.42403
2188.92065	0.42584
2186.99209	0.42754
2185.06353	0.42933
2183.13496	0.43120
2181.20640	0.43288
2179.27783	0.43439
2177.34927	0.43604
2175.42070	0.43780
2173.49214	0.43939
2171.56357	0.44073
2169.63501	0.44199
2167.70645	0.44329
2165.77788	0.44456
2163.84932	0.44580
2161.92075	0.44701
2159.99219	0.44820
2158.06362	0.44928
2156.13506	0.45016
2154.20649	0.45092
2152.27793	0.45169
2150.34937	0.45243
2148.42080	0.45315
2146.49224	0.45387
2144.56367	0.45452
2142.63511	0.45497
2140.70654	0.45522
2138.77798	0.45530
2136.84941	0.45535
2134.92085	0.45553
2132.99229	0.45576
2131.06372	0.45581
2129.13516	0.45560
2127.20659	0.45525
2125.27803	0.45491
2123.34946	0.45444
2121.42090	0.45388
2119.49233	0.45336
2117.56377	0.45284
2115.63521	0.45215
2113.70664	0.45136
2111.77808	0.45047
2109.84951	0.44937
2107.92095	0.44820
2105.99238	0.44708
2104.06382	0.44592
2102.13525	0.44458
2100.20669	0.44313
2098.27812	0.44168
2096.34956	0.44026
2094.42100	0.43876
2092.49243	0.43714
2090.56387	0.43547
2088.63530	0.43377
2086.70674	0.43200
2084.77817	0.43003
2082.84961	0.42807
2080.92104	0.42619
2078.99248	0.42416
2077.06392	0.42194
2075.13535	0.41979
2073.20679	0.41767
2071.27822	0.41545
2069.34966	0.41322
2067.42109	0.41105
2065.49253	0.40879
2063.56396	0.40640
2061.63540	0.40400
2059.70684	0.40155
2057.77827	0.39900
2055.84971	0.39640
2053.92114	0.39376
2051.99258	0.39118
2050.06401	0.38858
2048.13545	0.38596
2046.20688	0.38337
2044.27832	0.38081
2042.34976	0.37813
2040.42119	0.37524
2038.49263	0.37239
2036.56406	0.36970
2034.63550	0.36696
2032.70693	0.36417
2030.77837	0.36141
2028.84980	0.35866
2026.92124	0.35595
2024.99268	0.35324
2023.06411	0.35044
2021.13555	0.34756
2019.20698	0.34471
2017.27842	0.34197
2015.34985	0.33925
2013.42129	0.33648
2011.49272	0.33368
2009.56416	0.33099
2007.63560	0.32834
2005.70703	0.32572
2003.77847	0.32310
2001.84990	0.32043
1999.92134	0.31772
1997.99277	0.31504
1996.06421	0.31249
1994.13564	0.31004
1992.20708	0.30757
1990.27852	0.30501
1988.34995	0.30244
1986.42139	0.29995
1984.49282	0.29760
1982.56426	0.29532
1980.63569	0.29300
1978.70713	0.29069
1976.77856	0.28842
1974.85000	0.28616
1972.92144	0.28390
1970.99287	0.28171
1969.06431	0.27961
1967.13574	0.27752
1965.20718	0.27551
1963.27861	0.27366
1961.35005	0.27182
1959.42148	0.26984
1957.49292	0.26788
1955.56436	0.26611
1953.63579	0.26451
1951.70723	0.26288
1949.77866	0.26123
1947.85010	0.25961
1945.92153	0.25803
1943.99297	0.25647
1942.06440	0.25500
1940.13584	0.25369
1938.20728	0.25237
1936.27871	0.25100
1934.35015	0.24975
1932.42158	0.24864
1930.49302	0.24748
1928.56445	0.24625
1926.63589	0.24508
1924.70732	0.24397
1922.77876	0.24297
1920.85020	0.24212
1918.92163	0.24125
1916.99307	0.24030
1915.06450	0.23940
1913.13594	0.23856
1911.20737	0.23787
1909.27881	0.23725
1907.35024	0.23653
1905.42168	0.23578
1903.49312	0.23520
1901.56455	0.23468
1899.63599	0.23413
1897.70742	0.23366
1895.77886	0.23327
1893.85029	0.23295
1891.92173	0.23261
1889.99316	0.23237
1888.06460	0.23224
1886.13604	0.23205
1884.20747	0.23180
1882.27891	0.23166
1880.35034	0.23160
1878.42178	0.23149
1876.49321	0.23139
1874.56465	0.23141
1872.63608	0.23157
1870.70752	0.23168
1868.77896	0.23186
1866.85039	0.23213
1864.92183	0.23232
1862.99326	0.23245
1861.06470	0.23261
1859.13613	0.23294
1857.20757	0.23339
1855.27900	0.23395
1853.35044	0.23456
1851.42187	0.23512
1849.49331	0.23555
1847.56475	0.23602
1845.63618	0.23670
1843.70762	0.23769
1841.77905	0.23869
1839.85049	0.23934
1837.92192	0.24000
1835.99336	0.24082
1834.06479	0.24177
1832.13623	0.24263
1830.20767	0.24373
1828.27910	0.24517
1826.35054	0.24640
1824.42197	0.24769
1822.49341	0.24910
1820.56484	0.25058
1818.63628	0.25210
1816.70771	0.25371
1814.77915	0.25529
1812.85059	0.25698
1810.92202	0.25894
1808.99346	0.26108
1807.06489	0.26315
1805.13633	0.26502
1803.20776	0.26702
1801.27920	0.26934
1799.35063	0.27216
1797.42207	0.27488
1795.49351	0.27733
1793.56494	0.27995
1791.63638	0.28345
1789.70781	0.28725
1787.77925	0.29021
1785.85068	0.29335
1783.92212	0.29693
1781.99355	0.30080
1780.06499	0.30503
1778.13643	0.30955
1776.20786	0.31368
1774.27930	0.31771
1772.35073	0.32305
1770.42217	0.32930
1768.49360	0.33505
1766.56504	0.34066
1764.63647	0.34613
1762.70791	0.35176
1760.77935	0.35897
1758.85078	0.36605
1756.92222	0.37324
1754.99365	0.38117
1753.06509	0.38833
1751.13652	0.39646
1749.20796	0.40674
1747.27939	0.41738
1745.35083	0.42691
1743.42227	0.43674
1741.49370	0.44742
1739.56514	0.46005
1737.63657	0.47281
1735.70801	0.48370
1733.77944	0.49970
1731.85088	0.51964
1729.92231	0.53600
1727.99375	0.55229
1726.06519	0.56933
1724.13662	0.58769
1722.20806	0.60750
1720.27949	0.62566
1718.35093	0.64643
1716.42236	0.67749
1714.49380	0.70817
1712.56523	0.73355
1710.63667	0.75800
1708.70811	0.78372
1706.77954	0.81219
1704.85098	0.84599
1702.92241	0.87632
1700.99385	0.90600
1699.06528	0.95010
1697.13672	0.99090
1695.20815	1.03299
1693.27959	1.07376
1691.35103	1.10566
1689.42246	1.14154
1687.49390	1.17894
1685.56533	1.21425
1683.63677	1.26922
1681.70820	1.32791
1679.77964	1.36581
1677.85107	1.40127
1675.92251	1.44150
1673.99395	1.49091
1672.06538	1.53465
1670.13682	1.57717
1668.20825	1.63196
1666.27969	1.67554
1664.35112	1.71091
1662.42256	1.75362
1660.49399	1.80109
1658.56543	1.83806
1656.63687	1.86815
1654.70830	1.89678
1652.77974	1.94705
1650.85117	1.99878
1648.92261	2.02003
1646.99404	2.04831
1645.06548	2.08343
1643.13691	2.10786
1641.20835	2.12277
1639.27979	2.13489
1637.35122	2.14377
1635.42266	2.14876
1633.49409	2.14545
1631.56553	2.13443
1629.63696	2.12084
1627.70840	2.09874
1625.77983	2.07263
1623.85127	2.03900
1621.92271	1.99627
1619.99414	1.95642
1618.06558	1.91555
1616.13701	1.85693
1614.20845	1.79860
1612.27988	1.75571
1610.35132	1.71054
1608.42275	1.65977
1606.49419	1.60861
1604.56562	1.56143
1602.63706	1.51620
1600.70850	1.47156
1598.77993	1.42982
1596.85137	1.39036
1594.92280	1.35151
1592.99424	1.31312
1591.06567	1.27758
1589.13711	1.24443
1587.20854	1.21354
1585.27998	1.18450
1583.35142	1.15649
1581.42285	1.13012
1579.49429	1.10687
1577.56572	1.08504
1575.63716	1.05785
1573.70859	1.03396
1571.78003	1.01796
1569.85146	0.99993
1567.92290	0.97916
1565.99434	0.96259
1564.06577	0.94787
1562.13721	0.93484
1560.20864	0.92275
1558.28008	0.90207
1556.35151	0.88497
1554.42295	0.87484
1552.49438	0.86410
1550.56582	0.85329
1548.63726	0.84260
1546.70869	0.83340
1544.78013	0.82489
1542.85156	0.81598
1540.92300	0.80630
1538.99443	0.79421
1537.06587	0.78576
1535.13730	0.78007
1533.20874	0.77290
1531.28018	0.76511
1529.35161	0.75913
1527.42305	0.75335
1525.49448	0.74714
1523.56592	0.74108
1521.63735	0.73452
1519.70879	0.72805
1517.78022	0.72319
1515.85166	0.71835
1513.92310	0.71347
1511.99453	0.70923
1510.06597	0.70528
1508.13740	0.70136
1506.20884	0.69606
1504.28027	0.69188
1502.35171	0.68910
1500.42314	0.68615
1498.49458	0.68284
1496.56602	0.67952
1494.63745	0.67666
1492.70889	0.67413
1490.78032	0.67158
1488.85176	0.66856
1486.92319	0.66557
1484.99463	0.66327
1483.06606	0.66122
1481.13750	0.65897
1479.20894	0.65663
1477.28037	0.65440
1475.35181	0.65218
1473.42324	0.64986
1471.49468	0.64712
1469.56611	0.64469
1467.63755	0.64270
1465.70898	0.64063
1463.78042	0.63843
1461.85186	0.63644
1459.92329	0.63442
1457.99473	0.63161
1456.06616	0.62822
1454.13760	0.62593
1452.20903	0.62431
1450.28047	0.62260
1448.35190	0.62067
1446.42334	0.61869
1444.49478	0.61693
1442.56621	0.61529
1440.63765	0.61364
1438.70908	0.61196
1436.78052	0.61018
1434.85195	0.60871
1432.92339	0.60749
1430.99482	0.60610
1429.06626	0.60455
1427.13770	0.60314
1425.20913	0.60184
1423.28057	0.60050
1421.35200	0.59910
1419.42344	0.59763
1417.49487	0.59600
1415.56631	0.59428
1413.63774	0.59262
1411.70918	0.59107
1409.78062	0.58956
1407.85205	0.58800
1405.92349	0.58642
1403.99492	0.58484
1402.06636	0.58323
1400.13779	0.58168
1398.20923	0.58022
1396.28066	0.57880
1394.35210	0.57741
1392.42354	0.57616
1390.49497	0.57484
1388.56641	0.57352
1386.63784	0.57254
1384.70928	0.57182
1382.78071	0.57093
1380.85215	0.56994
1378.92358	0.56912
1376.99502	0.56843
1375.06646	0.56766
1373.13789	0.56679
1371.20933	0.56596
1369.28076	0.56520
1367.35220	0.56448
1365.42363	0.56364
1363.49507	0.56264
1361.56650	0.56166
1359.63794	0.56080
1357.70937	0.56003
1355.78081	0.55914
1353.85225	0.55805
1351.92368	0.55693
1349.99512	0.55577
1348.06655	0.55458
1346.13799	0.55355
1344.20942	0.55274
1342.28086	0.55190
1340.35229	0.55085
1338.42373	0.54970
1336.49517	0.54866
1334.56660	0.54784
1332.63804	0.54711
1330.70947	0.54629
1328.78091	0.54542
1326.85234	0.54470
1324.92378	0.54412
1322.99521	0.54346
1321.06665	0.54260
1319.13809	0.54172
1317.20952	0.54096
1315.28096	0.54027
1313.35239	0.53953
1311.42383	0.53863
1309.49526	0.53760
1307.56670	0.53664
1305.63813	0.53588
1303.70957	0.53518
1301.78101	0.53421
1299.85244	0.53301
1297.92388	0.53208
1295.99531	0.53151
1294.06675	0.53105
1292.13818	0.53045
1290.20962	0.52970
1288.28105	0.52901
1286.35249	0.52852
1284.42393	0.52828
1282.49536	0.52811
1280.56680	0.52767
1278.63823	0.52694
1276.70967	0.52613
1274.78110	0.52552
1272.85254	0.52515
1270.92397	0.52479
1268.99541	0.52429
1267.06685	0.52380
1265.13828	0.52340
1263.20972	0.52314
1261.28115	0.52292
1259.35259	0.52259
1257.42402	0.52219
1255.49546	0.52176
1253.56689	0.52129
1251.63833	0.52094
1249.70977	0.52067
1247.78120	0.52026
1245.85264	0.51979
1243.92407	0.51942
1241.99551	0.51910
1240.06694	0.51866
1238.13838	0.51823
1236.20981	0.51787
1234.28125	0.51738
1232.35269	0.51674
1230.42412	0.51601
1228.49556	0.51533
1226.56699	0.51470
1224.63843	0.51398
1222.70986	0.51308
1220.78130	0.51213
1218.85273	0.51138
1216.92417	0.51081
1214.99561	0.51021
1213.06704	0.50957
1211.13848	0.50885
1209.20991	0.50809
1207.28135	0.50758
1205.35278	0.50722
1203.42422	0.50667
1201.49565	0.50608
1199.56709	0.50568
1197.63853	0.50524
1195.70996	0.50458
1193.78140	0.50392
1191.85283	0.50339
1189.92427	0.50288
1187.99570	0.50247
1186.06714	0.50227
1184.13857	0.50223
1182.21001	0.50219
1180.28145	0.50212
1178.35288	0.50221
1176.42432	0.50257
1174.49575	0.50312
1172.56719	0.50369
1170.63862	0.50430
1168.71006	0.50518
1166.78149	0.50615
1164.85293	0.50695
1162.92437	0.50758
1160.99580	0.50796
1159.06724	0.50805
1157.13867	0.50798
1155.21011	0.50764
1153.28154	0.50675
1151.35298	0.50530
1149.42441	0.50346
1147.49585	0.50141
1145.56729	0.49920
1143.63872	0.49675
1141.71016	0.49425
1139.78159	0.49198
1137.85303	0.49009
1135.92446	0.48848
1133.99590	0.48701
1132.06733	0.48584
1130.13877	0.48495
1128.21021	0.48409
1126.28164	0.48327
1124.35308	0.48254
1122.42451	0.48189
1120.49595	0.48142
1118.56738	0.48118
1116.63882	0.48125
1114.71025	0.48154
1112.78169	0.48188
1110.85312	0.48225
1108.92456	0.48269
1106.99600	0.48337
1105.06743	0.48437
1103.13887	0.48555
1101.21030	0.48675
1099.28174	0.48814
1097.35317	0.49008
1095.42461	0.49279
1093.49604	0.49662
1091.56748	0.50168
1089.63892	0.50770
1087.71035	0.51451
1085.78179	0.52202
1083.85322	0.52996
1081.92466	0.53752
1079.99609	0.54347
1078.06753	0.54673
1076.13896	0.54696
1074.21040	0.54456
1072.28184	0.54009
1070.35327	0.53402
1068.42471	0.52711
1066.49614	0.52027
1064.56758	0.51399
1062.63901	0.50845
1060.71045	0.50352
1058.78188	0.49910
1056.85332	0.49527
1054.92476	0.49209
1052.99619	0.48940
1051.06763	0.48709
1049.13906	0.48545
1047.21050	0.48464
1045.28193	0.48453
1043.35337	0.48483
1041.42480	0.48507
1039.49624	0.48520
1037.56768	0.48542
1035.63911	0.48546
1033.71055	0.48502
1031.78198	0.48437
1029.85342	0.48367
1027.92485	0.48277
1025.99629	0.48179
1024.06772	0.48109
1022.13916	0.48086
1020.21060	0.48105
1018.28203	0.48150
1016.35347	0.48203
1014.42490	0.48237
1012.49634	0.48256
1010.56777	0.48292
1008.63921	0.48355
1006.71064	0.48450
1004.78208	0.48585
1002.85352	0.48752
1000.92495	0.48978
998.99639	0.49303
997.06782	0.49697
995.13926	0.50097
993.21069	0.50472
991.28213	0.50800
989.35356	0.51049
987.42500	0.51194
985.49644	0.51245
983.56787	0.51259
981.63931	0.51315
979.71074	0.51446
977.78218	0.51633
975.85361	0.51858
973.92505	0.52112
971.99648	0.52412
970.06792	0.52765
968.13936	0.53146
966.21079	0.53545
964.28223	0.53976
962.35366	0.54453
960.42510	0.54986
958.49653	0.55572
956.56797	0.56166
954.63940	0.56731
952.71084	0.57304
950.78228	0.57925
948.85371	0.58577
946.92515	0.59224
944.99658	0.59842
943.06802	0.60445
941.13945	0.61053
939.21089	0.61652
937.28232	0.62220
935.35376	0.62762
933.42520	0.63321
931.49663	0.63941
929.56807	0.64610
927.63950	0.65276
925.71094	0.65888
923.78237	0.66431
921.85381	0.67008
919.92524	0.67697
917.99668	0.68434
916.06812	0.69167
914.13955	0.69908
912.21099	0.70675
910.28242	0.71458
908.35386	0.72238
906.42529	0.73095
904.49673	0.74088
902.56816	0.75091
900.63960	0.76024
898.71104	0.76977
896.78247	0.77919
894.85391	0.78793
892.92534	0.79779
890.99678	0.80918
889.06821	0.82003
887.13965	0.83047
885.21108	0.84097
883.28252	0.85146
881.35396	0.86309
879.42539	0.87501
877.49683	0.88633
875.56826	0.89816
873.63970	0.90979
871.71113	0.92093
869.78257	0.93241
867.85400	0.94386
865.92544	0.95533
863.99687	0.96622
862.06831	0.97656
860.13975	0.98897
858.21118	1.00290
856.28262	1.01463
854.35405	1.02592
852.42549	1.03889
850.49692	1.05068
848.56836	1.06243
846.63979	1.07533
844.71123	1.08600
842.78267	1.09543
840.85410	1.10672
838.92554	1.11986
836.99697	1.13357
835.06841	1.14614
833.13984	1.15882
831.21128	1.17310
829.28271	1.18422
827.35415	1.18912
825.42559	1.19705
823.49702	1.21538
821.56846	1.23076
819.63989	1.23741
817.71133	1.24869
815.78276	1.26127
813.85420	1.26990
811.92563	1.28668
809.99707	1.31041
808.06851	1.32812
806.13994	1.34595
804.21138	1.36341
802.28281	1.36935
800.35425	1.38651
798.42568	1.42693
796.49712	1.43756
794.56855	1.37693
792.63999	1.30334
790.71143	1.30586
788.78286	1.40962
786.85430	1.47555
784.92573	1.42383
782.99717	1.45048
781.06860	1.58457
779.14004	1.60269
777.21147	1.52525
775.28291	1.49285
773.35435	1.46769
771.42578	1.52048
769.49722	1.51212
767.56865	1.38997
765.64009	1.34686
763.71152	1.36964
761.78296	1.50535
759.85439	2.30252
757.92583	1.79501
755.99727	1.30869
754.06870	1.19600
752.14014	1.14526
750.21157	1.06563
748.28301	1.05048
746.35444	1.08693
744.42588	1.05313
742.49731	0.97677
740.56875	0.91735
738.64019	0.85816
736.71162	0.82373
734.78306	0.79097
732.85449	0.65975
730.92593	0.45174
728.99736	0.28499
727.06880	0.20474
725.14023	0.18615
723.21167	0.07862
721.28311	-0.14185
719.35454	-0.10902
717.42598	0.11602
715.49741	0.20955
713.56885	0.35241
711.64028	0.59513
709.71172	0.43615
707.78315	0.33588
705.85459	0.35242
703.92603	0.35574
701.99746	0.26454
700.06890	0.16017
698.14033	0.16658
696.21177	0.25020
694.28320	0.24282
692.35464	0.21090
690.42607	0.30582
688.49751	0.53396
686.56895	0.64279
684.64038	0.39487
682.71182	0.21526
680.78325	0.18625
678.85469	0.26488
676.92612	0.33179
674.99756	0.29702
673.06899	0.29394
671.14043	0.34787
669.21187	0.29673
667.28330	0.19886
665.35474	0.17519
663.42617	0.20980
661.49761	0.25498
659.56904	0.29173
657.64048	0.29879
655.71191	0.27689
653.78335	0.24710
651.85479	0.21394
649.92622	0.17902
647.99766	0.19041
646.06909	0.26101
644.14053	0.26590
642.21196	0.21644
640.28340	0.22897
638.35483	0.28015
636.42627	0.30364
634.49771	0.30547
632.56914	0.28553
630.64058	0.24939
628.71201	0.26811
626.78345	0.29712
624.85488	0.27894
622.92632	0.22495
620.99775	0.18332
619.06919	0.19483
617.14062	0.22578
615.21206	0.23106
613.28350	0.22972
611.35493	0.23162
609.42637	0.23044
607.49780	0.26017
605.56924	0.30679
603.64067	0.30551
601.71211	0.24021
599.78354	0.18395
597.85498	0.19904
595.92642	0.25189
593.99785	0.24572
592.06929	0.20274
590.14072	0.21737
588.21216	0.27276
586.28359	0.29398
584.35503	0.28032
582.42646	0.26416
580.49790	0.24886
578.56934	0.27706
576.64077	0.30278
574.71221	0.25485
572.78364	0.23294
570.85508	0.29420
568.92651	0.37232
566.99795	0.35450
565.06938	0.31327
563.14082	0.28661
561.21226	0.24754
559.28369	0.22112
557.35513	0.23029
555.42656	0.23620
553.49800	0.23633
551.56943	0.24640
549.64087	0.24717
547.71230	0.22463
545.78374	0.22321
543.85518	0.26965
541.92661	0.28987
539.99805	0.27533
538.06948	0.29914
536.14092	0.35937
534.21235	0.36294
532.28379	0.29046
530.35522	0.22269
528.42666	0.18029
526.49810	0.14343
524.56953	0.14618
522.64097	0.17790
520.71240	0.20139
518.78384	0.23355
516.85527	0.27080
514.92671	0.24294
512.99814	0.19263
511.06958	0.18570
509.14102	0.23097
507.21245	0.32612
505.28389	0.43616
503.35532	0.41047
501.42676	0.31901
499.49819	0.28102
