3997.91411	0.06905
3995.98555	0.06926
3994.05698	0.06972
3992.12842	0.07033
3990.19985	0.07061
3988.27129	0.07059
3986.34272	0.07082
3984.41416	0.07149
3982.48560	0.07224
3980.55703	0.07268
3978.62847	0.07238
3976.69990	0.07167
3974.77134	0.07158
3972.84277	0.07234
3970.91421	0.07334
3968.98564	0.07394
3967.05708	0.07373
3965.12852	0.07301
3963.19995	0.07264
3961.27139	0.07284
3959.34282	0.07308
3957.41426	0.07332
3955.48569	0.07390
3953.55713	0.07452
3951.62856	0.07462
3949.70000	0.07422
3947.77144	0.07399
3945.84287	0.07422
3943.91431	0.07438
3941.98574	0.07412
3940.05718	0.07352
3938.12861	0.07320
3936.20005	0.07346
3934.27148	0.07390
3932.34292	0.07411
3930.41436	0.07380
3928.48579	0.07304
3926.55723	0.07247
3924.62866	0.07266
3922.70010	0.07351
3920.77153	0.07428
3918.84297	0.07472
3916.91440	0.07467
3914.98584	0.07397
3913.05728	0.07321
3911.12871	0.07292
3909.20015	0.07283
3907.27158	0.07250
3905.34302	0.07231
3903.41445	0.07288
3901.48589	0.07368
3899.55732	0.07390
3897.62876	0.07361
3895.70020	0.07315
3893.77163	0.07299
3891.84307	0.07330
3889.91450	0.07355
3887.98594	0.07317
3886.05737	0.07307
3884.12881	0.07373
3882.20024	0.07427
3880.27168	0.07452
3878.34312	0.07450
3876.41455	0.07422
3874.48599	0.07432
3872.55742	0.07476
3870.62886	0.07536
3868.70029	0.07587
3866.77173	0.07560
3864.84316	0.07563
3862.91460	0.07666
3860.98604	0.07736
3859.05747	0.07731
3857.12891	0.07705
3855.20034	0.07692
3853.27178	0.07762
3851.34321	0.07897
3849.41465	0.07908
3847.48608	0.07860
3845.55752	0.07857
3843.62896	0.07939
3841.70039	0.08039
3839.77183	0.08087
3837.84326	0.08170
3835.91470	0.08283
3833.98613	0.08315
3832.05757	0.08341
3830.12900	0.08403
3828.20044	0.08456
3826.27187	0.08529
3824.34331	0.08623
3822.41475	0.08718
3820.48618	0.08885
3818.55762	0.09028
3816.62905	0.09041
3814.70049	0.09056
3812.77192	0.09102
3810.84336	0.09158
3808.91479	0.09262
3806.98623	0.09413
3805.05767	0.09552
3803.12910	0.09664
3801.20054	0.09823
3799.27197	0.10002
3797.34341	0.10114
3795.41484	0.10185
3793.48628	0.10216
3791.55771	0.10265
3789.62915	0.10364
3787.70059	0.10500
3785.77202	0.10681
3783.84346	0.10878
3781.91489	0.11035
3779.98633	0.11193
3778.05776	0.11368
3776.12920	0.11466
3774.20063	0.11535
3772.27207	0.11673
3770.34351	0.11893
3768.41494	0.12152
3766.48638	0.12369
3764.55781	0.12560
3762.62925	0.12729
3760.70068	0.12888
3758.77212	0.13105
3756.84355	0.13385
3754.91499	0.13647
3752.98643	0.13907
3751.05786	0.14271
3749.12930	0.14719
3747.20073	0.14995
3745.27217	0.15146
3743.34360	0.15377
3741.41504	0.15664
3739.48647	0.15916
3737.55791	0.16200
3735.62935	0.16625
3733.70078	0.17182
3731.77222	0.17620
3729.84365	0.17937
3727.91509	0.18284
3725.98652	0.18771
3724.05796	0.19418
3722.12939	0.20152
3720.20083	0.20921
3718.27227	0.21688
3716.34370	0.22474
3714.41514	0.23259
3712.48657	0.24133
3710.55801	0.25329
3708.62944	0.26682
3706.70088	0.27834
3704.77231	0.28896
3702.84375	0.30166
3700.91519	0.31887
3698.98662	0.33736
3697.05806	0.35445
3695.12949	0.37265
3693.20093	0.39196
3691.27236	0.41285
3689.34380	0.44031
3687.41523	0.47489
3685.48667	0.50551
3683.55811	0.53185
3681.62954	0.55974
3679.70098	0.59036
3677.77241	0.62197
3675.84385	0.66029
3673.91528	0.71419
3671.98672	0.75841
3670.05815	0.79593
3668.12959	0.84769
3666.20103	0.89633
3664.27246	0.93718
3662.34390	0.98035
3660.41533	1.02673
3658.48677	1.07221
3656.55820	1.12018
3654.62964	1.17418
3652.70107	1.21992
3650.77251	1.25895
3648.84395	1.31300
3646.91538	1.38139
3644.98682	1.43195
3643.05825	1.47038
3641.12969	1.50977
3639.20112	1.55307
3637.27256	1.59646
3635.34399	1.63851
3633.41543	1.68007
3631.48687	1.71875
3629.55830	1.75878
3627.62974	1.81310
3625.70117	1.86417
3623.77261	1.89759
3621.84404	1.92959
3619.91548	1.96701
3617.98691	2.01273
3616.05835	2.05764
3614.12979	2.09492
3612.20122	2.13297
3610.27266	2.17130
3608.34409	2.21016
3606.41553	2.25116
3604.48696	2.28933
3602.55840	2.32418
3600.62983	2.36194
3598.70127	2.40262
3596.77271	2.44263
3594.84414	2.48439
3592.91558	2.52755
3590.98701	2.56644
3589.05845	2.60098
3587.12988	2.64226
3585.20132	2.69078
3583.27275	2.73347
3581.34419	2.77089
3579.41562	2.80952
3577.48706	2.85130
3575.55850	2.89396
3573.62993	2.93713
3571.70137	2.97928
3569.77280	3.01928
3567.84424	3.06097
3565.91567	3.11154
3563.98711	3.16148
3562.05854	3.20357
3560.12998	3.24585
3558.20142	3.29025
3556.27285	3.33483
3554.34429	3.37853
3552.41572	3.42476
3550.48716	3.47429
3548.55859	3.52260
3546.63003	3.56871
3544.70146	3.61593
3542.77290	3.66172
3540.84434	3.70351
3538.91577	3.74713
3536.98721	3.79636
3535.05864	3.84849
3533.13008	3.89811
3531.20151	3.94683
3529.27295	3.99619
3527.34438	4.04527
3525.41582	4.09364
3523.48726	4.14410
3521.55869	4.19870
3519.63013	4.24938
3517.70156	4.29270
3515.77300	4.33404
3513.84443	4.37818
3511.91587	4.42605
3509.98730	4.47953
3508.05874	4.53333
3506.13018	4.57890
3504.20161	4.62447
3502.27305	4.67829
3500.34448	4.73330
3498.41592	4.78181
3496.48735	4.82558
3494.55879	4.87149
3492.63022	4.92386
3490.70166	4.97533
3488.77310	5.02169
3486.84453	5.06724
3484.91597	5.11137
3482.98740	5.15367
3481.05884	5.19786
3479.13027	5.24377
3477.20171	5.28937
3475.27314	5.34213
3473.34458	5.40664
3471.41602	5.46672
3469.48745	5.50992
3467.55889	5.54220
3465.63032	5.57988
3463.70176	5.64052
3461.77319	5.71241
3459.84463	5.76812
3457.91606	5.80885
3455.98750	5.85968
3454.05894	5.92441
3452.13037	5.97950
3450.20181	6.01062
3448.27324	6.03417
3446.34468	6.08089
3444.41611	6.14715
3442.48755	6.20923
3440.55898	6.26758
3438.63042	6.32998
3436.70186	6.38069
3434.77329	6.40997
3432.84473	6.43391
3430.91616	6.46851
3428.98760	6.52037
3427.05903	6.57252
3425.13047	6.62341
3423.20190	6.68538
3421.27334	6.74931
3419.34478	6.79603
3417.41621	6.84142
3415.48765	6.91883
3413.55908	6.99400
3411.63052	7.01898
3409.70195	7.03238
3407.77339	7.08743
3405.84482	7.16961
3403.91626	7.24642
3401.98770	7.28567
3400.05913	7.30779
3398.13057	7.34802
3396.20200	7.37742
3394.27344	7.37959
3392.34487	7.37745
3390.41631	7.40715
3388.48774	7.48393
3386.55918	7.60999
3384.63062	7.70496
3382.70205	7.69627
3380.77349	7.64789
3378.84492	7.64795
3376.91636	7.71363
3374.98779	7.76609
3373.05923	7.79781
3371.13066	7.83073
3369.20210	7.86365
3367.27354	7.90695
3365.34497	7.92329
3363.41641	7.91572
3361.48784	7.94039
3359.55928	7.98149
3357.63071	8.01739
3355.70215	8.09384
3353.77358	8.18570
3351.84502	8.22044
3349.91646	8.20863
3347.98789	8.24304
3346.05933	8.29587
3344.13076	8.30112
3342.20220	8.25837
3340.27363	8.14759
3338.34507	8.04329
3336.41650	8.02500
3334.48794	8.10058
3332.55937	8.18136
3330.63081	8.20675
3328.70225	8.18665
3326.77368	8.19086
3324.84512	8.27545
3322.91655	8.34180
3320.98799	8.37337
3319.05942	8.43198
3317.13086	8.44651
3315.20229	8.28709
3313.27373	8.10593
3311.34517	8.09952
3309.41660	8.20616
3307.48804	8.23999
3305.55947	8.19653
3303.63091	8.24957
3301.70234	8.34799
3299.77378	8.31611
3297.84521	8.25062
3295.91665	8.28387
3293.98809	8.32923
3292.05952	8.30854
3290.13096	8.29081
3288.20239	8.37692
3286.27383	8.47691
3284.34526	8.42516
3282.41670	8.38705
3280.48813	8.39158
3278.55957	8.38452
3276.63101	8.48845
3274.70244	8.64286
3272.77388	8.61111
3270.84531	8.48158
3268.91675	8.51695
3266.98818	8.66515
3265.05962	8.75204
3263.13105	8.76277
3261.20249	8.67786
3259.27393	8.53846
3257.34536	8.51675
3255.41680	8.59856
3253.48823	8.58245
3251.55967	8.49068
3249.63110	8.47623
3247.70254	8.50556
3245.77397	8.51195
3243.84541	8.55410
3241.91685	8.61069
3239.98828	8.65640
3238.05972	8.70050
3236.13115	8.66422
3234.20259	8.49824
3232.27402	8.26330
3230.34546	8.10820
3228.41689	8.08263
3226.48833	8.14398
3224.55977	8.22039
3222.63120	8.23685
3220.70264	8.23719
3218.77407	8.27722
3216.84551	8.31032
3214.91694	8.29463
3212.98838	8.25206
3211.05981	8.24096
3209.13125	8.24073
3207.20269	8.16813
3205.27412	8.06977
3203.34556	8.01922
3201.41699	7.97022
3199.48843	7.87351
3197.55986	7.81167
3195.63130	7.84900
3193.70273	7.90986
3191.77417	7.92940
3189.84561	7.91345
3187.91704	7.82886
3185.98848	7.71045
3184.05991	7.65006
3182.13135	7.60253
3180.20278	7.50375
3178.27422	7.41218
3176.34565	7.36312
3174.41709	7.30838
3172.48853	7.22452
3170.55996	7.15663
3168.63140	7.11741
3166.70283	7.07567
3164.77427	7.00442
3162.84570	6.90466
3160.91714	6.82578
3158.98857	6.77900
3157.06001	6.73215
3155.13145	6.67144
3153.20288	6.58978
3151.27432	6.50379
3149.34575	6.42603
3147.41719	6.34846
3145.48862	6.26796
3143.56006	6.18709
3141.63149	6.11276
3139.70293	6.04127
3137.77437	5.96528
3135.84580	5.89250
3133.91724	5.83694
3131.98867	5.78084
3130.06011	5.70102
3128.13154	5.62022
3126.20298	5.55218
3124.27441	5.48327
3122.34585	5.41184
3120.41729	5.33941
3118.48872	5.26470
3116.56016	5.19084
3114.63159	5.11700
3112.70303	5.04464
3110.77446	4.97578
3108.84590	4.90734
3106.91733	4.83581
3104.98877	4.76178
3103.06021	4.69128
3101.13164	4.62319
3099.20308	4.55315
3097.27451	4.48276
3095.34595	4.41405
3093.41738	4.34746
3091.48882	4.28081
3089.56025	4.21118
3087.63169	4.14258
3085.70312	4.08097
3083.77456	4.02284
3081.84600	3.96292
3079.91743	3.89936
3077.98887	3.83376
3076.06030	3.77021
3074.13174	3.70859
3072.20317	3.64782
3070.27461	3.58787
3068.34604	3.52862
3066.41748	3.47086
3064.48892	3.41481
3062.56035	3.35947
3060.63179	3.30417
3058.70322	3.24844
3056.77466	3.19281
3054.84609	3.13876
3052.91753	3.08645
3050.98896	3.03506
3049.06040	2.98285
3047.13184	2.92986
3045.20327	2.87888
3043.27471	2.83038
3041.34614	2.78279
3039.41758	2.73497
3037.48901	2.68775
3035.56045	2.64253
3033.63188	2.59787
3031.70332	2.55221
3029.77476	2.50604
3027.84619	2.46068
3025.91763	2.41665
3023.98906	2.37347
3022.06050	2.33155
3020.13193	2.29087
3018.20337	2.25041
3016.27480	2.21001
3014.34624	2.17038
3012.41768	2.13191
3010.48911	2.09404
3008.56055	2.05651
3006.63198	2.01980
3004.70342	1.98365
3002.77485	1.94738
3000.84629	1.91149
2998.91772	1.87661
2996.98916	1.84275
2995.06060	1.80997
2993.13203	1.77806
2991.20347	1.74688
2989.27490	1.71614
2987.34634	1.68533
2985.41777	1.65501
2983.48921	1.62553
2981.56064	1.59601
2979.63208	1.56653
2977.70352	1.53808
2975.77495	1.51049
2973.84639	1.48303
2971.91782	1.45590
2969.98926	1.42947
2968.06069	1.40351
2966.13213	1.37812
2964.20356	1.35328
2962.27500	1.32849
2960.34644	1.30383
2958.41787	1.27959
2956.48931	1.25602
2954.56074	1.23313
2952.63218	1.21066
2950.70361	1.18853
2948.77505	1.16667
2946.84648	1.14514
2944.91792	1.12396
2942.98936	1.10314
2941.06079	1.08283
2939.13223	1.06313
2937.20366	1.04406
2935.27510	1.02522
2933.34653	1.00629
2931.41797	0.98753
2929.48940	0.96904
2927.56084	0.95078
2925.63228	0.93294
2923.70371	0.91567
2921.77515	0.89926
2919.84658	0.88366
2917.91802	0.86793
2915.98945	0.85177
2914.06089	0.83594
2912.13232	0.82071
2910.20376	0.80578
2908.27520	0.79115
2906.34663	0.77681
2904.41807	0.76272
2902.48950	0.74924
2900.56094	0.73621
2898.63237	0.72326
2896.70381	0.71061
2894.77524	0.69842
2892.84668	0.68657
2890.91812	0.67473
2888.98955	0.66288
2887.06099	0.65148
2885.13242	0.64071
2883.20386	0.63024
2881.27529	0.61962
2879.34673	0.60893
2877.41816	0.59863
2875.48960	0.58881
2873.56104	0.57899
2871.63247	0.56889
2869.70391	0.55873
2867.77534	0.54891
2865.84678	0.53930
2863.91821	0.52953
2861.98965	0.51992
2860.06108	0.51088
2858.13252	0.50202
2856.20396	0.49323
2854.27539	0.48482
2852.34683	0.47670
2850.41826	0.46882
2848.48970	0.46137
2846.56113	0.45411
2844.63257	0.44684
2842.70400	0.43977
2840.77544	0.43298
2838.84687	0.42659
2836.91831	0.42073
2834.98975	0.41521
2833.06118	0.40960
2831.13262	0.40360
2829.20405	0.39737
2827.27549	0.39131
2825.34692	0.38558
2823.41836	0.37994
2821.48979	0.37424
2819.56123	0.36870
2817.63267	0.36341
2815.70410	0.35809
2813.77554	0.35272
2811.84697	0.34751
2809.91841	0.34239
2807.98984	0.33727
2806.06128	0.33218
2804.13271	0.32723
2802.20415	0.32250
2800.27559	0.31788
2798.34702	0.31336
2796.41846	0.30909
2794.48989	0.30505
2792.56133	0.30091
2790.63276	0.29651
2788.70420	0.29207
2786.77563	0.28796
2784.84707	0.28423
2782.91851	0.28061
2780.98994	0.27698
2779.06138	0.27327
2777.13281	0.26954
2775.20425	0.26591
2773.27568	0.26244
2771.34712	0.25906
2769.41855	0.25572
2767.48999	0.25245
2765.56143	0.24926
2763.63286	0.24610
2761.70430	0.24290
2759.77573	0.23971
2757.84717	0.23675
2755.91860	0.23406
2753.99004	0.23142
2752.06147	0.22871
2750.13291	0.22602
2748.20435	0.22348
2746.27578	0.22100
2744.34722	0.21840
2742.41865	0.21563
2740.49009	0.21295
2738.56152	0.21062
2736.63296	0.20846
2734.70439	0.20625
2732.77583	0.20413
2730.84727	0.20213
2728.91870	0.20017
2726.99014	0.19809
2725.06157	0.19584
2723.13301	0.19369
2721.20444	0.19194
2719.27588	0.19047
2717.34731	0.18896
2715.41875	0.18724
2713.49019	0.18525
2711.56162	0.18332
2709.63306	0.18167
2707.70449	0.18014
2705.77593	0.17870
2703.84736	0.17734
2701.91880	0.17601
2699.99023	0.17482
2698.06167	0.17366
2696.13311	0.17225
2694.20454	0.17064
2692.27598	0.16912
2690.34741	0.16781
2688.41885	0.16664
2686.49028	0.16543
2684.56172	0.16424
2682.63315	0.16324
2680.70459	0.16226
2678.77603	0.16115
2676.84746	0.16003
2674.91890	0.15903
2672.99033	0.15819
2671.06177	0.15743
2669.13320	0.15651
2667.20464	0.15549
2665.27607	0.15460
2663.34751	0.15376
2661.41895	0.15297
2659.49038	0.15234
2657.56182	0.15177
2655.63325	0.15120
2653.70469	0.15063
2651.77612	0.15005
2649.84756	0.14951
2647.91899	0.14902
2645.99043	0.14840
2644.06187	0.14774
2642.13330	0.14728
2640.20474	0.14699
2638.27617	0.14659
2636.34761	0.14610
2634.41904	0.14570
2632.49048	0.14536
2630.56191	0.14509
2628.63335	0.14490
2626.70479	0.14462
2624.77622	0.14430
2622.84766	0.14425
2620.91909	0.14426
2618.99053	0.14411
2617.06196	0.14400
2615.13340	0.14392
2613.20483	0.14368
2611.27627	0.14344
2609.34771	0.14342
2607.41914	0.14349
2605.49058	0.14348
2603.56201	0.14346
2601.63345	0.14355
2599.70488	0.14372
2597.77632	0.14383
2595.84775	0.14379
2593.91919	0.14376
2591.99062	0.14398
2590.06206	0.14438
2588.13350	0.14474
2586.20493	0.14494
2584.27637	0.14517
2582.34780	0.14551
2580.41924	0.14580
2578.49067	0.14607
2576.56211	0.14648
2574.63354	0.14693
2572.70498	0.14734
2570.77642	0.14761
2568.84785	0.14782
2566.91929	0.14826
2564.99072	0.14892
2563.06216	0.14954
2561.13359	0.15004
2559.20503	0.15050
2557.27646	0.15102
2555.34790	0.15143
2553.41934	0.15179
2551.49077	0.15239
2549.56221	0.15326
2547.63364	0.15408
2545.70508	0.15472
2543.77651	0.15533
2541.84795	0.15596
2539.91938	0.15657
2537.99082	0.15729
2536.06226	0.15810
2534.13369	0.15870
2532.20513	0.15917
2530.27656	0.15985
2528.34800	0.16073
2526.41943	0.16158
2524.49087	0.16243
2522.56230	0.16331
2520.63374	0.16416
2518.70518	0.16490
2516.77661	0.16560
2514.84805	0.16636
2512.91948	0.16713
2510.99092	0.16794
2509.06235	0.16885
2507.13379	0.16980
2505.20522	0.17073
2503.27666	0.17160
2501.34810	0.17240
2499.41953	0.17318
2497.49097	0.17399
2495.56240	0.17486
2493.63384	0.17585
2491.70527	0.17682
2489.77671	0.17762
2487.84814	0.17842
2485.91958	0.17932
2483.99102	0.18021
2482.06245	0.18109
2480.13389	0.18201
2478.20532	0.18296
2476.27676	0.18395
2474.34819	0.18488
2472.41963	0.18576
2470.49106	0.18669
2468.56250	0.18764
2466.63394	0.18866
2464.70537	0.18977
2462.77681	0.19086
2460.84824	0.19193
2458.91968	0.19298
2456.99111	0.19395
2455.06255	0.19483
2453.13398	0.19567
2451.20542	0.19661
2449.27686	0.19765
2447.34829	0.19871
2445.41973	0.19976
2443.49116	0.20086
2441.56260	0.20195
2439.63403	0.20304
2437.70547	0.20409
2435.77690	0.20509
2433.84834	0.20607
2431.91978	0.20711
2429.99121	0.20827
2428.06265	0.20947
2426.13408	0.21065
2424.20552	0.21179
2422.27695	0.21283
2420.34839	0.21378
2418.41982	0.21489
2416.49126	0.21617
2414.56270	0.21740
2412.63413	0.21857
2410.70557	0.21973
2408.77700	0.22093
2406.84844	0.22218
2404.91987	0.22343
2402.99131	0.22461
2401.06274	0.22576
2399.13418	0.22690
2397.20562	0.22804
2395.27705	0.22931
2393.34849	0.23062
2391.41992	0.23182
2389.49136	0.23297
2387.56279	0.23407
2385.63423	0.23490
2383.70566	0.23532
2381.77710	0.23522
2379.84854	0.23457
2377.91997	0.23361
2375.99141	0.23246
2374.06284	0.23099
2372.13428	0.22910
2370.20571	0.22695
2368.27715	0.22451
2366.34858	0.22209
2364.42002	0.22044
2362.49146	0.21894
2360.56289	0.21718
2358.63433	0.21873
2356.70576	0.22526
2354.77720	0.23188
2352.84863	0.23719
2350.92007	0.24295
2348.99150	0.24724
2347.06294	0.24833
2345.13437	0.24637
2343.20581	0.24376
2341.27725	0.24404
2339.34868	0.24668
2337.42012	0.24893
2335.49155	0.25055
2333.56299	0.25248
2331.63442	0.25459
2329.70586	0.25687
2327.77729	0.25970
2325.84873	0.26290
2323.92017	0.26622
2321.99160	0.26967
2320.06304	0.27333
2318.13447	0.27703
2316.20591	0.28051
2314.27734	0.28359
2312.34878	0.28603
2310.42021	0.28812
2308.49165	0.29056
2306.56309	0.29348
2304.63452	0.29633
2302.70596	0.29863
2300.77739	0.30080
2298.84883	0.30331
2296.92026	0.30592
2294.99170	0.30827
2293.06313	0.31042
2291.13457	0.31260
2289.20601	0.31495
2287.27744	0.31737
2285.34888	0.31968
2283.42031	0.32198
2281.49175	0.32424
2279.56318	0.32626
2277.63462	0.32804
2275.70605	0.32981
2273.77749	0.33178
2271.84893	0.33391
2269.92036	0.33612
2267.99180	0.33843
2266.06323	0.34075
2264.13467	0.34289
2262.20610	0.34493
2260.27754	0.34708
2258.34897	0.34934
2256.42041	0.35157
2254.49185	0.35375
2252.56328	0.35597
2250.63472	0.35823
2248.70615	0.36043
2246.77759	0.36265
2244.84902	0.36496
2242.92046	0.36727
2240.99189	0.36953
2239.06333	0.37179
2237.13477	0.37404
2235.20620	0.37627
2233.27764	0.37854
2231.34907	0.38087
2229.42051	0.38329
2227.49194	0.38568
2225.56338	0.38791
2223.63481	0.38999
2221.70625	0.39198
2219.77769	0.39406
2217.84912	0.39625
2215.92056	0.39842
2213.99199	0.40066
2212.06343	0.40299
2210.13486	0.40514
2208.20630	0.40720
2206.27773	0.40938
2204.34917	0.41158
2202.42061	0.41360
2200.49204	0.41544
2198.56348	0.41731
2196.63491	0.41936
2194.70635	0.42138
2192.77778	0.42326
2190.84922	0.42517
2188.92065	0.42711
2186.99209	0.42887
2185.06353	0.43049
2183.13496	0.43221
2181.20640	0.43401
2179.27783	0.43578
2177.34927	0.43750
2175.42070	0.43908
2173.49214	0.44045
2171.56357	0.44183
2169.63501	0.44326
2167.70645	0.44457
2165.77788	0.44573
2163.84932	0.44683
2161.92075	0.44798
2159.99219	0.44916
2158.06362	0.45018
2156.13506	0.45108
2154.20649	0.45201
2152.27793	0.45291
2150.34937	0.45371
2148.42080	0.45436
2146.49224	0.45490
2144.56367	0.45544
2142.63511	0.45587
2140.70654	0.45606
2138.77798	0.45624
2136.84941	0.45648
2134.92085	0.45666
2132.99229	0.45678
2131.06372	0.45679
2129.13516	0.45656
2127.20659	0.45617
2125.27803	0.45582
2123.34946	0.45543
2121.42090	0.45491
2119.49233	0.45427
2117.56377	0.45359
2115.63521	0.45286
2113.70664	0.45204
2111.77808	0.45116
2109.84951	0.45017
2107.92095	0.44910
2105.99238	0.44804
2104.06382	0.44693
2102.13525	0.44565
2100.20669	0.44423
2098.27812	0.44274
2096.34956	0.44122
2094.42100	0.43977
2092.49243	0.43834
2090.56387	0.43672
2088.63530	0.43490
2086.70674	0.43308
2084.77817	0.43117
2082.84961	0.42909
2080.92104	0.42694
2078.99248	0.42489
2077.06392	0.42293
2075.13535	0.42092
2073.20679	0.41878
2071.27822	0.41660
2069.34966	0.41443
2067.42109	0.41208
2065.49253	0.40957
2063.56396	0.40715
2061.63540	0.40490
2059.70684	0.40253
2057.77827	0.39988
2055.84971	0.39714
2053.92114	0.39451
2051.99258	0.39200
2050.06401	0.38943
2048.13545	0.38673
2046.20688	0.38399
2044.27832	0.38135
2042.34976	0.37868
2040.42119	0.37595
2038.49263	0.37326
2036.56406	0.37066
2034.63550	0.36800
2032.70693	0.36520
2030.77837	0.36242
2028.84980	0.35965
2026.92124	0.35682
2024.99268	0.35395
2023.06411	0.35110
2021.13555	0.34831
2019.20698	0.34560
2017.27842	0.34293
2015.34985	0.34021
2013.42129	0.33746
2011.49272	0.33465
2009.56416	0.33186
2007.63560	0.32922
2005.70703	0.32662
2003.77847	0.32399
2001.84990	0.32137
1999.92134	0.31877
1997.99277	0.31611
1996.06421	0.31345
1994.13564	0.31088
1992.20708	0.30842
1990.27852	0.30600
1988.34995	0.30357
1986.42139	0.30109
1984.49282	0.29863
1982.56426	0.29626
1980.63569	0.29387
1978.70713	0.29150
1976.77856	0.28924
1974.85000	0.28707
1972.92144	0.28490
1970.99287	0.28274
1969.06431	0.28063
1967.13574	0.27848
1965.20718	0.27639
1963.27861	0.27453
1961.35005	0.27277
1959.42148	0.27101
1957.49292	0.26929
1955.56436	0.26751
1953.63579	0.26568
1951.70723	0.26387
1949.77866	0.26220
1947.85010	0.26064
1945.92153	0.25916
1943.99297	0.25770
1942.06440	0.25626
1940.13584	0.25485
1938.20728	0.25340
1936.27871	0.25192
1934.35015	0.25051
1932.42158	0.24927
1930.49302	0.24806
1928.56445	0.24683
1926.63589	0.24572
1924.70732	0.24481
1922.77876	0.24403
1920.85020	0.24328
1918.92163	0.24244
1916.99307	0.24146
1915.06450	0.24044
1913.13594	0.23950
1911.20737	0.23879
1909.27881	0.23828
1907.35024	0.23771
1905.42168	0.23695
1903.49312	0.23623
1901.56455	0.23568
1899.63599	0.23522
1897.70742	0.23486
1895.77886	0.23452
1893.85029	0.23409
1891.92173	0.23360
1889.99316	0.23333
1888.06460	0.23321
1886.13604	0.23310
1884.20747	0.23295
1882.27891	0.23278
1880.35034	0.23264
1878.42178	0.23248
1876.49321	0.23240
1874.56465	0.23245
1872.63608	0.23263
1870.70752	0.23280
1868.77896	0.23309
1866.85039	0.23335
1864.92183	0.23339
1862.99326	0.23342
1861.06470	0.23361
1859.13613	0.23399
1857.20757	0.23437
1855.27900	0.23480
1853.35044	0.23528
1851.42187	0.23580
1849.49331	0.23640
1847.56475	0.23717
1845.63618	0.23805
1843.70762	0.23899
1841.77905	0.23976
1839.85049	0.24024
1837.92192	0.24101
1835.99336	0.24202
1834.06479	0.24300
1832.13623	0.24388
1830.20767	0.24511
1828.27910	0.24655
1826.35054	0.24765
1824.42197	0.24883
1822.49341	0.25016
1820.56484	0.25161
1818.63628	0.25316
1816.70771	0.25486
1814.77915	0.25650
1812.85059	0.25818
1810.92202	0.26011
1808.99346	0.26216
1807.06489	0.26418
1805.13633	0.26612
1803.20776	0.26829
1801.27920	0.27074
1799.35063	0.27347
1797.42207	0.27604
1795.49351	0.27854
1793.56494	0.28131
1791.63638	0.28487
1789.70781	0.28845
1787.77925	0.29122
1785.85068	0.29439
1783.92212	0.29807
1781.99355	0.30192
1780.06499	0.30601
1778.13643	0.31034
1776.20786	0.31447
1774.27930	0.31890
1772.35073	0.32476
1770.42217	0.33102
1768.49360	0.33637
1766.56504	0.34167
1764.63647	0.34707
1762.70791	0.35284
1760.77935	0.36026
1758.85078	0.36740
1756.92222	0.37451
1754.99365	0.38228
1753.06509	0.38939
1751.13652	0.39770
1749.20796	0.40817
1747.27939	0.41875
1745.35083	0.42814
1743.42227	0.43788
1741.49370	0.44861
1739.56514	0.46140
1737.63657	0.47409
1735.70801	0.48486
1733.77944	0.50115
1731.85088	0.52108
1729.92231	0.53695
1727.99375	0.55303
1726.06519	0.57003
1724.13662	0.58817
1722.20806	0.60781
1720.27949	0.62612
1718.35093	0.64744
1716.42236	0.67898
1714.49380	0.70949
1712.56523	0.73461
1710.63667	0.75875
1708.70811	0.78427
1706.77954	0.81316
1704.85098	0.84774
1702.92241	0.87837
1700.99385	0.90836
1699.06528	0.95362
1697.13672	0.99536
1695.20815	1.03766
1693.27959	1.07872
1691.35103	1.11173
1689.42246	1.14953
1687.49390	1.18903
1685.56533	1.22682
1683.63677	1.28542
1681.70820	1.34636
1679.77964	1.38521
1677.85107	1.42229
1675.92251	1.46466
1673.99395	1.51630
1672.06538	1.56207
1670.13682	1.60706
1668.20825	1.66477
1666.27969	1.71109
1664.35112	1.75013
1662.42256	1.79768
1660.49399	1.85030
1658.56543	1.89165
1656.63687	1.92507
1654.70830	1.95597
1652.77974	2.00907
1650.85117	2.06314
1648.92261	2.08355
1646.99404	2.10899
1645.06548	2.14069
1643.13691	2.16321
1641.20835	2.17706
1639.27979	2.18986
1637.35122	2.19960
1635.42266	2.20251
1633.49409	2.19649
1631.56553	2.18443
1629.63696	2.16951
1627.70840	2.14532
1625.77983	2.11728
1623.85127	2.08083
1621.92271	2.03517
1619.99414	1.99450
1618.06558	1.95407
1616.13701	1.89471
1614.20845	1.83361
1612.27988	1.78785
1610.35132	1.74042
1608.42275	1.68827
1606.49419	1.63609
1604.56562	1.58800
1602.63706	1.54190
1600.70850	1.49663
1598.77993	1.45463
1596.85137	1.41489
1594.92280	1.37592
1592.99424	1.33779
1591.06567	1.30248
1589.13711	1.26909
1587.20854	1.23726
1585.27998	1.20715
1583.35142	1.17886
1581.42285	1.15299
1579.49429	1.13066
1577.56572	1.11018
1575.63716	1.08428
1573.70859	1.06090
1571.78003	1.04549
1569.85146	1.02878
1567.92290	1.00949
1565.99434	0.99429
1564.06577	0.98179
1562.13721	0.97154
1560.20864	0.96295
1558.28008	0.94830
1556.35151	0.93475
1554.42295	0.92643
1552.49438	0.91810
1550.56582	0.90940
1548.63726	0.90006
1546.70869	0.89136
1544.78013	0.88300
1542.85156	0.87407
1540.92300	0.86272
1538.99443	0.84623
1537.06587	0.83452
1535.13730	0.82667
1533.20874	0.81644
1531.28018	0.80538
1529.35161	0.79711
1527.42305	0.78928
1525.49448	0.78126
1523.56592	0.77435
1521.63735	0.76739
1519.70879	0.76004
1517.78022	0.75371
1515.85166	0.74650
1513.92310	0.73935
1511.99453	0.73369
1510.06597	0.72881
1508.13740	0.72421
1506.20884	0.71719
1504.28027	0.71060
1502.35171	0.70659
1500.42314	0.70308
1498.49458	0.69936
1496.56602	0.69496
1494.63745	0.69057
1492.70889	0.68719
1490.78032	0.68442
1488.85176	0.68142
1486.92319	0.67831
1484.99463	0.67552
1483.06606	0.67314
1481.13750	0.67096
1479.20894	0.66889
1477.28037	0.66708
1475.35181	0.66546
1473.42324	0.66391
1471.49468	0.66180
1469.56611	0.65945
1467.63755	0.65728
1465.70898	0.65504
1463.78042	0.65259
1461.85186	0.65040
1459.92329	0.64866
1457.99473	0.64669
1456.06616	0.64375
1454.13760	0.64087
1452.20903	0.63860
1450.28047	0.63637
1448.35190	0.63389
1446.42334	0.63129
1444.49478	0.62894
1442.56621	0.62673
1440.63765	0.62451
1438.70908	0.62256
1436.78052	0.62059
1434.85195	0.61839
1432.92339	0.61639
1430.99482	0.61457
1429.06626	0.61278
1427.13770	0.61138
1425.20913	0.61055
1423.28057	0.60987
1421.35200	0.60889
1419.42344	0.60763
1417.49487	0.60623
1415.56631	0.60474
1413.63774	0.60332
1411.70918	0.60204
1409.78062	0.60097
1407.85205	0.60011
1405.92349	0.59934
1403.99492	0.59849
1402.06636	0.59740
1400.13779	0.59616
1398.20923	0.59489
1396.28066	0.59348
1394.35210	0.59148
1392.42354	0.58909
1390.49497	0.58699
1388.56641	0.58519
1386.63784	0.58341
1384.70928	0.58166
1382.78071	0.58000
1380.85215	0.57827
1378.92358	0.57653
1376.99502	0.57502
1375.06646	0.57382
1373.13789	0.57271
1371.20933	0.57158
1369.28076	0.57054
1367.35220	0.56959
1365.42363	0.56861
1363.49507	0.56755
1361.56650	0.56652
1359.63794	0.56547
1357.70937	0.56445
1355.78081	0.56350
1353.85225	0.56258
1351.92368	0.56172
1349.99512	0.56092
1348.06655	0.56007
1346.13799	0.55919
1344.20942	0.55830
1342.28086	0.55736
1340.35229	0.55651
1338.42373	0.55569
1336.49517	0.55477
1334.56660	0.55387
1332.63804	0.55317
1330.70947	0.55260
1328.78091	0.55201
1326.85234	0.55148
1324.92378	0.55115
1322.99521	0.55082
1321.06665	0.55029
1319.13809	0.54963
1317.20952	0.54904
1315.28096	0.54861
1313.35239	0.54812
1311.42383	0.54736
1309.49526	0.54650
1307.56670	0.54573
1305.63813	0.54497
1303.70957	0.54418
1301.78101	0.54346
1299.85244	0.54268
1297.92388	0.54188
1295.99531	0.54116
1294.06675	0.54045
1292.13818	0.53972
1290.20962	0.53900
1288.28105	0.53832
1286.35249	0.53768
1284.42393	0.53709
1282.49536	0.53639
1280.56680	0.53564
1278.63823	0.53506
1276.70967	0.53455
1274.78110	0.53390
1272.85254	0.53326
1270.92397	0.53274
1268.99541	0.53220
1267.06685	0.53168
1265.13828	0.53131
1263.20972	0.53098
1261.28115	0.53052
1259.35259	0.52992
1257.42402	0.52931
1255.49546	0.52881
1253.56689	0.52854
1251.63833	0.52846
1249.70977	0.52839
1247.78120	0.52823
1245.85264	0.52798
1243.92407	0.52751
1241.99551	0.52680
1240.06694	0.52614
1238.13838	0.52549
1236.20981	0.52459
1234.28125	0.52350
1232.35269	0.52251
1230.42412	0.52171
1228.49556	0.52097
1226.56699	0.52025
1224.63843	0.51947
1222.70986	0.51858
1220.78130	0.51776
1218.85273	0.51713
1216.92417	0.51647
1214.99561	0.51566
1213.06704	0.51478
1211.13848	0.51392
1209.20991	0.51317
1207.28135	0.51256
1205.35278	0.51207
1203.42422	0.51159
1201.49565	0.51106
1199.56709	0.51053
1197.63853	0.51005
1195.70996	0.50961
1193.78140	0.50914
1191.85283	0.50862
1189.92427	0.50819
1187.99570	0.50793
1186.06714	0.50794
1184.13857	0.50817
1182.21001	0.50833
1180.28145	0.50839
1178.35288	0.50862
1176.42432	0.50907
1174.49575	0.50963
1172.56719	0.51027
1170.63862	0.51082
1168.71006	0.51121
1166.78149	0.51160
1164.85293	0.51200
1162.92437	0.51211
1160.99580	0.51194
1159.06724	0.51178
1157.13867	0.51146
1155.21011	0.51069
1153.28154	0.50950
1151.35298	0.50806
1149.42441	0.50639
1147.49585	0.50437
1145.56729	0.50203
1143.63872	0.49963
1141.71016	0.49731
1139.78159	0.49513
1137.85303	0.49316
1135.92446	0.49129
1133.99590	0.48943
1132.06733	0.48779
1130.13877	0.48643
1128.21021	0.48521
1126.28164	0.48408
1124.35308	0.48295
1122.42451	0.48195
1120.49595	0.48124
1118.56738	0.48081
1116.63882	0.48057
1114.71025	0.48053
1112.78169	0.48059
1110.85312	0.48066
1108.92456	0.48098
1106.99600	0.48163
1105.06743	0.48261
1103.13887	0.48415
1101.21030	0.48608
1099.28174	0.48801
1097.35317	0.49000
1095.42461	0.49260
1093.49604	0.49607
1091.56748	0.50031
1089.63892	0.50534
1087.71035	0.51117
1085.78179	0.51769
1083.85322	0.52489
1081.92466	0.53226
1079.99609	0.53832
1078.06753	0.54181
1076.13896	0.54256
1074.21040	0.54076
1072.28184	0.53656
1070.35327	0.53040
1068.42471	0.52329
1066.49614	0.51656
1064.56758	0.51072
1062.63901	0.50538
1060.71045	0.50015
1058.78188	0.49535
1056.85332	0.49131
1054.92476	0.48785
1052.99619	0.48495
1051.06763	0.48269
1049.13906	0.48101
1047.21050	0.47971
1045.28193	0.47852
1043.35337	0.47735
1041.42480	0.47639
1039.49624	0.47576
1037.56768	0.47547
1035.63911	0.47531
1033.71055	0.47507
1031.78198	0.47473
1029.85342	0.47437
1027.92485	0.47408
1025.99629	0.47394
1024.06772	0.47406
1022.13916	0.47451
1020.21060	0.47518
1018.28203	0.47591
1016.35347	0.47663
1014.42490	0.47734
1012.49634	0.47804
1010.56777	0.47900
1008.63921	0.48063
1006.71064	0.48257
1004.78208	0.48438
1002.85352	0.48641
1000.92495	0.48900
998.99639	0.49204
997.06782	0.49550
995.13926	0.49942
993.21069	0.50345
991.28213	0.50690
989.35356	0.50939
987.42500	0.51090
985.49644	0.51162
983.56787	0.51222
981.63931	0.51319
979.71074	0.51451
977.78218	0.51627
975.85361	0.51872
973.92505	0.52180
971.99648	0.52512
970.06792	0.52838
968.13936	0.53182
966.21079	0.53592
964.28223	0.54075
962.35366	0.54582
960.42510	0.55103
958.49653	0.55667
956.56797	0.56270
954.63940	0.56891
952.71084	0.57516
950.78228	0.58138
948.85371	0.58784
946.92515	0.59440
944.99658	0.60034
943.06802	0.60579
941.13945	0.61165
939.21089	0.61793
937.28232	0.62413
935.35376	0.63024
933.42520	0.63630
931.49663	0.64207
929.56807	0.64751
927.63950	0.65315
925.71094	0.65946
923.78237	0.66598
921.85381	0.67266
919.92524	0.68019
917.99668	0.68822
916.06812	0.69559
914.13955	0.70248
912.21099	0.70987
910.28242	0.71747
908.35386	0.72536
906.42529	0.73448
904.49673	0.74429
902.56816	0.75335
900.63960	0.76239
898.71104	0.77295
896.78247	0.78314
894.85391	0.79208
892.92534	0.80197
890.99678	0.81262
889.06821	0.82322
887.13965	0.83407
885.21108	0.84480
883.28252	0.85576
881.35396	0.86720
879.42539	0.87881
877.49683	0.89047
875.56826	0.90276
873.63970	0.91624
871.71113	0.92909
869.78257	0.93971
867.85400	0.94963
865.92544	0.96025
863.99687	0.97196
862.06831	0.98409
860.13975	0.99481
858.21118	1.00580
856.28262	1.01853
854.35405	1.03109
852.42549	1.04354
850.49692	1.05578
848.56836	1.06701
846.63979	1.07879
844.71123	1.09124
842.78267	1.10330
840.85410	1.11566
838.92554	1.12649
836.99697	1.13548
835.06841	1.14809
833.13984	1.16473
831.21128	1.18197
829.28271	1.19741
827.35415	1.20534
825.42559	1.20839
823.49702	1.21832
821.56846	1.23453
819.63989	1.25018
817.71133	1.26641
815.78276	1.28096
813.85420	1.28870
811.92563	1.29540
809.99707	1.30771
808.06851	1.32204
806.13994	1.34148
804.21138	1.37565
802.28281	1.41425
800.35425	1.45144
798.42568	1.49847
796.49712	1.53088
794.56855	1.55272
792.63999	1.61195
790.71143	1.65984
788.78286	1.64423
786.85430	1.66713
784.92573	1.68669
782.99717	1.55887
781.06860	1.43783
779.14004	1.40536
777.21147	1.42423
775.28291	1.45347
773.35435	1.48956
771.42578	1.56739
769.49722	1.62080
767.56865	1.61473
765.64009	1.51436
763.71152	1.38415
761.78296	1.30028
759.85439	1.22036
757.92583	1.14826
755.99727	1.13749
754.06870	1.18777
752.14014	1.25044
750.21157	1.26823
748.28301	1.17360
746.35444	1.02453
744.42588	0.90825
742.49731	0.82276
740.56875	0.75611
738.64019	0.71483
736.71162	0.70982
734.78306	0.76639
732.85449	0.78668
730.92593	0.58763
728.99736	0.43810
727.06880	0.37785
725.14023	0.30849
723.21167	0.21442
721.28311	0.00161
719.35454	-0.05617
717.42598	0.07620
715.49741	0.13491
713.56885	0.13210
711.64028	0.14666
709.71172	0.24573
707.78315	0.31046
705.85459	0.26511
703.92603	0.19053
701.99746	0.14799
700.06890	0.16041
698.14033	0.26027
696.21177	0.38696
694.28320	0.41999
692.35464	0.36754
690.42607	0.29070
688.49751	0.23515
686.56895	0.22779
684.64038	0.25830
682.71182	0.30616
680.78325	0.39442
678.85469	0.48476
676.92612	0.48094
674.99756	0.45396
673.06899	0.44475
671.14043	0.44645
669.21187	0.46866
667.28330	0.47281
665.35474	0.43163
663.42617	0.37455
661.49761	0.32038
659.56904	0.25961
657.64048	0.23192
655.71191	0.29923
653.78335	0.41822
651.85479	0.35028
649.92622	0.21703
647.99766	0.16455
646.06909	0.16135
644.14053	0.13357
642.21196	0.12373
640.28340	0.17479
638.35483	0.25136
636.42627	0.35346
634.49771	0.50698
632.56914	0.60392
630.64058	0.44038
628.71201	0.29345
626.78345	0.26738
624.85488	0.31094
622.92632	0.37467
620.99775	0.42911
619.06919	0.46941
617.14062	0.46698
615.21206	0.44988
613.28350	0.37777
611.35493	0.27232
609.42637	0.24578
607.49780	0.26977
605.56924	0.26075
603.64067	0.24752
601.71211	0.28820
599.78354	0.33287
597.85498	0.24911
595.92642	0.16227
593.99785	0.16795
592.06929	0.24486
590.14072	0.29620
588.21216	0.29147
586.28359	0.23600
584.35503	0.19309
582.42646	0.20696
580.49790	0.23920
578.56934	0.26341
576.64077	0.30649
574.71221	0.34915
572.78364	0.31192
570.85508	0.24201
568.92651	0.23820
566.99795	0.31589
565.06938	0.41809
563.14082	0.42894
561.21226	0.36632
559.28369	0.38363
557.35513	0.46247
555.42656	0.45390
553.49800	0.43670
551.56943	0.40808
549.64087	0.33136
547.71230	0.28358
545.78374	0.30204
543.85518	0.37180
541.92661	0.37284
539.99805	0.29820
538.06948	0.28259
536.14092	0.37615
534.21235	0.52010
532.28379	0.45765
530.35522	0.25905
528.42666	0.19494
526.49810	0.21081
524.56953	0.23140
522.64097	0.27369
520.71240	0.30807
518.78384	0.30285
516.85527	0.30069
514.92671	0.31359
512.99814	0.29701
511.06958	0.24151
509.14102	0.23168
507.21245	0.28663
505.28389	0.34525
503.35532	0.36779
501.42676	0.36460
499.49819	0.28266
