3997.91411	0.06880
3995.98555	0.06875
3994.05698	0.06899
3992.12842	0.06970
3990.19985	0.06984
3988.27129	0.06957
3986.34272	0.07000
3984.41416	0.07094
3982.48560	0.07153
3980.55703	0.07144
3978.62847	0.07109
3976.69990	0.07102
3974.77134	0.07127
3972.84277	0.07155
3970.91421	0.07171
3968.98564	0.07194
3967.05708	0.07215
3965.12852	0.07181
3963.19995	0.07143
3961.27139	0.07183
3959.34282	0.07247
3957.41426	0.07257
3955.48569	0.07251
3953.55713	0.07257
3951.62856	0.07257
3949.70000	0.07280
3947.77144	0.07326
3945.84287	0.07321
3943.91431	0.07269
3941.98574	0.07245
3940.05718	0.07260
3938.12861	0.07284
3936.20005	0.07304
3934.27148	0.07309
3932.34292	0.07306
3930.41436	0.07315
3928.48579	0.07326
3926.55723	0.07321
3924.62866	0.07307
3922.70010	0.07284
3920.77153	0.07273
3918.84297	0.07298
3916.91440	0.07325
3914.98584	0.07314
3913.05728	0.07245
3911.12871	0.07163
3909.20015	0.07148
3907.27158	0.07188
3905.34302	0.07235
3903.41445	0.07299
3901.48589	0.07335
3899.55732	0.07307
3897.62876	0.07231
3895.70020	0.07180
3893.77163	0.07242
3891.84307	0.07371
3889.91450	0.07403
3887.98594	0.07313
3886.05737	0.07261
3884.12881	0.07291
3882.20024	0.07338
3880.27168	0.07400
3878.34312	0.07432
3876.41455	0.07387
3874.48599	0.07358
3872.55742	0.07383
3870.62886	0.07437
3868.70029	0.07509
3866.77173	0.07534
3864.84316	0.07519
3862.91460	0.07509
3860.98604	0.07514
3859.05747	0.07554
3857.12891	0.07617
3855.20034	0.07693
3853.27178	0.07834
3851.34321	0.07978
3849.41465	0.07943
3847.48608	0.07835
3845.55752	0.07803
3843.62896	0.07928
3841.70039	0.08144
3839.77183	0.08308
3837.84326	0.08395
3835.91470	0.08419
3833.98613	0.08406
3832.05757	0.08407
3830.12900	0.08429
3828.20044	0.08457
3826.27187	0.08514
3824.34331	0.08599
3822.41475	0.08709
3820.48618	0.08893
3818.55762	0.09060
3816.62905	0.09135
3814.70049	0.09170
3812.77192	0.09148
3810.84336	0.09139
3808.91479	0.09218
3806.98623	0.09385
3805.05767	0.09560
3803.12910	0.09707
3801.20054	0.09925
3799.27197	0.10105
3797.34341	0.10107
3795.41484	0.10098
3793.48628	0.10148
3791.55771	0.10232
3789.62915	0.10330
3787.70059	0.10427
3785.77202	0.10532
3783.84346	0.10666
3781.91489	0.10823
3779.98633	0.11004
3778.05776	0.11194
3776.12920	0.11321
3774.20063	0.11418
3772.27207	0.11566
3770.34351	0.11797
3768.41494	0.12069
3766.48638	0.12289
3764.55781	0.12465
3762.62925	0.12611
3760.70068	0.12794
3758.77212	0.13087
3756.84355	0.13384
3754.91499	0.13589
3752.98643	0.13807
3751.05786	0.14168
3749.12930	0.14613
3747.20073	0.14930
3745.27217	0.15203
3743.34360	0.15532
3741.41504	0.15789
3739.48647	0.15996
3737.55791	0.16309
3735.62935	0.16817
3733.70078	0.17444
3731.77222	0.17974
3729.84365	0.18386
3727.91509	0.18764
3725.98652	0.19246
3724.05796	0.19869
3722.12939	0.20552
3720.20083	0.21262
3718.27227	0.21953
3716.34370	0.22635
3714.41514	0.23364
3712.48657	0.24291
3710.55801	0.25621
3708.62944	0.27038
3706.70088	0.28157
3704.77231	0.29213
3702.84375	0.30481
3700.91519	0.32151
3698.98662	0.33998
3697.05806	0.35771
3695.12949	0.37627
3693.20093	0.39555
3691.27236	0.41631
3689.34380	0.44348
3687.41523	0.47746
3685.48667	0.50722
3683.55811	0.53282
3681.62954	0.56062
3679.70098	0.59168
3677.77241	0.62372
3675.84385	0.66176
3673.91528	0.71409
3671.98672	0.75736
3670.05815	0.79509
3668.12959	0.84678
3666.20103	0.89433
3664.27246	0.93431
3662.34390	0.97765
3660.41533	1.02418
3658.48677	1.06925
3656.55820	1.11705
3654.62964	1.17075
3652.70107	1.21642
3650.77251	1.25673
3648.84395	1.31195
3646.91538	1.37908
3644.98682	1.42843
3643.05825	1.46623
3641.12969	1.50516
3639.20112	1.54911
3637.27256	1.59397
3635.34399	1.63684
3633.41543	1.67879
3631.48687	1.71809
3629.55830	1.75827
3627.62974	1.81050
3625.70117	1.85852
3623.77261	1.89101
3621.84404	1.92291
3619.91548	1.96036
3617.98691	2.00613
3616.05835	2.05008
3614.12979	2.08684
3612.20122	2.12546
3610.27266	2.16305
3608.34409	2.20058
3606.41553	2.24270
3604.48696	2.28260
3602.55840	2.31767
3600.62983	2.35507
3598.70127	2.39488
3596.77271	2.43273
3594.84414	2.47248
3592.91558	2.51570
3590.98701	2.55494
3589.05845	2.58916
3587.12988	2.63113
3585.20132	2.68038
3583.27275	2.72242
3581.34419	2.75920
3579.41562	2.79800
3577.48706	2.84020
3575.55850	2.88204
3573.62993	2.92299
3571.70137	2.96372
3569.77280	3.00397
3567.84424	3.04694
3565.91567	3.09904
3563.98711	3.15008
3562.05854	3.19257
3560.12998	3.23455
3558.20142	3.27916
3556.27285	3.32493
3554.34429	3.36898
3552.41572	3.41168
3550.48716	3.45346
3548.55859	3.49388
3546.63003	3.53587
3544.70146	3.58618
3542.77290	3.63930
3540.84434	3.68555
3538.91577	3.72878
3536.98721	3.77248
3535.05864	3.81723
3533.13008	3.86266
3531.20151	3.91145
3529.27295	3.96438
3527.34438	4.01744
3525.41582	4.06654
3523.48726	4.11313
3521.55869	4.16130
3519.63013	4.20786
3517.70156	4.25306
3515.77300	4.30068
3513.84443	4.34942
3511.91587	4.39742
3509.98730	4.44705
3508.05874	4.49612
3506.13018	4.53861
3504.20161	4.58178
3502.27305	4.63550
3500.34448	4.68611
3498.41592	4.72195
3496.48735	4.76039
3494.55879	4.80932
3492.63022	4.85885
3490.70166	4.90795
3488.77310	4.96010
3486.84453	5.01279
3484.91597	5.06071
3482.98740	5.10489
3481.05884	5.15174
3479.13027	5.19892
3477.20171	5.24350
3475.27314	5.29125
3473.34458	5.34583
3471.41602	5.40090
3469.48745	5.45155
3467.55889	5.50469
3465.63032	5.55885
3463.70176	5.60554
3461.77319	5.64970
3459.84463	5.69826
3457.91606	5.74499
3455.98750	5.79056
3454.05894	5.83923
3452.13037	5.88766
3450.20181	5.94240
3448.27324	6.00243
3446.34468	6.04988
3444.41611	6.08747
3442.48755	6.13988
3440.55898	6.20410
3438.63042	6.26005
3436.70186	6.29521
3434.77329	6.32564
3432.84473	6.38239
3430.91616	6.44553
3428.98760	6.48417
3427.05903	6.51866
3425.13047	6.56493
3423.20190	6.61014
3421.27334	6.66594
3419.34478	6.73472
3417.41621	6.80110
3415.48765	6.85424
3413.55908	6.87601
3411.63052	6.88025
3409.70195	6.90326
3407.77339	6.95131
3405.84482	6.99684
3403.91626	7.05168
3401.98770	7.12133
3400.05913	7.17723
3398.13057	7.20648
3396.20200	7.22814
3394.27344	7.27909
3392.34487	7.34071
3390.41631	7.37744
3388.48774	7.38183
3386.55918	7.38447
3384.63062	7.39387
3382.70205	7.41983
3380.77349	7.48800
3378.84492	7.56018
3376.91636	7.58020
3374.98779	7.55532
3373.05923	7.54864
3371.13066	7.58972
3369.20210	7.65828
3367.27354	7.67998
3365.34497	7.67921
3363.41641	7.73705
3361.48784	7.80225
3359.55928	7.81706
3357.63071	7.84744
3355.70215	7.92743
3353.77358	7.94733
3351.84502	7.94011
3349.91646	7.96699
3347.98789	7.97715
3346.05933	7.97552
3344.13076	7.98619
3342.20220	7.98696
3340.27363	7.94580
3338.34507	7.92998
3336.41650	7.97818
3334.48794	8.03333
3332.55937	8.02753
3330.63081	7.99011
3328.70225	7.96226
3326.77368	7.96065
3324.84512	8.02169
3322.91655	8.11240
3320.98799	8.18099
3319.05942	8.19325
3317.13086	8.16976
3315.20229	8.16200
3313.27373	8.18053
3311.34517	8.14613
3309.41660	8.05820
3307.48804	8.03138
3305.55947	8.02980
3303.63091	7.98654
3301.70234	7.96129
3299.77378	7.98688
3297.84521	8.02878
3295.91665	8.09619
3293.98809	8.10608
3292.05952	8.00276
3290.13096	7.93714
3288.20239	8.00071
3286.27383	8.09464
3284.34526	8.06983
3282.41670	7.99614
3280.48813	7.98894
3278.55957	8.11221
3276.63101	8.28003
3274.70244	8.27358
3272.77388	8.18516
3270.84531	8.14761
3268.91675	8.09547
3266.98818	7.99569
3265.05962	7.94292
3263.13105	8.00730
3261.20249	8.11102
3259.27393	8.11958
3257.34536	8.05548
3255.41680	8.04837
3253.48823	8.16058
3251.55967	8.28413
3249.63110	8.28369
3247.70254	8.24500
3245.77397	8.19684
3243.84541	8.12037
3241.91685	8.05686
3239.98828	8.00562
3238.05972	8.01001
3236.13115	8.11325
3234.20259	8.20281
3232.27402	8.14876
3230.34546	8.07261
3228.41689	8.09006
3226.48833	8.14898
3224.55977	8.16422
3222.63120	8.10548
3220.70264	8.00534
3218.77407	7.89824
3216.84551	7.83332
3214.91694	7.84445
3212.98838	7.88994
3211.05981	7.89803
3209.13125	7.84590
3207.20269	7.82741
3205.27412	7.88874
3203.34556	7.89551
3201.41699	7.81359
3199.48843	7.79942
3197.55986	7.87181
3195.63130	7.86202
3193.70273	7.74677
3191.77417	7.65371
3189.84561	7.59825
3187.91704	7.53658
3185.98848	7.44722
3184.05991	7.35770
3182.13135	7.31736
3180.20278	7.29849
3178.27422	7.22422
3176.34565	7.13309
3174.41709	7.11219
3172.48853	7.12051
3170.55996	7.08389
3168.63140	7.01313
3166.70283	6.92717
3164.77427	6.84770
3162.84570	6.78938
3160.91714	6.73313
3158.98857	6.67924
3157.06001	6.63238
3155.13145	6.57653
3153.20288	6.50338
3151.27432	6.42776
3149.34575	6.35769
3147.41719	6.28264
3145.48862	6.20925
3143.56006	6.14437
3141.63149	6.06882
3139.70293	5.97910
3137.77437	5.90509
3135.84580	5.85545
3133.91724	5.80399
3131.98867	5.73266
3130.06011	5.65155
3128.13154	5.57288
3126.20298	5.49418
3124.27441	5.41259
3122.34585	5.33522
3120.41729	5.27235
3118.48872	5.21904
3116.56016	5.16167
3114.63159	5.09214
3112.70303	5.01230
3110.77446	4.93186
3108.84590	4.85745
3106.91733	4.79067
3104.98877	4.72588
3103.06021	4.65687
3101.13164	4.58546
3099.20308	4.51565
3097.27451	4.44719
3095.34595	4.38102
3093.41738	4.31861
3091.48882	4.25489
3089.56025	4.18692
3087.63169	4.11785
3085.70312	4.05139
3083.77456	3.98891
3081.84600	3.92913
3079.91743	3.87074
3077.98887	3.81213
3076.06030	3.75014
3074.13174	3.68580
3072.20317	3.62383
3070.27461	3.56278
3068.34604	3.49955
3066.41748	3.43827
3064.48892	3.38318
3062.56035	3.33102
3060.63179	3.27677
3058.70322	3.22030
3056.77466	3.16441
3054.84609	3.11051
3052.91753	3.05888
3050.98896	3.00854
3049.06040	2.95666
3047.13184	2.90430
3045.20327	2.85456
3043.27471	2.80593
3041.34614	2.75671
3039.41758	2.70802
3037.48901	2.66029
3035.56045	2.61359
3033.63188	2.56877
3031.70332	2.52487
3029.77476	2.48093
3027.84619	2.43779
3025.91763	2.39443
3023.98906	2.35025
3022.06050	2.30755
3020.13193	2.26676
3018.20337	2.22655
3016.27480	2.18744
3014.34624	2.14945
3012.41768	2.11119
3010.48911	2.07278
3008.56055	2.03516
3006.63198	1.99859
3004.70342	1.96303
3002.77485	1.92799
3000.84629	1.89299
2998.91772	1.85824
2996.98916	1.82404
2995.06060	1.79041
2993.13203	1.75746
2991.20347	1.72562
2989.27490	1.69483
2987.34634	1.66387
2985.41777	1.63244
2983.48921	1.60163
2981.56064	1.57175
2979.63208	1.54246
2977.70352	1.51349
2975.77495	1.48488
2973.84639	1.45697
2971.91782	1.42989
2969.98926	1.40322
2968.06069	1.37664
2966.13213	1.35063
2964.20356	1.32566
2962.27500	1.30136
2960.34644	1.27695
2958.41787	1.25270
2956.48931	1.22959
2954.56074	1.20738
2952.63218	1.18506
2950.70361	1.16257
2948.77505	1.14054
2946.84648	1.11910
2944.91792	1.09818
2942.98936	1.07754
2941.06079	1.05677
2939.13223	1.03615
2937.20366	1.01615
2935.27510	0.99687
2933.34653	0.97853
2931.41797	0.96091
2929.48940	0.94299
2927.56084	0.92465
2925.63228	0.90709
2923.70371	0.89094
2921.77515	0.87536
2919.84658	0.85939
2917.91802	0.84307
2915.98945	0.82750
2914.06089	0.81301
2912.13232	0.79846
2910.20376	0.78372
2908.27520	0.76940
2906.34663	0.75575
2904.41807	0.74281
2902.48950	0.73017
2900.56094	0.71728
2898.63237	0.70427
2896.70381	0.69156
2894.77524	0.67917
2892.84668	0.66710
2890.91812	0.65545
2888.98955	0.64421
2887.06099	0.63324
2885.13242	0.62236
2883.20386	0.61149
2881.27529	0.60074
2879.34673	0.59013
2877.41816	0.57957
2875.48960	0.56956
2873.56104	0.56016
2871.63247	0.55057
2869.70391	0.54084
2867.77534	0.53147
2865.84678	0.52223
2863.91821	0.51296
2861.98965	0.50392
2860.06108	0.49512
2858.13252	0.48650
2856.20396	0.47796
2854.27539	0.46984
2852.34683	0.46257
2850.41826	0.45555
2848.48970	0.44810
2846.56113	0.44062
2844.63257	0.43360
2842.70400	0.42708
2840.77544	0.42093
2838.84687	0.41492
2836.91831	0.40907
2834.98975	0.40345
2833.06118	0.39780
2831.13262	0.39194
2829.20405	0.38608
2827.27549	0.38042
2825.34692	0.37491
2823.41836	0.36922
2821.48979	0.36330
2819.56123	0.35748
2817.63267	0.35204
2815.70410	0.34684
2813.77554	0.34182
2811.84697	0.33700
2809.91841	0.33213
2807.98984	0.32709
2806.06128	0.32214
2804.13271	0.31738
2802.20415	0.31269
2800.27559	0.30807
2798.34702	0.30365
2796.41846	0.29940
2794.48989	0.29529
2792.56133	0.29128
2790.63276	0.28733
2788.70420	0.28338
2786.77563	0.27937
2784.84707	0.27541
2782.91851	0.27169
2780.98994	0.26823
2779.06138	0.26478
2777.13281	0.26108
2775.20425	0.25736
2773.27568	0.25396
2771.34712	0.25085
2769.41855	0.24777
2767.48999	0.24460
2765.56143	0.24141
2763.63286	0.23838
2761.70430	0.23554
2759.77573	0.23269
2757.84717	0.22976
2755.91860	0.22679
2753.99004	0.22390
2752.06147	0.22121
2750.13291	0.21863
2748.20435	0.21601
2746.27578	0.21347
2744.34722	0.21104
2742.41865	0.20867
2740.49009	0.20642
2738.56152	0.20434
2736.63296	0.20227
2734.70439	0.20015
2732.77583	0.19809
2730.84727	0.19618
2728.91870	0.19424
2726.99014	0.19213
2725.06157	0.18998
2723.13301	0.18797
2721.20444	0.18604
2719.27588	0.18411
2717.34731	0.18235
2715.41875	0.18081
2713.49019	0.17932
2711.56162	0.17778
2709.63306	0.17620
2707.70449	0.17461
2705.77593	0.17299
2703.84736	0.17139
2701.91880	0.16996
2699.99023	0.16872
2698.06167	0.16744
2696.13311	0.16608
2694.20454	0.16485
2692.27598	0.16363
2690.34741	0.16233
2688.41885	0.16114
2686.49028	0.16022
2684.56172	0.15937
2682.63315	0.15826
2680.70459	0.15711
2678.77603	0.15608
2676.84746	0.15508
2674.91890	0.15412
2672.99033	0.15328
2671.06177	0.15251
2669.13320	0.15172
2667.20464	0.15084
2665.27607	0.14993
2663.34751	0.14917
2661.41895	0.14863
2659.49038	0.14809
2657.56182	0.14744
2655.63325	0.14671
2653.70469	0.14607
2651.77612	0.14544
2649.84756	0.14468
2647.91899	0.14402
2645.99043	0.14369
2644.06187	0.14356
2642.13330	0.14325
2640.20474	0.14272
2638.27617	0.14226
2636.34761	0.14192
2634.41904	0.14161
2632.49048	0.14137
2630.56191	0.14114
2628.63335	0.14085
2626.70479	0.14060
2624.77622	0.14049
2622.84766	0.14032
2620.91909	0.14001
2618.99053	0.13974
2617.06196	0.13966
2615.13340	0.13987
2613.20483	0.14013
2611.27627	0.14003
2609.34771	0.13989
2607.41914	0.14015
2605.49058	0.14043
2603.56201	0.14038
2601.63345	0.14023
2599.70488	0.14027
2597.77632	0.14041
2595.84775	0.14047
2593.91919	0.14047
2591.99062	0.14062
2590.06206	0.14107
2588.13350	0.14166
2586.20493	0.14221
2584.27637	0.14261
2582.34780	0.14281
2580.41924	0.14295
2578.49067	0.14322
2576.56211	0.14348
2574.63354	0.14385
2572.70498	0.14442
2570.77642	0.14487
2568.84785	0.14512
2566.91929	0.14540
2564.99072	0.14588
2563.06216	0.14660
2561.13359	0.14731
2559.20503	0.14783
2557.27646	0.14833
2555.34790	0.14888
2553.41934	0.14933
2551.49077	0.14981
2549.56221	0.15052
2547.63364	0.15134
2545.70508	0.15204
2543.77651	0.15262
2541.84795	0.15328
2539.91938	0.15405
2537.99082	0.15479
2536.06226	0.15536
2534.13369	0.15584
2532.20513	0.15635
2530.27656	0.15710
2528.34800	0.15814
2526.41943	0.15922
2524.49087	0.16020
2522.56230	0.16117
2520.63374	0.16209
2518.70518	0.16290
2516.77661	0.16359
2514.84805	0.16425
2512.91948	0.16510
2510.99092	0.16610
2509.06235	0.16701
2507.13379	0.16784
2505.20522	0.16864
2503.27666	0.16942
2501.34810	0.17022
2499.41953	0.17111
2497.49097	0.17209
2495.56240	0.17305
2493.63384	0.17401
2491.70527	0.17497
2489.77671	0.17588
2487.84814	0.17677
2485.91958	0.17771
2483.99102	0.17863
2482.06245	0.17947
2480.13389	0.18038
2478.20532	0.18139
2476.27676	0.18233
2474.34819	0.18322
2472.41963	0.18424
2470.49106	0.18541
2468.56250	0.18645
2466.63394	0.18727
2464.70537	0.18806
2462.77681	0.18896
2460.84824	0.18998
2458.91968	0.19109
2456.99111	0.19222
2455.06255	0.19325
2453.13398	0.19419
2451.20542	0.19518
2449.27686	0.19629
2447.34829	0.19745
2445.41973	0.19855
2443.49116	0.19954
2441.56260	0.20052
2439.63403	0.20160
2437.70547	0.20268
2435.77690	0.20373
2433.84834	0.20476
2431.91978	0.20577
2429.99121	0.20684
2428.06265	0.20805
2426.13408	0.20930
2424.20552	0.21047
2422.27695	0.21154
2420.34839	0.21261
2418.41982	0.21374
2416.49126	0.21494
2414.56270	0.21619
2412.63413	0.21741
2410.70557	0.21844
2408.77700	0.21948
2406.84844	0.22068
2404.91987	0.22198
2402.99131	0.22334
2401.06274	0.22467
2399.13418	0.22581
2397.20562	0.22699
2395.27705	0.22838
2393.34849	0.22979
2391.41992	0.23096
2389.49136	0.23199
2387.56279	0.23332
2385.63423	0.23502
2383.70566	0.23677
2381.77710	0.23856
2379.84854	0.24056
2377.91997	0.24266
2375.99141	0.24489
2374.06284	0.24755
2372.13428	0.25074
2370.20571	0.25429
2368.27715	0.25818
2366.34858	0.26190
2364.42002	0.26461
2362.49146	0.26707
2360.56289	0.26945
2358.63433	0.27012
2356.70576	0.26968
2354.77720	0.26961
2352.84863	0.26983
2350.92007	0.26972
2348.99150	0.26962
2347.06294	0.27030
2345.13437	0.27251
2343.20581	0.27616
2341.27725	0.27927
2339.34868	0.28114
2337.42012	0.28285
2335.49155	0.28426
2333.56299	0.28465
2331.63442	0.28503
2329.70586	0.28639
2327.77729	0.28836
2325.84873	0.28998
2323.92017	0.29102
2321.99160	0.29209
2320.06304	0.29335
2318.13447	0.29437
2316.20591	0.29520
2314.27734	0.29614
2312.34878	0.29731
2310.42021	0.29882
2308.49165	0.30043
2306.56309	0.30173
2304.63452	0.30293
2302.70596	0.30443
2300.77739	0.30611
2298.84883	0.30779
2296.92026	0.30955
2294.99170	0.31140
2293.06313	0.31313
2291.13457	0.31471
2289.20601	0.31634
2287.27744	0.31811
2285.34888	0.31981
2283.42031	0.32144
2281.49175	0.32332
2279.56318	0.32565
2277.63462	0.32799
2275.70605	0.33004
2273.77749	0.33204
2271.84893	0.33411
2269.92036	0.33622
2267.99180	0.33836
2266.06323	0.34045
2264.13467	0.34247
2262.20610	0.34444
2260.27754	0.34642
2258.34897	0.34852
2256.42041	0.35073
2254.49185	0.35287
2252.56328	0.35493
2250.63472	0.35707
2248.70615	0.35934
2246.77759	0.36160
2244.84902	0.36373
2242.92046	0.36587
2240.99189	0.36813
2239.06333	0.37042
2237.13477	0.37257
2235.20620	0.37463
2233.27764	0.37678
2231.34907	0.37902
2229.42051	0.38131
2227.49194	0.38363
2225.56338	0.38586
2223.63481	0.38800
2221.70625	0.39001
2219.77769	0.39210
2217.84912	0.39440
2215.92056	0.39668
2213.99199	0.39886
2212.06343	0.40103
2210.13486	0.40308
2208.20630	0.40502
2206.27773	0.40705
2204.34917	0.40929
2202.42061	0.41156
2200.49204	0.41365
2198.56348	0.41569
2196.63491	0.41778
2194.70635	0.41974
2192.77778	0.42152
2190.84922	0.42329
2188.92065	0.42518
2186.99209	0.42715
2185.06353	0.42897
2183.13496	0.43067
2181.20640	0.43238
2179.27783	0.43394
2177.34927	0.43541
2175.42070	0.43703
2173.49214	0.43872
2171.56357	0.44015
2169.63501	0.44138
2167.70645	0.44262
2165.77788	0.44387
2163.84932	0.44511
2161.92075	0.44624
2159.99219	0.44732
2158.06362	0.44841
2156.13506	0.44935
2154.20649	0.45009
2152.27793	0.45089
2150.34937	0.45175
2148.42080	0.45242
2146.49224	0.45291
2144.56367	0.45341
2142.63511	0.45395
2140.70654	0.45436
2138.77798	0.45461
2136.84941	0.45482
2134.92085	0.45497
2132.99229	0.45497
2131.06372	0.45483
2129.13516	0.45463
2127.20659	0.45442
2125.27803	0.45416
2123.34946	0.45376
2121.42090	0.45326
2119.49233	0.45260
2117.56377	0.45178
2115.63521	0.45098
2113.70664	0.45019
2111.77808	0.44928
2109.84951	0.44835
2107.92095	0.44735
2105.99238	0.44616
2104.06382	0.44485
2102.13525	0.44348
2100.20669	0.44208
2098.27812	0.44072
2096.34956	0.43941
2094.42100	0.43814
2092.49243	0.43668
2090.56387	0.43494
2088.63530	0.43311
2086.70674	0.43133
2084.77817	0.42955
2082.84961	0.42773
2080.92104	0.42582
2078.99248	0.42381
2077.06392	0.42167
2075.13535	0.41939
2073.20679	0.41710
2071.27822	0.41487
2069.34966	0.41258
2067.42109	0.41027
2065.49253	0.40808
2063.56396	0.40581
2061.63540	0.40336
2059.70684	0.40072
2057.77827	0.39809
2055.84971	0.39562
2053.92114	0.39320
2051.99258	0.39074
2050.06401	0.38816
2048.13545	0.38547
2046.20688	0.38270
2044.27832	0.37995
2042.34976	0.37723
2040.42119	0.37448
2038.49263	0.37178
2036.56406	0.36920
2034.63550	0.36666
2032.70693	0.36395
2030.77837	0.36109
2028.84980	0.35820
2026.92124	0.35537
2024.99268	0.35264
2023.06411	0.34997
2021.13555	0.34723
2019.20698	0.34445
2017.27842	0.34175
2015.34985	0.33907
2013.42129	0.33633
2011.49272	0.33349
2009.56416	0.33065
2007.63560	0.32795
2005.70703	0.32538
2003.77847	0.32280
2001.84990	0.32009
1999.92134	0.31735
1997.99277	0.31474
1996.06421	0.31230
1994.13564	0.30998
1992.20708	0.30761
1990.27852	0.30505
1988.34995	0.30240
1986.42139	0.29980
1984.49282	0.29736
1982.56426	0.29503
1980.63569	0.29268
1978.70713	0.29035
1976.77856	0.28806
1974.85000	0.28583
1972.92144	0.28375
1970.99287	0.28177
1969.06431	0.27982
1967.13574	0.27791
1965.20718	0.27593
1963.27861	0.27391
1961.35005	0.27196
1959.42148	0.27000
1957.49292	0.26808
1955.56436	0.26632
1953.63579	0.26464
1951.70723	0.26287
1949.77866	0.26116
1947.85010	0.25960
1945.92153	0.25817
1943.99297	0.25687
1942.06440	0.25552
1940.13584	0.25395
1938.20728	0.25233
1936.27871	0.25092
1934.35015	0.24970
1932.42158	0.24848
1930.49302	0.24727
1928.56445	0.24621
1926.63589	0.24516
1924.70732	0.24412
1922.77876	0.24317
1920.85020	0.24224
1918.92163	0.24130
1916.99307	0.24038
1915.06450	0.23951
1913.13594	0.23880
1911.20737	0.23822
1909.27881	0.23754
1907.35024	0.23680
1905.42168	0.23610
1903.49312	0.23544
1901.56455	0.23482
1899.63599	0.23429
1897.70742	0.23385
1895.77886	0.23345
1893.85029	0.23314
1891.92173	0.23288
1889.99316	0.23270
1888.06460	0.23244
1886.13604	0.23216
1884.20747	0.23193
1882.27891	0.23173
1880.35034	0.23166
1878.42178	0.23169
1876.49321	0.23175
1874.56465	0.23173
1872.63608	0.23181
1870.70752	0.23210
1868.77896	0.23264
1866.85039	0.23295
1864.92183	0.23282
1862.99326	0.23271
1861.06470	0.23286
1859.13613	0.23328
1857.20757	0.23368
1855.27900	0.23405
1853.35044	0.23449
1851.42187	0.23511
1849.49331	0.23577
1847.56475	0.23645
1845.63618	0.23720
1843.70762	0.23802
1841.77905	0.23869
1839.85049	0.23925
1837.92192	0.24011
1835.99336	0.24103
1834.06479	0.24194
1832.13623	0.24295
1830.20767	0.24439
1828.27910	0.24595
1826.35054	0.24713
1824.42197	0.24841
1822.49341	0.24963
1820.56484	0.25081
1818.63628	0.25219
1816.70771	0.25382
1814.77915	0.25542
1812.85059	0.25706
1810.92202	0.25899
1808.99346	0.26108
1807.06489	0.26314
1805.13633	0.26517
1803.20776	0.26743
1801.27920	0.26993
1799.35063	0.27273
1797.42207	0.27531
1795.49351	0.27774
1793.56494	0.28055
1791.63638	0.28417
1789.70781	0.28762
1787.77925	0.29023
1785.85068	0.29327
1783.92212	0.29685
1781.99355	0.30076
1780.06499	0.30503
1778.13643	0.30946
1776.20786	0.31360
1774.27930	0.31795
1772.35073	0.32372
1770.42217	0.32995
1768.49360	0.33524
1766.56504	0.34046
1764.63647	0.34591
1762.70791	0.35189
1760.77935	0.35936
1758.85078	0.36633
1756.92222	0.37340
1754.99365	0.38129
1753.06509	0.38851
1751.13652	0.39689
1749.20796	0.40739
1747.27939	0.41792
1745.35083	0.42732
1743.42227	0.43721
1741.49370	0.44786
1739.56514	0.46023
1737.63657	0.47269
1735.70801	0.48351
1733.77944	0.49978
1731.85088	0.51964
1729.92231	0.53537
1727.99375	0.55111
1726.06519	0.56806
1724.13662	0.58656
1722.20806	0.60636
1720.27949	0.62451
1718.35093	0.64579
1716.42236	0.67742
1714.49380	0.70765
1712.56523	0.73219
1710.63667	0.75590
1708.70811	0.78129
1706.77954	0.81007
1704.85098	0.84427
1702.92241	0.87458
1700.99385	0.90415
1699.06528	0.94797
1697.13672	0.98830
1695.20815	1.02952
1693.27959	1.06940
1691.35103	1.10103
1689.42246	1.13681
1687.49390	1.17402
1685.56533	1.20956
1683.63677	1.26450
1681.70820	1.32161
1679.77964	1.35800
1677.85107	1.39225
1675.92251	1.43123
1673.99395	1.47932
1672.06538	1.52243
1670.13682	1.56475
1668.20825	1.61836
1666.27969	1.66049
1664.35112	1.69492
1662.42256	1.73689
1660.49399	1.78403
1658.56543	1.82206
1656.63687	1.85391
1654.70830	1.88385
1652.77974	1.93349
1650.85117	1.98309
1648.92261	2.00362
1646.99404	2.03056
1645.06548	2.06278
1643.13691	2.08481
1641.20835	2.09824
1639.27979	2.10970
1637.35122	2.11793
1635.42266	2.11997
1633.49409	2.11592
1631.56553	2.10759
1629.63696	2.09521
1627.70840	2.07250
1625.77983	2.04544
1623.85127	2.01107
1621.92271	1.96807
1619.99414	1.92933
1618.06558	1.89177
1616.13701	1.83749
1614.20845	1.77982
1612.27988	1.73492
1610.35132	1.68851
1608.42275	1.63816
1606.49419	1.58784
1604.56562	1.54075
1602.63706	1.49480
1600.70850	1.44956
1598.77993	1.40775
1596.85137	1.36838
1594.92280	1.32996
1592.99424	1.29233
1591.06567	1.25756
1589.13711	1.22481
1587.20854	1.19355
1585.27998	1.16406
1583.35142	1.13629
1581.42285	1.11053
1579.49429	1.08797
1577.56572	1.06705
1575.63716	1.04068
1573.70859	1.01695
1571.78003	1.00129
1569.85146	0.98430
1567.92290	0.96453
1565.99434	0.94833
1564.06577	0.93410
1562.13721	0.92209
1560.20864	0.91166
1558.28008	0.89269
1556.35151	0.87526
1554.42295	0.86487
1552.49438	0.85448
1550.56582	0.84417
1548.63726	0.83382
1546.70869	0.82476
1544.78013	0.81675
1542.85156	0.80890
1540.92300	0.80015
1538.99443	0.78822
1537.06587	0.77973
1535.13730	0.77441
1533.20874	0.76774
1531.28018	0.76014
1529.35161	0.75431
1527.42305	0.74868
1525.49448	0.74254
1523.56592	0.73685
1521.63735	0.73097
1519.70879	0.72469
1517.78022	0.71947
1515.85166	0.71416
1513.92310	0.70904
1511.99453	0.70496
1510.06597	0.70155
1508.13740	0.69859
1506.20884	0.69356
1504.28027	0.68797
1502.35171	0.68435
1500.42314	0.68120
1498.49458	0.67782
1496.56602	0.67411
1494.63745	0.67074
1492.70889	0.66806
1490.78032	0.66550
1488.85176	0.66225
1486.92319	0.65868
1484.99463	0.65551
1483.06606	0.65274
1481.13750	0.64998
1479.20894	0.64725
1477.28037	0.64481
1475.35181	0.64241
1473.42324	0.63983
1471.49468	0.63651
1469.56611	0.63322
1467.63755	0.63057
1465.70898	0.62818
1463.78042	0.62569
1461.85186	0.62345
1459.92329	0.62183
1457.99473	0.62024
1456.06616	0.61769
1454.13760	0.61503
1452.20903	0.61301
1450.28047	0.61115
1448.35190	0.60931
1446.42334	0.60752
1444.49478	0.60602
1442.56621	0.60475
1440.63765	0.60338
1438.70908	0.60192
1436.78052	0.60036
1434.85195	0.59868
1432.92339	0.59706
1430.99482	0.59552
1429.06626	0.59396
1427.13770	0.59256
1425.20913	0.59143
1423.28057	0.59022
1421.35200	0.58882
1419.42344	0.58727
1417.49487	0.58554
1415.56631	0.58381
1413.63774	0.58228
1411.70918	0.58094
1409.78062	0.57974
1407.85205	0.57864
1405.92349	0.57752
1403.99492	0.57619
1402.06636	0.57480
1400.13779	0.57368
1398.20923	0.57264
1396.28066	0.57146
1394.35210	0.56997
1392.42354	0.56831
1390.49497	0.56694
1388.56641	0.56589
1386.63784	0.56479
1384.70928	0.56346
1382.78071	0.56211
1380.85215	0.56089
1378.92358	0.55980
1376.99502	0.55890
1375.06646	0.55823
1373.13789	0.55748
1371.20933	0.55647
1369.28076	0.55539
1367.35220	0.55433
1365.42363	0.55336
1363.49507	0.55250
1361.56650	0.55158
1359.63794	0.55054
1357.70937	0.54955
1355.78081	0.54867
1353.85225	0.54787
1351.92368	0.54708
1349.99512	0.54625
1348.06655	0.54533
1346.13799	0.54443
1344.20942	0.54366
1342.28086	0.54291
1340.35229	0.54217
1338.42373	0.54146
1336.49517	0.54063
1334.56660	0.53963
1332.63804	0.53858
1330.70947	0.53758
1328.78091	0.53669
1326.85234	0.53593
1324.92378	0.53520
1322.99521	0.53441
1321.06665	0.53356
1319.13809	0.53274
1317.20952	0.53188
1315.28096	0.53104
1313.35239	0.53036
1311.42383	0.52969
1309.49526	0.52890
1307.56670	0.52813
1305.63813	0.52745
1303.70957	0.52683
1301.78101	0.52620
1299.85244	0.52554
1297.92388	0.52491
1295.99531	0.52426
1294.06675	0.52356
1292.13818	0.52297
1290.20962	0.52250
1288.28105	0.52207
1286.35249	0.52159
1284.42393	0.52101
1282.49536	0.52054
1280.56680	0.52026
1278.63823	0.51990
1276.70967	0.51931
1274.78110	0.51868
1272.85254	0.51828
1270.92397	0.51804
1268.99541	0.51776
1267.06685	0.51730
1265.13828	0.51666
1263.20972	0.51615
1261.28115	0.51590
1259.35259	0.51564
1257.42402	0.51516
1255.49546	0.51464
1253.56689	0.51421
1251.63833	0.51386
1249.70977	0.51365
1247.78120	0.51346
1245.85264	0.51316
1243.92407	0.51283
1241.99551	0.51244
1240.06694	0.51192
1238.13838	0.51144
1236.20981	0.51110
1234.28125	0.51065
1232.35269	0.50989
1230.42412	0.50912
1228.49556	0.50867
1226.56699	0.50830
1224.63843	0.50783
1222.70986	0.50729
1220.78130	0.50667
1218.85273	0.50594
1216.92417	0.50519
1214.99561	0.50455
1213.06704	0.50410
1211.13848	0.50366
1209.20991	0.50309
1207.28135	0.50253
1205.35278	0.50199
1203.42422	0.50139
1201.49565	0.50072
1199.56709	0.50004
1197.63853	0.49951
1195.70996	0.49914
1193.78140	0.49876
1191.85283	0.49823
1189.92427	0.49767
1187.99570	0.49720
1186.06714	0.49692
1184.13857	0.49691
1182.21001	0.49692
1180.28145	0.49675
1178.35288	0.49668
1176.42432	0.49707
1174.49575	0.49775
1172.56719	0.49837
1170.63862	0.49873
1168.71006	0.49892
1166.78149	0.49907
1164.85293	0.49913
1162.92437	0.49910
1160.99580	0.49907
1159.06724	0.49903
1157.13867	0.49865
1155.21011	0.49768
1153.28154	0.49639
1151.35298	0.49506
1149.42441	0.49359
1147.49585	0.49191
1145.56729	0.49008
1143.63872	0.48809
1141.71016	0.48594
1139.78159	0.48367
1137.85303	0.48142
1135.92446	0.47945
1133.99590	0.47771
1132.06733	0.47593
1130.13877	0.47412
1128.21021	0.47251
1126.28164	0.47108
1124.35308	0.46975
1122.42451	0.46872
1120.49595	0.46799
1118.56738	0.46740
1116.63882	0.46699
1114.71025	0.46700
1112.78169	0.46736
1110.85312	0.46763
1108.92456	0.46776
1106.99600	0.46839
1105.06743	0.46975
1103.13887	0.47142
1101.21030	0.47325
1099.28174	0.47534
1097.35317	0.47788
1095.42461	0.48085
1093.49604	0.48413
1091.56748	0.48801
1089.63892	0.49286
1087.71035	0.49853
1085.78179	0.50465
1083.85322	0.51103
1081.92466	0.51733
1079.99609	0.52295
1078.06753	0.52708
1076.13896	0.52848
1074.21040	0.52680
1072.28184	0.52295
1070.35327	0.51781
1068.42471	0.51180
1066.49614	0.50525
1064.56758	0.49874
1062.63901	0.49284
1060.71045	0.48778
1058.78188	0.48351
1056.85332	0.47976
1054.92476	0.47623
1052.99619	0.47293
1051.06763	0.47017
1049.13906	0.46823
1047.21050	0.46680
1045.28193	0.46537
1043.35337	0.46405
1041.42480	0.46317
1039.49624	0.46260
1037.56768	0.46214
1035.63911	0.46184
1033.71055	0.46171
1031.78198	0.46169
1029.85342	0.46180
1027.92485	0.46214
1025.99629	0.46277
1024.06772	0.46352
1022.13916	0.46425
1020.21060	0.46505
1018.28203	0.46605
1016.35347	0.46721
1014.42490	0.46819
1012.49634	0.46908
1010.56777	0.47043
1008.63921	0.47232
1006.71064	0.47438
1004.78208	0.47640
1002.85352	0.47862
1000.92495	0.48132
998.99639	0.48442
997.06782	0.48787
995.13926	0.49158
993.21069	0.49512
991.28213	0.49823
989.35356	0.50084
987.42500	0.50273
985.49644	0.50390
983.56787	0.50492
981.63931	0.50634
979.71074	0.50805
977.78218	0.50990
975.85361	0.51207
973.92505	0.51460
971.99648	0.51754
970.06792	0.52112
968.13936	0.52528
966.21079	0.52964
964.28223	0.53401
962.35366	0.53859
960.42510	0.54356
958.49653	0.54887
956.56797	0.55436
954.63940	0.56015
952.71084	0.56648
950.78228	0.57292
948.85371	0.57927
946.92515	0.58602
944.99658	0.59286
943.06802	0.59934
941.13945	0.60565
939.21089	0.61146
937.28232	0.61663
935.35376	0.62161
933.42520	0.62652
931.49663	0.63151
929.56807	0.63692
927.63950	0.64296
925.71094	0.64942
923.78237	0.65572
921.85381	0.66192
919.92524	0.66831
917.99668	0.67482
916.06812	0.68200
914.13955	0.69005
912.21099	0.69840
910.28242	0.70702
908.35386	0.71630
906.42529	0.72614
904.49673	0.73450
902.56816	0.74036
900.63960	0.74723
898.71104	0.75727
896.78247	0.76780
894.85391	0.77706
892.92534	0.78706
890.99678	0.79847
889.06821	0.80904
887.13965	0.81878
885.21108	0.83000
883.28252	0.84278
881.35396	0.85425
879.42539	0.86280
877.49683	0.87151
875.56826	0.88431
873.63970	0.89899
871.71113	0.91105
869.78257	0.92141
867.85400	0.93278
865.92544	0.94418
863.99687	0.95422
862.06831	0.96501
860.13975	0.97631
858.21118	0.98652
856.28262	0.99842
854.35405	1.01190
852.42549	1.02343
850.49692	1.03367
848.56836	1.04550
846.63979	1.05976
844.71123	1.07334
842.78267	1.08217
840.85410	1.08853
838.92554	1.09803
836.99697	1.11285
835.06841	1.12973
833.13984	1.14247
831.21128	1.15019
829.28271	1.15839
827.35415	1.17088
825.42559	1.18763
823.49702	1.20652
821.56846	1.22065
819.63989	1.22411
817.71133	1.22000
815.78276	1.21998
813.85420	1.22924
811.92563	1.23774
809.99707	1.24294
808.06851	1.25499
806.13994	1.27254
804.21138	1.28316
802.28281	1.28733
800.35425	1.28867
798.42568	1.28881
796.49712	1.29070
794.56855	1.29077
792.63999	1.29938
790.71143	1.31912
788.78286	1.32768
786.85430	1.32143
784.92573	1.29848
782.99717	1.25712
781.06860	1.24928
779.14004	1.29301
777.21147	1.34828
775.28291	1.40407
773.35435	1.45299
771.42578	1.44896
769.49722	1.38068
767.56865	1.36475
765.64009	1.45445
763.71152	1.45669
761.78296	1.32970
759.85439	1.27385
757.92583	1.33827
755.99727	1.42803
754.06870	1.35149
752.14014	1.27846
750.21157	1.27397
748.28301	1.23284
746.35444	1.21437
744.42588	1.23748
742.49731	1.14540
740.56875	1.01229
738.64019	0.93763
736.71162	0.86357
734.78306	0.76714
732.85449	0.68860
730.92593	0.61113
728.99736	0.52852
727.06880	0.50520
725.14023	0.58777
723.21167	1.38726
721.28311	4.32770
719.35454	4.31613
717.42598	0.34680
715.49741	0.02569
713.56885	-0.05890
711.64028	-0.11642
709.71172	-0.25581
707.78315	-0.53440
705.85459	-0.66479
703.92603	-0.25599
701.99746	-0.06199
700.06890	-0.04479
698.14033	0.00175
696.21177	0.17248
694.28320	0.37923
692.35464	0.46516
690.42607	0.44205
688.49751	0.37419
686.56895	0.33612
684.64038	0.38517
682.71182	0.38807
680.78325	0.22830
678.85469	0.12919
676.92612	0.18669
674.99756	0.28532
673.06899	0.38862
671.14043	0.85511
669.21187	4.01527
667.28330	4.00370
665.35474	0.44240
663.42617	0.23853
661.49761	0.19514
659.56904	0.22400
657.64048	0.22827
655.71191	0.16803
653.78335	0.05553
651.85479	-0.02230
649.92622	-0.02375
647.99766	-0.02355
646.06909	-0.00234
644.14053	0.03156
642.21196	0.04209
640.28340	0.10928
638.35483	0.27506
636.42627	0.39596
634.49771	0.40543
632.56914	0.38341
630.64058	0.33809
628.71201	0.32939
626.78345	0.33592
624.85488	0.27696
622.92632	0.21287
620.99775	0.18035
619.06919	0.15871
617.14062	0.16960
615.21206	0.17528
613.28350	0.19430
611.35493	0.28702
609.42637	0.43422
607.49780	0.48838
605.56924	0.40716
603.64067	0.35592
601.71211	0.42183
599.78354	0.95534
597.85498	3.58713
595.92642	0.43122
593.99785	0.19694
592.06929	0.20547
590.14072	0.28257
588.21216	0.26373
586.28359	0.21294
584.35503	0.20800
582.42646	0.19750
580.49790	0.11235
578.56934	0.05138
576.64077	0.14959
574.71221	0.34139
572.78364	0.32014
570.85508	0.24204
568.92651	0.29738
566.99795	0.49318
565.06938	0.42646
563.14082	0.31942
561.21226	0.28212
559.28369	0.19921
557.35513	0.13250
555.42656	0.15334
553.49800	0.21440
551.56943	0.21957
549.64087	0.18255
547.71230	0.16066
545.78374	0.13678
543.85518	0.13141
541.92661	0.17036
539.99805	0.22640
538.06948	0.24799
536.14092	0.25505
534.21235	0.26230
532.28379	0.25630
530.35522	0.25169
528.42666	0.21915
526.49810	0.15256
524.56953	0.12926
522.64097	0.18884
520.71240	0.22999
518.78384	0.19344
516.85527	0.14225
514.92671	0.11955
512.99814	0.15113
511.06958	0.19203
509.14102	0.17630
507.21245	0.14126
505.28389	0.15224
503.35532	0.14520
501.42676	0.11438
499.49819	0.13658
