3997.91411	0.07288
3995.98555	0.07323
3994.05698	0.07330
3992.12842	0.07343
3990.19985	0.07381
3988.27129	0.07400
3986.34272	0.07387
3984.41416	0.07383
3982.48560	0.07410
3980.55703	0.07454
3978.62847	0.07495
3976.69990	0.07527
3974.77134	0.07537
3972.84277	0.07539
3970.91421	0.07562
3968.98564	0.07599
3967.05708	0.07611
3965.12852	0.07592
3963.19995	0.07587
3961.27139	0.07630
3959.34282	0.07689
3957.41426	0.07704
3955.48569	0.07668
3953.55713	0.07622
3951.62856	0.07616
3949.70000	0.07656
3947.77144	0.07707
3945.84287	0.07728
3943.91431	0.07714
3941.98574	0.07692
3940.05718	0.07675
3938.12861	0.07665
3936.20005	0.07633
3934.27148	0.07590
3932.34292	0.07609
3930.41436	0.07670
3928.48579	0.07677
3926.55723	0.07637
3924.62866	0.07622
3922.70010	0.07647
3920.77153	0.07673
3918.84297	0.07670
3916.91440	0.07619
3914.98584	0.07573
3913.05728	0.07590
3911.12871	0.07605
3909.20015	0.07578
3907.27158	0.07559
3905.34302	0.07565
3903.41445	0.07557
3901.48589	0.07552
3899.55732	0.07589
3897.62876	0.07599
3895.70020	0.07564
3893.77163	0.07549
3891.84307	0.07559
3889.91450	0.07579
3887.98594	0.07597
3886.05737	0.07632
3884.12881	0.07686
3882.20024	0.07704
3880.27168	0.07718
3878.34312	0.07729
3876.41455	0.07700
3874.48599	0.07710
3872.55742	0.07752
3870.62886	0.07744
3868.70029	0.07749
3866.77173	0.07767
3864.84316	0.07774
3862.91460	0.07801
3860.98604	0.07797
3859.05747	0.07779
3857.12891	0.07826
3855.20034	0.07926
3853.27178	0.08035
3851.34321	0.08108
3849.41465	0.08071
3847.48608	0.08030
3845.55752	0.08064
3843.62896	0.08143
3841.70039	0.08233
3839.77183	0.08347
3837.84326	0.08495
3835.91470	0.08585
3833.98613	0.08568
3832.05757	0.08556
3830.12900	0.08603
3828.20044	0.08683
3826.27187	0.08783
3824.34331	0.08870
3822.41475	0.08946
3820.48618	0.09071
3818.55762	0.09174
3816.62905	0.09244
3814.70049	0.09348
3812.77192	0.09411
3810.84336	0.09448
3808.91479	0.09505
3806.98623	0.09596
3805.05767	0.09746
3803.12910	0.09900
3801.20054	0.10048
3799.27197	0.10170
3797.34341	0.10222
3795.41484	0.10310
3793.48628	0.10426
3791.55771	0.10499
3789.62915	0.10590
3787.70059	0.10746
3785.77202	0.10907
3783.84346	0.11030
3781.91489	0.11134
3779.98633	0.11256
3778.05776	0.11434
3776.12920	0.11632
3774.20063	0.11825
3772.27207	0.12028
3770.34351	0.12228
3768.41494	0.12398
3766.48638	0.12536
3764.55781	0.12689
3762.62925	0.12845
3760.70068	0.13028
3758.77212	0.13322
3756.84355	0.13650
3754.91499	0.13868
3752.98643	0.14047
3751.05786	0.14345
3749.12930	0.14778
3747.20073	0.15073
3745.27217	0.15300
3743.34360	0.15672
3741.41504	0.16003
3739.48647	0.16177
3737.55791	0.16342
3735.62935	0.16667
3733.70078	0.17214
3731.77222	0.17723
3729.84365	0.18108
3727.91509	0.18498
3725.98652	0.19031
3724.05796	0.19695
3722.12939	0.20374
3720.20083	0.21094
3718.27227	0.21861
3716.34370	0.22649
3714.41514	0.23426
3712.48657	0.24291
3710.55801	0.25466
3708.62944	0.26777
3706.70088	0.27936
3704.77231	0.29067
3702.84375	0.30365
3700.91519	0.32024
3698.98662	0.33829
3697.05806	0.35547
3695.12949	0.37368
3693.20093	0.39288
3691.27236	0.41400
3689.34380	0.44176
3687.41523	0.47587
3685.48667	0.50577
3683.55811	0.53145
3681.62954	0.55896
3679.70098	0.58996
3677.77241	0.62232
3675.84385	0.66049
3673.91528	0.71277
3671.98672	0.75600
3670.05815	0.79417
3668.12959	0.84699
3666.20103	0.89537
3664.27246	0.93547
3662.34390	0.97837
3660.41533	1.02461
3658.48677	1.07021
3656.55820	1.11885
3654.62964	1.17289
3652.70107	1.21790
3650.77251	1.25682
3648.84395	1.31099
3646.91538	1.37819
3644.98682	1.42804
3643.05825	1.46672
3641.12969	1.50615
3639.20112	1.54933
3637.27256	1.59271
3635.34399	1.63492
3633.41543	1.67753
3631.48687	1.71717
3629.55830	1.75617
3627.62974	1.80865
3625.70117	1.85999
3623.77261	1.89476
3621.84404	1.92762
3619.91548	1.96537
3617.98691	2.01065
3616.05835	2.05403
3614.12979	2.09080
3612.20122	2.13032
3610.27266	2.17014
3608.34409	2.20883
3606.41553	2.24926
3604.48696	2.28826
3602.55840	2.32479
3600.62983	2.36381
3598.70127	2.40458
3596.77271	2.44351
3594.84414	2.48339
3592.91558	2.52525
3590.98701	2.56465
3589.05845	2.60109
3587.12988	2.64432
3585.20132	2.69235
3583.27275	2.73306
3581.34419	2.77023
3579.41562	2.81071
3577.48706	2.85532
3575.55850	2.90014
3573.62993	2.94405
3571.70137	2.98622
3569.77280	3.02487
3567.84424	3.06536
3565.91567	3.11805
3563.98711	3.16848
3562.05854	3.20755
3560.12998	3.24823
3558.20142	3.29372
3556.27285	3.34047
3554.34429	3.38619
3552.41572	3.43281
3550.48716	3.47760
3548.55859	3.51966
3546.63003	3.56733
3544.70146	3.62407
3542.77290	3.67824
3540.84434	3.72198
3538.91577	3.76196
3536.98721	3.80488
3535.05864	3.85345
3533.13008	3.90305
3531.20151	3.94948
3529.27295	3.99464
3527.34438	4.04315
3525.41582	4.09505
3523.48726	4.14675
3521.55869	4.19866
3519.63013	4.24843
3517.70156	4.29322
3515.77300	4.33835
3513.84443	4.38986
3511.91587	4.44181
3509.98730	4.48814
3508.05874	4.53262
3506.13018	4.57678
3504.20161	4.61757
3502.27305	4.66194
3500.34448	4.71604
3498.41592	4.76859
3496.48735	4.81700
3494.55879	4.86860
3492.63022	4.92043
3490.70166	4.96770
3488.77310	5.01531
3486.84453	5.06578
3484.91597	5.11038
3482.98740	5.14558
3481.05884	5.18539
3479.13027	5.23858
3477.20171	5.29284
3475.27314	5.34253
3473.34458	5.39657
3471.41602	5.44856
3469.48745	5.49154
3467.55889	5.54544
3465.63032	5.61332
3463.70176	5.67037
3461.77319	5.71287
3459.84463	5.75892
3457.91606	5.81048
3455.98750	5.86409
3454.05894	5.91860
3452.13037	5.96462
3450.20181	6.00309
3448.27324	6.03858
3446.34468	6.07972
3444.41611	6.13974
3442.48755	6.21042
3440.55898	6.27345
3438.63042	6.32399
3436.70186	6.36030
3434.77329	6.39789
3432.84473	6.45321
3430.91616	6.51252
3428.98760	6.56823
3427.05903	6.62033
3425.13047	6.66976
3423.20190	6.71323
3421.27334	6.74289
3419.34478	6.76258
3417.41621	6.80353
3415.48765	6.87039
3413.55908	6.93342
3411.63052	7.00592
3409.70195	7.08247
3407.77339	7.13128
3405.84482	7.15937
3403.91626	7.18066
3401.98770	7.19612
3400.05913	7.23608
3398.13057	7.31442
3396.20200	7.39227
3394.27344	7.43766
3392.34487	7.44663
3390.41631	7.45251
3388.48774	7.48308
3386.55918	7.55723
3384.63062	7.65270
3382.70205	7.73196
3380.77349	7.78508
3378.84492	7.82031
3376.91636	7.85692
3374.98779	7.84146
3373.05923	7.76618
3371.13066	7.69996
3369.20210	7.69704
3367.27354	7.74334
3365.34497	7.77545
3363.41641	7.77971
3361.48784	7.79995
3359.55928	7.85552
3357.63071	7.89680
3355.70215	7.90525
3353.77358	7.93642
3351.84502	8.01350
3349.91646	8.07355
3347.98789	8.09602
3346.05933	8.09234
3344.13076	8.08921
3342.20220	8.14974
3340.27363	8.25860
3338.34507	8.29330
3336.41650	8.19054
3334.48794	8.09173
3332.55937	8.03488
3330.63081	7.97589
3328.70225	7.96198
3326.77368	8.02759
3324.84512	8.11343
3322.91655	8.17110
3320.98799	8.25383
3319.05942	8.32249
3317.13086	8.28262
3315.20229	8.15880
3313.27373	8.05879
3311.34517	8.03641
3309.41660	8.07294
3307.48804	8.14204
3305.55947	8.23827
3303.63091	8.34706
3301.70234	8.44535
3299.77378	8.54472
3297.84521	8.54870
3295.91665	8.40406
3293.98809	8.26055
3292.05952	8.22748
3290.13096	8.28012
3288.20239	8.39009
3286.27383	8.44336
3284.34526	8.30492
3282.41670	8.22044
3280.48813	8.33802
3278.55957	8.49751
3276.63101	8.52501
3274.70244	8.44841
3272.77388	8.38900
3270.84531	8.37420
3268.91675	8.34045
3266.98818	8.30417
3265.05962	8.38224
3263.13105	8.53651
3261.20249	8.59044
3259.27393	8.47422
3257.34536	8.34531
3255.41680	8.31969
3253.48823	8.31636
3251.55967	8.25672
3249.63110	8.14602
3247.70254	8.07066
3245.77397	8.11589
3243.84541	8.22315
3241.91685	8.26843
3239.98828	8.21758
3238.05972	8.13909
3236.13115	8.17965
3234.20259	8.37484
3232.27402	8.49809
3230.34546	8.35971
3228.41689	8.18628
3226.48833	8.16134
3224.55977	8.15119
3222.63120	8.06725
3220.70264	8.04001
3218.77407	8.08957
3216.84551	8.09482
3214.91694	8.07416
3212.98838	8.11917
3211.05981	8.15334
3209.13125	8.08990
3207.20269	8.02536
3205.27412	8.00528
3203.34556	7.98282
3201.41699	7.96784
3199.48843	7.89252
3197.55986	7.72725
3195.63130	7.62690
3193.70273	7.65003
3191.77417	7.69290
3189.84561	7.67640
3187.91704	7.60568
3185.98848	7.49001
3184.05991	7.39121
3182.13135	7.35379
3180.20278	7.32153
3178.27422	7.27802
3176.34565	7.26971
3174.41709	7.26253
3172.48853	7.20347
3170.55996	7.12589
3168.63140	7.05977
3166.70283	6.98230
3164.77427	6.89730
3162.84570	6.83899
3160.91714	6.78487
3158.98857	6.70204
3157.06001	6.62889
3155.13145	6.59035
3153.20288	6.53839
3151.27432	6.44816
3149.34575	6.35925
3147.41719	6.30152
3145.48862	6.25208
3143.56006	6.17548
3141.63149	6.08188
3139.70293	5.99418
3137.77437	5.92335
3135.84580	5.87096
3133.91724	5.82422
3131.98867	5.76639
3130.06011	5.69223
3128.13154	5.61621
3126.20298	5.54957
3124.27441	5.48272
3122.34585	5.40101
3120.41729	5.31284
3118.48872	5.23571
3116.56016	5.17109
3114.63159	5.11151
3112.70303	5.04832
3110.77446	4.97808
3108.84590	4.90402
3106.91733	4.82829
3104.98877	4.75187
3103.06021	4.67776
3101.13164	4.60738
3099.20308	4.54147
3097.27451	4.47810
3095.34595	4.41209
3093.41738	4.34518
3091.48882	4.28113
3089.56025	4.21828
3087.63169	4.15742
3085.70312	4.09933
3083.77456	4.03884
3081.84600	3.97293
3079.91743	3.90453
3077.98887	3.84019
3076.06030	3.78280
3074.13174	3.72868
3072.20317	3.67460
3070.27461	3.61777
3068.34604	3.55843
3066.41748	3.50089
3064.48892	3.44500
3062.56035	3.38810
3060.63179	3.33113
3058.70322	3.27519
3056.77466	3.22032
3054.84609	3.16635
3052.91753	3.11328
3050.98896	3.06182
3049.06040	3.01100
3047.13184	2.95967
3045.20327	2.90948
3043.27471	2.86119
3041.34614	2.81341
3039.41758	2.76615
3037.48901	2.71956
3035.56045	2.67259
3033.63188	2.62582
3031.70332	2.58065
3029.77476	2.53688
3027.84619	2.49337
3025.91763	2.44982
3023.98906	2.40687
3022.06050	2.36504
3020.13193	2.32402
3018.20337	2.28292
3016.27480	2.24211
3014.34624	2.20245
3012.41768	2.16382
3010.48911	2.12553
3008.56055	2.08733
3006.63198	2.05018
3004.70342	2.01450
3002.77485	1.97934
3000.84629	1.94457
2998.91772	1.91050
2996.98916	1.87687
2995.06060	1.84374
2993.13203	1.81163
2991.20347	1.78082
2989.27490	1.75104
2987.34634	1.72177
2985.41777	1.69285
2983.48921	1.66411
2981.56064	1.63534
2979.63208	1.60717
2977.70352	1.58029
2975.77495	1.55440
2973.84639	1.52883
2971.91782	1.50324
2969.98926	1.47803
2968.06069	1.45347
2966.13213	1.42915
2964.20356	1.40514
2962.27500	1.38165
2960.34644	1.35834
2958.41787	1.33438
2956.48931	1.30970
2954.56074	1.28550
2952.63218	1.26215
2950.70361	1.23908
2948.77505	1.21636
2946.84648	1.19410
2944.91792	1.17249
2942.98936	1.15183
2941.06079	1.13206
2939.13223	1.11272
2937.20366	1.09328
2935.27510	1.07345
2933.34653	1.05335
2931.41797	1.03368
2929.48940	1.01498
2927.56084	0.99662
2925.63228	0.97800
2923.70371	0.95969
2921.77515	0.94244
2919.84658	0.92559
2917.91802	0.90830
2915.98945	0.89099
2914.06089	0.87422
2912.13232	0.85797
2910.20376	0.84214
2908.27520	0.82693
2906.34663	0.81249
2904.41807	0.79827
2902.48950	0.78392
2900.56094	0.76988
2898.63237	0.75648
2896.70381	0.74328
2894.77524	0.73001
2892.84668	0.71722
2890.91812	0.70540
2888.98955	0.69427
2887.06099	0.68323
2885.13242	0.67248
2883.20386	0.66218
2881.27529	0.65195
2879.34673	0.64191
2877.41816	0.63229
2875.48960	0.62258
2873.56104	0.61248
2871.63247	0.60228
2869.70391	0.59185
2867.77534	0.58095
2865.84678	0.56972
2863.91821	0.55854
2861.98965	0.54773
2860.06108	0.53759
2858.13252	0.52825
2856.20396	0.51910
2854.27539	0.50988
2852.34683	0.50112
2850.41826	0.49295
2848.48970	0.48484
2846.56113	0.47667
2844.63257	0.46894
2842.70400	0.46195
2840.77544	0.45549
2838.84687	0.44921
2836.91831	0.44296
2834.98975	0.43669
2833.06118	0.43037
2831.13262	0.42420
2829.20405	0.41827
2827.27549	0.41252
2825.34692	0.40693
2823.41836	0.40130
2821.48979	0.39556
2819.56123	0.38979
2817.63267	0.38395
2815.70410	0.37819
2813.77554	0.37278
2811.84697	0.36762
2809.91841	0.36233
2807.98984	0.35686
2806.06128	0.35164
2804.13271	0.34683
2802.20415	0.34199
2800.27559	0.33679
2798.34702	0.33168
2796.41846	0.32702
2794.48989	0.32257
2792.56133	0.31826
2790.63276	0.31424
2788.70420	0.31011
2786.77563	0.30565
2784.84707	0.30132
2782.91851	0.29731
2780.98994	0.29340
2779.06138	0.28949
2777.13281	0.28572
2775.20425	0.28204
2773.27568	0.27822
2771.34712	0.27441
2769.41855	0.27086
2767.48999	0.26751
2765.56143	0.26420
2763.63286	0.26096
2761.70430	0.25789
2759.77573	0.25481
2757.84717	0.25154
2755.91860	0.24828
2753.99004	0.24526
2752.06147	0.24244
2750.13291	0.23964
2748.20435	0.23687
2746.27578	0.23414
2744.34722	0.23140
2742.41865	0.22873
2740.49009	0.22625
2738.56152	0.22372
2736.63296	0.22108
2734.70439	0.21859
2732.77583	0.21629
2730.84727	0.21397
2728.91870	0.21166
2726.99014	0.20968
2725.06157	0.20790
2723.13301	0.20596
2721.20444	0.20382
2719.27588	0.20157
2717.34731	0.19938
2715.41875	0.19755
2713.49019	0.19600
2711.56162	0.19439
2709.63306	0.19265
2707.70449	0.19101
2705.77593	0.18947
2703.84736	0.18779
2701.91880	0.18607
2699.99023	0.18460
2698.06167	0.18339
2696.13311	0.18223
2694.20454	0.18097
2692.27598	0.17970
2690.34741	0.17843
2688.41885	0.17707
2686.49028	0.17570
2684.56172	0.17447
2682.63315	0.17335
2680.70459	0.17225
2678.77603	0.17115
2676.84746	0.17018
2674.91890	0.16929
2672.99033	0.16829
2671.06177	0.16714
2669.13320	0.16610
2667.20464	0.16531
2665.27607	0.16463
2663.34751	0.16383
2661.41895	0.16289
2659.49038	0.16202
2657.56182	0.16135
2655.63325	0.16073
2653.70469	0.16004
2651.77612	0.15930
2649.84756	0.15858
2647.91899	0.15802
2645.99043	0.15761
2644.06187	0.15718
2642.13330	0.15667
2640.20474	0.15609
2638.27617	0.15555
2636.34761	0.15519
2634.41904	0.15488
2632.49048	0.15455
2630.56191	0.15425
2628.63335	0.15385
2626.70479	0.15336
2624.77622	0.15291
2622.84766	0.15260
2620.91909	0.15247
2618.99053	0.15236
2617.06196	0.15207
2615.13340	0.15174
2613.20483	0.15165
2611.27627	0.15180
2609.34771	0.15182
2607.41914	0.15169
2605.49058	0.15164
2603.56201	0.15167
2601.63345	0.15170
2599.70488	0.15180
2597.77632	0.15200
2595.84775	0.15199
2593.91919	0.15170
2591.99062	0.15158
2590.06206	0.15184
2588.13350	0.15213
2586.20493	0.15230
2584.27637	0.15246
2582.34780	0.15267
2580.41924	0.15287
2578.49067	0.15305
2576.56211	0.15337
2574.63354	0.15384
2572.70498	0.15428
2570.77642	0.15468
2568.84785	0.15510
2566.91929	0.15551
2564.99072	0.15578
2563.06216	0.15606
2561.13359	0.15654
2559.20503	0.15701
2557.27646	0.15736
2555.34790	0.15777
2553.41934	0.15831
2551.49077	0.15893
2549.56221	0.15959
2547.63364	0.16020
2545.70508	0.16072
2543.77651	0.16124
2541.84795	0.16182
2539.91938	0.16233
2537.99082	0.16281
2536.06226	0.16352
2534.13369	0.16441
2532.20513	0.16511
2530.27656	0.16565
2528.34800	0.16630
2526.41943	0.16707
2524.49087	0.16781
2522.56230	0.16859
2520.63374	0.16947
2518.70518	0.17030
2516.77661	0.17103
2514.84805	0.17167
2512.91948	0.17227
2510.99092	0.17306
2509.06235	0.17406
2507.13379	0.17492
2505.20522	0.17554
2503.27666	0.17627
2501.34810	0.17731
2499.41953	0.17835
2497.49097	0.17912
2495.56240	0.17980
2493.63384	0.18055
2491.70527	0.18134
2489.77671	0.18212
2487.84814	0.18286
2485.91958	0.18371
2483.99102	0.18471
2482.06245	0.18572
2480.13389	0.18677
2478.20532	0.18778
2476.27676	0.18858
2474.34819	0.18925
2472.41963	0.19001
2470.49106	0.19100
2468.56250	0.19216
2466.63394	0.19313
2464.70537	0.19390
2462.77681	0.19466
2460.84824	0.19552
2458.91968	0.19654
2456.99111	0.19760
2455.06255	0.19855
2453.13398	0.19944
2451.20542	0.20050
2449.27686	0.20161
2447.34829	0.20256
2445.41973	0.20338
2443.49116	0.20433
2441.56260	0.20539
2439.63403	0.20634
2437.70547	0.20724
2435.77690	0.20834
2433.84834	0.20961
2431.91978	0.21080
2429.99121	0.21186
2428.06265	0.21292
2426.13408	0.21404
2424.20552	0.21508
2422.27695	0.21600
2420.34839	0.21700
2418.41982	0.21814
2416.49126	0.21932
2414.56270	0.22045
2412.63413	0.22155
2410.70557	0.22263
2408.77700	0.22376
2406.84844	0.22493
2404.91987	0.22603
2402.99131	0.22703
2401.06274	0.22813
2399.13418	0.22944
2397.20562	0.23086
2395.27705	0.23222
2393.34849	0.23347
2391.41992	0.23463
2389.49136	0.23571
2387.56279	0.23677
2385.63423	0.23774
2383.70566	0.23851
2381.77710	0.23895
2379.84854	0.23892
2377.91997	0.23838
2375.99141	0.23764
2374.06284	0.23680
2372.13428	0.23550
2370.20571	0.23374
2368.27715	0.23176
2366.34858	0.23051
2364.42002	0.23018
2362.49146	0.22992
2360.56289	0.23110
2358.63433	0.23368
2356.70576	0.23605
2354.77720	0.23927
2352.84863	0.24460
2350.92007	0.25026
2348.99150	0.25355
2347.06294	0.25417
2345.13437	0.25321
2343.20581	0.25211
2341.27725	0.25220
2339.34868	0.25393
2337.42012	0.25618
2335.49155	0.25823
2333.56299	0.26040
2331.63442	0.26283
2329.70586	0.26559
2327.77729	0.26849
2325.84873	0.27098
2323.92017	0.27331
2321.99160	0.27608
2320.06304	0.27916
2318.13447	0.28208
2316.20591	0.28478
2314.27734	0.28728
2312.34878	0.28959
2310.42021	0.29195
2308.49165	0.29450
2306.56309	0.29712
2304.63452	0.29969
2302.70596	0.30202
2300.77739	0.30421
2298.84883	0.30650
2296.92026	0.30885
2294.99170	0.31106
2293.06313	0.31313
2291.13457	0.31521
2289.20601	0.31741
2287.27744	0.31974
2285.34888	0.32210
2283.42031	0.32427
2281.49175	0.32626
2279.56318	0.32821
2277.63462	0.33012
2275.70605	0.33203
2273.77749	0.33400
2271.84893	0.33607
2269.92036	0.33820
2267.99180	0.34032
2266.06323	0.34243
2264.13467	0.34458
2262.20610	0.34673
2260.27754	0.34880
2258.34897	0.35098
2256.42041	0.35328
2254.49185	0.35554
2252.56328	0.35783
2250.63472	0.36018
2248.70615	0.36239
2246.77759	0.36452
2244.84902	0.36674
2242.92046	0.36904
2240.99189	0.37136
2239.06333	0.37361
2237.13477	0.37572
2235.20620	0.37781
2233.27764	0.38008
2231.34907	0.38254
2229.42051	0.38492
2227.49194	0.38711
2225.56338	0.38920
2223.63481	0.39134
2221.70625	0.39355
2219.77769	0.39572
2217.84912	0.39777
2215.92056	0.39981
2213.99199	0.40196
2212.06343	0.40423
2210.13486	0.40644
2208.20630	0.40852
2206.27773	0.41062
2204.34917	0.41278
2202.42061	0.41487
2200.49204	0.41688
2198.56348	0.41888
2196.63491	0.42089
2194.70635	0.42294
2192.77778	0.42491
2190.84922	0.42667
2188.92065	0.42837
2186.99209	0.43015
2185.06353	0.43200
2183.13496	0.43378
2181.20640	0.43535
2179.27783	0.43688
2177.34927	0.43845
2175.42070	0.44002
2173.49214	0.44162
2171.56357	0.44316
2169.63501	0.44448
2167.70645	0.44572
2165.77788	0.44700
2163.84932	0.44821
2161.92075	0.44930
2159.99219	0.45027
2158.06362	0.45114
2156.13506	0.45199
2154.20649	0.45278
2152.27793	0.45362
2150.34937	0.45453
2148.42080	0.45537
2146.49224	0.45598
2144.56367	0.45637
2142.63511	0.45670
2140.70654	0.45697
2138.77798	0.45718
2136.84941	0.45728
2134.92085	0.45724
2132.99229	0.45714
2131.06372	0.45705
2129.13516	0.45697
2127.20659	0.45684
2125.27803	0.45656
2123.34946	0.45616
2121.42090	0.45572
2119.49233	0.45514
2117.56377	0.45432
2115.63521	0.45341
2113.70664	0.45263
2111.77808	0.45191
2109.84951	0.45101
2107.92095	0.44983
2105.99238	0.44852
2104.06382	0.44726
2102.13525	0.44600
2100.20669	0.44463
2098.27812	0.44313
2096.34956	0.44160
2094.42100	0.44008
2092.49243	0.43855
2090.56387	0.43687
2088.63530	0.43508
2086.70674	0.43335
2084.77817	0.43157
2082.84961	0.42959
2080.92104	0.42753
2078.99248	0.42547
2077.06392	0.42340
2075.13535	0.42130
2073.20679	0.41915
2071.27822	0.41699
2069.34966	0.41470
2067.42109	0.41215
2065.49253	0.40961
2063.56396	0.40726
2061.63540	0.40494
2059.70684	0.40249
2057.77827	0.39994
2055.84971	0.39736
2053.92114	0.39482
2051.99258	0.39226
2050.06401	0.38952
2048.13545	0.38671
2046.20688	0.38408
2044.27832	0.38162
2042.34976	0.37898
2040.42119	0.37617
2038.49263	0.37343
2036.56406	0.37071
2034.63550	0.36792
2032.70693	0.36514
2030.77837	0.36243
2028.84980	0.35969
2026.92124	0.35688
2024.99268	0.35401
2023.06411	0.35122
2021.13555	0.34852
2019.20698	0.34575
2017.27842	0.34291
2015.34985	0.34012
2013.42129	0.33745
2011.49272	0.33473
2009.56416	0.33193
2007.63560	0.32919
2005.70703	0.32659
2003.77847	0.32409
2001.84990	0.32156
1999.92134	0.31889
1997.99277	0.31618
1996.06421	0.31365
1994.13564	0.31131
1992.20708	0.30885
1990.27852	0.30616
1988.34995	0.30352
1986.42139	0.30106
1984.49282	0.29864
1982.56426	0.29627
1980.63569	0.29397
1978.70713	0.29173
1976.77856	0.28950
1974.85000	0.28730
1972.92144	0.28517
1970.99287	0.28310
1969.06431	0.28107
1967.13574	0.27904
1965.20718	0.27698
1963.27861	0.27501
1961.35005	0.27314
1959.42148	0.27134
1957.49292	0.26956
1955.56436	0.26771
1953.63579	0.26588
1951.70723	0.26416
1949.77866	0.26260
1947.85010	0.26112
1945.92153	0.25964
1943.99297	0.25810
1942.06440	0.25650
1940.13584	0.25499
1938.20728	0.25363
1936.27871	0.25230
1934.35015	0.25103
1932.42158	0.24988
1930.49302	0.24875
1928.56445	0.24762
1926.63589	0.24648
1924.70732	0.24541
1922.77876	0.24439
1920.85020	0.24345
1918.92163	0.24263
1916.99307	0.24176
1915.06450	0.24088
1913.13594	0.24008
1911.20737	0.23935
1909.27881	0.23867
1907.35024	0.23805
1905.42168	0.23741
1903.49312	0.23678
1901.56455	0.23622
1899.63599	0.23574
1897.70742	0.23531
1895.77886	0.23493
1893.85029	0.23470
1891.92173	0.23453
1889.99316	0.23434
1888.06460	0.23392
1886.13604	0.23346
1884.20747	0.23325
1882.27891	0.23321
1880.35034	0.23318
1878.42178	0.23308
1876.49321	0.23299
1874.56465	0.23291
1872.63608	0.23288
1870.70752	0.23292
1868.77896	0.23330
1866.85039	0.23379
1864.92183	0.23393
1862.99326	0.23398
1861.06470	0.23424
1859.13613	0.23467
1857.20757	0.23503
1855.27900	0.23548
1853.35044	0.23595
1851.42187	0.23642
1849.49331	0.23698
1847.56475	0.23764
1845.63618	0.23833
1843.70762	0.23927
1841.77905	0.24028
1839.85049	0.24095
1837.92192	0.24175
1835.99336	0.24267
1834.06479	0.24355
1832.13623	0.24439
1830.20767	0.24565
1828.27910	0.24717
1826.35054	0.24831
1824.42197	0.24961
1822.49341	0.25095
1820.56484	0.25216
1818.63628	0.25340
1816.70771	0.25494
1814.77915	0.25658
1812.85059	0.25840
1810.92202	0.26052
1808.99346	0.26261
1807.06489	0.26450
1805.13633	0.26639
1803.20776	0.26862
1801.27920	0.27113
1799.35063	0.27390
1797.42207	0.27643
1795.49351	0.27886
1793.56494	0.28160
1791.63638	0.28512
1789.70781	0.28865
1787.77925	0.29137
1785.85068	0.29448
1783.92212	0.29812
1781.99355	0.30204
1780.06499	0.30621
1778.13643	0.31059
1776.20786	0.31470
1774.27930	0.31892
1772.35073	0.32446
1770.42217	0.33070
1768.49360	0.33614
1766.56504	0.34144
1764.63647	0.34692
1762.70791	0.35277
1760.77935	0.36011
1758.85078	0.36709
1756.92222	0.37416
1754.99365	0.38200
1753.06509	0.38901
1751.13652	0.39702
1749.20796	0.40721
1747.27939	0.41777
1745.35083	0.42725
1743.42227	0.43712
1741.49370	0.44790
1739.56514	0.46050
1737.63657	0.47296
1735.70801	0.48370
1733.77944	0.49999
1731.85088	0.51983
1729.92231	0.53556
1727.99375	0.55153
1726.06519	0.56866
1724.13662	0.58703
1722.20806	0.60679
1720.27949	0.62494
1718.35093	0.64603
1716.42236	0.67776
1714.49380	0.70855
1712.56523	0.73359
1710.63667	0.75771
1708.70811	0.78330
1706.77954	0.81212
1704.85098	0.84710
1702.92241	0.87883
1700.99385	0.91000
1699.06528	0.95619
1697.13672	0.99890
1695.20815	1.04303
1693.27959	1.08629
1691.35103	1.12130
1689.42246	1.16166
1687.49390	1.20408
1685.56533	1.24450
1683.63677	1.30740
1681.70820	1.37371
1679.77964	1.41643
1677.85107	1.45735
1675.92251	1.50449
1673.99395	1.56242
1672.06538	1.61353
1670.13682	1.66364
1668.20825	1.72948
1666.27969	1.78326
1664.35112	1.82874
1662.42256	1.88679
1660.49399	1.95333
1658.56543	2.00482
1656.63687	2.04583
1654.70830	2.08368
1652.77974	2.14256
1650.85117	2.19675
1648.92261	2.21507
1646.99404	2.23861
1645.06548	2.26438
1643.13691	2.28112
1641.20835	2.29060
1639.27979	2.29808
1637.35122	2.30012
1635.42266	2.29613
1633.49409	2.28993
1631.56553	2.27874
1629.63696	2.26162
1627.70840	2.23175
1625.77983	2.19781
1623.85127	2.15642
1621.92271	2.10556
1619.99414	2.06070
1618.06558	2.01764
1616.13701	1.95479
1614.20845	1.88861
1612.27988	1.83793
1610.35132	1.78618
1608.42275	1.73113
1606.49419	1.67757
1604.56562	1.62820
1602.63706	1.58027
1600.70850	1.53360
1598.77993	1.49090
1596.85137	1.45066
1594.92280	1.41111
1592.99424	1.37272
1591.06567	1.33779
1589.13711	1.30545
1587.20854	1.27563
1585.27998	1.24815
1583.35142	1.22241
1581.42285	1.19914
1579.49429	1.17961
1577.56572	1.16207
1575.63716	1.14073
1573.70859	1.12225
1571.78003	1.11052
1569.85146	1.09861
1567.92290	1.08555
1565.99434	1.07610
1564.06577	1.06929
1562.13721	1.06413
1560.20864	1.06122
1558.28008	1.05963
1556.35151	1.05835
1554.42295	1.05752
1552.49438	1.05687
1550.56582	1.05475
1548.63726	1.05032
1546.70869	1.04404
1544.78013	1.03549
1542.85156	1.02403
1540.92300	1.00700
1538.99443	0.98040
1537.06587	0.96099
1535.13730	0.94771
1533.20874	0.93003
1531.28018	0.91140
1529.35161	0.89809
1527.42305	0.88521
1525.49448	0.87148
1523.56592	0.85989
1521.63735	0.84882
1519.70879	0.83745
1517.78022	0.82814
1515.85166	0.81782
1513.92310	0.80708
1511.99453	0.79772
1510.06597	0.78915
1508.13740	0.78050
1506.20884	0.76663
1504.28027	0.75487
1502.35171	0.74856
1500.42314	0.74299
1498.49458	0.73694
1496.56602	0.72988
1494.63745	0.72305
1492.70889	0.71796
1490.78032	0.71349
1488.85176	0.70786
1486.92319	0.70230
1484.99463	0.69832
1483.06606	0.69544
1481.13750	0.69291
1479.20894	0.69081
1477.28037	0.68950
1475.35181	0.68884
1473.42324	0.68852
1471.49468	0.68763
1469.56611	0.68586
1467.63755	0.68379
1465.70898	0.68167
1463.78042	0.67965
1461.85186	0.67830
1459.92329	0.67773
1457.99473	0.67756
1456.06616	0.67673
1454.13760	0.67451
1452.20903	0.67188
1450.28047	0.66902
1448.35190	0.66604
1446.42334	0.66305
1444.49478	0.66034
1442.56621	0.65777
1440.63765	0.65507
1438.70908	0.65236
1436.78052	0.64909
1434.85195	0.64534
1432.92339	0.64246
1430.99482	0.64059
1429.06626	0.63957
1427.13770	0.63933
1425.20913	0.63958
1423.28057	0.64001
1421.35200	0.64029
1419.42344	0.64052
1417.49487	0.64046
1415.56631	0.63970
1413.63774	0.63884
1411.70918	0.63826
1409.78062	0.63835
1407.85205	0.63917
1405.92349	0.64030
1403.99492	0.64118
1402.06636	0.64120
1400.13779	0.64046
1398.20923	0.63908
1396.28066	0.63691
1394.35210	0.63372
1392.42354	0.62991
1390.49497	0.62612
1388.56641	0.62220
1386.63784	0.61782
1384.70928	0.61334
1382.78071	0.60910
1380.85215	0.60507
1378.92358	0.60156
1376.99502	0.59880
1375.06646	0.59677
1373.13789	0.59538
1371.20933	0.59446
1369.28076	0.59370
1367.35220	0.59267
1365.42363	0.59118
1363.49507	0.58957
1361.56650	0.58827
1359.63794	0.58710
1357.70937	0.58586
1355.78081	0.58467
1353.85225	0.58366
1351.92368	0.58286
1349.99512	0.58218
1348.06655	0.58158
1346.13799	0.58096
1344.20942	0.58015
1342.28086	0.57922
1340.35229	0.57852
1338.42373	0.57804
1336.49517	0.57744
1334.56660	0.57681
1332.63804	0.57649
1330.70947	0.57657
1328.78091	0.57691
1326.85234	0.57729
1324.92378	0.57758
1322.99521	0.57799
1321.06665	0.57850
1319.13809	0.57891
1317.20952	0.57920
1315.28096	0.57929
1313.35239	0.57909
1311.42383	0.57867
1309.49526	0.57811
1307.56670	0.57748
1305.63813	0.57680
1303.70957	0.57615
1301.78101	0.57554
1299.85244	0.57464
1297.92388	0.57334
1295.99531	0.57209
1294.06675	0.57117
1292.13818	0.57033
1290.20962	0.56928
1288.28105	0.56804
1286.35249	0.56664
1284.42393	0.56520
1282.49536	0.56387
1280.56680	0.56277
1278.63823	0.56190
1276.70967	0.56109
1274.78110	0.56012
1272.85254	0.55916
1270.92397	0.55843
1268.99541	0.55790
1267.06685	0.55733
1265.13828	0.55649
1263.20972	0.55545
1261.28115	0.55451
1259.35259	0.55381
1257.42402	0.55327
1255.49546	0.55282
1253.56689	0.55255
1251.63833	0.55253
1249.70977	0.55255
1247.78120	0.55245
1245.85264	0.55221
1243.92407	0.55176
1241.99551	0.55098
1240.06694	0.54989
1238.13838	0.54854
1236.20981	0.54689
1234.28125	0.54491
1232.35269	0.54285
1230.42412	0.54106
1228.49556	0.53953
1226.56699	0.53793
1224.63843	0.53624
1222.70986	0.53470
1220.78130	0.53343
1218.85273	0.53224
1216.92417	0.53112
1214.99561	0.53010
1213.06704	0.52916
1211.13848	0.52838
1209.20991	0.52771
1207.28135	0.52695
1205.35278	0.52603
1203.42422	0.52509
1201.49565	0.52419
1199.56709	0.52334
1197.63853	0.52268
1195.70996	0.52222
1193.78140	0.52184
1191.85283	0.52157
1189.92427	0.52135
1187.99570	0.52104
1186.06714	0.52074
1184.13857	0.52071
1182.21001	0.52102
1180.28145	0.52164
1178.35288	0.52255
1176.42432	0.52364
1174.49575	0.52457
1172.56719	0.52510
1170.63862	0.52524
1168.71006	0.52520
1166.78149	0.52507
1164.85293	0.52476
1162.92437	0.52416
1160.99580	0.52342
1159.06724	0.52280
1157.13867	0.52209
1155.21011	0.52107
1153.28154	0.51995
1151.35298	0.51867
1149.42441	0.51681
1147.49585	0.51441
1145.56729	0.51191
1143.63872	0.50960
1141.71016	0.50743
1139.78159	0.50540
1137.85303	0.50371
1135.92446	0.50232
1133.99590	0.50120
1132.06733	0.50030
1130.13877	0.49951
1128.21021	0.49865
1126.28164	0.49761
1124.35308	0.49657
1122.42451	0.49569
1120.49595	0.49503
1118.56738	0.49455
1116.63882	0.49400
1114.71025	0.49341
1112.78169	0.49300
1110.85312	0.49291
1108.92456	0.49338
1106.99600	0.49442
1105.06743	0.49570
1103.13887	0.49703
1101.21030	0.49851
1099.28174	0.50038
1097.35317	0.50278
1095.42461	0.50574
1093.49604	0.50918
1091.56748	0.51311
1089.63892	0.51770
1087.71035	0.52292
1085.78179	0.52876
1083.85322	0.53502
1081.92466	0.54117
1079.99609	0.54663
1078.06753	0.55043
1076.13896	0.55161
1074.21040	0.54969
1072.28184	0.54510
1070.35327	0.53910
1068.42471	0.53244
1066.49614	0.52544
1064.56758	0.51872
1062.63901	0.51273
1060.71045	0.50754
1058.78188	0.50311
1056.85332	0.49927
1054.92476	0.49567
1052.99619	0.49235
1051.06763	0.48969
1049.13906	0.48775
1047.21050	0.48611
1045.28193	0.48448
1043.35337	0.48278
1041.42480	0.48111
1039.49624	0.47972
1037.56768	0.47876
1035.63911	0.47811
1033.71055	0.47771
1031.78198	0.47756
1029.85342	0.47738
1027.92485	0.47707
1025.99629	0.47709
1024.06772	0.47752
1022.13916	0.47790
1020.21060	0.47822
1018.28203	0.47874
1016.35347	0.47957
1014.42490	0.48060
1012.49634	0.48168
1010.56777	0.48295
1008.63921	0.48451
1006.71064	0.48625
1004.78208	0.48817
1002.85352	0.49050
1000.92495	0.49333
998.99639	0.49679
997.06782	0.50071
995.13926	0.50459
993.21069	0.50834
991.28213	0.51184
989.35356	0.51450
987.42500	0.51610
985.49644	0.51712
983.56787	0.51808
981.63931	0.51918
979.71074	0.52040
977.78218	0.52198
975.85361	0.52435
973.92505	0.52746
971.99648	0.53084
970.06792	0.53415
968.13936	0.53767
966.21079	0.54176
964.28223	0.54630
962.35366	0.55116
960.42510	0.55646
958.49653	0.56203
956.56797	0.56773
954.63940	0.57387
952.71084	0.58052
950.78228	0.58734
948.85371	0.59384
946.92515	0.59984
944.99658	0.60576
943.06802	0.61184
941.13945	0.61796
939.21089	0.62413
937.28232	0.63037
935.35376	0.63636
933.42520	0.64205
931.49663	0.64783
929.56807	0.65376
927.63950	0.65972
925.71094	0.66567
923.78237	0.67184
921.85381	0.67862
919.92524	0.68563
917.99668	0.69196
916.06812	0.69779
914.13955	0.70428
912.21099	0.71237
910.28242	0.72186
908.35386	0.73158
906.42529	0.74110
904.49673	0.74989
902.56816	0.75766
900.63960	0.76613
898.71104	0.77600
896.78247	0.78665
894.85391	0.79766
892.92534	0.80803
890.99678	0.81799
889.06821	0.82863
887.13965	0.84013
885.21108	0.85206
883.28252	0.86359
881.35396	0.87424
879.42539	0.88463
877.49683	0.89603
875.56826	0.90897
873.63970	0.92151
871.71113	0.93261
869.78257	0.94437
867.85400	0.95687
865.92544	0.96864
863.99687	0.98001
862.06831	0.99148
860.13975	1.00342
858.21118	1.01557
856.28262	1.02697
854.35405	1.03833
852.42549	1.05069
850.49692	1.06358
848.56836	1.07551
846.63979	1.08671
844.71123	1.09983
842.78267	1.11273
840.85410	1.12154
838.92554	1.13050
836.99697	1.14382
835.06841	1.15704
833.13984	1.16712
831.21128	1.17827
829.28271	1.19235
827.35415	1.20570
825.42559	1.21794
823.49702	1.23305
821.56846	1.24795
819.63989	1.26017
817.71133	1.27308
815.78276	1.28230
813.85420	1.28564
811.92563	1.28954
809.99707	1.29975
808.06851	1.31945
806.13994	1.33994
804.21138	1.34285
802.28281	1.33304
800.35425	1.34254
798.42568	1.40076
796.49712	1.48590
794.56855	1.51326
792.63999	1.50353
790.71143	1.51582
788.78286	1.50574
786.85430	1.47924
784.92573	1.46456
782.99717	1.45914
781.06860	1.49204
779.14004	1.55912
777.21147	1.64665
775.28291	1.77150
773.35435	1.91759
771.42578	2.16622
769.49722	2.26240
767.56865	1.89847
765.64009	1.67413
763.71152	1.47340
761.78296	1.38031
759.85439	1.48094
757.92583	1.62660
755.99727	1.52235
754.06870	1.51038
752.14014	1.67323
750.21157	1.64726
748.28301	1.61175
746.35444	2.18753
744.42588	4.46656
742.49731	1.69958
740.56875	1.33182
738.64019	1.41845
736.71162	1.49583
734.78306	1.27050
732.85449	1.65500
730.92593	4.38556
728.99736	0.95426
727.06880	0.52479
725.14023	0.46517
723.21167	0.57914
721.28311	0.80176
719.35454	1.58814
717.42598	4.30456
715.49741	4.29298
713.56885	0.95338
711.64028	0.17098
709.71172	-0.07198
707.78315	-0.12177
705.85459	0.05464
703.92603	0.35418
701.99746	0.26150
700.06890	0.09503
698.14033	0.06051
696.21177	0.18541
694.28320	0.55667
692.35464	1.02311
690.42607	0.83529
688.49751	4.13099
686.56895	4.11941
684.64038	0.51363
682.71182	0.15590
680.78325	0.09220
678.85469	0.17189
676.92612	0.32545
674.99756	0.55050
673.06899	0.67061
671.14043	0.46903
669.21187	0.38391
667.28330	0.43426
665.35474	0.39051
663.42617	0.22708
661.49761	0.43915
659.56904	3.95741
657.64048	3.94584
655.71191	3.93427
653.78335	0.65607
651.85479	0.39372
649.92622	0.21266
647.99766	0.15043
646.06909	0.22177
644.14053	0.44354
642.21196	0.48847
640.28340	0.13612
638.35483	0.00480
636.42627	0.15167
634.49771	0.48377
632.56914	0.48313
630.64058	0.36068
628.71201	0.34597
626.78345	0.42206
624.85488	0.42913
622.92632	0.27482
620.99775	0.24519
619.06919	0.34494
617.14062	0.30873
615.21206	0.23565
613.28350	0.28359
611.35493	0.34579
609.42637	0.30160
607.49780	0.28610
605.56924	0.34709
603.64067	0.25207
601.71211	0.05182
599.78354	0.04324
597.85498	0.15940
595.92642	0.25122
593.99785	0.28804
592.06929	0.28109
590.14072	0.18887
588.21216	0.12345
586.28359	0.17813
584.35503	0.31252
582.42646	0.43617
580.49790	0.28302
578.56934	0.11244
576.64077	0.07691
574.71221	0.18079
572.78364	0.28990
570.85508	0.22167
568.92651	0.13502
566.99795	0.19711
565.06938	0.35782
563.14082	0.42573
561.21226	0.34760
559.28369	0.35761
557.35513	0.48494
555.42656	0.49970
553.49800	0.38605
551.56943	0.32599
549.64087	0.34674
547.71230	0.48133
545.78374	0.57666
543.85518	0.49677
541.92661	0.36393
539.99805	0.27000
538.06948	0.21168
536.14092	0.16888
534.21235	0.16742
532.28379	0.19288
530.35522	0.22891
528.42666	0.23135
526.49810	0.16020
524.56953	0.11601
522.64097	0.15399
520.71240	0.22173
518.78384	0.20557
516.85527	0.10657
514.92671	0.02902
512.99814	0.05953
511.06958	0.13312
509.14102	0.23376
507.21245	0.35654
505.28389	0.35077
503.35532	0.23649
501.42676	0.17220
499.49819	0.17996
