3997.91411	0.06934
3995.98555	0.06962
3994.05698	0.06977
3992.12842	0.06992
3990.19985	0.07012
3988.27129	0.07032
3986.34272	0.07067
3984.41416	0.07109
3982.48560	0.07163
3980.55703	0.07227
3978.62847	0.07245
3976.69990	0.07231
3974.77134	0.07234
3972.84277	0.07233
3970.91421	0.07233
3968.98564	0.07272
3967.05708	0.07327
3965.12852	0.07340
3963.19995	0.07337
3961.27139	0.07371
3959.34282	0.07415
3957.41426	0.07415
3955.48569	0.07386
3953.55713	0.07369
3951.62856	0.07378
3949.70000	0.07403
3947.77144	0.07403
3945.84287	0.07380
3943.91431	0.07382
3941.98574	0.07401
3940.05718	0.07390
3938.12861	0.07375
3936.20005	0.07381
3934.27148	0.07385
3932.34292	0.07367
3930.41436	0.07339
3928.48579	0.07309
3926.55723	0.07279
3924.62866	0.07278
3922.70010	0.07317
3920.77153	0.07352
3918.84297	0.07349
3916.91440	0.07337
3914.98584	0.07336
3913.05728	0.07310
3911.12871	0.07276
3909.20015	0.07266
3907.27158	0.07253
3905.34302	0.07217
3903.41445	0.07222
3901.48589	0.07278
3899.55732	0.07301
3897.62876	0.07295
3895.70020	0.07274
3893.77163	0.07248
3891.84307	0.07257
3889.91450	0.07280
3887.98594	0.07286
3886.05737	0.07323
3884.12881	0.07354
3882.20024	0.07285
3880.27168	0.07212
3878.34312	0.07240
3876.41455	0.07300
3874.48599	0.07351
3872.55742	0.07394
3870.62886	0.07416
3868.70029	0.07455
3866.77173	0.07472
3864.84316	0.07469
3862.91460	0.07534
3860.98604	0.07616
3859.05747	0.07618
3857.12891	0.07570
3855.20034	0.07537
3853.27178	0.07599
3851.34321	0.07761
3849.41465	0.07813
3847.48608	0.07794
3845.55752	0.07796
3843.62896	0.07858
3841.70039	0.07955
3839.77183	0.08035
3837.84326	0.08118
3835.91470	0.08196
3833.98613	0.08229
3832.05757	0.08275
3830.12900	0.08356
3828.20044	0.08427
3826.27187	0.08510
3824.34331	0.08600
3822.41475	0.08656
3820.48618	0.08732
3818.55762	0.08830
3816.62905	0.08930
3814.70049	0.09066
3812.77192	0.09157
3810.84336	0.09189
3808.91479	0.09238
3806.98623	0.09362
3805.05767	0.09529
3803.12910	0.09653
3801.20054	0.09815
3799.27197	0.10011
3797.34341	0.10108
3795.41484	0.10193
3793.48628	0.10304
3791.55771	0.10409
3789.62915	0.10501
3787.70059	0.10558
3785.77202	0.10649
3783.84346	0.10826
3781.91489	0.11003
3779.98633	0.11163
3778.05776	0.11380
3776.12920	0.11596
3774.20063	0.11735
3772.27207	0.11845
3770.34351	0.12017
3768.41494	0.12238
3766.48638	0.12403
3764.55781	0.12573
3762.62925	0.12769
3760.70068	0.12957
3758.77212	0.13204
3756.84355	0.13494
3754.91499	0.13696
3752.98643	0.13822
3751.05786	0.14039
3749.12930	0.14460
3747.20073	0.14789
3745.27217	0.15005
3743.34360	0.15315
3741.41504	0.15623
3739.48647	0.15894
3737.55791	0.16233
3735.62935	0.16666
3733.70078	0.17181
3731.77222	0.17697
3729.84365	0.18159
3727.91509	0.18580
3725.98652	0.19096
3724.05796	0.19798
3722.12939	0.20590
3720.20083	0.21413
3718.27227	0.22218
3716.34370	0.22991
3714.41514	0.23725
3712.48657	0.24530
3710.55801	0.25750
3708.62944	0.27295
3706.70088	0.28605
3704.77231	0.29747
3702.84375	0.31045
3700.91519	0.32749
3698.98662	0.34627
3697.05806	0.36420
3695.12949	0.38319
3693.20093	0.40273
3691.27236	0.42309
3689.34380	0.45039
3687.41523	0.48653
3685.48667	0.51905
3683.55811	0.54670
3681.62954	0.57541
3679.70098	0.60680
3677.77241	0.63910
3675.84385	0.67748
3673.91528	0.73187
3671.98672	0.77647
3670.05815	0.81489
3668.12959	0.86990
3666.20103	0.92100
3664.27246	0.96268
3662.34390	1.00680
3660.41533	1.05461
3658.48677	1.10139
3656.55820	1.15052
3654.62964	1.20572
3652.70107	1.25177
3650.77251	1.29024
3648.84395	1.34426
3646.91538	1.41550
3644.98682	1.46847
3643.05825	1.50759
3641.12969	1.54724
3639.20112	1.59206
3637.27256	1.63778
3635.34399	1.68128
3633.41543	1.72342
3631.48687	1.76246
3629.55830	1.80279
3627.62974	1.85835
3625.70117	1.91025
3623.77261	1.94377
3621.84404	1.97578
3619.91548	2.01323
3617.98691	2.06012
3616.05835	2.10560
3614.12979	2.14271
3612.20122	2.18206
3610.27266	2.22210
3608.34409	2.26293
3606.41553	2.30711
3604.48696	2.34694
3602.55840	2.38137
3600.62983	2.41906
3598.70127	2.46001
3596.77271	2.49845
3594.84414	2.53739
3592.91558	2.57992
3590.98701	2.62060
3589.05845	2.65736
3587.12988	2.70089
3585.20132	2.74973
3583.27275	2.79174
3581.34419	2.83075
3579.41562	2.87245
3577.48706	2.91607
3575.55850	2.95835
3573.62993	3.00087
3571.70137	3.04304
3569.77280	3.08224
3567.84424	3.12106
3565.91567	3.17049
3563.98711	3.22422
3562.05854	3.26948
3560.12998	3.31298
3558.20142	3.35885
3556.27285	3.40431
3554.34429	3.44674
3552.41572	3.49150
3550.48716	3.54110
3548.55859	3.58912
3546.63003	3.63315
3544.70146	3.67863
3542.77290	3.72620
3540.84434	3.77333
3538.91577	3.82072
3536.98721	3.86839
3535.05864	3.91837
3533.13008	3.96737
3531.20151	4.01259
3529.27295	4.05956
3527.34438	4.11305
3525.41582	4.16515
3523.48726	4.21155
3521.55869	4.25989
3519.63013	4.30795
3517.70156	4.35117
3515.77300	4.39284
3513.84443	4.43831
3511.91587	4.48679
3509.98730	4.53538
3508.05874	4.58573
3506.13018	4.63694
3504.20161	4.68436
3502.27305	4.73027
3500.34448	4.77938
3498.41592	4.82929
3496.48735	4.87975
3494.55879	4.93171
3492.63022	4.98039
3490.70166	5.02298
3488.77310	5.06729
3486.84453	5.12019
3484.91597	5.17779
3482.98740	5.23017
3481.05884	5.27037
3479.13027	5.30863
3477.20171	5.36333
3475.27314	5.42698
3473.34458	5.47510
3471.41602	5.50943
3469.48745	5.54900
3467.55889	5.59681
3465.63032	5.64812
3463.70176	5.69978
3461.77319	5.75045
3459.84463	5.80466
3457.91606	5.85971
3455.98750	5.90890
3454.05894	5.95557
3452.13037	6.01319
3450.20181	6.07123
3448.27324	6.10412
3446.34468	6.13555
3444.41611	6.19105
3442.48755	6.25158
3440.55898	6.29631
3438.63042	6.33710
3436.70186	6.38351
3434.77329	6.42591
3432.84473	6.47812
3430.91616	6.54954
3428.98760	6.62168
3427.05903	6.67350
3425.13047	6.70314
3423.20190	6.72685
3421.27334	6.77278
3419.34478	6.84107
3417.41621	6.89985
3415.48765	6.92704
3413.55908	6.94105
3411.63052	6.98402
3409.70195	7.06311
3407.77339	7.15561
3405.84482	7.21468
3403.91626	7.24369
3401.98770	7.26640
3400.05913	7.28804
3398.13057	7.33495
3396.20200	7.38326
3394.27344	7.39726
3392.34487	7.41828
3390.41631	7.48816
3388.48774	7.53983
3386.55918	7.55256
3384.63062	7.61811
3382.70205	7.73633
3380.77349	7.76442
3378.84492	7.71045
3376.91636	7.70520
3374.98779	7.72967
3373.05923	7.75025
3371.13066	7.76734
3369.20210	7.80163
3367.27354	7.86026
3365.34497	7.90169
3363.41641	7.89325
3361.48784	7.86538
3359.55928	7.87930
3357.63071	7.93345
3355.70215	7.99795
3353.77358	8.02337
3351.84502	7.99595
3349.91646	7.96434
3347.98789	7.99272
3346.05933	8.03829
3344.13076	8.05684
3342.20220	8.10135
3340.27363	8.15769
3338.34507	8.19806
3336.41650	8.18192
3334.48794	8.14991
3332.55937	8.13155
3330.63081	8.07662
3328.70225	8.06053
3326.77368	8.18641
3324.84512	8.34456
3322.91655	8.30744
3320.98799	8.18444
3319.05942	8.17277
3317.13086	8.26473
3315.20229	8.31709
3313.27373	8.26704
3311.34517	8.24306
3309.41660	8.31145
3307.48804	8.34630
3305.55947	8.26174
3303.63091	8.14940
3301.70234	8.12038
3299.77378	8.16170
3297.84521	8.15124
3295.91665	8.14668
3293.98809	8.17308
3292.05952	8.19186
3290.13096	8.23935
3288.20239	8.23668
3286.27383	8.23174
3284.34526	8.37059
3282.41670	8.55641
3280.48813	8.50998
3278.55957	8.35796
3276.63101	8.33760
3274.70244	8.34002
3272.77388	8.26560
3270.84531	8.22153
3268.91675	8.24476
3266.98818	8.27209
3265.05962	8.29003
3263.13105	8.28945
3261.20249	8.28403
3259.27393	8.32340
3257.34536	8.35254
3255.41680	8.31873
3253.48823	8.35418
3251.55967	8.43456
3249.63110	8.34092
3247.70254	8.16486
3245.77397	8.07518
3243.84541	8.07975
3241.91685	8.16700
3239.98828	8.28529
3238.05972	8.30648
3236.13115	8.26718
3234.20259	8.28787
3232.27402	8.30308
3230.34546	8.22878
3228.41689	8.11926
3226.48833	8.06075
3224.55977	8.05830
3222.63120	8.04075
3220.70264	8.00232
3218.77407	8.02129
3216.84551	8.09287
3214.91694	8.13361
3212.98838	8.10173
3211.05981	8.04715
3209.13125	8.03100
3207.20269	8.03804
3205.27412	8.01532
3203.34556	7.91181
3201.41699	7.77804
3199.48843	7.68804
3197.55986	7.63158
3195.63130	7.60427
3193.70273	7.59616
3191.77417	7.58722
3189.84561	7.61039
3187.91704	7.64115
3185.98848	7.59468
3184.05991	7.51021
3182.13135	7.45284
3180.20278	7.41182
3178.27422	7.36882
3176.34565	7.31170
3174.41709	7.23230
3172.48853	7.12832
3170.55996	7.04693
3168.63140	7.03368
3166.70283	7.02045
3164.77427	6.94819
3162.84570	6.86574
3160.91714	6.79574
3158.98857	6.72204
3157.06001	6.64635
3155.13145	6.57713
3153.20288	6.51459
3151.27432	6.44848
3149.34575	6.37728
3147.41719	6.31778
3145.48862	6.26077
3143.56006	6.18999
3141.63149	6.11569
3139.70293	6.03500
3137.77437	5.94874
3135.84580	5.87349
3133.91724	5.81280
3131.98867	5.75152
3130.06011	5.67663
3128.13154	5.59710
3126.20298	5.52442
3124.27441	5.45971
3122.34585	5.39642
3120.41729	5.32873
3118.48872	5.25920
3116.56016	5.18779
3114.63159	5.11461
3112.70303	5.04500
3110.77446	4.97553
3108.84590	4.90765
3106.91733	4.84611
3104.98877	4.78065
3103.06021	4.70699
3101.13164	4.63237
3099.20308	4.56264
3097.27451	4.49795
3095.34595	4.43561
3093.41738	4.37267
3091.48882	4.30703
3089.56025	4.24237
3087.63169	4.17925
3085.70312	4.11386
3083.77456	4.04683
3081.84600	3.98138
3079.91743	3.91933
3077.98887	3.85940
3076.06030	3.80010
3074.13174	3.74195
3072.20317	3.68323
3070.27461	3.62304
3068.34604	3.56483
3066.41748	3.50969
3064.48892	3.45507
3062.56035	3.40008
3060.63179	3.34578
3058.70322	3.29098
3056.77466	3.23478
3054.84609	3.17955
3052.91753	3.12639
3050.98896	3.07441
3049.06040	3.02295
3047.13184	2.97261
3045.20327	2.92384
3043.27471	2.87561
3041.34614	2.82701
3039.41758	2.77834
3037.48901	2.73088
3035.56045	2.68512
3033.63188	2.63999
3031.70332	2.59471
3029.77476	2.54987
3027.84619	2.50600
3025.91763	2.46245
3023.98906	2.41926
3022.06050	2.37781
3020.13193	2.33792
3018.20337	2.29812
3016.27480	2.25806
3014.34624	2.21829
3012.41768	2.17896
3010.48911	2.14024
3008.56055	2.10271
3006.63198	2.06646
3004.70342	2.03090
3002.77485	1.99531
3000.84629	1.95970
2998.91772	1.92479
2996.98916	1.89110
2995.06060	1.85860
2993.13203	1.82631
2991.20347	1.79419
2989.27490	1.76271
2987.34634	1.73155
2985.41777	1.70088
2983.48921	1.67106
2981.56064	1.64185
2979.63208	1.61306
2977.70352	1.58474
2975.77495	1.55687
2973.84639	1.52923
2971.91782	1.50205
2969.98926	1.47547
2968.06069	1.44917
2966.13213	1.42305
2964.20356	1.39732
2962.27500	1.37230
2960.34644	1.34813
2958.41787	1.32427
2956.48931	1.30030
2954.56074	1.27653
2952.63218	1.25339
2950.70361	1.23094
2948.77505	1.20887
2946.84648	1.18672
2944.91792	1.16431
2942.98936	1.14210
2941.06079	1.12090
2939.13223	1.10051
2937.20366	1.08015
2935.27510	1.06009
2933.34653	1.04090
2931.41797	1.02220
2929.48940	1.00334
2927.56084	0.98454
2925.63228	0.96650
2923.70371	0.94921
2921.77515	0.93236
2919.84658	0.91580
2917.91802	0.89909
2915.98945	0.88254
2914.06089	0.86664
2912.13232	0.85133
2910.20376	0.83665
2908.27520	0.82241
2906.34663	0.80837
2904.41807	0.79441
2902.48950	0.78072
2900.56094	0.76760
2898.63237	0.75472
2896.70381	0.74199
2894.77524	0.72979
2892.84668	0.71789
2890.91812	0.70611
2888.98955	0.69463
2887.06099	0.68330
2885.13242	0.67226
2883.20386	0.66157
2881.27529	0.65098
2879.34673	0.64038
2877.41816	0.62978
2875.48960	0.61936
2873.56104	0.60917
2871.63247	0.59911
2869.70391	0.58912
2867.77534	0.57893
2865.84678	0.56829
2863.91821	0.55745
2861.98965	0.54697
2860.06108	0.53709
2858.13252	0.52768
2856.20396	0.51835
2854.27539	0.50927
2852.34683	0.50089
2850.41826	0.49295
2848.48970	0.48495
2846.56113	0.47704
2844.63257	0.46955
2842.70400	0.46266
2840.77544	0.45645
2838.84687	0.45069
2836.91831	0.44506
2834.98975	0.43942
2833.06118	0.43372
2831.13262	0.42771
2829.20405	0.42153
2827.27549	0.41556
2825.34692	0.40980
2823.41836	0.40404
2821.48979	0.39831
2819.56123	0.39255
2817.63267	0.38668
2815.70410	0.38076
2813.77554	0.37495
2811.84697	0.36937
2809.91841	0.36402
2807.98984	0.35875
2806.06128	0.35347
2804.13271	0.34831
2802.20415	0.34345
2800.27559	0.33871
2798.34702	0.33395
2796.41846	0.32925
2794.48989	0.32464
2792.56133	0.32017
2790.63276	0.31588
2788.70420	0.31165
2786.77563	0.30735
2784.84707	0.30311
2782.91851	0.29902
2780.98994	0.29504
2779.06138	0.29115
2777.13281	0.28740
2775.20425	0.28365
2773.27568	0.27990
2771.34712	0.27631
2769.41855	0.27283
2767.48999	0.26935
2765.56143	0.26594
2763.63286	0.26272
2761.70430	0.25959
2759.77573	0.25640
2757.84717	0.25327
2755.91860	0.25018
2753.99004	0.24698
2752.06147	0.24386
2750.13291	0.24102
2748.20435	0.23842
2746.27578	0.23591
2744.34722	0.23329
2742.41865	0.23062
2740.49009	0.22807
2738.56152	0.22563
2736.63296	0.22317
2734.70439	0.22065
2732.77583	0.21821
2730.84727	0.21585
2728.91870	0.21351
2726.99014	0.21131
2725.06157	0.20929
2723.13301	0.20733
2721.20444	0.20534
2719.27588	0.20347
2717.34731	0.20171
2715.41875	0.19983
2713.49019	0.19788
2711.56162	0.19613
2709.63306	0.19448
2707.70449	0.19273
2705.77593	0.19103
2703.84736	0.18945
2701.91880	0.18795
2699.99023	0.18650
2698.06167	0.18494
2696.13311	0.18337
2694.20454	0.18194
2692.27598	0.18064
2690.34741	0.17933
2688.41885	0.17802
2686.49028	0.17675
2684.56172	0.17555
2682.63315	0.17437
2680.70459	0.17312
2678.77603	0.17201
2676.84746	0.17115
2674.91890	0.17022
2672.99033	0.16897
2671.06177	0.16769
2669.13320	0.16668
2667.20464	0.16588
2665.27607	0.16505
2663.34751	0.16419
2661.41895	0.16339
2659.49038	0.16251
2657.56182	0.16150
2655.63325	0.16057
2653.70469	0.15985
2651.77612	0.15914
2649.84756	0.15852
2647.91899	0.15814
2645.99043	0.15777
2644.06187	0.15722
2642.13330	0.15665
2640.20474	0.15616
2638.27617	0.15565
2636.34761	0.15512
2634.41904	0.15463
2632.49048	0.15427
2630.56191	0.15395
2628.63335	0.15351
2626.70479	0.15303
2624.77622	0.15270
2622.84766	0.15249
2620.91909	0.15227
2618.99053	0.15206
2617.06196	0.15191
2615.13340	0.15184
2613.20483	0.15190
2611.27627	0.15196
2609.34771	0.15185
2607.41914	0.15163
2605.49058	0.15154
2603.56201	0.15161
2601.63345	0.15170
2599.70488	0.15176
2597.77632	0.15182
2595.84775	0.15187
2593.91919	0.15196
2591.99062	0.15220
2590.06206	0.15248
2588.13350	0.15256
2586.20493	0.15261
2584.27637	0.15280
2582.34780	0.15303
2580.41924	0.15324
2578.49067	0.15354
2576.56211	0.15398
2574.63354	0.15428
2572.70498	0.15443
2570.77642	0.15472
2568.84785	0.15520
2566.91929	0.15580
2564.99072	0.15637
2563.06216	0.15679
2561.13359	0.15719
2559.20503	0.15763
2557.27646	0.15812
2555.34790	0.15870
2553.41934	0.15927
2551.49077	0.15981
2549.56221	0.16040
2547.63364	0.16106
2545.70508	0.16181
2543.77651	0.16253
2541.84795	0.16307
2539.91938	0.16356
2537.99082	0.16418
2536.06226	0.16491
2534.13369	0.16569
2532.20513	0.16646
2530.27656	0.16718
2528.34800	0.16788
2526.41943	0.16863
2524.49087	0.16941
2522.56230	0.17015
2520.63374	0.17089
2518.70518	0.17168
2516.77661	0.17248
2514.84805	0.17319
2512.91948	0.17401
2510.99092	0.17500
2509.06235	0.17588
2507.13379	0.17660
2505.20522	0.17740
2503.27666	0.17819
2501.34810	0.17891
2499.41953	0.17977
2497.49097	0.18068
2495.56240	0.18155
2493.63384	0.18246
2491.70527	0.18338
2489.77671	0.18426
2487.84814	0.18520
2485.91958	0.18614
2483.99102	0.18697
2482.06245	0.18780
2480.13389	0.18874
2478.20532	0.18965
2476.27676	0.19049
2474.34819	0.19141
2472.41963	0.19241
2470.49106	0.19338
2468.56250	0.19429
2466.63394	0.19518
2464.70537	0.19613
2462.77681	0.19721
2460.84824	0.19831
2458.91968	0.19929
2456.99111	0.20025
2455.06255	0.20125
2453.13398	0.20214
2451.20542	0.20305
2449.27686	0.20412
2447.34829	0.20523
2445.41973	0.20626
2443.49116	0.20736
2441.56260	0.20848
2439.63403	0.20950
2437.70547	0.21058
2435.77690	0.21166
2433.84834	0.21263
2431.91978	0.21366
2429.99121	0.21476
2428.06265	0.21587
2426.13408	0.21701
2424.20552	0.21812
2422.27695	0.21921
2420.34839	0.22031
2418.41982	0.22144
2416.49126	0.22261
2414.56270	0.22374
2412.63413	0.22477
2410.70557	0.22585
2408.77700	0.22705
2406.84844	0.22827
2404.91987	0.22944
2402.99131	0.23066
2401.06274	0.23199
2399.13418	0.23328
2397.20562	0.23450
2395.27705	0.23577
2393.34849	0.23706
2391.41992	0.23835
2389.49136	0.23967
2387.56279	0.24088
2385.63423	0.24183
2383.70566	0.24254
2381.77710	0.24300
2379.84854	0.24327
2377.91997	0.24350
2375.99141	0.24371
2374.06284	0.24370
2372.13428	0.24328
2370.20571	0.24251
2368.27715	0.24189
2366.34858	0.24198
2364.42002	0.24170
2362.49146	0.24078
2360.56289	0.24134
2358.63433	0.24387
2356.70576	0.24706
2354.77720	0.25071
2352.84863	0.25521
2350.92007	0.25919
2348.99150	0.26138
2347.06294	0.26196
2345.13437	0.26178
2343.20581	0.26196
2341.27725	0.26300
2339.34868	0.26477
2337.42012	0.26696
2335.49155	0.26897
2333.56299	0.27065
2331.63442	0.27275
2329.70586	0.27535
2327.77729	0.27800
2325.84873	0.28043
2323.92017	0.28260
2321.99160	0.28488
2320.06304	0.28744
2318.13447	0.29003
2316.20591	0.29236
2314.27734	0.29448
2312.34878	0.29673
2310.42021	0.29916
2308.49165	0.30152
2306.56309	0.30383
2304.63452	0.30611
2302.70596	0.30819
2300.77739	0.31026
2298.84883	0.31246
2296.92026	0.31465
2294.99170	0.31678
2293.06313	0.31892
2291.13457	0.32116
2289.20601	0.32343
2287.27744	0.32565
2285.34888	0.32779
2283.42031	0.32989
2281.49175	0.33197
2279.56318	0.33392
2277.63462	0.33576
2275.70605	0.33767
2273.77749	0.33971
2271.84893	0.34181
2269.92036	0.34397
2267.99180	0.34614
2266.06323	0.34826
2264.13467	0.35031
2262.20610	0.35239
2260.27754	0.35454
2258.34897	0.35674
2256.42041	0.35905
2254.49185	0.36150
2252.56328	0.36386
2250.63472	0.36599
2248.70615	0.36812
2246.77759	0.37041
2244.84902	0.37277
2242.92046	0.37503
2240.99189	0.37728
2239.06333	0.37962
2237.13477	0.38189
2235.20620	0.38400
2233.27764	0.38617
2231.34907	0.38842
2229.42051	0.39063
2227.49194	0.39285
2225.56338	0.39519
2223.63481	0.39758
2221.70625	0.39988
2219.77769	0.40215
2217.84912	0.40442
2215.92056	0.40656
2213.99199	0.40863
2212.06343	0.41073
2210.13486	0.41288
2208.20630	0.41506
2206.27773	0.41726
2204.34917	0.41940
2202.42061	0.42150
2200.49204	0.42360
2198.56348	0.42572
2196.63491	0.42782
2194.70635	0.42985
2192.77778	0.43181
2190.84922	0.43366
2188.92065	0.43538
2186.99209	0.43715
2185.06353	0.43894
2183.13496	0.44065
2181.20640	0.44240
2179.27783	0.44418
2177.34927	0.44591
2175.42070	0.44752
2173.49214	0.44896
2171.56357	0.45040
2169.63501	0.45197
2167.70645	0.45344
2165.77788	0.45468
2163.84932	0.45584
2161.92075	0.45700
2159.99219	0.45814
2158.06362	0.45924
2156.13506	0.46021
2154.20649	0.46100
2152.27793	0.46179
2150.34937	0.46264
2148.42080	0.46341
2146.49224	0.46399
2144.56367	0.46446
2142.63511	0.46489
2140.70654	0.46524
2138.77798	0.46552
2136.84941	0.46578
2134.92085	0.46591
2132.99229	0.46595
2131.06372	0.46591
2129.13516	0.46581
2127.20659	0.46563
2125.27803	0.46531
2123.34946	0.46487
2121.42090	0.46438
2119.49233	0.46386
2117.56377	0.46335
2115.63521	0.46274
2113.70664	0.46195
2111.77808	0.46107
2109.84951	0.46014
2107.92095	0.45909
2105.99238	0.45787
2104.06382	0.45656
2102.13525	0.45528
2100.20669	0.45406
2098.27812	0.45279
2096.34956	0.45141
2094.42100	0.44987
2092.49243	0.44818
2090.56387	0.44645
2088.63530	0.44471
2086.70674	0.44292
2084.77817	0.44109
2082.84961	0.43923
2080.92104	0.43733
2078.99248	0.43534
2077.06392	0.43324
2075.13535	0.43109
2073.20679	0.42891
2071.27822	0.42673
2069.34966	0.42458
2067.42109	0.42232
2065.49253	0.41988
2063.56396	0.41733
2061.63540	0.41481
2059.70684	0.41238
2057.77827	0.40991
2055.84971	0.40725
2053.92114	0.40455
2051.99258	0.40205
2050.06401	0.39959
2048.13545	0.39698
2046.20688	0.39423
2044.27832	0.39140
2042.34976	0.38862
2040.42119	0.38593
2038.49263	0.38323
2036.56406	0.38053
2034.63550	0.37783
2032.70693	0.37504
2030.77837	0.37221
2028.84980	0.36935
2026.92124	0.36647
2024.99268	0.36359
2023.06411	0.36081
2021.13555	0.35807
2019.20698	0.35532
2017.27842	0.35254
2015.34985	0.34974
2013.42129	0.34695
2011.49272	0.34415
2009.56416	0.34137
2007.63560	0.33856
2005.70703	0.33578
2003.77847	0.33308
2001.84990	0.33039
1999.92134	0.32767
1997.99277	0.32499
1996.06421	0.32247
1994.13564	0.32008
1992.20708	0.31759
1990.27852	0.31495
1988.34995	0.31234
1986.42139	0.30975
1984.49282	0.30723
1982.56426	0.30483
1980.63569	0.30250
1978.70713	0.30021
1976.77856	0.29798
1974.85000	0.29574
1972.92144	0.29346
1970.99287	0.29122
1969.06431	0.28906
1967.13574	0.28700
1965.20718	0.28499
1963.27861	0.28298
1961.35005	0.28098
1959.42148	0.27900
1957.49292	0.27710
1955.56436	0.27525
1953.63579	0.27337
1951.70723	0.27149
1949.77866	0.26979
1947.85010	0.26817
1945.92153	0.26655
1943.99297	0.26503
1942.06440	0.26355
1940.13584	0.26205
1938.20728	0.26055
1936.27871	0.25910
1934.35015	0.25773
1932.42158	0.25648
1930.49302	0.25528
1928.56445	0.25407
1926.63589	0.25289
1924.70732	0.25186
1922.77876	0.25089
1920.85020	0.24990
1918.92163	0.24891
1916.99307	0.24798
1915.06450	0.24712
1913.13594	0.24626
1911.20737	0.24542
1909.27881	0.24465
1907.35024	0.24395
1905.42168	0.24324
1903.49312	0.24262
1901.56455	0.24218
1899.63599	0.24175
1897.70742	0.24122
1895.77886	0.24070
1893.85029	0.24029
1891.92173	0.23989
1889.99316	0.23961
1888.06460	0.23939
1886.13604	0.23908
1884.20747	0.23878
1882.27891	0.23863
1880.35034	0.23857
1878.42178	0.23849
1876.49321	0.23842
1874.56465	0.23834
1872.63608	0.23827
1870.70752	0.23827
1868.77896	0.23851
1866.85039	0.23889
1864.92183	0.23911
1862.99326	0.23925
1861.06470	0.23949
1859.13613	0.23987
1857.20757	0.24023
1855.27900	0.24064
1853.35044	0.24108
1851.42187	0.24158
1849.49331	0.24213
1847.56475	0.24267
1845.63618	0.24326
1843.70762	0.24414
1841.77905	0.24512
1839.85049	0.24576
1837.92192	0.24646
1835.99336	0.24730
1834.06479	0.24819
1832.13623	0.24901
1830.20767	0.25018
1828.27910	0.25174
1826.35054	0.25303
1824.42197	0.25435
1822.49341	0.25574
1820.56484	0.25715
1818.63628	0.25862
1816.70771	0.26029
1814.77915	0.26191
1812.85059	0.26349
1810.92202	0.26533
1808.99346	0.26743
1807.06489	0.26953
1805.13633	0.27150
1803.20776	0.27358
1801.27920	0.27594
1799.35063	0.27874
1797.42207	0.28137
1795.49351	0.28373
1793.56494	0.28626
1791.63638	0.28977
1789.70781	0.29354
1787.77925	0.29643
1785.85068	0.29961
1783.92212	0.30332
1781.99355	0.30726
1780.06499	0.31152
1778.13643	0.31598
1776.20786	0.31997
1774.27930	0.32396
1772.35073	0.32958
1770.42217	0.33611
1768.49360	0.34165
1766.56504	0.34698
1764.63647	0.35233
1762.70791	0.35809
1760.77935	0.36562
1758.85078	0.37281
1756.92222	0.37997
1754.99365	0.38794
1753.06509	0.39496
1751.13652	0.40278
1749.20796	0.41299
1747.27939	0.42370
1745.35083	0.43308
1743.42227	0.44267
1741.49370	0.45315
1739.56514	0.46564
1737.63657	0.47827
1735.70801	0.48900
1733.77944	0.50519
1731.85088	0.52533
1729.92231	0.54130
1727.99375	0.55744
1726.06519	0.57456
1724.13662	0.59309
1722.20806	0.61307
1720.27949	0.63107
1718.35093	0.65192
1716.42236	0.68470
1714.49380	0.71681
1712.56523	0.74186
1710.63667	0.76560
1708.70811	0.79091
1706.77954	0.81956
1704.85098	0.85440
1702.92241	0.88568
1700.99385	0.91574
1699.06528	0.96096
1697.13672	1.00333
1695.20815	1.04729
1693.27959	1.08918
1691.35103	1.12162
1689.42246	1.15893
1687.49390	1.19830
1685.56533	1.23542
1683.63677	1.29488
1681.70820	1.35870
1679.77964	1.39832
1677.85107	1.43571
1675.92251	1.47839
1673.99395	1.53126
1672.06538	1.57767
1670.13682	1.62269
1668.20825	1.68260
1666.27969	1.73020
1664.35112	1.77001
1662.42256	1.82061
1660.49399	1.87823
1658.56543	1.92250
1656.63687	1.95879
1654.70830	1.99200
1652.77974	2.04543
1650.85117	2.09922
1648.92261	2.11894
1646.99404	2.14556
1645.06548	2.17809
1643.13691	2.20249
1641.20835	2.21783
1639.27979	2.22984
1637.35122	2.23606
1635.42266	2.23713
1633.49409	2.23341
1631.56553	2.22295
1629.63696	2.20911
1627.70840	2.18405
1625.77983	2.15381
1623.85127	2.11534
1621.92271	2.06856
1619.99414	2.02701
1618.06558	1.98549
1616.13701	1.92509
1614.20845	1.86417
1612.27988	1.81824
1610.35132	1.76899
1608.42275	1.71457
1606.49419	1.66147
1604.56562	1.61350
1602.63706	1.56652
1600.70850	1.51973
1598.77993	1.47660
1596.85137	1.43600
1594.92280	1.39643
1592.99424	1.35822
1591.06567	1.32338
1589.13711	1.29060
1587.20854	1.25955
1585.27998	1.23025
1583.35142	1.20262
1581.42285	1.17728
1579.49429	1.15550
1577.56572	1.13557
1575.63716	1.11041
1573.70859	1.08834
1571.78003	1.07416
1569.85146	1.05846
1567.92290	1.04025
1565.99434	1.02642
1564.06577	1.01487
1562.13721	1.00506
1560.20864	0.99713
1558.28008	0.98419
1556.35151	0.97286
1554.42295	0.96640
1552.49438	0.95959
1550.56582	0.95165
1548.63726	0.94274
1546.70869	0.93460
1544.78013	0.92618
1542.85156	0.91558
1540.92300	0.90093
1538.99443	0.88165
1537.06587	0.86947
1535.13730	0.86100
1533.20874	0.84940
1531.28018	0.83720
1529.35161	0.82830
1527.42305	0.81946
1525.49448	0.81002
1523.56592	0.80183
1521.63735	0.79362
1519.70879	0.78514
1517.78022	0.77828
1515.85166	0.77080
1513.92310	0.76343
1511.99453	0.75715
1510.06597	0.75116
1508.13740	0.74531
1506.20884	0.73681
1504.28027	0.72957
1502.35171	0.72517
1500.42314	0.72103
1498.49458	0.71647
1496.56602	0.71126
1494.63745	0.70642
1492.70889	0.70269
1490.78032	0.69922
1488.85176	0.69526
1486.92319	0.69162
1484.99463	0.68864
1483.06606	0.68602
1481.13750	0.68353
1479.20894	0.68133
1477.28037	0.67942
1475.35181	0.67750
1473.42324	0.67563
1471.49468	0.67339
1469.56611	0.67083
1467.63755	0.66849
1465.70898	0.66635
1463.78042	0.66437
1461.85186	0.66269
1459.92329	0.66121
1457.99473	0.65966
1456.06616	0.65774
1454.13760	0.65567
1452.20903	0.65371
1450.28047	0.65163
1448.35190	0.64933
1446.42334	0.64693
1444.49478	0.64486
1442.56621	0.64316
1440.63765	0.64158
1438.70908	0.63986
1436.78052	0.63760
1434.85195	0.63520
1432.92339	0.63337
1430.99482	0.63195
1429.06626	0.63085
1427.13770	0.63005
1425.20913	0.62934
1423.28057	0.62859
1421.35200	0.62781
1419.42344	0.62705
1417.49487	0.62623
1415.56631	0.62515
1413.63774	0.62396
1411.70918	0.62277
1409.78062	0.62177
1407.85205	0.62099
1405.92349	0.62030
1403.99492	0.61962
1402.06636	0.61877
1400.13779	0.61755
1398.20923	0.61582
1396.28066	0.61376
1394.35210	0.61140
1392.42354	0.60908
1390.49497	0.60713
1388.56641	0.60520
1386.63784	0.60282
1384.70928	0.60026
1382.78071	0.59792
1380.85215	0.59574
1378.92358	0.59372
1376.99502	0.59198
1375.06646	0.59072
1373.13789	0.58996
1371.20933	0.58944
1369.28076	0.58888
1367.35220	0.58804
1365.42363	0.58680
1363.49507	0.58541
1361.56650	0.58428
1359.63794	0.58330
1357.70937	0.58228
1355.78081	0.58120
1353.85225	0.58015
1351.92368	0.57915
1349.99512	0.57820
1348.06655	0.57728
1346.13799	0.57637
1344.20942	0.57552
1342.28086	0.57467
1340.35229	0.57371
1338.42373	0.57263
1336.49517	0.57165
1334.56660	0.57092
1332.63804	0.57030
1330.70947	0.56967
1328.78091	0.56919
1326.85234	0.56891
1324.92378	0.56871
1322.99521	0.56852
1321.06665	0.56834
1319.13809	0.56815
1317.20952	0.56782
1315.28096	0.56729
1313.35239	0.56663
1311.42383	0.56581
1309.49526	0.56477
1307.56670	0.56367
1305.63813	0.56273
1303.70957	0.56190
1301.78101	0.56109
1299.85244	0.56030
1297.92388	0.55948
1295.99531	0.55852
1294.06675	0.55747
1292.13818	0.55639
1290.20962	0.55534
1288.28105	0.55448
1286.35249	0.55377
1284.42393	0.55306
1282.49536	0.55228
1280.56680	0.55142
1278.63823	0.55056
1276.70967	0.54979
1274.78110	0.54903
1272.85254	0.54823
1270.92397	0.54749
1268.99541	0.54694
1267.06685	0.54655
1265.13828	0.54617
1263.20972	0.54579
1261.28115	0.54538
1259.35259	0.54504
1257.42402	0.54484
1255.49546	0.54464
1253.56689	0.54443
1251.63833	0.54423
1249.70977	0.54402
1247.78120	0.54385
1245.85264	0.54374
1243.92407	0.54345
1241.99551	0.54290
1240.06694	0.54218
1238.13838	0.54122
1236.20981	0.54000
1234.28125	0.53886
1232.35269	0.53784
1230.42412	0.53670
1228.49556	0.53553
1226.56699	0.53449
1224.63843	0.53346
1222.70986	0.53232
1220.78130	0.53125
1218.85273	0.53035
1216.92417	0.52953
1214.99561	0.52871
1213.06704	0.52792
1211.13848	0.52726
1209.20991	0.52666
1207.28135	0.52609
1205.35278	0.52556
1203.42422	0.52495
1201.49565	0.52418
1199.56709	0.52338
1197.63853	0.52265
1195.70996	0.52196
1193.78140	0.52129
1191.85283	0.52078
1189.92427	0.52054
1187.99570	0.52035
1186.06714	0.52003
1184.13857	0.51980
1182.21001	0.51983
1180.28145	0.52010
1178.35288	0.52069
1176.42432	0.52164
1174.49575	0.52266
1172.56719	0.52339
1170.63862	0.52382
1168.71006	0.52415
1166.78149	0.52450
1164.85293	0.52481
1162.92437	0.52504
1160.99580	0.52520
1159.06724	0.52529
1157.13867	0.52512
1155.21011	0.52445
1153.28154	0.52331
1151.35298	0.52177
1149.42441	0.51971
1147.49585	0.51720
1145.56729	0.51466
1143.63872	0.51236
1141.71016	0.51004
1139.78159	0.50777
1137.85303	0.50582
1135.92446	0.50416
1133.99590	0.50290
1132.06733	0.50220
1130.13877	0.50162
1128.21021	0.50080
1126.28164	0.49996
1124.35308	0.49925
1122.42451	0.49858
1120.49595	0.49802
1118.56738	0.49786
1116.63882	0.49802
1114.71025	0.49800
1112.78169	0.49800
1110.85312	0.49867
1108.92456	0.49973
1106.99600	0.50072
1105.06743	0.50178
1103.13887	0.50290
1101.21030	0.50411
1099.28174	0.50575
1097.35317	0.50794
1095.42461	0.51068
1093.49604	0.51410
1091.56748	0.51839
1089.63892	0.52377
1087.71035	0.53040
1085.78179	0.53793
1083.85322	0.54562
1081.92466	0.55275
1079.99609	0.55836
1078.06753	0.56141
1076.13896	0.56157
1074.21040	0.55914
1072.28184	0.55447
1070.35327	0.54821
1068.42471	0.54141
1066.49614	0.53474
1064.56758	0.52843
1062.63901	0.52277
1060.71045	0.51793
1058.78188	0.51378
1056.85332	0.51006
1054.92476	0.50671
1052.99619	0.50391
1051.06763	0.50165
1049.13906	0.49988
1047.21050	0.49878
1045.28193	0.49839
1043.35337	0.49831
1041.42480	0.49819
1039.49624	0.49787
1037.56768	0.49735
1035.63911	0.49693
1033.71055	0.49662
1031.78198	0.49604
1029.85342	0.49521
1027.92485	0.49435
1025.99629	0.49359
1024.06772	0.49301
1022.13916	0.49265
1020.21060	0.49268
1018.28203	0.49307
1016.35347	0.49353
1014.42490	0.49386
1012.49634	0.49414
1010.56777	0.49459
1008.63921	0.49533
1006.71064	0.49645
1004.78208	0.49797
1002.85352	0.49999
1000.92495	0.50263
998.99639	0.50588
997.06782	0.50968
995.13926	0.51371
993.21069	0.51753
991.28213	0.52076
989.35356	0.52310
987.42500	0.52439
985.49644	0.52488
983.56787	0.52513
981.63931	0.52564
979.71074	0.52668
977.78218	0.52831
975.85361	0.53059
973.92505	0.53338
971.99648	0.53634
970.06792	0.53937
968.13936	0.54269
966.21079	0.54657
964.28223	0.55113
962.35366	0.55623
960.42510	0.56141
958.49653	0.56655
956.56797	0.57199
954.63940	0.57795
952.71084	0.58424
950.78228	0.59052
948.85371	0.59681
946.92515	0.60312
944.99658	0.60917
943.06802	0.61509
941.13945	0.62127
939.21089	0.62755
937.28232	0.63352
935.35376	0.63929
933.42520	0.64477
931.49663	0.64961
929.56807	0.65432
927.63950	0.65992
925.71094	0.66639
923.78237	0.67315
921.85381	0.68021
919.92524	0.68740
917.99668	0.69437
916.06812	0.70130
914.13955	0.70854
912.21099	0.71616
910.28242	0.72393
908.35386	0.73212
906.42529	0.74081
904.49673	0.74912
902.56816	0.75720
900.63960	0.76602
898.71104	0.77603
896.78247	0.78697
894.85391	0.79763
892.92534	0.80740
890.99678	0.81717
889.06821	0.82760
887.13965	0.83878
885.21108	0.84996
883.28252	0.86003
881.35396	0.87033
879.42539	0.88308
877.49683	0.89675
875.56826	0.90870
873.63970	0.91964
871.71113	0.93121
869.78257	0.94233
867.85400	0.95166
865.92544	0.96097
863.99687	0.97195
862.06831	0.98412
860.13975	0.99717
858.21118	1.01100
856.28262	1.02355
854.35405	1.03383
852.42549	1.04357
850.49692	1.05473
848.56836	1.06894
846.63979	1.08426
844.71123	1.09590
842.78267	1.10457
840.85410	1.11445
838.92554	1.12519
836.99697	1.13623
835.06841	1.14667
833.13984	1.15481
831.21128	1.16713
829.28271	1.18672
827.35415	1.20220
825.42559	1.20780
823.49702	1.21459
821.56846	1.22972
819.63989	1.24456
817.71133	1.25024
815.78276	1.25288
813.85420	1.26214
811.92563	1.28036
809.99707	1.29826
808.06851	1.30479
806.13994	1.31279
804.21138	1.33178
802.28281	1.35247
800.35425	1.37016
798.42568	1.38516
796.49712	1.39141
794.56855	1.39130
792.63999	1.39585
790.71143	1.39567
788.78286	1.42213
786.85430	1.50893
784.92573	1.55940
782.99717	1.52189
781.06860	1.49216
779.14004	1.45099
777.21147	1.39683
775.28291	1.38122
773.35435	1.37760
771.42578	1.34783
769.49722	1.31808
767.56865	1.31901
765.64009	1.36512
763.71152	1.45292
761.78296	1.45365
759.85439	1.32612
757.92583	1.22896
755.99727	1.17764
754.06870	1.16503
752.14014	1.22831
750.21157	1.32376
748.28301	1.25787
746.35444	1.12698
744.42588	1.06226
742.49731	1.04588
740.56875	1.06147
738.64019	1.04659
736.71162	0.91075
734.78306	0.75333
732.85449	0.63285
730.92593	0.53324
728.99736	0.45865
727.06880	0.44285
725.14023	0.47903
723.21167	0.49542
721.28311	0.44975
719.35454	0.39350
717.42598	0.35147
715.49741	0.24470
713.56885	0.08441
711.64028	0.00016
709.71172	0.03346
707.78315	0.06687
705.85459	0.01106
703.92603	-0.08092
701.99746	-0.02039
700.06890	0.14588
698.14033	0.16200
696.21177	0.13599
694.28320	0.18017
692.35464	0.17658
690.42607	0.14600
688.49751	0.20054
686.56895	0.32254
684.64038	0.40903
682.71182	0.33866
680.78325	0.24324
678.85469	0.23558
676.92612	0.25647
674.99756	0.24414
673.06899	0.26482
671.14043	0.33312
669.21187	0.37958
667.28330	0.35980
665.35474	0.28462
663.42617	0.19488
661.49761	0.13782
659.56904	0.14644
657.64048	0.21221
655.71191	0.32895
653.78335	0.50404
651.85479	0.43854
649.92622	0.23245
647.99766	0.14847
646.06909	0.23789
644.14053	0.40930
642.21196	0.49978
640.28340	0.59581
638.35483	0.68520
636.42627	0.36673
634.49771	0.14453
632.56914	0.18085
630.64058	0.29860
628.71201	0.30027
626.78345	0.26777
624.85488	0.26237
622.92632	0.22852
620.99775	0.17051
619.06919	0.14200
617.14062	0.14726
615.21206	0.17302
613.28350	0.22325
611.35493	0.23076
609.42637	0.18924
607.49780	0.20654
605.56924	0.34374
603.64067	0.65944
601.71211	0.68834
599.78354	0.42220
597.85498	0.30928
595.92642	0.28403
593.99785	0.29295
592.06929	0.27680
590.14072	0.22578
588.21216	0.22093
586.28359	0.27609
584.35503	0.30236
582.42646	0.32230
580.49790	0.52148
578.56934	0.99382
576.64077	0.60031
574.71221	0.38645
572.78364	0.32932
570.85508	0.29524
568.92651	0.28265
566.99795	0.28317
565.06938	0.31131
563.14082	0.37319
561.21226	0.35663
559.28369	0.26224
557.35513	0.24186
555.42656	0.36689
553.49800	0.48933
551.56943	0.43555
549.64087	0.36235
547.71230	0.32075
545.78374	0.30421
543.85518	0.27469
541.92661	0.24220
539.99805	0.23563
538.06948	0.25870
536.14092	0.31156
534.21235	0.34502
532.28379	0.32171
530.35522	0.30777
528.42666	0.35234
526.49810	0.34875
524.56953	0.26323
522.64097	0.17922
520.71240	0.11342
518.78384	0.10821
516.85527	0.14564
514.92671	0.17773
512.99814	0.17181
511.06958	0.12650
509.14102	0.12044
507.21245	0.16673
505.28389	0.20488
503.35532	0.22921
501.42676	0.26258
499.49819	0.28501
