3997.91411	0.06599
3995.98555	0.06620
3994.05698	0.06624
3992.12842	0.06647
3990.19985	0.06702
3988.27129	0.06773
3986.34272	0.06811
3984.41416	0.06814
3982.48560	0.06808
3980.55703	0.06799
3978.62847	0.06792
3976.69990	0.06788
3974.77134	0.06796
3972.84277	0.06847
3970.91421	0.06915
3968.98564	0.06955
3967.05708	0.06984
3965.12852	0.07004
3963.19995	0.06990
3961.27139	0.06974
3959.34282	0.06986
3957.41426	0.06991
3955.48569	0.06974
3953.55713	0.06952
3951.62856	0.06928
3949.70000	0.06891
3947.77144	0.06864
3945.84287	0.06887
3943.91431	0.06911
3941.98574	0.06910
3940.05718	0.06923
3938.12861	0.06973
3936.20005	0.07030
3934.27148	0.07029
3932.34292	0.06974
3930.41436	0.06942
3928.48579	0.06962
3926.55723	0.06970
3924.62866	0.06932
3922.70010	0.06885
3920.77153	0.06842
3918.84297	0.06804
3916.91440	0.06811
3914.98584	0.06868
3913.05728	0.06925
3911.12871	0.06956
3909.20015	0.06942
3907.27158	0.06872
3905.34302	0.06777
3903.41445	0.06735
3901.48589	0.06744
3899.55732	0.06737
3897.62876	0.06792
3895.70020	0.06880
3893.77163	0.06878
3891.84307	0.06816
3889.91450	0.06810
3887.98594	0.06826
3886.05737	0.06795
3884.12881	0.06745
3882.20024	0.06713
3880.27168	0.06729
3878.34312	0.06832
3876.41455	0.06908
3874.48599	0.06893
3872.55742	0.06855
3870.62886	0.06819
3868.70029	0.06817
3866.77173	0.06870
3864.84316	0.06899
3862.91460	0.06928
3860.98604	0.07005
3859.05747	0.07067
3857.12891	0.07060
3855.20034	0.06956
3853.27178	0.06811
3851.34321	0.06959
3849.41465	0.07264
3847.48608	0.07432
3845.55752	0.07479
3843.62896	0.07422
3841.70039	0.07302
3839.77183	0.07205
3837.84326	0.07232
3835.91470	0.07381
3833.98613	0.07546
3832.05757	0.07718
3830.12900	0.07880
3828.20044	0.07961
3826.27187	0.07997
3824.34331	0.08021
3822.41475	0.08002
3820.48618	0.08027
3818.55762	0.08170
3816.62905	0.08324
3814.70049	0.08514
3812.77192	0.08723
3810.84336	0.08863
3808.91479	0.08928
3806.98623	0.08965
3805.05767	0.09029
3803.12910	0.09050
3801.20054	0.09081
3799.27197	0.09274
3797.34341	0.09478
3795.41484	0.09654
3793.48628	0.09829
3791.55771	0.09962
3789.62915	0.10108
3787.70059	0.10275
3785.77202	0.10405
3783.84346	0.10530
3781.91489	0.10693
3779.98633	0.10861
3778.05776	0.11032
3776.12920	0.11214
3774.20063	0.11391
3772.27207	0.11527
3770.34351	0.11626
3768.41494	0.11770
3766.48638	0.11946
3764.55781	0.12151
3762.62925	0.12390
3760.70068	0.12583
3758.77212	0.12749
3756.84355	0.12946
3754.91499	0.13119
3752.98643	0.13205
3751.05786	0.13282
3749.12930	0.13585
3747.20073	0.13955
3745.27217	0.14192
3743.34360	0.14603
3741.41504	0.15134
3739.48647	0.15435
3737.55791	0.15600
3735.62935	0.15833
3733.70078	0.16380
3731.77222	0.17168
3729.84365	0.17833
3727.91509	0.18285
3725.98652	0.18738
3724.05796	0.19358
3722.12939	0.20080
3720.20083	0.20868
3718.27227	0.21710
3716.34370	0.22521
3714.41514	0.23221
3712.48657	0.23951
3710.55801	0.25097
3708.62944	0.26635
3706.70088	0.28014
3704.77231	0.29232
3702.84375	0.30551
3700.91519	0.32254
3698.98662	0.34169
3697.05806	0.35951
3695.12949	0.37763
3693.20093	0.39638
3691.27236	0.41617
3689.34380	0.44275
3687.41523	0.47873
3685.48667	0.51177
3683.55811	0.53952
3681.62954	0.56769
3679.70098	0.59841
3677.77241	0.63035
3675.84385	0.66842
3673.91528	0.72229
3671.98672	0.76620
3670.05815	0.80410
3668.12959	0.85931
3666.20103	0.91084
3664.27246	0.95281
3662.34390	0.99727
3660.41533	1.04475
3658.48677	1.09039
3656.55820	1.13896
3654.62964	1.19486
3652.70107	1.24117
3650.77251	1.27865
3648.84395	1.33176
3646.91538	1.40372
3644.98682	1.45774
3643.05825	1.49802
3641.12969	1.53856
3639.20112	1.58284
3637.27256	1.62695
3635.34399	1.66945
3633.41543	1.71163
3631.48687	1.75067
3629.55830	1.78985
3627.62974	1.84432
3625.70117	1.89814
3623.77261	1.93422
3621.84404	1.96732
3619.91548	2.00434
3617.98691	2.05002
3616.05835	2.09524
3614.12979	2.13333
3612.20122	2.17321
3610.27266	2.21183
3608.34409	2.24980
3606.41553	2.29318
3604.48696	2.33578
3602.55840	2.37218
3600.62983	2.40948
3598.70127	2.45092
3596.77271	2.49194
3594.84414	2.53279
3592.91558	2.57518
3590.98701	2.61484
3589.05845	2.65017
3587.12988	2.69237
3585.20132	2.74128
3583.27275	2.78377
3581.34419	2.82273
3579.41562	2.86347
3577.48706	2.90641
3575.55850	2.95029
3573.62993	2.99509
3571.70137	3.03726
3569.77280	3.07404
3567.84424	3.11171
3565.91567	3.16470
3563.98711	3.22173
3562.05854	3.26587
3560.12998	3.30710
3558.20142	3.35186
3556.27285	3.39820
3554.34429	3.44287
3552.41572	3.48860
3550.48716	3.53686
3548.55859	3.58407
3546.63003	3.62960
3544.70146	3.67621
3542.77290	3.72382
3540.84434	3.77392
3538.91577	3.82447
3536.98721	3.86962
3535.05864	3.91390
3533.13008	3.96050
3531.20151	4.00632
3529.27295	4.05089
3527.34438	4.09809
3525.41582	4.14780
3523.48726	4.19842
3521.55869	4.25194
3519.63013	4.30277
3517.70156	4.34938
3515.77300	4.39465
3513.84443	4.43784
3511.91587	4.48553
3509.98730	4.54531
3508.05874	4.60404
3506.13018	4.64609
3504.20161	4.68006
3502.27305	4.71901
3500.34448	4.76559
3498.41592	4.81833
3496.48735	4.87373
3494.55879	4.92530
3492.63022	4.97535
3490.70166	5.02682
3488.77310	5.07366
3486.84453	5.11944
3484.91597	5.17069
3482.98740	5.21754
3481.05884	5.25856
3479.13027	5.30486
3477.20171	5.35642
3475.27314	5.40905
3473.34458	5.45960
3471.41602	5.50496
3469.48745	5.55216
3467.55889	5.60511
3465.63032	5.65342
3463.70176	5.70016
3461.77319	5.75841
3459.84463	5.81833
3457.91606	5.86038
3455.98750	5.90197
3454.05894	5.96105
3452.13037	6.02131
3450.20181	6.07280
3448.27324	6.12017
3446.34468	6.17328
3444.41611	6.22978
3442.48755	6.28086
3440.55898	6.33039
3438.63042	6.37996
3436.70186	6.41302
3434.77329	6.43814
3432.84473	6.47479
3430.91616	6.51232
3428.98760	6.55616
3427.05903	6.60323
3425.13047	6.65409
3423.20190	6.72402
3421.27334	6.80453
3419.34478	6.86828
3417.41621	6.89945
3415.48765	6.92824
3413.55908	6.98631
3411.63052	7.05100
3409.70195	7.08729
3407.77339	7.11162
3405.84482	7.13540
3403.91626	7.16625
3401.98770	7.19541
3400.05913	7.23145
3398.13057	7.30342
3396.20200	7.37654
3394.27344	7.42800
3392.34487	7.46020
3390.41631	7.48454
3388.48774	7.53632
3386.55918	7.60986
3384.63062	7.62415
3382.70205	7.59020
3380.77349	7.60645
3378.84492	7.70673
3376.91636	7.81788
3374.98779	7.83147
3373.05923	7.80465
3371.13066	7.77332
3369.20210	7.72432
3367.27354	7.70687
3365.34497	7.75419
3363.41641	7.81255
3361.48784	7.84540
3359.55928	7.90233
3357.63071	7.95857
3355.70215	7.97335
3353.77358	7.95772
3351.84502	7.98553
3349.91646	8.06106
3347.98789	8.09296
3346.05933	8.09058
3344.13076	8.11460
3342.20220	8.14217
3340.27363	8.13297
3338.34507	8.10612
3336.41650	8.07325
3334.48794	8.07197
3332.55937	8.06910
3330.63081	8.00706
3328.70225	7.91675
3326.77368	7.87856
3324.84512	7.97873
3322.91655	8.17752
3320.98799	8.24888
3319.05942	8.14904
3317.13086	8.17045
3315.20229	8.29698
3313.27373	8.29316
3311.34517	8.24069
3309.41660	8.23275
3307.48804	8.18816
3305.55947	8.12511
3303.63091	8.11552
3301.70234	8.12245
3299.77378	8.10570
3297.84521	8.07226
3295.91665	8.07780
3293.98809	8.10536
3292.05952	8.10685
3290.13096	8.10551
3288.20239	8.11384
3286.27383	8.12948
3284.34526	8.13832
3282.41670	8.15200
3280.48813	8.14251
3278.55957	8.09913
3276.63101	8.06708
3274.70244	8.08541
3272.77388	8.16310
3270.84531	8.23641
3268.91675	8.23129
3266.98818	8.19862
3265.05962	8.24876
3263.13105	8.33459
3261.20249	8.32048
3259.27393	8.22128
3257.34536	8.18710
3255.41680	8.22689
3253.48823	8.27009
3251.55967	8.30616
3249.63110	8.27307
3247.70254	8.19825
3245.77397	8.15777
3243.84541	8.21681
3241.91685	8.35911
3239.98828	8.38928
3238.05972	8.26417
3236.13115	8.12499
3234.20259	8.04060
3232.27402	8.01991
3230.34546	8.05293
3228.41689	8.10822
3226.48833	8.09352
3224.55977	8.00996
3222.63120	7.96918
3220.70264	7.96358
3218.77407	7.94635
3216.84551	7.91839
3214.91694	7.95371
3212.98838	8.11237
3211.05981	8.19010
3209.13125	8.05371
3207.20269	7.94989
3205.27412	7.97448
3203.34556	8.03313
3201.41699	8.05313
3199.48843	7.96648
3197.55986	7.80204
3195.63130	7.68002
3193.70273	7.63544
3191.77417	7.62512
3189.84561	7.60637
3187.91704	7.57135
3185.98848	7.52125
3184.05991	7.46714
3182.13135	7.43691
3180.20278	7.41724
3178.27422	7.35110
3176.34565	7.24890
3174.41709	7.16739
3172.48853	7.10620
3170.55996	7.05770
3168.63140	7.02605
3166.70283	6.98322
3164.77427	6.91691
3162.84570	6.85184
3160.91714	6.78991
3158.98857	6.70755
3157.06001	6.61384
3155.13145	6.55348
3153.20288	6.52334
3151.27432	6.48221
3149.34575	6.42368
3147.41719	6.34792
3145.48862	6.25388
3143.56006	6.16033
3141.63149	6.07709
3139.70293	6.00452
3137.77437	5.94202
3135.84580	5.87963
3133.91724	5.81687
3131.98867	5.75435
3130.06011	5.68416
3128.13154	5.61161
3126.20298	5.54316
3124.27441	5.47423
3122.34585	5.39883
3120.41729	5.32351
3118.48872	5.25672
3116.56016	5.18982
3114.63159	5.11840
3112.70303	5.05202
3110.77446	4.98854
3108.84590	4.91795
3106.91733	4.84337
3104.98877	4.77136
3103.06021	4.69993
3101.13164	4.62779
3099.20308	4.55856
3097.27451	4.49234
3095.34595	4.42878
3093.41738	4.36946
3091.48882	4.31016
3089.56025	4.24701
3087.63169	4.18426
3085.70312	4.12450
3083.77456	4.06378
3081.84600	3.99982
3079.91743	3.93493
3077.98887	3.87266
3076.06030	3.81359
3074.13174	3.75585
3072.20317	3.69818
3070.27461	3.64019
3068.34604	3.58206
3066.41748	3.52399
3064.48892	3.46726
3062.56035	3.41314
3060.63179	3.36114
3058.70322	3.30896
3056.77466	3.25529
3054.84609	3.20141
3052.91753	3.14823
3050.98896	3.09634
3049.06040	3.04595
3047.13184	2.99649
3045.20327	2.94746
3043.27471	2.89872
3041.34614	2.85044
3039.41758	2.80295
3037.48901	2.75625
3035.56045	2.70940
3033.63188	2.66257
3031.70332	2.61710
3029.77476	2.57276
3027.84619	2.52943
3025.91763	2.48728
3023.98906	2.44507
3022.06050	2.40230
3020.13193	2.36011
3018.20337	2.31925
3016.27480	2.27965
3014.34624	2.24102
3012.41768	2.20246
3010.48911	2.16368
3008.56055	2.12590
3006.63198	2.08942
3004.70342	2.05327
3002.77485	2.01747
3000.84629	1.98255
2998.91772	1.94881
2996.98916	1.91616
2995.06060	1.88384
2993.13203	1.85164
2991.20347	1.82028
2989.27490	1.78984
2987.34634	1.75970
2985.41777	1.73012
2983.48921	1.70168
2981.56064	1.67388
2979.63208	1.64643
2977.70352	1.61955
2975.77495	1.59293
2973.84639	1.56639
2971.91782	1.54028
2969.98926	1.51464
2968.06069	1.48939
2966.13213	1.46475
2964.20356	1.44058
2962.27500	1.41669
2960.34644	1.39298
2958.41787	1.36916
2956.48931	1.34497
2954.56074	1.32074
2952.63218	1.29692
2950.70361	1.27376
2948.77505	1.25146
2946.84648	1.22981
2944.91792	1.20818
2942.98936	1.18648
2941.06079	1.16566
2939.13223	1.14582
2937.20366	1.12554
2935.27510	1.10439
2933.34653	1.08353
2931.41797	1.06388
2929.48940	1.04518
2927.56084	1.02663
2925.63228	1.00788
2923.70371	0.98928
2921.77515	0.97093
2919.84658	0.95296
2917.91802	0.93576
2915.98945	0.91923
2914.06089	0.90326
2912.13232	0.88757
2910.20376	0.87174
2908.27520	0.85640
2906.34663	0.84205
2904.41807	0.82808
2902.48950	0.81426
2900.56094	0.80086
2898.63237	0.78793
2896.70381	0.77525
2894.77524	0.76235
2892.84668	0.74951
2890.91812	0.73751
2888.98955	0.72613
2887.06099	0.71477
2885.13242	0.70345
2883.20386	0.69254
2881.27529	0.68230
2879.34673	0.67249
2877.41816	0.66266
2875.48960	0.65266
2873.56104	0.64230
2871.63247	0.63159
2869.70391	0.62072
2867.77534	0.60963
2865.84678	0.59827
2863.91821	0.58694
2861.98965	0.57586
2860.06108	0.56489
2858.13252	0.55414
2856.20396	0.54387
2854.27539	0.53398
2852.34683	0.52447
2850.41826	0.51549
2848.48970	0.50671
2846.56113	0.49815
2844.63257	0.49052
2842.70400	0.48401
2840.77544	0.47810
2838.84687	0.47212
2836.91831	0.46592
2834.98975	0.45989
2833.06118	0.45399
2831.13262	0.44785
2829.20405	0.44166
2827.27549	0.43579
2825.34692	0.43004
2823.41836	0.42401
2821.48979	0.41770
2819.56123	0.41144
2817.63267	0.40538
2815.70410	0.39948
2813.77554	0.39383
2811.84697	0.38831
2809.91841	0.38281
2807.98984	0.37746
2806.06128	0.37221
2804.13271	0.36703
2802.20415	0.36194
2800.27559	0.35684
2798.34702	0.35176
2796.41846	0.34674
2794.48989	0.34182
2792.56133	0.33709
2790.63276	0.33252
2788.70420	0.32803
2786.77563	0.32356
2784.84707	0.31913
2782.91851	0.31490
2780.98994	0.31079
2779.06138	0.30656
2777.13281	0.30223
2775.20425	0.29809
2773.27568	0.29433
2771.34712	0.29071
2769.41855	0.28690
2767.48999	0.28314
2765.56143	0.27962
2763.63286	0.27621
2761.70430	0.27285
2759.77573	0.26948
2757.84717	0.26617
2755.91860	0.26297
2753.99004	0.25976
2752.06147	0.25662
2750.13291	0.25368
2748.20435	0.25081
2746.27578	0.24796
2744.34722	0.24525
2742.41865	0.24247
2740.49009	0.23956
2738.56152	0.23677
2736.63296	0.23417
2734.70439	0.23174
2732.77583	0.22941
2730.84727	0.22709
2728.91870	0.22474
2726.99014	0.22229
2725.06157	0.21987
2723.13301	0.21774
2721.20444	0.21573
2719.27588	0.21370
2717.34731	0.21175
2715.41875	0.20970
2713.49019	0.20756
2711.56162	0.20565
2709.63306	0.20398
2707.70449	0.20227
2705.77593	0.20049
2703.84736	0.19880
2701.91880	0.19717
2699.99023	0.19557
2698.06167	0.19398
2696.13311	0.19241
2694.20454	0.19099
2692.27598	0.18969
2690.34741	0.18831
2688.41885	0.18696
2686.49028	0.18570
2684.56172	0.18448
2682.63315	0.18337
2680.70459	0.18232
2678.77603	0.18110
2676.84746	0.17968
2674.91890	0.17839
2672.99033	0.17732
2671.06177	0.17615
2669.13320	0.17492
2667.20464	0.17380
2665.27607	0.17274
2663.34751	0.17174
2661.41895	0.17080
2659.49038	0.16989
2657.56182	0.16907
2655.63325	0.16833
2653.70469	0.16764
2651.77612	0.16697
2649.84756	0.16628
2647.91899	0.16554
2645.99043	0.16480
2644.06187	0.16414
2642.13330	0.16352
2640.20474	0.16300
2638.27617	0.16252
2636.34761	0.16194
2634.41904	0.16130
2632.49048	0.16080
2630.56191	0.16046
2628.63335	0.16012
2626.70479	0.15971
2624.77622	0.15924
2622.84766	0.15880
2620.91909	0.15855
2618.99053	0.15839
2617.06196	0.15819
2615.13340	0.15803
2613.20483	0.15794
2611.27627	0.15773
2609.34771	0.15742
2607.41914	0.15715
2605.49058	0.15694
2603.56201	0.15683
2601.63345	0.15688
2599.70488	0.15702
2597.77632	0.15709
2595.84775	0.15708
2593.91919	0.15707
2591.99062	0.15719
2590.06206	0.15742
2588.13350	0.15756
2586.20493	0.15758
2584.27637	0.15768
2582.34780	0.15785
2580.41924	0.15800
2578.49067	0.15823
2576.56211	0.15859
2574.63354	0.15895
2572.70498	0.15926
2570.77642	0.15958
2568.84785	0.15995
2566.91929	0.16037
2564.99072	0.16078
2563.06216	0.16118
2561.13359	0.16158
2559.20503	0.16191
2557.27646	0.16226
2555.34790	0.16276
2553.41934	0.16329
2551.49077	0.16382
2549.56221	0.16443
2547.63364	0.16498
2545.70508	0.16539
2543.77651	0.16582
2541.84795	0.16641
2539.91938	0.16717
2537.99082	0.16798
2536.06226	0.16866
2534.13369	0.16926
2532.20513	0.16990
2530.27656	0.17051
2528.34800	0.17110
2526.41943	0.17182
2524.49087	0.17265
2522.56230	0.17349
2520.63374	0.17424
2518.70518	0.17490
2516.77661	0.17556
2514.84805	0.17627
2512.91948	0.17705
2510.99092	0.17786
2509.06235	0.17862
2507.13379	0.17936
2505.20522	0.18021
2503.27666	0.18110
2501.34810	0.18189
2499.41953	0.18260
2497.49097	0.18331
2495.56240	0.18420
2493.63384	0.18527
2491.70527	0.18623
2489.77671	0.18698
2487.84814	0.18772
2485.91958	0.18858
2483.99102	0.18952
2482.06245	0.19043
2480.13389	0.19125
2478.20532	0.19200
2476.27676	0.19277
2474.34819	0.19361
2472.41963	0.19451
2470.49106	0.19541
2468.56250	0.19627
2466.63394	0.19718
2464.70537	0.19823
2462.77681	0.19922
2460.84824	0.19998
2458.91968	0.20073
2456.99111	0.20167
2455.06255	0.20273
2453.13398	0.20380
2451.20542	0.20485
2449.27686	0.20584
2447.34829	0.20681
2445.41973	0.20779
2443.49116	0.20878
2441.56260	0.20979
2439.63403	0.21084
2437.70547	0.21178
2435.77690	0.21264
2433.84834	0.21359
2431.91978	0.21467
2429.99121	0.21579
2428.06265	0.21693
2426.13408	0.21811
2424.20552	0.21926
2422.27695	0.22027
2420.34839	0.22119
2418.41982	0.22223
2416.49126	0.22339
2414.56270	0.22448
2412.63413	0.22549
2410.70557	0.22658
2408.77700	0.22779
2406.84844	0.22906
2404.91987	0.23031
2402.99131	0.23142
2401.06274	0.23256
2399.13418	0.23391
2397.20562	0.23533
2395.27705	0.23664
2393.34849	0.23782
2391.41992	0.23905
2389.49136	0.24032
2387.56279	0.24143
2385.63423	0.24230
2383.70566	0.24296
2381.77710	0.24346
2379.84854	0.24395
2377.91997	0.24457
2375.99141	0.24518
2374.06284	0.24525
2372.13428	0.24498
2370.20571	0.24532
2368.27715	0.24610
2366.34858	0.24594
2364.42002	0.24452
2362.49146	0.24364
2360.56289	0.24437
2358.63433	0.24555
2356.70576	0.24740
2354.77720	0.25133
2352.84863	0.25699
2350.92007	0.26166
2348.99150	0.26393
2347.06294	0.26463
2345.13437	0.26451
2343.20581	0.26408
2341.27725	0.26441
2339.34868	0.26594
2337.42012	0.26808
2335.49155	0.27024
2333.56299	0.27211
2331.63442	0.27398
2329.70586	0.27611
2327.77729	0.27827
2325.84873	0.28048
2323.92017	0.28281
2321.99160	0.28547
2320.06304	0.28865
2318.13447	0.29169
2316.20591	0.29409
2314.27734	0.29619
2312.34878	0.29831
2310.42021	0.30052
2308.49165	0.30267
2306.56309	0.30468
2304.63452	0.30663
2302.70596	0.30866
2300.77739	0.31088
2298.84883	0.31305
2296.92026	0.31510
2294.99170	0.31725
2293.06313	0.31946
2291.13457	0.32150
2289.20601	0.32343
2287.27744	0.32544
2285.34888	0.32755
2283.42031	0.32964
2281.49175	0.33165
2279.56318	0.33363
2277.63462	0.33568
2275.70605	0.33775
2273.77749	0.33984
2271.84893	0.34201
2269.92036	0.34420
2267.99180	0.34632
2266.06323	0.34841
2264.13467	0.35050
2262.20610	0.35268
2260.27754	0.35495
2258.34897	0.35726
2256.42041	0.35947
2254.49185	0.36158
2252.56328	0.36372
2250.63472	0.36593
2248.70615	0.36812
2246.77759	0.37030
2244.84902	0.37251
2242.92046	0.37471
2240.99189	0.37700
2239.06333	0.37938
2237.13477	0.38159
2235.20620	0.38365
2233.27764	0.38594
2231.34907	0.38843
2229.42051	0.39085
2227.49194	0.39304
2225.56338	0.39512
2223.63481	0.39731
2221.70625	0.39956
2219.77769	0.40178
2217.84912	0.40395
2215.92056	0.40609
2213.99199	0.40830
2212.06343	0.41058
2210.13486	0.41278
2208.20630	0.41488
2206.27773	0.41699
2204.34917	0.41914
2202.42061	0.42123
2200.49204	0.42318
2198.56348	0.42505
2196.63491	0.42705
2194.70635	0.42918
2192.77778	0.43121
2190.84922	0.43307
2188.92065	0.43488
2186.99209	0.43664
2185.06353	0.43843
2183.13496	0.44020
2181.20640	0.44186
2179.27783	0.44360
2177.34927	0.44538
2175.42070	0.44697
2173.49214	0.44840
2171.56357	0.44979
2169.63501	0.45114
2167.70645	0.45249
2165.77788	0.45384
2163.84932	0.45510
2161.92075	0.45628
2159.99219	0.45749
2158.06362	0.45856
2156.13506	0.45941
2154.20649	0.46023
2152.27793	0.46106
2150.34937	0.46190
2148.42080	0.46268
2146.49224	0.46324
2144.56367	0.46366
2142.63511	0.46411
2140.70654	0.46453
2138.77798	0.46477
2136.84941	0.46496
2134.92085	0.46508
2132.99229	0.46509
2131.06372	0.46508
2129.13516	0.46501
2127.20659	0.46483
2125.27803	0.46454
2123.34946	0.46413
2121.42090	0.46366
2119.49233	0.46310
2117.56377	0.46237
2115.63521	0.46157
2113.70664	0.46079
2111.77808	0.45997
2109.84951	0.45902
2107.92095	0.45807
2105.99238	0.45700
2104.06382	0.45572
2102.13525	0.45434
2100.20669	0.45294
2098.27812	0.45147
2096.34956	0.44999
2094.42100	0.44861
2092.49243	0.44715
2090.56387	0.44549
2088.63530	0.44368
2086.70674	0.44179
2084.77817	0.43982
2082.84961	0.43779
2080.92104	0.43578
2078.99248	0.43385
2077.06392	0.43188
2075.13535	0.42980
2073.20679	0.42771
2071.27822	0.42560
2069.34966	0.42333
2067.42109	0.42084
2065.49253	0.41832
2063.56396	0.41587
2061.63540	0.41342
2059.70684	0.41095
2057.77827	0.40853
2055.84971	0.40613
2053.92114	0.40366
2051.99258	0.40103
2050.06401	0.39828
2048.13545	0.39555
2046.20688	0.39287
2044.27832	0.39023
2042.34976	0.38749
2040.42119	0.38460
2038.49263	0.38181
2036.56406	0.37920
2034.63550	0.37654
2032.70693	0.37371
2030.77837	0.37082
2028.84980	0.36794
2026.92124	0.36509
2024.99268	0.36224
2023.06411	0.35938
2021.13555	0.35653
2019.20698	0.35369
2017.27842	0.35087
2015.34985	0.34810
2013.42129	0.34537
2011.49272	0.34256
2009.56416	0.33978
2007.63560	0.33708
2005.70703	0.33439
2003.77847	0.33170
2001.84990	0.32907
1999.92134	0.32646
1997.99277	0.32382
1996.06421	0.32113
1994.13564	0.31840
1992.20708	0.31577
1990.27852	0.31334
1988.34995	0.31102
1986.42139	0.30868
1984.49282	0.30625
1982.56426	0.30370
1980.63569	0.30117
1978.70713	0.29884
1976.77856	0.29662
1974.85000	0.29441
1972.92144	0.29223
1970.99287	0.29006
1969.06431	0.28783
1967.13574	0.28556
1965.20718	0.28352
1963.27861	0.28170
1961.35005	0.27982
1959.42148	0.27788
1957.49292	0.27601
1955.56436	0.27422
1953.63579	0.27254
1951.70723	0.27090
1949.77866	0.26919
1947.85010	0.26748
1945.92153	0.26579
1943.99297	0.26402
1942.06440	0.26227
1940.13584	0.26078
1938.20728	0.25947
1936.27871	0.25817
1934.35015	0.25693
1932.42158	0.25577
1930.49302	0.25458
1928.56445	0.25337
1926.63589	0.25212
1924.70732	0.25082
1922.77876	0.24962
1920.85020	0.24870
1918.92163	0.24784
1916.99307	0.24697
1915.06450	0.24624
1913.13594	0.24550
1911.20737	0.24469
1909.27881	0.24390
1907.35024	0.24327
1905.42168	0.24271
1903.49312	0.24216
1901.56455	0.24167
1899.63599	0.24122
1897.70742	0.24074
1895.77886	0.24014
1893.85029	0.23962
1891.92173	0.23922
1889.99316	0.23890
1888.06460	0.23872
1886.13604	0.23863
1884.20747	0.23850
1882.27891	0.23834
1880.35034	0.23824
1878.42178	0.23813
1876.49321	0.23802
1874.56465	0.23794
1872.63608	0.23793
1870.70752	0.23773
1868.77896	0.23756
1866.85039	0.23787
1864.92183	0.23839
1862.99326	0.23881
1861.06470	0.23914
1859.13613	0.23946
1857.20757	0.23980
1855.27900	0.24026
1853.35044	0.24075
1851.42187	0.24125
1849.49331	0.24168
1847.56475	0.24202
1845.63618	0.24236
1843.70762	0.24313
1841.77905	0.24436
1839.85049	0.24528
1837.92192	0.24609
1835.99336	0.24700
1834.06479	0.24799
1832.13623	0.24872
1830.20767	0.24950
1828.27910	0.25082
1826.35054	0.25222
1824.42197	0.25375
1822.49341	0.25531
1820.56484	0.25677
1818.63628	0.25825
1816.70771	0.25991
1814.77915	0.26142
1812.85059	0.26279
1810.92202	0.26450
1808.99346	0.26670
1807.06489	0.26900
1805.13633	0.27108
1803.20776	0.27309
1801.27920	0.27518
1799.35063	0.27779
1797.42207	0.28039
1795.49351	0.28267
1793.56494	0.28501
1791.63638	0.28843
1789.70781	0.29255
1787.77925	0.29577
1785.85068	0.29892
1783.92212	0.30244
1781.99355	0.30628
1780.06499	0.31043
1778.13643	0.31476
1776.20786	0.31861
1774.27930	0.32223
1772.35073	0.32730
1770.42217	0.33389
1768.49360	0.34001
1766.56504	0.34574
1764.63647	0.35122
1762.70791	0.35681
1760.77935	0.36415
1758.85078	0.37133
1756.92222	0.37845
1754.99365	0.38627
1753.06509	0.39306
1751.13652	0.40045
1749.20796	0.41008
1747.27939	0.42062
1745.35083	0.43027
1743.42227	0.44007
1741.49370	0.45049
1739.56514	0.46294
1737.63657	0.47556
1735.70801	0.48596
1733.77944	0.50164
1731.85088	0.52197
1729.92231	0.53846
1727.99375	0.55496
1726.06519	0.57226
1724.13662	0.59080
1722.20806	0.61057
1720.27949	0.62808
1718.35093	0.64791
1716.42236	0.67942
1714.49380	0.71165
1712.56523	0.73772
1710.63667	0.76210
1708.70811	0.78739
1706.77954	0.81564
1704.85098	0.85018
1702.92241	0.88140
1700.99385	0.91136
1699.06528	0.95668
1697.13672	0.99965
1695.20815	1.04531
1693.27959	1.08963
1691.35103	1.12410
1689.42246	1.16353
1687.49390	1.20520
1685.56533	1.24434
1683.63677	1.30696
1681.70820	1.37467
1679.77964	1.41703
1677.85107	1.45691
1675.92251	1.50242
1673.99395	1.55987
1672.06538	1.61136
1670.13682	1.66172
1668.20825	1.72933
1666.27969	1.78324
1664.35112	1.82786
1662.42256	1.88624
1660.49399	1.95516
1658.56543	2.00706
1656.63687	2.04734
1654.70830	2.08338
1652.77974	2.14090
1650.85117	2.19755
1648.92261	2.21731
1646.99404	2.24649
1645.06548	2.27837
1643.13691	2.29641
1641.20835	2.30573
1639.27979	2.31511
1637.35122	2.32043
1635.42266	2.31940
1633.49409	2.31280
1631.56553	2.30032
1629.63696	2.28392
1627.70840	2.25477
1625.77983	2.22090
1623.85127	2.17752
1621.92271	2.12332
1619.99414	2.07628
1618.06558	2.03137
1616.13701	1.96699
1614.20845	1.90335
1612.27988	1.85599
1610.35132	1.80499
1608.42275	1.74887
1606.49419	1.69388
1604.56562	1.64368
1602.63706	1.59485
1600.70850	1.54701
1598.77993	1.50318
1596.85137	1.46187
1594.92280	1.42184
1592.99424	1.38367
1591.06567	1.34905
1589.13711	1.31690
1587.20854	1.28742
1585.27998	1.26005
1583.35142	1.23414
1581.42285	1.21061
1579.49429	1.19040
1577.56572	1.17166
1575.63716	1.14969
1573.70859	1.13232
1571.78003	1.12127
1569.85146	1.10908
1567.92290	1.09606
1565.99434	1.08717
1564.06577	1.08070
1562.13721	1.07545
1560.20864	1.07158
1558.28008	1.06916
1556.35151	1.06980
1554.42295	1.07047
1552.49438	1.07054
1550.56582	1.06872
1548.63726	1.06469
1546.70869	1.05885
1544.78013	1.04997
1542.85156	1.03682
1540.92300	1.01676
1538.99443	0.98946
1537.06587	0.97211
1535.13730	0.95929
1533.20874	0.94105
1531.28018	0.92252
1529.35161	0.90936
1527.42305	0.89593
1525.49448	0.88140
1523.56592	0.86907
1521.63735	0.85763
1519.70879	0.84699
1517.78022	0.83832
1515.85166	0.82815
1513.92310	0.81765
1511.99453	0.80800
1510.06597	0.79844
1508.13740	0.78839
1506.20884	0.77380
1504.28027	0.76378
1502.35171	0.75849
1500.42314	0.75289
1498.49458	0.74633
1496.56602	0.73920
1494.63745	0.73297
1492.70889	0.72788
1490.78032	0.72245
1488.85176	0.71625
1486.92319	0.71169
1484.99463	0.70848
1483.06606	0.70561
1481.13750	0.70305
1479.20894	0.70098
1477.28037	0.69931
1475.35181	0.69804
1473.42324	0.69745
1471.49468	0.69710
1469.56611	0.69606
1467.63755	0.69417
1465.70898	0.69199
1463.78042	0.69052
1461.85186	0.69001
1459.92329	0.68949
1457.99473	0.68851
1456.06616	0.68768
1454.13760	0.68673
1452.20903	0.68504
1450.28047	0.68285
1448.35190	0.68052
1446.42334	0.67813
1444.49478	0.67589
1442.56621	0.67366
1440.63765	0.67126
1438.70908	0.66871
1436.78052	0.66547
1434.85195	0.66202
1432.92339	0.65962
1430.99482	0.65807
1429.06626	0.65726
1427.13770	0.65703
1425.20913	0.65702
1423.28057	0.65725
1421.35200	0.65747
1419.42344	0.65751
1417.49487	0.65736
1415.56631	0.65669
1413.63774	0.65586
1411.70918	0.65542
1409.78062	0.65572
1407.85205	0.65639
1405.92349	0.65712
1403.99492	0.65786
1402.06636	0.65800
1400.13779	0.65707
1398.20923	0.65511
1396.28066	0.65250
1394.35210	0.64932
1392.42354	0.64590
1390.49497	0.64251
1388.56641	0.63865
1386.63784	0.63425
1384.70928	0.63005
1382.78071	0.62612
1380.85215	0.62215
1378.92358	0.61865
1376.99502	0.61601
1375.06646	0.61416
1373.13789	0.61317
1371.20933	0.61269
1369.28076	0.61214
1367.35220	0.61133
1365.42363	0.61012
1363.49507	0.60854
1361.56650	0.60703
1359.63794	0.60572
1357.70937	0.60442
1355.78081	0.60314
1353.85225	0.60199
1351.92368	0.60106
1349.99512	0.60031
1348.06655	0.59953
1346.13799	0.59860
1344.20942	0.59749
1342.28086	0.59620
1340.35229	0.59494
1338.42373	0.59396
1336.49517	0.59343
1334.56660	0.59328
1332.63804	0.59327
1330.70947	0.59327
1328.78091	0.59330
1326.85234	0.59351
1324.92378	0.59384
1322.99521	0.59435
1321.06665	0.59496
1319.13809	0.59543
1317.20952	0.59564
1315.28096	0.59542
1313.35239	0.59485
1311.42383	0.59424
1309.49526	0.59353
1307.56670	0.59265
1305.63813	0.59186
1303.70957	0.59124
1301.78101	0.59048
1299.85244	0.58944
1297.92388	0.58830
1295.99531	0.58714
1294.06675	0.58600
1292.13818	0.58480
1290.20962	0.58355
1288.28105	0.58236
1286.35249	0.58117
1284.42393	0.57986
1282.49536	0.57853
1280.56680	0.57730
1278.63823	0.57605
1276.70967	0.57471
1274.78110	0.57344
1272.85254	0.57244
1270.92397	0.57172
1268.99541	0.57119
1267.06685	0.57069
1265.13828	0.57011
1263.20972	0.56952
1261.28115	0.56895
1259.35259	0.56836
1257.42402	0.56773
1255.49546	0.56719
1253.56689	0.56696
1251.63833	0.56697
1249.70977	0.56698
1247.78120	0.56687
1245.85264	0.56652
1243.92407	0.56593
1241.99551	0.56515
1240.06694	0.56406
1238.13838	0.56258
1236.20981	0.56074
1234.28125	0.55872
1232.35269	0.55670
1230.42412	0.55477
1228.49556	0.55292
1226.56699	0.55107
1224.63843	0.54925
1222.70986	0.54748
1220.78130	0.54583
1218.85273	0.54434
1216.92417	0.54300
1214.99561	0.54193
1213.06704	0.54113
1211.13848	0.54047
1209.20991	0.53979
1207.28135	0.53904
1205.35278	0.53826
1203.42422	0.53747
1201.49565	0.53666
1199.56709	0.53582
1197.63853	0.53495
1195.70996	0.53413
1193.78140	0.53340
1191.85283	0.53269
1189.92427	0.53207
1187.99570	0.53157
1186.06714	0.53118
1184.13857	0.53110
1182.21001	0.53155
1180.28145	0.53244
1178.35288	0.53356
1176.42432	0.53482
1174.49575	0.53598
1172.56719	0.53680
1170.63862	0.53733
1168.71006	0.53784
1166.78149	0.53838
1164.85293	0.53882
1162.92437	0.53911
1160.99580	0.53925
1159.06724	0.53919
1157.13867	0.53895
1155.21011	0.53842
1153.28154	0.53739
1151.35298	0.53582
1149.42441	0.53372
1147.49585	0.53108
1145.56729	0.52820
1143.63872	0.52548
1141.71016	0.52305
1139.78159	0.52092
1137.85303	0.51930
1135.92446	0.51845
1133.99590	0.51840
1132.06733	0.51866
1130.13877	0.51856
1128.21021	0.51806
1126.28164	0.51748
1124.35308	0.51710
1122.42451	0.51705
1120.49595	0.51716
1118.56738	0.51724
1116.63882	0.51738
1114.71025	0.51789
1112.78169	0.51883
1110.85312	0.51988
1108.92456	0.52078
1106.99600	0.52158
1105.06743	0.52251
1103.13887	0.52357
1101.21030	0.52463
1099.28174	0.52593
1097.35317	0.52783
1095.42461	0.53034
1093.49604	0.53364
1091.56748	0.53821
1089.63892	0.54435
1087.71035	0.55218
1085.78179	0.56114
1083.85322	0.56998
1081.92466	0.57762
1079.99609	0.58335
1078.06753	0.58620
1076.13896	0.58552
1074.21040	0.58176
1072.28184	0.57592
1070.35327	0.56901
1068.42471	0.56174
1066.49614	0.55470
1064.56758	0.54834
1062.63901	0.54295
1060.71045	0.53859
1058.78188	0.53469
1056.85332	0.53079
1054.92476	0.52724
1052.99619	0.52432
1051.06763	0.52215
1049.13906	0.52084
1047.21050	0.52024
1045.28193	0.52002
1043.35337	0.52003
1041.42480	0.52016
1039.49624	0.52028
1037.56768	0.52037
1035.63911	0.52022
1033.71055	0.51962
1031.78198	0.51851
1029.85342	0.51698
1027.92485	0.51532
1025.99629	0.51368
1024.06772	0.51209
1022.13916	0.51079
1020.21060	0.50997
1018.28203	0.50949
1016.35347	0.50918
1014.42490	0.50890
1012.49634	0.50854
1010.56777	0.50819
1008.63921	0.50799
1006.71064	0.50805
1004.78208	0.50873
1002.85352	0.51032
1000.92495	0.51278
998.99639	0.51609
997.06782	0.52018
995.13926	0.52456
993.21069	0.52858
991.28213	0.53178
989.35356	0.53385
987.42500	0.53471
985.49644	0.53464
983.56787	0.53423
981.63931	0.53390
979.71074	0.53413
977.78218	0.53546
975.85361	0.53766
973.92505	0.54020
971.99648	0.54295
970.06792	0.54602
968.13936	0.54945
966.21079	0.55333
964.28223	0.55765
962.35366	0.56231
960.42510	0.56732
958.49653	0.57270
956.56797	0.57832
954.63940	0.58413
952.71084	0.59003
950.78228	0.59610
948.85371	0.60247
946.92515	0.60880
944.99658	0.61491
943.06802	0.62113
941.13945	0.62743
939.21089	0.63341
937.28232	0.63912
935.35376	0.64477
933.42520	0.65051
931.49663	0.65643
929.56807	0.66223
927.63950	0.66769
925.71094	0.67334
923.78237	0.67983
921.85381	0.68672
919.92524	0.69315
917.99668	0.69934
916.06812	0.70619
914.13955	0.71419
912.21099	0.72261
910.28242	0.73016
908.35386	0.73739
906.42529	0.74554
904.49673	0.75426
902.56816	0.76387
900.63960	0.77419
898.71104	0.78354
896.78247	0.79268
894.85391	0.80363
892.92534	0.81543
890.99678	0.82581
889.06821	0.83462
887.13965	0.84363
885.21108	0.85437
883.28252	0.86645
881.35396	0.87890
879.42539	0.89114
877.49683	0.90229
875.56826	0.91319
873.63970	0.92478
871.71113	0.93580
869.78257	0.94612
867.85400	0.95751
865.92544	0.97003
863.99687	0.98172
862.06831	0.99240
860.13975	1.00375
858.21118	1.01585
856.28262	1.02809
854.35405	1.04093
852.42549	1.05387
850.49692	1.06623
848.56836	1.07844
846.63979	1.09066
844.71123	1.10190
842.78267	1.11134
840.85410	1.12086
838.92554	1.13214
836.99697	1.14501
835.06841	1.15838
833.13984	1.16994
831.21128	1.17990
829.28271	1.19175
827.35415	1.20605
825.42559	1.21794
823.49702	1.22434
821.56846	1.22836
819.63989	1.23647
817.71133	1.25268
815.78276	1.27322
813.85420	1.28993
811.92563	1.30178
809.99707	1.31423
808.06851	1.32962
806.13994	1.34699
804.21138	1.36575
802.28281	1.38694
800.35425	1.40721
798.42568	1.41955
796.49712	1.40422
794.56855	1.36888
792.63999	1.36737
790.71143	1.41524
788.78286	1.45856
786.85430	1.43194
784.92573	1.36979
782.99717	1.35216
781.06860	1.39991
779.14004	1.46726
777.21147	1.52030
775.28291	1.55873
773.35435	1.54671
771.42578	1.48750
769.49722	1.46773
767.56865	1.48638
765.64009	1.40943
763.71152	1.37051
761.78296	1.41937
759.85439	1.39495
757.92583	1.34304
755.99727	1.40377
754.06870	1.53368
752.14014	1.40977
750.21157	1.20680
748.28301	1.10068
746.35444	1.05597
744.42588	1.07557
742.49731	1.19701
740.56875	1.38706
738.64019	1.26480
736.71162	1.02785
734.78306	0.92002
732.85449	0.80570
730.92593	0.65892
728.99736	0.60409
727.06880	0.62889
725.14023	0.54334
723.21167	0.32534
721.28311	0.20340
719.35454	0.18930
717.42598	0.07730
715.49741	-0.11188
713.56885	-0.15560
711.64028	0.00674
709.71172	0.16329
707.78315	0.28814
705.85459	0.29481
703.92603	0.18366
701.99746	0.15310
700.06890	0.16318
698.14033	0.13594
696.21177	0.09919
694.28320	0.12516
692.35464	0.21889
690.42607	0.26667
688.49751	0.28442
686.56895	0.28957
684.64038	0.27450
682.71182	0.25001
680.78325	0.23869
678.85469	0.21858
676.92612	0.15848
674.99756	0.10542
673.06899	0.10679
671.14043	0.20101
669.21187	0.28728
667.28330	0.28401
665.35474	0.27611
663.42617	0.40572
661.49761	0.50440
659.56904	0.31512
657.64048	0.19505
655.71191	0.18066
653.78335	0.21535
651.85479	0.28863
649.92622	0.37628
647.99766	0.34123
646.06909	0.17862
644.14053	0.08351
642.21196	0.10914
640.28340	0.17278
638.35483	0.19515
636.42627	0.19838
634.49771	0.19206
632.56914	0.16684
630.64058	0.14579
628.71201	0.13956
626.78345	0.16279
624.85488	0.22431
622.92632	0.25531
620.99775	0.19881
619.06919	0.16427
617.14062	0.18362
615.21206	0.22620
613.28350	0.26001
611.35493	0.24337
609.42637	0.20614
607.49780	0.21264
605.56924	0.22924
603.64067	0.19702
601.71211	0.12801
599.78354	0.11028
597.85498	0.18069
595.92642	0.34836
593.99785	0.52145
592.06929	0.38594
590.14072	0.26515
588.21216	0.25474
586.28359	0.29605
584.35503	0.24693
582.42646	0.12765
580.49790	0.09392
578.56934	0.13395
576.64077	0.14495
574.71221	0.12549
572.78364	0.11643
570.85508	0.13615
568.92651	0.19497
566.99795	0.30699
565.06938	0.38264
563.14082	0.30025
561.21226	0.23187
559.28369	0.21658
557.35513	0.21050
555.42656	0.25827
553.49800	0.41886
551.56943	0.62157
549.64087	0.43527
547.71230	0.25532
545.78374	0.21314
543.85518	0.23700
541.92661	0.25797
539.99805	0.24902
538.06948	0.18575
536.14092	0.14759
534.21235	0.16927
532.28379	0.21355
530.35522	0.23402
528.42666	0.21551
526.49810	0.18623
524.56953	0.17149
522.64097	0.21234
520.71240	0.33584
518.78384	0.46564
516.85527	0.44231
514.92671	0.33035
512.99814	0.24510
511.06958	0.22611
509.14102	0.23953
507.21245	0.26717
505.28389	0.27510
503.35532	0.20758
501.42676	0.13749
499.49819	0.15012
