3997.91411	0.07414
3995.98555	0.07418
3994.05698	0.07429
3992.12842	0.07458
3990.19985	0.07496
3988.27129	0.07542
3986.34272	0.07593
3984.41416	0.07645
3982.48560	0.07679
3980.55703	0.07668
3978.62847	0.07654
3976.69990	0.07697
3974.77134	0.07755
3972.84277	0.07758
3970.91421	0.07735
3968.98564	0.07753
3967.05708	0.07787
3965.12852	0.07791
3963.19995	0.07790
3961.27139	0.07808
3959.34282	0.07837
3957.41426	0.07858
3955.48569	0.07880
3953.55713	0.07892
3951.62856	0.07872
3949.70000	0.07861
3947.77144	0.07886
3945.84287	0.07895
3943.91431	0.07869
3941.98574	0.07859
3940.05718	0.07863
3938.12861	0.07848
3936.20005	0.07822
3934.27148	0.07818
3932.34292	0.07861
3930.41436	0.07919
3928.48579	0.07932
3926.55723	0.07905
3924.62866	0.07886
3922.70010	0.07883
3920.77153	0.07867
3918.84297	0.07836
3916.91440	0.07804
3914.98584	0.07761
3913.05728	0.07717
3911.12871	0.07705
3909.20015	0.07706
3907.27158	0.07681
3905.34302	0.07659
3903.41445	0.07720
3901.48589	0.07832
3899.55732	0.07867
3897.62876	0.07820
3895.70020	0.07769
3893.77163	0.07764
3891.84307	0.07813
3889.91450	0.07857
3887.98594	0.07809
3886.05737	0.07746
3884.12881	0.07761
3882.20024	0.07798
3880.27168	0.07801
3878.34312	0.07798
3876.41455	0.07785
3874.48599	0.07791
3872.55742	0.07834
3870.62886	0.07903
3868.70029	0.08012
3866.77173	0.08089
3864.84316	0.08126
3862.91460	0.08171
3860.98604	0.08149
3859.05747	0.08075
3857.12891	0.08038
3855.20034	0.08089
3853.27178	0.08272
3851.34321	0.08438
3849.41465	0.08412
3847.48608	0.08378
3845.55752	0.08385
3843.62896	0.08429
3841.70039	0.08517
3839.77183	0.08632
3837.84326	0.08759
3835.91470	0.08855
3833.98613	0.08893
3832.05757	0.08911
3830.12900	0.08937
3828.20044	0.08994
3826.27187	0.09096
3824.34331	0.09199
3822.41475	0.09282
3820.48618	0.09405
3818.55762	0.09489
3816.62905	0.09520
3814.70049	0.09615
3812.77192	0.09688
3810.84336	0.09705
3808.91479	0.09757
3806.98623	0.09898
3805.05767	0.10067
3803.12910	0.10175
3801.20054	0.10324
3799.27197	0.10485
3797.34341	0.10540
3795.41484	0.10616
3793.48628	0.10711
3791.55771	0.10788
3789.62915	0.10906
3787.70059	0.11067
3785.77202	0.11238
3783.84346	0.11401
3781.91489	0.11525
3779.98633	0.11636
3778.05776	0.11795
3776.12920	0.11966
3774.20063	0.12119
3772.27207	0.12282
3770.34351	0.12489
3768.41494	0.12733
3766.48638	0.12907
3764.55781	0.13057
3762.62925	0.13267
3760.70068	0.13495
3758.77212	0.13742
3756.84355	0.14001
3754.91499	0.14212
3752.98643	0.14401
3751.05786	0.14672
3749.12930	0.15080
3747.20073	0.15393
3745.27217	0.15600
3743.34360	0.15933
3741.41504	0.16306
3739.48647	0.16572
3737.55791	0.16860
3735.62935	0.17290
3733.70078	0.17863
3731.77222	0.18425
3729.84365	0.18865
3727.91509	0.19219
3725.98652	0.19677
3724.05796	0.20337
3722.12939	0.21082
3720.20083	0.21841
3718.27227	0.22605
3716.34370	0.23369
3714.41514	0.24112
3712.48657	0.24966
3710.55801	0.26231
3708.62944	0.27701
3706.70088	0.28909
3704.77231	0.30006
3702.84375	0.31287
3700.91519	0.33005
3698.98662	0.34899
3697.05806	0.36665
3695.12949	0.38536
3693.20093	0.40504
3691.27236	0.42588
3689.34380	0.45370
3687.41523	0.49003
3685.48667	0.52228
3683.55811	0.54924
3681.62954	0.57692
3679.70098	0.60749
3677.77241	0.63980
3675.84385	0.67874
3673.91528	0.73341
3671.98672	0.77822
3670.05815	0.81762
3668.12959	0.87254
3666.20103	0.92167
3664.27246	0.96190
3662.34390	1.00527
3660.41533	1.05223
3658.48677	1.09823
3656.55820	1.14701
3654.62964	1.20201
3652.70107	1.24789
3650.77251	1.28662
3648.84395	1.34213
3646.91538	1.41484
3644.98682	1.46752
3643.05825	1.50674
3641.12969	1.54672
3639.20112	1.59118
3637.27256	1.63596
3635.34399	1.67881
3633.41543	1.72158
3631.48687	1.76206
3629.55830	1.80332
3627.62974	1.85855
3625.70117	1.91052
3623.77261	1.94521
3621.84404	1.97773
3619.91548	2.01475
3617.98691	2.06097
3616.05835	2.10567
3614.12979	2.14245
3612.20122	2.18239
3610.27266	2.22237
3608.34409	2.26127
3606.41553	2.30401
3604.48696	2.34415
3602.55840	2.37803
3600.62983	2.41426
3598.70127	2.45633
3596.77271	2.49900
3594.84414	2.54134
3592.91558	2.58382
3590.98701	2.62303
3589.05845	2.65860
3587.12988	2.70139
3585.20132	2.75169
3583.27275	2.79509
3581.34419	2.83280
3579.41562	2.87208
3577.48706	2.91559
3575.55850	2.96080
3573.62993	3.00502
3571.70137	3.04591
3569.77280	3.08421
3567.84424	3.12460
3565.91567	3.17602
3563.98711	3.22938
3562.05854	3.27347
3560.12998	3.31606
3558.20142	3.36173
3556.27285	3.40939
3554.34429	3.45534
3552.41572	3.50070
3550.48716	3.54729
3548.55859	3.59330
3546.63003	3.63778
3544.70146	3.68492
3542.77290	3.73494
3540.84434	3.78214
3538.91577	3.82653
3536.98721	3.87184
3535.05864	3.92216
3533.13008	3.97459
3531.20151	4.02403
3529.27295	4.06878
3527.34438	4.11296
3525.41582	4.15969
3523.48726	4.20617
3521.55869	4.25472
3519.63013	4.30732
3517.70156	4.35976
3515.77300	4.40648
3513.84443	4.45055
3511.91587	4.49937
3509.98730	4.55210
3508.05874	4.60125
3506.13018	4.64524
3504.20161	4.68968
3502.27305	4.74023
3500.34448	4.79524
3498.41592	4.84684
3496.48735	4.89645
3494.55879	4.94730
3492.63022	4.99670
3490.70166	5.04207
3488.77310	5.08580
3486.84453	5.13259
3484.91597	5.17947
3482.98740	5.22572
3481.05884	5.27615
3479.13027	5.32580
3477.20171	5.37255
3475.27314	5.42395
3473.34458	5.48487
3471.41602	5.54861
3469.48745	5.59893
3467.55889	5.63263
3465.63032	5.66922
3463.70176	5.71743
3461.77319	5.76480
3459.84463	5.81924
3457.91606	5.88088
3455.98750	5.93298
3454.05894	5.98680
3452.13037	6.04861
3450.20181	6.09135
3448.27324	6.11408
3446.34468	6.15993
3444.41611	6.23259
3442.48755	6.30365
3440.55898	6.36828
3438.63042	6.42533
3436.70186	6.45847
3434.77329	6.48094
3432.84473	6.52509
3430.91616	6.57529
3428.98760	6.61571
3427.05903	6.64444
3425.13047	6.67034
3423.20190	6.72119
3421.27334	6.79586
3419.34478	6.86021
3417.41621	6.91197
3415.48765	6.95663
3413.55908	6.98353
3411.63052	7.02632
3409.70195	7.09542
3407.77339	7.15866
3405.84482	7.20446
3403.91626	7.23811
3401.98770	7.24154
3400.05913	7.24464
3398.13057	7.30487
3396.20200	7.38890
3394.27344	7.43614
3392.34487	7.43545
3390.41631	7.42649
3388.48774	7.45344
3386.55918	7.52230
3384.63062	7.58103
3382.70205	7.62354
3380.77349	7.69892
3378.84492	7.76402
3376.91636	7.77572
3374.98779	7.80286
3373.05923	7.86197
3371.13066	7.88645
3369.20210	7.91619
3367.27354	7.95067
3365.34497	7.94764
3363.41641	7.96653
3361.48784	8.06481
3359.55928	8.18425
3357.63071	8.20885
3355.70215	8.17565
3353.77358	8.14026
3351.84502	8.11331
3349.91646	8.11006
3347.98789	8.13354
3346.05933	8.11688
3344.13076	8.05066
3342.20220	8.01637
3340.27363	8.03771
3338.34507	8.13307
3336.41650	8.27569
3334.48794	8.39684
3332.55937	8.40706
3330.63081	8.34624
3328.70225	8.32432
3326.77368	8.29974
3324.84512	8.19339
3322.91655	8.08942
3320.98799	8.07947
3319.05942	8.07256
3317.13086	8.05615
3315.20229	8.11639
3313.27373	8.23666
3311.34517	8.30690
3309.41660	8.32857
3307.48804	8.31825
3305.55947	8.24538
3303.63091	8.30643
3301.70234	8.54985
3299.77378	8.68715
3297.84521	8.58397
3295.91665	8.44441
3293.98809	8.33353
3292.05952	8.23356
3290.13096	8.17489
3288.20239	8.16278
3286.27383	8.20362
3284.34526	8.23793
3282.41670	8.25785
3280.48813	8.35807
3278.55957	8.48097
3276.63101	8.45755
3274.70244	8.37231
3272.77388	8.35240
3270.84531	8.34361
3268.91675	8.28265
3266.98818	8.24726
3265.05962	8.40042
3263.13105	8.63680
3261.20249	8.66502
3259.27393	8.55995
3257.34536	8.50823
3255.41680	8.52256
3253.48823	8.52637
3251.55967	8.47684
3249.63110	8.40073
3247.70254	8.35404
3245.77397	8.36190
3243.84541	8.35370
3241.91685	8.32523
3239.98828	8.39870
3238.05972	8.50194
3236.13115	8.46293
3234.20259	8.38361
3232.27402	8.40064
3230.34546	8.46497
3228.41689	8.44775
3226.48833	8.41886
3224.55977	8.50022
3222.63120	8.54694
3220.70264	8.45521
3218.77407	8.30276
3216.84551	8.10383
3214.91694	8.00590
3212.98838	8.10585
3211.05981	8.17755
3209.13125	8.03385
3207.20269	7.89830
3205.27412	7.92475
3203.34556	7.98311
3201.41699	7.94448
3199.48843	7.91068
3197.55986	7.93533
3195.63130	7.90825
3193.70273	7.80896
3191.77417	7.71554
3189.84561	7.65815
3187.91704	7.60353
3185.98848	7.51036
3184.05991	7.42672
3182.13135	7.40021
3180.20278	7.39003
3178.27422	7.36339
3176.34565	7.30867
3174.41709	7.21340
3172.48853	7.12829
3170.55996	7.08012
3168.63140	7.03456
3166.70283	6.96238
3164.77427	6.88783
3162.84570	6.85476
3160.91714	6.82821
3158.98857	6.77570
3157.06001	6.72171
3155.13145	6.65976
3153.20288	6.57519
3151.27432	6.50046
3149.34575	6.45059
3147.41719	6.38732
3145.48862	6.30066
3143.56006	6.21509
3141.63149	6.13360
3139.70293	6.05216
3137.77437	5.98261
3135.84580	5.92202
3133.91724	5.85474
3131.98867	5.77676
3130.06011	5.69432
3128.13154	5.62052
3126.20298	5.55652
3124.27441	5.49359
3122.34585	5.42385
3120.41729	5.34774
3118.48872	5.27591
3116.56016	5.20934
3114.63159	5.13729
3112.70303	5.06125
3110.77446	4.98905
3108.84590	4.91777
3106.91733	4.84993
3104.98877	4.78685
3103.06021	4.72226
3101.13164	4.65707
3099.20308	4.59220
3097.27451	4.52572
3095.34595	4.45833
3093.41738	4.39137
3091.48882	4.32726
3089.56025	4.26542
3087.63169	4.20221
3085.70312	4.13968
3083.77456	4.07966
3081.84600	4.01826
3079.91743	3.95675
3077.98887	3.89887
3076.06030	3.84115
3074.13174	3.78066
3072.20317	3.71990
3070.27461	3.65998
3068.34604	3.60058
3066.41748	3.54331
3064.48892	3.48891
3062.56035	3.43473
3060.63179	3.37906
3058.70322	3.32363
3056.77466	3.27045
3054.84609	3.21850
3052.91753	3.16548
3050.98896	3.11164
3049.06040	3.05914
3047.13184	3.00928
3045.20327	2.96129
3043.27471	2.91421
3041.34614	2.86700
3039.41758	2.81895
3037.48901	2.77138
3035.56045	2.72471
3033.63188	2.67893
3031.70332	2.63439
3029.77476	2.59034
3027.84619	2.54669
3025.91763	2.50378
3023.98906	2.46100
3022.06050	2.41824
3020.13193	2.37599
3018.20337	2.33449
3016.27480	2.29406
3014.34624	2.25496
3012.41768	2.21681
3010.48911	2.17891
3008.56055	2.14113
3006.63198	2.10380
3004.70342	2.06683
3002.77485	2.03067
3000.84629	1.99606
2998.91772	1.96270
2996.98916	1.93017
2995.06060	1.89838
2993.13203	1.86705
2991.20347	1.83608
2989.27490	1.80542
2987.34634	1.77500
2985.41777	1.74518
2983.48921	1.71631
2981.56064	1.68809
2979.63208	1.66040
2977.70352	1.63349
2975.77495	1.60684
2973.84639	1.58008
2971.91782	1.55404
2969.98926	1.52898
2968.06069	1.50400
2966.13213	1.47905
2964.20356	1.45468
2962.27500	1.43083
2960.34644	1.40720
2958.41787	1.38336
2956.48931	1.35918
2954.56074	1.33511
2952.63218	1.31140
2950.70361	1.28809
2948.77505	1.26540
2946.84648	1.24354
2944.91792	1.22206
2942.98936	1.20051
2941.06079	1.17930
2939.13223	1.15868
2937.20366	1.13829
2935.27510	1.11825
2933.34653	1.09862
2931.41797	1.07871
2929.48940	1.05856
2927.56084	1.03918
2925.63228	1.02089
2923.70371	1.00296
2921.77515	0.98478
2919.84658	0.96676
2917.91802	0.94965
2915.98945	0.93316
2914.06089	0.91665
2912.13232	0.90045
2910.20376	0.88530
2908.27520	0.87080
2906.34663	0.85595
2904.41807	0.84105
2902.48950	0.82671
2900.56094	0.81280
2898.63237	0.79951
2896.70381	0.78675
2894.77524	0.77410
2892.84668	0.76161
2890.91812	0.74952
2888.98955	0.73811
2887.06099	0.72722
2885.13242	0.71642
2883.20386	0.70556
2881.27529	0.69489
2879.34673	0.68466
2877.41816	0.67483
2875.48960	0.66498
2873.56104	0.65466
2871.63247	0.64404
2869.70391	0.63313
2867.77534	0.62159
2865.84678	0.60961
2863.91821	0.59788
2861.98965	0.58667
2860.06108	0.57597
2858.13252	0.56570
2856.20396	0.55549
2854.27539	0.54548
2852.34683	0.53628
2850.41826	0.52784
2848.48970	0.51940
2846.56113	0.51072
2844.63257	0.50245
2842.70400	0.49526
2840.77544	0.48903
2838.84687	0.48309
2836.91831	0.47698
2834.98975	0.47086
2833.06118	0.46502
2831.13262	0.45915
2829.20405	0.45306
2827.27549	0.44687
2825.34692	0.44049
2823.41836	0.43406
2821.48979	0.42792
2819.56123	0.42218
2817.63267	0.41656
2815.70410	0.41066
2813.77554	0.40460
2811.84697	0.39875
2809.91841	0.39309
2807.98984	0.38750
2806.06128	0.38196
2804.13271	0.37655
2802.20415	0.37139
2800.27559	0.36638
2798.34702	0.36131
2796.41846	0.35632
2794.48989	0.35165
2792.56133	0.34709
2790.63276	0.34236
2788.70420	0.33773
2786.77563	0.33341
2784.84707	0.32919
2782.91851	0.32480
2780.98994	0.32024
2779.06138	0.31583
2777.13281	0.31181
2775.20425	0.30805
2773.27568	0.30423
2771.34712	0.30026
2769.41855	0.29629
2767.48999	0.29255
2765.56143	0.28909
2763.63286	0.28568
2761.70430	0.28223
2759.77573	0.27875
2757.84717	0.27521
2755.91860	0.27182
2753.99004	0.26875
2752.06147	0.26588
2750.13291	0.26306
2748.20435	0.26015
2746.27578	0.25708
2744.34722	0.25410
2742.41865	0.25132
2740.49009	0.24857
2738.56152	0.24584
2736.63296	0.24318
2734.70439	0.24061
2732.77583	0.23815
2730.84727	0.23578
2728.91870	0.23345
2726.99014	0.23110
2725.06157	0.22880
2723.13301	0.22655
2721.20444	0.22427
2719.27588	0.22211
2717.34731	0.22003
2715.41875	0.21785
2713.49019	0.21585
2711.56162	0.21421
2709.63306	0.21258
2707.70449	0.21070
2705.77593	0.20879
2703.84736	0.20703
2701.91880	0.20537
2699.99023	0.20388
2698.06167	0.20247
2696.13311	0.20092
2694.20454	0.19929
2692.27598	0.19779
2690.34741	0.19649
2688.41885	0.19526
2686.49028	0.19393
2684.56172	0.19250
2682.63315	0.19109
2680.70459	0.18978
2678.77603	0.18851
2676.84746	0.18726
2674.91890	0.18613
2672.99033	0.18498
2671.06177	0.18384
2669.13320	0.18286
2667.20464	0.18189
2665.27607	0.18081
2663.34751	0.17980
2661.41895	0.17889
2659.49038	0.17791
2657.56182	0.17687
2655.63325	0.17596
2653.70469	0.17525
2651.77612	0.17457
2649.84756	0.17378
2647.91899	0.17300
2645.99043	0.17239
2644.06187	0.17186
2642.13330	0.17127
2640.20474	0.17074
2638.27617	0.17029
2636.34761	0.16976
2634.41904	0.16906
2632.49048	0.16836
2630.56191	0.16788
2628.63335	0.16759
2626.70479	0.16727
2624.77622	0.16681
2622.84766	0.16644
2620.91909	0.16622
2618.99053	0.16589
2617.06196	0.16547
2615.13340	0.16517
2613.20483	0.16500
2611.27627	0.16486
2609.34771	0.16472
2607.41914	0.16455
2605.49058	0.16438
2603.56201	0.16430
2601.63345	0.16440
2599.70488	0.16455
2597.77632	0.16452
2595.84775	0.16437
2593.91919	0.16428
2591.99062	0.16419
2590.06206	0.16419
2588.13350	0.16431
2586.20493	0.16446
2584.27637	0.16464
2582.34780	0.16487
2580.41924	0.16512
2578.49067	0.16547
2576.56211	0.16583
2574.63354	0.16610
2572.70498	0.16621
2570.77642	0.16628
2568.84785	0.16659
2566.91929	0.16713
2564.99072	0.16759
2563.06216	0.16791
2561.13359	0.16834
2559.20503	0.16887
2557.27646	0.16926
2555.34790	0.16961
2553.41934	0.17008
2551.49077	0.17058
2549.56221	0.17106
2547.63364	0.17162
2545.70508	0.17221
2543.77651	0.17279
2541.84795	0.17341
2539.91938	0.17409
2537.99082	0.17474
2536.06226	0.17537
2534.13369	0.17593
2532.20513	0.17646
2530.27656	0.17711
2528.34800	0.17786
2526.41943	0.17854
2524.49087	0.17920
2522.56230	0.17995
2520.63374	0.18070
2518.70518	0.18137
2516.77661	0.18210
2514.84805	0.18291
2512.91948	0.18370
2510.99092	0.18439
2509.06235	0.18498
2507.13379	0.18568
2505.20522	0.18661
2503.27666	0.18755
2501.34810	0.18837
2499.41953	0.18916
2497.49097	0.18992
2495.56240	0.19061
2493.63384	0.19134
2491.70527	0.19222
2489.77671	0.19312
2487.84814	0.19392
2485.91958	0.19473
2483.99102	0.19564
2482.06245	0.19659
2480.13389	0.19751
2478.20532	0.19838
2476.27676	0.19908
2474.34819	0.19972
2472.41963	0.20062
2470.49106	0.20172
2468.56250	0.20269
2466.63394	0.20345
2464.70537	0.20419
2462.77681	0.20502
2460.84824	0.20590
2458.91968	0.20682
2456.99111	0.20779
2455.06255	0.20876
2453.13398	0.20977
2451.20542	0.21082
2449.27686	0.21171
2447.34829	0.21252
2445.41973	0.21353
2443.49116	0.21472
2441.56260	0.21580
2439.63403	0.21670
2437.70547	0.21758
2435.77690	0.21854
2433.84834	0.21964
2431.91978	0.22074
2429.99121	0.22181
2428.06265	0.22295
2426.13408	0.22406
2424.20552	0.22507
2422.27695	0.22610
2420.34839	0.22723
2418.41982	0.22837
2416.49126	0.22949
2414.56270	0.23063
2412.63413	0.23178
2410.70557	0.23291
2408.77700	0.23401
2406.84844	0.23508
2404.91987	0.23616
2402.99131	0.23727
2401.06274	0.23845
2399.13418	0.23969
2397.20562	0.24098
2395.27705	0.24228
2393.34849	0.24366
2391.41992	0.24510
2389.49136	0.24639
2387.56279	0.24741
2385.63423	0.24820
2383.70566	0.24880
2381.77710	0.24931
2379.84854	0.24980
2377.91997	0.25020
2375.99141	0.25040
2374.06284	0.25053
2372.13428	0.25069
2370.20571	0.25071
2368.27715	0.25054
2366.34858	0.25077
2364.42002	0.25106
2362.49146	0.25060
2360.56289	0.25094
2358.63433	0.25291
2356.70576	0.25545
2354.77720	0.25857
2352.84863	0.26240
2350.92007	0.26595
2348.99150	0.26806
2347.06294	0.26848
2345.13437	0.26803
2343.20581	0.26835
2341.27725	0.27028
2339.34868	0.27275
2337.42012	0.27475
2335.49155	0.27647
2333.56299	0.27819
2331.63442	0.28016
2329.70586	0.28248
2327.77729	0.28485
2325.84873	0.28723
2323.92017	0.28948
2321.99160	0.29153
2320.06304	0.29401
2318.13447	0.29674
2316.20591	0.29909
2314.27734	0.30124
2312.34878	0.30348
2310.42021	0.30577
2308.49165	0.30794
2306.56309	0.31003
2304.63452	0.31208
2302.70596	0.31408
2300.77739	0.31615
2298.84883	0.31830
2296.92026	0.32042
2294.99170	0.32256
2293.06313	0.32480
2291.13457	0.32698
2289.20601	0.32898
2287.27744	0.33089
2285.34888	0.33297
2283.42031	0.33524
2281.49175	0.33735
2279.56318	0.33917
2277.63462	0.34099
2275.70605	0.34294
2273.77749	0.34498
2271.84893	0.34709
2269.92036	0.34920
2267.99180	0.35131
2266.06323	0.35348
2264.13467	0.35564
2262.20610	0.35778
2260.27754	0.35997
2258.34897	0.36217
2256.42041	0.36440
2254.49185	0.36673
2252.56328	0.36903
2250.63472	0.37116
2248.70615	0.37332
2246.77759	0.37563
2244.84902	0.37791
2242.92046	0.38004
2240.99189	0.38216
2239.06333	0.38439
2237.13477	0.38675
2235.20620	0.38909
2233.27764	0.39133
2231.34907	0.39355
2229.42051	0.39577
2227.49194	0.39801
2225.56338	0.40033
2223.63481	0.40259
2221.70625	0.40471
2219.77769	0.40691
2217.84912	0.40922
2215.92056	0.41143
2213.99199	0.41351
2212.06343	0.41561
2210.13486	0.41768
2208.20630	0.41963
2206.27773	0.42160
2204.34917	0.42376
2202.42061	0.42593
2200.49204	0.42801
2198.56348	0.43012
2196.63491	0.43230
2194.70635	0.43437
2192.77778	0.43621
2190.84922	0.43804
2188.92065	0.43996
2186.99209	0.44180
2185.06353	0.44351
2183.13496	0.44523
2181.20640	0.44695
2179.27783	0.44860
2177.34927	0.45022
2175.42070	0.45175
2173.49214	0.45322
2171.56357	0.45468
2169.63501	0.45622
2167.70645	0.45777
2165.77788	0.45916
2163.84932	0.46030
2161.92075	0.46129
2159.99219	0.46232
2158.06362	0.46331
2156.13506	0.46422
2154.20649	0.46512
2152.27793	0.46601
2150.34937	0.46681
2148.42080	0.46755
2146.49224	0.46819
2144.56367	0.46863
2142.63511	0.46893
2140.70654	0.46925
2138.77798	0.46964
2136.84941	0.46997
2134.92085	0.47009
2132.99229	0.46999
2131.06372	0.46981
2129.13516	0.46966
2127.20659	0.46944
2125.27803	0.46912
2123.34946	0.46874
2121.42090	0.46833
2119.49233	0.46785
2117.56377	0.46720
2115.63521	0.46639
2113.70664	0.46559
2111.77808	0.46479
2109.84951	0.46391
2107.92095	0.46290
2105.99238	0.46172
2104.06382	0.46043
2102.13525	0.45909
2100.20669	0.45776
2098.27812	0.45637
2096.34956	0.45485
2094.42100	0.45324
2092.49243	0.45159
2090.56387	0.44991
2088.63530	0.44811
2086.70674	0.44626
2084.77817	0.44442
2082.84961	0.44243
2080.92104	0.44032
2078.99248	0.43837
2077.06392	0.43643
2075.13535	0.43433
2073.20679	0.43216
2071.27822	0.43000
2069.34966	0.42779
2067.42109	0.42547
2065.49253	0.42303
2063.56396	0.42052
2061.63540	0.41801
2059.70684	0.41554
2057.77827	0.41309
2055.84971	0.41059
2053.92114	0.40804
2051.99258	0.40539
2050.06401	0.40267
2048.13545	0.39998
2046.20688	0.39720
2044.27832	0.39445
2042.34976	0.39186
2040.42119	0.38922
2038.49263	0.38640
2036.56406	0.38359
2034.63550	0.38084
2032.70693	0.37806
2030.77837	0.37525
2028.84980	0.37241
2026.92124	0.36953
2024.99268	0.36659
2023.06411	0.36374
2021.13555	0.36106
2019.20698	0.35842
2017.27842	0.35564
2015.34985	0.35270
2013.42129	0.34980
2011.49272	0.34702
2009.56416	0.34431
2007.63560	0.34157
2005.70703	0.33888
2003.77847	0.33622
2001.84990	0.33350
1999.92134	0.33074
1997.99277	0.32801
1996.06421	0.32540
1994.13564	0.32291
1992.20708	0.32045
1990.27852	0.31793
1988.34995	0.31540
1986.42139	0.31286
1984.49282	0.31037
1982.56426	0.30799
1980.63569	0.30563
1978.70713	0.30328
1976.77856	0.30100
1974.85000	0.29879
1972.92144	0.29661
1970.99287	0.29442
1969.06431	0.29220
1967.13574	0.29002
1965.20718	0.28786
1963.27861	0.28576
1961.35005	0.28377
1959.42148	0.28194
1957.49292	0.28019
1955.56436	0.27836
1953.63579	0.27648
1951.70723	0.27464
1949.77866	0.27293
1947.85010	0.27132
1945.92153	0.26975
1943.99297	0.26826
1942.06440	0.26680
1940.13584	0.26526
1938.20728	0.26368
1936.27871	0.26224
1934.35015	0.26096
1932.42158	0.25971
1930.49302	0.25846
1928.56445	0.25731
1926.63589	0.25619
1924.70732	0.25510
1922.77876	0.25410
1920.85020	0.25314
1918.92163	0.25223
1916.99307	0.25131
1915.06450	0.25033
1913.13594	0.24942
1911.20737	0.24869
1909.27881	0.24802
1907.35024	0.24735
1905.42168	0.24668
1903.49312	0.24602
1901.56455	0.24537
1899.63599	0.24475
1897.70742	0.24428
1895.77886	0.24392
1893.85029	0.24353
1891.92173	0.24306
1889.99316	0.24283
1888.06460	0.24272
1886.13604	0.24245
1884.20747	0.24210
1882.27891	0.24181
1880.35034	0.24167
1878.42178	0.24161
1876.49321	0.24160
1874.56465	0.24160
1872.63608	0.24166
1870.70752	0.24180
1868.77896	0.24218
1866.85039	0.24244
1864.92183	0.24237
1862.99326	0.24237
1861.06470	0.24264
1859.13613	0.24310
1857.20757	0.24357
1855.27900	0.24399
1853.35044	0.24428
1851.42187	0.24465
1849.49331	0.24521
1847.56475	0.24588
1845.63618	0.24668
1843.70762	0.24777
1841.77905	0.24868
1839.85049	0.24916
1837.92192	0.24986
1835.99336	0.25074
1834.06479	0.25162
1832.13623	0.25256
1830.20767	0.25395
1828.27910	0.25545
1826.35054	0.25647
1824.42197	0.25764
1822.49341	0.25891
1820.56484	0.26021
1818.63628	0.26164
1816.70771	0.26324
1814.77915	0.26484
1812.85059	0.26658
1810.92202	0.26865
1808.99346	0.27077
1807.06489	0.27265
1805.13633	0.27439
1803.20776	0.27644
1801.27920	0.27896
1799.35063	0.28189
1797.42207	0.28448
1795.49351	0.28680
1793.56494	0.28955
1791.63638	0.29328
1789.70781	0.29686
1787.77925	0.29949
1785.85068	0.30253
1783.92212	0.30615
1781.99355	0.31004
1780.06499	0.31428
1778.13643	0.31868
1776.20786	0.32267
1774.27930	0.32676
1772.35073	0.33251
1770.42217	0.33915
1768.49360	0.34459
1766.56504	0.34968
1764.63647	0.35496
1762.70791	0.36082
1760.77935	0.36832
1758.85078	0.37526
1756.92222	0.38227
1754.99365	0.39008
1753.06509	0.39699
1751.13652	0.40505
1749.20796	0.41559
1747.27939	0.42628
1745.35083	0.43554
1743.42227	0.44509
1741.49370	0.45551
1739.56514	0.46779
1737.63657	0.48009
1735.70801	0.49070
1733.77944	0.50715
1731.85088	0.52746
1729.92231	0.54326
1727.99375	0.55904
1726.06519	0.57572
1724.13662	0.59401
1722.20806	0.61399
1720.27949	0.63213
1718.35093	0.65330
1716.42236	0.68625
1714.49380	0.71801
1712.56523	0.74273
1710.63667	0.76625
1708.70811	0.79150
1706.77954	0.82037
1704.85098	0.85588
1702.92241	0.88780
1700.99385	0.91829
1699.06528	0.96460
1697.13672	1.00871
1695.20815	1.05441
1693.27959	1.09780
1691.35103	1.13189
1689.42246	1.17174
1687.49390	1.21420
1685.56533	1.25455
1683.63677	1.31978
1681.70820	1.38951
1679.77964	1.43216
1677.85107	1.47223
1675.92251	1.51823
1673.99395	1.57601
1672.06538	1.62760
1670.13682	1.67854
1668.20825	1.74722
1666.27969	1.80243
1664.35112	1.84846
1662.42256	1.90757
1660.49399	1.97641
1658.56543	2.02912
1656.63687	2.07100
1654.70830	2.11004
1652.77974	2.17258
1650.85117	2.22962
1648.92261	2.24871
1646.99404	2.27672
1645.06548	2.30404
1643.13691	2.31776
1641.20835	2.32312
1639.27979	2.33003
1637.35122	2.33627
1635.42266	2.33669
1633.49409	2.32834
1631.56553	2.31497
1629.63696	2.29965
1627.70840	2.27176
1625.77983	2.23783
1623.85127	2.19380
1621.92271	2.13936
1619.99414	2.09254
1618.06558	2.04803
1616.13701	1.98215
1614.20845	1.91486
1612.27988	1.86570
1610.35132	1.81525
1608.42275	1.75976
1606.49419	1.70401
1604.56562	1.65286
1602.63706	1.60365
1600.70850	1.55567
1598.77993	1.51204
1596.85137	1.47111
1594.92280	1.43080
1592.99424	1.39215
1591.06567	1.35759
1589.13711	1.32526
1587.20854	1.29526
1585.27998	1.26815
1583.35142	1.24312
1581.42285	1.22010
1579.49429	1.20024
1577.56572	1.18243
1575.63716	1.16116
1573.70859	1.14323
1571.78003	1.13200
1569.85146	1.12038
1567.92290	1.10781
1565.99434	1.09903
1564.06577	1.09268
1562.13721	1.08791
1560.20864	1.08574
1558.28008	1.08639
1556.35151	1.08742
1554.42295	1.08735
1552.49438	1.08726
1550.56582	1.08569
1548.63726	1.08160
1546.70869	1.07528
1544.78013	1.06606
1542.85156	1.05363
1540.92300	1.03607
1538.99443	1.00881
1537.06587	0.98910
1535.13730	0.97536
1533.20874	0.95650
1531.28018	0.93680
1529.35161	0.92301
1527.42305	0.90981
1525.49448	0.89587
1523.56592	0.88389
1521.63735	0.87222
1519.70879	0.86062
1517.78022	0.85112
1515.85166	0.83997
1513.92310	0.82856
1511.99453	0.81864
1510.06597	0.80909
1508.13740	0.79909
1506.20884	0.78403
1504.28027	0.77288
1502.35171	0.76695
1500.42314	0.76111
1498.49458	0.75455
1496.56602	0.74726
1494.63745	0.74041
1492.70889	0.73497
1490.78032	0.72995
1488.85176	0.72408
1486.92319	0.71862
1484.99463	0.71447
1483.06606	0.71140
1481.13750	0.70902
1479.20894	0.70708
1477.28037	0.70578
1475.35181	0.70515
1473.42324	0.70498
1471.49468	0.70436
1469.56611	0.70275
1467.63755	0.70072
1465.70898	0.69893
1463.78042	0.69776
1461.85186	0.69701
1459.92329	0.69653
1457.99473	0.69651
1456.06616	0.69632
1454.13760	0.69459
1452.20903	0.69234
1450.28047	0.68998
1448.35190	0.68751
1446.42334	0.68489
1444.49478	0.68241
1442.56621	0.68010
1440.63765	0.67776
1438.70908	0.67533
1436.78052	0.67236
1434.85195	0.66908
1432.92339	0.66655
1430.99482	0.66482
1429.06626	0.66383
1427.13770	0.66340
1425.20913	0.66339
1423.28057	0.66390
1421.35200	0.66437
1419.42344	0.66457
1417.49487	0.66455
1415.56631	0.66370
1413.63774	0.66253
1411.70918	0.66188
1409.78062	0.66214
1407.85205	0.66292
1405.92349	0.66391
1403.99492	0.66489
1402.06636	0.66515
1400.13779	0.66443
1398.20923	0.66274
1396.28066	0.66022
1394.35210	0.65688
1392.42354	0.65301
1390.49497	0.64921
1388.56641	0.64532
1386.63784	0.64089
1384.70928	0.63627
1382.78071	0.63199
1380.85215	0.62807
1378.92358	0.62467
1376.99502	0.62205
1375.06646	0.62032
1373.13789	0.61922
1371.20933	0.61842
1369.28076	0.61772
1367.35220	0.61680
1365.42363	0.61545
1363.49507	0.61384
1361.56650	0.61233
1359.63794	0.61103
1357.70937	0.60972
1355.78081	0.60834
1353.85225	0.60706
1351.92368	0.60600
1349.99512	0.60508
1348.06655	0.60416
1346.13799	0.60316
1344.20942	0.60218
1342.28086	0.60125
1340.35229	0.60040
1338.42373	0.59962
1336.49517	0.59893
1334.56660	0.59850
1332.63804	0.59828
1330.70947	0.59808
1328.78091	0.59807
1326.85234	0.59846
1324.92378	0.59907
1322.99521	0.59960
1321.06665	0.60008
1319.13809	0.60070
1317.20952	0.60111
1315.28096	0.60095
1313.35239	0.60047
1311.42383	0.59991
1309.49526	0.59926
1307.56670	0.59846
1305.63813	0.59758
1303.70957	0.59675
1301.78101	0.59584
1299.85244	0.59467
1297.92388	0.59346
1295.99531	0.59231
1294.06675	0.59116
1292.13818	0.58992
1290.20962	0.58860
1288.28105	0.58727
1286.35249	0.58596
1284.42393	0.58481
1282.49536	0.58365
1280.56680	0.58230
1278.63823	0.58094
1276.70967	0.57967
1274.78110	0.57850
1272.85254	0.57763
1270.92397	0.57702
1268.99541	0.57638
1267.06685	0.57564
1265.13828	0.57495
1263.20972	0.57434
1261.28115	0.57379
1259.35259	0.57322
1257.42402	0.57265
1255.49546	0.57216
1253.56689	0.57182
1251.63833	0.57174
1249.70977	0.57179
1247.78120	0.57162
1245.85264	0.57124
1243.92407	0.57072
1241.99551	0.56987
1240.06694	0.56856
1238.13838	0.56699
1236.20981	0.56532
1234.28125	0.56340
1232.35269	0.56124
1230.42412	0.55909
1228.49556	0.55711
1226.56699	0.55527
1224.63843	0.55343
1222.70986	0.55156
1220.78130	0.54985
1218.85273	0.54845
1216.92417	0.54725
1214.99561	0.54611
1213.06704	0.54512
1211.13848	0.54438
1209.20991	0.54380
1207.28135	0.54314
1205.35278	0.54224
1203.42422	0.54130
1201.49565	0.54046
1199.56709	0.53963
1197.63853	0.53875
1195.70996	0.53789
1193.78140	0.53710
1191.85283	0.53640
1189.92427	0.53583
1187.99570	0.53530
1186.06714	0.53495
1184.13857	0.53488
1182.21001	0.53513
1180.28145	0.53584
1178.35288	0.53702
1176.42432	0.53842
1174.49575	0.53986
1172.56719	0.54106
1170.63862	0.54170
1168.71006	0.54192
1166.78149	0.54217
1164.85293	0.54267
1162.92437	0.54315
1160.99580	0.54324
1159.06724	0.54294
1157.13867	0.54253
1155.21011	0.54206
1153.28154	0.54124
1151.35298	0.53976
1149.42441	0.53750
1147.49585	0.53465
1145.56729	0.53175
1143.63872	0.52905
1141.71016	0.52659
1139.78159	0.52462
1137.85303	0.52331
1135.92446	0.52253
1133.99590	0.52215
1132.06733	0.52203
1130.13877	0.52202
1128.21021	0.52203
1126.28164	0.52185
1124.35308	0.52142
1122.42451	0.52102
1120.49595	0.52083
1118.56738	0.52087
1116.63882	0.52132
1114.71025	0.52217
1112.78169	0.52316
1110.85312	0.52400
1108.92456	0.52474
1106.99600	0.52555
1105.06743	0.52644
1103.13887	0.52751
1101.21030	0.52876
1099.28174	0.53006
1097.35317	0.53171
1095.42461	0.53430
1093.49604	0.53802
1091.56748	0.54287
1089.63892	0.54900
1087.71035	0.55651
1085.78179	0.56506
1083.85322	0.57378
1081.92466	0.58152
1079.99609	0.58715
1078.06753	0.58978
1076.13896	0.58916
1074.21040	0.58569
1072.28184	0.58000
1070.35327	0.57310
1068.42471	0.56613
1066.49614	0.55950
1064.56758	0.55316
1062.63901	0.54749
1060.71045	0.54289
1058.78188	0.53895
1056.85332	0.53512
1054.92476	0.53148
1052.99619	0.52834
1051.06763	0.52588
1049.13906	0.52436
1047.21050	0.52375
1045.28193	0.52364
1043.35337	0.52389
1041.42480	0.52434
1039.49624	0.52451
1037.56768	0.52443
1035.63911	0.52422
1033.71055	0.52356
1031.78198	0.52229
1029.85342	0.52061
1027.92485	0.51869
1025.99629	0.51678
1024.06772	0.51521
1022.13916	0.51424
1020.21060	0.51374
1018.28203	0.51330
1016.35347	0.51279
1014.42490	0.51231
1012.49634	0.51186
1010.56777	0.51149
1008.63921	0.51137
1006.71064	0.51158
1004.78208	0.51224
1002.85352	0.51363
1000.92495	0.51598
998.99639	0.51931
997.06782	0.52339
995.13926	0.52779
993.21069	0.53183
991.28213	0.53482
989.35356	0.53659
987.42500	0.53736
985.49644	0.53742
983.56787	0.53717
981.63931	0.53714
979.71074	0.53761
977.78218	0.53856
975.85361	0.54014
973.92505	0.54248
971.99648	0.54520
970.06792	0.54815
968.13936	0.55182
966.21079	0.55622
964.28223	0.56082
962.35366	0.56544
960.42510	0.57023
958.49653	0.57529
956.56797	0.58064
954.63940	0.58650
952.71084	0.59281
950.78228	0.59928
948.85371	0.60559
946.92515	0.61163
944.99658	0.61742
943.06802	0.62329
941.13945	0.62974
939.21089	0.63635
937.28232	0.64230
935.35376	0.64748
933.42520	0.65231
931.49663	0.65738
929.56807	0.66332
927.63950	0.67031
925.71094	0.67753
923.78237	0.68407
921.85381	0.69006
919.92524	0.69633
917.99668	0.70330
916.06812	0.71048
914.13955	0.71764
912.21099	0.72516
910.28242	0.73347
908.35386	0.74236
906.42529	0.75076
904.49673	0.75887
902.56816	0.76825
900.63960	0.77848
898.71104	0.78768
896.78247	0.79666
894.85391	0.80657
892.92534	0.81684
890.99678	0.82779
889.06821	0.83911
887.13965	0.84902
885.21108	0.85809
883.28252	0.86850
881.35396	0.88071
879.42539	0.89407
877.49683	0.90674
875.56826	0.91753
873.63970	0.92778
871.71113	0.93935
869.78257	0.95212
867.85400	0.96414
865.92544	0.97481
863.99687	0.98537
862.06831	0.99753
860.13975	1.01148
858.21118	1.02483
856.28262	1.03670
854.35405	1.04848
852.42549	1.05987
850.49692	1.07089
848.56836	1.08351
846.63979	1.09644
844.71123	1.10606
842.78267	1.11397
840.85410	1.12515
838.92554	1.13897
836.99697	1.15217
835.06841	1.16420
833.13984	1.17386
831.21128	1.18384
829.28271	1.19765
827.35415	1.20994
825.42559	1.21942
823.49702	1.23317
821.56846	1.24855
819.63989	1.26123
817.71133	1.27591
815.78276	1.28931
813.85420	1.30046
811.92563	1.31935
809.99707	1.34118
808.06851	1.35569
806.13994	1.36511
804.21138	1.37594
802.28281	1.39552
800.35425	1.42196
798.42568	1.44867
796.49712	1.48262
794.56855	1.53864
792.63999	1.57471
790.71143	1.54656
788.78286	1.53314
786.85430	1.56683
784.92573	1.61697
782.99717	1.67525
781.06860	1.64267
779.14004	1.52899
777.21147	1.46175
775.28291	1.43859
773.35435	1.39080
771.42578	1.33499
769.49722	1.27594
767.56865	1.22480
765.64009	1.20985
763.71152	1.22027
761.78296	1.25669
759.85439	1.25125
757.92583	1.17440
755.99727	1.16884
754.06870	1.31356
752.14014	1.50590
750.21157	1.38485
748.28301	1.20077
746.35444	1.09344
744.42588	1.00176
742.49731	0.92299
740.56875	0.88827
738.64019	0.91770
736.71162	1.02172
734.78306	1.12757
732.85449	0.96475
730.92593	0.65325
728.99736	0.45506
727.06880	0.36148
725.14023	0.25195
723.21167	0.13776
721.28311	0.08812
719.35454	0.03433
717.42598	-0.04823
715.49741	-0.11845
713.56885	-0.16033
711.64028	-0.23744
709.71172	-0.18644
707.78315	-0.04503
705.85459	0.08759
703.92603	0.20676
701.99746	0.28023
700.06890	0.26395
698.14033	0.21719
696.21177	0.18965
694.28320	0.18932
692.35464	0.20546
690.42607	0.23985
688.49751	0.28075
686.56895	0.33707
684.64038	0.38095
682.71182	0.31745
680.78325	0.24307
678.85469	0.21908
676.92612	0.20848
674.99756	0.22745
673.06899	0.29747
671.14043	0.34277
669.21187	0.33217
667.28330	0.32863
665.35474	0.33755
663.42617	0.35937
661.49761	0.43225
659.56904	0.46318
657.64048	0.34652
655.71191	0.26041
653.78335	0.25595
651.85479	0.26912
649.92622	0.24926
647.99766	0.23737
646.06909	0.23346
644.14053	0.22182
642.21196	0.21080
640.28340	0.16479
638.35483	0.13060
636.42627	0.17901
634.49771	0.24300
632.56914	0.20433
630.64058	0.16040
628.71201	0.18899
626.78345	0.22796
624.85488	0.20914
622.92632	0.16688
620.99775	0.17837
619.06919	0.27217
617.14062	0.42094
615.21206	0.53814
613.28350	0.51696
611.35493	0.46866
609.42637	0.44031
607.49780	0.39421
605.56924	0.32213
603.64067	0.23677
601.71211	0.19171
599.78354	0.19628
597.85498	0.21313
595.92642	0.23676
593.99785	0.27250
592.06929	0.29856
590.14072	0.29152
588.21216	0.24289
586.28359	0.21589
584.35503	0.24382
582.42646	0.26022
580.49790	0.24958
578.56934	0.20803
576.64077	0.11929
574.71221	0.06574
572.78364	0.11006
570.85508	0.23820
568.92651	0.34024
566.99795	0.29929
565.06938	0.23797
563.14082	0.21983
561.21226	0.22349
559.28369	0.23972
557.35513	0.28189
555.42656	0.29775
553.49800	0.25429
551.56943	0.21733
549.64087	0.20095
547.71230	0.18347
545.78374	0.18923
543.85518	0.24826
541.92661	0.32530
539.99805	0.31687
538.06948	0.24780
536.14092	0.18710
534.21235	0.14911
532.28379	0.13500
530.35522	0.13682
528.42666	0.14164
526.49810	0.16126
524.56953	0.22068
522.64097	0.30554
520.71240	0.34501
518.78384	0.30291
516.85527	0.25940
514.92671	0.27576
512.99814	0.33026
511.06958	0.34631
509.14102	0.31471
507.21245	0.28053
505.28389	0.25593
503.35532	0.25502
501.42676	0.26730
499.49819	0.25163
