3997.91411	0.05349
3995.98555	0.05399
3994.05698	0.05480
3992.12842	0.05520
3990.19985	0.05486
3988.27129	0.05438
3986.34272	0.05445
3984.41416	0.05480
3982.48560	0.05508
3980.55703	0.05555
3978.62847	0.05606
3976.69990	0.05635
3974.77134	0.05669
3972.84277	0.05708
3970.91421	0.05723
3968.98564	0.05735
3967.05708	0.05763
3965.12852	0.05778
3963.19995	0.05791
3961.27139	0.05817
3959.34282	0.05832
3957.41426	0.05840
3955.48569	0.05855
3953.55713	0.05881
3951.62856	0.05906
3949.70000	0.05911
3947.77144	0.05918
3945.84287	0.05952
3943.91431	0.05960
3941.98574	0.05929
3940.05718	0.05925
3938.12861	0.05948
3936.20005	0.05944
3934.27148	0.05917
3932.34292	0.05919
3930.41436	0.05949
3928.48579	0.05947
3926.55723	0.05910
3924.62866	0.05911
3922.70010	0.05934
3920.77153	0.05926
3918.84297	0.05926
3916.91440	0.05955
3914.98584	0.05965
3913.05728	0.05929
3911.12871	0.05888
3909.20015	0.05880
3907.27158	0.05905
3905.34302	0.05968
3903.41445	0.06061
3901.48589	0.06113
3899.55732	0.06073
3897.62876	0.06019
3895.70020	0.06001
3893.77163	0.05998
3891.84307	0.06015
3889.91450	0.06038
3887.98594	0.06026
3886.05737	0.06030
3884.12881	0.06072
3882.20024	0.06088
3880.27168	0.06099
3878.34312	0.06118
3876.41455	0.06128
3874.48599	0.06170
3872.55742	0.06218
3870.62886	0.06228
3868.70029	0.06264
3866.77173	0.06321
3864.84316	0.06363
3862.91460	0.06395
3860.98604	0.06385
3859.05747	0.06356
3857.12891	0.06360
3855.20034	0.06397
3853.27178	0.06476
3851.34321	0.06586
3849.41465	0.06634
3847.48608	0.06646
3845.55752	0.06675
3843.62896	0.06733
3841.70039	0.06822
3839.77183	0.06978
3837.84326	0.07180
3835.91470	0.07239
3833.98613	0.07164
3832.05757	0.07163
3830.12900	0.07241
3828.20044	0.07295
3826.27187	0.07369
3824.34331	0.07508
3822.41475	0.07671
3820.48618	0.07865
3818.55762	0.07981
3816.62905	0.08010
3814.70049	0.08055
3812.77192	0.08059
3810.84336	0.08067
3808.91479	0.08165
3806.98623	0.08325
3805.05767	0.08460
3803.12910	0.08575
3801.20054	0.08766
3799.27197	0.08967
3797.34341	0.09081
3795.41484	0.09170
3793.48628	0.09216
3791.55771	0.09277
3789.62915	0.09398
3787.70059	0.09515
3785.77202	0.09639
3783.84346	0.09795
3781.91489	0.09933
3779.98633	0.10096
3778.05776	0.10334
3776.12920	0.10520
3774.20063	0.10632
3772.27207	0.10754
3770.34351	0.10938
3768.41494	0.11176
3766.48638	0.11382
3764.55781	0.11567
3762.62925	0.11748
3760.70068	0.11968
3758.77212	0.12302
3756.84355	0.12628
3754.91499	0.12819
3752.98643	0.13000
3751.05786	0.13345
3749.12930	0.13813
3747.20073	0.14097
3745.27217	0.14329
3743.34360	0.14731
3741.41504	0.15123
3739.48647	0.15418
3737.55791	0.15775
3735.62935	0.16334
3733.70078	0.17080
3731.77222	0.17686
3729.84365	0.18124
3727.91509	0.18557
3725.98652	0.19097
3724.05796	0.19733
3722.12939	0.20380
3720.20083	0.21044
3718.27227	0.21686
3716.34370	0.22310
3714.41514	0.22998
3712.48657	0.23938
3710.55801	0.25348
3708.62944	0.26861
3706.70088	0.28056
3704.77231	0.29176
3702.84375	0.30487
3700.91519	0.32185
3698.98662	0.34051
3697.05806	0.35824
3695.12949	0.37694
3693.20093	0.39660
3691.27236	0.41785
3689.34380	0.44596
3687.41523	0.48133
3685.48667	0.51170
3683.55811	0.53714
3681.62954	0.56459
3679.70098	0.59604
3677.77241	0.62914
3675.84385	0.66836
3673.91528	0.72251
3671.98672	0.76610
3670.05815	0.80437
3668.12959	0.85871
3666.20103	0.90769
3664.27246	0.94770
3662.34390	0.99124
3660.41533	1.03912
3658.48677	1.08585
3656.55820	1.13448
3654.62964	1.18937
3652.70107	1.23592
3650.77251	1.27557
3648.84395	1.33095
3646.91538	1.40070
3644.98682	1.45135
3643.05825	1.49040
3641.12969	1.53082
3639.20112	1.57616
3637.27256	1.62194
3635.34399	1.66578
3633.41543	1.70948
3631.48687	1.75029
3629.55830	1.79102
3627.62974	1.84542
3625.70117	1.89648
3623.77261	1.93026
3621.84404	1.96274
3619.91548	1.99962
3617.98691	2.04449
3616.05835	2.08882
3614.12979	2.12604
3612.20122	2.16505
3610.27266	2.20429
3608.34409	2.24455
3606.41553	2.28869
3604.48696	2.32940
3602.55840	2.36515
3600.62983	2.40421
3598.70127	2.44645
3596.77271	2.48564
3594.84414	2.52530
3592.91558	2.56883
3590.98701	2.60929
3589.05845	2.64375
3587.12988	2.68448
3585.20132	2.73316
3583.27275	2.77581
3581.34419	2.81405
3579.41562	2.85518
3577.48706	2.89908
3575.55850	2.94186
3573.62993	2.98409
3571.70137	3.02489
3569.77280	3.06362
3567.84424	3.10445
3565.91567	3.15599
3563.98711	3.20742
3562.05854	3.24849
3560.12998	3.28877
3558.20142	3.33341
3556.27285	3.38079
3554.34429	3.42672
3552.41572	3.47449
3550.48716	3.52442
3548.55859	3.56874
3546.63003	3.60874
3544.70146	3.65555
3542.77290	3.70823
3540.84434	3.75610
3538.91577	3.79927
3536.98721	3.84328
3535.05864	3.89377
3533.13008	3.94649
3531.20151	3.99422
3529.27295	4.03916
3527.34438	4.08873
3525.41582	4.13952
3523.48726	4.18549
3521.55869	4.23408
3519.63013	4.28637
3517.70156	4.33555
3515.77300	4.37963
3513.84443	4.42254
3511.91587	4.46701
3509.98730	4.51485
3508.05874	4.56659
3506.13018	4.61782
3504.20161	4.66720
3502.27305	4.71438
3500.34448	4.75676
3498.41592	4.79844
3496.48735	4.84475
3494.55879	4.89198
3492.63022	4.93952
3490.70166	4.99185
3488.77310	5.04332
3486.84453	5.08854
3484.91597	5.13285
3482.98740	5.18045
3481.05884	5.22902
3479.13027	5.27673
3477.20171	5.32806
3475.27314	5.37990
3473.34458	5.42605
3471.41602	5.47099
3469.48745	5.51878
3467.55889	5.57197
3465.63032	5.63007
3463.70176	5.68287
3461.77319	5.72599
3459.84463	5.77273
3457.91606	5.82060
3455.98750	5.85931
3454.05894	5.90160
3452.13037	5.96450
3450.20181	6.03887
3448.27324	6.09123
3446.34468	6.11620
3444.41611	6.14382
3442.48755	6.20465
3440.55898	6.28563
3438.63042	6.33657
3436.70186	6.36095
3434.77329	6.41286
3432.84473	6.49139
3430.91616	6.54438
3428.98760	6.57448
3427.05903	6.62768
3425.13047	6.69533
3423.20190	6.73032
3421.27334	6.75327
3419.34478	6.79974
3417.41621	6.86344
3415.48765	6.91696
3413.55908	6.93822
3411.63052	6.95834
3409.70195	7.01483
3407.77339	7.10007
3405.84482	7.16833
3403.91626	7.21017
3401.98770	7.22937
3400.05913	7.24012
3398.13057	7.27641
3396.20200	7.34058
3394.27344	7.39463
3392.34487	7.41175
3390.41631	7.46691
3388.48774	7.55785
3386.55918	7.58505
3384.63062	7.55622
3382.70205	7.57380
3380.77349	7.64053
3378.84492	7.68964
3376.91636	7.71601
3374.98779	7.71159
3373.05923	7.70955
3371.13066	7.73149
3369.20210	7.76606
3367.27354	7.78489
3365.34497	7.77999
3363.41641	7.76190
3361.48784	7.73040
3359.55928	7.74858
3357.63071	7.85522
3355.70215	7.99721
3353.77358	8.05366
3351.84502	8.01282
3349.91646	7.96546
3347.98789	7.97748
3346.05933	8.02978
3344.13076	8.03924
3342.20220	8.00684
3340.27363	8.00153
3338.34507	8.05251
3336.41650	8.14686
3334.48794	8.24932
3332.55937	8.21519
3330.63081	8.09819
3328.70225	8.02920
3326.77368	7.99889
3324.84512	8.03211
3322.91655	8.11809
3320.98799	8.21142
3319.05942	8.22883
3317.13086	8.15654
3315.20229	8.09115
3313.27373	8.09012
3311.34517	8.12701
3309.41660	8.17163
3307.48804	8.16925
3305.55947	8.09292
3303.63091	8.07692
3301.70234	8.10846
3299.77378	8.07002
3297.84521	8.00669
3295.91665	8.01736
3293.98809	8.06475
3292.05952	8.04737
3290.13096	8.01398
3288.20239	8.07538
3286.27383	8.20598
3284.34526	8.29396
3282.41670	8.36323
3280.48813	8.42860
3278.55957	8.43919
3276.63101	8.37732
3274.70244	8.24639
3272.77388	8.13393
3270.84531	8.08798
3268.91675	8.05557
3266.98818	8.02317
3265.05962	8.05898
3263.13105	8.18200
3261.20249	8.34432
3259.27393	8.39663
3257.34536	8.24731
3255.41680	8.07593
3253.48823	8.01595
3251.55967	8.05515
3249.63110	8.15318
3247.70254	8.21976
3245.77397	8.20369
3243.84541	8.23686
3241.91685	8.34577
3239.98828	8.42401
3238.05972	8.46005
3236.13115	8.39836
3234.20259	8.23767
3232.27402	8.10551
3230.34546	8.01361
3228.41689	7.97268
3226.48833	8.01905
3224.55977	8.05674
3222.63120	8.02221
3220.70264	7.99229
3218.77407	8.00690
3216.84551	8.00559
3214.91694	7.95388
3212.98838	7.89203
3211.05981	7.85160
3209.13125	7.85927
3207.20269	7.92455
3205.27412	8.00089
3203.34556	8.00373
3201.41699	7.94219
3199.48843	7.91674
3197.55986	7.92465
3195.63130	7.85245
3193.70273	7.68593
3191.77417	7.53421
3189.84561	7.46929
3187.91704	7.46384
3185.98848	7.44884
3184.05991	7.41852
3182.13135	7.36727
3180.20278	7.27366
3178.27422	7.19545
3176.34565	7.16569
3174.41709	7.13608
3172.48853	7.08569
3170.55996	7.03229
3168.63140	6.98013
3166.70283	6.91556
3164.77427	6.84236
3162.84570	6.77322
3160.91714	6.69954
3158.98857	6.63712
3157.06001	6.59584
3155.13145	6.55600
3153.20288	6.50369
3151.27432	6.42199
3149.34575	6.32485
3147.41719	6.24340
3145.48862	6.16925
3143.56006	6.09923
3141.63149	6.04229
3139.70293	5.97592
3137.77437	5.89780
3135.84580	5.83610
3133.91724	5.78030
3131.98867	5.70877
3130.06011	5.63616
3128.13154	5.56659
3126.20298	5.49523
3124.27441	5.42928
3122.34585	5.36070
3120.41729	5.28658
3118.48872	5.21634
3116.56016	5.14623
3114.63159	5.07036
3112.70303	4.99675
3110.77446	4.93103
3108.84590	4.86591
3106.91733	4.79686
3104.98877	4.72540
3103.06021	4.65398
3101.13164	4.58651
3099.20308	4.52510
3097.27451	4.46413
3095.34595	4.39958
3093.41738	4.33290
3091.48882	4.26554
3089.56025	4.20119
3087.63169	4.14111
3085.70312	4.08250
3083.77456	4.02259
3081.84600	3.95899
3079.91743	3.89273
3077.98887	3.82882
3076.06030	3.76814
3074.13174	3.70868
3072.20317	3.65104
3070.27461	3.59504
3068.34604	3.54024
3066.41748	3.48490
3064.48892	3.42772
3062.56035	3.37192
3060.63179	3.31936
3058.70322	3.26760
3056.77466	3.21470
3054.84609	3.16105
3052.91753	3.10734
3050.98896	3.05427
3049.06040	3.00303
3047.13184	2.95354
3045.20327	2.90445
3043.27471	2.85574
3041.34614	2.80780
3039.41758	2.76061
3037.48901	2.71456
3035.56045	2.66906
3033.63188	2.62384
3031.70332	2.57961
3029.77476	2.53589
3027.84619	2.49225
3025.91763	2.44893
3023.98906	2.40645
3022.06050	2.36563
3020.13193	2.32610
3018.20337	2.28640
3016.27480	2.24589
3014.34624	2.20595
3012.41768	2.16780
3010.48911	2.13032
3008.56055	2.09293
3006.63198	2.05672
3004.70342	2.02152
3002.77485	1.98629
3000.84629	1.95129
2998.91772	1.91758
2996.98916	1.88525
2995.06060	1.85351
2993.13203	1.82194
2991.20347	1.79089
2989.27490	1.76055
2987.34634	1.73082
2985.41777	1.70188
2983.48921	1.67359
2981.56064	1.64551
2979.63208	1.61785
2977.70352	1.59087
2975.77495	1.56449
2973.84639	1.53853
2971.91782	1.51272
2969.98926	1.48734
2968.06069	1.46300
2966.13213	1.43954
2964.20356	1.41622
2962.27500	1.39261
2960.34644	1.36902
2958.41787	1.34547
2956.48931	1.32168
2954.56074	1.29783
2952.63218	1.27432
2950.70361	1.25169
2948.77505	1.22999
2946.84648	1.20867
2944.91792	1.18748
2942.98936	1.16629
2941.06079	1.14549
2939.13223	1.12584
2937.20366	1.10636
2935.27510	1.08583
2933.34653	1.06563
2931.41797	1.04724
2929.48940	1.02967
2927.56084	1.01104
2925.63228	0.99161
2923.70371	0.97326
2921.77515	0.95613
2919.84658	0.93920
2917.91802	0.92239
2915.98945	0.90577
2914.06089	0.88902
2912.13232	0.87241
2910.20376	0.85669
2908.27520	0.84160
2906.34663	0.82659
2904.41807	0.81198
2902.48950	0.79825
2900.56094	0.78503
2898.63237	0.77167
2896.70381	0.75832
2894.77524	0.74549
2892.84668	0.73316
2890.91812	0.72130
2888.98955	0.70987
2887.06099	0.69866
2885.13242	0.68771
2883.20386	0.67711
2881.27529	0.66671
2879.34673	0.65662
2877.41816	0.64700
2875.48960	0.63746
2873.56104	0.62741
2871.63247	0.61692
2869.70391	0.60620
2867.77534	0.59499
2865.84678	0.58341
2863.91821	0.57196
2861.98965	0.56100
2860.06108	0.55055
2858.13252	0.54044
2856.20396	0.53080
2854.27539	0.52165
2852.34683	0.51256
2850.41826	0.50367
2848.48970	0.49532
2846.56113	0.48740
2844.63257	0.47971
2842.70400	0.47224
2840.77544	0.46524
2838.84687	0.45881
2836.91831	0.45274
2834.98975	0.44671
2833.06118	0.44057
2831.13262	0.43436
2829.20405	0.42824
2827.27549	0.42235
2825.34692	0.41653
2823.41836	0.41063
2821.48979	0.40455
2819.56123	0.39825
2817.63267	0.39215
2815.70410	0.38648
2813.77554	0.38094
2811.84697	0.37539
2809.91841	0.36982
2807.98984	0.36418
2806.06128	0.35860
2804.13271	0.35345
2802.20415	0.34871
2800.27559	0.34396
2798.34702	0.33898
2796.41846	0.33396
2794.48989	0.32905
2792.56133	0.32428
2790.63276	0.31968
2788.70420	0.31528
2786.77563	0.31100
2784.84707	0.30682
2782.91851	0.30280
2780.98994	0.29877
2779.06138	0.29458
2777.13281	0.29039
2775.20425	0.28647
2773.27568	0.28277
2771.34712	0.27906
2769.41855	0.27529
2767.48999	0.27169
2765.56143	0.26834
2763.63286	0.26498
2761.70430	0.26161
2759.77573	0.25836
2757.84717	0.25512
2755.91860	0.25188
2753.99004	0.24874
2752.06147	0.24572
2750.13291	0.24271
2748.20435	0.23977
2746.27578	0.23696
2744.34722	0.23414
2742.41865	0.23133
2740.49009	0.22870
2738.56152	0.22617
2736.63296	0.22366
2734.70439	0.22121
2732.77583	0.21880
2730.84727	0.21641
2728.91870	0.21401
2726.99014	0.21171
2725.06157	0.20952
2723.13301	0.20736
2721.20444	0.20533
2719.27588	0.20334
2717.34731	0.20127
2715.41875	0.19929
2713.49019	0.19747
2711.56162	0.19573
2709.63306	0.19398
2707.70449	0.19226
2705.77593	0.19062
2703.84736	0.18903
2701.91880	0.18741
2699.99023	0.18587
2698.06167	0.18439
2696.13311	0.18279
2694.20454	0.18113
2692.27598	0.17965
2690.34741	0.17848
2688.41885	0.17736
2686.49028	0.17604
2684.56172	0.17471
2682.63315	0.17358
2680.70459	0.17252
2678.77603	0.17141
2676.84746	0.17023
2674.91890	0.16902
2672.99033	0.16788
2671.06177	0.16686
2669.13320	0.16585
2667.20464	0.16472
2665.27607	0.16363
2663.34751	0.16270
2661.41895	0.16188
2659.49038	0.16106
2657.56182	0.16025
2655.63325	0.15943
2653.70469	0.15853
2651.77612	0.15761
2649.84756	0.15687
2647.91899	0.15637
2645.99043	0.15586
2644.06187	0.15528
2642.13330	0.15467
2640.20474	0.15408
2638.27617	0.15359
2636.34761	0.15318
2634.41904	0.15271
2632.49048	0.15223
2630.56191	0.15195
2628.63335	0.15169
2626.70479	0.15125
2624.77622	0.15083
2622.84766	0.15046
2620.91909	0.15006
2618.99053	0.14990
2617.06196	0.15000
2615.13340	0.14992
2613.20483	0.14952
2611.27627	0.14915
2609.34771	0.14903
2607.41914	0.14902
2605.49058	0.14900
2603.56201	0.14900
2601.63345	0.14905
2599.70488	0.14912
2597.77632	0.14914
2595.84775	0.14913
2593.91919	0.14910
2591.99062	0.14907
2590.06206	0.14912
2588.13350	0.14927
2586.20493	0.14945
2584.27637	0.14967
2582.34780	0.14995
2580.41924	0.15035
2578.49067	0.15075
2576.56211	0.15103
2574.63354	0.15118
2572.70498	0.15141
2570.77642	0.15184
2568.84785	0.15229
2566.91929	0.15269
2564.99072	0.15310
2563.06216	0.15349
2561.13359	0.15391
2559.20503	0.15436
2557.27646	0.15473
2555.34790	0.15512
2553.41934	0.15560
2551.49077	0.15616
2549.56221	0.15682
2547.63364	0.15747
2545.70508	0.15796
2543.77651	0.15841
2541.84795	0.15900
2539.91938	0.15965
2537.99082	0.16032
2536.06226	0.16109
2534.13369	0.16192
2532.20513	0.16260
2530.27656	0.16325
2528.34800	0.16401
2526.41943	0.16478
2524.49087	0.16551
2522.56230	0.16627
2520.63374	0.16698
2518.70518	0.16766
2516.77661	0.16841
2514.84805	0.16922
2512.91948	0.17000
2510.99092	0.17070
2509.06235	0.17142
2507.13379	0.17224
2505.20522	0.17304
2503.27666	0.17384
2501.34810	0.17475
2499.41953	0.17575
2497.49097	0.17663
2495.56240	0.17735
2493.63384	0.17812
2491.70527	0.17899
2489.77671	0.17978
2487.84814	0.18050
2485.91958	0.18130
2483.99102	0.18231
2482.06245	0.18330
2480.13389	0.18402
2478.20532	0.18474
2476.27676	0.18570
2474.34819	0.18672
2472.41963	0.18762
2470.49106	0.18845
2468.56250	0.18941
2466.63394	0.19050
2464.70537	0.19152
2462.77681	0.19237
2460.84824	0.19323
2458.91968	0.19417
2456.99111	0.19514
2455.06255	0.19614
2453.13398	0.19718
2451.20542	0.19816
2449.27686	0.19907
2447.34829	0.20003
2445.41973	0.20111
2443.49116	0.20223
2441.56260	0.20320
2439.63403	0.20410
2437.70547	0.20525
2435.77690	0.20648
2433.84834	0.20759
2431.91978	0.20865
2429.99121	0.20967
2428.06265	0.21066
2426.13408	0.21162
2424.20552	0.21261
2422.27695	0.21373
2420.34839	0.21486
2418.41982	0.21588
2416.49126	0.21696
2414.56270	0.21820
2412.63413	0.21949
2410.70557	0.22071
2408.77700	0.22186
2406.84844	0.22304
2404.91987	0.22421
2402.99131	0.22520
2401.06274	0.22621
2399.13418	0.22751
2397.20562	0.22893
2395.27705	0.23027
2393.34849	0.23159
2391.41992	0.23298
2389.49136	0.23446
2387.56279	0.23615
2385.63423	0.23822
2383.70566	0.24095
2381.77710	0.24469
2379.84854	0.24929
2377.91997	0.25428
2375.99141	0.25973
2374.06284	0.26635
2372.13428	0.27422
2370.20571	0.28257
2368.27715	0.29142
2366.34858	0.30090
2364.42002	0.30908
2362.49146	0.31499
2360.56289	0.31905
2358.63433	0.31973
2356.70576	0.31683
2354.77720	0.31219
2352.84863	0.30603
2350.92007	0.29920
2348.99150	0.29520
2347.06294	0.29618
2345.13437	0.30251
2343.20581	0.31127
2341.27725	0.31682
2339.34868	0.31809
2337.42012	0.31741
2335.49155	0.31690
2333.56299	0.31687
2331.63442	0.31737
2329.70586	0.31829
2327.77729	0.31873
2325.84873	0.31841
2323.92017	0.31772
2321.99160	0.31648
2320.06304	0.31487
2318.13447	0.31356
2316.20591	0.31279
2314.27734	0.31260
2312.34878	0.31292
2310.42021	0.31328
2308.49165	0.31331
2306.56309	0.31313
2304.63452	0.31309
2302.70596	0.31361
2300.77739	0.31471
2298.84883	0.31585
2296.92026	0.31692
2294.99170	0.31821
2293.06313	0.31961
2291.13457	0.32081
2289.20601	0.32192
2287.27744	0.32316
2285.34888	0.32450
2283.42031	0.32599
2281.49175	0.32784
2279.56318	0.33006
2277.63462	0.33237
2275.70605	0.33460
2273.77749	0.33673
2271.84893	0.33882
2269.92036	0.34092
2267.99180	0.34306
2266.06323	0.34520
2264.13467	0.34723
2262.20610	0.34922
2260.27754	0.35132
2258.34897	0.35351
2256.42041	0.35562
2254.49185	0.35762
2252.56328	0.35960
2250.63472	0.36168
2248.70615	0.36381
2246.77759	0.36589
2244.84902	0.36791
2242.92046	0.36996
2240.99189	0.37209
2239.06333	0.37429
2237.13477	0.37662
2235.20620	0.37896
2233.27764	0.38117
2231.34907	0.38344
2229.42051	0.38589
2227.49194	0.38819
2225.56338	0.39019
2223.63481	0.39219
2221.70625	0.39440
2219.77769	0.39667
2217.84912	0.39889
2215.92056	0.40116
2213.99199	0.40345
2212.06343	0.40563
2210.13486	0.40780
2208.20630	0.41001
2206.27773	0.41216
2204.34917	0.41420
2202.42061	0.41620
2200.49204	0.41820
2198.56348	0.42024
2196.63491	0.42229
2194.70635	0.42424
2192.77778	0.42605
2190.84922	0.42781
2188.92065	0.42963
2186.99209	0.43150
2185.06353	0.43339
2183.13496	0.43531
2181.20640	0.43712
2179.27783	0.43871
2177.34927	0.44025
2175.42070	0.44183
2173.49214	0.44332
2171.56357	0.44471
2169.63501	0.44608
2167.70645	0.44743
2165.77788	0.44874
2163.84932	0.45005
2161.92075	0.45129
2159.99219	0.45239
2158.06362	0.45342
2156.13506	0.45438
2154.20649	0.45520
2152.27793	0.45595
2150.34937	0.45669
2148.42080	0.45734
2146.49224	0.45781
2144.56367	0.45821
2142.63511	0.45872
2140.70654	0.45925
2138.77798	0.45967
2136.84941	0.45986
2134.92085	0.45987
2132.99229	0.45988
2131.06372	0.45994
2129.13516	0.45991
2127.20659	0.45969
2125.27803	0.45932
2123.34946	0.45891
2121.42090	0.45850
2119.49233	0.45801
2117.56377	0.45735
2115.63521	0.45653
2113.70664	0.45575
2111.77808	0.45498
2109.84951	0.45402
2107.92095	0.45292
2105.99238	0.45180
2104.06382	0.45070
2102.13525	0.44962
2100.20669	0.44845
2098.27812	0.44694
2096.34956	0.44526
2094.42100	0.44368
2092.49243	0.44211
2090.56387	0.44046
2088.63530	0.43876
2086.70674	0.43702
2084.77817	0.43518
2082.84961	0.43324
2080.92104	0.43125
2078.99248	0.42922
2077.06392	0.42715
2075.13535	0.42504
2073.20679	0.42287
2071.27822	0.42056
2069.34966	0.41818
2067.42109	0.41582
2065.49253	0.41353
2063.56396	0.41123
2061.63540	0.40888
2059.70684	0.40641
2057.77827	0.40386
2055.84971	0.40137
2053.92114	0.39890
2051.99258	0.39638
2050.06401	0.39376
2048.13545	0.39108
2046.20688	0.38834
2044.27832	0.38564
2042.34976	0.38300
2040.42119	0.38027
2038.49263	0.37753
2036.56406	0.37478
2034.63550	0.37195
2032.70693	0.36910
2030.77837	0.36635
2028.84980	0.36363
2026.92124	0.36090
2024.99268	0.35815
2023.06411	0.35532
2021.13555	0.35245
2019.20698	0.34968
2017.27842	0.34701
2015.34985	0.34430
2013.42129	0.34153
2011.49272	0.33873
2009.56416	0.33592
2007.63560	0.33312
2005.70703	0.33034
2003.77847	0.32768
2001.84990	0.32508
1999.92134	0.32238
1997.99277	0.31963
1996.06421	0.31704
1994.13564	0.31465
1992.20708	0.31219
1990.27852	0.30953
1988.34995	0.30696
1986.42139	0.30454
1984.49282	0.30217
1982.56426	0.29980
1980.63569	0.29738
1978.70713	0.29506
1976.77856	0.29284
1974.85000	0.29059
1972.92144	0.28830
1970.99287	0.28612
1969.06431	0.28410
1967.13574	0.28212
1965.20718	0.28006
1963.27861	0.27803
1961.35005	0.27610
1959.42148	0.27425
1957.49292	0.27237
1955.56436	0.27044
1953.63579	0.26863
1951.70723	0.26695
1949.77866	0.26527
1947.85010	0.26361
1945.92153	0.26204
1943.99297	0.26059
1942.06440	0.25924
1940.13584	0.25786
1938.20728	0.25639
1936.27871	0.25491
1934.35015	0.25350
1932.42158	0.25223
1930.49302	0.25101
1928.56445	0.24982
1926.63589	0.24873
1924.70732	0.24779
1922.77876	0.24689
1920.85020	0.24588
1918.92163	0.24492
1916.99307	0.24405
1915.06450	0.24311
1913.13594	0.24219
1911.20737	0.24149
1909.27881	0.24078
1907.35024	0.23998
1905.42168	0.23929
1903.49312	0.23880
1901.56455	0.23837
1899.63599	0.23786
1897.70742	0.23739
1895.77886	0.23704
1893.85029	0.23669
1891.92173	0.23624
1889.99316	0.23592
1888.06460	0.23568
1886.13604	0.23542
1884.20747	0.23525
1882.27891	0.23509
1880.35034	0.23490
1878.42178	0.23470
1876.49321	0.23456
1874.56465	0.23453
1872.63608	0.23468
1870.70752	0.23496
1868.77896	0.23545
1866.85039	0.23582
1864.92183	0.23587
1862.99326	0.23589
1861.06470	0.23604
1859.13613	0.23642
1857.20757	0.23683
1855.27900	0.23722
1853.35044	0.23761
1851.42187	0.23814
1849.49331	0.23879
1847.56475	0.23953
1845.63618	0.24035
1843.70762	0.24132
1841.77905	0.24215
1839.85049	0.24266
1837.92192	0.24337
1835.99336	0.24425
1834.06479	0.24515
1832.13623	0.24610
1830.20767	0.24753
1828.27910	0.24914
1826.35054	0.25029
1824.42197	0.25153
1822.49341	0.25276
1820.56484	0.25390
1818.63628	0.25519
1816.70771	0.25685
1814.77915	0.25860
1812.85059	0.26040
1810.92202	0.26239
1808.99346	0.26433
1807.06489	0.26616
1805.13633	0.26806
1803.20776	0.27025
1801.27920	0.27279
1799.35063	0.27575
1797.42207	0.27838
1795.49351	0.28077
1793.56494	0.28356
1791.63638	0.28727
1789.70781	0.29089
1787.77925	0.29356
1785.85068	0.29660
1783.92212	0.30026
1781.99355	0.30418
1780.06499	0.30834
1778.13643	0.31268
1776.20786	0.31676
1774.27930	0.32100
1772.35073	0.32678
1770.42217	0.33324
1768.49360	0.33868
1766.56504	0.34387
1764.63647	0.34905
1762.70791	0.35477
1760.77935	0.36227
1758.85078	0.36937
1756.92222	0.37645
1754.99365	0.38423
1753.06509	0.39112
1751.13652	0.39920
1749.20796	0.40989
1747.27939	0.42070
1745.35083	0.42993
1743.42227	0.43943
1741.49370	0.44996
1739.56514	0.46250
1737.63657	0.47493
1735.70801	0.48538
1733.77944	0.50141
1731.85088	0.52160
1729.92231	0.53767
1727.99375	0.55356
1726.06519	0.57020
1724.13662	0.58852
1722.20806	0.60859
1720.27949	0.62682
1718.35093	0.64798
1716.42236	0.68072
1714.49380	0.71212
1712.56523	0.73663
1710.63667	0.76012
1708.70811	0.78522
1706.77954	0.81387
1704.85098	0.84908
1702.92241	0.88088
1700.99385	0.91150
1699.06528	0.95738
1697.13672	1.00019
1695.20815	1.04453
1693.27959	1.08709
1691.35103	1.12034
1689.42246	1.15907
1687.49390	1.20078
1685.56533	1.24059
1683.63677	1.30329
1681.70820	1.36986
1679.77964	1.41143
1677.85107	1.45108
1675.92251	1.49630
1673.99395	1.55253
1672.06538	1.60277
1670.13682	1.65255
1668.20825	1.71931
1666.27969	1.77283
1664.35112	1.81822
1662.42256	1.87659
1660.49399	1.94309
1658.56543	1.99337
1656.63687	2.03522
1654.70830	2.07584
1652.77974	2.13822
1650.85117	2.19164
1648.92261	2.20580
1646.99404	2.23025
1645.06548	2.26103
1643.13691	2.28008
1641.20835	2.28750
1639.27979	2.29546
1637.35122	2.30229
1635.42266	2.30209
1633.49409	2.29443
1631.56553	2.28125
1629.63696	2.26459
1627.70840	2.23662
1625.77983	2.20400
1623.85127	2.16073
1621.92271	2.10773
1619.99414	2.06198
1618.06558	2.01776
1616.13701	1.95386
1614.20845	1.89018
1612.27988	1.84300
1610.35132	1.79234
1608.42275	1.73629
1606.49419	1.68117
1604.56562	1.63084
1602.63706	1.58203
1600.70850	1.53418
1598.77993	1.49051
1596.85137	1.44993
1594.92280	1.41041
1592.99424	1.37182
1591.06567	1.33669
1589.13711	1.30453
1587.20854	1.27516
1585.27998	1.24810
1583.35142	1.22282
1581.42285	1.19978
1579.49429	1.18023
1577.56572	1.16321
1575.63716	1.14267
1573.70859	1.12423
1571.78003	1.11228
1569.85146	1.10054
1567.92290	1.08804
1565.99434	1.07890
1564.06577	1.07226
1562.13721	1.06771
1560.20864	1.06601
1558.28008	1.06647
1556.35151	1.06620
1554.42295	1.06516
1552.49438	1.06452
1550.56582	1.06286
1548.63726	1.05903
1546.70869	1.05315
1544.78013	1.04448
1542.85156	1.03277
1540.92300	1.01544
1538.99443	0.98776
1537.06587	0.96875
1535.13730	0.95600
1533.20874	0.93803
1531.28018	0.91915
1529.35161	0.90600
1527.42305	0.89321
1525.49448	0.87958
1523.56592	0.86824
1521.63735	0.85732
1519.70879	0.84612
1517.78022	0.83714
1515.85166	0.82666
1513.92310	0.81550
1511.99453	0.80558
1510.06597	0.79643
1508.13740	0.78763
1506.20884	0.77399
1504.28027	0.76263
1502.35171	0.75641
1500.42314	0.75084
1498.49458	0.74461
1496.56602	0.73712
1494.63745	0.73008
1492.70889	0.72490
1490.78032	0.72009
1488.85176	0.71419
1486.92319	0.70878
1484.99463	0.70463
1483.06606	0.70125
1481.13750	0.69837
1479.20894	0.69621
1477.28037	0.69491
1475.35181	0.69406
1473.42324	0.69362
1471.49468	0.69307
1469.56611	0.69152
1467.63755	0.68946
1465.70898	0.68766
1463.78042	0.68654
1461.85186	0.68602
1459.92329	0.68596
1457.99473	0.68645
1456.06616	0.68623
1454.13760	0.68411
1452.20903	0.68169
1450.28047	0.67932
1448.35190	0.67699
1446.42334	0.67453
1444.49478	0.67212
1442.56621	0.66977
1440.63765	0.66742
1438.70908	0.66524
1436.78052	0.66256
1434.85195	0.65918
1432.92339	0.65641
1430.99482	0.65469
1429.06626	0.65401
1427.13770	0.65400
1425.20913	0.65429
1423.28057	0.65473
1421.35200	0.65492
1419.42344	0.65483
1417.49487	0.65444
1415.56631	0.65349
1413.63774	0.65262
1411.70918	0.65231
1409.78062	0.65271
1407.85205	0.65348
1405.92349	0.65431
1403.99492	0.65489
1402.06636	0.65480
1400.13779	0.65402
1398.20923	0.65257
1396.28066	0.65044
1394.35210	0.64730
1392.42354	0.64336
1390.49497	0.63972
1388.56641	0.63624
1386.63784	0.63205
1384.70928	0.62751
1382.78071	0.62338
1380.85215	0.61957
1378.92358	0.61631
1376.99502	0.61386
1375.06646	0.61215
1373.13789	0.61095
1371.20933	0.61019
1369.28076	0.60967
1367.35220	0.60880
1365.42363	0.60737
1363.49507	0.60581
1361.56650	0.60436
1359.63794	0.60288
1357.70937	0.60148
1355.78081	0.60024
1353.85225	0.59911
1351.92368	0.59809
1349.99512	0.59718
1348.06655	0.59630
1346.13799	0.59535
1344.20942	0.59432
1342.28086	0.59333
1340.35229	0.59252
1338.42373	0.59183
1336.49517	0.59112
1334.56660	0.59042
1332.63804	0.58996
1330.70947	0.58985
1328.78091	0.58999
1326.85234	0.59036
1324.92378	0.59091
1322.99521	0.59158
1321.06665	0.59221
1319.13809	0.59274
1317.20952	0.59289
1315.28096	0.59261
1313.35239	0.59207
1311.42383	0.59129
1309.49526	0.59041
1307.56670	0.58976
1305.63813	0.58929
1303.70957	0.58870
1301.78101	0.58787
1299.85244	0.58681
1297.92388	0.58561
1295.99531	0.58446
1294.06675	0.58336
1292.13818	0.58216
1290.20962	0.58091
1288.28105	0.57971
1286.35249	0.57847
1284.42393	0.57721
1282.49536	0.57595
1280.56680	0.57472
1278.63823	0.57349
1276.70967	0.57229
1274.78110	0.57120
1272.85254	0.57024
1270.92397	0.56934
1268.99541	0.56862
1267.06685	0.56818
1265.13828	0.56774
1263.20972	0.56710
1261.28115	0.56631
1259.35259	0.56548
1257.42402	0.56483
1255.49546	0.56448
1253.56689	0.56437
1251.63833	0.56441
1249.70977	0.56443
1247.78120	0.56422
1245.85264	0.56382
1243.92407	0.56326
1241.99551	0.56236
1240.06694	0.56119
1238.13838	0.55988
1236.20981	0.55834
1234.28125	0.55653
1232.35269	0.55456
1230.42412	0.55252
1228.49556	0.55054
1226.56699	0.54861
1224.63843	0.54665
1222.70986	0.54486
1220.78130	0.54343
1218.85273	0.54219
1216.92417	0.54091
1214.99561	0.53973
1213.06704	0.53882
1211.13848	0.53805
1209.20991	0.53736
1207.28135	0.53672
1205.35278	0.53594
1203.42422	0.53500
1201.49565	0.53395
1199.56709	0.53284
1197.63853	0.53190
1195.70996	0.53129
1193.78140	0.53079
1191.85283	0.53021
1189.92427	0.52955
1187.99570	0.52894
1186.06714	0.52858
1184.13857	0.52852
1182.21001	0.52881
1180.28145	0.52960
1178.35288	0.53077
1176.42432	0.53209
1174.49575	0.53338
1172.56719	0.53433
1170.63862	0.53466
1168.71006	0.53471
1166.78149	0.53496
1164.85293	0.53544
1162.92437	0.53593
1160.99580	0.53622
1159.06724	0.53606
1157.13867	0.53554
1155.21011	0.53491
1153.28154	0.53399
1151.35298	0.53236
1149.42441	0.52992
1147.49585	0.52708
1145.56729	0.52434
1143.63872	0.52182
1141.71016	0.51951
1139.78159	0.51758
1137.85303	0.51618
1135.92446	0.51534
1133.99590	0.51491
1132.06733	0.51464
1130.13877	0.51443
1128.21021	0.51431
1126.28164	0.51419
1124.35308	0.51391
1122.42451	0.51362
1120.49595	0.51359
1118.56738	0.51387
1116.63882	0.51448
1114.71025	0.51529
1112.78169	0.51606
1110.85312	0.51686
1108.92456	0.51769
1106.99600	0.51842
1105.06743	0.51933
1103.13887	0.52045
1101.21030	0.52137
1099.28174	0.52241
1097.35317	0.52438
1095.42461	0.52731
1093.49604	0.53082
1091.56748	0.53533
1089.63892	0.54157
1087.71035	0.54945
1085.78179	0.55793
1083.85322	0.56615
1081.92466	0.57364
1079.99609	0.57927
1078.06753	0.58205
1076.13896	0.58179
1074.21040	0.57855
1072.28184	0.57301
1070.35327	0.56634
1068.42471	0.55927
1066.49614	0.55229
1064.56758	0.54581
1062.63901	0.54018
1060.71045	0.53537
1058.78188	0.53103
1056.85332	0.52717
1054.92476	0.52383
1052.99619	0.52093
1051.06763	0.51881
1049.13906	0.51742
1047.21050	0.51636
1045.28193	0.51575
1043.35337	0.51570
1041.42480	0.51595
1039.49624	0.51634
1037.56768	0.51667
1035.63911	0.51658
1033.71055	0.51602
1031.78198	0.51498
1029.85342	0.51343
1027.92485	0.51160
1025.99629	0.50996
1024.06772	0.50873
1022.13916	0.50786
1020.21060	0.50718
1018.28203	0.50680
1016.35347	0.50669
1014.42490	0.50651
1012.49634	0.50614
1010.56777	0.50581
1008.63921	0.50571
1006.71064	0.50592
1004.78208	0.50665
1002.85352	0.50811
1000.92495	0.51049
998.99639	0.51395
997.06782	0.51825
995.13926	0.52283
993.21069	0.52703
991.28213	0.53025
989.35356	0.53201
987.42500	0.53234
985.49644	0.53201
983.56787	0.53180
981.63931	0.53191
979.71074	0.53240
977.78218	0.53348
975.85361	0.53535
973.92505	0.53786
971.99648	0.54086
970.06792	0.54423
968.13936	0.54776
966.21079	0.55150
964.28223	0.55566
962.35366	0.56040
960.42510	0.56559
958.49653	0.57100
956.56797	0.57663
954.63940	0.58250
952.71084	0.58863
950.78228	0.59489
948.85371	0.60106
946.92515	0.60721
944.99658	0.61352
943.06802	0.61971
941.13945	0.62558
939.21089	0.63142
937.28232	0.63736
935.35376	0.64318
933.42520	0.64884
931.49663	0.65465
929.56807	0.66056
927.63950	0.66625
925.71094	0.67209
923.78237	0.67861
921.85381	0.68527
919.92524	0.69158
917.99668	0.69805
916.06812	0.70493
914.13955	0.71211
912.21099	0.71988
910.28242	0.72817
908.35386	0.73648
906.42529	0.74510
904.49673	0.75453
902.56816	0.76429
900.63960	0.77435
898.71104	0.78439
896.78247	0.79346
894.85391	0.80230
892.92534	0.81146
890.99678	0.82006
889.06821	0.82908
887.13965	0.84091
885.21108	0.85523
883.28252	0.86847
881.35396	0.87924
879.42539	0.88938
877.49683	0.89969
875.56826	0.91072
873.63970	0.92208
871.71113	0.93247
869.78257	0.94293
867.85400	0.95495
865.92544	0.96813
863.99687	0.98112
862.06831	0.99253
860.13975	1.00293
858.21118	1.01445
856.28262	1.02649
854.35405	1.03848
852.42549	1.05082
850.49692	1.06176
848.56836	1.07167
846.63979	1.08299
844.71123	1.09490
842.78267	1.10552
840.85410	1.11747
838.92554	1.13221
836.99697	1.14557
835.06841	1.15532
833.13984	1.16468
831.21128	1.17717
829.28271	1.19188
827.35415	1.20280
825.42559	1.20887
823.49702	1.21963
821.56846	1.23316
819.63989	1.24185
817.71133	1.25344
815.78276	1.26999
813.85420	1.28147
811.92563	1.28831
809.99707	1.29978
808.06851	1.31743
806.13994	1.33793
804.21138	1.35250
802.28281	1.35162
800.35425	1.33134
798.42568	1.31024
796.49712	1.31799
794.56855	1.34949
792.63999	1.38157
790.71143	1.39413
788.78286	1.39610
786.85430	1.42532
784.92573	1.44237
782.99717	1.41281
781.06860	1.41872
779.14004	1.43302
777.21147	1.40361
775.28291	1.42570
773.35435	1.47844
771.42578	1.46451
769.49722	1.44609
767.56865	1.47770
765.64009	1.58314
763.71152	1.71266
761.78296	1.56736
759.85439	1.33915
757.92583	1.19590
755.99727	1.11344
754.06870	1.10123
752.14014	1.18275
750.21157	1.33261
748.28301	1.39208
746.35444	1.31104
744.42588	1.21231
742.49731	1.07319
740.56875	0.92235
738.64019	0.84300
736.71162	0.84892
734.78306	0.84933
732.85449	0.78840
730.92593	0.73002
728.99736	0.67761
727.06880	0.63117
725.14023	0.68248
723.21167	0.80225
721.28311	0.67177
719.35454	0.51616
717.42598	0.42811
715.49741	0.30763
713.56885	0.13757
711.64028	-0.15745
709.71172	-0.34685
707.78315	-0.20812
705.85459	-0.05746
703.92603	0.03351
701.99746	0.12265
700.06890	0.39241
698.14033	1.79174
696.21177	0.86231
694.28320	0.36711
692.35464	0.17358
690.42607	0.14547
688.49751	0.21754
686.56895	0.28168
684.64038	0.32444
682.71182	0.37221
680.78325	0.35744
678.85469	0.44631
676.92612	0.96409
674.99756	0.93671
673.06899	0.51005
671.14043	0.42634
669.21187	0.36024
667.28330	0.28680
665.35474	0.30655
663.42617	0.36615
661.49761	0.38052
659.56904	0.45470
657.64048	0.85956
655.71191	3.93427
653.78335	3.92270
651.85479	3.91113
649.92622	0.72255
647.99766	0.58035
646.06909	0.42162
644.14053	0.34308
642.21196	0.41768
640.28340	0.51910
638.35483	0.51971
636.42627	0.51481
634.49771	0.43302
632.56914	0.24039
630.64058	0.11229
628.71201	0.09369
626.78345	0.09126
624.85488	0.09744
622.92632	0.20107
620.99775	0.30902
619.06919	0.23936
617.14062	0.31587
615.21206	0.49626
613.28350	0.44360
611.35493	0.29428
609.42637	0.24452
607.49780	0.24641
605.56924	0.28702
603.64067	0.28194
601.71211	0.17561
599.78354	0.14130
597.85498	0.21754
595.92642	0.38055
593.99785	0.56604
592.06929	0.49129
590.14072	0.29022
588.21216	0.16547
586.28359	0.10914
584.35503	0.09939
582.42646	0.16126
580.49790	0.27996
578.56934	0.33427
576.64077	0.32821
574.71221	0.36898
572.78364	0.45153
570.85508	0.44488
568.92651	0.47662
566.99795	0.64328
565.06938	0.51685
563.14082	0.32226
561.21226	0.19479
559.28369	0.08424
557.35513	-0.00043
555.42656	-0.00032
553.49800	0.11806
551.56943	0.23601
549.64087	0.23628
547.71230	0.22591
545.78374	0.20198
543.85518	0.14494
541.92661	0.14794
539.99805	0.19250
538.06948	0.17643
536.14092	0.17220
534.21235	0.23336
532.28379	0.23047
530.35522	0.16411
528.42666	0.11650
526.49810	0.10988
524.56953	0.16163
522.64097	0.22996
520.71240	0.31467
518.78384	0.37043
516.85527	0.33225
514.92671	0.28794
512.99814	0.26244
511.06958	0.25227
509.14102	0.24759
507.21245	0.22900
505.28389	0.22907
503.35532	0.26012
501.42676	0.26295
499.49819	0.20056
