3997.91411	0.06619
3995.98555	0.06635
3994.05698	0.06647
3992.12842	0.06690
3990.19985	0.06745
3988.27129	0.06771
3986.34272	0.06778
3984.41416	0.06817
3982.48560	0.06874
3980.55703	0.06884
3978.62847	0.06854
3976.69990	0.06847
3974.77134	0.06873
3972.84277	0.06911
3970.91421	0.06940
3968.98564	0.06941
3967.05708	0.06937
3965.12852	0.06950
3963.19995	0.06959
3961.27139	0.06959
3959.34282	0.06963
3957.41426	0.06957
3955.48569	0.06931
3953.55713	0.06919
3951.62856	0.06938
3949.70000	0.06933
3947.77144	0.06905
3945.84287	0.06910
3943.91431	0.06915
3941.98574	0.06926
3940.05718	0.06964
3938.12861	0.07009
3936.20005	0.07041
3934.27148	0.07012
3932.34292	0.06940
3930.41436	0.06903
3928.48579	0.06908
3926.55723	0.06907
3924.62866	0.06905
3922.70010	0.06899
3920.77153	0.06860
3918.84297	0.06831
3916.91440	0.06862
3914.98584	0.06920
3913.05728	0.06956
3911.12871	0.06957
3909.20015	0.06930
3907.27158	0.06878
3905.34302	0.06822
3903.41445	0.06809
3901.48589	0.06820
3899.55732	0.06784
3897.62876	0.06778
3895.70020	0.06826
3893.77163	0.06845
3891.84307	0.06831
3889.91450	0.06819
3887.98594	0.06770
3886.05737	0.06701
3884.12881	0.06695
3882.20024	0.06736
3880.27168	0.06788
3878.34312	0.06899
3876.41455	0.06947
3874.48599	0.06879
3872.55742	0.06812
3870.62886	0.06789
3868.70029	0.06796
3866.77173	0.06836
3864.84316	0.06871
3862.91460	0.06920
3860.98604	0.07037
3859.05747	0.07124
3857.12891	0.07080
3855.20034	0.06950
3853.27178	0.06876
3851.34321	0.07051
3849.41465	0.07284
3847.48608	0.07434
3845.55752	0.07521
3843.62896	0.07518
3841.70039	0.07421
3839.77183	0.07317
3837.84326	0.07346
3835.91470	0.07494
3833.98613	0.07609
3832.05757	0.07724
3830.12900	0.07884
3828.20044	0.08004
3826.27187	0.08064
3824.34331	0.08065
3822.41475	0.07996
3820.48618	0.08007
3818.55762	0.08193
3816.62905	0.08368
3814.70049	0.08539
3812.77192	0.08725
3810.84336	0.08854
3808.91479	0.08912
3806.98623	0.08953
3805.05767	0.09043
3803.12910	0.09095
3801.20054	0.09133
3799.27197	0.09296
3797.34341	0.09481
3795.41484	0.09684
3793.48628	0.09904
3791.55771	0.10060
3789.62915	0.10190
3787.70059	0.10314
3785.77202	0.10417
3783.84346	0.10547
3781.91489	0.10712
3779.98633	0.10846
3778.05776	0.11001
3776.12920	0.11208
3774.20063	0.11389
3772.27207	0.11513
3770.34351	0.11617
3768.41494	0.11750
3766.48638	0.11897
3764.55781	0.12108
3762.62925	0.12387
3760.70068	0.12615
3758.77212	0.12800
3756.84355	0.13026
3754.91499	0.13227
3752.98643	0.13347
3751.05786	0.13465
3749.12930	0.13740
3747.20073	0.14040
3745.27217	0.14264
3743.34360	0.14671
3741.41504	0.15163
3739.48647	0.15445
3737.55791	0.15632
3735.62935	0.15920
3733.70078	0.16489
3731.77222	0.17217
3729.84365	0.17869
3727.91509	0.18380
3725.98652	0.18878
3724.05796	0.19489
3722.12939	0.20178
3720.20083	0.20944
3718.27227	0.21788
3716.34370	0.22637
3714.41514	0.23383
3712.48657	0.24112
3710.55801	0.25218
3708.62944	0.26752
3706.70088	0.28160
3704.77231	0.29398
3702.84375	0.30735
3700.91519	0.32467
3698.98662	0.34408
3697.05806	0.36209
3695.12949	0.38037
3693.20093	0.39895
3691.27236	0.41826
3689.34380	0.44480
3687.41523	0.48149
3685.48667	0.51482
3683.55811	0.54274
3681.62954	0.57147
3679.70098	0.60250
3677.77241	0.63393
3675.84385	0.67124
3673.91528	0.72481
3671.98672	0.76926
3670.05815	0.80832
3668.12959	0.86466
3666.20103	0.91641
3664.27246	0.95783
3662.34390	1.00145
3660.41533	1.04883
3658.48677	1.09510
3656.55820	1.14368
3654.62964	1.19899
3652.70107	1.24505
3650.77251	1.28197
3648.84395	1.33420
3646.91538	1.40698
3644.98682	1.46222
3643.05825	1.50249
3641.12969	1.54263
3639.20112	1.58687
3637.27256	1.63137
3635.34399	1.67481
3633.41543	1.71806
3631.48687	1.75712
3629.55830	1.79525
3627.62974	1.84902
3625.70117	1.90314
3623.77261	1.93909
3621.84404	1.97155
3619.91548	2.00796
3617.98691	2.05337
3616.05835	2.09837
3614.12979	2.13564
3612.20122	2.17526
3610.27266	2.21545
3608.34409	2.25501
3606.41553	2.29778
3604.48696	2.33883
3602.55840	2.37475
3600.62983	2.41174
3598.70127	2.45152
3596.77271	2.49124
3594.84414	2.53397
3592.91558	2.57880
3590.98701	2.61738
3589.05845	2.65050
3587.12988	2.69259
3585.20132	2.74305
3583.27275	2.78633
3581.34419	2.82531
3579.41562	2.86649
3577.48706	2.90971
3575.55850	2.95335
3573.62993	2.99737
3571.70137	3.03914
3569.77280	3.07828
3567.84424	3.11720
3565.91567	3.16487
3563.98711	3.21736
3562.05854	3.26167
3560.12998	3.30315
3558.20142	3.34786
3556.27285	3.39438
3554.34429	3.43849
3552.41572	3.48371
3550.48716	3.53337
3548.55859	3.58265
3546.63003	3.62845
3544.70146	3.67397
3542.77290	3.72009
3540.84434	3.76716
3538.91577	3.81521
3536.98721	3.86187
3535.05864	3.90907
3533.13008	3.95518
3531.20151	3.99978
3529.27295	4.04759
3527.34438	4.09959
3525.41582	4.14874
3523.48726	4.19472
3521.55869	4.24595
3519.63013	4.30081
3517.70156	4.35279
3515.77300	4.39967
3513.84443	4.44503
3511.91587	4.49087
3509.98730	4.53666
3508.05874	4.58237
3506.13018	4.62698
3504.20161	4.66934
3502.27305	4.71232
3500.34448	4.76204
3498.41592	4.81342
3496.48735	4.86515
3494.55879	4.92211
3492.63022	4.97479
3490.70166	5.01971
3488.77310	5.06820
3486.84453	5.11932
3484.91597	5.16247
3482.98740	5.19708
3481.05884	5.23602
3479.13027	5.29139
3477.20171	5.35583
3475.27314	5.41355
3473.34458	5.46121
3471.41602	5.50448
3469.48745	5.55094
3467.55889	5.60335
3465.63032	5.65529
3463.70176	5.70923
3461.77319	5.76672
3459.84463	5.81692
3457.91606	5.86189
3455.98750	5.91809
3454.05894	5.97934
3452.13037	6.02809
3450.20181	6.06820
3448.27324	6.10833
3446.34468	6.15853
3444.41611	6.22248
3442.48755	6.28893
3440.55898	6.33485
3438.63042	6.35088
3436.70186	6.36407
3434.77329	6.40920
3432.84473	6.48158
3430.91616	6.54478
3428.98760	6.58477
3427.05903	6.60681
3425.13047	6.63626
3423.20190	6.69559
3421.27334	6.76889
3419.34478	6.81983
3417.41621	6.86000
3415.48765	6.91762
3413.55908	6.97561
3411.63052	7.01751
3409.70195	7.05722
3407.77339	7.12317
3405.84482	7.18724
3403.91626	7.21528
3401.98770	7.21704
3400.05913	7.22206
3398.13057	7.25716
3396.20200	7.33814
3394.27344	7.45412
3392.34487	7.53391
3390.41631	7.55642
3388.48774	7.56515
3386.55918	7.61032
3384.63062	7.66422
3382.70205	7.69358
3380.77349	7.72951
3378.84492	7.75303
3376.91636	7.76015
3374.98779	7.78828
3373.05923	7.85671
3371.13066	7.89753
3369.20210	7.89261
3367.27354	7.91172
3365.34497	7.95490
3363.41641	7.95104
3361.48784	7.89495
3359.55928	7.87414
3357.63071	7.89252
3355.70215	7.91189
3353.77358	7.95068
3351.84502	8.02698
3349.91646	8.06708
3347.98789	8.03058
3346.05933	7.97713
3344.13076	7.94878
3342.20220	7.95267
3340.27363	7.99943
3338.34507	8.07571
3336.41650	8.12035
3334.48794	8.15454
3332.55937	8.19036
3330.63081	8.20324
3328.70225	8.19967
3326.77368	8.18635
3324.84512	8.14509
3322.91655	8.10578
3320.98799	8.13242
3319.05942	8.14682
3317.13086	8.10886
3315.20229	8.10534
3313.27373	8.18515
3311.34517	8.27536
3309.41660	8.29442
3307.48804	8.28001
3305.55947	8.24971
3303.63091	8.18231
3301.70234	8.11333
3299.77378	8.08275
3297.84521	8.07333
3295.91665	8.11819
3293.98809	8.22274
3292.05952	8.31434
3290.13096	8.27938
3288.20239	8.16050
3286.27383	8.13997
3284.34526	8.21200
3282.41670	8.28955
3280.48813	8.34685
3278.55957	8.39463
3276.63101	8.38340
3274.70244	8.35162
3272.77388	8.41430
3270.84531	8.49147
3268.91675	8.47835
3266.98818	8.41515
3265.05962	8.33499
3263.13105	8.24722
3261.20249	8.22037
3259.27393	8.24657
3257.34536	8.25432
3255.41680	8.20098
3253.48823	8.11514
3251.55967	8.07909
3249.63110	8.08866
3247.70254	8.07493
3245.77397	8.00748
3243.84541	7.97070
3241.91685	8.02523
3239.98828	8.07966
3238.05972	8.08502
3236.13115	8.14704
3234.20259	8.25232
3232.27402	8.27052
3230.34546	8.23115
3228.41689	8.20730
3226.48833	8.16779
3224.55977	8.07912
3222.63120	8.01090
3220.70264	7.99727
3218.77407	8.00580
3216.84551	8.02543
3214.91694	8.00472
3212.98838	7.92817
3211.05981	7.89046
3209.13125	7.91127
3207.20269	7.91989
3205.27412	7.89400
3203.34556	7.84188
3201.41699	7.79569
3199.48843	7.79009
3197.55986	7.77597
3195.63130	7.69884
3193.70273	7.61763
3191.77417	7.58273
3189.84561	7.56339
3187.91704	7.55638
3185.98848	7.57179
3184.05991	7.56562
3182.13135	7.50846
3180.20278	7.42911
3178.27422	7.35456
3176.34565	7.25533
3174.41709	7.14292
3172.48853	7.08768
3170.55996	7.05984
3168.63140	7.00759
3166.70283	6.93723
3164.77427	6.85466
3162.84570	6.80049
3160.91714	6.78082
3158.98857	6.74336
3157.06001	6.67704
3155.13145	6.60210
3153.20288	6.51675
3151.27432	6.42812
3149.34575	6.35524
3147.41719	6.30477
3145.48862	6.26457
3143.56006	6.20479
3141.63149	6.11977
3139.70293	6.02593
3137.77437	5.93879
3135.84580	5.86036
3133.91724	5.78039
3131.98867	5.70323
3130.06011	5.64147
3128.13154	5.59133
3126.20298	5.53772
3124.27441	5.47454
3122.34585	5.40092
3120.41729	5.32347
3118.48872	5.24598
3116.56016	5.16306
3114.63159	5.08437
3112.70303	5.01828
3110.77446	4.95672
3108.84590	4.89328
3106.91733	4.82498
3104.98877	4.75240
3103.06021	4.68264
3101.13164	4.61562
3099.20308	4.54725
3097.27451	4.47923
3095.34595	4.41222
3093.41738	4.34524
3091.48882	4.27993
3089.56025	4.21751
3087.63169	4.15574
3085.70312	4.09477
3083.77456	4.03622
3081.84600	3.97713
3079.91743	3.91466
3077.98887	3.85090
3076.06030	3.78965
3074.13174	3.73127
3072.20317	3.67319
3070.27461	3.61452
3068.34604	3.55795
3066.41748	3.50352
3064.48892	3.44864
3062.56035	3.39462
3060.63179	3.34127
3058.70322	3.28559
3056.77466	3.22990
3054.84609	3.17707
3052.91753	3.12554
3050.98896	3.07458
3049.06040	3.02443
3047.13184	2.97402
3045.20327	2.92366
3043.27471	2.87501
3041.34614	2.82761
3039.41758	2.78045
3037.48901	2.73429
3035.56045	2.68913
3033.63188	2.64388
3031.70332	2.59823
3029.77476	2.55269
3027.84619	2.50825
3025.91763	2.46510
3023.98906	2.42228
3022.06050	2.38000
3020.13193	2.33914
3018.20337	2.29879
3016.27480	2.25784
3014.34624	2.21703
3012.41768	2.17777
3010.48911	2.14047
3008.56055	2.10427
3006.63198	2.06884
3004.70342	2.03394
3002.77485	1.99867
3000.84629	1.96341
2998.91772	1.92918
2996.98916	1.89604
2995.06060	1.86391
2993.13203	1.83242
2991.20347	1.80080
2989.27490	1.76919
2987.34634	1.73849
2985.41777	1.70877
2983.48921	1.67958
2981.56064	1.65099
2979.63208	1.62302
2977.70352	1.59539
2975.77495	1.56816
2973.84639	1.54164
2971.91782	1.51584
2969.98926	1.49024
2968.06069	1.46457
2966.13213	1.43905
2964.20356	1.41395
2962.27500	1.38936
2960.34644	1.36488
2958.41787	1.34057
2956.48931	1.31683
2954.56074	1.29317
2952.63218	1.26950
2950.70361	1.24635
2948.77505	1.22391
2946.84648	1.20193
2944.91792	1.17993
2942.98936	1.15812
2941.06079	1.13714
2939.13223	1.11670
2937.20366	1.09663
2935.27510	1.07703
2933.34653	1.05725
2931.41797	1.03721
2929.48940	1.01784
2927.56084	0.99932
2925.63228	0.98099
2923.70371	0.96284
2921.77515	0.94528
2919.84658	0.92817
2917.91802	0.91126
2915.98945	0.89480
2914.06089	0.87886
2912.13232	0.86309
2910.20376	0.84749
2908.27520	0.83240
2906.34663	0.81793
2904.41807	0.80395
2902.48950	0.79054
2900.56094	0.77734
2898.63237	0.76399
2896.70381	0.75080
2894.77524	0.73789
2892.84668	0.72518
2890.91812	0.71297
2888.98955	0.70136
2887.06099	0.69016
2885.13242	0.67918
2883.20386	0.66856
2881.27529	0.65855
2879.34673	0.64864
2877.41816	0.63829
2875.48960	0.62806
2873.56104	0.61790
2871.63247	0.60713
2869.70391	0.59601
2867.77534	0.58503
2865.84678	0.57415
2863.91821	0.56340
2861.98965	0.55321
2860.06108	0.54347
2858.13252	0.53379
2856.20396	0.52433
2854.27539	0.51504
2852.34683	0.50596
2850.41826	0.49737
2848.48970	0.48894
2846.56113	0.48044
2844.63257	0.47267
2842.70400	0.46610
2840.77544	0.46021
2838.84687	0.45430
2836.91831	0.44825
2834.98975	0.44240
2833.06118	0.43669
2831.13262	0.43090
2829.20405	0.42508
2827.27549	0.41919
2825.34692	0.41315
2823.41836	0.40700
2821.48979	0.40096
2819.56123	0.39518
2817.63267	0.38955
2815.70410	0.38398
2813.77554	0.37851
2811.84697	0.37307
2809.91841	0.36764
2807.98984	0.36232
2806.06128	0.35719
2804.13271	0.35212
2802.20415	0.34702
2800.27559	0.34203
2798.34702	0.33721
2796.41846	0.33238
2794.48989	0.32765
2792.56133	0.32322
2790.63276	0.31884
2788.70420	0.31432
2786.77563	0.30996
2784.84707	0.30582
2782.91851	0.30167
2780.98994	0.29748
2779.06138	0.29341
2777.13281	0.28953
2775.20425	0.28578
2773.27568	0.28212
2771.34712	0.27847
2769.41855	0.27473
2767.48999	0.27098
2765.56143	0.26748
2763.63286	0.26427
2761.70430	0.26112
2759.77573	0.25797
2757.84717	0.25493
2755.91860	0.25186
2753.99004	0.24864
2752.06147	0.24546
2750.13291	0.24253
2748.20435	0.23983
2746.27578	0.23721
2744.34722	0.23465
2742.41865	0.23206
2740.49009	0.22939
2738.56152	0.22665
2736.63296	0.22398
2734.70439	0.22157
2732.77583	0.21931
2730.84727	0.21701
2728.91870	0.21472
2726.99014	0.21245
2725.06157	0.21026
2723.13301	0.20828
2721.20444	0.20631
2719.27588	0.20422
2717.34731	0.20219
2715.41875	0.20021
2713.49019	0.19829
2711.56162	0.19658
2709.63306	0.19500
2707.70449	0.19337
2705.77593	0.19164
2703.84736	0.19000
2701.91880	0.18856
2699.99023	0.18713
2698.06167	0.18556
2696.13311	0.18408
2694.20454	0.18279
2692.27598	0.18148
2690.34741	0.18007
2688.41885	0.17870
2686.49028	0.17750
2684.56172	0.17640
2682.63315	0.17537
2680.70459	0.17433
2678.77603	0.17314
2676.84746	0.17183
2674.91890	0.17061
2672.99033	0.16948
2671.06177	0.16838
2669.13320	0.16740
2667.20464	0.16647
2665.27607	0.16549
2663.34751	0.16468
2661.41895	0.16401
2659.49038	0.16321
2657.56182	0.16234
2655.63325	0.16164
2653.70469	0.16112
2651.77612	0.16058
2649.84756	0.15991
2647.91899	0.15914
2645.99043	0.15847
2644.06187	0.15803
2642.13330	0.15769
2640.20474	0.15727
2638.27617	0.15677
2636.34761	0.15620
2634.41904	0.15569
2632.49048	0.15525
2630.56191	0.15480
2628.63335	0.15438
2626.70479	0.15405
2624.77622	0.15376
2622.84766	0.15350
2620.91909	0.15332
2618.99053	0.15323
2617.06196	0.15307
2615.13340	0.15289
2613.20483	0.15280
2611.27627	0.15273
2609.34771	0.15267
2607.41914	0.15262
2605.49058	0.15257
2603.56201	0.15256
2601.63345	0.15260
2599.70488	0.15263
2597.77632	0.15266
2595.84775	0.15271
2593.91919	0.15274
2591.99062	0.15273
2590.06206	0.15284
2588.13350	0.15302
2586.20493	0.15322
2584.27637	0.15351
2582.34780	0.15382
2580.41924	0.15408
2578.49067	0.15434
2576.56211	0.15465
2574.63354	0.15495
2572.70498	0.15525
2570.77642	0.15551
2568.84785	0.15576
2566.91929	0.15618
2564.99072	0.15673
2563.06216	0.15720
2561.13359	0.15758
2559.20503	0.15796
2557.27646	0.15844
2555.34790	0.15902
2553.41934	0.15957
2551.49077	0.16006
2549.56221	0.16064
2547.63364	0.16129
2545.70508	0.16193
2543.77651	0.16252
2541.84795	0.16303
2539.91938	0.16354
2537.99082	0.16419
2536.06226	0.16489
2534.13369	0.16557
2532.20513	0.16633
2530.27656	0.16714
2528.34800	0.16792
2526.41943	0.16865
2524.49087	0.16940
2522.56230	0.17021
2520.63374	0.17096
2518.70518	0.17164
2516.77661	0.17237
2514.84805	0.17316
2512.91948	0.17398
2510.99092	0.17483
2509.06235	0.17563
2507.13379	0.17643
2505.20522	0.17732
2503.27666	0.17820
2501.34810	0.17898
2499.41953	0.17968
2497.49097	0.18044
2495.56240	0.18139
2493.63384	0.18242
2491.70527	0.18339
2489.77671	0.18429
2487.84814	0.18513
2485.91958	0.18600
2483.99102	0.18687
2482.06245	0.18773
2480.13389	0.18859
2478.20532	0.18945
2476.27676	0.19037
2474.34819	0.19139
2472.41963	0.19233
2470.49106	0.19315
2468.56250	0.19402
2466.63394	0.19495
2464.70537	0.19591
2462.77681	0.19692
2460.84824	0.19790
2458.91968	0.19879
2456.99111	0.19967
2455.06255	0.20056
2453.13398	0.20156
2451.20542	0.20274
2449.27686	0.20396
2447.34829	0.20506
2445.41973	0.20599
2443.49116	0.20677
2441.56260	0.20760
2439.63403	0.20867
2437.70547	0.20986
2435.77690	0.21096
2433.84834	0.21198
2431.91978	0.21303
2429.99121	0.21407
2428.06265	0.21517
2426.13408	0.21639
2424.20552	0.21761
2422.27695	0.21872
2420.34839	0.21977
2418.41982	0.22082
2416.49126	0.22190
2414.56270	0.22302
2412.63413	0.22410
2410.70557	0.22516
2408.77700	0.22637
2406.84844	0.22770
2404.91987	0.22903
2402.99131	0.23027
2401.06274	0.23146
2399.13418	0.23279
2397.20562	0.23419
2395.27705	0.23542
2393.34849	0.23653
2391.41992	0.23772
2389.49136	0.23893
2387.56279	0.24005
2385.63423	0.24105
2383.70566	0.24190
2381.77710	0.24262
2379.84854	0.24340
2377.91997	0.24432
2375.99141	0.24521
2374.06284	0.24593
2372.13428	0.24646
2370.20571	0.24717
2368.27715	0.24845
2366.34858	0.24941
2364.42002	0.24861
2362.49146	0.24711
2360.56289	0.24797
2358.63433	0.25076
2356.70576	0.25298
2354.77720	0.25578
2352.84863	0.26023
2350.92007	0.26386
2348.99150	0.26537
2347.06294	0.26573
2345.13437	0.26610
2343.20581	0.26730
2341.27725	0.26927
2339.34868	0.27098
2337.42012	0.27189
2335.49155	0.27301
2333.56299	0.27474
2331.63442	0.27674
2329.70586	0.27924
2327.77729	0.28209
2325.84873	0.28438
2323.92017	0.28611
2321.99160	0.28796
2320.06304	0.29009
2318.13447	0.29231
2316.20591	0.29441
2314.27734	0.29639
2312.34878	0.29845
2310.42021	0.30070
2308.49165	0.30292
2306.56309	0.30490
2304.63452	0.30671
2302.70596	0.30863
2300.77739	0.31078
2298.84883	0.31286
2296.92026	0.31481
2294.99170	0.31687
2293.06313	0.31899
2291.13457	0.32109
2289.20601	0.32318
2287.27744	0.32521
2285.34888	0.32728
2283.42031	0.32941
2281.49175	0.33145
2279.56318	0.33336
2277.63462	0.33524
2275.70605	0.33722
2273.77749	0.33935
2271.84893	0.34153
2269.92036	0.34360
2267.99180	0.34560
2266.06323	0.34772
2264.13467	0.34999
2262.20610	0.35229
2260.27754	0.35447
2258.34897	0.35667
2256.42041	0.35892
2254.49185	0.36098
2252.56328	0.36298
2250.63472	0.36518
2248.70615	0.36748
2246.77759	0.36970
2244.84902	0.37187
2242.92046	0.37409
2240.99189	0.37646
2239.06333	0.37884
2237.13477	0.38107
2235.20620	0.38320
2233.27764	0.38543
2231.34907	0.38781
2229.42051	0.39017
2227.49194	0.39244
2225.56338	0.39464
2223.63481	0.39686
2221.70625	0.39918
2219.77769	0.40151
2217.84912	0.40367
2215.92056	0.40574
2213.99199	0.40790
2212.06343	0.41010
2210.13486	0.41223
2208.20630	0.41429
2206.27773	0.41636
2204.34917	0.41851
2202.42061	0.42073
2200.49204	0.42288
2198.56348	0.42491
2196.63491	0.42695
2194.70635	0.42901
2192.77778	0.43092
2190.84922	0.43264
2188.92065	0.43438
2186.99209	0.43624
2185.06353	0.43815
2183.13496	0.43996
2181.20640	0.44174
2179.27783	0.44347
2177.34927	0.44507
2175.42070	0.44658
2173.49214	0.44810
2171.56357	0.44966
2169.63501	0.45121
2167.70645	0.45267
2165.77788	0.45400
2163.84932	0.45520
2161.92075	0.45629
2159.99219	0.45726
2158.06362	0.45812
2156.13506	0.45898
2154.20649	0.45991
2152.27793	0.46079
2150.34937	0.46165
2148.42080	0.46246
2146.49224	0.46307
2144.56367	0.46345
2142.63511	0.46389
2140.70654	0.46436
2138.77798	0.46460
2136.84941	0.46465
2134.92085	0.46471
2132.99229	0.46485
2131.06372	0.46496
2129.13516	0.46491
2127.20659	0.46472
2125.27803	0.46444
2123.34946	0.46405
2121.42090	0.46356
2119.49233	0.46299
2117.56377	0.46232
2115.63521	0.46150
2113.70664	0.46061
2111.77808	0.45975
2109.84951	0.45894
2107.92095	0.45809
2105.99238	0.45705
2104.06382	0.45584
2102.13525	0.45456
2100.20669	0.45321
2098.27812	0.45177
2096.34956	0.45027
2094.42100	0.44872
2092.49243	0.44710
2090.56387	0.44540
2088.63530	0.44369
2086.70674	0.44199
2084.77817	0.44015
2082.84961	0.43816
2080.92104	0.43615
2078.99248	0.43420
2077.06392	0.43219
2075.13535	0.43005
2073.20679	0.42791
2071.27822	0.42576
2069.34966	0.42352
2067.42109	0.42120
2065.49253	0.41875
2063.56396	0.41622
2061.63540	0.41375
2059.70684	0.41137
2057.77827	0.40896
2055.84971	0.40645
2053.92114	0.40397
2051.99258	0.40152
2050.06401	0.39892
2048.13545	0.39616
2046.20688	0.39335
2044.27832	0.39053
2042.34976	0.38770
2040.42119	0.38493
2038.49263	0.38223
2036.56406	0.37951
2034.63550	0.37675
2032.70693	0.37396
2030.77837	0.37122
2028.84980	0.36847
2026.92124	0.36566
2024.99268	0.36280
2023.06411	0.35993
2021.13555	0.35700
2019.20698	0.35404
2017.27842	0.35121
2015.34985	0.34850
2013.42129	0.34584
2011.49272	0.34315
2009.56416	0.34040
2007.63560	0.33762
2005.70703	0.33491
2003.77847	0.33223
2001.84990	0.32955
1999.92134	0.32693
1997.99277	0.32431
1996.06421	0.32158
1994.13564	0.31885
1992.20708	0.31618
1990.27852	0.31365
1988.34995	0.31131
1986.42139	0.30899
1984.49282	0.30658
1982.56426	0.30407
1980.63569	0.30161
1978.70713	0.29928
1976.77856	0.29698
1974.85000	0.29470
1972.92144	0.29246
1970.99287	0.29032
1969.06431	0.28818
1967.13574	0.28596
1965.20718	0.28384
1963.27861	0.28194
1961.35005	0.28007
1959.42148	0.27814
1957.49292	0.27619
1955.56436	0.27430
1953.63579	0.27259
1951.70723	0.27093
1949.77866	0.26921
1947.85010	0.26744
1945.92153	0.26571
1943.99297	0.26405
1942.06440	0.26253
1940.13584	0.26119
1938.20728	0.25988
1936.27871	0.25853
1934.35015	0.25718
1932.42158	0.25591
1930.49302	0.25474
1928.56445	0.25365
1926.63589	0.25249
1924.70732	0.25124
1922.77876	0.25002
1920.85020	0.24894
1918.92163	0.24796
1916.99307	0.24712
1915.06450	0.24649
1913.13594	0.24580
1911.20737	0.24491
1909.27881	0.24402
1907.35024	0.24334
1905.42168	0.24278
1903.49312	0.24225
1901.56455	0.24172
1899.63599	0.24120
1897.70742	0.24068
1895.77886	0.24013
1893.85029	0.23969
1891.92173	0.23938
1889.99316	0.23908
1888.06460	0.23882
1886.13604	0.23866
1884.20747	0.23848
1882.27891	0.23825
1880.35034	0.23811
1878.42178	0.23809
1876.49321	0.23811
1874.56465	0.23805
1872.63608	0.23798
1870.70752	0.23778
1868.77896	0.23765
1866.85039	0.23796
1864.92183	0.23845
1862.99326	0.23880
1861.06470	0.23902
1859.13613	0.23933
1857.20757	0.23974
1855.27900	0.24026
1853.35044	0.24075
1851.42187	0.24122
1849.49331	0.24165
1847.56475	0.24201
1845.63618	0.24241
1843.70762	0.24323
1841.77905	0.24444
1839.85049	0.24529
1837.92192	0.24607
1835.99336	0.24700
1834.06479	0.24800
1832.13623	0.24870
1830.20767	0.24941
1828.27910	0.25066
1826.35054	0.25206
1824.42197	0.25363
1822.49341	0.25524
1820.56484	0.25672
1818.63628	0.25817
1816.70771	0.25984
1814.77915	0.26145
1812.85059	0.26291
1810.92202	0.26460
1808.99346	0.26674
1807.06489	0.26894
1805.13633	0.27092
1803.20776	0.27297
1801.27920	0.27523
1799.35063	0.27794
1797.42207	0.28056
1795.49351	0.28286
1793.56494	0.28521
1791.63638	0.28866
1789.70781	0.29281
1787.77925	0.29599
1785.85068	0.29908
1783.92212	0.30255
1781.99355	0.30628
1780.06499	0.31041
1778.13643	0.31489
1776.20786	0.31882
1774.27930	0.32244
1772.35073	0.32755
1770.42217	0.33430
1768.49360	0.34057
1766.56504	0.34631
1764.63647	0.35165
1762.70791	0.35714
1760.77935	0.36444
1758.85078	0.37168
1756.92222	0.37891
1754.99365	0.38684
1753.06509	0.39371
1751.13652	0.40122
1749.20796	0.41106
1747.27939	0.42162
1745.35083	0.43118
1743.42227	0.44107
1741.49370	0.45162
1739.56514	0.46406
1737.63657	0.47675
1735.70801	0.48736
1733.77944	0.50322
1731.85088	0.52352
1729.92231	0.53986
1727.99375	0.55616
1726.06519	0.57327
1724.13662	0.59176
1722.20806	0.61172
1720.27949	0.62950
1718.35093	0.64942
1716.42236	0.68085
1714.49380	0.71298
1712.56523	0.73888
1710.63667	0.76315
1708.70811	0.78853
1706.77954	0.81692
1704.85098	0.85144
1702.92241	0.88244
1700.99385	0.91199
1699.06528	0.95704
1697.13672	1.00024
1695.20815	1.04548
1693.27959	1.08866
1691.35103	1.12221
1689.42246	1.16084
1687.49390	1.20162
1685.56533	1.23953
1683.63677	1.30027
1681.70820	1.36748
1679.77964	1.40997
1677.85107	1.44906
1675.92251	1.49312
1673.99395	1.54892
1672.06538	1.59920
1670.13682	1.64816
1668.20825	1.71355
1666.27969	1.76563
1664.35112	1.80807
1662.42256	1.86235
1660.49399	1.92677
1658.56543	1.97660
1656.63687	2.01525
1654.70830	2.04817
1652.77974	2.10257
1650.85117	2.16141
1648.92261	2.18327
1646.99404	2.21088
1645.06548	2.24106
1643.13691	2.26115
1641.20835	2.27381
1639.27979	2.28635
1637.35122	2.29487
1635.42266	2.29605
1633.49409	2.28715
1631.56553	2.27151
1629.63696	2.25423
1627.70840	2.22726
1625.77983	2.19662
1623.85127	2.15651
1621.92271	2.10753
1619.99414	2.06551
1618.06558	2.02353
1616.13701	1.96056
1614.20845	1.89675
1612.27988	1.84891
1610.35132	1.79792
1608.42275	1.74256
1606.49419	1.68909
1604.56562	1.64012
1602.63706	1.59174
1600.70850	1.54446
1598.77993	1.50165
1596.85137	1.46089
1594.92280	1.42054
1592.99424	1.38172
1591.06567	1.34655
1589.13711	1.31371
1587.20854	1.28311
1585.27998	1.25449
1583.35142	1.22781
1581.42285	1.20367
1579.49429	1.18257
1577.56572	1.16293
1575.63716	1.13964
1573.70859	1.12067
1571.78003	1.10837
1569.85146	1.09438
1567.92290	1.07887
1565.99434	1.06776
1564.06577	1.05894
1562.13721	1.05150
1560.20864	1.04533
1558.28008	1.03775
1556.35151	1.03403
1554.42295	1.03217
1552.49438	1.02959
1550.56582	1.02569
1548.63726	1.01991
1546.70869	1.01252
1544.78013	1.00245
1542.85156	0.98953
1540.92300	0.97268
1538.99443	0.94886
1537.06587	0.93268
1535.13730	0.92136
1533.20874	0.90589
1531.28018	0.88988
1529.35161	0.87825
1527.42305	0.86649
1525.49448	0.85388
1523.56592	0.84293
1521.63735	0.83257
1519.70879	0.82287
1517.78022	0.81498
1515.85166	0.80598
1513.92310	0.79670
1511.99453	0.78807
1510.06597	0.77950
1508.13740	0.77075
1506.20884	0.75885
1504.28027	0.75057
1502.35171	0.74581
1500.42314	0.74077
1498.49458	0.73504
1496.56602	0.72872
1494.63745	0.72297
1492.70889	0.71827
1490.78032	0.71343
1488.85176	0.70804
1486.92319	0.70408
1484.99463	0.70132
1483.06606	0.69877
1481.13750	0.69632
1479.20894	0.69425
1477.28037	0.69250
1475.35181	0.69075
1473.42324	0.68922
1471.49468	0.68798
1469.56611	0.68650
1467.63755	0.68435
1465.70898	0.68183
1463.78042	0.67988
1461.85186	0.67881
1459.92329	0.67775
1457.99473	0.67627
1456.06616	0.67479
1454.13760	0.67325
1452.20903	0.67116
1450.28047	0.66862
1448.35190	0.66592
1446.42334	0.66324
1444.49478	0.66096
1442.56621	0.65895
1440.63765	0.65668
1438.70908	0.65398
1436.78052	0.65070
1434.85195	0.64760
1432.92339	0.64546
1430.99482	0.64390
1429.06626	0.64296
1427.13770	0.64262
1425.20913	0.64251
1423.28057	0.64265
1421.35200	0.64287
1419.42344	0.64279
1417.49487	0.64230
1415.56631	0.64139
1413.63774	0.64047
1411.70918	0.63995
1409.78062	0.63994
1407.85205	0.64009
1405.92349	0.64018
1403.99492	0.64022
1402.06636	0.63985
1400.13779	0.63875
1398.20923	0.63688
1396.28066	0.63453
1394.35210	0.63179
1392.42354	0.62887
1390.49497	0.62585
1388.56641	0.62237
1386.63784	0.61853
1384.70928	0.61501
1382.78071	0.61178
1380.85215	0.60847
1378.92358	0.60542
1376.99502	0.60291
1375.06646	0.60100
1373.13789	0.59986
1371.20933	0.59926
1369.28076	0.59862
1367.35220	0.59762
1365.42363	0.59619
1363.49507	0.59454
1361.56650	0.59309
1359.63794	0.59199
1357.70937	0.59098
1355.78081	0.58994
1353.85225	0.58897
1351.92368	0.58812
1349.99512	0.58732
1348.06655	0.58656
1346.13799	0.58584
1344.20942	0.58503
1342.28086	0.58404
1340.35229	0.58303
1338.42373	0.58221
1336.49517	0.58158
1334.56660	0.58114
1332.63804	0.58091
1330.70947	0.58083
1328.78091	0.58089
1326.85234	0.58110
1324.92378	0.58134
1322.99521	0.58152
1321.06665	0.58161
1319.13809	0.58160
1317.20952	0.58152
1315.28096	0.58139
1313.35239	0.58112
1311.42383	0.58058
1309.49526	0.57978
1307.56670	0.57898
1305.63813	0.57833
1303.70957	0.57765
1301.78101	0.57671
1299.85244	0.57555
1297.92388	0.57442
1295.99531	0.57333
1294.06675	0.57211
1292.13818	0.57082
1290.20962	0.56966
1288.28105	0.56867
1286.35249	0.56775
1284.42393	0.56676
1282.49536	0.56561
1280.56680	0.56447
1278.63823	0.56337
1276.70967	0.56229
1274.78110	0.56131
1272.85254	0.56052
1270.92397	0.55994
1268.99541	0.55950
1267.06685	0.55907
1265.13828	0.55849
1263.20972	0.55768
1261.28115	0.55685
1259.35259	0.55627
1257.42402	0.55586
1255.49546	0.55552
1253.56689	0.55539
1251.63833	0.55551
1249.70977	0.55568
1247.78120	0.55567
1245.85264	0.55543
1243.92407	0.55502
1241.99551	0.55441
1240.06694	0.55341
1238.13838	0.55207
1236.20981	0.55056
1234.28125	0.54892
1232.35269	0.54725
1230.42412	0.54565
1228.49556	0.54422
1226.56699	0.54289
1224.63843	0.54149
1222.70986	0.54005
1220.78130	0.53881
1218.85273	0.53772
1216.92417	0.53670
1214.99561	0.53578
1213.06704	0.53494
1211.13848	0.53419
1209.20991	0.53356
1207.28135	0.53289
1205.35278	0.53206
1203.42422	0.53116
1201.49565	0.53026
1199.56709	0.52949
1197.63853	0.52901
1195.70996	0.52871
1193.78140	0.52829
1191.85283	0.52770
1189.92427	0.52718
1187.99570	0.52687
1186.06714	0.52666
1184.13857	0.52663
1182.21001	0.52698
1180.28145	0.52767
1178.35288	0.52853
1176.42432	0.52955
1174.49575	0.53054
1172.56719	0.53118
1170.63862	0.53149
1168.71006	0.53178
1166.78149	0.53207
1164.85293	0.53210
1162.92437	0.53197
1160.99580	0.53170
1159.06724	0.53126
1157.13867	0.53075
1155.21011	0.53001
1153.28154	0.52865
1151.35298	0.52670
1149.42441	0.52438
1147.49585	0.52187
1145.56729	0.51934
1143.63872	0.51691
1141.71016	0.51454
1139.78159	0.51224
1137.85303	0.51027
1135.92446	0.50880
1133.99590	0.50778
1132.06733	0.50716
1130.13877	0.50683
1128.21021	0.50631
1126.28164	0.50535
1124.35308	0.50425
1122.42451	0.50338
1120.49595	0.50279
1118.56738	0.50237
1116.63882	0.50219
1114.71025	0.50226
1112.78169	0.50240
1110.85312	0.50264
1108.92456	0.50319
1106.99600	0.50416
1105.06743	0.50538
1103.13887	0.50659
1101.21030	0.50795
1099.28174	0.50983
1097.35317	0.51231
1095.42461	0.51536
1093.49604	0.51890
1091.56748	0.52296
1089.63892	0.52776
1087.71035	0.53323
1085.78179	0.53918
1083.85322	0.54548
1081.92466	0.55176
1079.99609	0.55732
1078.06753	0.56087
1076.13896	0.56160
1074.21040	0.55983
1072.28184	0.55594
1070.35327	0.55025
1068.42471	0.54368
1066.49614	0.53705
1064.56758	0.53057
1062.63901	0.52466
1060.71045	0.51971
1058.78188	0.51549
1056.85332	0.51166
1054.92476	0.50806
1052.99619	0.50479
1051.06763	0.50209
1049.13906	0.50001
1047.21050	0.49848
1045.28193	0.49723
1043.35337	0.49580
1041.42480	0.49420
1039.49624	0.49295
1037.56768	0.49223
1035.63911	0.49172
1033.71055	0.49121
1031.78198	0.49086
1029.85342	0.49069
1027.92485	0.49051
1025.99629	0.49030
1024.06772	0.49038
1022.13916	0.49086
1020.21060	0.49147
1018.28203	0.49195
1016.35347	0.49231
1014.42490	0.49281
1012.49634	0.49351
1010.56777	0.49431
1008.63921	0.49543
1006.71064	0.49701
1004.78208	0.49884
1002.85352	0.50098
1000.92495	0.50363
998.99639	0.50684
997.06782	0.51051
995.13926	0.51439
993.21069	0.51820
991.28213	0.52160
989.35356	0.52411
987.42500	0.52562
985.49644	0.52643
983.56787	0.52691
981.63931	0.52749
979.71074	0.52852
977.78218	0.53022
975.85361	0.53259
973.92505	0.53543
971.99648	0.53854
970.06792	0.54183
968.13936	0.54538
966.21079	0.54929
964.28223	0.55365
962.35366	0.55866
960.42510	0.56407
958.49653	0.56950
956.56797	0.57484
954.63940	0.58027
952.71084	0.58621
950.78228	0.59266
948.85371	0.59921
946.92515	0.60563
944.99658	0.61184
943.06802	0.61789
941.13945	0.62376
939.21089	0.62964
937.28232	0.63570
935.35376	0.64156
933.42520	0.64746
931.49663	0.65368
929.56807	0.65945
927.63950	0.66456
925.71094	0.66983
923.78237	0.67591
921.85381	0.68274
919.92524	0.68976
917.99668	0.69675
916.06812	0.70394
914.13955	0.71147
912.21099	0.71954
910.28242	0.72784
908.35386	0.73585
906.42529	0.74394
904.49673	0.75231
902.56816	0.76111
900.63960	0.77031
898.71104	0.77926
896.78247	0.78845
894.85391	0.79881
892.92534	0.80968
890.99678	0.82008
889.06821	0.83063
887.13965	0.84248
885.21108	0.85432
883.28252	0.86474
881.35396	0.87464
879.42539	0.88506
877.49683	0.89632
875.56826	0.90859
873.63970	0.92204
871.71113	0.93567
869.78257	0.94743
867.85400	0.95770
865.92544	0.96891
863.99687	0.98125
862.06831	0.99317
860.13975	1.00369
858.21118	1.01350
856.28262	1.02518
854.35405	1.03905
852.42549	1.05211
850.49692	1.06309
848.56836	1.07250
846.63979	1.08173
844.71123	1.09373
842.78267	1.10801
840.85410	1.12135
838.92554	1.13407
836.99697	1.14753
835.06841	1.15933
833.13984	1.16781
831.21128	1.17609
829.28271	1.18774
827.35415	1.20063
825.42559	1.20932
823.49702	1.21715
821.56846	1.23060
819.63989	1.24631
817.71133	1.25828
815.78276	1.26741
813.85420	1.27725
811.92563	1.29103
809.99707	1.30939
808.06851	1.32386
806.13994	1.33339
804.21138	1.34443
802.28281	1.35062
800.35425	1.35770
798.42568	1.37508
796.49712	1.37696
794.56855	1.36183
792.63999	1.35776
790.71143	1.37064
788.78286	1.39743
786.85430	1.42536
784.92573	1.46228
782.99717	1.50840
781.06860	1.53511
779.14004	1.50606
777.21147	1.43652
775.28291	1.43206
773.35435	1.49725
771.42578	1.48898
769.49722	1.38605
767.56865	1.32199
765.64009	1.33229
763.71152	1.34023
761.78296	1.30105
759.85439	1.29257
757.92583	1.28893
755.99727	1.21659
754.06870	1.15964
752.14014	1.20718
750.21157	1.33181
748.28301	1.34080
746.35444	1.25102
744.42588	1.15699
742.49731	1.10803
740.56875	1.21186
738.64019	1.64246
736.71162	4.42027
734.78306	4.40870
732.85449	4.39713
730.92593	2.16059
728.99736	1.31779
727.06880	0.85078
725.14023	0.50882
723.21167	0.42513
721.28311	0.70359
719.35454	1.25346
717.42598	0.38228
715.49741	0.14759
713.56885	0.33199
711.64028	1.12357
709.71172	0.86316
707.78315	0.74923
705.85459	0.66931
703.92603	0.54087
701.99746	0.49998
700.06890	0.53693
698.14033	0.55647
696.21177	0.48652
694.28320	0.47127
692.35464	0.47951
690.42607	0.35087
688.49751	0.31447
686.56895	0.38404
684.64038	0.44807
682.71182	0.39009
680.78325	0.31559
678.85469	0.34138
676.92612	0.46272
674.99756	0.63049
673.06899	0.41100
671.14043	0.16054
669.21187	0.15273
667.28330	0.22051
665.35474	0.26950
663.42617	0.34827
661.49761	0.45396
659.56904	0.48929
657.64048	0.45581
655.71191	0.40792
653.78335	0.38417
651.85479	0.39737
649.92622	0.42584
647.99766	0.47304
646.06909	0.49510
644.14053	0.42598
642.21196	0.37575
640.28340	0.34832
638.35483	0.33000
636.42627	0.37017
634.49771	0.43835
632.56914	0.48529
630.64058	0.42418
628.71201	0.31684
626.78345	0.26183
624.85488	0.26078
622.92632	0.26587
620.99775	0.24782
619.06919	0.28423
617.14062	0.52928
615.21206	3.69127
613.28350	3.67970
611.35493	0.51350
609.42637	0.31622
607.49780	0.26759
605.56924	0.29281
603.64067	0.31859
601.71211	0.22686
599.78354	0.16374
597.85498	0.19936
595.92642	0.27127
593.99785	0.27382
592.06929	0.25822
590.14072	0.29819
588.21216	0.33147
586.28359	0.27488
584.35503	0.16870
582.42646	0.12092
580.49790	0.24358
578.56934	0.52207
576.64077	0.80034
574.71221	0.71877
572.78364	0.44775
570.85508	0.35351
568.92651	0.41169
566.99795	0.48006
565.06938	0.34643
563.14082	0.17560
561.21226	0.09910
559.28369	0.09745
557.35513	0.09276
555.42656	0.08534
553.49800	0.11311
551.56943	0.16719
549.64087	0.26015
547.71230	0.38512
545.78374	0.36279
543.85518	0.28653
541.92661	0.29599
539.99805	0.37813
538.06948	0.44966
536.14092	0.38763
534.21235	0.33454
532.28379	0.33329
530.35522	0.33165
528.42666	0.34431
526.49810	0.44413
524.56953	0.76572
522.64097	3.13585
520.71240	3.12427
518.78384	0.40114
516.85527	0.22562
514.92671	0.20438
512.99814	0.23381
511.06958	0.27460
509.14102	0.32097
507.21245	0.37202
505.28389	0.38119
503.35532	0.33889
501.42676	0.28686
499.49819	0.24566
