3997.91411	0.06957
3995.98555	0.07005
3994.05698	0.07039
3992.12842	0.07047
3990.19985	0.07056
3988.27129	0.07099
3986.34272	0.07147
3984.41416	0.07182
3982.48560	0.07211
3980.55703	0.07210
3978.62847	0.07172
3976.69990	0.07180
3974.77134	0.07258
3972.84277	0.07320
3970.91421	0.07326
3968.98564	0.07309
3967.05708	0.07293
3965.12852	0.07293
3963.19995	0.07310
3961.27139	0.07325
3959.34282	0.07343
3957.41426	0.07377
3955.48569	0.07398
3953.55713	0.07378
3951.62856	0.07339
3949.70000	0.07309
3947.77144	0.07309
3945.84287	0.07340
3943.91431	0.07366
3941.98574	0.07383
3940.05718	0.07376
3938.12861	0.07348
3936.20005	0.07347
3934.27148	0.07361
3932.34292	0.07356
3930.41436	0.07350
3928.48579	0.07351
3926.55723	0.07329
3924.62866	0.07296
3922.70010	0.07266
3920.77153	0.07237
3918.84297	0.07229
3916.91440	0.07252
3914.98584	0.07283
3913.05728	0.07309
3911.12871	0.07324
3909.20015	0.07313
3907.27158	0.07289
3905.34302	0.07280
3903.41445	0.07301
3901.48589	0.07326
3899.55732	0.07302
3897.62876	0.07281
3895.70020	0.07302
3893.77163	0.07307
3891.84307	0.07294
3889.91450	0.07293
3887.98594	0.07275
3886.05737	0.07251
3884.12881	0.07255
3882.20024	0.07270
3880.27168	0.07315
3878.34312	0.07406
3876.41455	0.07439
3874.48599	0.07390
3872.55742	0.07339
3870.62886	0.07339
3868.70029	0.07368
3866.77173	0.07393
3864.84316	0.07420
3862.91460	0.07476
3860.98604	0.07548
3859.05747	0.07592
3857.12891	0.07601
3855.20034	0.07593
3853.27178	0.07598
3851.34321	0.07700
3849.41465	0.07818
3847.48608	0.07872
3845.55752	0.07892
3843.62896	0.07896
3841.70039	0.07899
3839.77183	0.07930
3837.84326	0.07981
3835.91470	0.08035
3833.98613	0.08121
3832.05757	0.08263
3830.12900	0.08402
3828.20044	0.08469
3826.27187	0.08502
3824.34331	0.08534
3822.41475	0.08580
3820.48618	0.08709
3818.55762	0.08836
3816.62905	0.08882
3814.70049	0.08980
3812.77192	0.09118
3810.84336	0.09210
3808.91479	0.09274
3806.98623	0.09376
3805.05767	0.09529
3803.12910	0.09605
3801.20054	0.09648
3799.27197	0.09794
3797.34341	0.09952
3795.41484	0.10106
3793.48628	0.10254
3791.55771	0.10362
3789.62915	0.10476
3787.70059	0.10610
3785.77202	0.10756
3783.84346	0.10928
3781.91489	0.11110
3779.98633	0.11282
3778.05776	0.11442
3776.12920	0.11570
3774.20063	0.11715
3772.27207	0.11892
3770.34351	0.12070
3768.41494	0.12257
3766.48638	0.12425
3764.55781	0.12604
3762.62925	0.12815
3760.70068	0.13021
3758.77212	0.13248
3756.84355	0.13503
3754.91499	0.13722
3752.98643	0.13902
3751.05786	0.14108
3749.12930	0.14417
3747.20073	0.14691
3745.27217	0.14928
3743.34360	0.15374
3741.41504	0.15856
3739.48647	0.16123
3737.55791	0.16333
3735.62935	0.16680
3733.70078	0.17276
3731.77222	0.17944
3729.84365	0.18496
3727.91509	0.18930
3725.98652	0.19392
3724.05796	0.19982
3722.12939	0.20659
3720.20083	0.21411
3718.27227	0.22215
3716.34370	0.23000
3714.41514	0.23704
3712.48657	0.24478
3710.55801	0.25719
3708.62944	0.27314
3706.70088	0.28646
3704.77231	0.29787
3702.84375	0.31067
3700.91519	0.32802
3698.98662	0.34777
3697.05806	0.36590
3695.12949	0.38418
3693.20093	0.40324
3691.27236	0.42375
3689.34380	0.45114
3687.41523	0.48702
3685.48667	0.51928
3683.55811	0.54654
3681.62954	0.57496
3679.70098	0.60660
3677.77241	0.63950
3675.84385	0.67838
3673.91528	0.73266
3671.98672	0.77674
3670.05815	0.81548
3668.12959	0.87104
3666.20103	0.92157
3664.27246	0.96237
3662.34390	1.00579
3660.41533	1.05303
3658.48677	1.09957
3656.55820	1.14895
3654.62964	1.20481
3652.70107	1.25108
3650.77251	1.28905
3648.84395	1.34307
3646.91538	1.41526
3644.98682	1.46879
3643.05825	1.50893
3641.12969	1.54954
3639.20112	1.59384
3637.27256	1.63811
3635.34399	1.68145
3633.41543	1.72478
3631.48687	1.76461
3629.55830	1.80467
3627.62974	1.86007
3625.70117	1.91336
3623.77261	1.94814
3621.84404	1.98055
3619.91548	2.01760
3617.98691	2.06299
3616.05835	2.10699
3614.12979	2.14404
3612.20122	2.18429
3610.27266	2.22475
3608.34409	2.26467
3606.41553	2.30766
3604.48696	2.34741
3602.55840	2.38201
3600.62983	2.41989
3598.70127	2.46283
3596.77271	2.50510
3594.84414	2.54691
3592.91558	2.58946
3590.98701	2.62822
3589.05845	2.66317
3587.12988	2.70669
3585.20132	2.75681
3583.27275	2.79870
3581.34419	2.83620
3579.41562	2.87624
3577.48706	2.92005
3575.55850	2.96491
3573.62993	3.00908
3571.70137	3.04985
3569.77280	3.08741
3567.84424	3.12771
3565.91567	3.18134
3563.98711	3.23680
3562.05854	3.27955
3560.12998	3.31870
3558.20142	3.36086
3556.27285	3.40516
3554.34429	3.44869
3552.41572	3.49687
3550.48716	3.54956
3548.55859	3.59684
3546.63003	3.64038
3544.70146	3.68831
3542.77290	3.73656
3540.84434	3.78129
3538.91577	3.82744
3536.98721	3.87533
3535.05864	3.92334
3533.13008	3.96849
3531.20151	4.01281
3529.27295	4.06204
3527.34438	4.11340
3525.41582	4.15803
3523.48726	4.19901
3521.55869	4.24659
3519.63013	4.30066
3517.70156	4.35673
3515.77300	4.40998
3513.84443	4.45756
3511.91587	4.50209
3509.98730	4.54884
3508.05874	4.59811
3506.13018	4.64585
3504.20161	4.69231
3502.27305	4.73827
3500.34448	4.78353
3498.41592	4.83153
3496.48735	4.88681
3494.55879	4.94667
3492.63022	5.00200
3490.70166	5.05099
3488.77310	5.09771
3486.84453	5.14117
3484.91597	5.18328
3482.98740	5.23632
3481.05884	5.29738
3479.13027	5.34482
3477.20171	5.38380
3475.27314	5.42897
3473.34458	5.47983
3471.41602	5.53315
3469.48745	5.57825
3467.55889	5.61412
3465.63032	5.65528
3463.70176	5.70512
3461.77319	5.75289
3459.84463	5.80184
3457.91606	5.85564
3455.98750	5.90893
3454.05894	5.95819
3452.13037	6.00893
3450.20181	6.07377
3448.27324	6.13898
3446.34468	6.18575
3444.41611	6.22268
3442.48755	6.27388
3440.55898	6.33782
3438.63042	6.39232
3436.70186	6.42677
3434.77329	6.45046
3432.84473	6.48340
3430.91616	6.53644
3428.98760	6.61008
3427.05903	6.68453
3425.13047	6.75209
3423.20190	6.81021
3421.27334	6.85785
3419.34478	6.91272
3417.41621	6.96814
3415.48765	6.99518
3413.55908	7.01730
3411.63052	7.08488
3409.70195	7.16338
3407.77339	7.19944
3405.84482	7.20329
3403.91626	7.21136
3401.98770	7.22723
3400.05913	7.26335
3398.13057	7.33324
3396.20200	7.39440
3394.27344	7.42775
3392.34487	7.46265
3390.41631	7.52759
3388.48774	7.58542
3386.55918	7.62605
3384.63062	7.67140
3382.70205	7.70465
3380.77349	7.70231
3378.84492	7.67803
3376.91636	7.68770
3374.98779	7.71973
3373.05923	7.76373
3371.13066	7.83309
3369.20210	7.88472
3367.27354	7.89449
3365.34497	7.91631
3363.41641	7.93037
3361.48784	7.94068
3359.55928	8.03836
3357.63071	8.13387
3355.70215	8.08591
3353.77358	8.00180
3351.84502	8.04014
3349.91646	8.13324
3347.98789	8.15418
3346.05933	8.08594
3344.13076	8.00455
3342.20220	8.02642
3340.27363	8.13383
3338.34507	8.19484
3336.41650	8.18271
3334.48794	8.20975
3332.55937	8.23129
3330.63081	8.24249
3328.70225	8.33028
3326.77368	8.39146
3324.84512	8.31716
3322.91655	8.23117
3320.98799	8.29496
3319.05942	8.45569
3317.13086	8.61158
3315.20229	8.66127
3313.27373	8.54571
3311.34517	8.43281
3309.41660	8.38121
3307.48804	8.24851
3305.55947	8.09517
3303.63091	8.09340
3301.70234	8.15829
3299.77378	8.16386
3297.84521	8.17350
3295.91665	8.24804
3293.98809	8.29754
3292.05952	8.25204
3290.13096	8.18217
3288.20239	8.19369
3286.27383	8.28919
3284.34526	8.36904
3282.41670	8.41492
3280.48813	8.41143
3278.55957	8.44893
3276.63101	8.54164
3274.70244	8.46645
3272.77388	8.30420
3270.84531	8.30234
3268.91675	8.43594
3266.98818	8.55858
3265.05962	8.63666
3263.13105	8.57528
3261.20249	8.43147
3259.27393	8.33870
3257.34536	8.25734
3255.41680	8.18962
3253.48823	8.16091
3251.55967	8.13169
3249.63110	8.06137
3247.70254	8.02045
3245.77397	8.07591
3243.84541	8.19904
3241.91685	8.32726
3239.98828	8.40216
3238.05972	8.42277
3236.13115	8.39065
3234.20259	8.31280
3232.27402	8.27116
3230.34546	8.23796
3228.41689	8.11695
3226.48833	8.03304
3224.55977	8.09972
3222.63120	8.21321
3220.70264	8.20537
3218.77407	8.08010
3216.84551	8.02483
3214.91694	8.10421
3212.98838	8.18287
3211.05981	8.14396
3209.13125	8.00474
3207.20269	7.88107
3205.27412	7.82879
3203.34556	7.77290
3201.41699	7.69350
3199.48843	7.66121
3197.55986	7.69679
3195.63130	7.72689
3193.70273	7.69412
3191.77417	7.63964
3189.84561	7.59884
3187.91704	7.56709
3185.98848	7.55008
3184.05991	7.53369
3182.13135	7.50112
3180.20278	7.46302
3178.27422	7.39447
3176.34565	7.29470
3174.41709	7.19571
3172.48853	7.09233
3170.55996	7.00476
3168.63140	6.98335
3166.70283	6.98453
3164.77427	6.91369
3162.84570	6.80807
3160.91714	6.73783
3158.98857	6.68820
3157.06001	6.63912
3155.13145	6.60262
3153.20288	6.55769
3151.27432	6.47260
3149.34575	6.37588
3147.41719	6.30190
3145.48862	6.24731
3143.56006	6.19796
3141.63149	6.13860
3139.70293	6.05893
3137.77437	5.97512
3135.84580	5.90103
3133.91724	5.82984
3131.98867	5.75584
3130.06011	5.67813
3128.13154	5.60072
3126.20298	5.52478
3124.27441	5.44914
3122.34585	5.38270
3120.41729	5.32802
3118.48872	5.26683
3116.56016	5.18957
3114.63159	5.11129
3112.70303	5.04577
3110.77446	4.98682
3108.84590	4.91923
3106.91733	4.84228
3104.98877	4.76981
3103.06021	4.70482
3101.13164	4.63597
3099.20308	4.56321
3097.27451	4.49639
3095.34595	4.43605
3093.41738	4.37581
3091.48882	4.31154
3089.56025	4.24567
3087.63169	4.18121
3085.70312	4.11599
3083.77456	4.04979
3081.84600	3.98729
3079.91743	3.92855
3077.98887	3.86901
3076.06030	3.80844
3074.13174	3.74946
3072.20317	3.69106
3070.27461	3.63178
3068.34604	3.57354
3066.41748	3.51761
3064.48892	3.46314
3062.56035	3.40947
3060.63179	3.35579
3058.70322	3.30063
3056.77466	3.24508
3054.84609	3.19084
3052.91753	3.13735
3050.98896	3.08470
3049.06040	3.03360
3047.13184	2.98456
3045.20327	2.93589
3043.27471	2.88591
3041.34614	2.83605
3039.41758	2.78795
3037.48901	2.74175
3035.56045	2.69619
3033.63188	2.65026
3031.70332	2.60481
3029.77476	2.56022
3027.84619	2.51622
3025.91763	2.47374
3023.98906	2.43245
3022.06050	2.39044
3020.13193	2.34822
3018.20337	2.30704
3016.27480	2.26676
3014.34624	2.22766
3012.41768	2.18963
3010.48911	2.15140
3008.56055	2.11350
3006.63198	2.07737
3004.70342	2.04219
3002.77485	2.00686
3000.84629	1.97152
2998.91772	1.93625
2996.98916	1.90163
2995.06060	1.86876
2993.13203	1.83715
2991.20347	1.80568
2989.27490	1.77462
2987.34634	1.74406
2985.41777	1.71368
2983.48921	1.68391
2981.56064	1.65507
2979.63208	1.62681
2977.70352	1.59905
2975.77495	1.57219
2973.84639	1.54594
2971.91782	1.51967
2969.98926	1.49343
2968.06069	1.46724
2966.13213	1.44127
2964.20356	1.41586
2962.27500	1.39094
2960.34644	1.36610
2958.41787	1.34158
2956.48931	1.31781
2954.56074	1.29456
2952.63218	1.27153
2950.70361	1.24852
2948.77505	1.22566
2946.84648	1.20332
2944.91792	1.18129
2942.98936	1.15947
2941.06079	1.13850
2939.13223	1.11815
2937.20366	1.09743
2935.27510	1.07693
2933.34653	1.05748
2931.41797	1.03864
2929.48940	1.02007
2927.56084	1.00147
2925.63228	0.98270
2923.70371	0.96436
2921.77515	0.94683
2919.84658	0.93018
2917.91802	0.91399
2915.98945	0.89777
2914.06089	0.88153
2912.13232	0.86545
2910.20376	0.84983
2908.27520	0.83489
2906.34663	0.82061
2904.41807	0.80663
2902.48950	0.79279
2900.56094	0.77932
2898.63237	0.76630
2896.70381	0.75353
2894.77524	0.74084
2892.84668	0.72852
2890.91812	0.71675
2888.98955	0.70543
2887.06099	0.69438
2885.13242	0.68331
2883.20386	0.67222
2881.27529	0.66144
2879.34673	0.65113
2877.41816	0.64122
2875.48960	0.63143
2873.56104	0.62141
2871.63247	0.61103
2869.70391	0.60026
2867.77534	0.58919
2865.84678	0.57802
2863.91821	0.56706
2861.98965	0.55665
2860.06108	0.54662
2858.13252	0.53663
2856.20396	0.52697
2854.27539	0.51800
2852.34683	0.50961
2850.41826	0.50144
2848.48970	0.49315
2846.56113	0.48494
2844.63257	0.47727
2842.70400	0.47031
2840.77544	0.46399
2838.84687	0.45803
2836.91831	0.45211
2834.98975	0.44625
2833.06118	0.44046
2831.13262	0.43456
2829.20405	0.42854
2827.27549	0.42257
2825.34692	0.41655
2823.41836	0.41049
2821.48979	0.40455
2819.56123	0.39868
2817.63267	0.39275
2815.70410	0.38696
2813.77554	0.38148
2811.84697	0.37617
2809.91841	0.37083
2807.98984	0.36549
2806.06128	0.36036
2804.13271	0.35551
2802.20415	0.35062
2800.27559	0.34564
2798.34702	0.34073
2796.41846	0.33583
2794.48989	0.33095
2792.56133	0.32630
2790.63276	0.32181
2788.70420	0.31743
2786.77563	0.31314
2784.84707	0.30890
2782.91851	0.30481
2780.98994	0.30083
2779.06138	0.29680
2777.13281	0.29278
2775.20425	0.28888
2773.27568	0.28516
2771.34712	0.28158
2769.41855	0.27795
2767.48999	0.27429
2765.56143	0.27082
2763.63286	0.26757
2761.70430	0.26438
2759.77573	0.26113
2757.84717	0.25789
2755.91860	0.25468
2753.99004	0.25161
2752.06147	0.24875
2750.13291	0.24597
2748.20435	0.24310
2746.27578	0.24029
2744.34722	0.23777
2742.41865	0.23529
2740.49009	0.23253
2738.56152	0.22963
2736.63296	0.22685
2734.70439	0.22441
2732.77583	0.22217
2730.84727	0.21992
2728.91870	0.21770
2726.99014	0.21548
2725.06157	0.21318
2723.13301	0.21103
2721.20444	0.20910
2719.27588	0.20726
2717.34731	0.20543
2715.41875	0.20340
2713.49019	0.20128
2711.56162	0.19948
2709.63306	0.19788
2707.70449	0.19613
2705.77593	0.19428
2703.84736	0.19260
2701.91880	0.19115
2699.99023	0.18971
2698.06167	0.18822
2696.13311	0.18683
2694.20454	0.18557
2692.27598	0.18423
2690.34741	0.18285
2688.41885	0.18149
2686.49028	0.18016
2684.56172	0.17899
2682.63315	0.17806
2680.70459	0.17700
2678.77603	0.17552
2676.84746	0.17406
2674.91890	0.17305
2672.99033	0.17219
2671.06177	0.17119
2669.13320	0.17019
2667.20464	0.16918
2665.27607	0.16804
2663.34751	0.16698
2661.41895	0.16628
2659.49038	0.16572
2657.56182	0.16498
2655.63325	0.16411
2653.70469	0.16333
2651.77612	0.16267
2649.84756	0.16207
2647.91899	0.16146
2645.99043	0.16083
2644.06187	0.16024
2642.13330	0.15972
2640.20474	0.15922
2638.27617	0.15864
2636.34761	0.15807
2634.41904	0.15760
2632.49048	0.15719
2630.56191	0.15684
2628.63335	0.15649
2626.70479	0.15607
2624.77622	0.15565
2622.84766	0.15533
2620.91909	0.15508
2618.99053	0.15499
2617.06196	0.15500
2615.13340	0.15486
2613.20483	0.15457
2611.27627	0.15431
2609.34771	0.15414
2607.41914	0.15399
2605.49058	0.15390
2603.56201	0.15395
2601.63345	0.15406
2599.70488	0.15418
2597.77632	0.15440
2595.84775	0.15462
2593.91919	0.15465
2591.99062	0.15457
2590.06206	0.15467
2588.13350	0.15489
2586.20493	0.15501
2584.27637	0.15518
2582.34780	0.15551
2580.41924	0.15583
2578.49067	0.15605
2576.56211	0.15620
2574.63354	0.15634
2572.70498	0.15662
2570.77642	0.15705
2568.84785	0.15755
2566.91929	0.15809
2564.99072	0.15855
2563.06216	0.15886
2561.13359	0.15912
2559.20503	0.15944
2557.27646	0.15994
2555.34790	0.16058
2553.41934	0.16120
2551.49077	0.16182
2549.56221	0.16243
2547.63364	0.16294
2545.70508	0.16339
2543.77651	0.16395
2541.84795	0.16465
2539.91938	0.16541
2537.99082	0.16618
2536.06226	0.16686
2534.13369	0.16749
2532.20513	0.16819
2530.27656	0.16896
2528.34800	0.16971
2526.41943	0.17040
2524.49087	0.17108
2522.56230	0.17182
2520.63374	0.17258
2518.70518	0.17331
2516.77661	0.17400
2514.84805	0.17473
2512.91948	0.17552
2510.99092	0.17631
2509.06235	0.17711
2507.13379	0.17799
2505.20522	0.17894
2503.27666	0.17984
2501.34810	0.18064
2499.41953	0.18140
2497.49097	0.18211
2495.56240	0.18294
2493.63384	0.18393
2491.70527	0.18480
2489.77671	0.18558
2487.84814	0.18653
2485.91958	0.18754
2483.99102	0.18842
2482.06245	0.18927
2480.13389	0.19015
2478.20532	0.19100
2476.27676	0.19180
2474.34819	0.19269
2472.41963	0.19364
2470.49106	0.19449
2468.56250	0.19546
2466.63394	0.19668
2464.70537	0.19781
2462.77681	0.19866
2460.84824	0.19940
2458.91968	0.20025
2456.99111	0.20128
2455.06255	0.20235
2453.13398	0.20340
2451.20542	0.20444
2449.27686	0.20547
2447.34829	0.20657
2445.41973	0.20761
2443.49116	0.20850
2441.56260	0.20937
2439.63403	0.21032
2437.70547	0.21129
2435.77690	0.21223
2433.84834	0.21324
2431.91978	0.21442
2429.99121	0.21558
2428.06265	0.21663
2426.13408	0.21780
2424.20552	0.21903
2422.27695	0.22013
2420.34839	0.22116
2418.41982	0.22228
2416.49126	0.22354
2414.56270	0.22478
2412.63413	0.22584
2410.70557	0.22680
2408.77700	0.22786
2406.84844	0.22905
2404.91987	0.23032
2402.99131	0.23159
2401.06274	0.23281
2399.13418	0.23412
2397.20562	0.23553
2395.27705	0.23676
2393.34849	0.23786
2391.41992	0.23911
2389.49136	0.24044
2387.56279	0.24168
2385.63423	0.24289
2383.70566	0.24407
2381.77710	0.24517
2379.84854	0.24638
2377.91997	0.24773
2375.99141	0.24895
2374.06284	0.24999
2372.13428	0.25113
2370.20571	0.25270
2368.27715	0.25475
2366.34858	0.25623
2364.42002	0.25588
2362.49146	0.25531
2360.56289	0.25693
2358.63433	0.25931
2356.70576	0.26052
2354.77720	0.26244
2352.84863	0.26617
2350.92007	0.26913
2348.99150	0.27015
2347.06294	0.27044
2345.13437	0.27114
2343.20581	0.27256
2341.27725	0.27420
2339.34868	0.27586
2337.42012	0.27768
2335.49155	0.27947
2333.56299	0.28062
2331.63442	0.28182
2329.70586	0.28401
2327.77729	0.28671
2325.84873	0.28872
2323.92017	0.29005
2321.99160	0.29178
2320.06304	0.29420
2318.13447	0.29658
2316.20591	0.29840
2314.27734	0.29994
2312.34878	0.30179
2310.42021	0.30393
2308.49165	0.30589
2306.56309	0.30758
2304.63452	0.30926
2302.70596	0.31110
2300.77739	0.31311
2298.84883	0.31513
2296.92026	0.31712
2294.99170	0.31912
2293.06313	0.32103
2291.13457	0.32277
2289.20601	0.32458
2287.27744	0.32664
2285.34888	0.32874
2283.42031	0.33071
2281.49175	0.33264
2279.56318	0.33467
2277.63462	0.33680
2275.70605	0.33896
2273.77749	0.34111
2271.84893	0.34321
2269.92036	0.34523
2267.99180	0.34719
2266.06323	0.34923
2264.13467	0.35144
2262.20610	0.35368
2260.27754	0.35595
2258.34897	0.35832
2256.42041	0.36063
2254.49185	0.36273
2252.56328	0.36483
2250.63472	0.36708
2248.70615	0.36933
2246.77759	0.37144
2244.84902	0.37354
2242.92046	0.37570
2240.99189	0.37791
2239.06333	0.38020
2237.13477	0.38256
2235.20620	0.38487
2233.27764	0.38711
2231.34907	0.38933
2229.42051	0.39154
2227.49194	0.39374
2225.56338	0.39592
2223.63481	0.39812
2221.70625	0.40041
2219.77769	0.40272
2217.84912	0.40494
2215.92056	0.40710
2213.99199	0.40928
2212.06343	0.41152
2210.13486	0.41371
2208.20630	0.41577
2206.27773	0.41782
2204.34917	0.42002
2202.42061	0.42226
2200.49204	0.42435
2198.56348	0.42631
2196.63491	0.42829
2194.70635	0.43033
2192.77778	0.43228
2190.84922	0.43403
2188.92065	0.43578
2186.99209	0.43770
2185.06353	0.43968
2183.13496	0.44148
2181.20640	0.44314
2179.27783	0.44484
2177.34927	0.44647
2175.42070	0.44799
2173.49214	0.44956
2171.56357	0.45114
2169.63501	0.45259
2167.70645	0.45389
2165.77788	0.45510
2163.84932	0.45629
2161.92075	0.45747
2159.99219	0.45862
2158.06362	0.45972
2156.13506	0.46069
2154.20649	0.46154
2152.27793	0.46237
2150.34937	0.46321
2148.42080	0.46391
2146.49224	0.46444
2144.56367	0.46489
2142.63511	0.46529
2140.70654	0.46570
2138.77798	0.46613
2136.84941	0.46649
2134.92085	0.46665
2132.99229	0.46658
2131.06372	0.46644
2129.13516	0.46623
2127.20659	0.46593
2125.27803	0.46569
2123.34946	0.46544
2121.42090	0.46500
2119.49233	0.46437
2117.56377	0.46366
2115.63521	0.46287
2113.70664	0.46207
2111.77808	0.46132
2109.84951	0.46052
2107.92095	0.45965
2105.99238	0.45865
2104.06382	0.45747
2102.13525	0.45610
2100.20669	0.45460
2098.27812	0.45308
2096.34956	0.45166
2094.42100	0.45025
2092.49243	0.44859
2090.56387	0.44687
2088.63530	0.44524
2086.70674	0.44349
2084.77817	0.44149
2082.84961	0.43944
2080.92104	0.43743
2078.99248	0.43543
2077.06392	0.43340
2075.13535	0.43131
2073.20679	0.42925
2071.27822	0.42719
2069.34966	0.42497
2067.42109	0.42252
2065.49253	0.41999
2063.56396	0.41749
2061.63540	0.41504
2059.70684	0.41262
2057.77827	0.41015
2055.84971	0.40766
2053.92114	0.40519
2051.99258	0.40267
2050.06401	0.39998
2048.13545	0.39723
2046.20688	0.39451
2044.27832	0.39176
2042.34976	0.38892
2040.42119	0.38608
2038.49263	0.38332
2036.56406	0.38063
2034.63550	0.37793
2032.70693	0.37513
2030.77837	0.37228
2028.84980	0.36946
2026.92124	0.36669
2024.99268	0.36385
2023.06411	0.36100
2021.13555	0.35820
2019.20698	0.35538
2017.27842	0.35250
2015.34985	0.34961
2013.42129	0.34683
2011.49272	0.34410
2009.56416	0.34136
2007.63560	0.33862
2005.70703	0.33597
2003.77847	0.33334
2001.84990	0.33067
1999.92134	0.32799
1997.99277	0.32534
1996.06421	0.32268
1994.13564	0.32002
1992.20708	0.31744
1990.27852	0.31494
1988.34995	0.31254
1986.42139	0.31012
1984.49282	0.30761
1982.56426	0.30507
1980.63569	0.30264
1978.70713	0.30036
1976.77856	0.29812
1974.85000	0.29578
1972.92144	0.29341
1970.99287	0.29120
1969.06431	0.28911
1967.13574	0.28701
1965.20718	0.28487
1963.27861	0.28286
1961.35005	0.28101
1959.42148	0.27920
1957.49292	0.27737
1955.56436	0.27549
1953.63579	0.27364
1951.70723	0.27189
1949.77866	0.27028
1947.85010	0.26868
1945.92153	0.26702
1943.99297	0.26530
1942.06440	0.26359
1940.13584	0.26200
1938.20728	0.26054
1936.27871	0.25921
1934.35015	0.25795
1932.42158	0.25672
1930.49302	0.25547
1928.56445	0.25430
1926.63589	0.25316
1924.70732	0.25196
1922.77876	0.25079
1920.85020	0.24977
1918.92163	0.24889
1916.99307	0.24805
1915.06450	0.24720
1913.13594	0.24635
1911.20737	0.24560
1909.27881	0.24494
1907.35024	0.24430
1905.42168	0.24363
1903.49312	0.24297
1901.56455	0.24234
1899.63599	0.24177
1897.70742	0.24129
1895.77886	0.24083
1893.85029	0.24043
1891.92173	0.24009
1889.99316	0.23982
1888.06460	0.23956
1886.13604	0.23932
1884.20747	0.23911
1882.27891	0.23893
1880.35034	0.23880
1878.42178	0.23867
1876.49321	0.23858
1874.56465	0.23855
1872.63608	0.23863
1870.70752	0.23863
1868.77896	0.23871
1866.85039	0.23905
1864.92183	0.23936
1862.99326	0.23952
1861.06470	0.23964
1859.13613	0.23990
1857.20757	0.24028
1855.27900	0.24078
1853.35044	0.24131
1851.42187	0.24184
1849.49331	0.24236
1847.56475	0.24292
1845.63618	0.24356
1843.70762	0.24444
1841.77905	0.24539
1839.85049	0.24600
1837.92192	0.24672
1835.99336	0.24767
1834.06479	0.24870
1832.13623	0.24956
1830.20767	0.25057
1828.27910	0.25194
1826.35054	0.25323
1824.42197	0.25465
1822.49341	0.25607
1820.56484	0.25741
1818.63628	0.25881
1816.70771	0.26045
1814.77915	0.26204
1812.85059	0.26357
1810.92202	0.26537
1808.99346	0.26754
1807.06489	0.26974
1805.13633	0.27173
1803.20776	0.27378
1801.27920	0.27610
1799.35063	0.27884
1797.42207	0.28142
1795.49351	0.28379
1793.56494	0.28641
1791.63638	0.29000
1789.70781	0.29386
1787.77925	0.29676
1785.85068	0.29975
1783.92212	0.30321
1781.99355	0.30707
1780.06499	0.31137
1778.13643	0.31584
1776.20786	0.31978
1774.27930	0.32365
1772.35073	0.32911
1770.42217	0.33580
1768.49360	0.34167
1766.56504	0.34708
1764.63647	0.35232
1762.70791	0.35792
1760.77935	0.36532
1758.85078	0.37244
1756.92222	0.37960
1754.99365	0.38756
1753.06509	0.39453
1751.13652	0.40232
1749.20796	0.41254
1747.27939	0.42323
1745.35083	0.43257
1743.42227	0.44219
1741.49370	0.45273
1739.56514	0.46529
1737.63657	0.47787
1735.70801	0.48832
1733.77944	0.50434
1731.85088	0.52486
1729.92231	0.54119
1727.99375	0.55745
1726.06519	0.57445
1724.13662	0.59278
1722.20806	0.61271
1720.27949	0.63077
1718.35093	0.65145
1716.42236	0.68371
1714.49380	0.71568
1712.56523	0.74120
1710.63667	0.76529
1708.70811	0.79052
1706.77954	0.81895
1704.85098	0.85380
1702.92241	0.88519
1700.99385	0.91516
1699.06528	0.96023
1697.13672	1.00261
1695.20815	1.04735
1693.27959	1.09075
1691.35103	1.12451
1689.42246	1.16296
1687.49390	1.20341
1685.56533	1.24157
1683.63677	1.30254
1681.70820	1.36772
1679.77964	1.40825
1677.85107	1.44690
1675.92251	1.49147
1673.99395	1.54723
1672.06538	1.59603
1670.13682	1.64297
1668.20825	1.70659
1666.27969	1.75807
1664.35112	1.80081
1662.42256	1.85434
1660.49399	1.91530
1658.56543	1.96183
1656.63687	1.99965
1654.70830	2.03499
1652.77974	2.09230
1650.85117	2.14744
1648.92261	2.16676
1646.99404	2.19576
1645.06548	2.22993
1643.13691	2.25110
1641.20835	2.26161
1639.27979	2.27076
1637.35122	2.27683
1635.42266	2.27921
1633.49409	2.27530
1631.56553	2.26274
1629.63696	2.24571
1627.70840	2.21724
1625.77983	2.18555
1623.85127	2.14591
1621.92271	2.09730
1619.99414	2.05507
1618.06558	2.01335
1616.13701	1.95103
1614.20845	1.88750
1612.27988	1.84014
1610.35132	1.79036
1608.42275	1.73610
1606.49419	1.68276
1604.56562	1.63369
1602.63706	1.58564
1600.70850	1.53830
1598.77993	1.49477
1596.85137	1.45392
1594.92280	1.41417
1592.99424	1.37558
1591.06567	1.34033
1589.13711	1.30743
1587.20854	1.27679
1585.27998	1.24817
1583.35142	1.22103
1581.42285	1.19587
1579.49429	1.17404
1577.56572	1.15436
1575.63716	1.13041
1573.70859	1.10978
1571.78003	1.09654
1569.85146	1.08223
1567.92290	1.06609
1565.99434	1.05395
1564.06577	1.04401
1562.13721	1.03576
1560.20864	1.02960
1558.28008	1.02188
1556.35151	1.01551
1554.42295	1.01116
1552.49438	1.00682
1550.56582	1.00163
1548.63726	0.99482
1546.70869	0.98713
1544.78013	0.97785
1542.85156	0.96634
1540.92300	0.95091
1538.99443	0.92876
1537.06587	0.91374
1535.13730	0.90336
1533.20874	0.88911
1531.28018	0.87392
1529.35161	0.86278
1527.42305	0.85198
1525.49448	0.84065
1523.56592	0.83078
1521.63735	0.82132
1519.70879	0.81213
1517.78022	0.80441
1515.85166	0.79557
1513.92310	0.78675
1511.99453	0.77901
1510.06597	0.77163
1508.13740	0.76423
1506.20884	0.75321
1504.28027	0.74483
1502.35171	0.74018
1500.42314	0.73554
1498.49458	0.73021
1496.56602	0.72418
1494.63745	0.71866
1492.70889	0.71427
1490.78032	0.70994
1488.85176	0.70520
1486.92319	0.70147
1484.99463	0.69856
1483.06606	0.69594
1481.13750	0.69356
1479.20894	0.69158
1477.28037	0.68997
1475.35181	0.68851
1473.42324	0.68731
1471.49468	0.68583
1469.56611	0.68360
1467.63755	0.68107
1465.70898	0.67863
1463.78042	0.67672
1461.85186	0.67558
1459.92329	0.67459
1457.99473	0.67316
1456.06616	0.67137
1454.13760	0.66960
1452.20903	0.66754
1450.28047	0.66510
1448.35190	0.66256
1446.42334	0.66007
1444.49478	0.65780
1442.56621	0.65562
1440.63765	0.65351
1438.70908	0.65142
1436.78052	0.64870
1434.85195	0.64573
1432.92339	0.64367
1430.99482	0.64223
1429.06626	0.64110
1427.13770	0.64033
1425.20913	0.63986
1423.28057	0.63963
1421.35200	0.63950
1419.42344	0.63920
1417.49487	0.63854
1415.56631	0.63751
1413.63774	0.63649
1411.70918	0.63572
1409.78062	0.63542
1407.85205	0.63528
1405.92349	0.63507
1403.99492	0.63484
1402.06636	0.63428
1400.13779	0.63313
1398.20923	0.63136
1396.28066	0.62923
1394.35210	0.62674
1392.42354	0.62396
1390.49497	0.62129
1388.56641	0.61855
1386.63784	0.61534
1384.70928	0.61185
1382.78071	0.60862
1380.85215	0.60575
1378.92358	0.60316
1376.99502	0.60089
1375.06646	0.59921
1373.13789	0.59834
1371.20933	0.59789
1369.28076	0.59726
1367.35220	0.59624
1365.42363	0.59494
1363.49507	0.59356
1361.56650	0.59224
1359.63794	0.59103
1357.70937	0.58998
1355.78081	0.58898
1353.85225	0.58795
1351.92368	0.58696
1349.99512	0.58609
1348.06655	0.58519
1346.13799	0.58417
1344.20942	0.58317
1342.28086	0.58224
1340.35229	0.58142
1338.42373	0.58064
1336.49517	0.57990
1334.56660	0.57932
1332.63804	0.57894
1330.70947	0.57858
1328.78091	0.57824
1326.85234	0.57813
1324.92378	0.57827
1322.99521	0.57841
1321.06665	0.57840
1319.13809	0.57831
1317.20952	0.57809
1315.28096	0.57765
1313.35239	0.57711
1311.42383	0.57652
1309.49526	0.57578
1307.56670	0.57491
1305.63813	0.57408
1303.70957	0.57324
1301.78101	0.57226
1299.85244	0.57120
1297.92388	0.57027
1295.99531	0.56936
1294.06675	0.56827
1292.13818	0.56713
1290.20962	0.56610
1288.28105	0.56508
1286.35249	0.56404
1284.42393	0.56312
1282.49536	0.56222
1280.56680	0.56126
1278.63823	0.56027
1276.70967	0.55928
1274.78110	0.55841
1272.85254	0.55777
1270.92397	0.55724
1268.99541	0.55666
1267.06685	0.55608
1265.13828	0.55556
1263.20972	0.55504
1261.28115	0.55442
1259.35259	0.55382
1257.42402	0.55334
1255.49546	0.55305
1253.56689	0.55299
1251.63833	0.55297
1249.70977	0.55289
1247.78120	0.55284
1245.85264	0.55271
1243.92407	0.55226
1241.99551	0.55155
1240.06694	0.55068
1238.13838	0.54958
1236.20981	0.54821
1234.28125	0.54668
1232.35269	0.54515
1230.42412	0.54370
1228.49556	0.54234
1226.56699	0.54096
1224.63843	0.53961
1222.70986	0.53835
1220.78130	0.53713
1218.85273	0.53596
1216.92417	0.53492
1214.99561	0.53396
1213.06704	0.53308
1211.13848	0.53239
1209.20991	0.53195
1207.28135	0.53148
1205.35278	0.53078
1203.42422	0.52993
1201.49565	0.52911
1199.56709	0.52840
1197.63853	0.52779
1195.70996	0.52730
1193.78140	0.52680
1191.85283	0.52620
1189.92427	0.52569
1187.99570	0.52526
1186.06714	0.52495
1184.13857	0.52488
1182.21001	0.52512
1180.28145	0.52564
1178.35288	0.52640
1176.42432	0.52739
1174.49575	0.52845
1172.56719	0.52923
1170.63862	0.52968
1168.71006	0.53010
1166.78149	0.53055
1164.85293	0.53089
1162.92437	0.53102
1160.99580	0.53094
1159.06724	0.53064
1157.13867	0.53006
1155.21011	0.52916
1153.28154	0.52788
1151.35298	0.52624
1149.42441	0.52424
1147.49585	0.52197
1145.56729	0.51945
1143.63872	0.51680
1141.71016	0.51437
1139.78159	0.51226
1137.85303	0.51048
1135.92446	0.50905
1133.99590	0.50791
1132.06733	0.50707
1130.13877	0.50641
1128.21021	0.50581
1126.28164	0.50531
1124.35308	0.50465
1122.42451	0.50379
1120.49595	0.50325
1118.56738	0.50309
1116.63882	0.50295
1114.71025	0.50301
1112.78169	0.50348
1110.85312	0.50417
1108.92456	0.50488
1106.99600	0.50562
1105.06743	0.50649
1103.13887	0.50761
1101.21030	0.50916
1099.28174	0.51119
1097.35317	0.51342
1095.42461	0.51588
1093.49604	0.51903
1091.56748	0.52327
1089.63892	0.52878
1087.71035	0.53548
1085.78179	0.54311
1083.85322	0.55093
1081.92466	0.55784
1079.99609	0.56317
1078.06753	0.56639
1076.13896	0.56670
1074.21040	0.56405
1072.28184	0.55922
1070.35327	0.55292
1068.42471	0.54605
1066.49614	0.53937
1064.56758	0.53307
1062.63901	0.52732
1060.71045	0.52237
1058.78188	0.51816
1056.85332	0.51439
1054.92476	0.51099
1052.99619	0.50812
1051.06763	0.50588
1049.13906	0.50414
1047.21050	0.50282
1045.28193	0.50193
1043.35337	0.50127
1041.42480	0.50076
1039.49624	0.50045
1037.56768	0.50029
1035.63911	0.49998
1033.71055	0.49944
1031.78198	0.49885
1029.85342	0.49814
1027.92485	0.49729
1025.99629	0.49654
1024.06772	0.49594
1022.13916	0.49558
1020.21060	0.49562
1018.28203	0.49587
1016.35347	0.49606
1014.42490	0.49624
1012.49634	0.49660
1010.56777	0.49721
1008.63921	0.49804
1006.71064	0.49920
1004.78208	0.50073
1002.85352	0.50255
1000.92495	0.50490
998.99639	0.50805
997.06782	0.51191
995.13926	0.51616
993.21069	0.52024
991.28213	0.52350
989.35356	0.52568
987.42500	0.52681
985.49644	0.52724
983.56787	0.52749
981.63931	0.52794
979.71074	0.52878
977.78218	0.53018
975.85361	0.53228
973.92505	0.53499
971.99648	0.53803
970.06792	0.54125
968.13936	0.54485
966.21079	0.54880
964.28223	0.55309
962.35366	0.55802
960.42510	0.56356
958.49653	0.56924
956.56797	0.57475
954.63940	0.58025
952.71084	0.58609
950.78228	0.59231
948.85371	0.59872
946.92515	0.60507
944.99658	0.61128
943.06802	0.61735
941.13945	0.62308
939.21089	0.62872
937.28232	0.63479
935.35376	0.64110
933.42520	0.64710
931.49663	0.65290
929.56807	0.65897
927.63950	0.66518
925.71094	0.67088
923.78237	0.67651
921.85381	0.68303
919.92524	0.69007
917.99668	0.69662
916.06812	0.70308
914.13955	0.71074
912.21099	0.71922
910.28242	0.72737
908.35386	0.73563
906.42529	0.74431
904.49673	0.75303
902.56816	0.76181
900.63960	0.77074
898.71104	0.78005
896.78247	0.78995
894.85391	0.79993
892.92534	0.80955
890.99678	0.81932
889.06821	0.82987
887.13965	0.84076
885.21108	0.85165
883.28252	0.86334
881.35396	0.87561
879.42539	0.88774
877.49683	0.89969
875.56826	0.91107
873.63970	0.92198
871.71113	0.93311
869.78257	0.94453
867.85400	0.95577
865.92544	0.96606
863.99687	0.97577
862.06831	0.98666
860.13975	0.99917
858.21118	1.01205
856.28262	1.02441
854.35405	1.03712
852.42549	1.05083
850.49692	1.06398
848.56836	1.07526
846.63979	1.08606
844.71123	1.09786
842.78267	1.10952
840.85410	1.12022
838.92554	1.13054
836.99697	1.14237
835.06841	1.15590
833.13984	1.16732
831.21128	1.17675
829.28271	1.18977
827.35415	1.20735
825.42559	1.22132
823.49702	1.22591
821.56846	1.23085
819.63989	1.24582
817.71133	1.26394
815.78276	1.28022
813.85420	1.29700
811.92563	1.30929
809.99707	1.31435
808.06851	1.32242
806.13994	1.34146
804.21138	1.35909
802.28281	1.37266
800.35425	1.38760
798.42568	1.39060
796.49712	1.39096
794.56855	1.40722
792.63999	1.41697
790.71143	1.41847
788.78286	1.45181
786.85430	1.49048
784.92573	1.48511
782.99717	1.49313
781.06860	1.58598
779.14004	1.66056
777.21147	1.53985
775.28291	1.42552
773.35435	1.38766
771.42578	1.35867
769.49722	1.33602
767.56865	1.38989
765.64009	1.45373
763.71152	1.41238
761.78296	1.40452
759.85439	1.46751
757.92583	1.50059
755.99727	1.46668
754.06870	1.44615
752.14014	1.59179
750.21157	2.11647
748.28301	4.48970
746.35444	2.25964
744.42588	1.76144
742.49731	1.44790
740.56875	1.22442
738.64019	1.13226
736.71162	1.08649
734.78306	1.10124
732.85449	1.40091
730.92593	1.46628
728.99736	0.91075
727.06880	0.71420
725.14023	0.59298
723.21167	0.40949
721.28311	0.27585
719.35454	0.35335
717.42598	0.89022
715.49741	1.00621
713.56885	0.29957
711.64028	0.25577
709.71172	0.34166
707.78315	0.46986
705.85459	0.97082
703.92603	4.22356
701.99746	0.69701
700.06890	0.35786
698.14033	0.33280
696.21177	0.47800
694.28320	0.63259
692.35464	0.53846
690.42607	0.45170
688.49751	0.43201
686.56895	0.38936
684.64038	0.34086
682.71182	0.35110
680.78325	0.39469
678.85469	0.44395
676.92612	0.65412
674.99756	1.56568
673.06899	0.67450
671.14043	0.32748
669.21187	0.30977
667.28330	0.34797
665.35474	0.38033
663.42617	0.43621
661.49761	0.35148
659.56904	0.24807
657.64048	0.35028
655.71191	3.93427
653.78335	3.92270
651.85479	0.79063
649.92622	0.54695
647.99766	0.67788
646.06909	0.78834
644.14053	0.52098
642.21196	0.38843
640.28340	0.34315
638.35483	0.39646
636.42627	0.64258
634.49771	0.48002
632.56914	0.27000
630.64058	0.32704
628.71201	0.51541
626.78345	0.47460
624.85488	0.33883
622.92632	0.34562
620.99775	0.37780
619.06919	0.36979
617.14062	0.48151
615.21206	0.63436
613.28350	0.49599
611.35493	0.33415
609.42637	0.29951
607.49780	0.35600
605.56924	0.34803
603.64067	0.30694
601.71211	0.33850
599.78354	0.38873
597.85498	0.33525
595.92642	0.27468
593.99785	0.30633
592.06929	0.40725
590.14072	0.45351
588.21216	0.41968
586.28359	0.43252
584.35503	0.58834
582.42646	0.85187
580.49790	0.85138
578.56934	0.64137
576.64077	0.42006
574.71221	0.27754
572.78364	0.24153
570.85508	0.27578
568.92651	0.29469
566.99795	0.28358
565.06938	0.29157
563.14082	0.32805
561.21226	0.37785
559.28369	0.43513
557.35513	0.46142
555.42656	0.40588
553.49800	0.37291
551.56943	0.37286
549.64087	0.37358
547.71230	0.43184
545.78374	0.53467
543.85518	0.48274
541.92661	0.35882
539.99805	0.30677
538.06948	0.35455
536.14092	0.50683
534.21235	0.71777
532.28379	0.58065
530.35522	0.37207
528.42666	0.28645
526.49810	0.23323
524.56953	0.20088
522.64097	0.20457
520.71240	0.21889
518.78384	0.21234
516.85527	0.21462
514.92671	0.28166
512.99814	0.39258
511.06958	0.33048
509.14102	0.21905
507.21245	0.19051
505.28389	0.21145
503.35532	0.25592
501.42676	0.32012
499.49819	0.41384
