3997.91411	0.06690
3995.98555	0.06686
3994.05698	0.06721
3992.12842	0.06761
3990.19985	0.06815
3988.27129	0.06897
3986.34272	0.06953
3984.41416	0.06980
3982.48560	0.06991
3980.55703	0.06981
3978.62847	0.06976
3976.69990	0.06992
3974.77134	0.07026
3972.84277	0.07072
3970.91421	0.07099
3968.98564	0.07099
3967.05708	0.07104
3965.12852	0.07118
3963.19995	0.07134
3961.27139	0.07144
3959.34282	0.07139
3957.41426	0.07124
3955.48569	0.07114
3953.55713	0.07119
3951.62856	0.07134
3949.70000	0.07133
3947.77144	0.07122
3945.84287	0.07119
3943.91431	0.07130
3941.98574	0.07163
3940.05718	0.07181
3938.12861	0.07165
3936.20005	0.07155
3934.27148	0.07164
3932.34292	0.07183
3930.41436	0.07193
3928.48579	0.07175
3926.55723	0.07149
3924.62866	0.07151
3922.70010	0.07149
3920.77153	0.07101
3918.84297	0.07068
3916.91440	0.07109
3914.98584	0.07161
3913.05728	0.07138
3911.12871	0.07077
3909.20015	0.07051
3907.27158	0.07078
3905.34302	0.07158
3903.41445	0.07286
3901.48589	0.07362
3899.55732	0.07326
3897.62876	0.07269
3895.70020	0.07224
3893.77163	0.07183
3891.84307	0.07167
3889.91450	0.07166
3887.98594	0.07147
3886.05737	0.07135
3884.12881	0.07152
3882.20024	0.07170
3880.27168	0.07194
3878.34312	0.07214
3876.41455	0.07167
3874.48599	0.07105
3872.55742	0.07132
3870.62886	0.07251
3868.70029	0.07362
3866.77173	0.07396
3864.84316	0.07392
3862.91460	0.07396
3860.98604	0.07415
3859.05747	0.07432
3857.12891	0.07444
3855.20034	0.07483
3853.27178	0.07594
3851.34321	0.07735
3849.41465	0.07747
3847.48608	0.07722
3845.55752	0.07749
3843.62896	0.07814
3841.70039	0.07867
3839.77183	0.07933
3837.84326	0.08043
3835.91470	0.08117
3833.98613	0.08161
3832.05757	0.08262
3830.12900	0.08358
3828.20044	0.08371
3826.27187	0.08380
3824.34331	0.08439
3822.41475	0.08544
3820.48618	0.08726
3818.55762	0.08876
3816.62905	0.08935
3814.70049	0.08990
3812.77192	0.09018
3810.84336	0.09036
3808.91479	0.09107
3806.98623	0.09259
3805.05767	0.09432
3803.12910	0.09531
3801.20054	0.09675
3799.27197	0.09871
3797.34341	0.09946
3795.41484	0.10003
3793.48628	0.10089
3791.55771	0.10163
3789.62915	0.10272
3787.70059	0.10428
3785.77202	0.10589
3783.84346	0.10754
3781.91489	0.10933
3779.98633	0.11119
3778.05776	0.11279
3776.12920	0.11369
3774.20063	0.11477
3772.27207	0.11655
3770.34351	0.11880
3768.41494	0.12088
3766.48638	0.12230
3764.55781	0.12415
3762.62925	0.12649
3760.70068	0.12882
3758.77212	0.13171
3756.84355	0.13467
3754.91499	0.13663
3752.98643	0.13849
3751.05786	0.14177
3749.12930	0.14608
3747.20073	0.14851
3745.27217	0.15033
3743.34360	0.15416
3741.41504	0.15821
3739.48647	0.16053
3737.55791	0.16266
3735.62935	0.16680
3733.70078	0.17386
3731.77222	0.18048
3729.84365	0.18496
3727.91509	0.18860
3725.98652	0.19340
3724.05796	0.20011
3722.12939	0.20732
3720.20083	0.21426
3718.27227	0.22115
3716.34370	0.22828
3714.41514	0.23561
3712.48657	0.24442
3710.55801	0.25744
3708.62944	0.27243
3706.70088	0.28451
3704.77231	0.29539
3702.84375	0.30837
3700.91519	0.32576
3698.98662	0.34465
3697.05806	0.36197
3695.12949	0.38010
3693.20093	0.39951
3691.27236	0.42094
3689.34380	0.44966
3687.41523	0.48524
3685.48667	0.51555
3683.55811	0.54165
3681.62954	0.56969
3679.70098	0.60102
3677.77241	0.63382
3675.84385	0.67298
3673.91528	0.72724
3671.98672	0.77097
3670.05815	0.80975
3668.12959	0.86502
3666.20103	0.91449
3664.27246	0.95443
3662.34390	0.99750
3660.41533	1.04468
3658.48677	1.09120
3656.55820	1.14039
3654.62964	1.19538
3652.70107	1.24107
3650.77251	1.28015
3648.84395	1.33631
3646.91538	1.40826
3644.98682	1.45941
3643.05825	1.49805
3641.12969	1.53832
3639.20112	1.58312
3637.27256	1.62852
3635.34399	1.67275
3633.41543	1.71643
3631.48687	1.75638
3629.55830	1.79561
3627.62974	1.84895
3625.70117	1.90184
3623.77261	1.93765
3621.84404	1.97040
3619.91548	2.00723
3617.98691	2.05277
3616.05835	2.09666
3614.12979	2.13275
3612.20122	2.17169
3610.27266	2.21135
3608.34409	2.25133
3606.41553	2.29499
3604.48696	2.33558
3602.55840	2.37092
3600.62983	2.40924
3598.70127	2.45147
3596.77271	2.49234
3594.84414	2.53402
3592.91558	2.57690
3590.98701	2.61541
3589.05845	2.65012
3587.12988	2.69304
3585.20132	2.74361
3583.27275	2.78723
3581.34419	2.82597
3579.41562	2.86739
3577.48706	2.91150
3575.55850	2.95347
3573.62993	2.99482
3571.70137	3.03633
3569.77280	3.07600
3567.84424	3.11712
3565.91567	3.16953
3563.98711	3.22361
3562.05854	3.26812
3560.12998	3.31042
3558.20142	3.35448
3556.27285	3.40061
3554.34429	3.44535
3552.41572	3.49004
3550.48716	3.53721
3548.55859	3.58297
3546.63003	3.62616
3544.70146	3.67305
3542.77290	3.72430
3540.84434	3.77445
3538.91577	3.82129
3536.98721	3.86654
3535.05864	3.91519
3533.13008	3.96354
3531.20151	4.00850
3529.27295	4.05462
3527.34438	4.10723
3525.41582	4.16181
3523.48726	4.21127
3521.55869	4.25920
3519.63013	4.30503
3517.70156	4.34900
3515.77300	4.39595
3513.84443	4.44467
3511.91587	4.49059
3509.98730	4.53655
3508.05874	4.58619
3506.13018	4.63415
3504.20161	4.67977
3502.27305	4.72998
3500.34448	4.78366
3498.41592	4.83244
3496.48735	4.87611
3494.55879	4.92132
3492.63022	4.97038
3490.70166	5.02170
3488.77310	5.07564
3486.84453	5.12741
3484.91597	5.17814
3482.98740	5.23452
3481.05884	5.28988
3479.13027	5.33887
3477.20171	5.38373
3475.27314	5.42493
3473.34458	5.46980
3471.41602	5.51912
3469.48745	5.56307
3467.55889	5.60400
3465.63032	5.64730
3463.70176	5.69291
3461.77319	5.74613
3459.84463	5.81064
3457.91606	5.87399
3455.98750	5.92701
3454.05894	5.96932
3452.13037	6.01000
3450.20181	6.06482
3448.27324	6.12527
3446.34468	6.17492
3444.41611	6.20930
3442.48755	6.23809
3440.55898	6.28326
3438.63042	6.35371
3436.70186	6.40969
3434.77329	6.43029
3432.84473	6.46617
3430.91616	6.53769
3428.98760	6.61467
3427.05903	6.68490
3425.13047	6.74446
3423.20190	6.77204
3421.27334	6.78011
3419.34478	6.79975
3417.41621	6.84850
3415.48765	6.91053
3413.55908	6.96538
3411.63052	7.01297
3409.70195	7.04330
3407.77339	7.08856
3405.84482	7.14956
3403.91626	7.19052
3401.98770	7.21828
3400.05913	7.25582
3398.13057	7.30551
3396.20200	7.35250
3394.27344	7.37815
3392.34487	7.38249
3390.41631	7.43177
3388.48774	7.52567
3386.55918	7.59562
3384.63062	7.62955
3382.70205	7.65903
3380.77349	7.66543
3378.84492	7.64525
3376.91636	7.64454
3374.98779	7.65737
3373.05923	7.67097
3371.13066	7.66943
3369.20210	7.71445
3367.27354	7.80732
3365.34497	7.81797
3363.41641	7.76730
3361.48784	7.78758
3359.55928	7.87147
3357.63071	7.93245
3355.70215	8.00092
3353.77358	8.02055
3351.84502	7.93957
3349.91646	7.87409
3347.98789	7.88281
3346.05933	7.92389
3344.13076	7.94313
3342.20220	7.96059
3340.27363	8.03912
3338.34507	8.19022
3336.41650	8.26869
3334.48794	8.18684
3332.55937	8.08597
3330.63081	8.07309
3328.70225	8.07685
3326.77368	8.02888
3324.84512	8.00812
3322.91655	8.05643
3320.98799	8.11315
3319.05942	8.10764
3317.13086	8.07913
3315.20229	8.12773
3313.27373	8.25784
3311.34517	8.28793
3309.41660	8.17527
3307.48804	8.06789
3305.55947	8.03852
3303.63091	8.09380
3301.70234	8.14118
3299.77378	8.21561
3297.84521	8.38556
3295.91665	8.51588
3293.98809	8.49432
3292.05952	8.35377
3290.13096	8.14712
3288.20239	7.99772
3286.27383	8.02782
3284.34526	8.17465
3282.41670	8.22524
3280.48813	8.12155
3278.55957	8.04380
3276.63101	8.04639
3274.70244	8.08285
3272.77388	8.20020
3270.84531	8.44110
3268.91675	8.63473
3266.98818	8.56137
3265.05962	8.40541
3263.13105	8.30164
3261.20249	8.20195
3259.27393	8.15521
3257.34536	8.20949
3255.41680	8.26239
3253.48823	8.24095
3251.55967	8.19276
3249.63110	8.18229
3247.70254	8.27926
3245.77397	8.40499
3243.84541	8.43256
3241.91685	8.37740
3239.98828	8.28860
3238.05972	8.24494
3236.13115	8.25640
3234.20259	8.23652
3232.27402	8.18300
3230.34546	8.17949
3228.41689	8.26057
3226.48833	8.32328
3224.55977	8.27933
3222.63120	8.20673
3220.70264	8.12252
3218.77407	8.04989
3216.84551	8.03723
3214.91694	8.03436
3212.98838	8.02944
3211.05981	8.07572
3209.13125	8.09549
3207.20269	8.01497
3205.27412	7.97642
3203.34556	7.97860
3201.41699	7.88198
3199.48843	7.76311
3197.55986	7.73716
3195.63130	7.74463
3193.70273	7.67317
3191.77417	7.56836
3189.84561	7.52721
3187.91704	7.54384
3185.98848	7.56262
3184.05991	7.53331
3182.13135	7.44103
3180.20278	7.32341
3178.27422	7.22170
3176.34565	7.17629
3174.41709	7.17808
3172.48853	7.15216
3170.55996	7.09638
3168.63140	7.05229
3166.70283	6.99609
3164.77427	6.92793
3162.84570	6.87871
3160.91714	6.83022
3158.98857	6.75919
3157.06001	6.67187
3155.13145	6.58095
3153.20288	6.49707
3151.27432	6.42246
3149.34575	6.35315
3147.41719	6.30156
3145.48862	6.26245
3143.56006	6.19362
3141.63149	6.08865
3139.70293	5.97992
3137.77437	5.89956
3135.84580	5.85981
3133.91724	5.82549
3131.98867	5.75863
3130.06011	5.67505
3128.13154	5.59948
3126.20298	5.53148
3124.27441	5.46293
3122.34585	5.39051
3120.41729	5.32105
3118.48872	5.25528
3116.56016	5.18625
3114.63159	5.11777
3112.70303	5.05358
3110.77446	4.98732
3108.84590	4.91850
3106.91733	4.84955
3104.98877	4.77910
3103.06021	4.70973
3101.13164	4.64136
3099.20308	4.57224
3097.27451	4.50499
3095.34595	4.44063
3093.41738	4.37704
3091.48882	4.31265
3089.56025	4.24766
3087.63169	4.18463
3085.70312	4.12460
3083.77456	4.06542
3081.84600	4.00689
3079.91743	3.94675
3077.98887	3.88447
3076.06030	3.82511
3074.13174	3.76815
3072.20317	3.70945
3070.27461	3.65017
3068.34604	3.59290
3066.41748	3.53580
3064.48892	3.47917
3062.56035	3.42533
3060.63179	3.37192
3058.70322	3.31752
3056.77466	3.26361
3054.84609	3.21045
3052.91753	3.15852
3050.98896	3.10838
3049.06040	3.05814
3047.13184	3.00661
3045.20327	2.95544
3043.27471	2.90592
3041.34614	2.85788
3039.41758	2.81036
3037.48901	2.76255
3035.56045	2.71581
3033.63188	2.67132
3031.70332	2.62775
3029.77476	2.58435
3027.84619	2.54150
3025.91763	2.49893
3023.98906	2.45570
3022.06050	2.41211
3020.13193	2.36973
3018.20337	2.32902
3016.27480	2.28903
3014.34624	2.24963
3012.41768	2.21108
3010.48911	2.17300
3008.56055	2.13570
3006.63198	2.09919
3004.70342	2.06286
3002.77485	2.02708
3000.84629	1.99247
2998.91772	1.95859
2996.98916	1.92510
2995.06060	1.89276
2993.13203	1.86164
2991.20347	1.83088
2989.27490	1.80020
2987.34634	1.77005
2985.41777	1.74110
2983.48921	1.71317
2981.56064	1.68529
2979.63208	1.65740
2977.70352	1.63051
2975.77495	1.60501
2973.84639	1.58007
2971.91782	1.55494
2969.98926	1.52988
2968.06069	1.50515
2966.13213	1.48061
2964.20356	1.45654
2962.27500	1.43305
2960.34644	1.40969
2958.41787	1.38598
2956.48931	1.36154
2954.56074	1.33667
2952.63218	1.31232
2950.70361	1.28898
2948.77505	1.26647
2946.84648	1.24442
2944.91792	1.22255
2942.98936	1.20099
2941.06079	1.17988
2939.13223	1.15931
2937.20366	1.13949
2935.27510	1.12018
2933.34653	1.10067
2931.41797	1.08088
2929.48940	1.06160
2927.56084	1.04297
2925.63228	1.02451
2923.70371	1.00625
2921.77515	0.98791
2919.84658	0.96957
2917.91802	0.95181
2915.98945	0.93421
2914.06089	0.91657
2912.13232	0.89970
2910.20376	0.88376
2908.27520	0.86816
2906.34663	0.85260
2904.41807	0.83739
2902.48950	0.82289
2900.56094	0.80898
2898.63237	0.79565
2896.70381	0.78274
2894.77524	0.76989
2892.84668	0.75719
2890.91812	0.74495
2888.98955	0.73313
2887.06099	0.72153
2885.13242	0.71030
2883.20386	0.69967
2881.27529	0.68968
2879.34673	0.67993
2877.41816	0.67000
2875.48960	0.66010
2873.56104	0.65016
2871.63247	0.63953
2869.70391	0.62835
2867.77534	0.61706
2865.84678	0.60536
2863.91821	0.59342
2861.98965	0.58228
2860.06108	0.57180
2858.13252	0.56133
2856.20396	0.55141
2854.27539	0.54221
2852.34683	0.53292
2850.41826	0.52346
2848.48970	0.51409
2846.56113	0.50518
2844.63257	0.49732
2842.70400	0.49037
2840.77544	0.48373
2838.84687	0.47723
2836.91831	0.47096
2834.98975	0.46487
2833.06118	0.45878
2831.13262	0.45244
2829.20405	0.44609
2827.27549	0.44007
2825.34692	0.43422
2823.41836	0.42825
2821.48979	0.42214
2819.56123	0.41603
2817.63267	0.41004
2815.70410	0.40415
2813.77554	0.39827
2811.84697	0.39243
2809.91841	0.38691
2807.98984	0.38166
2806.06128	0.37653
2804.13271	0.37146
2802.20415	0.36627
2800.27559	0.36111
2798.34702	0.35611
2796.41846	0.35107
2794.48989	0.34594
2792.56133	0.34096
2790.63276	0.33630
2788.70420	0.33188
2786.77563	0.32754
2784.84707	0.32318
2782.91851	0.31879
2780.98994	0.31444
2779.06138	0.31028
2777.13281	0.30630
2775.20425	0.30221
2773.27568	0.29812
2771.34712	0.29418
2769.41855	0.29031
2767.48999	0.28652
2765.56143	0.28288
2763.63286	0.27943
2761.70430	0.27617
2759.77573	0.27305
2757.84717	0.26988
2755.91860	0.26646
2753.99004	0.26293
2752.06147	0.25968
2750.13291	0.25680
2748.20435	0.25393
2746.27578	0.25096
2744.34722	0.24807
2742.41865	0.24528
2740.49009	0.24249
2738.56152	0.23967
2736.63296	0.23696
2734.70439	0.23455
2732.77583	0.23223
2730.84727	0.22976
2728.91870	0.22729
2726.99014	0.22486
2725.06157	0.22248
2723.13301	0.22028
2721.20444	0.21823
2719.27588	0.21627
2717.34731	0.21431
2715.41875	0.21219
2713.49019	0.21009
2711.56162	0.20831
2709.63306	0.20664
2707.70449	0.20480
2705.77593	0.20288
2703.84736	0.20116
2701.91880	0.19964
2699.99023	0.19820
2698.06167	0.19669
2696.13311	0.19508
2694.20454	0.19349
2692.27598	0.19201
2690.34741	0.19063
2688.41885	0.18942
2686.49028	0.18830
2684.56172	0.18713
2682.63315	0.18601
2680.70459	0.18480
2678.77603	0.18326
2676.84746	0.18169
2674.91890	0.18059
2672.99033	0.17976
2671.06177	0.17878
2669.13320	0.17773
2667.20464	0.17671
2665.27607	0.17557
2663.34751	0.17443
2661.41895	0.17357
2659.49038	0.17293
2657.56182	0.17225
2655.63325	0.17148
2653.70469	0.17072
2651.77612	0.16998
2649.84756	0.16917
2647.91899	0.16832
2645.99043	0.16762
2644.06187	0.16710
2642.13330	0.16660
2640.20474	0.16613
2638.27617	0.16566
2636.34761	0.16505
2634.41904	0.16436
2632.49048	0.16384
2630.56191	0.16350
2628.63335	0.16312
2626.70479	0.16266
2624.77622	0.16224
2622.84766	0.16186
2620.91909	0.16152
2618.99053	0.16125
2617.06196	0.16100
2615.13340	0.16077
2613.20483	0.16054
2611.27627	0.16030
2609.34771	0.16013
2607.41914	0.15999
2605.49058	0.15982
2603.56201	0.15977
2601.63345	0.15988
2599.70488	0.16002
2597.77632	0.16004
2595.84775	0.15992
2593.91919	0.15990
2591.99062	0.15999
2590.06206	0.16005
2588.13350	0.16015
2586.20493	0.16036
2584.27637	0.16056
2582.34780	0.16073
2580.41924	0.16096
2578.49067	0.16122
2576.56211	0.16144
2574.63354	0.16161
2572.70498	0.16188
2570.77642	0.16227
2568.84785	0.16267
2566.91929	0.16312
2564.99072	0.16353
2563.06216	0.16376
2561.13359	0.16397
2559.20503	0.16428
2557.27646	0.16466
2555.34790	0.16518
2553.41934	0.16573
2551.49077	0.16623
2549.56221	0.16673
2547.63364	0.16721
2545.70508	0.16773
2543.77651	0.16836
2541.84795	0.16897
2539.91938	0.16953
2537.99082	0.17024
2536.06226	0.17103
2534.13369	0.17172
2532.20513	0.17243
2530.27656	0.17321
2528.34800	0.17387
2526.41943	0.17442
2524.49087	0.17507
2522.56230	0.17576
2520.63374	0.17641
2518.70518	0.17708
2516.77661	0.17781
2514.84805	0.17859
2512.91948	0.17940
2510.99092	0.18016
2509.06235	0.18088
2507.13379	0.18172
2505.20522	0.18266
2503.27666	0.18351
2501.34810	0.18422
2499.41953	0.18493
2497.49097	0.18579
2495.56240	0.18682
2493.63384	0.18786
2491.70527	0.18870
2489.77671	0.18942
2487.84814	0.19023
2485.91958	0.19110
2483.99102	0.19188
2482.06245	0.19257
2480.13389	0.19333
2478.20532	0.19415
2476.27676	0.19500
2474.34819	0.19596
2472.41963	0.19692
2470.49106	0.19777
2468.56250	0.19867
2466.63394	0.19963
2464.70537	0.20053
2462.77681	0.20146
2460.84824	0.20237
2458.91968	0.20322
2456.99111	0.20416
2455.06255	0.20520
2453.13398	0.20618
2451.20542	0.20709
2449.27686	0.20810
2447.34829	0.20926
2445.41973	0.21029
2443.49116	0.21113
2441.56260	0.21205
2439.63403	0.21308
2437.70547	0.21403
2435.77690	0.21489
2433.84834	0.21580
2431.91978	0.21681
2429.99121	0.21796
2428.06265	0.21918
2426.13408	0.22045
2424.20552	0.22163
2422.27695	0.22258
2420.34839	0.22344
2418.41982	0.22445
2416.49126	0.22563
2414.56270	0.22684
2412.63413	0.22801
2410.70557	0.22915
2408.77700	0.23029
2406.84844	0.23142
2404.91987	0.23260
2402.99131	0.23380
2401.06274	0.23505
2399.13418	0.23637
2397.20562	0.23764
2395.27705	0.23882
2393.34849	0.24002
2391.41992	0.24126
2389.49136	0.24255
2387.56279	0.24388
2385.63423	0.24524
2383.70566	0.24667
2381.77710	0.24819
2379.84854	0.24980
2377.91997	0.25175
2375.99141	0.25407
2374.06284	0.25628
2372.13428	0.25838
2370.20571	0.26137
2368.27715	0.26516
2366.34858	0.26761
2364.42002	0.26712
2362.49146	0.26606
2360.56289	0.26782
2358.63433	0.27092
2356.70576	0.27293
2354.77720	0.27460
2352.84863	0.27650
2350.92007	0.27747
2348.99150	0.27750
2347.06294	0.27773
2345.13437	0.27894
2343.20581	0.28127
2341.27725	0.28404
2339.34868	0.28634
2337.42012	0.28817
2335.49155	0.28971
2333.56299	0.29048
2331.63442	0.29135
2329.70586	0.29320
2327.77729	0.29530
2325.84873	0.29687
2323.92017	0.29804
2321.99160	0.29944
2320.06304	0.30114
2318.13447	0.30265
2316.20591	0.30387
2314.27734	0.30517
2312.34878	0.30677
2310.42021	0.30861
2308.49165	0.31037
2306.56309	0.31182
2304.63452	0.31309
2302.70596	0.31450
2300.77739	0.31626
2298.84883	0.31812
2296.92026	0.31984
2294.99170	0.32157
2293.06313	0.32334
2291.13457	0.32505
2289.20601	0.32676
2287.27744	0.32865
2285.34888	0.33071
2283.42031	0.33272
2281.49175	0.33458
2279.56318	0.33649
2277.63462	0.33861
2275.70605	0.34084
2273.77749	0.34299
2271.84893	0.34505
2269.92036	0.34713
2267.99180	0.34922
2266.06323	0.35132
2264.13467	0.35338
2262.20610	0.35550
2260.27754	0.35765
2258.34897	0.35979
2256.42041	0.36196
2254.49185	0.36414
2252.56328	0.36634
2250.63472	0.36861
2248.70615	0.37088
2246.77759	0.37306
2244.84902	0.37516
2242.92046	0.37726
2240.99189	0.37946
2239.06333	0.38169
2237.13477	0.38390
2235.20620	0.38617
2233.27764	0.38853
2231.34907	0.39085
2229.42051	0.39309
2227.49194	0.39530
2225.56338	0.39748
2223.63481	0.39966
2221.70625	0.40193
2219.77769	0.40425
2217.84912	0.40647
2215.92056	0.40860
2213.99199	0.41072
2212.06343	0.41286
2210.13486	0.41501
2208.20630	0.41712
2206.27773	0.41911
2204.34917	0.42115
2202.42061	0.42331
2200.49204	0.42540
2198.56348	0.42744
2196.63491	0.42960
2194.70635	0.43178
2192.77778	0.43377
2190.84922	0.43561
2188.92065	0.43739
2186.99209	0.43920
2185.06353	0.44101
2183.13496	0.44266
2181.20640	0.44426
2179.27783	0.44598
2177.34927	0.44771
2175.42070	0.44928
2173.49214	0.45074
2171.56357	0.45221
2169.63501	0.45371
2167.70645	0.45506
2165.77788	0.45616
2163.84932	0.45729
2161.92075	0.45855
2159.99219	0.45974
2158.06362	0.46070
2156.13506	0.46149
2154.20649	0.46225
2152.27793	0.46307
2150.34937	0.46393
2148.42080	0.46472
2146.49224	0.46536
2144.56367	0.46591
2142.63511	0.46639
2140.70654	0.46674
2138.77798	0.46697
2136.84941	0.46710
2134.92085	0.46710
2132.99229	0.46705
2131.06372	0.46698
2129.13516	0.46678
2127.20659	0.46646
2125.27803	0.46621
2123.34946	0.46590
2121.42090	0.46536
2119.49233	0.46474
2117.56377	0.46419
2115.63521	0.46362
2113.70664	0.46288
2111.77808	0.46192
2109.84951	0.46084
2107.92095	0.45987
2105.99238	0.45893
2104.06382	0.45774
2102.13525	0.45630
2100.20669	0.45486
2098.27812	0.45341
2096.34956	0.45192
2094.42100	0.45040
2092.49243	0.44875
2090.56387	0.44697
2088.63530	0.44515
2086.70674	0.44340
2084.77817	0.44168
2082.84961	0.43976
2080.92104	0.43762
2078.99248	0.43548
2077.06392	0.43339
2075.13535	0.43124
2073.20679	0.42905
2071.27822	0.42685
2069.34966	0.42463
2067.42109	0.42232
2065.49253	0.41991
2063.56396	0.41743
2061.63540	0.41496
2059.70684	0.41254
2057.77827	0.41007
2055.84971	0.40749
2053.92114	0.40494
2051.99258	0.40245
2050.06401	0.39982
2048.13545	0.39704
2046.20688	0.39426
2044.27832	0.39158
2042.34976	0.38883
2040.42119	0.38600
2038.49263	0.38324
2036.56406	0.38055
2034.63550	0.37779
2032.70693	0.37497
2030.77837	0.37217
2028.84980	0.36933
2026.92124	0.36647
2024.99268	0.36362
2023.06411	0.36074
2021.13555	0.35788
2019.20698	0.35510
2017.27842	0.35242
2015.34985	0.34968
2013.42129	0.34682
2011.49272	0.34392
2009.56416	0.34108
2007.63560	0.33828
2005.70703	0.33557
2003.77847	0.33296
2001.84990	0.33037
1999.92134	0.32774
1997.99277	0.32503
1996.06421	0.32232
1994.13564	0.31975
1992.20708	0.31727
1990.27852	0.31478
1988.34995	0.31237
1986.42139	0.30994
1984.49282	0.30748
1982.56426	0.30502
1980.63569	0.30257
1978.70713	0.30023
1976.77856	0.29799
1974.85000	0.29575
1972.92144	0.29348
1970.99287	0.29128
1969.06431	0.28918
1967.13574	0.28707
1965.20718	0.28496
1963.27861	0.28301
1961.35005	0.28114
1959.42148	0.27913
1957.49292	0.27713
1955.56436	0.27537
1953.63579	0.27377
1951.70723	0.27210
1949.77866	0.27043
1947.85010	0.26883
1945.92153	0.26727
1943.99297	0.26572
1942.06440	0.26407
1940.13584	0.26238
1938.20728	0.26086
1936.27871	0.25950
1934.35015	0.25819
1932.42158	0.25696
1930.49302	0.25581
1928.56445	0.25473
1926.63589	0.25361
1924.70732	0.25252
1922.77876	0.25148
1920.85020	0.25052
1918.92163	0.24967
1916.99307	0.24877
1915.06450	0.24780
1913.13594	0.24695
1911.20737	0.24628
1909.27881	0.24564
1907.35024	0.24496
1905.42168	0.24423
1903.49312	0.24352
1901.56455	0.24291
1899.63599	0.24240
1897.70742	0.24198
1895.77886	0.24156
1893.85029	0.24120
1891.92173	0.24092
1889.99316	0.24076
1888.06460	0.24050
1886.13604	0.24014
1884.20747	0.23985
1882.27891	0.23961
1880.35034	0.23946
1878.42178	0.23943
1876.49321	0.23939
1874.56465	0.23927
1872.63608	0.23931
1870.70752	0.23952
1868.77896	0.23995
1866.85039	0.24027
1864.92183	0.24028
1862.99326	0.24029
1861.06470	0.24045
1859.13613	0.24075
1857.20757	0.24107
1855.27900	0.24148
1853.35044	0.24202
1851.42187	0.24267
1849.49331	0.24326
1847.56475	0.24386
1845.63618	0.24462
1843.70762	0.24555
1841.77905	0.24638
1839.85049	0.24691
1837.92192	0.24763
1835.99336	0.24853
1834.06479	0.24948
1832.13623	0.25044
1830.20767	0.25171
1828.27910	0.25318
1826.35054	0.25440
1824.42197	0.25581
1822.49341	0.25710
1820.56484	0.25820
1818.63628	0.25952
1816.70771	0.26119
1814.77915	0.26286
1812.85059	0.26456
1810.92202	0.26652
1808.99346	0.26858
1807.06489	0.27062
1805.13633	0.27260
1803.20776	0.27475
1801.27920	0.27718
1799.35063	0.27997
1797.42207	0.28256
1795.49351	0.28503
1793.56494	0.28786
1791.63638	0.29151
1789.70781	0.29508
1787.77925	0.29764
1785.85068	0.30055
1783.92212	0.30415
1781.99355	0.30816
1780.06499	0.31239
1778.13643	0.31667
1776.20786	0.32064
1774.27930	0.32484
1772.35073	0.33060
1770.42217	0.33708
1768.49360	0.34256
1766.56504	0.34778
1764.63647	0.35302
1762.70791	0.35877
1760.77935	0.36641
1758.85078	0.37365
1756.92222	0.38073
1754.99365	0.38851
1753.06509	0.39542
1751.13652	0.40341
1749.20796	0.41387
1747.27939	0.42455
1745.35083	0.43377
1743.42227	0.44332
1741.49370	0.45381
1739.56514	0.46629
1737.63657	0.47876
1735.70801	0.48926
1733.77944	0.50533
1731.85088	0.52538
1729.92231	0.54108
1727.99375	0.55691
1726.06519	0.57384
1724.13662	0.59239
1722.20806	0.61251
1720.27949	0.63070
1718.35093	0.65167
1716.42236	0.68408
1714.49380	0.71563
1712.56523	0.74059
1710.63667	0.76440
1708.70811	0.78986
1706.77954	0.81894
1704.85098	0.85435
1702.92241	0.88580
1700.99385	0.91610
1699.06528	0.96274
1697.13672	1.00708
1695.20815	1.05306
1693.27959	1.09689
1691.35103	1.13125
1689.42246	1.17145
1687.49390	1.21449
1685.56533	1.25519
1683.63677	1.32017
1681.70820	1.39067
1679.77964	1.43487
1677.85107	1.47635
1675.92251	1.52385
1673.99395	1.58319
1672.06538	1.63496
1670.13682	1.68521
1668.20825	1.75492
1666.27969	1.81206
1664.35112	1.85963
1662.42256	1.92151
1660.49399	1.99448
1658.56543	2.05000
1656.63687	2.09321
1654.70830	2.13111
1652.77974	2.19150
1650.85117	2.25173
1648.92261	2.27214
1646.99404	2.29830
1645.06548	2.32586
1643.13691	2.34475
1641.20835	2.35473
1639.27979	2.36274
1637.35122	2.36578
1635.42266	2.36402
1633.49409	2.35849
1631.56553	2.34497
1629.63696	2.32605
1627.70840	2.29436
1625.77983	2.25873
1623.85127	2.21364
1621.92271	2.15870
1619.99414	2.11170
1618.06558	2.06680
1616.13701	2.00047
1614.20845	1.93265
1612.27988	1.88286
1610.35132	1.83161
1608.42275	1.77571
1606.49419	1.72028
1604.56562	1.66985
1602.63706	1.62121
1600.70850	1.57333
1598.77993	1.52944
1596.85137	1.48810
1594.92280	1.44746
1592.99424	1.40857
1591.06567	1.37390
1589.13711	1.34174
1587.20854	1.31182
1585.27998	1.28437
1583.35142	1.25896
1581.42285	1.23614
1579.49429	1.21713
1577.56572	1.20036
1575.63716	1.17967
1573.70859	1.16164
1571.78003	1.15047
1569.85146	1.13978
1567.92290	1.12887
1565.99434	1.12126
1564.06577	1.11559
1562.13721	1.11117
1560.20864	1.10921
1558.28008	1.11220
1556.35151	1.11695
1554.42295	1.11874
1552.49438	1.12014
1550.56582	1.11999
1548.63726	1.11713
1546.70869	1.11162
1544.78013	1.10292
1542.85156	1.09028
1540.92300	1.06995
1538.99443	1.03819
1537.06587	1.01721
1535.13730	1.00320
1533.20874	0.98309
1531.28018	0.96124
1529.35161	0.94555
1527.42305	0.93074
1525.49448	0.91547
1523.56592	0.90271
1521.63735	0.89052
1519.70879	0.87826
1517.78022	0.86819
1515.85166	0.85632
1513.92310	0.84376
1511.99453	0.83255
1510.06597	0.82211
1508.13740	0.81215
1506.20884	0.79696
1504.28027	0.78408
1502.35171	0.77688
1500.42314	0.77063
1498.49458	0.76409
1496.56602	0.75646
1494.63745	0.74880
1492.70889	0.74274
1490.78032	0.73718
1488.85176	0.73094
1486.92319	0.72558
1484.99463	0.72168
1483.06606	0.71860
1481.13750	0.71593
1479.20894	0.71395
1477.28037	0.71298
1475.35181	0.71282
1473.42324	0.71320
1471.49468	0.71302
1469.56611	0.71140
1467.63755	0.70916
1465.70898	0.70725
1463.78042	0.70614
1461.85186	0.70549
1459.92329	0.70499
1457.99473	0.70464
1456.06616	0.70387
1454.13760	0.70195
1452.20903	0.69951
1450.28047	0.69670
1448.35190	0.69372
1446.42334	0.69064
1444.49478	0.68779
1442.56621	0.68513
1440.63765	0.68253
1438.70908	0.67997
1436.78052	0.67657
1434.85195	0.67241
1432.92339	0.66929
1430.99482	0.66753
1429.06626	0.66684
1427.13770	0.66681
1425.20913	0.66735
1423.28057	0.66836
1421.35200	0.66917
1419.42344	0.66965
1417.49487	0.66962
1415.56631	0.66881
1413.63774	0.66813
1411.70918	0.66809
1409.78062	0.66877
1407.85205	0.66997
1405.92349	0.67163
1403.99492	0.67307
1402.06636	0.67320
1400.13779	0.67224
1398.20923	0.67052
1396.28066	0.66792
1394.35210	0.66419
1392.42354	0.65977
1390.49497	0.65546
1388.56641	0.65103
1386.63784	0.64601
1384.70928	0.64082
1382.78071	0.63592
1380.85215	0.63123
1378.92358	0.62710
1376.99502	0.62400
1375.06646	0.62196
1373.13789	0.62051
1371.20933	0.61948
1369.28076	0.61884
1367.35220	0.61804
1365.42363	0.61669
1363.49507	0.61501
1361.56650	0.61319
1359.63794	0.61139
1357.70937	0.60991
1355.78081	0.60878
1353.85225	0.60783
1351.92368	0.60693
1349.99512	0.60620
1348.06655	0.60552
1346.13799	0.60468
1344.20942	0.60375
1342.28086	0.60291
1340.35229	0.60224
1338.42373	0.60159
1336.49517	0.60093
1334.56660	0.60044
1332.63804	0.60022
1330.70947	0.60023
1328.78091	0.60056
1326.85234	0.60117
1324.92378	0.60189
1322.99521	0.60273
1321.06665	0.60369
1319.13809	0.60454
1317.20952	0.60492
1315.28096	0.60487
1313.35239	0.60466
1311.42383	0.60426
1309.49526	0.60357
1307.56670	0.60286
1305.63813	0.60238
1303.70957	0.60198
1301.78101	0.60125
1299.85244	0.60008
1297.92388	0.59870
1295.99531	0.59722
1294.06675	0.59575
1292.13818	0.59440
1290.20962	0.59304
1288.28105	0.59167
1286.35249	0.59036
1284.42393	0.58906
1282.49536	0.58763
1280.56680	0.58613
1278.63823	0.58472
1276.70967	0.58345
1274.78110	0.58229
1272.85254	0.58139
1270.92397	0.58072
1268.99541	0.57999
1267.06685	0.57912
1265.13828	0.57828
1263.20972	0.57748
1261.28115	0.57664
1259.35259	0.57592
1257.42402	0.57545
1255.49546	0.57518
1253.56689	0.57510
1251.63833	0.57514
1249.70977	0.57521
1247.78120	0.57519
1245.85264	0.57502
1243.92407	0.57457
1241.99551	0.57364
1240.06694	0.57218
1238.13838	0.57031
1236.20981	0.56815
1234.28125	0.56574
1232.35269	0.56335
1230.42412	0.56123
1228.49556	0.55925
1226.56699	0.55732
1224.63843	0.55550
1222.70986	0.55365
1220.78130	0.55177
1218.85273	0.55014
1216.92417	0.54891
1214.99561	0.54794
1213.06704	0.54702
1211.13848	0.54618
1209.20991	0.54549
1207.28135	0.54482
1205.35278	0.54409
1203.42422	0.54331
1201.49565	0.54244
1199.56709	0.54150
1197.63853	0.54055
1195.70996	0.53970
1193.78140	0.53894
1191.85283	0.53830
1189.92427	0.53785
1187.99570	0.53759
1186.06714	0.53751
1184.13857	0.53776
1182.21001	0.53841
1180.28145	0.53933
1178.35288	0.54041
1176.42432	0.54162
1174.49575	0.54293
1172.56719	0.54408
1170.63862	0.54471
1168.71006	0.54486
1166.78149	0.54472
1164.85293	0.54447
1162.92437	0.54427
1160.99580	0.54404
1159.06724	0.54358
1157.13867	0.54282
1155.21011	0.54197
1153.28154	0.54103
1151.35298	0.53945
1149.42441	0.53709
1147.49585	0.53439
1145.56729	0.53159
1143.63872	0.52880
1141.71016	0.52633
1139.78159	0.52422
1137.85303	0.52243
1135.92446	0.52127
1133.99590	0.52091
1132.06733	0.52097
1130.13877	0.52107
1128.21021	0.52098
1126.28164	0.52054
1124.35308	0.51984
1122.42451	0.51917
1120.49595	0.51877
1118.56738	0.51870
1116.63882	0.51883
1114.71025	0.51898
1112.78169	0.51924
1110.85312	0.51967
1108.92456	0.52015
1106.99600	0.52086
1105.06743	0.52192
1103.13887	0.52306
1101.21030	0.52436
1099.28174	0.52613
1097.35317	0.52835
1095.42461	0.53109
1093.49604	0.53465
1091.56748	0.53918
1089.63892	0.54466
1087.71035	0.55110
1085.78179	0.55828
1083.85322	0.56572
1081.92466	0.57267
1079.99609	0.57815
1078.06753	0.58134
1076.13896	0.58161
1074.21040	0.57874
1072.28184	0.57339
1070.35327	0.56670
1068.42471	0.55959
1066.49614	0.55259
1064.56758	0.54603
1062.63901	0.54026
1060.71045	0.53545
1058.78188	0.53136
1056.85332	0.52758
1054.92476	0.52394
1052.99619	0.52069
1051.06763	0.51804
1049.13906	0.51593
1047.21050	0.51437
1045.28193	0.51343
1043.35337	0.51277
1041.42480	0.51194
1039.49624	0.51120
1037.56768	0.51081
1035.63911	0.51038
1033.71055	0.50966
1031.78198	0.50876
1029.85342	0.50768
1027.92485	0.50638
1025.99629	0.50515
1024.06772	0.50440
1022.13916	0.50415
1020.21060	0.50421
1018.28203	0.50441
1016.35347	0.50467
1014.42490	0.50482
1012.49634	0.50479
1010.56777	0.50490
1008.63921	0.50531
1006.71064	0.50603
1004.78208	0.50726
1002.85352	0.50913
1000.92495	0.51165
998.99639	0.51501
997.06782	0.51908
995.13926	0.52337
993.21069	0.52746
991.28213	0.53084
989.35356	0.53302
987.42500	0.53408
985.49644	0.53457
983.56787	0.53498
981.63931	0.53543
979.71074	0.53621
977.78218	0.53767
975.85361	0.53960
973.92505	0.54181
971.99648	0.54454
970.06792	0.54783
968.13936	0.55142
966.21079	0.55525
964.28223	0.55948
962.35366	0.56425
960.42510	0.56945
958.49653	0.57493
956.56797	0.58073
954.63940	0.58658
952.71084	0.59241
950.78228	0.59875
948.85371	0.60548
946.92515	0.61197
944.99658	0.61805
943.06802	0.62388
941.13945	0.62971
939.21089	0.63582
937.28232	0.64215
935.35376	0.64808
933.42520	0.65328
931.49663	0.65830
929.56807	0.66373
927.63950	0.66974
925.71094	0.67625
923.78237	0.68299
921.85381	0.68948
919.92524	0.69575
917.99668	0.70269
916.06812	0.71052
914.13955	0.71837
912.21099	0.72581
910.28242	0.73294
908.35386	0.74055
906.42529	0.74912
904.49673	0.75770
902.56816	0.76640
900.63960	0.77634
898.71104	0.78679
896.78247	0.79645
894.85391	0.80553
892.92534	0.81456
890.99678	0.82459
889.06821	0.83668
887.13965	0.84864
885.21108	0.85909
883.28252	0.87041
881.35396	0.88311
879.42539	0.89501
877.49683	0.90542
875.56826	0.91609
873.63970	0.92767
871.71113	0.93920
869.78257	0.95096
867.85400	0.96306
865.92544	0.97372
863.99687	0.98266
862.06831	0.99310
860.13975	1.00617
858.21118	1.01945
856.28262	1.03217
854.35405	1.04551
852.42549	1.05894
850.49692	1.07011
848.56836	1.07825
846.63979	1.08631
844.71123	1.09663
842.78267	1.10732
840.85410	1.11879
838.92554	1.13361
836.99697	1.14919
835.06841	1.16151
833.13984	1.17035
831.21128	1.17714
829.28271	1.18353
827.35415	1.19225
825.42559	1.20721
823.49702	1.22573
821.56846	1.23633
819.63989	1.23950
817.71133	1.24482
815.78276	1.25519
813.85420	1.26834
811.92563	1.27866
809.99707	1.28978
808.06851	1.30869
806.13994	1.32513
804.21138	1.32730
802.28281	1.33485
800.35425	1.36661
798.42568	1.39282
796.49712	1.37818
794.56855	1.35378
792.63999	1.35827
790.71143	1.38121
788.78286	1.38650
786.85430	1.37780
784.92573	1.38943
782.99717	1.39514
781.06860	1.34975
779.14004	1.29303
777.21147	1.25361
775.28291	1.20851
773.35435	1.16315
771.42578	1.12591
769.49722	1.08751
767.56865	1.06110
765.64009	1.07444
763.71152	1.11013
761.78296	1.12383
759.85439	1.09078
757.92583	1.02285
755.99727	0.95025
754.06870	0.90789
752.14014	0.88970
750.21157	0.86363
748.28301	0.84886
746.35444	0.85132
744.42588	0.81849
742.49731	0.75907
740.56875	0.71132
738.64019	0.65343
736.71162	0.57821
734.78306	0.50670
732.85449	0.43597
730.92593	0.34889
728.99736	0.25553
727.06880	0.17797
725.14023	0.11040
723.21167	0.03040
721.28311	-0.05603
719.35454	-0.11709
717.42598	-0.17828
715.49741	-0.31120
713.56885	-0.39074
711.64028	-0.28122
709.71172	-0.18746
707.78315	-0.17072
705.85459	-0.13748
703.92603	-0.03714
701.99746	0.03009
700.06890	-0.00598
698.14033	-0.06722
696.21177	-0.10844
694.28320	-0.15898
692.35464	-0.19127
690.42607	-0.14981
688.49751	-0.06508
686.56895	-0.02473
684.64038	-0.04611
682.71182	-0.07807
680.78325	-0.06232
678.85469	-0.01051
676.92612	0.01918
674.99756	-0.04165
673.06899	-0.16751
671.14043	-0.20046
669.21187	-0.14163
667.28330	-0.11824
665.35474	-0.14285
663.42617	-0.13220
661.49761	-0.07021
659.56904	0.00476
657.64048	0.04720
655.71191	0.02435
653.78335	-0.01175
651.85479	-0.01768
649.92622	0.00191
647.99766	0.02220
646.06909	0.01991
644.14053	0.01098
642.21196	0.01575
640.28340	-0.00751
638.35483	-0.06660
636.42627	-0.10718
634.49771	-0.10948
632.56914	-0.08448
630.64058	-0.05257
628.71201	-0.01139
626.78345	0.03184
624.85488	0.03824
622.92632	0.01164
620.99775	-0.02912
619.06919	-0.06204
617.14062	-0.06404
615.21206	-0.04023
613.28350	-0.00554
611.35493	0.00121
609.42637	-0.01613
607.49780	-0.00643
605.56924	0.00072
603.64067	-0.02192
601.71211	-0.04900
599.78354	-0.06560
597.85498	-0.06814
595.92642	-0.06444
593.99785	-0.06680
592.06929	-0.05394
590.14072	-0.03427
588.21216	-0.02200
586.28359	-0.01948
584.35503	-0.03146
582.42646	-0.03409
580.49790	0.00765
578.56934	0.04972
576.64077	0.04832
574.71221	0.02343
572.78364	0.01644
570.85508	0.03988
568.92651	0.05252
566.99795	0.03805
565.06938	0.01586
563.14082	-0.00160
561.21226	0.00734
559.28369	0.02255
557.35513	0.00785
555.42656	-0.01385
553.49800	-0.02279
551.56943	-0.02239
549.64087	-0.00965
547.71230	0.00594
545.78374	0.01278
543.85518	0.01362
541.92661	-0.00983
539.99805	-0.04477
538.06948	-0.04339
536.14092	-0.00329
534.21235	0.01678
532.28379	-0.00291
530.35522	-0.01839
528.42666	-0.02109
526.49810	-0.02597
524.56953	-0.01939
522.64097	-0.01307
520.71240	-0.00176
518.78384	0.04029
516.85527	0.06046
514.92671	0.02887
512.99814	-0.00743
511.06958	-0.02762
509.14102	-0.02761
507.21245	-0.00367
505.28389	0.03092
503.35532	0.03920
501.42676	0.01273
499.49819	0.00717
