3997.91411	0.07233
3995.98555	0.07262
3994.05698	0.07299
3992.12842	0.07346
3990.19985	0.07378
3988.27129	0.07388
3986.34272	0.07390
3984.41416	0.07414
3982.48560	0.07450
3980.55703	0.07460
3978.62847	0.07466
3976.69990	0.07486
3974.77134	0.07506
3972.84277	0.07541
3970.91421	0.07575
3968.98564	0.07579
3967.05708	0.07592
3965.12852	0.07630
3963.19995	0.07657
3961.27139	0.07659
3959.34282	0.07650
3957.41426	0.07653
3955.48569	0.07674
3953.55713	0.07695
3951.62856	0.07702
3949.70000	0.07716
3947.77144	0.07743
3945.84287	0.07731
3943.91431	0.07683
3941.98574	0.07663
3940.05718	0.07669
3938.12861	0.07664
3936.20005	0.07656
3934.27148	0.07670
3932.34292	0.07722
3930.41436	0.07780
3928.48579	0.07780
3926.55723	0.07743
3924.62866	0.07721
3922.70010	0.07698
3920.77153	0.07673
3918.84297	0.07702
3916.91440	0.07743
3914.98584	0.07687
3913.05728	0.07583
3911.12871	0.07543
3909.20015	0.07562
3907.27158	0.07600
3905.34302	0.07659
3903.41445	0.07737
3901.48589	0.07802
3899.55732	0.07824
3897.62876	0.07746
3895.70020	0.07628
3893.77163	0.07584
3891.84307	0.07633
3889.91450	0.07687
3887.98594	0.07660
3886.05737	0.07651
3884.12881	0.07721
3882.20024	0.07759
3880.27168	0.07743
3878.34312	0.07709
3876.41455	0.07683
3874.48599	0.07723
3872.55742	0.07817
3870.62886	0.07899
3868.70029	0.07939
3866.77173	0.07925
3864.84316	0.07953
3862.91460	0.08031
3860.98604	0.08023
3859.05747	0.07961
3857.12891	0.07973
3855.20034	0.08102
3853.27178	0.08338
3851.34321	0.08456
3849.41465	0.08314
3847.48608	0.08189
3845.55752	0.08189
3843.62896	0.08301
3841.70039	0.08464
3839.77183	0.08613
3837.84326	0.08707
3835.91470	0.08727
3833.98613	0.08709
3832.05757	0.08708
3830.12900	0.08743
3828.20044	0.08796
3826.27187	0.08865
3824.34331	0.08934
3822.41475	0.09065
3820.48618	0.09320
3818.55762	0.09442
3816.62905	0.09420
3814.70049	0.09470
3812.77192	0.09498
3810.84336	0.09482
3808.91479	0.09540
3806.98623	0.09685
3805.05767	0.09805
3803.12910	0.09910
3801.20054	0.10161
3799.27197	0.10428
3797.34341	0.10497
3795.41484	0.10513
3793.48628	0.10545
3791.55771	0.10600
3789.62915	0.10680
3787.70059	0.10778
3785.77202	0.10934
3783.84346	0.11157
3781.91489	0.11349
3779.98633	0.11518
3778.05776	0.11720
3776.12920	0.11837
3774.20063	0.11890
3772.27207	0.12006
3770.34351	0.12211
3768.41494	0.12467
3766.48638	0.12687
3764.55781	0.12881
3762.62925	0.13072
3760.70068	0.13277
3758.77212	0.13539
3756.84355	0.13811
3754.91499	0.14053
3752.98643	0.14354
3751.05786	0.14803
3749.12930	0.15257
3747.20073	0.15435
3745.27217	0.15581
3743.34360	0.15957
3741.41504	0.16322
3739.48647	0.16549
3737.55791	0.16852
3735.62935	0.17330
3733.70078	0.17922
3731.77222	0.18405
3729.84365	0.18735
3727.91509	0.19066
3725.98652	0.19564
3724.05796	0.20245
3722.12939	0.20992
3720.20083	0.21742
3718.27227	0.22479
3716.34370	0.23206
3714.41514	0.23911
3712.48657	0.24780
3710.55801	0.26118
3708.62944	0.27582
3706.70088	0.28732
3704.77231	0.29830
3702.84375	0.31137
3700.91519	0.32836
3698.98662	0.34658
3697.05806	0.36339
3695.12949	0.38163
3693.20093	0.40167
3691.27236	0.42346
3689.34380	0.45207
3687.41523	0.48775
3685.48667	0.51841
3683.55811	0.54472
3681.62954	0.57277
3679.70098	0.60397
3677.77241	0.63700
3675.84385	0.67690
3673.91528	0.73158
3671.98672	0.77520
3670.05815	0.81358
3668.12959	0.86823
3666.20103	0.91753
3664.27246	0.95763
3662.34390	1.00087
3660.41533	1.04788
3658.48677	1.09378
3656.55820	1.14284
3654.62964	1.19891
3652.70107	1.24551
3650.77251	1.28516
3648.84395	1.34283
3646.91538	1.41479
3644.98682	1.46393
3643.05825	1.50168
3641.12969	1.54197
3639.20112	1.58637
3637.27256	1.63052
3635.34399	1.67379
3633.41543	1.71751
3631.48687	1.75818
3629.55830	1.79954
3627.62974	1.85546
3625.70117	1.90667
3623.77261	1.93947
3621.84404	1.97162
3619.91548	2.01012
3617.98691	2.05709
3616.05835	2.10157
3614.12979	2.13882
3612.20122	2.17841
3610.27266	2.21728
3608.34409	2.25593
3606.41553	2.29890
3604.48696	2.33945
3602.55840	2.37462
3600.62983	2.41260
3598.70127	2.45506
3596.77271	2.49666
3594.84414	2.53749
3592.91558	2.57937
3590.98701	2.61945
3589.05845	2.65644
3587.12988	2.70032
3585.20132	2.74807
3583.27275	2.78771
3581.34419	2.82545
3579.41562	2.86628
3577.48706	2.90930
3575.55850	2.95377
3573.62993	2.99876
3571.70137	3.03915
3569.77280	3.07631
3567.84424	3.11847
3565.91567	3.17281
3563.98711	3.22488
3562.05854	3.26655
3560.12998	3.30928
3558.20142	3.35487
3556.27285	3.39937
3554.34429	3.44270
3552.41572	3.48943
3550.48716	3.53769
3548.55859	3.58263
3546.63003	3.62515
3544.70146	3.67136
3542.77290	3.72271
3540.84434	3.77186
3538.91577	3.81769
3536.98721	3.86501
3535.05864	3.91471
3533.13008	3.96109
3531.20151	4.00620
3529.27295	4.05546
3527.34438	4.10608
3525.41582	4.15227
3523.48726	4.19860
3521.55869	4.25031
3519.63013	4.30036
3517.70156	4.34668
3515.77300	4.39370
3513.84443	4.44195
3511.91587	4.48895
3509.98730	4.53634
3508.05874	4.58327
3506.13018	4.62730
3504.20161	4.67304
3502.27305	4.72223
3500.34448	4.76930
3498.41592	4.81196
3496.48735	4.85711
3494.55879	4.90725
3492.63022	4.95833
3490.70166	5.00808
3488.77310	5.05518
3486.84453	5.10011
3484.91597	5.14528
3482.98740	5.19554
3481.05884	5.25377
3479.13027	5.30869
3477.20171	5.35279
3475.27314	5.39891
3473.34458	5.45107
3471.41602	5.49303
3469.48745	5.52755
3467.55889	5.57359
3465.63032	5.63236
3463.70176	5.69766
3461.77319	5.75308
3459.84463	5.79118
3457.91606	5.83197
3455.98750	5.88542
3454.05894	5.94664
3452.13037	6.00953
3450.20181	6.05544
3448.27324	6.07342
3446.34468	6.09200
3444.41611	6.14042
3442.48755	6.20703
3440.55898	6.26543
3438.63042	6.31430
3436.70186	6.35185
3434.77329	6.37733
3432.84473	6.40784
3430.91616	6.46545
3428.98760	6.55075
3427.05903	6.61154
3425.13047	6.64569
3423.20190	6.68757
3421.27334	6.72792
3419.34478	6.76984
3417.41621	6.82964
3415.48765	6.89868
3413.55908	6.96500
3411.63052	7.00656
3409.70195	7.00784
3407.77339	7.01162
3405.84482	7.02903
3403.91626	7.07001
3401.98770	7.13842
3400.05913	7.18765
3398.13057	7.22482
3396.20200	7.27261
3394.27344	7.29436
3392.34487	7.28388
3390.41631	7.31877
3388.48774	7.41773
3386.55918	7.51002
3384.63062	7.55224
3382.70205	7.59061
3380.77349	7.60616
3378.84492	7.58214
3376.91636	7.61609
3374.98779	7.67700
3373.05923	7.69399
3371.13066	7.70814
3369.20210	7.72580
3367.27354	7.71664
3365.34497	7.75111
3363.41641	7.83060
3361.48784	7.86946
3359.55928	7.86989
3357.63071	7.85659
3355.70215	7.88823
3353.77358	7.92548
3351.84502	7.88653
3349.91646	7.83679
3347.98789	7.84392
3346.05933	7.84027
3344.13076	7.78204
3342.20220	7.75054
3340.27363	7.78237
3338.34507	7.82592
3336.41650	7.82821
3334.48794	7.81892
3332.55937	7.82268
3330.63081	7.87179
3328.70225	7.93393
3326.77368	7.92948
3324.84512	7.94416
3322.91655	8.06823
3320.98799	8.17162
3319.05942	8.09500
3317.13086	7.99347
3315.20229	7.99617
3313.27373	8.05166
3311.34517	8.05610
3309.41660	8.03814
3307.48804	8.09590
3305.55947	8.21442
3303.63091	8.27156
3301.70234	8.17333
3299.77378	8.12102
3297.84521	8.19185
3295.91665	8.23022
3293.98809	8.20438
3292.05952	8.19718
3290.13096	8.24546
3288.20239	8.30246
3286.27383	8.29027
3284.34526	8.25968
3282.41670	8.31211
3280.48813	8.33165
3278.55957	8.27208
3276.63101	8.24183
3274.70244	8.22238
3272.77388	8.14286
3270.84531	8.06490
3268.91675	8.05358
3266.98818	8.07802
3265.05962	8.12236
3263.13105	8.06057
3261.20249	7.95935
3259.27393	8.00697
3257.34536	8.10320
3255.41680	8.09983
3253.48823	7.99959
3251.55967	7.90463
3249.63110	7.90753
3247.70254	7.98568
3245.77397	8.08737
3243.84541	8.13771
3241.91685	8.03745
3239.98828	7.86554
3238.05972	7.77704
3236.13115	7.84575
3234.20259	7.98885
3232.27402	8.01437
3230.34546	7.96586
3228.41689	7.99568
3226.48833	8.06615
3224.55977	8.08118
3222.63120	8.05470
3220.70264	7.98925
3218.77407	7.86902
3216.84551	7.80377
3214.91694	7.86198
3212.98838	7.92666
3211.05981	7.88414
3209.13125	7.79594
3207.20269	7.74349
3205.27412	7.73567
3203.34556	7.74770
3201.41699	7.76146
3199.48843	7.75322
3197.55986	7.71380
3195.63130	7.65170
3193.70273	7.54053
3191.77417	7.42604
3189.84561	7.38531
3187.91704	7.38045
3185.98848	7.36399
3184.05991	7.33518
3182.13135	7.29328
3180.20278	7.23771
3178.27422	7.16557
3176.34565	7.10846
3174.41709	7.08234
3172.48853	7.05295
3170.55996	6.97880
3168.63140	6.88604
3166.70283	6.82031
3164.77427	6.75445
3162.84570	6.67255
3160.91714	6.61146
3158.98857	6.58609
3157.06001	6.55152
3155.13145	6.48306
3153.20288	6.40644
3151.27432	6.33553
3149.34575	6.28231
3147.41719	6.24576
3145.48862	6.19674
3143.56006	6.11934
3141.63149	6.03009
3139.70293	5.94976
3137.77437	5.88711
3135.84580	5.83809
3133.91724	5.78173
3131.98867	5.70394
3130.06011	5.62452
3128.13154	5.56130
3126.20298	5.50062
3124.27441	5.42694
3122.34585	5.34778
3120.41729	5.27585
3118.48872	5.20688
3116.56016	5.13820
3114.63159	5.07304
3112.70303	5.00709
3110.77446	4.93576
3108.84590	4.86252
3106.91733	4.79684
3104.98877	4.73703
3103.06021	4.67316
3101.13164	4.60487
3099.20308	4.53780
3097.27451	4.47303
3095.34595	4.40841
3093.41738	4.34387
3091.48882	4.28131
3089.56025	4.22067
3087.63169	4.15832
3085.70312	4.09368
3083.77456	4.03131
3081.84600	3.97295
3079.91743	3.91460
3077.98887	3.85406
3076.06030	3.79472
3074.13174	3.73942
3072.20317	3.68596
3070.27461	3.63166
3068.34604	3.57516
3066.41748	3.51566
3064.48892	3.45765
3062.56035	3.40439
3060.63179	3.35108
3058.70322	3.29419
3056.77466	3.23785
3054.84609	3.18662
3052.91753	3.13781
3050.98896	3.08713
3049.06040	3.03520
3047.13184	2.98485
3045.20327	2.93640
3043.27471	2.88868
3041.34614	2.84129
3039.41758	2.79390
3037.48901	2.74690
3035.56045	2.70141
3033.63188	2.65789
3031.70332	2.61441
3029.77476	2.56969
3027.84619	2.52549
3025.91763	2.48242
3023.98906	2.43953
3022.06050	2.39753
3020.13193	2.35695
3018.20337	2.31686
3016.27480	2.27718
3014.34624	2.23801
3012.41768	2.19854
3010.48911	2.15942
3008.56055	2.12218
3006.63198	2.08662
3004.70342	2.05172
3002.77485	2.01696
3000.84629	1.98265
2998.91772	1.94915
2996.98916	1.91637
2995.06060	1.88434
2993.13203	1.85291
2991.20347	1.82182
2989.27490	1.79178
2987.34634	1.76272
2985.41777	1.73358
2983.48921	1.70456
2981.56064	1.67620
2979.63208	1.64828
2977.70352	1.62081
2975.77495	1.59437
2973.84639	1.56877
2971.91782	1.54295
2969.98926	1.51667
2968.06069	1.49071
2966.13213	1.46551
2964.20356	1.44057
2962.27500	1.41541
2960.34644	1.38996
2958.41787	1.36486
2956.48931	1.34111
2954.56074	1.31813
2952.63218	1.29484
2950.70361	1.27174
2948.77505	1.24908
2946.84648	1.22663
2944.91792	1.20457
2942.98936	1.18248
2941.06079	1.15981
2939.13223	1.13691
2937.20366	1.11430
2935.27510	1.09190
2933.34653	1.06943
2931.41797	1.04691
2929.48940	1.02482
2927.56084	1.00375
2925.63228	0.98339
2923.70371	0.96347
2921.77515	0.94497
2919.84658	0.92850
2917.91802	0.91375
2915.98945	0.90044
2914.06089	0.88777
2912.13232	0.87505
2910.20376	0.86240
2908.27520	0.84964
2906.34663	0.83683
2904.41807	0.82407
2902.48950	0.81119
2900.56094	0.79844
2898.63237	0.78602
2896.70381	0.77406
2894.77524	0.76270
2892.84668	0.75142
2890.91812	0.73986
2888.98955	0.72861
2887.06099	0.71804
2885.13242	0.70784
2883.20386	0.69762
2881.27529	0.68742
2879.34673	0.67741
2877.41816	0.66735
2875.48960	0.65689
2873.56104	0.64626
2871.63247	0.63557
2869.70391	0.62435
2867.77534	0.61245
2865.84678	0.60005
2863.91821	0.58726
2861.98965	0.57430
2860.06108	0.56148
2858.13252	0.54871
2856.20396	0.53609
2854.27539	0.52432
2852.34683	0.51406
2850.41826	0.50564
2848.48970	0.49930
2846.56113	0.49442
2844.63257	0.49007
2842.70400	0.48588
2840.77544	0.48158
2838.84687	0.47678
2836.91831	0.47162
2834.98975	0.46649
2833.06118	0.46143
2831.13262	0.45605
2829.20405	0.45002
2827.27549	0.44376
2825.34692	0.43775
2823.41836	0.43191
2821.48979	0.42610
2819.56123	0.42041
2817.63267	0.41476
2815.70410	0.40891
2813.77554	0.40311
2811.84697	0.39757
2809.91841	0.39207
2807.98984	0.38660
2806.06128	0.38124
2804.13271	0.37588
2802.20415	0.37059
2800.27559	0.36550
2798.34702	0.36056
2796.41846	0.35570
2794.48989	0.35093
2792.56133	0.34612
2790.63276	0.34128
2788.70420	0.33659
2786.77563	0.33212
2784.84707	0.32775
2782.91851	0.32337
2780.98994	0.31909
2779.06138	0.31504
2777.13281	0.31110
2775.20425	0.30708
2773.27568	0.30304
2771.34712	0.29913
2769.41855	0.29545
2767.48999	0.29188
2765.56143	0.28816
2763.63286	0.28436
2761.70430	0.28079
2759.77573	0.27746
2757.84717	0.27417
2755.91860	0.27088
2753.99004	0.26768
2752.06147	0.26461
2750.13291	0.26163
2748.20435	0.25863
2746.27578	0.25553
2744.34722	0.25238
2742.41865	0.24935
2740.49009	0.24666
2738.56152	0.24420
2736.63296	0.24160
2734.70439	0.23892
2732.77583	0.23636
2730.84727	0.23391
2728.91870	0.23153
2726.99014	0.22921
2725.06157	0.22700
2723.13301	0.22489
2721.20444	0.22278
2719.27588	0.22060
2717.34731	0.21841
2715.41875	0.21642
2713.49019	0.21455
2711.56162	0.21248
2709.63306	0.21035
2707.70449	0.20858
2705.77593	0.20708
2703.84736	0.20561
2701.91880	0.20409
2699.99023	0.20250
2698.06167	0.20089
2696.13311	0.19928
2694.20454	0.19761
2692.27598	0.19601
2690.34741	0.19461
2688.41885	0.19342
2686.49028	0.19227
2684.56172	0.19100
2682.63315	0.18964
2680.70459	0.18838
2678.77603	0.18718
2676.84746	0.18583
2674.91890	0.18440
2672.99033	0.18305
2671.06177	0.18180
2669.13320	0.18066
2667.20464	0.17967
2665.27607	0.17882
2663.34751	0.17797
2661.41895	0.17702
2659.49038	0.17609
2657.56182	0.17521
2655.63325	0.17426
2653.70469	0.17336
2651.77612	0.17269
2649.84756	0.17216
2647.91899	0.17149
2645.99043	0.17069
2644.06187	0.17001
2642.13330	0.16949
2640.20474	0.16888
2638.27617	0.16814
2636.34761	0.16753
2634.41904	0.16708
2632.49048	0.16667
2630.56191	0.16618
2628.63335	0.16555
2626.70479	0.16492
2624.77622	0.16444
2622.84766	0.16416
2620.91909	0.16394
2618.99053	0.16365
2617.06196	0.16342
2615.13340	0.16324
2613.20483	0.16303
2611.27627	0.16291
2609.34771	0.16289
2607.41914	0.16273
2605.49058	0.16250
2603.56201	0.16233
2601.63345	0.16215
2599.70488	0.16196
2597.77632	0.16190
2595.84775	0.16191
2593.91919	0.16186
2591.99062	0.16180
2590.06206	0.16178
2588.13350	0.16190
2586.20493	0.16224
2584.27637	0.16265
2582.34780	0.16281
2580.41924	0.16276
2578.49067	0.16276
2576.56211	0.16297
2574.63354	0.16332
2572.70498	0.16370
2570.77642	0.16404
2568.84785	0.16436
2566.91929	0.16470
2564.99072	0.16499
2563.06216	0.16532
2561.13359	0.16574
2559.20503	0.16610
2557.27646	0.16635
2555.34790	0.16670
2553.41934	0.16729
2551.49077	0.16789
2549.56221	0.16832
2547.63364	0.16873
2545.70508	0.16927
2543.77651	0.16989
2541.84795	0.17050
2539.91938	0.17105
2537.99082	0.17158
2536.06226	0.17221
2534.13369	0.17290
2532.20513	0.17356
2530.27656	0.17416
2528.34800	0.17472
2526.41943	0.17528
2524.49087	0.17593
2522.56230	0.17662
2520.63374	0.17730
2518.70518	0.17808
2516.77661	0.17890
2514.84805	0.17960
2512.91948	0.18026
2510.99092	0.18099
2509.06235	0.18174
2507.13379	0.18243
2505.20522	0.18316
2503.27666	0.18398
2501.34810	0.18475
2499.41953	0.18543
2497.49097	0.18622
2495.56240	0.18701
2493.63384	0.18770
2491.70527	0.18849
2489.77671	0.18939
2487.84814	0.19026
2485.91958	0.19114
2483.99102	0.19212
2482.06245	0.19316
2480.13389	0.19409
2478.20532	0.19481
2476.27676	0.19549
2474.34819	0.19627
2472.41963	0.19707
2470.49106	0.19776
2468.56250	0.19847
2466.63394	0.19925
2464.70537	0.20012
2462.77681	0.20108
2460.84824	0.20203
2458.91968	0.20292
2456.99111	0.20392
2455.06255	0.20499
2453.13398	0.20601
2451.20542	0.20701
2449.27686	0.20788
2447.34829	0.20873
2445.41973	0.20980
2443.49116	0.21094
2441.56260	0.21188
2439.63403	0.21269
2437.70547	0.21358
2435.77690	0.21451
2433.84834	0.21539
2431.91978	0.21638
2429.99121	0.21750
2428.06265	0.21855
2426.13408	0.21953
2424.20552	0.22051
2422.27695	0.22160
2420.34839	0.22281
2418.41982	0.22394
2416.49126	0.22497
2414.56270	0.22601
2412.63413	0.22706
2410.70557	0.22818
2408.77700	0.22941
2406.84844	0.23063
2404.91987	0.23179
2402.99131	0.23296
2401.06274	0.23425
2399.13418	0.23553
2397.20562	0.23674
2395.27705	0.23795
2393.34849	0.23908
2391.41992	0.24023
2389.49136	0.24148
2387.56279	0.24271
2385.63423	0.24394
2383.70566	0.24525
2381.77710	0.24649
2379.84854	0.24768
2377.91997	0.24916
2375.99141	0.25085
2374.06284	0.25245
2372.13428	0.25391
2370.20571	0.25518
2368.27715	0.25649
2366.34858	0.25860
2364.42002	0.26067
2362.49146	0.26146
2360.56289	0.26231
2358.63433	0.26423
2356.70576	0.26623
2354.77720	0.26763
2352.84863	0.26919
2350.92007	0.27083
2348.99150	0.27188
2347.06294	0.27254
2345.13437	0.27353
2343.20581	0.27534
2341.27725	0.27733
2339.34868	0.27888
2337.42012	0.28049
2335.49155	0.28241
2333.56299	0.28427
2331.63442	0.28631
2329.70586	0.28832
2327.77729	0.29003
2325.84873	0.29163
2323.92017	0.29324
2321.99160	0.29497
2320.06304	0.29670
2318.13447	0.29820
2316.20591	0.29960
2314.27734	0.30127
2312.34878	0.30318
2310.42021	0.30505
2308.49165	0.30673
2306.56309	0.30847
2304.63452	0.31031
2302.70596	0.31215
2300.77739	0.31399
2298.84883	0.31582
2296.92026	0.31762
2294.99170	0.31932
2293.06313	0.32107
2291.13457	0.32301
2289.20601	0.32505
2287.27744	0.32711
2285.34888	0.32917
2283.42031	0.33120
2281.49175	0.33309
2279.56318	0.33494
2277.63462	0.33690
2275.70605	0.33891
2273.77749	0.34091
2271.84893	0.34301
2269.92036	0.34529
2267.99180	0.34757
2266.06323	0.34968
2264.13467	0.35170
2262.20610	0.35382
2260.27754	0.35600
2258.34897	0.35815
2256.42041	0.36029
2254.49185	0.36240
2252.56328	0.36447
2250.63472	0.36661
2248.70615	0.36886
2246.77759	0.37108
2244.84902	0.37325
2242.92046	0.37551
2240.99189	0.37785
2239.06333	0.38012
2237.13477	0.38232
2235.20620	0.38452
2233.27764	0.38674
2231.34907	0.38901
2229.42051	0.39133
2227.49194	0.39360
2225.56338	0.39580
2223.63481	0.39799
2221.70625	0.40016
2219.77769	0.40229
2217.84912	0.40449
2215.92056	0.40678
2213.99199	0.40899
2212.06343	0.41112
2210.13486	0.41331
2208.20630	0.41556
2206.27773	0.41768
2204.34917	0.41960
2202.42061	0.42154
2200.49204	0.42364
2198.56348	0.42574
2196.63491	0.42766
2194.70635	0.42946
2192.77778	0.43135
2190.84922	0.43340
2188.92065	0.43546
2186.99209	0.43740
2185.06353	0.43916
2183.13496	0.44088
2181.20640	0.44258
2179.27783	0.44421
2177.34927	0.44583
2175.42070	0.44735
2173.49214	0.44877
2171.56357	0.45023
2169.63501	0.45174
2167.70645	0.45318
2165.77788	0.45447
2163.84932	0.45566
2161.92075	0.45684
2159.99219	0.45788
2158.06362	0.45876
2156.13506	0.45972
2154.20649	0.46071
2152.27793	0.46157
2150.34937	0.46235
2148.42080	0.46303
2146.49224	0.46351
2144.56367	0.46388
2142.63511	0.46432
2140.70654	0.46479
2138.77798	0.46512
2136.84941	0.46529
2134.92085	0.46539
2132.99229	0.46545
2131.06372	0.46540
2129.13516	0.46529
2127.20659	0.46512
2125.27803	0.46488
2123.34946	0.46453
2121.42090	0.46408
2119.49233	0.46357
2117.56377	0.46295
2115.63521	0.46218
2113.70664	0.46125
2111.77808	0.46021
2109.84951	0.45924
2107.92095	0.45833
2105.99238	0.45721
2104.06382	0.45588
2102.13525	0.45456
2100.20669	0.45337
2098.27812	0.45211
2096.34956	0.45063
2094.42100	0.44905
2092.49243	0.44751
2090.56387	0.44595
2088.63530	0.44416
2086.70674	0.44225
2084.77817	0.44035
2082.84961	0.43842
2080.92104	0.43643
2078.99248	0.43439
2077.06392	0.43226
2075.13535	0.43005
2073.20679	0.42789
2071.27822	0.42579
2069.34966	0.42373
2067.42109	0.42163
2065.49253	0.41937
2063.56396	0.41684
2061.63540	0.41427
2059.70684	0.41177
2057.77827	0.40920
2055.84971	0.40654
2053.92114	0.40391
2051.99258	0.40139
2050.06401	0.39885
2048.13545	0.39619
2046.20688	0.39349
2044.27832	0.39076
2042.34976	0.38796
2040.42119	0.38507
2038.49263	0.38221
2036.56406	0.37948
2034.63550	0.37684
2032.70693	0.37413
2030.77837	0.37133
2028.84980	0.36848
2026.92124	0.36562
2024.99268	0.36280
2023.06411	0.36009
2021.13555	0.35739
2019.20698	0.35468
2017.27842	0.35191
2015.34985	0.34900
2013.42129	0.34611
2011.49272	0.34336
2009.56416	0.34070
2007.63560	0.33796
2005.70703	0.33515
2003.77847	0.33242
2001.84990	0.32979
1999.92134	0.32715
1997.99277	0.32448
1996.06421	0.32187
1994.13564	0.31943
1992.20708	0.31700
1990.27852	0.31439
1988.34995	0.31176
1986.42139	0.30922
1984.49282	0.30680
1982.56426	0.30450
1980.63569	0.30209
1978.70713	0.29963
1976.77856	0.29730
1974.85000	0.29507
1972.92144	0.29282
1970.99287	0.29060
1969.06431	0.28853
1967.13574	0.28654
1965.20718	0.28449
1963.27861	0.28253
1961.35005	0.28064
1959.42148	0.27865
1957.49292	0.27667
1955.56436	0.27480
1953.63579	0.27305
1951.70723	0.27129
1949.77866	0.26956
1947.85010	0.26793
1945.92153	0.26636
1943.99297	0.26487
1942.06440	0.26346
1940.13584	0.26196
1938.20728	0.26045
1936.27871	0.25903
1934.35015	0.25759
1932.42158	0.25617
1930.49302	0.25489
1928.56445	0.25384
1926.63589	0.25288
1924.70732	0.25192
1922.77876	0.25091
1920.85020	0.24989
1918.92163	0.24902
1916.99307	0.24815
1915.06450	0.24707
1913.13594	0.24608
1911.20737	0.24543
1909.27881	0.24487
1907.35024	0.24419
1905.42168	0.24343
1903.49312	0.24269
1901.56455	0.24202
1899.63599	0.24148
1897.70742	0.24106
1895.77886	0.24072
1893.85029	0.24046
1891.92173	0.24019
1889.99316	0.23997
1888.06460	0.23967
1886.13604	0.23933
1884.20747	0.23911
1882.27891	0.23889
1880.35034	0.23865
1878.42178	0.23849
1876.49321	0.23841
1874.56465	0.23830
1872.63608	0.23832
1870.70752	0.23866
1868.77896	0.23941
1866.85039	0.23983
1864.92183	0.23958
1862.99326	0.23944
1861.06470	0.23963
1859.13613	0.23997
1857.20757	0.24026
1855.27900	0.24059
1853.35044	0.24097
1851.42187	0.24146
1849.49331	0.24213
1847.56475	0.24295
1845.63618	0.24384
1843.70762	0.24482
1841.77905	0.24547
1839.85049	0.24584
1837.92192	0.24662
1835.99336	0.24759
1834.06479	0.24848
1832.13623	0.24952
1830.20767	0.25114
1828.27910	0.25275
1826.35054	0.25371
1824.42197	0.25477
1822.49341	0.25588
1820.56484	0.25699
1818.63628	0.25829
1816.70771	0.25985
1814.77915	0.26150
1812.85059	0.26337
1810.92202	0.26552
1808.99346	0.26766
1807.06489	0.26958
1805.13633	0.27137
1803.20776	0.27347
1801.27920	0.27601
1799.35063	0.27884
1797.42207	0.28130
1795.49351	0.28366
1793.56494	0.28657
1791.63638	0.29035
1789.70781	0.29369
1787.77925	0.29603
1785.85068	0.29904
1783.92212	0.30277
1781.99355	0.30674
1780.06499	0.31101
1778.13643	0.31538
1776.20786	0.31934
1774.27930	0.32354
1772.35073	0.32939
1770.42217	0.33575
1768.49360	0.34092
1766.56504	0.34594
1764.63647	0.35104
1762.70791	0.35664
1760.77935	0.36386
1758.85078	0.37053
1756.92222	0.37713
1754.99365	0.38433
1753.06509	0.39063
1751.13652	0.39810
1749.20796	0.40799
1747.27939	0.41803
1745.35083	0.42680
1743.42227	0.43613
1741.49370	0.44664
1739.56514	0.45931
1737.63657	0.47206
1735.70801	0.48314
1733.77944	0.50027
1731.85088	0.52078
1729.92231	0.53614
1727.99375	0.55164
1726.06519	0.56848
1724.13662	0.58714
1722.20806	0.60741
1720.27949	0.62588
1718.35093	0.64745
1716.42236	0.68027
1714.49380	0.71140
1712.56523	0.73584
1710.63667	0.75943
1708.70811	0.78489
1706.77954	0.81408
1704.85098	0.84954
1702.92241	0.88092
1700.99385	0.91104
1699.06528	0.95746
1697.13672	1.00167
1695.20815	1.04697
1693.27959	1.08978
1691.35103	1.12357
1689.42246	1.16360
1687.49390	1.20644
1685.56533	1.24703
1683.63677	1.31202
1681.70820	1.38165
1679.77964	1.42426
1677.85107	1.46419
1675.92251	1.50998
1673.99395	1.56774
1672.06538	1.61968
1670.13682	1.67117
1668.20825	1.74053
1666.27969	1.79585
1664.35112	1.84230
1662.42256	1.90350
1660.49399	1.97471
1658.56543	2.02722
1656.63687	2.06757
1654.70830	2.10223
1652.77974	2.15912
1650.85117	2.22270
1648.92261	2.24585
1646.99404	2.27125
1645.06548	2.29871
1643.13691	2.31821
1641.20835	2.32769
1639.27979	2.33662
1637.35122	2.34195
1635.42266	2.33906
1633.49409	2.33057
1631.56553	2.31755
1629.63696	2.30071
1627.70840	2.27139
1625.77983	2.23834
1623.85127	2.19587
1621.92271	2.14337
1619.99414	2.09798
1618.06558	2.05307
1616.13701	1.98595
1614.20845	1.91914
1612.27988	1.87087
1610.35132	1.82037
1608.42275	1.76480
1606.49419	1.70941
1604.56562	1.65859
1602.63706	1.60982
1600.70850	1.56240
1598.77993	1.51875
1596.85137	1.47772
1594.92280	1.43788
1592.99424	1.39924
1591.06567	1.36396
1589.13711	1.33135
1587.20854	1.30165
1585.27998	1.27440
1583.35142	1.24859
1581.42285	1.22502
1579.49429	1.20549
1577.56572	1.18864
1575.63716	1.16816
1573.70859	1.15031
1571.78003	1.13908
1569.85146	1.12779
1567.92290	1.11549
1565.99434	1.10678
1564.06577	1.10078
1562.13721	1.09650
1560.20864	1.09460
1558.28008	1.09687
1556.35151	1.10065
1554.42295	1.10156
1552.49438	1.10197
1550.56582	1.10145
1548.63726	1.09901
1546.70869	1.09394
1544.78013	1.08527
1542.85156	1.07282
1540.92300	1.05361
1538.99443	1.02312
1537.06587	1.00216
1535.13730	0.98813
1533.20874	0.96859
1531.28018	0.94784
1529.35161	0.93330
1527.42305	0.91949
1525.49448	0.90482
1523.56592	0.89232
1521.63735	0.88030
1519.70879	0.86807
1517.78022	0.85816
1515.85166	0.84658
1513.92310	0.83424
1511.99453	0.82358
1510.06597	0.81422
1508.13740	0.80530
1506.20884	0.79022
1504.28027	0.77713
1502.35171	0.77011
1500.42314	0.76413
1498.49458	0.75788
1496.56602	0.75034
1494.63745	0.74259
1492.70889	0.73667
1490.78032	0.73160
1488.85176	0.72601
1486.92319	0.72106
1484.99463	0.71721
1483.06606	0.71413
1481.13750	0.71174
1479.20894	0.71003
1477.28037	0.70911
1475.35181	0.70902
1473.42324	0.70931
1471.49468	0.70829
1469.56611	0.70575
1467.63755	0.70319
1465.70898	0.70136
1463.78042	0.70045
1461.85186	0.70003
1459.92329	0.69991
1457.99473	0.70012
1456.06616	0.69978
1454.13760	0.69776
1452.20903	0.69524
1450.28047	0.69260
1448.35190	0.68984
1446.42334	0.68696
1444.49478	0.68435
1442.56621	0.68185
1440.63765	0.67927
1438.70908	0.67665
1436.78052	0.67333
1434.85195	0.66961
1432.92339	0.66703
1430.99482	0.66558
1429.06626	0.66483
1427.13770	0.66457
1425.20913	0.66483
1423.28057	0.66552
1421.35200	0.66618
1419.42344	0.66674
1417.49487	0.66668
1415.56631	0.66553
1413.63774	0.66453
1411.70918	0.66439
1409.78062	0.66505
1407.85205	0.66611
1405.92349	0.66749
1403.99492	0.66877
1402.06636	0.66902
1400.13779	0.66833
1398.20923	0.66679
1396.28066	0.66417
1394.35210	0.66031
1392.42354	0.65574
1390.49497	0.65155
1388.56641	0.64743
1386.63784	0.64251
1384.70928	0.63742
1382.78071	0.63285
1380.85215	0.62850
1378.92358	0.62465
1376.99502	0.62185
1375.06646	0.62018
1373.13789	0.61915
1371.20933	0.61849
1369.28076	0.61801
1367.35220	0.61707
1365.42363	0.61559
1363.49507	0.61413
1361.56650	0.61273
1359.63794	0.61113
1357.70937	0.60960
1355.78081	0.60821
1353.85225	0.60694
1351.92368	0.60586
1349.99512	0.60490
1348.06655	0.60389
1346.13799	0.60279
1344.20942	0.60175
1342.28086	0.60095
1340.35229	0.60038
1338.42373	0.59972
1336.49517	0.59898
1334.56660	0.59844
1332.63804	0.59815
1330.70947	0.59817
1328.78091	0.59853
1326.85234	0.59913
1324.92378	0.59978
1322.99521	0.60048
1321.06665	0.60121
1319.13809	0.60188
1317.20952	0.60224
1315.28096	0.60213
1313.35239	0.60173
1311.42383	0.60108
1309.49526	0.60019
1307.56670	0.59931
1305.63813	0.59854
1303.70957	0.59774
1301.78101	0.59682
1299.85244	0.59572
1297.92388	0.59436
1295.99531	0.59292
1294.06675	0.59168
1292.13818	0.59047
1290.20962	0.58903
1288.28105	0.58750
1286.35249	0.58610
1284.42393	0.58473
1282.49536	0.58330
1280.56680	0.58185
1278.63823	0.58042
1276.70967	0.57907
1274.78110	0.57794
1272.85254	0.57705
1270.92397	0.57629
1268.99541	0.57556
1267.06685	0.57484
1265.13828	0.57403
1263.20972	0.57317
1261.28115	0.57245
1259.35259	0.57185
1257.42402	0.57128
1255.49546	0.57082
1253.56689	0.57062
1251.63833	0.57069
1249.70977	0.57088
1247.78120	0.57099
1245.85264	0.57084
1243.92407	0.57038
1241.99551	0.56960
1240.06694	0.56834
1238.13838	0.56669
1236.20981	0.56474
1234.28125	0.56243
1232.35269	0.56002
1230.42412	0.55774
1228.49556	0.55564
1226.56699	0.55371
1224.63843	0.55183
1222.70986	0.54997
1220.78130	0.54820
1218.85273	0.54661
1216.92417	0.54523
1214.99561	0.54408
1213.06704	0.54320
1211.13848	0.54249
1209.20991	0.54180
1207.28135	0.54103
1205.35278	0.54015
1203.42422	0.53926
1201.49565	0.53833
1199.56709	0.53721
1197.63853	0.53612
1195.70996	0.53526
1193.78140	0.53451
1191.85283	0.53369
1189.92427	0.53288
1187.99570	0.53227
1186.06714	0.53190
1184.13857	0.53180
1182.21001	0.53213
1180.28145	0.53298
1178.35288	0.53430
1176.42432	0.53579
1174.49575	0.53714
1172.56719	0.53817
1170.63862	0.53885
1168.71006	0.53933
1166.78149	0.53973
1164.85293	0.54017
1162.92437	0.54059
1160.99580	0.54085
1159.06724	0.54086
1157.13867	0.54050
1155.21011	0.53988
1153.28154	0.53896
1151.35298	0.53738
1149.42441	0.53499
1147.49585	0.53215
1145.56729	0.52932
1143.63872	0.52664
1141.71016	0.52412
1139.78159	0.52203
1137.85303	0.52050
1135.92446	0.51971
1133.99590	0.51985
1132.06733	0.52045
1130.13877	0.52085
1128.21021	0.52088
1126.28164	0.52068
1124.35308	0.52039
1122.42451	0.52016
1120.49595	0.52027
1118.56738	0.52082
1116.63882	0.52155
1114.71025	0.52242
1112.78169	0.52341
1110.85312	0.52431
1108.92456	0.52521
1106.99600	0.52631
1105.06743	0.52735
1103.13887	0.52825
1101.21030	0.52927
1099.28174	0.53042
1097.35317	0.53192
1095.42461	0.53442
1093.49604	0.53817
1091.56748	0.54312
1089.63892	0.54946
1087.71035	0.55737
1085.78179	0.56627
1083.85322	0.57510
1081.92466	0.58266
1079.99609	0.58799
1078.06753	0.59054
1076.13896	0.59014
1074.21040	0.58699
1072.28184	0.58142
1070.35327	0.57444
1068.42471	0.56727
1066.49614	0.56034
1064.56758	0.55404
1062.63901	0.54880
1060.71045	0.54437
1058.78188	0.54028
1056.85332	0.53628
1054.92476	0.53262
1052.99619	0.52967
1051.06763	0.52743
1049.13906	0.52586
1047.21050	0.52497
1045.28193	0.52464
1043.35337	0.52476
1041.42480	0.52502
1039.49624	0.52522
1037.56768	0.52534
1035.63911	0.52525
1033.71055	0.52473
1031.78198	0.52344
1029.85342	0.52147
1027.92485	0.51932
1025.99629	0.51725
1024.06772	0.51551
1022.13916	0.51433
1020.21060	0.51373
1018.28203	0.51335
1016.35347	0.51279
1014.42490	0.51211
1012.49634	0.51147
1010.56777	0.51082
1008.63921	0.51033
1006.71064	0.51045
1004.78208	0.51132
1002.85352	0.51290
1000.92495	0.51530
998.99639	0.51860
997.06782	0.52268
995.13926	0.52716
993.21069	0.53132
991.28213	0.53457
989.35356	0.53662
987.42500	0.53734
985.49644	0.53705
983.56787	0.53645
981.63931	0.53609
979.71074	0.53624
977.78218	0.53707
975.85361	0.53883
973.92505	0.54142
971.99648	0.54424
970.06792	0.54708
968.13936	0.55024
966.21079	0.55398
964.28223	0.55824
962.35366	0.56287
960.42510	0.56777
958.49653	0.57289
956.56797	0.57826
954.63940	0.58406
952.71084	0.59021
950.78228	0.59639
948.85371	0.60258
946.92515	0.60892
944.99658	0.61521
943.06802	0.62117
941.13945	0.62697
939.21089	0.63280
937.28232	0.63867
935.35376	0.64431
933.42520	0.64938
931.49663	0.65435
929.56807	0.65991
927.63950	0.66605
925.71094	0.67260
923.78237	0.67905
921.85381	0.68535
919.92524	0.69236
917.99668	0.69996
916.06812	0.70689
914.13955	0.71311
912.21099	0.72039
910.28242	0.72924
908.35386	0.73823
906.42529	0.74670
904.49673	0.75505
902.56816	0.76397
900.63960	0.77349
898.71104	0.78324
896.78247	0.79323
894.85391	0.80283
892.92534	0.81130
890.99678	0.81920
889.06821	0.82835
887.13965	0.84027
885.21108	0.85362
883.28252	0.86602
881.35396	0.87739
879.42539	0.88852
877.49683	0.89990
875.56826	0.91127
873.63970	0.92204
871.71113	0.93327
869.78257	0.94564
867.85400	0.95819
865.92544	0.96999
863.99687	0.98105
862.06831	0.99190
860.13975	1.00208
858.21118	1.01287
856.28262	1.02637
854.35405	1.04034
852.42549	1.05103
850.49692	1.06066
848.56836	1.07357
846.63979	1.08815
844.71123	1.10044
842.78267	1.11068
840.85410	1.12146
838.92554	1.13265
836.99697	1.14410
835.06841	1.15654
833.13984	1.16867
831.21128	1.17939
829.28271	1.18706
827.35415	1.19207
825.42559	1.19924
823.49702	1.20858
821.56846	1.21576
819.63989	1.22627
817.71133	1.24051
815.78276	1.24731
813.85420	1.25396
811.92563	1.27267
809.99707	1.29216
808.06851	1.30159
806.13994	1.30680
804.21138	1.30496
802.28281	1.29813
800.35425	1.29742
798.42568	1.31110
796.49712	1.34676
794.56855	1.39092
792.63999	1.42209
790.71143	1.42475
788.78286	1.41587
786.85430	1.44257
784.92573	1.46746
782.99717	1.41420
781.06860	1.35362
779.14004	1.34493
777.21147	1.38397
775.28291	1.46676
773.35435	1.59572
771.42578	1.78817
769.49722	1.81865
767.56865	1.55062
765.64009	1.38176
763.71152	1.32466
761.78296	1.27149
759.85439	1.20515
757.92583	1.15815
755.99727	1.13618
754.06870	1.17741
752.14014	1.22029
750.21157	1.15632
748.28301	1.08952
746.35444	1.08739
744.42588	1.13071
742.49731	1.10196
740.56875	0.99047
738.64019	0.89670
736.71162	0.80211
734.78306	0.73391
732.85449	0.72925
730.92593	0.73120
728.99736	0.73448
727.06880	0.74365
725.14023	0.54484
723.21167	0.28576
721.28311	0.12104
719.35454	0.06089
717.42598	0.08247
715.49741	0.19834
713.56885	0.36200
711.64028	0.38694
709.71172	0.32679
707.78315	0.31015
705.85459	0.24008
703.92603	0.13619
701.99746	0.09299
700.06890	0.05078
698.14033	0.00956
696.21177	0.07874
694.28320	0.19102
692.35464	0.24391
690.42607	0.24182
688.49751	0.20119
686.56895	0.18012
684.64038	0.26241
682.71182	0.31035
680.78325	0.27357
678.85469	0.20249
676.92612	0.12540
674.99756	0.12027
673.06899	0.17059
671.14043	0.19911
669.21187	0.23091
667.28330	0.28108
665.35474	0.35410
663.42617	0.48175
661.49761	0.43475
659.56904	0.24614
657.64048	0.13875
655.71191	0.14635
653.78335	0.15776
651.85479	0.15727
649.92622	0.28279
647.99766	0.68658
646.06909	1.03111
644.14053	1.04829
642.21196	3.85327
640.28340	3.84170
638.35483	0.79764
636.42627	0.52669
634.49771	0.36973
632.56914	0.25702
630.64058	0.17959
628.71201	0.13020
626.78345	0.12351
624.85488	0.13525
622.92632	0.09834
620.99775	0.04005
619.06919	0.05041
617.14062	0.16884
615.21206	0.32744
613.28350	0.48340
611.35493	0.68942
609.42637	0.57240
607.49780	0.31989
605.56924	0.17484
603.64067	0.13780
601.71211	0.20100
599.78354	0.21869
597.85498	0.18626
595.92642	0.19040
593.99785	0.20030
592.06929	0.21649
590.14072	0.22674
588.21216	0.18141
586.28359	0.17109
584.35503	0.24077
582.42646	0.28177
580.49790	0.22861
578.56934	0.20922
576.64077	0.26170
574.71221	0.28635
572.78364	0.25979
570.85508	0.24863
568.92651	0.22172
566.99795	0.16214
565.06938	0.12534
563.14082	0.13324
561.21226	0.19083
559.28369	0.21639
557.35513	0.16427
555.42656	0.10081
553.49800	0.07536
551.56943	0.09541
549.64087	0.12627
547.71230	0.11991
545.78374	0.09000
543.85518	0.09121
541.92661	0.10998
539.99805	0.10963
538.06948	0.12845
536.14092	0.19920
534.21235	0.27835
532.28379	0.31478
530.35522	0.33752
528.42666	0.31253
526.49810	0.20968
524.56953	0.12314
522.64097	0.09740
520.71240	0.18143
518.78384	0.37380
516.85527	0.44220
514.92671	0.31194
512.99814	0.20236
511.06958	0.15990
509.14102	0.17618
507.21245	0.18849
505.28389	0.16841
503.35532	0.17088
501.42676	0.25713
499.49819	0.36545
