3997.91411	0.06133
3995.98555	0.06180
3994.05698	0.06233
3992.12842	0.06267
3990.19985	0.06270
3988.27129	0.06272
3986.34272	0.06288
3984.41416	0.06323
3982.48560	0.06371
3980.55703	0.06401
3978.62847	0.06407
3976.69990	0.06420
3974.77134	0.06450
3972.84277	0.06468
3970.91421	0.06454
3968.98564	0.06441
3967.05708	0.06457
3965.12852	0.06480
3963.19995	0.06493
3961.27139	0.06517
3959.34282	0.06556
3957.41426	0.06587
3955.48569	0.06616
3953.55713	0.06637
3951.62856	0.06636
3949.70000	0.06639
3947.77144	0.06666
3945.84287	0.06675
3943.91431	0.06657
3941.98574	0.06629
3940.05718	0.06563
3938.12861	0.06510
3936.20005	0.06528
3934.27148	0.06578
3932.34292	0.06628
3930.41436	0.06657
3928.48579	0.06627
3926.55723	0.06588
3924.62866	0.06615
3922.70010	0.06645
3920.77153	0.06635
3918.84297	0.06653
3916.91440	0.06673
3914.98584	0.06611
3913.05728	0.06516
3911.12871	0.06479
3909.20015	0.06505
3907.27158	0.06556
3905.34302	0.06627
3903.41445	0.06715
3901.48589	0.06758
3899.55732	0.06731
3897.62876	0.06662
3895.70020	0.06593
3893.77163	0.06563
3891.84307	0.06579
3889.91450	0.06603
3887.98594	0.06604
3886.05737	0.06641
3884.12881	0.06706
3882.20024	0.06722
3880.27168	0.06720
3878.34312	0.06681
3876.41455	0.06621
3874.48599	0.06656
3872.55742	0.06793
3870.62886	0.06929
3868.70029	0.06966
3866.77173	0.06893
3864.84316	0.06897
3862.91460	0.07012
3860.98604	0.07038
3859.05747	0.06965
3857.12891	0.06956
3855.20034	0.07090
3853.27178	0.07362
3851.34321	0.07513
3849.41465	0.07363
3847.48608	0.07218
3845.55752	0.07184
3843.62896	0.07250
3841.70039	0.07397
3839.77183	0.07569
3837.84326	0.07690
3835.91470	0.07706
3833.98613	0.07659
3832.05757	0.07667
3830.12900	0.07738
3828.20044	0.07798
3826.27187	0.07849
3824.34331	0.07917
3822.41475	0.08078
3820.48618	0.08391
3818.55762	0.08539
3816.62905	0.08475
3814.70049	0.08450
3812.77192	0.08424
3810.84336	0.08414
3808.91479	0.08494
3806.98623	0.08649
3805.05767	0.08787
3803.12910	0.08895
3801.20054	0.09102
3799.27197	0.09329
3797.34341	0.09425
3795.41484	0.09499
3793.48628	0.09558
3791.55771	0.09594
3789.62915	0.09661
3787.70059	0.09790
3785.77202	0.09987
3783.84346	0.10191
3781.91489	0.10332
3779.98633	0.10485
3778.05776	0.10704
3776.12920	0.10844
3774.20063	0.10918
3772.27207	0.11048
3770.34351	0.11266
3768.41494	0.11525
3766.48638	0.11738
3764.55781	0.11940
3762.62925	0.12134
3760.70068	0.12324
3758.77212	0.12576
3756.84355	0.12846
3754.91499	0.13074
3752.98643	0.13362
3751.05786	0.13814
3749.12930	0.14256
3747.20073	0.14417
3745.27217	0.14581
3743.34360	0.14966
3741.41504	0.15296
3739.48647	0.15502
3737.55791	0.15813
3735.62935	0.16322
3733.70078	0.16924
3731.77222	0.17377
3729.84365	0.17713
3727.91509	0.18104
3725.98652	0.18674
3724.05796	0.19375
3722.12939	0.20080
3720.20083	0.20815
3718.27227	0.21571
3716.34370	0.22287
3714.41514	0.22981
3712.48657	0.23884
3710.55801	0.25267
3708.62944	0.26747
3706.70088	0.27872
3704.77231	0.28913
3702.84375	0.30193
3700.91519	0.31933
3698.98662	0.33806
3697.05806	0.35505
3695.12949	0.37326
3693.20093	0.39315
3691.27236	0.41493
3689.34380	0.44373
3687.41523	0.47950
3685.48667	0.51010
3683.55811	0.53620
3681.62954	0.56390
3679.70098	0.59471
3677.77241	0.62738
3675.84385	0.66708
3673.91528	0.72185
3671.98672	0.76517
3670.05815	0.80303
3668.12959	0.85773
3666.20103	0.90750
3664.27246	0.94820
3662.34390	0.99179
3660.41533	1.03871
3658.48677	1.08479
3656.55820	1.13391
3654.62964	1.18902
3652.70107	1.23483
3650.77251	1.27402
3648.84395	1.33025
3646.91538	1.40249
3644.98682	1.45393
3643.05825	1.49210
3641.12969	1.53139
3639.20112	1.57510
3637.27256	1.61918
3635.34399	1.66225
3633.41543	1.70532
3631.48687	1.74510
3629.55830	1.78596
3627.62974	1.84210
3625.70117	1.89372
3623.77261	1.92629
3621.84404	1.95716
3619.91548	1.99393
3617.98691	2.04024
3616.05835	2.08493
3614.12979	2.12201
3612.20122	2.16139
3610.27266	2.20051
3608.34409	2.23987
3606.41553	2.28333
3604.48696	2.32409
3602.55840	2.36002
3600.62983	2.39817
3598.70127	2.43852
3596.77271	2.47732
3594.84414	2.51774
3592.91558	2.56038
3590.98701	2.59943
3589.05845	2.63391
3587.12988	2.67596
3585.20132	2.72561
3583.27275	2.76723
3581.34419	2.80432
3579.41562	2.84522
3577.48706	2.88926
3575.55850	2.93232
3573.62993	2.97424
3571.70137	3.01394
3569.77280	3.05225
3567.84424	3.09487
3565.91567	3.14928
3563.98711	3.20100
3562.05854	3.24027
3560.12998	3.28014
3558.20142	3.32556
3556.27285	3.37239
3554.34429	3.41705
3552.41572	3.46212
3550.48716	3.50869
3548.55859	3.55482
3546.63003	3.59926
3544.70146	3.64417
3542.77290	3.69155
3540.84434	3.74036
3538.91577	3.78830
3536.98721	3.83394
3535.05864	3.88085
3533.13008	3.92895
3531.20151	3.97509
3529.27295	4.01904
3527.34438	4.06496
3525.41582	4.11377
3523.48726	4.16327
3521.55869	4.21286
3519.63013	4.26040
3517.70156	4.30841
3515.77300	4.35797
3513.84443	4.40463
3511.91587	4.44711
3509.98730	4.49403
3508.05874	4.54708
3506.13018	4.59448
3504.20161	4.63689
3502.27305	4.68525
3500.34448	4.73864
3498.41592	4.78659
3496.48735	4.83138
3494.55879	4.88239
3492.63022	4.93633
3490.70166	4.98435
3488.77310	5.02486
3486.84453	5.06458
3484.91597	5.11313
3482.98740	5.16831
3481.05884	5.22621
3479.13027	5.28245
3477.20171	5.32872
3475.27314	5.37099
3473.34458	5.41830
3471.41602	5.46156
3469.48745	5.49776
3467.55889	5.54621
3465.63032	5.60809
3463.70176	5.66478
3461.77319	5.71056
3459.84463	5.75463
3457.91606	5.80512
3455.98750	5.85809
3454.05894	5.90715
3452.13037	5.96415
3450.20181	6.02697
3448.27324	6.07325
3446.34468	6.11096
3444.41611	6.14423
3442.48755	6.17523
3440.55898	6.22008
3438.63042	6.27552
3436.70186	6.32884
3434.77329	6.38034
3432.84473	6.42424
3430.91616	6.45570
3428.98760	6.49854
3427.05903	6.55440
3425.13047	6.61021
3423.20190	6.65965
3421.27334	6.71252
3419.34478	6.77400
3417.41621	6.82814
3415.48765	6.89042
3413.55908	6.97391
3411.63052	7.03352
3409.70195	7.03963
3407.77339	7.05414
3405.84482	7.08199
3403.91626	7.10671
3401.98770	7.16121
3400.05913	7.21802
3398.13057	7.24049
3396.20200	7.25949
3394.27344	7.30349
3392.34487	7.35763
3390.41631	7.41862
3388.48774	7.45188
3386.55918	7.43318
3384.63062	7.40214
3382.70205	7.42048
3380.77349	7.48402
3378.84492	7.53425
3376.91636	7.59839
3374.98779	7.68650
3373.05923	7.73412
3371.13066	7.72587
3369.20210	7.72196
3367.27354	7.70762
3365.34497	7.66809
3363.41641	7.68893
3361.48784	7.81010
3359.55928	7.97267
3357.63071	8.05535
3355.70215	7.99899
3353.77358	7.88897
3351.84502	7.87396
3349.91646	7.93333
3347.98789	7.95588
3346.05933	7.97362
3344.13076	8.00366
3342.20220	7.95451
3340.27363	7.86494
3338.34507	7.87928
3336.41650	7.99191
3334.48794	8.07841
3332.55937	8.04494
3330.63081	7.95706
3328.70225	7.92382
3326.77368	7.96434
3324.84512	8.00257
3322.91655	8.02996
3320.98799	8.08712
3319.05942	8.09142
3317.13086	8.06863
3315.20229	8.06035
3313.27373	8.05315
3311.34517	8.08230
3309.41660	8.15441
3307.48804	8.16611
3305.55947	8.05840
3303.63091	8.00086
3301.70234	8.09097
3299.77378	8.20844
3297.84521	8.17585
3295.91665	8.09862
3293.98809	8.05676
3292.05952	7.95659
3290.13096	7.84787
3288.20239	7.85071
3286.27383	8.02152
3284.34526	8.27946
3282.41670	8.44745
3280.48813	8.40006
3278.55957	8.20193
3276.63101	8.03441
3274.70244	7.99354
3272.77388	8.04625
3270.84531	8.10855
3268.91675	8.16419
3266.98818	8.18182
3265.05962	8.10964
3263.13105	7.98162
3261.20249	7.90176
3259.27393	7.99190
3257.34536	8.17847
3255.41680	8.14650
3253.48823	7.95139
3251.55967	7.85447
3249.63110	7.89997
3247.70254	8.00658
3245.77397	8.04313
3243.84541	8.00487
3241.91685	7.95937
3239.98828	7.99883
3238.05972	8.14022
3236.13115	8.21990
3234.20259	8.21680
3232.27402	8.25691
3230.34546	8.26609
3228.41689	8.18032
3226.48833	8.11304
3224.55977	8.09060
3222.63120	8.02293
3220.70264	7.86405
3218.77407	7.76116
3216.84551	7.79918
3214.91694	7.85600
3212.98838	7.85962
3211.05981	7.83489
3209.13125	7.78287
3207.20269	7.74349
3205.27412	7.76987
3203.34556	7.80133
3201.41699	7.75727
3199.48843	7.67039
3197.55986	7.59299
3195.63130	7.56183
3193.70273	7.54750
3191.77417	7.50878
3189.84561	7.50151
3187.91704	7.52336
3185.98848	7.51173
3184.05991	7.47140
3182.13135	7.39529
3180.20278	7.27538
3178.27422	7.16970
3176.34565	7.11344
3174.41709	7.06845
3172.48853	7.02555
3170.55996	6.98071
3168.63140	6.89345
3166.70283	6.79830
3164.77427	6.74749
3162.84570	6.71673
3160.91714	6.66734
3158.98857	6.60476
3157.06001	6.53201
3155.13145	6.45327
3153.20288	6.39343
3151.27432	6.34749
3149.34575	6.29330
3147.41719	6.22901
3145.48862	6.16117
3143.56006	6.08817
3141.63149	6.01159
3139.70293	5.94398
3137.77437	5.88598
3135.84580	5.82722
3133.91724	5.76271
3131.98867	5.68852
3130.06011	5.60681
3128.13154	5.52671
3126.20298	5.45387
3124.27441	5.38247
3122.34585	5.30638
3120.41729	5.23306
3118.48872	5.16423
3116.56016	5.09668
3114.63159	5.03050
3112.70303	4.96423
3110.77446	4.89708
3108.84590	4.82987
3106.91733	4.76642
3104.98877	4.70515
3103.06021	4.64118
3101.13164	4.57251
3099.20308	4.49930
3097.27451	4.42696
3095.34595	4.36025
3093.41738	4.29679
3091.48882	4.23266
3089.56025	4.17066
3087.63169	4.11234
3085.70312	4.05253
3083.77456	3.98993
3081.84600	3.92814
3079.91743	3.86840
3077.98887	3.80891
3076.06030	3.74995
3074.13174	3.69441
3072.20317	3.64040
3070.27461	3.58393
3068.34604	3.52554
3066.41748	3.46727
3064.48892	3.41147
3062.56035	3.35950
3060.63179	3.30869
3058.70322	3.25615
3056.77466	3.20327
3054.84609	3.15144
3052.91753	3.09920
3050.98896	3.04613
3049.06040	2.99383
3047.13184	2.94412
3045.20327	2.89700
3043.27471	2.85047
3041.34614	2.80251
3039.41758	2.75397
3037.48901	2.70736
3035.56045	2.66250
3033.63188	2.61782
3031.70332	2.57326
3029.77476	2.52955
3027.84619	2.48707
3025.91763	2.44530
3023.98906	2.40339
3022.06050	2.36154
3020.13193	2.32032
3018.20337	2.28025
3016.27480	2.24150
3014.34624	2.20323
3012.41768	2.16475
3010.48911	2.12621
3008.56055	2.08835
3006.63198	2.05187
3004.70342	2.01690
3002.77485	1.98292
3000.84629	1.94937
2998.91772	1.91630
2996.98916	1.88351
2995.06060	1.85105
2993.13203	1.81930
2991.20347	1.78820
2989.27490	1.75754
2987.34634	1.72805
2985.41777	1.69995
2983.48921	1.67169
2981.56064	1.64298
2979.63208	1.61500
2977.70352	1.58798
2975.77495	1.56172
2973.84639	1.53578
2971.91782	1.50970
2969.98926	1.48360
2968.06069	1.45780
2966.13213	1.43277
2964.20356	1.40891
2962.27500	1.38536
2960.34644	1.36087
2958.41787	1.33570
2956.48931	1.31086
2954.56074	1.28683
2952.63218	1.26333
2950.70361	1.23985
2948.77505	1.21654
2946.84648	1.19370
2944.91792	1.17135
2942.98936	1.14943
2941.06079	1.12785
2939.13223	1.10643
2937.20366	1.08494
2935.27510	1.06317
2933.34653	1.04135
2931.41797	1.02021
2929.48940	0.99988
2927.56084	0.97959
2925.63228	0.95903
2923.70371	0.93907
2921.77515	0.92033
2919.84658	0.90290
2917.91802	0.88699
2915.98945	0.87234
2914.06089	0.85844
2912.13232	0.84509
2910.20376	0.83194
2908.27520	0.81862
2906.34663	0.80515
2904.41807	0.79187
2902.48950	0.77895
2900.56094	0.76618
2898.63237	0.75346
2896.70381	0.74104
2894.77524	0.72907
2892.84668	0.71749
2890.91812	0.70625
2888.98955	0.69517
2887.06099	0.68439
2885.13242	0.67422
2883.20386	0.66428
2881.27529	0.65426
2879.34673	0.64434
2877.41816	0.63447
2875.48960	0.62429
2873.56104	0.61382
2871.63247	0.60330
2869.70391	0.59245
2867.77534	0.58078
2865.84678	0.56861
2863.91821	0.55663
2861.98965	0.54509
2860.06108	0.53377
2858.13252	0.52229
2856.20396	0.51083
2854.27539	0.50005
2852.34683	0.49019
2850.41826	0.48150
2848.48970	0.47425
2846.56113	0.46831
2844.63257	0.46311
2842.70400	0.45820
2840.77544	0.45338
2838.84687	0.44852
2836.91831	0.44359
2834.98975	0.43861
2833.06118	0.43356
2831.13262	0.42831
2829.20405	0.42274
2827.27549	0.41700
2825.34692	0.41126
2823.41836	0.40552
2821.48979	0.39969
2819.56123	0.39402
2817.63267	0.38863
2815.70410	0.38318
2813.77554	0.37756
2811.84697	0.37206
2809.91841	0.36672
2807.98984	0.36141
2806.06128	0.35611
2804.13271	0.35089
2802.20415	0.34582
2800.27559	0.34087
2798.34702	0.33598
2796.41846	0.33122
2794.48989	0.32664
2792.56133	0.32207
2790.63276	0.31743
2788.70420	0.31276
2786.77563	0.30826
2784.84707	0.30416
2782.91851	0.30020
2780.98994	0.29607
2779.06138	0.29198
2777.13281	0.28814
2775.20425	0.28436
2773.27568	0.28049
2771.34712	0.27669
2769.41855	0.27324
2767.48999	0.26991
2765.56143	0.26629
2763.63286	0.26255
2761.70430	0.25917
2759.77573	0.25597
2757.84717	0.25265
2755.91860	0.24938
2753.99004	0.24630
2752.06147	0.24327
2750.13291	0.24030
2748.20435	0.23759
2746.27578	0.23498
2744.34722	0.23222
2742.41865	0.22944
2740.49009	0.22678
2738.56152	0.22418
2736.63296	0.22162
2734.70439	0.21913
2732.77583	0.21657
2730.84727	0.21399
2728.91870	0.21161
2726.99014	0.20953
2725.06157	0.20752
2723.13301	0.20534
2721.20444	0.20322
2719.27588	0.20132
2717.34731	0.19940
2715.41875	0.19747
2713.49019	0.19566
2711.56162	0.19378
2709.63306	0.19184
2707.70449	0.19014
2705.77593	0.18872
2703.84736	0.18729
2701.91880	0.18564
2699.99023	0.18390
2698.06167	0.18243
2696.13311	0.18117
2694.20454	0.17981
2692.27598	0.17830
2690.34741	0.17682
2688.41885	0.17558
2686.49028	0.17452
2684.56172	0.17346
2682.63315	0.17236
2680.70459	0.17129
2678.77603	0.17016
2676.84746	0.16886
2674.91890	0.16760
2672.99033	0.16651
2671.06177	0.16551
2669.13320	0.16462
2667.20464	0.16382
2665.27607	0.16295
2663.34751	0.16203
2661.41895	0.16123
2659.49038	0.16056
2657.56182	0.15987
2655.63325	0.15904
2653.70469	0.15813
2651.77612	0.15741
2649.84756	0.15685
2647.91899	0.15623
2645.99043	0.15560
2644.06187	0.15512
2642.13330	0.15469
2640.20474	0.15415
2638.27617	0.15352
2636.34761	0.15295
2634.41904	0.15251
2632.49048	0.15215
2630.56191	0.15183
2628.63335	0.15145
2626.70479	0.15097
2624.77622	0.15060
2622.84766	0.15040
2620.91909	0.15025
2618.99053	0.15004
2617.06196	0.14980
2615.13340	0.14962
2613.20483	0.14952
2611.27627	0.14941
2609.34771	0.14918
2607.41914	0.14891
2605.49058	0.14877
2603.56201	0.14880
2601.63345	0.14895
2599.70488	0.14909
2597.77632	0.14913
2595.84775	0.14908
2593.91919	0.14898
2591.99062	0.14892
2590.06206	0.14901
2588.13350	0.14918
2586.20493	0.14943
2584.27637	0.14979
2582.34780	0.15003
2580.41924	0.15007
2578.49067	0.15022
2576.56211	0.15058
2574.63354	0.15092
2572.70498	0.15115
2570.77642	0.15124
2568.84785	0.15141
2566.91929	0.15189
2564.99072	0.15254
2563.06216	0.15314
2561.13359	0.15361
2559.20503	0.15396
2557.27646	0.15432
2555.34790	0.15484
2553.41934	0.15552
2551.49077	0.15611
2549.56221	0.15647
2547.63364	0.15679
2545.70508	0.15736
2543.77651	0.15806
2541.84795	0.15868
2539.91938	0.15922
2537.99082	0.15974
2536.06226	0.16032
2534.13369	0.16107
2532.20513	0.16184
2530.27656	0.16248
2528.34800	0.16304
2526.41943	0.16358
2524.49087	0.16416
2522.56230	0.16486
2520.63374	0.16574
2518.70518	0.16669
2516.77661	0.16752
2514.84805	0.16823
2512.91948	0.16899
2510.99092	0.16981
2509.06235	0.17060
2507.13379	0.17131
2505.20522	0.17197
2503.27666	0.17272
2501.34810	0.17355
2499.41953	0.17436
2497.49097	0.17529
2495.56240	0.17617
2493.63384	0.17682
2491.70527	0.17754
2489.77671	0.17847
2487.84814	0.17939
2485.91958	0.18021
2483.99102	0.18107
2482.06245	0.18203
2480.13389	0.18295
2478.20532	0.18375
2476.27676	0.18462
2474.34819	0.18555
2472.41963	0.18630
2470.49106	0.18708
2468.56250	0.18802
2466.63394	0.18890
2464.70537	0.18978
2462.77681	0.19080
2460.84824	0.19187
2458.91968	0.19287
2456.99111	0.19382
2455.06255	0.19471
2453.13398	0.19557
2451.20542	0.19644
2449.27686	0.19740
2447.34829	0.19850
2445.41973	0.19963
2443.49116	0.20066
2441.56260	0.20155
2439.63403	0.20248
2437.70547	0.20361
2435.77690	0.20473
2433.84834	0.20567
2431.91978	0.20663
2429.99121	0.20771
2428.06265	0.20874
2426.13408	0.20973
2424.20552	0.21081
2422.27695	0.21194
2420.34839	0.21300
2418.41982	0.21404
2416.49126	0.21522
2414.56270	0.21641
2412.63413	0.21749
2410.70557	0.21855
2408.77700	0.21977
2406.84844	0.22114
2404.91987	0.22243
2402.99131	0.22354
2401.06274	0.22468
2399.13418	0.22599
2397.20562	0.22734
2395.27705	0.22856
2393.34849	0.22971
2391.41992	0.23099
2389.49136	0.23235
2387.56279	0.23358
2385.63423	0.23476
2383.70566	0.23619
2381.77710	0.23784
2379.84854	0.23947
2377.91997	0.24102
2375.99141	0.24260
2374.06284	0.24438
2372.13428	0.24616
2370.20571	0.24789
2368.27715	0.25027
2366.34858	0.25320
2364.42002	0.25543
2362.49146	0.25737
2360.56289	0.25966
2358.63433	0.26166
2356.70576	0.26310
2354.77720	0.26360
2352.84863	0.26399
2350.92007	0.26474
2348.99150	0.26547
2347.06294	0.26633
2345.13437	0.26785
2343.20581	0.27010
2341.27725	0.27199
2339.34868	0.27284
2337.42012	0.27403
2335.49155	0.27640
2333.56299	0.27851
2331.63442	0.27993
2329.70586	0.28140
2327.77729	0.28337
2325.84873	0.28557
2323.92017	0.28741
2321.99160	0.28886
2320.06304	0.29019
2318.13447	0.29149
2316.20591	0.29281
2314.27734	0.29436
2312.34878	0.29611
2310.42021	0.29774
2308.49165	0.29923
2306.56309	0.30080
2304.63452	0.30245
2302.70596	0.30420
2300.77739	0.30598
2298.84883	0.30764
2296.92026	0.30934
2294.99170	0.31120
2293.06313	0.31313
2291.13457	0.31506
2289.20601	0.31696
2287.27744	0.31887
2285.34888	0.32077
2283.42031	0.32271
2281.49175	0.32468
2279.56318	0.32665
2277.63462	0.32866
2275.70605	0.33075
2273.77749	0.33283
2271.84893	0.33494
2269.92036	0.33713
2267.99180	0.33935
2266.06323	0.34154
2264.13467	0.34361
2262.20610	0.34556
2260.27754	0.34755
2258.34897	0.34972
2256.42041	0.35197
2254.49185	0.35418
2252.56328	0.35637
2250.63472	0.35860
2248.70615	0.36076
2246.77759	0.36282
2244.84902	0.36491
2242.92046	0.36715
2240.99189	0.36950
2239.06333	0.37185
2237.13477	0.37408
2235.20620	0.37624
2233.27764	0.37851
2231.34907	0.38084
2229.42051	0.38313
2227.49194	0.38542
2225.56338	0.38774
2223.63481	0.39000
2221.70625	0.39222
2219.77769	0.39443
2217.84912	0.39656
2215.92056	0.39864
2213.99199	0.40075
2212.06343	0.40283
2210.13486	0.40495
2208.20630	0.40717
2206.27773	0.40931
2204.34917	0.41127
2202.42061	0.41326
2200.49204	0.41533
2198.56348	0.41743
2196.63491	0.41954
2194.70635	0.42161
2192.77778	0.42358
2190.84922	0.42548
2188.92065	0.42734
2186.99209	0.42916
2185.06353	0.43096
2183.13496	0.43274
2181.20640	0.43444
2179.27783	0.43604
2177.34927	0.43759
2175.42070	0.43909
2173.49214	0.44062
2171.56357	0.44216
2169.63501	0.44372
2167.70645	0.44517
2165.77788	0.44643
2163.84932	0.44764
2161.92075	0.44880
2159.99219	0.44981
2158.06362	0.45070
2156.13506	0.45165
2154.20649	0.45259
2152.27793	0.45339
2150.34937	0.45414
2148.42080	0.45486
2146.49224	0.45542
2144.56367	0.45583
2142.63511	0.45624
2140.70654	0.45672
2138.77798	0.45708
2136.84941	0.45723
2134.92085	0.45725
2132.99229	0.45716
2131.06372	0.45708
2129.13516	0.45714
2127.20659	0.45717
2125.27803	0.45689
2123.34946	0.45641
2121.42090	0.45597
2119.49233	0.45556
2117.56377	0.45502
2115.63521	0.45424
2113.70664	0.45330
2111.77808	0.45233
2109.84951	0.45140
2107.92095	0.45049
2105.99238	0.44945
2104.06382	0.44825
2102.13525	0.44693
2100.20669	0.44557
2098.27812	0.44414
2096.34956	0.44266
2094.42100	0.44123
2092.49243	0.43982
2090.56387	0.43821
2088.63530	0.43644
2086.70674	0.43465
2084.77817	0.43283
2082.84961	0.43098
2080.92104	0.42911
2078.99248	0.42718
2077.06392	0.42503
2075.13535	0.42275
2073.20679	0.42053
2071.27822	0.41837
2069.34966	0.41620
2067.42109	0.41402
2065.49253	0.41176
2063.56396	0.40934
2061.63540	0.40682
2059.70684	0.40428
2057.77827	0.40173
2055.84971	0.39919
2053.92114	0.39669
2051.99258	0.39419
2050.06401	0.39159
2048.13545	0.38890
2046.20688	0.38618
2044.27832	0.38342
2042.34976	0.38065
2040.42119	0.37791
2038.49263	0.37514
2036.56406	0.37243
2034.63550	0.36978
2032.70693	0.36703
2030.77837	0.36418
2028.84980	0.36141
2026.92124	0.35873
2024.99268	0.35603
2023.06411	0.35330
2021.13555	0.35053
2019.20698	0.34777
2017.27842	0.34504
2015.34985	0.34222
2013.42129	0.33942
2011.49272	0.33676
2009.56416	0.33410
2007.63560	0.33128
2005.70703	0.32839
2003.77847	0.32560
2001.84990	0.32294
1999.92134	0.32029
1997.99277	0.31767
1996.06421	0.31514
1994.13564	0.31266
1992.20708	0.31012
1990.27852	0.30752
1988.34995	0.30498
1986.42139	0.30253
1984.49282	0.30016
1982.56426	0.29785
1980.63569	0.29546
1978.70713	0.29302
1976.77856	0.29067
1974.85000	0.28841
1972.92144	0.28623
1970.99287	0.28413
1969.06431	0.28213
1967.13574	0.28023
1965.20718	0.27827
1963.27861	0.27617
1961.35005	0.27408
1959.42148	0.27211
1957.49292	0.27025
1955.56436	0.26848
1953.63579	0.26673
1951.70723	0.26493
1949.77866	0.26320
1947.85010	0.26158
1945.92153	0.26005
1943.99297	0.25862
1942.06440	0.25719
1940.13584	0.25562
1938.20728	0.25404
1936.27871	0.25261
1934.35015	0.25126
1932.42158	0.24996
1930.49302	0.24879
1928.56445	0.24776
1926.63589	0.24672
1924.70732	0.24571
1922.77876	0.24474
1920.85020	0.24373
1918.92163	0.24279
1916.99307	0.24191
1915.06450	0.24096
1913.13594	0.24007
1911.20737	0.23942
1909.27881	0.23884
1907.35024	0.23807
1905.42168	0.23724
1903.49312	0.23658
1901.56455	0.23606
1899.63599	0.23555
1897.70742	0.23512
1895.77886	0.23479
1893.85029	0.23448
1891.92173	0.23417
1889.99316	0.23394
1888.06460	0.23361
1886.13604	0.23323
1884.20747	0.23302
1882.27891	0.23290
1880.35034	0.23275
1878.42178	0.23260
1876.49321	0.23254
1874.56465	0.23250
1872.63608	0.23252
1870.70752	0.23278
1868.77896	0.23352
1866.85039	0.23403
1864.92183	0.23382
1862.99326	0.23365
1861.06470	0.23384
1859.13613	0.23426
1857.20757	0.23459
1855.27900	0.23492
1853.35044	0.23529
1851.42187	0.23581
1849.49331	0.23651
1847.56475	0.23733
1845.63618	0.23828
1843.70762	0.23937
1841.77905	0.24011
1839.85049	0.24049
1837.92192	0.24121
1835.99336	0.24209
1834.06479	0.24293
1832.13623	0.24396
1830.20767	0.24549
1828.27910	0.24704
1826.35054	0.24806
1824.42197	0.24928
1822.49341	0.25058
1820.56484	0.25179
1818.63628	0.25310
1816.70771	0.25465
1814.77915	0.25631
1812.85059	0.25818
1810.92202	0.26033
1808.99346	0.26242
1807.06489	0.26432
1805.13633	0.26619
1803.20776	0.26836
1801.27920	0.27089
1799.35063	0.27371
1797.42207	0.27624
1795.49351	0.27864
1793.56494	0.28154
1791.63638	0.28530
1789.70781	0.28866
1787.77925	0.29098
1785.85068	0.29391
1783.92212	0.29766
1781.99355	0.30172
1780.06499	0.30597
1778.13643	0.31031
1776.20786	0.31440
1774.27930	0.31873
1772.35073	0.32458
1770.42217	0.33099
1768.49360	0.33624
1766.56504	0.34122
1764.63647	0.34625
1762.70791	0.35192
1760.77935	0.35938
1758.85078	0.36631
1756.92222	0.37318
1754.99365	0.38066
1753.06509	0.38722
1751.13652	0.39508
1749.20796	0.40541
1747.27939	0.41556
1745.35083	0.42427
1743.42227	0.43351
1741.49370	0.44384
1739.56514	0.45628
1737.63657	0.46885
1735.70801	0.47971
1733.77944	0.49640
1731.85088	0.51662
1729.92231	0.53198
1727.99375	0.54744
1726.06519	0.56417
1724.13662	0.58268
1722.20806	0.60277
1720.27949	0.62100
1718.35093	0.64221
1716.42236	0.67490
1714.49380	0.70633
1712.56523	0.73090
1710.63667	0.75437
1708.70811	0.77966
1706.77954	0.80878
1704.85098	0.84431
1702.92241	0.87593
1700.99385	0.90626
1699.06528	0.95222
1697.13672	0.99544
1695.20815	1.04016
1693.27959	1.08288
1691.35103	1.11651
1689.42246	1.15614
1687.49390	1.19861
1685.56533	1.23869
1683.63677	1.30224
1681.70820	1.37022
1679.77964	1.41246
1677.85107	1.45257
1675.92251	1.49859
1673.99395	1.55660
1672.06538	1.60844
1670.13682	1.65845
1668.20825	1.72505
1666.27969	1.77917
1664.35112	1.82574
1662.42256	1.88604
1660.49399	1.95566
1658.56543	2.00877
1656.63687	2.05120
1654.70830	2.08880
1652.77974	2.14612
1650.85117	2.20261
1648.92261	2.22211
1646.99404	2.24832
1645.06548	2.27687
1643.13691	2.29524
1641.20835	2.30433
1639.27979	2.31313
1637.35122	2.31836
1635.42266	2.31717
1633.49409	2.30908
1631.56553	2.29613
1629.63696	2.28219
1627.70840	2.25561
1625.77983	2.22133
1623.85127	2.17671
1621.92271	2.12461
1619.99414	2.08083
1618.06558	2.03745
1616.13701	1.97211
1614.20845	1.90611
1612.27988	1.85813
1610.35132	1.80829
1608.42275	1.75325
1606.49419	1.69830
1604.56562	1.64764
1602.63706	1.59861
1600.70850	1.55139
1598.77993	1.50859
1596.85137	1.46838
1594.92280	1.42892
1592.99424	1.39018
1591.06567	1.35446
1589.13711	1.32116
1587.20854	1.29064
1585.27998	1.26289
1583.35142	1.23701
1581.42285	1.21331
1579.49429	1.19334
1577.56572	1.17568
1575.63716	1.15411
1573.70859	1.13571
1571.78003	1.12451
1569.85146	1.11330
1567.92290	1.10068
1565.99434	1.09164
1564.06577	1.08551
1562.13721	1.08069
1560.20864	1.07757
1558.28008	1.07789
1556.35151	1.08045
1554.42295	1.08106
1552.49438	1.08121
1550.56582	1.08000
1548.63726	1.07628
1546.70869	1.07004
1544.78013	1.06105
1542.85156	1.04916
1540.92300	1.03086
1538.99443	1.00177
1537.06587	0.98189
1535.13730	0.96832
1533.20874	0.94929
1531.28018	0.92908
1529.35161	0.91485
1527.42305	0.90160
1525.49448	0.88793
1523.56592	0.87629
1521.63735	0.86481
1519.70879	0.85284
1517.78022	0.84306
1515.85166	0.83173
1513.92310	0.81980
1511.99453	0.80963
1510.06597	0.80054
1508.13740	0.79165
1506.20884	0.77745
1504.28027	0.76541
1502.35171	0.75881
1500.42314	0.75297
1498.49458	0.74652
1496.56602	0.73892
1494.63745	0.73174
1492.70889	0.72647
1490.78032	0.72188
1488.85176	0.71645
1486.92319	0.71125
1484.99463	0.70712
1483.06606	0.70400
1481.13750	0.70165
1479.20894	0.69985
1477.28037	0.69869
1475.35181	0.69820
1473.42324	0.69803
1471.49468	0.69656
1469.56611	0.69374
1467.63755	0.69091
1465.70898	0.68853
1463.78042	0.68691
1461.85186	0.68598
1459.92329	0.68556
1457.99473	0.68567
1456.06616	0.68503
1454.13760	0.68234
1452.20903	0.67929
1450.28047	0.67643
1448.35190	0.67370
1446.42334	0.67065
1444.49478	0.66773
1442.56621	0.66527
1440.63765	0.66293
1438.70908	0.66049
1436.78052	0.65735
1434.85195	0.65367
1432.92339	0.65081
1430.99482	0.64906
1429.06626	0.64816
1427.13770	0.64772
1425.20913	0.64780
1423.28057	0.64849
1421.35200	0.64932
1419.42344	0.65007
1417.49487	0.65015
1415.56631	0.64899
1413.63774	0.64782
1411.70918	0.64750
1409.78062	0.64816
1407.85205	0.64932
1405.92349	0.65064
1403.99492	0.65174
1402.06636	0.65195
1400.13779	0.65136
1398.20923	0.65000
1396.28066	0.64764
1394.35210	0.64406
1392.42354	0.63973
1390.49497	0.63554
1388.56641	0.63136
1386.63784	0.62662
1384.70928	0.62155
1382.78071	0.61665
1380.85215	0.61207
1378.92358	0.60820
1376.99502	0.60532
1375.06646	0.60344
1373.13789	0.60216
1371.20933	0.60113
1369.28076	0.60025
1367.35220	0.59915
1365.42363	0.59768
1363.49507	0.59617
1361.56650	0.59475
1359.63794	0.59329
1357.70937	0.59203
1355.78081	0.59100
1353.85225	0.59000
1351.92368	0.58907
1349.99512	0.58831
1348.06655	0.58759
1346.13799	0.58687
1344.20942	0.58618
1342.28086	0.58550
1340.35229	0.58496
1338.42373	0.58445
1336.49517	0.58386
1334.56660	0.58344
1332.63804	0.58323
1330.70947	0.58314
1328.78091	0.58332
1326.85234	0.58389
1324.92378	0.58466
1322.99521	0.58535
1321.06665	0.58591
1319.13809	0.58650
1317.20952	0.58689
1315.28096	0.58683
1313.35239	0.58647
1311.42383	0.58593
1309.49526	0.58525
1307.56670	0.58445
1305.63813	0.58373
1303.70957	0.58313
1301.78101	0.58237
1299.85244	0.58133
1297.92388	0.58018
1295.99531	0.57903
1294.06675	0.57784
1292.13818	0.57641
1290.20962	0.57482
1288.28105	0.57345
1286.35249	0.57236
1284.42393	0.57119
1282.49536	0.56991
1280.56680	0.56863
1278.63823	0.56733
1276.70967	0.56602
1274.78110	0.56481
1272.85254	0.56384
1270.92397	0.56310
1268.99541	0.56239
1267.06685	0.56160
1265.13828	0.56080
1263.20972	0.56013
1261.28115	0.55953
1259.35259	0.55889
1257.42402	0.55831
1255.49546	0.55791
1253.56689	0.55779
1251.63833	0.55804
1249.70977	0.55849
1247.78120	0.55880
1245.85264	0.55876
1243.92407	0.55831
1241.99551	0.55754
1240.06694	0.55646
1238.13838	0.55493
1236.20981	0.55287
1234.28125	0.55057
1232.35269	0.54849
1230.42412	0.54665
1228.49556	0.54479
1226.56699	0.54293
1224.63843	0.54123
1222.70986	0.53976
1220.78130	0.53841
1218.85273	0.53717
1216.92417	0.53603
1214.99561	0.53489
1213.06704	0.53382
1211.13848	0.53301
1209.20991	0.53235
1207.28135	0.53162
1205.35278	0.53072
1203.42422	0.52976
1201.49565	0.52888
1199.56709	0.52804
1197.63853	0.52715
1195.70996	0.52640
1193.78140	0.52596
1191.85283	0.52564
1189.92427	0.52521
1187.99570	0.52474
1186.06714	0.52441
1184.13857	0.52433
1182.21001	0.52455
1180.28145	0.52533
1178.35288	0.52673
1176.42432	0.52820
1174.49575	0.52916
1172.56719	0.52951
1170.63862	0.52947
1168.71006	0.52924
1166.78149	0.52889
1164.85293	0.52845
1162.92437	0.52794
1160.99580	0.52737
1159.06724	0.52669
1157.13867	0.52589
1155.21011	0.52487
1153.28154	0.52346
1151.35298	0.52174
1149.42441	0.51960
1147.49585	0.51708
1145.56729	0.51455
1143.63872	0.51228
1141.71016	0.51020
1139.78159	0.50821
1137.85303	0.50646
1135.92446	0.50515
1133.99590	0.50438
1132.06733	0.50385
1130.13877	0.50323
1128.21021	0.50251
1126.28164	0.50172
1124.35308	0.50095
1122.42451	0.50019
1120.49595	0.49939
1118.56738	0.49882
1116.63882	0.49860
1114.71025	0.49856
1112.78169	0.49864
1110.85312	0.49896
1108.92456	0.49960
1106.99600	0.50065
1105.06743	0.50209
1103.13887	0.50370
1101.21030	0.50551
1099.28174	0.50782
1097.35317	0.51049
1095.42461	0.51329
1093.49604	0.51666
1091.56748	0.52080
1089.63892	0.52541
1087.71035	0.53059
1085.78179	0.53647
1083.85322	0.54273
1081.92466	0.54876
1079.99609	0.55367
1078.06753	0.55671
1076.13896	0.55742
1074.21040	0.55550
1072.28184	0.55126
1070.35327	0.54559
1068.42471	0.53912
1066.49614	0.53226
1064.56758	0.52563
1062.63901	0.51977
1060.71045	0.51469
1058.78188	0.51018
1056.85332	0.50631
1054.92476	0.50298
1052.99619	0.49993
1051.06763	0.49712
1049.13906	0.49465
1047.21050	0.49245
1045.28193	0.49034
1043.35337	0.48840
1041.42480	0.48695
1039.49624	0.48589
1037.56768	0.48505
1035.63911	0.48440
1033.71055	0.48391
1031.78198	0.48362
1029.85342	0.48350
1027.92485	0.48344
1025.99629	0.48353
1024.06772	0.48379
1022.13916	0.48424
1020.21060	0.48497
1018.28203	0.48580
1016.35347	0.48653
1014.42490	0.48728
1012.49634	0.48824
1010.56777	0.48944
1008.63921	0.49092
1006.71064	0.49269
1004.78208	0.49461
1002.85352	0.49693
1000.92495	0.49982
998.99639	0.50313
997.06782	0.50667
995.13926	0.51047
993.21069	0.51439
991.28213	0.51797
989.35356	0.52081
987.42500	0.52273
985.49644	0.52384
983.56787	0.52454
981.63931	0.52532
979.71074	0.52650
977.78218	0.52812
975.85361	0.53016
973.92505	0.53266
971.99648	0.53554
970.06792	0.53875
968.13936	0.54247
966.21079	0.54668
964.28223	0.55110
962.35366	0.55568
960.42510	0.56057
958.49653	0.56576
956.56797	0.57124
954.63940	0.57721
952.71084	0.58352
950.78228	0.58968
948.85371	0.59561
946.92515	0.60178
944.99658	0.60826
943.06802	0.61456
941.13945	0.62045
939.21089	0.62597
937.28232	0.63168
935.35376	0.63784
933.42520	0.64384
931.49663	0.64946
929.56807	0.65514
927.63950	0.66088
925.71094	0.66627
923.78237	0.67152
921.85381	0.67736
919.92524	0.68439
917.99668	0.69220
916.06812	0.69944
914.13955	0.70607
912.21099	0.71310
910.28242	0.72083
908.35386	0.72916
906.42529	0.73791
904.49673	0.74696
902.56816	0.75638
900.63960	0.76592
898.71104	0.77533
896.78247	0.78453
894.85391	0.79348
892.92534	0.80311
890.99678	0.81369
889.06821	0.82430
887.13965	0.83531
885.21108	0.84760
883.28252	0.86029
881.35396	0.87146
879.42539	0.88125
877.49683	0.89194
875.56826	0.90466
873.63970	0.91784
871.71113	0.92946
869.78257	0.94000
867.85400	0.95088
865.92544	0.96231
863.99687	0.97433
862.06831	0.98642
860.13975	0.99830
858.21118	1.01133
856.28262	1.02454
854.35405	1.03564
852.42549	1.04524
850.49692	1.05499
848.56836	1.06579
846.63979	1.07731
844.71123	1.08853
842.78267	1.09984
840.85410	1.11193
838.92554	1.12497
836.99697	1.14090
835.06841	1.15660
833.13984	1.16686
831.21128	1.17449
829.28271	1.18354
827.35415	1.19698
825.42559	1.21102
823.49702	1.21960
821.56846	1.22705
819.63989	1.23640
817.71133	1.24386
815.78276	1.25162
813.85420	1.26774
811.92563	1.28784
809.99707	1.30239
808.06851	1.31442
806.13994	1.32331
804.21138	1.31914
802.28281	1.31561
800.35425	1.33362
798.42568	1.36940
796.49712	1.40831
794.56855	1.41132
792.63999	1.37369
790.71143	1.35710
788.78286	1.38369
786.85430	1.41556
784.92573	1.41041
782.99717	1.40528
781.06860	1.44986
779.14004	1.52836
777.21147	1.58660
775.28291	1.56325
773.35435	1.53838
771.42578	1.60577
769.49722	1.72918
767.56865	1.90594
765.64009	1.91440
763.71152	1.68937
761.78296	1.58628
759.85439	1.50768
757.92583	1.32662
755.99727	1.20484
754.06870	1.16961
752.14014	1.20595
750.21157	1.34515
748.28301	1.37909
746.35444	1.12806
744.42588	0.98577
742.49731	1.01142
740.56875	1.17904
738.64019	1.44535
736.71162	1.41991
734.78306	1.08583
732.85449	0.82605
730.92593	0.63285
728.99736	0.50043
727.06880	0.44862
725.14023	0.48398
723.21167	0.57155
721.28311	0.53618
719.35454	0.30920
717.42598	0.16752
715.49741	0.14975
713.56885	0.19638
711.64028	0.18964
709.71172	0.11182
707.78315	0.03692
705.85459	-0.03987
703.92603	-0.07680
701.99746	-0.02353
700.06890	0.00519
698.14033	-0.02911
696.21177	0.13325
694.28320	0.55160
692.35464	0.67168
690.42607	0.32993
688.49751	0.16827
686.56895	0.15066
684.64038	0.23303
682.71182	0.30041
680.78325	0.28171
678.85469	0.15630
676.92612	0.12008
674.99756	0.34239
673.06899	0.53190
671.14043	0.31704
669.21187	0.21233
667.28330	0.15860
665.35474	0.07671
663.42617	0.04879
661.49761	0.08440
659.56904	0.12064
657.64048	0.13763
655.71191	0.18651
653.78335	0.31354
651.85479	0.30134
649.92622	0.12611
647.99766	0.07235
646.06909	0.13814
644.14053	0.22525
642.21196	0.24130
640.28340	0.22568
638.35483	0.24299
636.42627	0.29010
634.49771	0.36423
632.56914	0.34992
630.64058	0.20269
628.71201	0.10922
626.78345	0.10442
624.85488	0.16410
622.92632	0.24107
620.99775	0.33973
619.06919	0.33930
617.14062	0.18644
615.21206	0.15633
613.28350	0.20968
611.35493	0.25231
609.42637	0.28511
607.49780	0.33300
605.56924	0.30445
603.64067	0.20418
601.71211	0.18479
599.78354	0.18687
597.85498	0.15938
595.92642	0.15611
593.99785	0.16028
592.06929	0.15566
590.14072	0.14759
588.21216	0.12840
586.28359	0.16695
584.35503	0.28258
582.42646	0.33137
580.49790	0.30831
578.56934	0.31478
576.64077	0.29847
574.71221	0.25618
572.78364	0.23414
570.85508	0.20729
568.92651	0.14919
566.99795	0.11259
565.06938	0.10727
563.14082	0.14721
561.21226	0.25573
559.28369	0.31736
557.35513	0.28781
555.42656	0.26169
553.49800	0.28656
551.56943	0.34148
549.64087	0.28449
547.71230	0.14518
545.78374	0.04676
543.85518	0.02644
541.92661	0.05873
539.99805	0.07956
538.06948	0.10215
536.14092	0.18428
534.21235	0.28557
532.28379	0.27306
530.35522	0.20854
528.42666	0.17067
526.49810	0.19428
524.56953	0.23473
522.64097	0.19741
520.71240	0.13219
518.78384	0.15285
516.85527	0.27565
514.92671	0.45359
512.99814	0.44729
511.06958	0.34878
509.14102	0.28244
507.21245	0.18686
505.28389	0.13619
503.35532	0.14818
501.42676	0.19123
499.49819	0.23195
