3997.91411	0.05635
3995.98555	0.05685
3994.05698	0.05713
3992.12842	0.05702
3990.19985	0.05684
3988.27129	0.05708
3986.34272	0.05785
3984.41416	0.05864
3982.48560	0.05911
3980.55703	0.05924
3978.62847	0.05919
3976.69990	0.05923
3974.77134	0.05930
3972.84277	0.05942
3970.91421	0.05952
3968.98564	0.05964
3967.05708	0.06004
3965.12852	0.06032
3963.19995	0.06038
3961.27139	0.06064
3959.34282	0.06099
3957.41426	0.06102
3955.48569	0.06092
3953.55713	0.06093
3951.62856	0.06093
3949.70000	0.06065
3947.77144	0.06043
3945.84287	0.06064
3943.91431	0.06062
3941.98574	0.06034
3940.05718	0.06077
3938.12861	0.06164
3936.20005	0.06184
3934.27148	0.06115
3932.34292	0.06024
3930.41436	0.06007
3928.48579	0.06062
3926.55723	0.06058
3924.62866	0.05983
3922.70010	0.05953
3920.77153	0.05970
3918.84297	0.05961
3916.91440	0.05949
3914.98584	0.06006
3913.05728	0.06104
3911.12871	0.06164
3909.20015	0.06140
3907.27158	0.06034
3905.34302	0.05862
3903.41445	0.05728
3901.48589	0.05741
3899.55732	0.05806
3897.62876	0.05903
3895.70020	0.06003
3893.77163	0.06007
3891.84307	0.05928
3889.91450	0.05909
3887.98594	0.05969
3886.05737	0.05982
3884.12881	0.05931
3882.20024	0.05883
3880.27168	0.05892
3878.34312	0.05982
3876.41455	0.06059
3874.48599	0.06055
3872.55742	0.06003
3870.62886	0.05948
3868.70029	0.05977
3866.77173	0.06065
3864.84316	0.06052
3862.91460	0.06016
3860.98604	0.06133
3859.05747	0.06288
3857.12891	0.06316
3855.20034	0.06188
3853.27178	0.05967
3851.34321	0.06030
3849.41465	0.06376
3847.48608	0.06630
3845.55752	0.06729
3843.62896	0.06686
3841.70039	0.06576
3839.77183	0.06502
3837.84326	0.06551
3835.91470	0.06708
3833.98613	0.06849
3832.05757	0.06991
3830.12900	0.07163
3828.20044	0.07281
3826.27187	0.07324
3824.34331	0.07346
3822.41475	0.07336
3820.48618	0.07327
3818.55762	0.07421
3816.62905	0.07556
3814.70049	0.07731
3812.77192	0.07949
3810.84336	0.08118
3808.91479	0.08208
3806.98623	0.08221
3805.05767	0.08227
3803.12910	0.08254
3801.20054	0.08302
3799.27197	0.08480
3797.34341	0.08735
3795.41484	0.08994
3793.48628	0.09230
3791.55771	0.09423
3789.62915	0.09576
3787.70059	0.09668
3785.77202	0.09742
3783.84346	0.09848
3781.91489	0.09955
3779.98633	0.10068
3778.05776	0.10278
3776.12920	0.10544
3774.20063	0.10743
3772.27207	0.10862
3770.34351	0.10950
3768.41494	0.11080
3766.48638	0.11264
3764.55781	0.11489
3762.62925	0.11717
3760.70068	0.11895
3758.77212	0.12071
3756.84355	0.12306
3754.91499	0.12505
3752.98643	0.12579
3751.05786	0.12622
3749.12930	0.12908
3747.20073	0.13319
3745.27217	0.13689
3743.34360	0.14244
3741.41504	0.14760
3739.48647	0.15020
3737.55791	0.15206
3735.62935	0.15497
3733.70078	0.16097
3731.77222	0.16903
3729.84365	0.17614
3727.91509	0.18149
3725.98652	0.18643
3724.05796	0.19207
3722.12939	0.19838
3720.20083	0.20569
3718.27227	0.21381
3716.34370	0.22176
3714.41514	0.22847
3712.48657	0.23507
3710.55801	0.24613
3708.62944	0.26222
3706.70088	0.27689
3704.77231	0.28942
3702.84375	0.30264
3700.91519	0.31978
3698.98662	0.33932
3697.05806	0.35762
3695.12949	0.37594
3693.20093	0.39446
3691.27236	0.41365
3689.34380	0.43938
3687.41523	0.47516
3685.48667	0.50850
3683.55811	0.53602
3681.62954	0.56372
3679.70098	0.59404
3677.77241	0.62527
3675.84385	0.66212
3673.91528	0.71527
3671.98672	0.76042
3670.05815	0.79972
3668.12959	0.85464
3666.20103	0.90551
3664.27246	0.94733
3662.34390	0.99162
3660.41533	1.03910
3658.48677	1.08462
3656.55820	1.13226
3654.62964	1.18703
3652.70107	1.23311
3650.77251	1.27038
3648.84395	1.32193
3646.91538	1.39209
3644.98682	1.44671
3643.05825	1.48838
3641.12969	1.53001
3639.20112	1.57498
3637.27256	1.61952
3635.34399	1.66277
3633.41543	1.70596
3631.48687	1.74526
3629.55830	1.78358
3627.62974	1.83726
3625.70117	1.89119
3623.77261	1.92685
3621.84404	1.95893
3619.91548	1.99473
3617.98691	2.03943
3616.05835	2.08383
3614.12979	2.12062
3612.20122	2.16021
3610.27266	2.20063
3608.34409	2.24065
3606.41553	2.28466
3604.48696	2.32617
3602.55840	2.36121
3600.62983	2.39790
3598.70127	2.43857
3596.77271	2.47846
3594.84414	2.51878
3592.91558	2.56134
3590.98701	2.60157
3589.05845	2.63709
3587.12988	2.67847
3585.20132	2.72711
3583.27275	2.77050
3581.34419	2.81039
3579.41562	2.85261
3577.48706	2.89622
3575.55850	2.93733
3573.62993	2.97728
3571.70137	3.01743
3569.77280	3.05738
3567.84424	3.09929
3565.91567	3.15235
3563.98711	3.20815
3562.05854	3.25428
3560.12998	3.29792
3558.20142	3.34252
3556.27285	3.38678
3554.34429	3.42939
3552.41572	3.47376
3550.48716	3.51985
3548.55859	3.56317
3546.63003	3.60508
3544.70146	3.65245
3542.77290	3.70462
3540.84434	3.75483
3538.91577	3.80182
3536.98721	3.84670
3535.05864	3.89336
3533.13008	3.94175
3531.20151	3.99018
3529.27295	4.03986
3527.34438	4.08991
3525.41582	4.13489
3523.48726	4.17815
3521.55869	4.22750
3519.63013	4.27833
3517.70156	4.32565
3515.77300	4.36976
3513.84443	4.41511
3511.91587	4.46494
3509.98730	4.51813
3508.05874	4.57109
3506.13018	4.61916
3504.20161	4.66175
3502.27305	4.70321
3500.34448	4.74771
3498.41592	4.79357
3496.48735	4.84242
3494.55879	4.89589
3492.63022	4.94915
3490.70166	5.00018
3488.77310	5.04804
3486.84453	5.09350
3484.91597	5.14033
3482.98740	5.19096
3481.05884	5.24805
3479.13027	5.30650
3477.20171	5.35885
3475.27314	5.40428
3473.34458	5.44219
3471.41602	5.47243
3469.48745	5.51068
3467.55889	5.56864
3465.63032	5.62641
3463.70176	5.67725
3461.77319	5.73362
3459.84463	5.79255
3457.91606	5.84673
3455.98750	5.90561
3454.05894	5.97134
3452.13037	6.02627
3450.20181	6.06904
3448.27324	6.11581
3446.34468	6.17192
3444.41611	6.21845
3442.48755	6.25628
3440.55898	6.29806
3438.63042	6.34097
3436.70186	6.39017
3434.77329	6.46081
3432.84473	6.53236
3430.91616	6.55873
3428.98760	6.57554
3427.05903	6.62416
3425.13047	6.68025
3423.20190	6.73833
3421.27334	6.80045
3419.34478	6.83132
3417.41621	6.84397
3415.48765	6.87635
3413.55908	6.92198
3411.63052	6.97901
3409.70195	7.03967
3407.77339	7.09930
3405.84482	7.16371
3403.91626	7.21977
3401.98770	7.24080
3400.05913	7.28390
3398.13057	7.37819
3396.20200	7.41359
3394.27344	7.38388
3392.34487	7.39546
3390.41631	7.46105
3388.48774	7.51330
3386.55918	7.56017
3384.63062	7.62016
3382.70205	7.67039
3380.77349	7.69249
3378.84492	7.72030
3376.91636	7.80398
3374.98779	7.85723
3373.05923	7.86794
3371.13066	7.92603
3369.20210	8.00570
3367.27354	7.99429
3365.34497	7.91709
3363.41641	7.88402
3361.48784	7.89006
3359.55928	7.89247
3357.63071	7.91267
3355.70215	7.99750
3353.77358	8.06326
3351.84502	8.06174
3349.91646	8.05982
3347.98789	8.10435
3346.05933	8.17711
3344.13076	8.17701
3342.20220	8.11035
3340.27363	8.09196
3338.34507	8.14004
3336.41650	8.21535
3334.48794	8.32449
3332.55937	8.34068
3330.63081	8.27962
3328.70225	8.30878
3326.77368	8.36626
3324.84512	8.36350
3322.91655	8.34998
3320.98799	8.36591
3319.05942	8.34232
3317.13086	8.27347
3315.20229	8.22071
3313.27373	8.22813
3311.34517	8.27711
3309.41660	8.31797
3307.48804	8.33963
3305.55947	8.35443
3303.63091	8.34553
3301.70234	8.21912
3299.77378	8.12048
3297.84521	8.17982
3295.91665	8.29230
3293.98809	8.43165
3292.05952	8.58633
3290.13096	8.53954
3288.20239	8.33547
3286.27383	8.25158
3284.34526	8.28051
3282.41670	8.25101
3280.48813	8.17655
3278.55957	8.21106
3276.63101	8.29303
3274.70244	8.29362
3272.77388	8.29226
3270.84531	8.30328
3268.91675	8.31332
3266.98818	8.41226
3265.05962	8.51537
3263.13105	8.41093
3261.20249	8.27454
3259.27393	8.30985
3257.34536	8.42112
3255.41680	8.46859
3253.48823	8.45249
3251.55967	8.37905
3249.63110	8.31429
3247.70254	8.36097
3245.77397	8.43351
3243.84541	8.40522
3241.91685	8.27150
3239.98828	8.14757
3238.05972	8.17569
3236.13115	8.28790
3234.20259	8.33802
3232.27402	8.40694
3230.34546	8.52957
3228.41689	8.55958
3226.48833	8.45230
3224.55977	8.27482
3222.63120	8.12369
3220.70264	8.06011
3218.77407	8.05137
3216.84551	8.03371
3214.91694	8.03219
3212.98838	8.07380
3211.05981	8.04617
3209.13125	7.94009
3207.20269	7.89824
3205.27412	7.89632
3203.34556	7.84618
3201.41699	7.80924
3199.48843	7.82257
3197.55986	7.83710
3195.63130	7.81644
3193.70273	7.76103
3191.77417	7.68069
3189.84561	7.56342
3187.91704	7.45704
3185.98848	7.43229
3184.05991	7.43621
3182.13135	7.40707
3180.20278	7.39816
3178.27422	7.39906
3176.34565	7.33890
3174.41709	7.22949
3172.48853	7.12323
3170.55996	7.06284
3168.63140	7.03317
3166.70283	6.97350
3164.77427	6.89813
3162.84570	6.85344
3160.91714	6.82298
3158.98857	6.76538
3157.06001	6.67327
3155.13145	6.58072
3153.20288	6.50172
3151.27432	6.43221
3149.34575	6.36859
3147.41719	6.29244
3145.48862	6.20440
3143.56006	6.12520
3141.63149	6.06180
3139.70293	6.00049
3137.77437	5.93218
3135.84580	5.86203
3133.91724	5.79237
3131.98867	5.72054
3130.06011	5.64880
3128.13154	5.57511
3126.20298	5.49609
3124.27441	5.42513
3122.34585	5.36446
3120.41729	5.29941
3118.48872	5.22700
3116.56016	5.15320
3114.63159	5.08059
3112.70303	5.00912
3110.77446	4.93876
3108.84590	4.86903
3106.91733	4.80055
3104.98877	4.73331
3103.06021	4.66451
3101.13164	4.59427
3099.20308	4.52595
3097.27451	4.45721
3095.34595	4.38822
3093.41738	4.32307
3091.48882	4.25779
3089.56025	4.19116
3087.63169	4.12828
3085.70312	4.06825
3083.77456	4.00788
3081.84600	3.94719
3079.91743	3.88527
3077.98887	3.82364
3076.06030	3.76426
3074.13174	3.70622
3072.20317	3.65064
3070.27461	3.59703
3068.34604	3.54254
3066.41748	3.48591
3064.48892	3.42838
3062.56035	3.37307
3060.63179	3.32118
3058.70322	3.26927
3056.77466	3.21374
3054.84609	3.15789
3052.91753	3.10602
3050.98896	3.05541
3049.06040	3.00348
3047.13184	2.95294
3045.20327	2.90500
3043.27471	2.85753
3041.34614	2.80940
3039.41758	2.76163
3037.48901	2.71536
3035.56045	2.66995
3033.63188	2.62486
3031.70332	2.58035
3029.77476	2.53643
3027.84619	2.49361
3025.91763	2.45208
3023.98906	2.41128
3022.06050	2.37065
3020.13193	2.32945
3018.20337	2.28796
3016.27480	2.24738
3014.34624	2.20835
3012.41768	2.17040
3010.48911	2.13308
3008.56055	2.09642
3006.63198	2.05993
3004.70342	2.02371
3002.77485	1.98863
3000.84629	1.95485
2998.91772	1.92217
2996.98916	1.88997
2995.06060	1.85766
2993.13203	1.82603
2991.20347	1.79604
2989.27490	1.76688
2987.34634	1.73760
2985.41777	1.70859
2983.48921	1.68028
2981.56064	1.65271
2979.63208	1.62582
2977.70352	1.59942
2975.77495	1.57357
2973.84639	1.54843
2971.91782	1.52387
2969.98926	1.49971
2968.06069	1.47606
2966.13213	1.45277
2964.20356	1.42919
2962.27500	1.40532
2960.34644	1.38181
2958.41787	1.35855
2956.48931	1.33511
2954.56074	1.31128
2952.63218	1.28716
2950.70361	1.26360
2948.77505	1.24124
2946.84648	1.21962
2944.91792	1.19803
2942.98936	1.17667
2941.06079	1.15647
2939.13223	1.13766
2937.20366	1.11935
2935.27510	1.10031
2933.34653	1.08074
2931.41797	1.06187
2929.48940	1.04326
2927.56084	1.02430
2925.63228	1.00559
2923.70371	0.98757
2921.77515	0.97015
2919.84658	0.95294
2917.91802	0.93563
2915.98945	0.91836
2914.06089	0.90110
2912.13232	0.88388
2910.20376	0.86725
2908.27520	0.85129
2906.34663	0.83577
2904.41807	0.82106
2902.48950	0.80731
2900.56094	0.79392
2898.63237	0.78055
2896.70381	0.76708
2894.77524	0.75368
2892.84668	0.74088
2890.91812	0.72885
2888.98955	0.71736
2887.06099	0.70610
2885.13242	0.69513
2883.20386	0.68449
2881.27529	0.67426
2879.34673	0.66479
2877.41816	0.65583
2875.48960	0.64647
2873.56104	0.63650
2871.63247	0.62614
2869.70391	0.61501
2867.77534	0.60339
2865.84678	0.59201
2863.91821	0.58064
2861.98965	0.56911
2860.06108	0.55802
2858.13252	0.54776
2856.20396	0.53815
2854.27539	0.52894
2852.34683	0.51989
2850.41826	0.51104
2848.48970	0.50262
2846.56113	0.49447
2844.63257	0.48634
2842.70400	0.47832
2840.77544	0.47104
2838.84687	0.46461
2836.91831	0.45849
2834.98975	0.45230
2833.06118	0.44597
2831.13262	0.43975
2829.20405	0.43385
2827.27549	0.42799
2825.34692	0.42193
2823.41836	0.41589
2821.48979	0.40997
2819.56123	0.40389
2817.63267	0.39772
2815.70410	0.39179
2813.77554	0.38612
2811.84697	0.38059
2809.91841	0.37506
2807.98984	0.36949
2806.06128	0.36405
2804.13271	0.35889
2802.20415	0.35393
2800.27559	0.34894
2798.34702	0.34382
2796.41846	0.33873
2794.48989	0.33396
2792.56133	0.32955
2790.63276	0.32510
2788.70420	0.32042
2786.77563	0.31589
2784.84707	0.31169
2782.91851	0.30757
2780.98994	0.30341
2779.06138	0.29927
2777.13281	0.29519
2775.20425	0.29115
2773.27568	0.28710
2771.34712	0.28316
2769.41855	0.27954
2767.48999	0.27613
2765.56143	0.27265
2763.63286	0.26916
2761.70430	0.26573
2759.77573	0.26229
2757.84717	0.25891
2755.91860	0.25571
2753.99004	0.25271
2752.06147	0.24973
2750.13291	0.24669
2748.20435	0.24372
2746.27578	0.24085
2744.34722	0.23800
2742.41865	0.23525
2740.49009	0.23263
2738.56152	0.23002
2736.63296	0.22743
2734.70439	0.22498
2732.77583	0.22254
2730.84727	0.21997
2728.91870	0.21743
2726.99014	0.21508
2725.06157	0.21283
2723.13301	0.21069
2721.20444	0.20875
2719.27588	0.20683
2717.34731	0.20476
2715.41875	0.20264
2713.49019	0.20063
2711.56162	0.19877
2709.63306	0.19709
2707.70449	0.19550
2705.77593	0.19384
2703.84736	0.19214
2701.91880	0.19049
2699.99023	0.18895
2698.06167	0.18750
2696.13311	0.18604
2694.20454	0.18447
2692.27598	0.18294
2690.34741	0.18174
2688.41885	0.18062
2686.49028	0.17937
2684.56172	0.17810
2682.63315	0.17690
2680.70459	0.17575
2678.77603	0.17458
2676.84746	0.17329
2674.91890	0.17198
2672.99033	0.17083
2671.06177	0.16993
2669.13320	0.16904
2667.20464	0.16788
2665.27607	0.16669
2663.34751	0.16576
2661.41895	0.16502
2659.49038	0.16429
2657.56182	0.16343
2655.63325	0.16247
2653.70469	0.16156
2651.77612	0.16077
2649.84756	0.16011
2647.91899	0.15955
2645.99043	0.15895
2644.06187	0.15826
2642.13330	0.15765
2640.20474	0.15728
2638.27617	0.15699
2636.34761	0.15652
2634.41904	0.15585
2632.49048	0.15528
2630.56191	0.15499
2628.63335	0.15475
2626.70479	0.15436
2624.77622	0.15391
2622.84766	0.15344
2620.91909	0.15300
2618.99053	0.15281
2617.06196	0.15274
2615.13340	0.15254
2613.20483	0.15226
2611.27627	0.15205
2609.34771	0.15204
2607.41914	0.15213
2605.49058	0.15206
2603.56201	0.15183
2601.63345	0.15178
2599.70488	0.15194
2597.77632	0.15199
2595.84775	0.15186
2593.91919	0.15172
2591.99062	0.15163
2590.06206	0.15165
2588.13350	0.15191
2586.20493	0.15234
2584.27637	0.15274
2582.34780	0.15297
2580.41924	0.15315
2578.49067	0.15337
2576.56211	0.15356
2574.63354	0.15375
2572.70498	0.15404
2570.77642	0.15438
2568.84785	0.15470
2566.91929	0.15505
2564.99072	0.15550
2563.06216	0.15589
2561.13359	0.15621
2559.20503	0.15672
2557.27646	0.15733
2555.34790	0.15785
2553.41934	0.15833
2551.49077	0.15889
2549.56221	0.15945
2547.63364	0.15991
2545.70508	0.16036
2543.77651	0.16085
2541.84795	0.16138
2539.91938	0.16203
2537.99082	0.16268
2536.06226	0.16330
2534.13369	0.16400
2532.20513	0.16471
2530.27656	0.16540
2528.34800	0.16614
2526.41943	0.16688
2524.49087	0.16759
2522.56230	0.16832
2520.63374	0.16906
2518.70518	0.16978
2516.77661	0.17053
2514.84805	0.17126
2512.91948	0.17199
2510.99092	0.17269
2509.06235	0.17338
2507.13379	0.17415
2505.20522	0.17495
2503.27666	0.17576
2501.34810	0.17661
2499.41953	0.17754
2497.49097	0.17852
2495.56240	0.17933
2493.63384	0.18002
2491.70527	0.18084
2489.77671	0.18173
2487.84814	0.18253
2485.91958	0.18326
2483.99102	0.18407
2482.06245	0.18498
2480.13389	0.18589
2478.20532	0.18678
2476.27676	0.18766
2474.34819	0.18855
2472.41963	0.18946
2470.49106	0.19024
2468.56250	0.19103
2466.63394	0.19201
2464.70537	0.19308
2462.77681	0.19404
2460.84824	0.19493
2458.91968	0.19585
2456.99111	0.19678
2455.06255	0.19772
2453.13398	0.19872
2451.20542	0.19973
2449.27686	0.20074
2447.34829	0.20179
2445.41973	0.20290
2443.49116	0.20401
2441.56260	0.20496
2439.63403	0.20577
2437.70547	0.20669
2435.77690	0.20776
2433.84834	0.20889
2431.91978	0.20996
2429.99121	0.21090
2428.06265	0.21181
2426.13408	0.21283
2424.20552	0.21398
2422.27695	0.21521
2420.34839	0.21635
2418.41982	0.21730
2416.49126	0.21831
2414.56270	0.21951
2412.63413	0.22079
2410.70557	0.22205
2408.77700	0.22321
2406.84844	0.22433
2404.91987	0.22551
2402.99131	0.22664
2401.06274	0.22775
2399.13418	0.22898
2397.20562	0.23031
2395.27705	0.23153
2393.34849	0.23268
2391.41992	0.23397
2389.49136	0.23540
2387.56279	0.23697
2385.63423	0.23873
2383.70566	0.24087
2381.77710	0.24360
2379.84854	0.24687
2377.91997	0.25036
2375.99141	0.25415
2374.06284	0.25851
2372.13428	0.26317
2370.20571	0.26776
2368.27715	0.27252
2366.34858	0.27780
2364.42002	0.28330
2362.49146	0.28818
2360.56289	0.29142
2358.63433	0.29240
2356.70576	0.29184
2354.77720	0.29053
2352.84863	0.28792
2350.92007	0.28421
2348.99150	0.28179
2347.06294	0.28240
2345.13437	0.28658
2343.20581	0.29280
2341.27725	0.29720
2339.34868	0.29847
2337.42012	0.29833
2335.49155	0.29868
2333.56299	0.29954
2331.63442	0.30053
2329.70586	0.30191
2327.77729	0.30364
2325.84873	0.30461
2323.92017	0.30446
2321.99160	0.30394
2320.06304	0.30385
2318.13447	0.30431
2316.20591	0.30480
2314.27734	0.30542
2312.34878	0.30645
2310.42021	0.30756
2308.49165	0.30832
2306.56309	0.30881
2304.63452	0.30950
2302.70596	0.31068
2300.77739	0.31220
2298.84883	0.31373
2296.92026	0.31518
2294.99170	0.31670
2293.06313	0.31836
2291.13457	0.32000
2289.20601	0.32152
2287.27744	0.32301
2285.34888	0.32458
2283.42031	0.32623
2281.49175	0.32807
2279.56318	0.33019
2277.63462	0.33238
2275.70605	0.33450
2273.77749	0.33662
2271.84893	0.33871
2269.92036	0.34072
2267.99180	0.34280
2266.06323	0.34497
2264.13467	0.34711
2262.20610	0.34927
2260.27754	0.35138
2258.34897	0.35333
2256.42041	0.35533
2254.49185	0.35746
2252.56328	0.35966
2250.63472	0.36198
2248.70615	0.36429
2246.77759	0.36646
2244.84902	0.36858
2242.92046	0.37072
2240.99189	0.37287
2239.06333	0.37502
2237.13477	0.37712
2235.20620	0.37925
2233.27764	0.38155
2231.34907	0.38394
2229.42051	0.38618
2227.49194	0.38828
2225.56338	0.39042
2223.63481	0.39270
2221.70625	0.39500
2219.77769	0.39723
2217.84912	0.39944
2215.92056	0.40163
2213.99199	0.40377
2212.06343	0.40596
2210.13486	0.40814
2208.20630	0.41019
2206.27773	0.41220
2204.34917	0.41432
2202.42061	0.41647
2200.49204	0.41856
2198.56348	0.42061
2196.63491	0.42258
2194.70635	0.42459
2192.77778	0.42662
2190.84922	0.42851
2188.92065	0.43027
2186.99209	0.43195
2185.06353	0.43361
2183.13496	0.43536
2181.20640	0.43712
2179.27783	0.43873
2177.34927	0.44028
2175.42070	0.44185
2173.49214	0.44335
2171.56357	0.44478
2169.63501	0.44626
2167.70645	0.44768
2165.77788	0.44897
2163.84932	0.45022
2161.92075	0.45136
2159.99219	0.45236
2158.06362	0.45332
2156.13506	0.45434
2154.20649	0.45532
2152.27793	0.45616
2150.34937	0.45692
2148.42080	0.45763
2146.49224	0.45815
2144.56367	0.45848
2142.63511	0.45886
2140.70654	0.45928
2138.77798	0.45957
2136.84941	0.45971
2134.92085	0.45975
2132.99229	0.45974
2131.06372	0.45973
2129.13516	0.45961
2127.20659	0.45940
2125.27803	0.45918
2123.34946	0.45890
2121.42090	0.45848
2119.49233	0.45790
2117.56377	0.45722
2115.63521	0.45648
2113.70664	0.45573
2111.77808	0.45491
2109.84951	0.45397
2107.92095	0.45295
2105.99238	0.45182
2104.06382	0.45051
2102.13525	0.44918
2100.20669	0.44799
2098.27812	0.44676
2096.34956	0.44533
2094.42100	0.44377
2092.49243	0.44216
2090.56387	0.44043
2088.63530	0.43862
2086.70674	0.43687
2084.77817	0.43516
2082.84961	0.43338
2080.92104	0.43147
2078.99248	0.42941
2077.06392	0.42724
2075.13535	0.42504
2073.20679	0.42281
2071.27822	0.42060
2069.34966	0.41836
2067.42109	0.41594
2065.49253	0.41348
2063.56396	0.41112
2061.63540	0.40885
2059.70684	0.40652
2057.77827	0.40402
2055.84971	0.40144
2053.92114	0.39889
2051.99258	0.39635
2050.06401	0.39378
2048.13545	0.39112
2046.20688	0.38839
2044.27832	0.38572
2042.34976	0.38308
2040.42119	0.38039
2038.49263	0.37760
2036.56406	0.37482
2034.63550	0.37216
2032.70693	0.36953
2030.77837	0.36683
2028.84980	0.36396
2026.92124	0.36102
2024.99268	0.35813
2023.06411	0.35529
2021.13555	0.35242
2019.20698	0.34952
2017.27842	0.34673
2015.34985	0.34409
2013.42129	0.34145
2011.49272	0.33871
2009.56416	0.33596
2007.63560	0.33325
2005.70703	0.33059
2003.77847	0.32800
2001.84990	0.32540
1999.92134	0.32264
1997.99277	0.31988
1996.06421	0.31733
1994.13564	0.31475
1992.20708	0.31199
1990.27852	0.30936
1988.34995	0.30706
1986.42139	0.30479
1984.49282	0.30242
1982.56426	0.30000
1980.63569	0.29767
1978.70713	0.29550
1976.77856	0.29330
1974.85000	0.29095
1972.92144	0.28855
1970.99287	0.28623
1969.06431	0.28394
1967.13574	0.28171
1965.20718	0.27979
1963.27861	0.27811
1961.35005	0.27641
1959.42148	0.27467
1957.49292	0.27287
1955.56436	0.27098
1953.63579	0.26914
1951.70723	0.26742
1949.77866	0.26577
1947.85010	0.26406
1945.92153	0.26229
1943.99297	0.26050
1942.06440	0.25886
1940.13584	0.25752
1938.20728	0.25628
1936.27871	0.25497
1934.35015	0.25369
1932.42158	0.25253
1930.49302	0.25130
1928.56445	0.25005
1926.63589	0.24884
1924.70732	0.24767
1922.77876	0.24651
1920.85020	0.24549
1918.92163	0.24452
1916.99307	0.24371
1915.06450	0.24313
1913.13594	0.24242
1911.20737	0.24156
1909.27881	0.24070
1907.35024	0.24000
1905.42168	0.23947
1903.49312	0.23897
1901.56455	0.23850
1899.63599	0.23804
1897.70742	0.23755
1895.77886	0.23701
1893.85029	0.23656
1891.92173	0.23613
1889.99316	0.23578
1888.06460	0.23567
1886.13604	0.23567
1884.20747	0.23555
1882.27891	0.23537
1880.35034	0.23522
1878.42178	0.23512
1876.49321	0.23511
1874.56465	0.23509
1872.63608	0.23498
1870.70752	0.23460
1868.77896	0.23431
1866.85039	0.23470
1864.92183	0.23547
1862.99326	0.23601
1861.06470	0.23626
1859.13613	0.23657
1857.20757	0.23700
1855.27900	0.23744
1853.35044	0.23781
1851.42187	0.23821
1849.49331	0.23862
1847.56475	0.23898
1845.63618	0.23925
1843.70762	0.23992
1841.77905	0.24127
1839.85049	0.24243
1837.92192	0.24333
1835.99336	0.24416
1834.06479	0.24502
1832.13623	0.24567
1830.20767	0.24643
1828.27910	0.24774
1826.35054	0.24909
1824.42197	0.25059
1822.49341	0.25231
1820.56484	0.25392
1818.63628	0.25535
1816.70771	0.25694
1814.77915	0.25850
1812.85059	0.25997
1810.92202	0.26171
1808.99346	0.26384
1807.06489	0.26603
1805.13633	0.26800
1803.20776	0.26992
1801.27920	0.27197
1799.35063	0.27456
1797.42207	0.27721
1795.49351	0.27964
1793.56494	0.28207
1791.63638	0.28541
1789.70781	0.28955
1787.77925	0.29294
1785.85068	0.29620
1783.92212	0.29973
1781.99355	0.30347
1780.06499	0.30751
1778.13643	0.31183
1776.20786	0.31558
1774.27930	0.31896
1772.35073	0.32392
1770.42217	0.33075
1768.49360	0.33709
1766.56504	0.34285
1764.63647	0.34822
1762.70791	0.35369
1760.77935	0.36095
1758.85078	0.36811
1756.92222	0.37526
1754.99365	0.38317
1753.06509	0.38997
1751.13652	0.39730
1749.20796	0.40707
1747.27939	0.41774
1745.35083	0.42740
1743.42227	0.43736
1741.49370	0.44815
1739.56514	0.46075
1737.63657	0.47322
1735.70801	0.48346
1733.77944	0.49882
1731.85088	0.51883
1729.92231	0.53538
1727.99375	0.55186
1726.06519	0.56888
1724.13662	0.58716
1722.20806	0.60689
1720.27949	0.62440
1718.35093	0.64407
1716.42236	0.67529
1714.49380	0.70728
1712.56523	0.73325
1710.63667	0.75762
1708.70811	0.78291
1706.77954	0.81112
1704.85098	0.84552
1702.92241	0.87667
1700.99385	0.90672
1699.06528	0.95252
1697.13672	0.99627
1695.20815	1.04198
1693.27959	1.08595
1691.35103	1.12033
1689.42246	1.15987
1687.49390	1.20176
1685.56533	1.24117
1683.63677	1.30445
1681.70820	1.37413
1679.77964	1.41829
1677.85107	1.45940
1675.92251	1.50577
1673.99395	1.56347
1672.06538	1.61466
1670.13682	1.66504
1668.20825	1.73467
1666.27969	1.79210
1664.35112	1.83956
1662.42256	1.89907
1660.49399	1.96880
1658.56543	2.02326
1656.63687	2.06704
1654.70830	2.10786
1652.77974	2.17348
1650.85117	2.23201
1648.92261	2.24791
1646.99404	2.26921
1645.06548	2.29261
1643.13691	2.31281
1641.20835	2.32502
1639.27979	2.33408
1637.35122	2.33689
1635.42266	2.33015
1633.49409	2.31940
1631.56553	2.30674
1629.63696	2.29008
1627.70840	2.25971
1625.77983	2.22539
1623.85127	2.18173
1621.92271	2.12853
1619.99414	2.08356
1618.06558	2.03924
1616.13701	1.97311
1614.20845	1.90714
1612.27988	1.85783
1610.35132	1.80505
1608.42275	1.74752
1606.49419	1.69194
1604.56562	1.64239
1602.63706	1.59467
1600.70850	1.54714
1598.77993	1.50294
1596.85137	1.46163
1594.92280	1.42190
1592.99424	1.38380
1591.06567	1.34943
1589.13711	1.31761
1587.20854	1.28805
1585.27998	1.26112
1583.35142	1.23663
1581.42285	1.21461
1579.49429	1.19575
1577.56572	1.17842
1575.63716	1.15762
1573.70859	1.14088
1571.78003	1.13031
1569.85146	1.11899
1567.92290	1.10750
1565.99434	1.10023
1564.06577	1.09542
1562.13721	1.09196
1560.20864	1.09016
1558.28008	1.09129
1556.35151	1.09539
1554.42295	1.09841
1552.49438	1.10094
1550.56582	1.10148
1548.63726	1.09928
1546.70869	1.09427
1544.78013	1.08539
1542.85156	1.07216
1540.92300	1.05225
1538.99443	1.02264
1537.06587	1.00273
1535.13730	0.98868
1533.20874	0.96860
1531.28018	0.94759
1529.35161	0.93257
1527.42305	0.91767
1525.49448	0.90205
1523.56592	0.88897
1521.63735	0.87678
1519.70879	0.86528
1517.78022	0.85562
1515.85166	0.84391
1513.92310	0.83209
1511.99453	0.82157
1510.06597	0.81088
1508.13740	0.79902
1506.20884	0.78269
1504.28027	0.77241
1502.35171	0.76686
1500.42314	0.76050
1498.49458	0.75288
1496.56602	0.74484
1494.63745	0.73798
1492.70889	0.73227
1490.78032	0.72597
1488.85176	0.71882
1486.92319	0.71377
1484.99463	0.71046
1483.06606	0.70748
1481.13750	0.70469
1479.20894	0.70251
1477.28037	0.70093
1475.35181	0.69980
1473.42324	0.69944
1471.49468	0.69971
1469.56611	0.69945
1467.63755	0.69805
1465.70898	0.69611
1463.78042	0.69482
1461.85186	0.69441
1459.92329	0.69392
1457.99473	0.69320
1456.06616	0.69261
1454.13760	0.69162
1452.20903	0.69008
1450.28047	0.68790
1448.35190	0.68521
1446.42334	0.68268
1444.49478	0.68065
1442.56621	0.67852
1440.63765	0.67583
1438.70908	0.67273
1436.78052	0.66900
1434.85195	0.66523
1432.92339	0.66253
1430.99482	0.66078
1429.06626	0.66017
1427.13770	0.66040
1425.20913	0.66079
1423.28057	0.66134
1421.35200	0.66176
1419.42344	0.66181
1417.49487	0.66184
1415.56631	0.66171
1413.63774	0.66147
1411.70918	0.66150
1409.78062	0.66220
1407.85205	0.66335
1405.92349	0.66467
1403.99492	0.66596
1402.06636	0.66632
1400.13779	0.66540
1398.20923	0.66348
1396.28066	0.66081
1394.35210	0.65725
1392.42354	0.65337
1390.49497	0.64966
1388.56641	0.64552
1386.63784	0.64059
1384.70928	0.63563
1382.78071	0.63097
1380.85215	0.62642
1378.92358	0.62244
1376.99502	0.61937
1375.06646	0.61707
1373.13789	0.61565
1371.20933	0.61511
1369.28076	0.61461
1367.35220	0.61363
1365.42363	0.61212
1363.49507	0.61021
1361.56650	0.60840
1359.63794	0.60707
1357.70937	0.60591
1355.78081	0.60472
1353.85225	0.60365
1351.92368	0.60282
1349.99512	0.60208
1348.06655	0.60123
1346.13799	0.60022
1344.20942	0.59915
1342.28086	0.59800
1340.35229	0.59687
1338.42373	0.59604
1336.49517	0.59562
1334.56660	0.59546
1332.63804	0.59557
1330.70947	0.59600
1328.78091	0.59658
1326.85234	0.59708
1324.92378	0.59767
1322.99521	0.59849
1321.06665	0.59919
1319.13809	0.59955
1317.20952	0.59977
1315.28096	0.59993
1313.35239	0.59983
1311.42383	0.59935
1309.49526	0.59862
1307.56670	0.59792
1305.63813	0.59744
1303.70957	0.59701
1301.78101	0.59630
1299.85244	0.59526
1297.92388	0.59404
1295.99531	0.59277
1294.06675	0.59146
1292.13818	0.59003
1290.20962	0.58859
1288.28105	0.58740
1286.35249	0.58634
1284.42393	0.58511
1282.49536	0.58370
1280.56680	0.58219
1278.63823	0.58064
1276.70967	0.57911
1274.78110	0.57768
1272.85254	0.57660
1270.92397	0.57596
1268.99541	0.57543
1267.06685	0.57477
1265.13828	0.57409
1263.20972	0.57336
1261.28115	0.57259
1259.35259	0.57183
1257.42402	0.57117
1255.49546	0.57096
1253.56689	0.57106
1251.63833	0.57104
1249.70977	0.57093
1247.78120	0.57082
1245.85264	0.57058
1243.92407	0.57005
1241.99551	0.56918
1240.06694	0.56785
1238.13838	0.56613
1236.20981	0.56408
1234.28125	0.56179
1232.35269	0.55947
1230.42412	0.55727
1228.49556	0.55518
1226.56699	0.55316
1224.63843	0.55122
1222.70986	0.54942
1220.78130	0.54776
1218.85273	0.54613
1216.92417	0.54447
1214.99561	0.54300
1213.06704	0.54193
1211.13848	0.54129
1209.20991	0.54088
1207.28135	0.54039
1205.35278	0.53966
1203.42422	0.53870
1201.49565	0.53760
1199.56709	0.53655
1197.63853	0.53559
1195.70996	0.53474
1193.78140	0.53412
1191.85283	0.53363
1189.92427	0.53317
1187.99570	0.53279
1186.06714	0.53250
1184.13857	0.53237
1182.21001	0.53265
1180.28145	0.53353
1178.35288	0.53483
1176.42432	0.53621
1174.49575	0.53744
1172.56719	0.53840
1170.63862	0.53891
1168.71006	0.53905
1166.78149	0.53920
1164.85293	0.53935
1162.92437	0.53932
1160.99580	0.53921
1159.06724	0.53894
1157.13867	0.53823
1155.21011	0.53717
1153.28154	0.53591
1151.35298	0.53428
1149.42441	0.53214
1147.49585	0.52960
1145.56729	0.52688
1143.63872	0.52424
1141.71016	0.52204
1139.78159	0.52028
1137.85303	0.51885
1135.92446	0.51798
1133.99590	0.51774
1132.06733	0.51775
1130.13877	0.51764
1128.21021	0.51740
1126.28164	0.51719
1124.35308	0.51696
1122.42451	0.51662
1120.49595	0.51627
1118.56738	0.51623
1116.63882	0.51677
1114.71025	0.51751
1112.78169	0.51799
1110.85312	0.51847
1108.92456	0.51921
1106.99600	0.52004
1105.06743	0.52077
1103.13887	0.52150
1101.21030	0.52268
1099.28174	0.52455
1097.35317	0.52689
1095.42461	0.52960
1093.49604	0.53288
1091.56748	0.53718
1089.63892	0.54290
1087.71035	0.55001
1085.78179	0.55799
1083.85322	0.56609
1081.92466	0.57330
1079.99609	0.57853
1078.06753	0.58100
1076.13896	0.58052
1074.21040	0.57731
1072.28184	0.57190
1070.35327	0.56522
1068.42471	0.55823
1066.49614	0.55131
1064.56758	0.54490
1062.63901	0.53951
1060.71045	0.53490
1058.78188	0.53077
1056.85332	0.52703
1054.92476	0.52363
1052.99619	0.52071
1051.06763	0.51847
1049.13906	0.51680
1047.21050	0.51539
1045.28193	0.51431
1043.35337	0.51382
1041.42480	0.51367
1039.49624	0.51349
1037.56768	0.51332
1035.63911	0.51317
1033.71055	0.51268
1031.78198	0.51162
1029.85342	0.51015
1027.92485	0.50867
1025.99629	0.50746
1024.06772	0.50644
1022.13916	0.50569
1020.21060	0.50535
1018.28203	0.50499
1016.35347	0.50456
1014.42490	0.50446
1012.49634	0.50455
1010.56777	0.50453
1008.63921	0.50469
1006.71064	0.50534
1004.78208	0.50642
1002.85352	0.50811
1000.92495	0.51077
998.99639	0.51414
997.06782	0.51793
995.13926	0.52210
993.21069	0.52625
991.28213	0.52970
989.35356	0.53188
987.42500	0.53261
985.49644	0.53243
983.56787	0.53222
981.63931	0.53246
979.71074	0.53316
977.78218	0.53419
975.85361	0.53571
973.92505	0.53811
971.99648	0.54129
970.06792	0.54475
968.13936	0.54834
966.21079	0.55222
964.28223	0.55659
962.35366	0.56156
960.42510	0.56679
958.49653	0.57194
956.56797	0.57723
954.63940	0.58295
952.71084	0.58907
950.78228	0.59529
948.85371	0.60142
946.92515	0.60762
944.99658	0.61408
943.06802	0.62071
941.13945	0.62716
939.21089	0.63316
937.28232	0.63900
935.35376	0.64485
933.42520	0.65044
931.49663	0.65600
929.56807	0.66186
927.63950	0.66776
925.71094	0.67347
923.78237	0.67906
921.85381	0.68517
919.92524	0.69226
917.99668	0.69969
916.06812	0.70702
914.13955	0.71429
912.21099	0.72139
910.28242	0.72923
908.35386	0.73875
906.42529	0.74875
904.49673	0.75778
902.56816	0.76614
900.63960	0.77520
898.71104	0.78498
896.78247	0.79449
894.85391	0.80388
892.92534	0.81356
890.99678	0.82321
889.06821	0.83316
887.13965	0.84473
885.21108	0.85710
883.28252	0.86848
881.35396	0.87980
879.42539	0.89147
877.49683	0.90237
875.56826	0.91277
873.63970	0.92387
871.71113	0.93614
869.78257	0.94801
867.85400	0.95865
865.92544	0.96945
863.99687	0.98040
862.06831	0.99103
860.13975	1.00197
858.21118	1.01395
856.28262	1.02661
854.35405	1.03904
852.42549	1.05120
850.49692	1.06294
848.56836	1.07447
846.63979	1.08761
844.71123	1.10374
842.78267	1.11940
840.85410	1.12949
838.92554	1.13609
836.99697	1.14475
835.06841	1.15671
833.13984	1.17094
831.21128	1.18307
829.28271	1.19064
827.35415	1.20175
825.42559	1.21832
823.49702	1.22951
821.56846	1.23371
819.63989	1.24351
817.71133	1.26199
815.78276	1.27754
813.85420	1.28691
811.92563	1.29812
809.99707	1.31064
808.06851	1.31516
806.13994	1.32019
804.21138	1.33921
802.28281	1.36237
800.35425	1.38427
798.42568	1.41904
796.49712	1.45271
794.56855	1.45571
792.63999	1.45193
790.71143	1.45113
788.78286	1.43741
786.85430	1.43740
784.92573	1.46537
782.99717	1.50838
781.06860	1.59152
779.14004	1.72769
777.21147	1.71089
775.28291	1.51198
773.35435	1.41184
771.42578	1.46953
769.49722	1.60499
767.56865	1.67665
765.64009	1.68681
763.71152	1.66068
761.78296	1.65059
759.85439	1.61070
757.92583	1.51199
755.99727	1.41337
754.06870	1.29208
752.14014	1.20198
750.21157	1.24217
748.28301	1.30023
746.35444	1.18072
744.42588	1.10740
742.49731	1.11861
740.56875	1.05423
738.64019	0.94595
736.71162	0.88415
734.78306	0.88894
732.85449	0.94456
730.92593	1.03067
728.99736	1.47293
727.06880	4.36241
725.14023	0.78505
723.21167	0.47461
721.28311	0.32840
719.35454	0.20501
717.42598	0.11080
715.49741	0.01195
713.56885	-0.07128
711.64028	0.04075
709.71172	0.37621
707.78315	0.15106
705.85459	0.14446
703.92603	0.33018
701.99746	0.57137
700.06890	1.41477
698.14033	4.18884
696.21177	0.51178
694.28320	0.21047
692.35464	0.17552
690.42607	0.32514
688.49751	0.41329
686.56895	0.28150
684.64038	0.23282
682.71182	0.25887
680.78325	0.21436
678.85469	0.12142
676.92612	0.09239
674.99756	0.15502
673.06899	0.35650
671.14043	0.74443
669.21187	0.44923
667.28330	0.20097
665.35474	0.11364
663.42617	0.16700
661.49761	0.29872
659.56904	0.29419
657.64048	0.22095
655.71191	0.20105
653.78335	0.17176
651.85479	0.12001
649.92622	0.14921
647.99766	0.18763
646.06909	0.19675
644.14053	0.20327
642.21196	0.20613
640.28340	0.25728
638.35483	0.32762
636.42627	0.30912
634.49771	0.36411
632.56914	0.92110
630.64058	3.78384
628.71201	3.77227
626.78345	0.59909
624.85488	0.41285
622.92632	0.33868
620.99775	0.34556
619.06919	0.48573
617.14062	0.52267
615.21206	0.29653
613.28350	0.15478
611.35493	0.16430
609.42637	0.20487
607.49780	0.16723
605.56924	0.15748
603.64067	0.25036
601.71211	0.38584
599.78354	0.28259
597.85498	0.17194
595.92642	0.16419
593.99785	0.20607
592.06929	0.27163
590.14072	0.28666
588.21216	0.19783
586.28359	0.14722
584.35503	0.12437
582.42646	0.10278
580.49790	0.15860
578.56934	0.23750
576.64077	0.27282
574.71221	0.31215
572.78364	0.36000
570.85508	0.28291
568.92651	0.21350
566.99795	0.27918
565.06938	0.38464
563.14082	0.42056
561.21226	0.39157
559.28369	0.27442
557.35513	0.15125
555.42656	0.09606
553.49800	0.09992
551.56943	0.13714
549.64087	0.21699
547.71230	0.32718
545.78374	0.33334
543.85518	0.21014
541.92661	0.17999
539.99805	0.28168
538.06948	0.44976
536.14092	0.51897
534.21235	0.37987
532.28379	0.29608
530.35522	0.35366
528.42666	0.37551
526.49810	0.23460
524.56953	0.16289
522.64097	0.15311
520.71240	0.13755
518.78384	0.12924
516.85527	0.14840
514.92671	0.21003
512.99814	0.25641
511.06958	0.22091
509.14102	0.21085
507.21245	0.25161
505.28389	0.28430
503.35532	0.30265
501.42676	0.31549
499.49819	0.31220
