3997.91411	0.05927
3995.98555	0.05994
3994.05698	0.06046
3992.12842	0.06086
3990.19985	0.06115
3988.27129	0.06130
3986.34272	0.06155
3984.41416	0.06188
3982.48560	0.06212
3980.55703	0.06219
3978.62847	0.06209
3976.69990	0.06190
3974.77134	0.06191
3972.84277	0.06230
3970.91421	0.06262
3968.98564	0.06273
3967.05708	0.06306
3965.12852	0.06342
3963.19995	0.06350
3961.27139	0.06383
3959.34282	0.06433
3957.41426	0.06432
3955.48569	0.06406
3953.55713	0.06400
3951.62856	0.06401
3949.70000	0.06416
3947.77144	0.06457
3945.84287	0.06471
3943.91431	0.06456
3941.98574	0.06446
3940.05718	0.06405
3938.12861	0.06359
3936.20005	0.06362
3934.27148	0.06377
3932.34292	0.06370
3930.41436	0.06366
3928.48579	0.06373
3926.55723	0.06386
3924.62866	0.06434
3922.70010	0.06456
3920.77153	0.06426
3918.84297	0.06424
3916.91440	0.06452
3914.98584	0.06444
3913.05728	0.06398
3911.12871	0.06368
3909.20015	0.06364
3907.27158	0.06342
3905.34302	0.06296
3903.41445	0.06288
3901.48589	0.06352
3899.55732	0.06402
3897.62876	0.06385
3895.70020	0.06347
3893.77163	0.06324
3891.84307	0.06329
3889.91450	0.06351
3887.98594	0.06345
3886.05737	0.06345
3884.12881	0.06376
3882.20024	0.06379
3880.27168	0.06388
3878.34312	0.06432
3876.41455	0.06449
3874.48599	0.06466
3872.55742	0.06507
3870.62886	0.06539
3868.70029	0.06587
3866.77173	0.06617
3864.84316	0.06610
3862.91460	0.06634
3860.98604	0.06672
3859.05747	0.06675
3857.12891	0.06686
3855.20034	0.06771
3853.27178	0.06940
3851.34321	0.07031
3849.41465	0.06977
3847.48608	0.06930
3845.55752	0.06913
3843.62896	0.06924
3841.70039	0.06981
3839.77183	0.07105
3837.84326	0.07260
3835.91470	0.07332
3833.98613	0.07329
3832.05757	0.07376
3830.12900	0.07480
3828.20044	0.07542
3826.27187	0.07548
3824.34331	0.07576
3822.41475	0.07685
3820.48618	0.07893
3818.55762	0.08021
3816.62905	0.08045
3814.70049	0.08159
3812.77192	0.08265
3810.84336	0.08283
3808.91479	0.08312
3806.98623	0.08390
3805.05767	0.08473
3803.12910	0.08559
3801.20054	0.08759
3799.27197	0.09028
3797.34341	0.09173
3795.41484	0.09268
3793.48628	0.09352
3791.55771	0.09422
3789.62915	0.09512
3787.70059	0.09614
3785.77202	0.09730
3783.84346	0.09901
3781.91489	0.10093
3779.98633	0.10263
3778.05776	0.10451
3776.12920	0.10615
3774.20063	0.10745
3772.27207	0.10886
3770.34351	0.11055
3768.41494	0.11268
3766.48638	0.11493
3764.55781	0.11715
3762.62925	0.11919
3760.70068	0.12104
3758.77212	0.12316
3756.84355	0.12531
3754.91499	0.12716
3752.98643	0.12927
3751.05786	0.13270
3749.12930	0.13686
3747.20073	0.13901
3745.27217	0.14097
3743.34360	0.14527
3741.41504	0.14947
3739.48647	0.15213
3737.55791	0.15496
3735.62935	0.15899
3733.70078	0.16486
3731.77222	0.17089
3729.84365	0.17531
3727.91509	0.17907
3725.98652	0.18407
3724.05796	0.19066
3722.12939	0.19793
3720.20083	0.20565
3718.27227	0.21339
3716.34370	0.22078
3714.41514	0.22770
3712.48657	0.23588
3710.55801	0.24862
3708.62944	0.26357
3706.70088	0.27591
3704.77231	0.28721
3702.84375	0.30016
3700.91519	0.31716
3698.98662	0.33594
3697.05806	0.35353
3695.12949	0.37205
3693.20093	0.39162
3691.27236	0.41253
3689.34380	0.44027
3687.41523	0.47624
3685.48667	0.50803
3683.55811	0.53472
3681.62954	0.56262
3679.70098	0.59358
3677.77241	0.62578
3675.84385	0.66418
3673.91528	0.71804
3671.98672	0.76151
3670.05815	0.79938
3668.12959	0.85434
3666.20103	0.90505
3664.27246	0.94614
3662.34390	0.98938
3660.41533	1.03604
3658.48677	1.08219
3656.55820	1.13131
3654.62964	1.18625
3652.70107	1.23181
3650.77251	1.27072
3648.84395	1.32658
3646.91538	1.39815
3644.98682	1.44952
3643.05825	1.48816
3641.12969	1.52791
3639.20112	1.57187
3637.27256	1.61604
3635.34399	1.65886
3633.41543	1.70118
3631.48687	1.73991
3629.55830	1.77910
3627.62974	1.83432
3625.70117	1.88803
3623.77261	1.92260
3621.84404	1.95407
3619.91548	1.99064
3617.98691	2.03706
3616.05835	2.08215
3614.12979	2.11885
3612.20122	2.15767
3610.27266	2.19691
3608.34409	2.23638
3606.41553	2.27832
3604.48696	2.31628
3602.55840	2.35032
3600.62983	2.38899
3598.70127	2.43152
3596.77271	2.47149
3594.84414	2.51184
3592.91558	2.55426
3590.98701	2.59273
3589.05845	2.62696
3587.12988	2.67040
3585.20132	2.72198
3583.27275	2.76401
3581.34419	2.80036
3579.41562	2.83970
3577.48706	2.88172
3575.55850	2.92381
3573.62993	2.96752
3571.70137	3.01092
3569.77280	3.05027
3567.84424	3.08920
3565.91567	3.14155
3563.98711	3.19741
3562.05854	3.23993
3560.12998	3.27851
3558.20142	3.32013
3556.27285	3.36503
3554.34429	3.41145
3552.41572	3.45982
3550.48716	3.50710
3548.55859	3.54960
3546.63003	3.58920
3544.70146	3.63241
3542.77290	3.68148
3540.84434	3.73051
3538.91577	3.77560
3536.98721	3.81945
3535.05864	3.86796
3533.13008	3.91873
3531.20151	3.96795
3529.27295	4.01618
3527.34438	4.06653
3525.41582	4.11668
3523.48726	4.16416
3521.55869	4.21227
3519.63013	4.25763
3517.70156	4.29979
3515.77300	4.34133
3513.84443	4.38465
3511.91587	4.43364
3509.98730	4.48722
3508.05874	4.53961
3506.13018	4.58985
3504.20161	4.63820
3502.27305	4.68316
3500.34448	4.72843
3498.41592	4.77675
3496.48735	4.82692
3494.55879	4.87475
3492.63022	4.92195
3490.70166	4.97335
3488.77310	5.02449
3486.84453	5.07552
3484.91597	5.12647
3482.98740	5.16971
3481.05884	5.20958
3479.13027	5.25406
3477.20171	5.30427
3475.27314	5.35895
3473.34458	5.41356
3471.41602	5.45885
3469.48745	5.48851
3467.55889	5.51743
3465.63032	5.56802
3463.70176	5.63645
3461.77319	5.69931
3459.84463	5.75579
3457.91606	5.81477
3455.98750	5.86469
3454.05894	5.89328
3452.13037	5.91718
3450.20181	5.96238
3448.27324	6.02493
3446.34468	6.08467
3444.41611	6.13407
3442.48755	6.18078
3440.55898	6.21457
3438.63042	6.24322
3436.70186	6.29026
3434.77329	6.34710
3432.84473	6.40542
3430.91616	6.46749
3428.98760	6.53251
3427.05903	6.58443
3425.13047	6.62386
3423.20190	6.67202
3421.27334	6.73043
3419.34478	6.78058
3417.41621	6.82010
3415.48765	6.86078
3413.55908	6.90510
3411.63052	6.94468
3409.70195	6.97902
3407.77339	7.03724
3405.84482	7.11317
3403.91626	7.18369
3401.98770	7.21789
3400.05913	7.20478
3398.13057	7.18772
3396.20200	7.20021
3394.27344	7.23380
3392.34487	7.26071
3390.41631	7.31886
3388.48774	7.43142
3386.55918	7.56737
3384.63062	7.62803
3382.70205	7.58477
3380.77349	7.56274
3378.84492	7.56498
3376.91636	7.55734
3374.98779	7.60045
3373.05923	7.68784
3371.13066	7.75359
3369.20210	7.83802
3367.27354	7.90223
3365.34497	7.87942
3363.41641	7.86645
3361.48784	7.90704
3359.55928	7.95693
3357.63071	8.00289
3355.70215	8.05779
3353.77358	8.03299
3351.84502	7.93367
3349.91646	7.88913
3347.98789	7.90513
3346.05933	7.91216
3344.13076	7.92171
3342.20220	7.96786
3340.27363	8.03753
3338.34507	8.08750
3336.41650	8.07900
3334.48794	8.08682
3332.55937	8.13543
3330.63081	8.15883
3328.70225	8.11452
3326.77368	8.06601
3324.84512	8.04081
3322.91655	8.01997
3320.98799	8.07149
3319.05942	8.14212
3317.13086	8.16806
3315.20229	8.16081
3313.27373	8.11655
3311.34517	8.10120
3309.41660	8.14990
3307.48804	8.13025
3305.55947	8.08107
3303.63091	8.19410
3301.70234	8.33434
3299.77378	8.34681
3297.84521	8.29638
3295.91665	8.21872
3293.98809	8.11831
3292.05952	8.06196
3290.13096	8.14285
3288.20239	8.29566
3286.27383	8.36425
3284.34526	8.29582
3282.41670	8.19164
3280.48813	8.15552
3278.55957	8.18485
3276.63101	8.22057
3274.70244	8.25399
3272.77388	8.31017
3270.84531	8.36972
3268.91675	8.40061
3266.98818	8.37238
3265.05962	8.31238
3263.13105	8.26703
3261.20249	8.22303
3259.27393	8.21509
3257.34536	8.29834
3255.41680	8.35255
3253.48823	8.29184
3251.55967	8.20827
3249.63110	8.18766
3247.70254	8.25352
3245.77397	8.29880
3243.84541	8.25311
3241.91685	8.19327
3239.98828	8.13624
3238.05972	8.04641
3236.13115	7.99073
3234.20259	8.03015
3232.27402	8.11724
3230.34546	8.16241
3228.41689	8.18430
3226.48833	8.17493
3224.55977	8.03178
3222.63120	7.92617
3220.70264	7.97106
3218.77407	8.02403
3216.84551	8.01454
3214.91694	7.98826
3212.98838	7.92655
3211.05981	7.80431
3209.13125	7.69038
3207.20269	7.64807
3205.27412	7.70585
3203.34556	7.85059
3201.41699	7.95889
3199.48843	7.90898
3197.55986	7.77448
3195.63130	7.66570
3193.70273	7.59365
3191.77417	7.55079
3189.84561	7.53824
3187.91704	7.52842
3185.98848	7.46355
3184.05991	7.36317
3182.13135	7.31664
3180.20278	7.30687
3178.27422	7.25466
3176.34565	7.16177
3174.41709	7.07388
3172.48853	7.02480
3170.55996	6.98980
3168.63140	6.94415
3166.70283	6.89612
3164.77427	6.81951
3162.84570	6.72872
3160.91714	6.66363
3158.98857	6.61734
3157.06001	6.55925
3155.13145	6.48818
3153.20288	6.43390
3151.27432	6.37912
3149.34575	6.28579
3147.41719	6.17688
3145.48862	6.09920
3143.56006	6.04767
3141.63149	5.98308
3139.70293	5.90311
3137.77437	5.83149
3135.84580	5.76921
3133.91724	5.70797
3131.98867	5.64257
3130.06011	5.57010
3128.13154	5.49949
3126.20298	5.43485
3124.27441	5.37042
3122.34585	5.30288
3120.41729	5.23471
3118.48872	5.16872
3116.56016	5.09997
3114.63159	5.02775
3112.70303	4.95871
3110.77446	4.88996
3108.84590	4.81758
3106.91733	4.74807
3104.98877	4.68415
3103.06021	4.62173
3101.13164	4.55834
3099.20308	4.49346
3097.27451	4.42818
3095.34595	4.36211
3093.41738	4.29328
3091.48882	4.22700
3089.56025	4.16741
3087.63169	4.10753
3085.70312	4.04429
3083.77456	3.98239
3081.84600	3.92373
3079.91743	3.86579
3077.98887	3.80456
3076.06030	3.74164
3074.13174	3.68269
3072.20317	3.62659
3070.27461	3.56962
3068.34604	3.51301
3066.41748	3.45818
3064.48892	3.40402
3062.56035	3.34962
3060.63179	3.29542
3058.70322	3.24176
3056.77466	3.18905
3054.84609	3.13695
3052.91753	3.08537
3050.98896	3.03510
3049.06040	2.98482
3047.13184	2.93510
3045.20327	2.88783
3043.27471	2.84141
3041.34614	2.79404
3039.41758	2.74607
3037.48901	2.69865
3035.56045	2.65244
3033.63188	2.60751
3031.70332	2.56343
3029.77476	2.51967
3027.84619	2.47612
3025.91763	2.43256
3023.98906	2.38988
3022.06050	2.34924
3020.13193	2.30943
3018.20337	2.26951
3016.27480	2.22991
3014.34624	2.19067
3012.41768	2.15204
3010.48911	2.11423
3008.56055	2.07737
3006.63198	2.04137
3004.70342	2.00583
3002.77485	1.97109
3000.84629	1.93763
2998.91772	1.90514
2996.98916	1.87272
2995.06060	1.83980
2993.13203	1.80703
2991.20347	1.77572
2989.27490	1.74604
2987.34634	1.71683
2985.41777	1.68741
2983.48921	1.65847
2981.56064	1.63037
2979.63208	1.60222
2977.70352	1.57408
2975.77495	1.54691
2973.84639	1.52030
2971.91782	1.49349
2969.98926	1.46705
2968.06069	1.44129
2966.13213	1.41543
2964.20356	1.38965
2962.27500	1.36453
2960.34644	1.33976
2958.41787	1.31511
2956.48931	1.29076
2954.56074	1.26668
2952.63218	1.24278
2950.70361	1.21940
2948.77505	1.19691
2946.84648	1.17510
2944.91792	1.15312
2942.98936	1.13041
2941.06079	1.10770
2939.13223	1.08542
2937.20366	1.06308
2935.27510	1.04049
2933.34653	1.01786
2931.41797	0.99523
2929.48940	0.97306
2927.56084	0.95191
2925.63228	0.93129
2923.70371	0.91110
2921.77515	0.89265
2919.84658	0.87710
2917.91802	0.86342
2915.98945	0.84984
2914.06089	0.83651
2912.13232	0.82437
2910.20376	0.81322
2908.27520	0.80164
2906.34663	0.78925
2904.41807	0.77698
2902.48950	0.76486
2900.56094	0.75252
2898.63237	0.74035
2896.70381	0.72861
2894.77524	0.71733
2892.84668	0.70647
2890.91812	0.69571
2888.98955	0.68493
2887.06099	0.67413
2885.13242	0.66338
2883.20386	0.65298
2881.27529	0.64305
2879.34673	0.63322
2877.41816	0.62297
2875.48960	0.61223
2873.56104	0.60155
2871.63247	0.59108
2869.70391	0.58037
2867.77534	0.56916
2865.84678	0.55740
2863.91821	0.54523
2861.98965	0.53296
2860.06108	0.52056
2858.13252	0.50816
2856.20396	0.49620
2854.27539	0.48501
2852.34683	0.47488
2850.41826	0.46636
2848.48970	0.46008
2846.56113	0.45568
2844.63257	0.45204
2842.70400	0.44858
2840.77544	0.44493
2838.84687	0.44082
2836.91831	0.43629
2834.98975	0.43147
2833.06118	0.42646
2831.13262	0.42115
2829.20405	0.41551
2827.27549	0.40977
2825.34692	0.40415
2823.41836	0.39863
2821.48979	0.39312
2819.56123	0.38769
2817.63267	0.38229
2815.70410	0.37671
2813.77554	0.37112
2811.84697	0.36578
2809.91841	0.36061
2807.98984	0.35552
2806.06128	0.35036
2804.13271	0.34515
2802.20415	0.34007
2800.27559	0.33510
2798.34702	0.33017
2796.41846	0.32547
2794.48989	0.32101
2792.56133	0.31660
2790.63276	0.31214
2788.70420	0.30765
2786.77563	0.30338
2784.84707	0.29934
2782.91851	0.29524
2780.98994	0.29113
2779.06138	0.28723
2777.13281	0.28346
2775.20425	0.27969
2773.27568	0.27591
2771.34712	0.27219
2769.41855	0.26859
2767.48999	0.26510
2765.56143	0.26161
2763.63286	0.25807
2761.70430	0.25460
2759.77573	0.25130
2757.84717	0.24803
2755.91860	0.24478
2753.99004	0.24178
2752.06147	0.23891
2750.13291	0.23597
2748.20435	0.23316
2746.27578	0.23055
2744.34722	0.22790
2742.41865	0.22527
2740.49009	0.22289
2738.56152	0.22056
2736.63296	0.21799
2734.70439	0.21533
2732.77583	0.21269
2730.84727	0.21015
2728.91870	0.20781
2726.99014	0.20566
2725.06157	0.20355
2723.13301	0.20141
2721.20444	0.19940
2719.27588	0.19749
2717.34731	0.19546
2715.41875	0.19346
2713.49019	0.19168
2711.56162	0.18986
2709.63306	0.18792
2707.70449	0.18622
2705.77593	0.18483
2703.84736	0.18344
2701.91880	0.18188
2699.99023	0.18030
2698.06167	0.17889
2696.13311	0.17758
2694.20454	0.17612
2692.27598	0.17456
2690.34741	0.17312
2688.41885	0.17188
2686.49028	0.17085
2684.56172	0.16984
2682.63315	0.16869
2680.70459	0.16755
2678.77603	0.16648
2676.84746	0.16535
2674.91890	0.16421
2672.99033	0.16306
2671.06177	0.16178
2669.13320	0.16058
2667.20464	0.15966
2665.27607	0.15891
2663.34751	0.15815
2661.41895	0.15739
2659.49038	0.15671
2657.56182	0.15605
2655.63325	0.15521
2653.70469	0.15431
2651.77612	0.15373
2649.84756	0.15331
2647.91899	0.15270
2645.99043	0.15209
2644.06187	0.15169
2642.13330	0.15128
2640.20474	0.15069
2638.27617	0.15002
2636.34761	0.14949
2634.41904	0.14906
2632.49048	0.14862
2630.56191	0.14823
2628.63335	0.14788
2626.70479	0.14750
2624.77622	0.14720
2622.84766	0.14702
2620.91909	0.14677
2618.99053	0.14647
2617.06196	0.14626
2615.13340	0.14609
2613.20483	0.14588
2611.27627	0.14578
2609.34771	0.14583
2607.41914	0.14577
2605.49058	0.14560
2603.56201	0.14550
2601.63345	0.14539
2599.70488	0.14528
2597.77632	0.14536
2595.84775	0.14555
2593.91919	0.14563
2591.99062	0.14565
2590.06206	0.14574
2588.13350	0.14592
2586.20493	0.14618
2584.27637	0.14647
2582.34780	0.14667
2580.41924	0.14681
2578.49067	0.14706
2576.56211	0.14738
2574.63354	0.14772
2572.70498	0.14814
2570.77642	0.14851
2568.84785	0.14882
2566.91929	0.14921
2564.99072	0.14966
2563.06216	0.15011
2561.13359	0.15060
2559.20503	0.15103
2557.27646	0.15143
2555.34790	0.15192
2553.41934	0.15243
2551.49077	0.15286
2549.56221	0.15335
2547.63364	0.15397
2545.70508	0.15464
2543.77651	0.15523
2541.84795	0.15571
2539.91938	0.15627
2537.99082	0.15700
2536.06226	0.15776
2534.13369	0.15848
2532.20513	0.15910
2530.27656	0.15967
2528.34800	0.16022
2526.41943	0.16077
2524.49087	0.16138
2522.56230	0.16215
2520.63374	0.16301
2518.70518	0.16383
2516.77661	0.16461
2514.84805	0.16541
2512.91948	0.16621
2510.99092	0.16698
2509.06235	0.16779
2507.13379	0.16865
2505.20522	0.16945
2503.27666	0.17028
2501.34810	0.17117
2499.41953	0.17200
2497.49097	0.17279
2495.56240	0.17358
2493.63384	0.17430
2491.70527	0.17503
2489.77671	0.17589
2487.84814	0.17677
2485.91958	0.17766
2483.99102	0.17861
2482.06245	0.17960
2480.13389	0.18054
2478.20532	0.18139
2476.27676	0.18224
2474.34819	0.18313
2472.41963	0.18394
2470.49106	0.18473
2468.56250	0.18559
2466.63394	0.18647
2464.70537	0.18734
2462.77681	0.18828
2460.84824	0.18935
2458.91968	0.19043
2456.99111	0.19139
2455.06255	0.19229
2453.13398	0.19326
2451.20542	0.19421
2449.27686	0.19507
2447.34829	0.19601
2445.41973	0.19713
2443.49116	0.19827
2441.56260	0.19920
2439.63403	0.20004
2437.70547	0.20103
2435.77690	0.20213
2433.84834	0.20314
2431.91978	0.20416
2429.99121	0.20528
2428.06265	0.20638
2426.13408	0.20744
2424.20552	0.20846
2422.27695	0.20945
2420.34839	0.21057
2418.41982	0.21181
2416.49126	0.21299
2414.56270	0.21411
2412.63413	0.21524
2410.70557	0.21644
2408.77700	0.21769
2406.84844	0.21888
2404.91987	0.21997
2402.99131	0.22111
2401.06274	0.22237
2399.13418	0.22360
2397.20562	0.22481
2395.27705	0.22613
2393.34849	0.22750
2391.41992	0.22882
2389.49136	0.23004
2387.56279	0.23118
2385.63423	0.23238
2383.70566	0.23370
2381.77710	0.23507
2379.84854	0.23647
2377.91997	0.23804
2375.99141	0.23976
2374.06284	0.24153
2372.13428	0.24336
2370.20571	0.24523
2368.27715	0.24726
2366.34858	0.24964
2364.42002	0.25185
2362.49146	0.25356
2360.56289	0.25525
2358.63433	0.25690
2356.70576	0.25857
2354.77720	0.26000
2352.84863	0.26101
2350.92007	0.26185
2348.99150	0.26255
2347.06294	0.26340
2345.13437	0.26491
2343.20581	0.26675
2341.27725	0.26809
2339.34868	0.26962
2337.42012	0.27189
2335.49155	0.27429
2333.56299	0.27612
2331.63442	0.27765
2329.70586	0.27935
2327.77729	0.28145
2325.84873	0.28332
2323.92017	0.28458
2321.99160	0.28574
2320.06304	0.28699
2318.13447	0.28828
2316.20591	0.28963
2314.27734	0.29115
2312.34878	0.29291
2310.42021	0.29472
2308.49165	0.29647
2306.56309	0.29824
2304.63452	0.30003
2302.70596	0.30170
2300.77739	0.30333
2298.84883	0.30507
2296.92026	0.30687
2294.99170	0.30860
2293.06313	0.31053
2291.13457	0.31261
2289.20601	0.31450
2287.27744	0.31628
2285.34888	0.31812
2283.42031	0.32001
2281.49175	0.32198
2279.56318	0.32405
2277.63462	0.32615
2275.70605	0.32826
2273.77749	0.33034
2271.84893	0.33235
2269.92036	0.33436
2267.99180	0.33645
2266.06323	0.33857
2264.13467	0.34070
2262.20610	0.34295
2260.27754	0.34524
2258.34897	0.34741
2256.42041	0.34951
2254.49185	0.35168
2252.56328	0.35387
2250.63472	0.35606
2248.70615	0.35826
2246.77759	0.36041
2244.84902	0.36258
2242.92046	0.36479
2240.99189	0.36698
2239.06333	0.36921
2237.13477	0.37154
2235.20620	0.37383
2233.27764	0.37607
2231.34907	0.37840
2229.42051	0.38077
2227.49194	0.38300
2225.56338	0.38515
2223.63481	0.38744
2221.70625	0.38974
2219.77769	0.39186
2217.84912	0.39392
2215.92056	0.39606
2213.99199	0.39825
2212.06343	0.40048
2210.13486	0.40264
2208.20630	0.40470
2206.27773	0.40676
2204.34917	0.40890
2202.42061	0.41104
2200.49204	0.41312
2198.56348	0.41509
2196.63491	0.41700
2194.70635	0.41891
2192.77778	0.42084
2190.84922	0.42281
2188.92065	0.42481
2186.99209	0.42671
2185.06353	0.42846
2183.13496	0.43020
2181.20640	0.43194
2179.27783	0.43359
2177.34927	0.43518
2175.42070	0.43671
2173.49214	0.43823
2171.56357	0.43973
2169.63501	0.44117
2167.70645	0.44249
2165.77788	0.44367
2163.84932	0.44494
2161.92075	0.44625
2159.99219	0.44738
2158.06362	0.44839
2156.13506	0.44939
2154.20649	0.45031
2152.27793	0.45114
2150.34937	0.45188
2148.42080	0.45245
2146.49224	0.45296
2144.56367	0.45358
2142.63511	0.45415
2140.70654	0.45451
2138.77798	0.45480
2136.84941	0.45509
2134.92085	0.45530
2132.99229	0.45529
2131.06372	0.45507
2129.13516	0.45483
2127.20659	0.45469
2125.27803	0.45450
2123.34946	0.45409
2121.42090	0.45360
2119.49233	0.45313
2117.56377	0.45255
2115.63521	0.45177
2113.70664	0.45085
2111.77808	0.44992
2109.84951	0.44908
2107.92095	0.44827
2105.99238	0.44733
2104.06382	0.44609
2102.13525	0.44470
2100.20669	0.44342
2098.27812	0.44217
2096.34956	0.44076
2094.42100	0.43919
2092.49243	0.43760
2090.56387	0.43598
2088.63530	0.43425
2086.70674	0.43250
2084.77817	0.43082
2082.84961	0.42906
2080.92104	0.42709
2078.99248	0.42506
2077.06392	0.42300
2075.13535	0.42083
2073.20679	0.41868
2071.27822	0.41655
2069.34966	0.41438
2067.42109	0.41211
2065.49253	0.40971
2063.56396	0.40723
2061.63540	0.40476
2059.70684	0.40228
2057.77827	0.39971
2055.84971	0.39710
2053.92114	0.39456
2051.99258	0.39209
2050.06401	0.38949
2048.13545	0.38685
2046.20688	0.38421
2044.27832	0.38145
2042.34976	0.37862
2040.42119	0.37590
2038.49263	0.37325
2036.56406	0.37057
2034.63550	0.36788
2032.70693	0.36509
2030.77837	0.36225
2028.84980	0.35953
2026.92124	0.35691
2024.99268	0.35420
2023.06411	0.35136
2021.13555	0.34846
2019.20698	0.34566
2017.27842	0.34292
2015.34985	0.34014
2013.42129	0.33742
2011.49272	0.33476
2009.56416	0.33214
2007.63560	0.32944
2005.70703	0.32664
2003.77847	0.32387
2001.84990	0.32118
1999.92134	0.31848
1997.99277	0.31579
1996.06421	0.31322
1994.13564	0.31079
1992.20708	0.30838
1990.27852	0.30585
1988.34995	0.30327
1986.42139	0.30076
1984.49282	0.29838
1982.56426	0.29599
1980.63569	0.29353
1978.70713	0.29118
1976.77856	0.28896
1974.85000	0.28676
1972.92144	0.28456
1970.99287	0.28236
1969.06431	0.28026
1967.13574	0.27829
1965.20718	0.27630
1963.27861	0.27429
1961.35005	0.27226
1959.42148	0.27028
1957.49292	0.26843
1955.56436	0.26660
1953.63579	0.26479
1951.70723	0.26306
1949.77866	0.26143
1947.85010	0.25980
1945.92153	0.25816
1943.99297	0.25657
1942.06440	0.25501
1940.13584	0.25346
1938.20728	0.25203
1936.27871	0.25075
1934.35015	0.24949
1932.42158	0.24825
1930.49302	0.24705
1928.56445	0.24595
1926.63589	0.24492
1924.70732	0.24391
1922.77876	0.24286
1920.85020	0.24175
1918.92163	0.24077
1916.99307	0.23995
1915.06450	0.23907
1913.13594	0.23815
1911.20737	0.23741
1909.27881	0.23679
1907.35024	0.23615
1905.42168	0.23544
1903.49312	0.23478
1901.56455	0.23426
1899.63599	0.23381
1897.70742	0.23336
1895.77886	0.23287
1893.85029	0.23248
1891.92173	0.23218
1889.99316	0.23196
1888.06460	0.23175
1886.13604	0.23148
1884.20747	0.23125
1882.27891	0.23105
1880.35034	0.23089
1878.42178	0.23081
1876.49321	0.23086
1874.56465	0.23088
1872.63608	0.23087
1870.70752	0.23093
1868.77896	0.23131
1866.85039	0.23168
1864.92183	0.23173
1862.99326	0.23176
1861.06470	0.23198
1859.13613	0.23239
1857.20757	0.23279
1855.27900	0.23318
1853.35044	0.23359
1851.42187	0.23414
1849.49331	0.23480
1847.56475	0.23543
1845.63618	0.23604
1843.70762	0.23688
1841.77905	0.23783
1839.85049	0.23852
1837.92192	0.23938
1835.99336	0.24026
1834.06479	0.24102
1832.13623	0.24183
1830.20767	0.24315
1828.27910	0.24472
1826.35054	0.24583
1824.42197	0.24707
1822.49341	0.24849
1820.56484	0.24986
1818.63628	0.25123
1816.70771	0.25283
1814.77915	0.25453
1812.85059	0.25625
1810.92202	0.25814
1808.99346	0.26021
1807.06489	0.26227
1805.13633	0.26421
1803.20776	0.26631
1801.27920	0.26875
1799.35063	0.27156
1797.42207	0.27405
1795.49351	0.27630
1793.56494	0.27891
1791.63638	0.28258
1789.70781	0.28634
1787.77925	0.28907
1785.85068	0.29213
1783.92212	0.29581
1781.99355	0.29973
1780.06499	0.30390
1778.13643	0.30823
1776.20786	0.31216
1774.27930	0.31609
1772.35073	0.32144
1770.42217	0.32774
1768.49360	0.33333
1766.56504	0.33876
1764.63647	0.34415
1762.70791	0.34978
1760.77935	0.35687
1758.85078	0.36353
1756.92222	0.37014
1754.99365	0.37734
1753.06509	0.38355
1751.13652	0.39077
1749.20796	0.40047
1747.27939	0.41065
1745.35083	0.41974
1743.42227	0.42915
1741.49370	0.43940
1739.56514	0.45186
1737.63657	0.46456
1735.70801	0.47535
1733.77944	0.49197
1731.85088	0.51276
1729.92231	0.52885
1727.99375	0.54483
1726.06519	0.56177
1724.13662	0.58016
1722.20806	0.60001
1720.27949	0.61796
1718.35093	0.63875
1716.42236	0.67116
1714.49380	0.70270
1712.56523	0.72737
1710.63667	0.75088
1708.70811	0.77608
1706.77954	0.80483
1704.85098	0.83977
1702.92241	0.87094
1700.99385	0.90078
1699.06528	0.94600
1697.13672	0.98878
1695.20815	1.03318
1693.27959	1.07554
1691.35103	1.10858
1689.42246	1.14692
1687.49390	1.18773
1685.56533	1.22639
1683.63677	1.28773
1681.70820	1.35311
1679.77964	1.39386
1677.85107	1.43282
1675.92251	1.47737
1673.99395	1.53241
1672.06538	1.58071
1670.13682	1.62861
1668.20825	1.69501
1666.27969	1.74827
1664.35112	1.79134
1662.42256	1.84658
1660.49399	1.91222
1658.56543	1.96315
1656.63687	2.00329
1654.70830	2.03829
1652.77974	2.09537
1650.85117	2.15390
1648.92261	2.17362
1646.99404	2.19976
1645.06548	2.22845
1643.13691	2.24717
1641.20835	2.25776
1639.27979	2.26793
1637.35122	2.27391
1635.42266	2.27234
1633.49409	2.26368
1631.56553	2.24962
1629.63696	2.23284
1627.70840	2.20453
1625.77983	2.17244
1623.85127	2.13250
1621.92271	2.08296
1619.99414	2.03885
1618.06558	1.99522
1616.13701	1.93152
1614.20845	1.86805
1612.27988	1.82078
1610.35132	1.77036
1608.42275	1.71547
1606.49419	1.66134
1604.56562	1.61104
1602.63706	1.56245
1600.70850	1.51536
1598.77993	1.47201
1596.85137	1.43151
1594.92280	1.39253
1592.99424	1.35436
1591.06567	1.31912
1589.13711	1.28678
1587.20854	1.25705
1585.27998	1.22937
1583.35142	1.20369
1581.42285	1.18054
1579.49429	1.16085
1577.56572	1.14323
1575.63716	1.12166
1573.70859	1.10335
1571.78003	1.09211
1569.85146	1.08027
1567.92290	1.06682
1565.99434	1.05701
1564.06577	1.05000
1562.13721	1.04468
1560.20864	1.04092
1558.28008	1.03768
1556.35151	1.03646
1554.42295	1.03573
1552.49438	1.03490
1550.56582	1.03279
1548.63726	1.02846
1546.70869	1.02202
1544.78013	1.01268
1542.85156	1.00034
1540.92300	0.98320
1538.99443	0.95755
1537.06587	0.94020
1535.13730	0.92869
1533.20874	0.91245
1531.28018	0.89448
1529.35161	0.88129
1527.42305	0.86903
1525.49448	0.85682
1523.56592	0.84651
1521.63735	0.83602
1519.70879	0.82489
1517.78022	0.81557
1515.85166	0.80540
1513.92310	0.79513
1511.99453	0.78594
1510.06597	0.77723
1508.13740	0.76856
1506.20884	0.75570
1504.28027	0.74565
1502.35171	0.74003
1500.42314	0.73462
1498.49458	0.72865
1496.56602	0.72189
1494.63745	0.71543
1492.70889	0.71035
1490.78032	0.70556
1488.85176	0.69995
1486.92319	0.69485
1484.99463	0.69087
1483.06606	0.68768
1481.13750	0.68490
1479.20894	0.68241
1477.28037	0.68044
1475.35181	0.67896
1473.42324	0.67751
1471.49468	0.67528
1469.56611	0.67269
1467.63755	0.67020
1465.70898	0.66791
1463.78042	0.66617
1461.85186	0.66516
1459.92329	0.66458
1457.99473	0.66421
1456.06616	0.66360
1454.13760	0.66206
1452.20903	0.66012
1450.28047	0.65805
1448.35190	0.65595
1446.42334	0.65381
1444.49478	0.65187
1442.56621	0.65002
1440.63765	0.64806
1438.70908	0.64596
1436.78052	0.64326
1434.85195	0.64015
1432.92339	0.63773
1430.99482	0.63618
1429.06626	0.63536
1427.13770	0.63503
1425.20913	0.63505
1423.28057	0.63530
1421.35200	0.63541
1419.42344	0.63544
1417.49487	0.63533
1415.56631	0.63464
1413.63774	0.63396
1411.70918	0.63371
1409.78062	0.63394
1407.85205	0.63451
1405.92349	0.63538
1403.99492	0.63624
1402.06636	0.63640
1400.13779	0.63566
1398.20923	0.63403
1396.28066	0.63175
1394.35210	0.62878
1392.42354	0.62529
1390.49497	0.62181
1388.56641	0.61825
1386.63784	0.61419
1384.70928	0.60986
1382.78071	0.60571
1380.85215	0.60182
1378.92358	0.59851
1376.99502	0.59597
1375.06646	0.59417
1373.13789	0.59298
1371.20933	0.59214
1369.28076	0.59140
1367.35220	0.59046
1365.42363	0.58907
1363.49507	0.58745
1361.56650	0.58593
1359.63794	0.58468
1357.70937	0.58362
1355.78081	0.58258
1353.85225	0.58156
1351.92368	0.58060
1349.99512	0.57980
1348.06655	0.57918
1346.13799	0.57848
1344.20942	0.57760
1342.28086	0.57677
1340.35229	0.57610
1338.42373	0.57549
1336.49517	0.57504
1334.56660	0.57471
1332.63804	0.57440
1330.70947	0.57428
1328.78091	0.57445
1326.85234	0.57473
1324.92378	0.57501
1322.99521	0.57539
1321.06665	0.57583
1319.13809	0.57618
1317.20952	0.57621
1315.28096	0.57590
1313.35239	0.57540
1311.42383	0.57472
1309.49526	0.57395
1307.56670	0.57319
1305.63813	0.57259
1303.70957	0.57210
1301.78101	0.57141
1299.85244	0.57036
1297.92388	0.56917
1295.99531	0.56799
1294.06675	0.56676
1292.13818	0.56551
1290.20962	0.56436
1288.28105	0.56335
1286.35249	0.56232
1284.42393	0.56113
1282.49536	0.55980
1280.56680	0.55850
1278.63823	0.55734
1276.70967	0.55628
1274.78110	0.55536
1272.85254	0.55466
1270.92397	0.55405
1268.99541	0.55329
1267.06685	0.55242
1265.13828	0.55168
1263.20972	0.55112
1261.28115	0.55056
1259.35259	0.54990
1257.42402	0.54930
1255.49546	0.54900
1253.56689	0.54901
1251.63833	0.54911
1249.70977	0.54916
1247.78120	0.54909
1245.85264	0.54889
1243.92407	0.54852
1241.99551	0.54796
1240.06694	0.54710
1238.13838	0.54583
1236.20981	0.54423
1234.28125	0.54243
1232.35269	0.54055
1230.42412	0.53867
1228.49556	0.53693
1226.56699	0.53540
1224.63843	0.53398
1222.70986	0.53257
1220.78130	0.53116
1218.85273	0.52983
1216.92417	0.52866
1214.99561	0.52773
1213.06704	0.52695
1211.13848	0.52624
1209.20991	0.52548
1207.28135	0.52456
1205.35278	0.52369
1203.42422	0.52291
1201.49565	0.52204
1199.56709	0.52122
1197.63853	0.52068
1195.70996	0.52021
1193.78140	0.51959
1191.85283	0.51884
1189.92427	0.51812
1187.99570	0.51759
1186.06714	0.51732
1184.13857	0.51726
1182.21001	0.51744
1180.28145	0.51798
1178.35288	0.51884
1176.42432	0.51977
1174.49575	0.52057
1172.56719	0.52111
1170.63862	0.52125
1168.71006	0.52119
1166.78149	0.52111
1164.85293	0.52100
1162.92437	0.52092
1160.99580	0.52081
1159.06724	0.52049
1157.13867	0.51988
1155.21011	0.51894
1153.28154	0.51761
1151.35298	0.51584
1149.42441	0.51367
1147.49585	0.51131
1145.56729	0.50892
1143.63872	0.50652
1141.71016	0.50423
1139.78159	0.50229
1137.85303	0.50078
1135.92446	0.49961
1133.99590	0.49886
1132.06733	0.49853
1130.13877	0.49808
1128.21021	0.49722
1126.28164	0.49629
1124.35308	0.49558
1122.42451	0.49500
1120.49595	0.49456
1118.56738	0.49447
1116.63882	0.49463
1114.71025	0.49489
1112.78169	0.49524
1110.85312	0.49574
1108.92456	0.49663
1106.99600	0.49787
1105.06743	0.49927
1103.13887	0.50083
1101.21030	0.50258
1099.28174	0.50467
1097.35317	0.50729
1095.42461	0.51039
1093.49604	0.51393
1091.56748	0.51794
1089.63892	0.52256
1087.71035	0.52812
1085.78179	0.53460
1083.85322	0.54140
1081.92466	0.54759
1079.99609	0.55259
1078.06753	0.55602
1076.13896	0.55706
1074.21040	0.55517
1072.28184	0.55074
1070.35327	0.54478
1068.42471	0.53837
1066.49614	0.53199
1064.56758	0.52598
1062.63901	0.52065
1060.71045	0.51575
1058.78188	0.51104
1056.85332	0.50680
1054.92476	0.50315
1052.99619	0.49988
1051.06763	0.49712
1049.13906	0.49489
1047.21050	0.49294
1045.28193	0.49123
1043.35337	0.48968
1041.42480	0.48836
1039.49624	0.48757
1037.56768	0.48724
1035.63911	0.48684
1033.71055	0.48628
1031.78198	0.48600
1029.85342	0.48596
1027.92485	0.48581
1025.99629	0.48557
1024.06772	0.48547
1022.13916	0.48569
1020.21060	0.48621
1018.28203	0.48674
1016.35347	0.48700
1014.42490	0.48726
1012.49634	0.48792
1010.56777	0.48890
1008.63921	0.49000
1006.71064	0.49131
1004.78208	0.49305
1002.85352	0.49547
1000.92495	0.49851
998.99639	0.50184
997.06782	0.50526
995.13926	0.50883
993.21069	0.51255
991.28213	0.51596
989.35356	0.51840
987.42500	0.51974
985.49644	0.52041
983.56787	0.52097
981.63931	0.52161
979.71074	0.52262
977.78218	0.52439
975.85361	0.52678
973.92505	0.52941
971.99648	0.53219
970.06792	0.53538
968.13936	0.53907
966.21079	0.54304
964.28223	0.54725
962.35366	0.55170
960.42510	0.55651
958.49653	0.56192
956.56797	0.56771
954.63940	0.57365
952.71084	0.57964
950.78228	0.58553
948.85371	0.59142
946.92515	0.59760
944.99658	0.60391
943.06802	0.60989
941.13945	0.61557
939.21089	0.62129
937.28232	0.62687
935.35376	0.63252
933.42520	0.63849
931.49663	0.64437
929.56807	0.65002
927.63950	0.65557
925.71094	0.66145
923.78237	0.66822
921.85381	0.67520
919.92524	0.68170
917.99668	0.68870
916.06812	0.69621
914.13955	0.70348
912.21099	0.71093
910.28242	0.71887
908.35386	0.72739
906.42529	0.73628
904.49673	0.74502
902.56816	0.75398
900.63960	0.76349
898.71104	0.77324
896.78247	0.78315
894.85391	0.79272
892.92534	0.80187
890.99678	0.81254
889.06821	0.82477
887.13965	0.83627
885.21108	0.84663
883.28252	0.85693
881.35396	0.86828
879.42539	0.88041
877.49683	0.89098
875.56826	0.90019
873.63970	0.91169
871.71113	0.92586
869.78257	0.93943
867.85400	0.95087
865.92544	0.96156
863.99687	0.97203
862.06831	0.98112
860.13975	0.98993
858.21118	1.00095
856.28262	1.01442
854.35405	1.02845
852.42549	1.04197
850.49692	1.05525
848.56836	1.06638
846.63979	1.07511
844.71123	1.08537
842.78267	1.09655
840.85410	1.10574
838.92554	1.11640
836.99697	1.13097
835.06841	1.14367
833.13984	1.15275
831.21128	1.16507
829.28271	1.18191
827.35415	1.19840
825.42559	1.21239
823.49702	1.22420
821.56846	1.23471
819.63989	1.24293
817.71133	1.24862
815.78276	1.26273
813.85420	1.29118
811.92563	1.31537
809.99707	1.31791
808.06851	1.31011
806.13994	1.30828
804.21138	1.31039
802.28281	1.32024
800.35425	1.35286
798.42568	1.40203
796.49712	1.43898
794.56855	1.45047
792.63999	1.46572
790.71143	1.50519
788.78286	1.52120
786.85430	1.48974
784.92573	1.45736
782.99717	1.45550
781.06860	1.49957
779.14004	1.50627
777.21147	1.45171
775.28291	1.48780
773.35435	1.65471
771.42578	1.75293
769.49722	1.66539
767.56865	1.60900
765.64009	1.58912
763.71152	1.60539
761.78296	1.82585
759.85439	4.55913
757.92583	1.85465
755.99727	1.42620
754.06870	1.37867
752.14014	1.49208
750.21157	1.61376
748.28301	1.56600
746.35444	1.39163
744.42588	1.25173
742.49731	1.25896
740.56875	1.49059
738.64019	1.53924
736.71162	1.25422
734.78306	0.99898
732.85449	0.85820
730.92593	0.79236
728.99736	0.65798
727.06880	0.56944
725.14023	0.83608
723.21167	4.33927
721.28311	4.32770
719.35454	4.31613
717.42598	0.34769
715.49741	0.18821
713.56885	0.24898
711.64028	0.40861
709.71172	0.38345
707.78315	0.16060
705.85459	0.07014
703.92603	0.11224
701.99746	0.19915
700.06890	0.30586
698.14033	0.38026
696.21177	0.36727
694.28320	0.30428
692.35464	0.25583
690.42607	0.26495
688.49751	0.28047
686.56895	0.25429
684.64038	0.32605
682.71182	0.48592
680.78325	0.54800
678.85469	0.47040
676.92612	0.45698
674.99756	0.93207
673.06899	4.03841
671.14043	4.02684
669.21187	4.01527
667.28330	0.68469
665.35474	0.36241
663.42617	0.27228
661.49761	0.36831
659.56904	0.57118
657.64048	0.73859
655.71191	0.80472
653.78335	1.26329
651.85479	1.20916
649.92622	1.03702
647.99766	1.01994
646.06909	0.49499
644.14053	0.27289
642.21196	0.23007
640.28340	0.25915
638.35483	0.27304
636.42627	0.29316
634.49771	0.31206
632.56914	0.34357
630.64058	0.39270
628.71201	0.37815
626.78345	0.28194
624.85488	0.22610
622.92632	0.27540
620.99775	0.35154
619.06919	0.25822
617.14062	0.16448
615.21206	0.19173
613.28350	0.24118
611.35493	0.22751
609.42637	0.23769
607.49780	0.34953
605.56924	0.35634
603.64067	0.18086
601.71211	0.12874
599.78354	0.15883
597.85498	0.18191
595.92642	0.21449
593.99785	0.26647
592.06929	0.31988
590.14072	0.38134
588.21216	0.47189
586.28359	0.48060
584.35503	0.38053
582.42646	0.28266
580.49790	0.23387
578.56934	0.28842
576.64077	0.35327
574.71221	0.29832
572.78364	0.20321
570.85508	0.15971
568.92651	0.18870
566.99795	0.25157
565.06938	0.27673
563.14082	0.25755
561.21226	0.23738
559.28369	0.25121
557.35513	0.27907
555.42656	0.25200
553.49800	0.22433
551.56943	0.26820
549.64087	0.25569
547.71230	0.15327
545.78374	0.09629
543.85518	0.12777
541.92661	0.19539
539.99805	0.23572
538.06948	0.24358
536.14092	0.23379
534.21235	0.25521
532.28379	0.29138
530.35522	0.27552
528.42666	0.29011
526.49810	0.53433
524.56953	1.02740
522.64097	0.38029
520.71240	0.20372
518.78384	0.20671
516.85527	0.26252
514.92671	0.23952
512.99814	0.15270
511.06958	0.11479
509.14102	0.13102
507.21245	0.19074
505.28389	0.31627
503.35532	0.36406
501.42676	0.25994
499.49819	0.21907
