3997.91411	0.05402
3995.98555	0.05461
3994.05698	0.05514
3992.12842	0.05525
3990.19985	0.05512
3988.27129	0.05529
3986.34272	0.05580
3984.41416	0.05601
3982.48560	0.05578
3980.55703	0.05577
3978.62847	0.05626
3976.69990	0.05691
3974.77134	0.05732
3972.84277	0.05738
3970.91421	0.05737
3968.98564	0.05756
3967.05708	0.05792
3965.12852	0.05810
3963.19995	0.05813
3961.27139	0.05834
3959.34282	0.05875
3957.41426	0.05890
3955.48569	0.05854
3953.55713	0.05814
3951.62856	0.05804
3949.70000	0.05799
3947.77144	0.05810
3945.84287	0.05860
3943.91431	0.05883
3941.98574	0.05873
3940.05718	0.05894
3938.12861	0.05941
3936.20005	0.05974
3934.27148	0.05957
3932.34292	0.05883
3930.41436	0.05831
3928.48579	0.05843
3926.55723	0.05826
3924.62866	0.05772
3922.70010	0.05767
3920.77153	0.05804
3918.84297	0.05810
3916.91440	0.05814
3914.98584	0.05885
3913.05728	0.05962
3911.12871	0.05966
3909.20015	0.05909
3907.27158	0.05834
3905.34302	0.05750
3903.41445	0.05677
3901.48589	0.05675
3899.55732	0.05733
3897.62876	0.05827
3895.70020	0.05886
3893.77163	0.05852
3891.84307	0.05796
3889.91450	0.05801
3887.98594	0.05814
3886.05737	0.05806
3884.12881	0.05816
3882.20024	0.05841
3880.27168	0.05872
3878.34312	0.05916
3876.41455	0.05945
3874.48599	0.05970
3872.55742	0.05986
3870.62886	0.05951
3868.70029	0.05967
3866.77173	0.06052
3864.84316	0.06050
3862.91460	0.06025
3860.98604	0.06106
3859.05747	0.06204
3857.12891	0.06208
3855.20034	0.06091
3853.27178	0.05923
3851.34321	0.06006
3849.41465	0.06273
3847.48608	0.06465
3845.55752	0.06555
3843.62896	0.06554
3841.70039	0.06551
3839.77183	0.06623
3837.84326	0.06729
3835.91470	0.06787
3833.98613	0.06817
3832.05757	0.06897
3830.12900	0.07023
3828.20044	0.07107
3826.27187	0.07157
3824.34331	0.07238
3822.41475	0.07304
3820.48618	0.07346
3818.55762	0.07439
3816.62905	0.07557
3814.70049	0.07688
3812.77192	0.07829
3810.84336	0.07951
3808.91479	0.08041
3806.98623	0.08093
3805.05767	0.08127
3803.12910	0.08163
3801.20054	0.08250
3799.27197	0.08451
3797.34341	0.08671
3795.41484	0.08897
3793.48628	0.09115
3791.55771	0.09286
3789.62915	0.09420
3787.70059	0.09530
3785.77202	0.09621
3783.84346	0.09708
3781.91489	0.09819
3779.98633	0.09966
3778.05776	0.10162
3776.12920	0.10363
3774.20063	0.10535
3772.27207	0.10680
3770.34351	0.10802
3768.41494	0.10934
3766.48638	0.11097
3764.55781	0.11317
3762.62925	0.11571
3760.70068	0.11806
3758.77212	0.12027
3756.84355	0.12236
3754.91499	0.12395
3752.98643	0.12487
3751.05786	0.12614
3749.12930	0.12968
3747.20073	0.13368
3745.27217	0.13700
3743.34360	0.14151
3741.41504	0.14595
3739.48647	0.14917
3737.55791	0.15222
3735.62935	0.15607
3733.70078	0.16224
3731.77222	0.16964
3729.84365	0.17609
3727.91509	0.18135
3725.98652	0.18631
3724.05796	0.19205
3722.12939	0.19901
3720.20083	0.20645
3718.27227	0.21345
3716.34370	0.22041
3714.41514	0.22712
3712.48657	0.23429
3710.55801	0.24587
3708.62944	0.26192
3706.70088	0.27603
3704.77231	0.28808
3702.84375	0.30125
3700.91519	0.31856
3698.98662	0.33790
3697.05806	0.35569
3695.12949	0.37386
3693.20093	0.39279
3691.27236	0.41260
3689.34380	0.43871
3687.41523	0.47376
3685.48667	0.50575
3683.55811	0.53241
3681.62954	0.55998
3679.70098	0.59064
3677.77241	0.62216
3675.84385	0.65878
3673.91528	0.71086
3671.98672	0.75485
3670.05815	0.79327
3668.12959	0.84734
3666.20103	0.89770
3664.27246	0.93900
3662.34390	0.98233
3660.41533	1.02875
3658.48677	1.07380
3656.55820	1.12122
3654.62964	1.17525
3652.70107	1.22078
3650.77251	1.25798
3648.84395	1.30857
3646.91538	1.37682
3644.98682	1.43091
3643.05825	1.47222
3641.12969	1.51289
3639.20112	1.55701
3637.27256	1.60075
3635.34399	1.64251
3633.41543	1.68383
3631.48687	1.72215
3629.55830	1.76039
3627.62974	1.81265
3625.70117	1.86443
3623.77261	1.89948
3621.84404	1.93109
3619.91548	1.96571
3617.98691	2.00874
3616.05835	2.05202
3614.12979	2.08821
3612.20122	2.12697
3610.27266	2.16701
3608.34409	2.20670
3606.41553	2.24851
3604.48696	2.28784
3602.55840	2.32270
3600.62983	2.35886
3598.70127	2.39789
3596.77271	2.43636
3594.84414	2.47516
3592.91558	2.51657
3590.98701	2.55693
3589.05845	2.59260
3587.12988	2.63220
3585.20132	2.67795
3583.27275	2.71967
3581.34419	2.75777
3579.41562	2.79685
3577.48706	2.83819
3575.55850	2.88085
3573.62993	2.92344
3571.70137	2.96278
3569.77280	2.99988
3567.84424	3.04047
3565.91567	3.09226
3563.98711	3.14239
3562.05854	3.18112
3560.12998	3.22147
3558.20142	3.26813
3556.27285	3.31454
3554.34429	3.35694
3552.41572	3.40077
3550.48716	3.44639
3548.55859	3.48912
3546.63003	3.53024
3544.70146	3.57504
3542.77290	3.62327
3540.84434	3.67242
3538.91577	3.72183
3536.98721	3.76881
3535.05864	3.81603
3533.13008	3.86439
3531.20151	3.91053
3529.27295	3.95293
3527.34438	3.99455
3525.41582	4.03916
3523.48726	4.08763
3521.55869	4.13862
3519.63013	4.18708
3517.70156	4.23199
3515.77300	4.27641
3513.84443	4.32506
3511.91587	4.37759
3509.98730	4.42700
3508.05874	4.47165
3506.13018	4.51726
3504.20161	4.56288
3502.27305	4.60618
3500.34448	4.65382
3498.41592	4.70767
3496.48735	4.76047
3494.55879	4.80836
3492.63022	4.85637
3490.70166	4.90334
3488.77310	4.94545
3486.84453	4.98862
3484.91597	5.03503
3482.98740	5.08247
3481.05884	5.13119
3479.13027	5.17940
3477.20171	5.23014
3475.27314	5.28839
3473.34458	5.34738
3471.41602	5.39594
3469.48745	5.43662
3467.55889	5.47976
3465.63032	5.52940
3463.70176	5.58294
3461.77319	5.63051
3459.84463	5.66923
3457.91606	5.71008
3455.98750	5.76142
3454.05894	5.81806
3452.13037	5.87038
3450.20181	5.91013
3448.27324	5.94312
3446.34468	5.98615
3444.41611	6.03052
3442.48755	6.07698
3440.55898	6.14279
3438.63042	6.20906
3436.70186	6.24727
3434.77329	6.27965
3432.84473	6.32496
3430.91616	6.36981
3428.98760	6.42471
3427.05903	6.49544
3425.13047	6.55983
3423.20190	6.60004
3421.27334	6.65158
3419.34478	6.73481
3417.41621	6.81154
3415.48765	6.86659
3413.55908	6.91177
3411.63052	6.94383
3409.70195	6.95376
3407.77339	6.98097
3405.84482	7.02459
3403.91626	7.04588
3401.98770	7.06876
3400.05913	7.12995
3398.13057	7.19234
3396.20200	7.21822
3394.27344	7.25242
3392.34487	7.30793
3390.41631	7.36095
3388.48774	7.40081
3386.55918	7.44817
3384.63062	7.49941
3382.70205	7.52943
3380.77349	7.54467
3378.84492	7.56010
3376.91636	7.57398
3374.98779	7.57177
3373.05923	7.56484
3371.13066	7.55561
3369.20210	7.57961
3367.27354	7.63301
3365.34497	7.69286
3363.41641	7.74156
3361.48784	7.74355
3359.55928	7.78885
3357.63071	7.90116
3355.70215	7.93694
3353.77358	7.85395
3351.84502	7.78206
3349.91646	7.77388
3347.98789	7.81626
3346.05933	7.89271
3344.13076	7.95777
3342.20220	7.93082
3340.27363	7.84155
3338.34507	7.83047
3336.41650	7.89287
3334.48794	7.97115
3332.55937	7.99279
3330.63081	7.95671
3328.70225	7.95661
3326.77368	7.99965
3324.84512	8.06727
3322.91655	8.15933
3320.98799	8.25655
3319.05942	8.24394
3317.13086	8.12165
3315.20229	8.03883
3313.27373	8.02777
3311.34517	8.00347
3309.41660	7.94549
3307.48804	7.89712
3305.55947	7.91067
3303.63091	8.01953
3301.70234	8.11927
3299.77378	8.14396
3297.84521	8.13367
3295.91665	8.12336
3293.98809	8.11622
3292.05952	8.07654
3290.13096	7.97396
3288.20239	7.84319
3286.27383	7.80250
3284.34526	7.89379
3282.41670	8.04905
3280.48813	8.12678
3278.55957	8.05800
3276.63101	7.96253
3274.70244	7.98466
3272.77388	8.16364
3270.84531	8.34891
3268.91675	8.33597
3266.98818	8.23470
3265.05962	8.19221
3263.13105	8.16031
3261.20249	8.13949
3259.27393	8.11970
3257.34536	8.08344
3255.41680	8.10074
3253.48823	8.17043
3251.55967	8.18830
3249.63110	8.08632
3247.70254	7.95209
3245.77397	7.91834
3243.84541	8.02947
3241.91685	8.20450
3239.98828	8.31206
3238.05972	8.30083
3236.13115	8.19927
3234.20259	8.07658
3232.27402	8.06063
3230.34546	8.15348
3228.41689	8.17922
3226.48833	8.14244
3224.55977	8.13089
3222.63120	8.11188
3220.70264	8.09751
3218.77407	8.05559
3216.84551	7.92134
3214.91694	7.80994
3212.98838	7.82643
3211.05981	7.88954
3209.13125	7.85108
3207.20269	7.73264
3205.27412	7.66058
3203.34556	7.62715
3201.41699	7.57626
3199.48843	7.52244
3197.55986	7.50934
3195.63130	7.56835
3193.70273	7.60555
3191.77417	7.49049
3189.84561	7.34114
3187.91704	7.30380
3185.98848	7.33635
3184.05991	7.34037
3182.13135	7.30292
3180.20278	7.26702
3178.27422	7.21777
3176.34565	7.12974
3174.41709	7.04108
3172.48853	6.98186
3170.55996	6.94851
3168.63140	6.90388
3166.70283	6.83704
3164.77427	6.77576
3162.84570	6.71308
3160.91714	6.64210
3158.98857	6.56445
3157.06001	6.47787
3155.13145	6.39965
3153.20288	6.34317
3151.27432	6.30120
3149.34575	6.24623
3147.41719	6.16203
3145.48862	6.06763
3143.56006	5.99124
3141.63149	5.93786
3139.70293	5.88582
3137.77437	5.82588
3135.84580	5.76188
3133.91724	5.68817
3131.98867	5.60766
3130.06011	5.53547
3128.13154	5.46906
3126.20298	5.39753
3124.27441	5.32131
3122.34585	5.24433
3120.41729	5.17559
3118.48872	5.11340
3116.56016	5.04442
3114.63159	4.96827
3112.70303	4.89626
3110.77446	4.82784
3108.84590	4.75422
3106.91733	4.68152
3104.98877	4.61405
3103.06021	4.54682
3101.13164	4.48195
3099.20308	4.42096
3097.27451	4.35700
3095.34595	4.28745
3093.41738	4.21889
3091.48882	4.15591
3089.56025	4.09642
3087.63169	4.03615
3085.70312	3.97328
3083.77456	3.90798
3081.84600	3.84257
3079.91743	3.78031
3077.98887	3.71977
3076.06030	3.65797
3074.13174	3.59576
3072.20317	3.53465
3070.27461	3.47638
3068.34604	3.42146
3066.41748	3.36668
3064.48892	3.31109
3062.56035	3.25557
3060.63179	3.20069
3058.70322	3.14763
3056.77466	3.09561
3054.84609	3.04427
3052.91753	2.99401
3050.98896	2.94406
3049.06040	2.89407
3047.13184	2.84427
3045.20327	2.79549
3043.27471	2.74832
3041.34614	2.70161
3039.41758	2.65511
3037.48901	2.61028
3035.56045	2.56651
3033.63188	2.52178
3031.70332	2.47625
3029.77476	2.43134
3027.84619	2.38814
3025.91763	2.34680
3023.98906	2.30637
3022.06050	2.26582
3020.13193	2.22506
3018.20337	2.18525
3016.27480	2.14719
3014.34624	2.11024
3012.41768	2.07329
3010.48911	2.03635
3008.56055	2.00015
3006.63198	1.96409
3004.70342	1.92796
3002.77485	1.89280
3000.84629	1.85874
2998.91772	1.82513
2996.98916	1.79219
2995.06060	1.76021
2993.13203	1.72844
2991.20347	1.69667
2989.27490	1.66542
2987.34634	1.63499
2985.41777	1.60549
2983.48921	1.57613
2981.56064	1.54646
2979.63208	1.51717
2977.70352	1.48881
2975.77495	1.46152
2973.84639	1.43495
2971.91782	1.40828
2969.98926	1.38150
2968.06069	1.35529
2966.13213	1.33026
2964.20356	1.30616
2962.27500	1.28170
2960.34644	1.25684
2958.41787	1.23292
2956.48931	1.21005
2954.56074	1.18778
2952.63218	1.16614
2950.70361	1.14466
2948.77505	1.12306
2946.84648	1.10196
2944.91792	1.08181
2942.98936	1.06214
2941.06079	1.04256
2939.13223	1.02337
2937.20366	1.00434
2935.27510	0.98534
2933.34653	0.96718
2931.41797	0.95016
2929.48940	0.93365
2927.56084	0.91725
2925.63228	0.90089
2923.70371	0.88488
2921.77515	0.86957
2919.84658	0.85458
2917.91802	0.83907
2915.98945	0.82272
2914.06089	0.80586
2912.13232	0.78912
2910.20376	0.77332
2908.27520	0.75884
2906.34663	0.74513
2904.41807	0.73165
2902.48950	0.71864
2900.56094	0.70623
2898.63237	0.69389
2896.70381	0.68135
2894.77524	0.66901
2892.84668	0.65710
2890.91812	0.64526
2888.98955	0.63349
2887.06099	0.62202
2885.13242	0.61080
2883.20386	0.59990
2881.27529	0.58933
2879.34673	0.57903
2877.41816	0.56909
2875.48960	0.55939
2873.56104	0.54958
2871.63247	0.53977
2869.70391	0.53018
2867.77534	0.52092
2865.84678	0.51200
2863.91821	0.50328
2861.98965	0.49463
2860.06108	0.48626
2858.13252	0.47822
2856.20396	0.47053
2854.27539	0.46346
2852.34683	0.45674
2850.41826	0.44963
2848.48970	0.44182
2846.56113	0.43354
2844.63257	0.42538
2842.70400	0.41794
2840.77544	0.41122
2838.84687	0.40492
2836.91831	0.39883
2834.98975	0.39273
2833.06118	0.38669
2831.13262	0.38097
2829.20405	0.37549
2827.27549	0.37000
2825.34692	0.36450
2823.41836	0.35914
2821.48979	0.35373
2819.56123	0.34802
2817.63267	0.34237
2815.70410	0.33708
2813.77554	0.33196
2811.84697	0.32681
2809.91841	0.32176
2807.98984	0.31695
2806.06128	0.31223
2804.13271	0.30752
2802.20415	0.30283
2800.27559	0.29814
2798.34702	0.29359
2796.41846	0.28924
2794.48989	0.28509
2792.56133	0.28118
2790.63276	0.27734
2788.70420	0.27322
2786.77563	0.26907
2784.84707	0.26539
2782.91851	0.26198
2780.98994	0.25837
2779.06138	0.25469
2777.13281	0.25118
2775.20425	0.24777
2773.27568	0.24437
2771.34712	0.24105
2769.41855	0.23778
2767.48999	0.23455
2765.56143	0.23144
2763.63286	0.22851
2761.70430	0.22566
2759.77573	0.22285
2757.84717	0.22007
2755.91860	0.21735
2753.99004	0.21464
2752.06147	0.21184
2750.13291	0.20909
2748.20435	0.20656
2746.27578	0.20409
2744.34722	0.20157
2742.41865	0.19919
2740.49009	0.19704
2738.56152	0.19494
2736.63296	0.19282
2734.70439	0.19079
2732.77583	0.18880
2730.84727	0.18667
2728.91870	0.18453
2726.99014	0.18253
2725.06157	0.18054
2723.13301	0.17860
2721.20444	0.17687
2719.27588	0.17530
2717.34731	0.17372
2715.41875	0.17207
2713.49019	0.17031
2711.56162	0.16852
2709.63306	0.16697
2707.70449	0.16562
2705.77593	0.16411
2703.84736	0.16248
2701.91880	0.16104
2699.99023	0.15978
2698.06167	0.15850
2696.13311	0.15716
2694.20454	0.15579
2692.27598	0.15461
2690.34741	0.15371
2688.41885	0.15272
2686.49028	0.15154
2684.56172	0.15036
2682.63315	0.14929
2680.70459	0.14837
2678.77603	0.14752
2676.84746	0.14660
2674.91890	0.14555
2672.99033	0.14451
2671.06177	0.14375
2669.13320	0.14294
2667.20464	0.14199
2665.27607	0.14125
2663.34751	0.14069
2661.41895	0.14006
2659.49038	0.13940
2657.56182	0.13872
2655.63325	0.13794
2653.70469	0.13711
2651.77612	0.13640
2649.84756	0.13591
2647.91899	0.13574
2645.99043	0.13559
2644.06187	0.13509
2642.13330	0.13446
2640.20474	0.13408
2638.27617	0.13392
2636.34761	0.13375
2634.41904	0.13343
2632.49048	0.13307
2630.56191	0.13290
2628.63335	0.13282
2626.70479	0.13259
2624.77622	0.13231
2622.84766	0.13210
2620.91909	0.13190
2618.99053	0.13182
2617.06196	0.13200
2615.13340	0.13214
2613.20483	0.13203
2611.27627	0.13187
2609.34771	0.13185
2607.41914	0.13190
2605.49058	0.13195
2603.56201	0.13208
2601.63345	0.13232
2599.70488	0.13243
2597.77632	0.13242
2595.84775	0.13248
2593.91919	0.13262
2591.99062	0.13272
2590.06206	0.13287
2588.13350	0.13320
2586.20493	0.13367
2584.27637	0.13419
2582.34780	0.13467
2580.41924	0.13510
2578.49067	0.13548
2576.56211	0.13589
2574.63354	0.13635
2572.70498	0.13675
2570.77642	0.13711
2568.84785	0.13753
2566.91929	0.13808
2564.99072	0.13866
2563.06216	0.13912
2561.13359	0.13954
2559.20503	0.14008
2557.27646	0.14065
2555.34790	0.14126
2553.41934	0.14192
2551.49077	0.14256
2549.56221	0.14326
2547.63364	0.14397
2545.70508	0.14458
2543.77651	0.14520
2541.84795	0.14592
2539.91938	0.14664
2537.99082	0.14726
2536.06226	0.14795
2534.13369	0.14873
2532.20513	0.14947
2530.27656	0.15026
2528.34800	0.15119
2526.41943	0.15211
2524.49087	0.15298
2522.56230	0.15394
2520.63374	0.15485
2518.70518	0.15560
2516.77661	0.15625
2514.84805	0.15695
2512.91948	0.15778
2510.99092	0.15862
2509.06235	0.15949
2507.13379	0.16040
2505.20522	0.16133
2503.27666	0.16224
2501.34810	0.16306
2499.41953	0.16393
2497.49097	0.16491
2495.56240	0.16582
2493.63384	0.16670
2491.70527	0.16769
2489.77671	0.16870
2487.84814	0.16965
2485.91958	0.17063
2483.99102	0.17173
2482.06245	0.17280
2480.13389	0.17370
2478.20532	0.17456
2476.27676	0.17552
2474.34819	0.17657
2472.41963	0.17759
2470.49106	0.17840
2468.56250	0.17924
2466.63394	0.18038
2464.70537	0.18160
2462.77681	0.18263
2460.84824	0.18362
2458.91968	0.18471
2456.99111	0.18577
2455.06255	0.18675
2453.13398	0.18770
2451.20542	0.18863
2449.27686	0.18959
2447.34829	0.19068
2445.41973	0.19189
2443.49116	0.19313
2441.56260	0.19420
2439.63403	0.19521
2437.70547	0.19636
2435.77690	0.19754
2433.84834	0.19867
2431.91978	0.19982
2429.99121	0.20092
2428.06265	0.20191
2426.13408	0.20281
2424.20552	0.20378
2422.27695	0.20501
2420.34839	0.20636
2418.41982	0.20760
2416.49126	0.20875
2414.56270	0.20987
2412.63413	0.21099
2410.70557	0.21216
2408.77700	0.21337
2406.84844	0.21463
2404.91987	0.21586
2402.99131	0.21694
2401.06274	0.21808
2399.13418	0.21944
2397.20562	0.22085
2395.27705	0.22216
2393.34849	0.22335
2391.41992	0.22460
2389.49136	0.22608
2387.56279	0.22789
2385.63423	0.23004
2383.70566	0.23259
2381.77710	0.23584
2379.84854	0.23994
2377.91997	0.24452
2375.99141	0.24939
2374.06284	0.25510
2372.13428	0.26183
2370.20571	0.26913
2368.27715	0.27699
2366.34858	0.28511
2364.42002	0.29230
2362.49146	0.29846
2360.56289	0.30350
2358.63433	0.30552
2356.70576	0.30335
2354.77720	0.29893
2352.84863	0.29346
2350.92007	0.28718
2348.99150	0.28306
2347.06294	0.28335
2345.13437	0.28856
2343.20581	0.29648
2341.27725	0.30206
2339.34868	0.30348
2337.42012	0.30287
2335.49155	0.30274
2333.56299	0.30304
2331.63442	0.30378
2329.70586	0.30505
2327.77729	0.30586
2325.84873	0.30578
2323.92017	0.30509
2321.99160	0.30405
2320.06304	0.30289
2318.13447	0.30187
2316.20591	0.30110
2314.27734	0.30086
2312.34878	0.30137
2310.42021	0.30233
2308.49165	0.30306
2306.56309	0.30336
2304.63452	0.30362
2302.70596	0.30435
2300.77739	0.30550
2298.84883	0.30667
2296.92026	0.30785
2294.99170	0.30918
2293.06313	0.31056
2291.13457	0.31186
2289.20601	0.31320
2287.27744	0.31461
2285.34888	0.31593
2283.42031	0.31736
2281.49175	0.31918
2279.56318	0.32130
2277.63462	0.32347
2275.70605	0.32566
2273.77749	0.32785
2271.84893	0.32994
2269.92036	0.33189
2267.99180	0.33387
2266.06323	0.33600
2264.13467	0.33824
2262.20610	0.34045
2260.27754	0.34250
2258.34897	0.34449
2256.42041	0.34650
2254.49185	0.34851
2252.56328	0.35059
2250.63472	0.35276
2248.70615	0.35485
2246.77759	0.35686
2244.84902	0.35895
2242.92046	0.36109
2240.99189	0.36326
2239.06333	0.36549
2237.13477	0.36773
2235.20620	0.36987
2233.27764	0.37196
2231.34907	0.37422
2229.42051	0.37653
2227.49194	0.37872
2225.56338	0.38094
2223.63481	0.38325
2221.70625	0.38547
2219.77769	0.38763
2217.84912	0.38985
2215.92056	0.39205
2213.99199	0.39416
2212.06343	0.39625
2210.13486	0.39832
2208.20630	0.40035
2206.27773	0.40244
2204.34917	0.40452
2202.42061	0.40653
2200.49204	0.40857
2198.56348	0.41063
2196.63491	0.41259
2194.70635	0.41453
2192.77778	0.41646
2190.84922	0.41830
2188.92065	0.42009
2186.99209	0.42195
2185.06353	0.42385
2183.13496	0.42571
2181.20640	0.42741
2179.27783	0.42895
2177.34927	0.43050
2175.42070	0.43203
2173.49214	0.43346
2171.56357	0.43484
2169.63501	0.43625
2167.70645	0.43765
2165.77788	0.43900
2163.84932	0.44026
2161.92075	0.44141
2159.99219	0.44248
2158.06362	0.44352
2156.13506	0.44462
2154.20649	0.44564
2152.27793	0.44642
2150.34937	0.44711
2148.42080	0.44775
2146.49224	0.44819
2144.56367	0.44856
2142.63511	0.44915
2140.70654	0.44974
2138.77798	0.45003
2136.84941	0.45016
2134.92085	0.45031
2132.99229	0.45038
2131.06372	0.45028
2129.13516	0.45006
2127.20659	0.44980
2125.27803	0.44953
2123.34946	0.44923
2121.42090	0.44886
2119.49233	0.44836
2117.56377	0.44775
2115.63521	0.44705
2113.70664	0.44635
2111.77808	0.44569
2109.84951	0.44495
2107.92095	0.44397
2105.99238	0.44280
2104.06382	0.44157
2102.13525	0.44026
2100.20669	0.43890
2098.27812	0.43753
2096.34956	0.43607
2094.42100	0.43455
2092.49243	0.43300
2090.56387	0.43139
2088.63530	0.42973
2086.70674	0.42815
2084.77817	0.42651
2082.84961	0.42467
2080.92104	0.42271
2078.99248	0.42070
2077.06392	0.41859
2075.13535	0.41644
2073.20679	0.41431
2071.27822	0.41220
2069.34966	0.41006
2067.42109	0.40782
2065.49253	0.40553
2063.56396	0.40325
2061.63540	0.40099
2059.70684	0.39862
2057.77827	0.39609
2055.84971	0.39356
2053.92114	0.39113
2051.99258	0.38870
2050.06401	0.38619
2048.13545	0.38354
2046.20688	0.38079
2044.27832	0.37805
2042.34976	0.37524
2040.42119	0.37257
2038.49263	0.37017
2036.56406	0.36770
2034.63550	0.36503
2032.70693	0.36229
2030.77837	0.35953
2028.84980	0.35675
2026.92124	0.35399
2024.99268	0.35122
2023.06411	0.34848
2021.13555	0.34572
2019.20698	0.34289
2017.27842	0.34005
2015.34985	0.33732
2013.42129	0.33469
2011.49272	0.33202
2009.56416	0.32935
2007.63560	0.32667
2005.70703	0.32394
2003.77847	0.32131
2001.84990	0.31874
1999.92134	0.31607
1997.99277	0.31339
1996.06421	0.31082
1994.13564	0.30824
1992.20708	0.30561
1990.27852	0.30309
1988.34995	0.30072
1986.42139	0.29837
1984.49282	0.29600
1982.56426	0.29364
1980.63569	0.29131
1978.70713	0.28909
1976.77856	0.28693
1974.85000	0.28472
1972.92144	0.28246
1970.99287	0.28024
1969.06431	0.27808
1967.13574	0.27591
1965.20718	0.27388
1963.27861	0.27206
1961.35005	0.27033
1959.42148	0.26857
1957.49292	0.26672
1955.56436	0.26483
1953.63579	0.26306
1951.70723	0.26140
1949.77866	0.25983
1947.85010	0.25823
1945.92153	0.25653
1943.99297	0.25477
1942.06440	0.25324
1940.13584	0.25204
1938.20728	0.25085
1936.27871	0.24947
1934.35015	0.24809
1932.42158	0.24689
1930.49302	0.24575
1928.56445	0.24460
1926.63589	0.24349
1924.70732	0.24237
1922.77876	0.24120
1920.85020	0.24012
1918.92163	0.23916
1916.99307	0.23828
1915.06450	0.23753
1913.13594	0.23681
1911.20737	0.23611
1909.27881	0.23537
1907.35024	0.23463
1905.42168	0.23401
1903.49312	0.23357
1901.56455	0.23315
1899.63599	0.23266
1897.70742	0.23217
1895.77886	0.23164
1893.85029	0.23113
1891.92173	0.23067
1889.99316	0.23030
1888.06460	0.23012
1886.13604	0.23011
1884.20747	0.23009
1882.27891	0.23000
1880.35034	0.22985
1878.42178	0.22968
1876.49321	0.22955
1874.56465	0.22947
1872.63608	0.22948
1870.70752	0.22932
1868.77896	0.22920
1866.85039	0.22958
1864.92183	0.23016
1862.99326	0.23057
1861.06470	0.23080
1859.13613	0.23110
1857.20757	0.23153
1855.27900	0.23206
1853.35044	0.23251
1851.42187	0.23294
1849.49331	0.23333
1847.56475	0.23369
1845.63618	0.23408
1843.70762	0.23490
1841.77905	0.23617
1839.85049	0.23711
1837.92192	0.23788
1835.99336	0.23868
1834.06479	0.23956
1832.13623	0.24032
1830.20767	0.24128
1828.27910	0.24266
1826.35054	0.24388
1824.42197	0.24521
1822.49341	0.24676
1820.56484	0.24827
1818.63628	0.24967
1816.70771	0.25127
1814.77915	0.25294
1812.85059	0.25454
1810.92202	0.25631
1808.99346	0.25833
1807.06489	0.26041
1805.13633	0.26240
1803.20776	0.26440
1801.27920	0.26650
1799.35063	0.26914
1797.42207	0.27185
1795.49351	0.27431
1793.56494	0.27683
1791.63638	0.28019
1789.70781	0.28408
1787.77925	0.28727
1785.85068	0.29049
1783.92212	0.29402
1781.99355	0.29775
1780.06499	0.30179
1778.13643	0.30612
1776.20786	0.31002
1774.27930	0.31368
1772.35073	0.31873
1770.42217	0.32525
1768.49360	0.33124
1766.56504	0.33687
1764.63647	0.34233
1762.70791	0.34801
1760.77935	0.35536
1758.85078	0.36243
1756.92222	0.36941
1754.99365	0.37716
1753.06509	0.38395
1751.13652	0.39148
1749.20796	0.40151
1747.27939	0.41229
1745.35083	0.42191
1743.42227	0.43176
1741.49370	0.44242
1739.56514	0.45485
1737.63657	0.46715
1735.70801	0.47725
1733.77944	0.49258
1731.85088	0.51270
1729.92231	0.52928
1727.99375	0.54578
1726.06519	0.56277
1724.13662	0.58079
1722.20806	0.60022
1720.27949	0.61781
1718.35093	0.63776
1716.42236	0.66864
1714.49380	0.69965
1712.56523	0.72486
1710.63667	0.74872
1708.70811	0.77341
1706.77954	0.80066
1704.85098	0.83356
1702.92241	0.86317
1700.99385	0.89148
1699.06528	0.93432
1697.13672	0.97477
1695.20815	1.01600
1693.27959	1.05505
1691.35103	1.08504
1689.42246	1.11908
1687.49390	1.15506
1685.56533	1.18873
1683.63677	1.24115
1681.70820	1.29789
1679.77964	1.33423
1677.85107	1.36850
1675.92251	1.40707
1673.99395	1.45457
1672.06538	1.49608
1670.13682	1.53564
1668.20825	1.58836
1666.27969	1.63016
1664.35112	1.66359
1662.42256	1.70459
1660.49399	1.75219
1658.56543	1.78918
1656.63687	1.81856
1654.70830	1.84477
1652.77974	1.89233
1650.85117	1.94678
1648.92261	1.97080
1646.99404	2.00283
1645.06548	2.03847
1643.13691	2.06119
1641.20835	2.07561
1639.27979	2.08825
1637.35122	2.09516
1635.42266	2.09648
1633.49409	2.09468
1631.56553	2.08642
1629.63696	2.07418
1627.70840	2.05249
1625.77983	2.02760
1623.85127	1.99537
1621.92271	1.95442
1619.99414	1.91781
1618.06558	1.88094
1616.13701	1.82489
1614.20845	1.76754
1612.27988	1.72530
1610.35132	1.68062
1608.42275	1.63026
1606.49419	1.57936
1604.56562	1.53300
1602.63706	1.48819
1600.70850	1.44337
1598.77993	1.40163
1596.85137	1.36208
1594.92280	1.32310
1592.99424	1.28507
1591.06567	1.25031
1589.13711	1.21766
1587.20854	1.18689
1585.27998	1.15798
1583.35142	1.13040
1581.42285	1.10448
1579.49429	1.08166
1577.56572	1.06029
1575.63716	1.03326
1573.70859	1.00973
1571.78003	0.99422
1569.85146	0.97638
1567.92290	0.95579
1565.99434	0.93978
1564.06577	0.92565
1562.13721	0.91328
1560.20864	0.90182
1558.28008	0.88055
1556.35151	0.86289
1554.42295	0.85319
1552.49438	0.84296
1550.56582	0.83268
1548.63726	0.82234
1546.70869	0.81323
1544.78013	0.80454
1542.85156	0.79558
1540.92300	0.78658
1538.99443	0.77572
1537.06587	0.76835
1535.13730	0.76328
1533.20874	0.75661
1531.28018	0.74964
1529.35161	0.74438
1527.42305	0.73873
1525.49448	0.73253
1523.56592	0.72703
1521.63735	0.72120
1519.70879	0.71492
1517.78022	0.70985
1515.85166	0.70506
1513.92310	0.70078
1511.99453	0.69699
1510.06597	0.69289
1508.13740	0.68825
1506.20884	0.68292
1504.28027	0.68013
1502.35171	0.67806
1500.42314	0.67532
1498.49458	0.67213
1496.56602	0.66872
1494.63745	0.66568
1492.70889	0.66303
1490.78032	0.66002
1488.85176	0.65641
1486.92319	0.65354
1484.99463	0.65132
1483.06606	0.64905
1481.13750	0.64644
1479.20894	0.64374
1477.28037	0.64117
1475.35181	0.63845
1473.42324	0.63540
1471.49468	0.63188
1469.56611	0.62902
1467.63755	0.62683
1465.70898	0.62452
1463.78042	0.62208
1461.85186	0.62002
1459.92329	0.61792
1457.99473	0.61497
1456.06616	0.61191
1454.13760	0.61031
1452.20903	0.60910
1450.28047	0.60771
1448.35190	0.60607
1446.42334	0.60424
1444.49478	0.60266
1442.56621	0.60141
1440.63765	0.60024
1438.70908	0.59893
1436.78052	0.59724
1434.85195	0.59551
1432.92339	0.59412
1430.99482	0.59280
1429.06626	0.59152
1427.13770	0.59034
1425.20913	0.58896
1423.28057	0.58732
1421.35200	0.58567
1419.42344	0.58374
1417.49487	0.58176
1415.56631	0.58049
1413.63774	0.57957
1411.70918	0.57850
1409.78062	0.57712
1407.85205	0.57554
1405.92349	0.57396
1403.99492	0.57240
1402.06636	0.57092
1400.13779	0.56957
1398.20923	0.56819
1396.28066	0.56673
1394.35210	0.56540
1392.42354	0.56449
1390.49497	0.56359
1388.56641	0.56243
1386.63784	0.56125
1384.70928	0.56031
1382.78071	0.55950
1380.85215	0.55864
1378.92358	0.55772
1376.99502	0.55677
1375.06646	0.55574
1373.13789	0.55476
1371.20933	0.55399
1369.28076	0.55320
1367.35220	0.55220
1365.42363	0.55111
1363.49507	0.55004
1361.56650	0.54903
1359.63794	0.54828
1357.70937	0.54767
1355.78081	0.54690
1353.85225	0.54608
1351.92368	0.54533
1349.99512	0.54454
1348.06655	0.54356
1346.13799	0.54252
1344.20942	0.54153
1342.28086	0.54049
1340.35229	0.53936
1338.42373	0.53840
1336.49517	0.53776
1334.56660	0.53714
1332.63804	0.53636
1330.70947	0.53553
1328.78091	0.53477
1326.85234	0.53403
1324.92378	0.53334
1322.99521	0.53266
1321.06665	0.53182
1319.13809	0.53080
1317.20952	0.52973
1315.28096	0.52876
1313.35239	0.52796
1311.42383	0.52730
1309.49526	0.52672
1307.56670	0.52612
1305.63813	0.52540
1303.70957	0.52458
1301.78101	0.52379
1299.85244	0.52303
1297.92388	0.52231
1295.99531	0.52167
1294.06675	0.52104
1292.13818	0.52038
1290.20962	0.51975
1288.28105	0.51917
1286.35249	0.51859
1284.42393	0.51806
1282.49536	0.51770
1280.56680	0.51749
1278.63823	0.51721
1276.70967	0.51669
1274.78110	0.51611
1272.85254	0.51563
1270.92397	0.51519
1268.99541	0.51481
1267.06685	0.51458
1265.13828	0.51436
1263.20972	0.51404
1261.28115	0.51366
1259.35259	0.51334
1257.42402	0.51310
1255.49546	0.51293
1253.56689	0.51280
1251.63833	0.51261
1249.70977	0.51234
1247.78120	0.51200
1245.85264	0.51167
1243.92407	0.51149
1241.99551	0.51132
1240.06694	0.51102
1238.13838	0.51063
1236.20981	0.51018
1234.28125	0.50970
1232.35269	0.50926
1230.42412	0.50879
1228.49556	0.50824
1226.56699	0.50758
1224.63843	0.50688
1222.70986	0.50632
1220.78130	0.50590
1218.85273	0.50536
1216.92417	0.50466
1214.99561	0.50401
1213.06704	0.50343
1211.13848	0.50288
1209.20991	0.50236
1207.28135	0.50176
1205.35278	0.50106
1203.42422	0.50045
1201.49565	0.50000
1199.56709	0.49962
1197.63853	0.49923
1195.70996	0.49880
1193.78140	0.49836
1191.85283	0.49793
1189.92427	0.49754
1187.99570	0.49719
1186.06714	0.49691
1184.13857	0.49674
1182.21001	0.49666
1180.28145	0.49675
1178.35288	0.49701
1176.42432	0.49736
1174.49575	0.49771
1172.56719	0.49796
1170.63862	0.49811
1168.71006	0.49832
1166.78149	0.49863
1164.85293	0.49890
1162.92437	0.49900
1160.99580	0.49885
1159.06724	0.49835
1157.13867	0.49762
1155.21011	0.49682
1153.28154	0.49581
1151.35298	0.49444
1149.42441	0.49281
1147.49585	0.49098
1145.56729	0.48894
1143.63872	0.48677
1141.71016	0.48449
1139.78159	0.48204
1137.85303	0.47958
1135.92446	0.47737
1133.99590	0.47546
1132.06733	0.47376
1130.13877	0.47208
1128.21021	0.47036
1126.28164	0.46881
1124.35308	0.46752
1122.42451	0.46650
1120.49595	0.46576
1118.56738	0.46538
1116.63882	0.46532
1114.71025	0.46534
1112.78169	0.46536
1110.85312	0.46555
1108.92456	0.46612
1106.99600	0.46716
1105.06743	0.46854
1103.13887	0.47008
1101.21030	0.47177
1099.28174	0.47390
1097.35317	0.47659
1095.42461	0.47947
1093.49604	0.48248
1091.56748	0.48628
1089.63892	0.49113
1087.71035	0.49658
1085.78179	0.50233
1083.85322	0.50841
1081.92466	0.51445
1079.99609	0.51973
1078.06753	0.52364
1076.13896	0.52530
1074.21040	0.52386
1072.28184	0.51982
1070.35327	0.51450
1068.42471	0.50848
1066.49614	0.50199
1064.56758	0.49582
1062.63901	0.49046
1060.71045	0.48579
1058.78188	0.48155
1056.85332	0.47751
1054.92476	0.47400
1052.99619	0.47141
1051.06763	0.46947
1049.13906	0.46756
1047.21050	0.46564
1045.28193	0.46400
1043.35337	0.46272
1041.42480	0.46178
1039.49624	0.46109
1037.56768	0.46061
1035.63911	0.46053
1033.71055	0.46074
1031.78198	0.46099
1029.85342	0.46116
1027.92485	0.46139
1025.99629	0.46186
1024.06772	0.46255
1022.13916	0.46333
1020.21060	0.46410
1018.28203	0.46493
1016.35347	0.46598
1014.42490	0.46726
1012.49634	0.46851
1010.56777	0.46981
1008.63921	0.47151
1006.71064	0.47350
1004.78208	0.47546
1002.85352	0.47754
1000.92495	0.48011
998.99639	0.48332
997.06782	0.48690
995.13926	0.49044
993.21069	0.49384
991.28213	0.49702
989.35356	0.49957
987.42500	0.50130
985.49644	0.50254
983.56787	0.50354
981.63931	0.50455
979.71074	0.50595
977.78218	0.50794
975.85361	0.51046
973.92505	0.51340
971.99648	0.51658
970.06792	0.52000
968.13936	0.52391
966.21079	0.52828
964.28223	0.53273
962.35366	0.53728
960.42510	0.54230
958.49653	0.54774
956.56797	0.55336
954.63940	0.55908
952.71084	0.56503
950.78228	0.57149
948.85371	0.57811
946.92515	0.58449
944.99658	0.59075
943.06802	0.59658
941.13945	0.60178
939.21089	0.60701
937.28232	0.61276
935.35376	0.61873
933.42520	0.62450
931.49663	0.63007
929.56807	0.63524
927.63950	0.64020
925.71094	0.64569
923.78237	0.65172
921.85381	0.65802
919.92524	0.66459
917.99668	0.67174
916.06812	0.67955
914.13955	0.68724
912.21099	0.69443
910.28242	0.70198
908.35386	0.71052
906.42529	0.71937
904.49673	0.72742
902.56816	0.73524
900.63960	0.74425
898.71104	0.75399
896.78247	0.76374
894.85391	0.77387
892.92534	0.78398
890.99678	0.79381
889.06821	0.80416
887.13965	0.81498
885.21108	0.82577
883.28252	0.83695
881.35396	0.84844
879.42539	0.85976
877.49683	0.87112
875.56826	0.88260
873.63970	0.89398
871.71113	0.90495
869.78257	0.91469
867.85400	0.92388
865.92544	0.93453
863.99687	0.94645
862.06831	0.95796
860.13975	0.96875
858.21118	0.98017
856.28262	0.99187
854.35405	1.00225
852.42549	1.01255
850.49692	1.02374
848.56836	1.03522
846.63979	1.04774
844.71123	1.06115
842.78267	1.07331
840.85410	1.08454
838.92554	1.09598
836.99697	1.10638
835.06841	1.11524
833.13984	1.12266
831.21128	1.13003
829.28271	1.13919
827.35415	1.14594
825.42559	1.15025
823.49702	1.16124
821.56846	1.18031
819.63989	1.19960
817.71133	1.21280
815.78276	1.22168
813.85420	1.22775
811.92563	1.23255
809.99707	1.24605
808.06851	1.26796
806.13994	1.28518
804.21138	1.29826
802.28281	1.31744
800.35425	1.32666
798.42568	1.30973
796.49712	1.28357
794.56855	1.27126
792.63999	1.28903
790.71143	1.32229
788.78286	1.34520
786.85430	1.35271
784.92573	1.35160
782.99717	1.35747
781.06860	1.38045
779.14004	1.40937
777.21147	1.41812
775.28291	1.39400
773.35435	1.34901
771.42578	1.33836
769.49722	1.42381
767.56865	1.60727
765.64009	1.69740
763.71152	1.62196
761.78296	1.56432
759.85439	1.44348
757.92583	1.33627
755.99727	1.31321
754.06870	1.33559
752.14014	1.31341
750.21157	1.22617
748.28301	1.15120
746.35444	1.08947
744.42588	1.03387
742.49731	1.01811
740.56875	0.98243
738.64019	0.88668
736.71162	0.80122
734.78306	0.70240
732.85449	0.59445
730.92593	0.52010
728.99736	0.46154
727.06880	0.41045
725.14023	0.39912
723.21167	0.42983
721.28311	0.41977
719.35454	0.31220
717.42598	0.22869
715.49741	0.25616
713.56885	0.39807
711.64028	0.31337
709.71172	0.06481
707.78315	0.13195
705.85459	0.18013
703.92603	0.10856
701.99746	0.04751
700.06890	0.11572
698.14033	0.20694
696.21177	0.11963
694.28320	0.04135
692.35464	0.11140
690.42607	0.42271
688.49751	0.73115
686.56895	0.34715
684.64038	0.11044
682.71182	0.01007
680.78325	-0.02960
678.85469	0.01571
676.92612	0.18535
674.99756	0.35822
673.06899	0.26791
671.14043	0.17041
669.21187	0.20913
667.28330	0.22503
665.35474	0.14966
663.42617	0.09805
661.49761	0.17086
659.56904	0.24489
657.64048	0.19043
655.71191	0.09549
653.78335	0.07530
651.85479	0.14935
649.92622	0.20366
647.99766	0.15352
646.06909	0.08855
644.14053	0.09218
642.21196	0.16904
640.28340	0.28466
638.35483	0.31991
636.42627	0.22702
634.49771	0.10379
632.56914	0.03051
630.64058	0.03481
628.71201	0.09641
626.78345	0.14593
624.85488	0.15567
622.92632	0.15160
620.99775	0.21011
619.06919	0.35027
617.14062	0.44520
615.21206	0.38781
613.28350	0.21904
611.35493	0.12276
609.42637	0.13280
607.49780	0.15155
605.56924	0.14756
603.64067	0.14419
601.71211	0.15472
599.78354	0.19571
597.85498	0.17788
595.92642	0.14293
593.99785	0.19082
592.06929	0.25735
590.14072	0.26866
588.21216	0.24281
586.28359	0.24850
584.35503	0.20154
582.42646	0.05050
580.49790	-0.00964
578.56934	0.02277
576.64077	0.07712
574.71221	0.12495
572.78364	0.15354
570.85508	0.16889
568.92651	0.15207
566.99795	0.13482
565.06938	0.17507
563.14082	0.20397
561.21226	0.15387
559.28369	0.09769
557.35513	0.09272
555.42656	0.06400
553.49800	0.02255
551.56943	0.06300
549.64087	0.13761
547.71230	0.18887
545.78374	0.20678
543.85518	0.22566
541.92661	0.27913
539.99805	0.22154
538.06948	0.09453
536.14092	0.05862
534.21235	0.14403
532.28379	0.28799
530.35522	0.35341
528.42666	0.35080
526.49810	0.27858
524.56953	0.18705
522.64097	0.11764
520.71240	0.10502
518.78384	0.14786
516.85527	0.16713
514.92671	0.14895
512.99814	0.10744
511.06958	0.04554
509.14102	0.01315
507.21245	0.03362
505.28389	0.06251
503.35532	0.08562
501.42676	0.13718
499.49819	0.21290
