3997.91411	0.07159
3995.98555	0.07196
3994.05698	0.07232
3992.12842	0.07269
3990.19985	0.07292
3988.27129	0.07313
3986.34272	0.07342
3984.41416	0.07371
3982.48560	0.07406
3980.55703	0.07452
3978.62847	0.07485
3976.69990	0.07526
3974.77134	0.07604
3972.84277	0.07662
3970.91421	0.07644
3968.98564	0.07602
3967.05708	0.07596
3965.12852	0.07610
3963.19995	0.07626
3961.27139	0.07656
3959.34282	0.07697
3957.41426	0.07735
3955.48569	0.07750
3953.55713	0.07732
3951.62856	0.07739
3949.70000	0.07824
3947.77144	0.07914
3945.84287	0.07908
3943.91431	0.07874
3941.98574	0.07859
3940.05718	0.07772
3938.12861	0.07682
3936.20005	0.07701
3934.27148	0.07788
3932.34292	0.07884
3930.41436	0.07926
3928.48579	0.07877
3926.55723	0.07839
3924.62866	0.07876
3922.70010	0.07886
3920.77153	0.07838
3918.84297	0.07825
3916.91440	0.07847
3914.98584	0.07820
3913.05728	0.07718
3911.12871	0.07618
3909.20015	0.07584
3907.27158	0.07637
3905.34302	0.07806
3903.41445	0.08044
3901.48589	0.08144
3899.55732	0.08086
3897.62876	0.07955
3895.70020	0.07805
3893.77163	0.07772
3891.84307	0.07888
3889.91450	0.07940
3887.98594	0.07853
3886.05737	0.07868
3884.12881	0.07979
3882.20024	0.08016
3880.27168	0.08015
3878.34312	0.07914
3876.41455	0.07759
3874.48599	0.07784
3872.55742	0.07997
3870.62886	0.08226
3868.70029	0.08316
3866.77173	0.08251
3864.84316	0.08270
3862.91460	0.08367
3860.98604	0.08297
3859.05747	0.08150
3857.12891	0.08135
3855.20034	0.08319
3853.27178	0.08738
3851.34321	0.08946
3849.41465	0.08635
3847.48608	0.08356
3845.55752	0.08301
3843.62896	0.08468
3841.70039	0.08759
3839.77183	0.09031
3837.84326	0.09222
3835.91470	0.09264
3833.98613	0.09200
3832.05757	0.09111
3830.12900	0.09042
3828.20044	0.09056
3826.27187	0.09160
3824.34331	0.09274
3822.41475	0.09451
3820.48618	0.09778
3818.55762	0.09920
3816.62905	0.09838
3814.70049	0.09768
3812.77192	0.09655
3810.84336	0.09580
3808.91479	0.09679
3806.98623	0.09954
3805.05767	0.10217
3803.12910	0.10401
3801.20054	0.10667
3799.27197	0.10821
3797.34341	0.10757
3795.41484	0.10711
3793.48628	0.10664
3791.55771	0.10635
3789.62915	0.10699
3787.70059	0.10836
3785.77202	0.11034
3783.84346	0.11271
3781.91489	0.11473
3779.98633	0.11663
3778.05776	0.11837
3776.12920	0.11906
3774.20063	0.11972
3772.27207	0.12140
3770.34351	0.12432
3768.41494	0.12770
3766.48638	0.13010
3764.55781	0.13179
3762.62925	0.13295
3760.70068	0.13464
3758.77212	0.13800
3756.84355	0.14137
3754.91499	0.14354
3752.98643	0.14650
3751.05786	0.15213
3749.12930	0.15813
3747.20073	0.16015
3745.27217	0.16156
3743.34360	0.16482
3741.41504	0.16730
3739.48647	0.16923
3737.55791	0.17305
3735.62935	0.17924
3733.70078	0.18536
3731.77222	0.18841
3729.84365	0.19040
3727.91509	0.19376
3725.98652	0.19950
3724.05796	0.20687
3722.12939	0.21417
3720.20083	0.22085
3718.27227	0.22688
3716.34370	0.23318
3714.41514	0.24059
3712.48657	0.25092
3710.55801	0.26612
3708.62944	0.28083
3706.70088	0.29076
3704.77231	0.30017
3702.84375	0.31268
3700.91519	0.32999
3698.98662	0.34862
3697.05806	0.36588
3695.12949	0.38438
3693.20093	0.40466
3691.27236	0.42782
3689.34380	0.45809
3687.41523	0.49301
3685.48667	0.52150
3683.55811	0.54613
3681.62954	0.57391
3679.70098	0.60619
3677.77241	0.64013
3675.84385	0.68039
3673.91528	0.73498
3671.98672	0.77845
3670.05815	0.81689
3668.12959	0.87004
3666.20103	0.91718
3664.27246	0.95641
3662.34390	0.99938
3660.41533	1.04633
3658.48677	1.09301
3656.55820	1.14317
3654.62964	1.19926
3652.70107	1.24593
3650.77251	1.28659
3648.84395	1.34422
3646.91538	1.41438
3644.98682	1.46311
3643.05825	1.50096
3641.12969	1.54111
3639.20112	1.58534
3637.27256	1.62948
3635.34399	1.67251
3633.41543	1.71583
3631.48687	1.75644
3629.55830	1.79823
3627.62974	1.85450
3625.70117	1.90560
3623.77261	1.93822
3621.84404	1.97021
3619.91548	2.00870
3617.98691	2.05584
3616.05835	2.10025
3614.12979	2.13702
3612.20122	2.17633
3610.27266	2.21606
3608.34409	2.25582
3606.41553	2.29766
3604.48696	2.33571
3602.55840	2.37007
3600.62983	2.40828
3598.70127	2.44947
3596.77271	2.48932
3594.84414	2.53099
3592.91558	2.57484
3590.98701	2.61492
3589.05845	2.65081
3587.12988	2.69393
3585.20132	2.74273
3583.27275	2.78378
3581.34419	2.82091
3579.41562	2.86045
3577.48706	2.90213
3575.55850	2.94473
3573.62993	2.98895
3571.70137	3.03108
3569.77280	3.06946
3567.84424	3.11033
3565.91567	3.16475
3563.98711	3.21928
3562.05854	3.26076
3560.12998	3.30110
3558.20142	3.34661
3556.27285	3.39431
3554.34429	3.43910
3552.41572	3.48333
3550.48716	3.53017
3548.55859	3.57742
3546.63003	3.62368
3544.70146	3.67208
3542.77290	3.72008
3540.84434	3.76491
3538.91577	3.81070
3536.98721	3.85689
3535.05864	3.90217
3533.13008	3.94994
3531.20151	4.00369
3529.27295	4.05740
3527.34438	4.10519
3525.41582	4.14792
3523.48726	4.19112
3521.55869	4.23971
3519.63013	4.29067
3517.70156	4.34171
3515.77300	4.38724
3513.84443	4.42671
3511.91587	4.47241
3509.98730	4.53016
3508.05874	4.58941
3506.13018	4.63731
3504.20161	4.67615
3502.27305	4.71933
3500.34448	4.77014
3498.41592	4.81775
3496.48735	4.86146
3494.55879	4.90721
3492.63022	4.95532
3490.70166	5.00571
3488.77310	5.05647
3486.84453	5.10090
3484.91597	5.14487
3482.98740	5.19326
3481.05884	5.23936
3479.13027	5.28794
3477.20171	5.34213
3475.27314	5.39677
3473.34458	5.44901
3471.41602	5.49016
3469.48745	5.52250
3467.55889	5.56294
3465.63032	5.61452
3463.70176	5.66897
3461.77319	5.71917
3459.84463	5.76778
3457.91606	5.81785
3455.98750	5.86323
3454.05894	5.90710
3452.13037	5.96425
3450.20181	6.02798
3448.27324	6.07888
3446.34468	6.12328
3444.41611	6.16304
3442.48755	6.20404
3440.55898	6.26296
3438.63042	6.32421
3436.70186	6.35370
3434.77329	6.36906
3432.84473	6.41205
3430.91616	6.47468
3428.98760	6.54300
3427.05903	6.61421
3425.13047	6.68049
3423.20190	6.72852
3421.27334	6.77021
3419.34478	6.82801
3417.41621	6.88860
3415.48765	6.92998
3413.55908	6.95833
3411.63052	7.00449
3409.70195	7.06020
3407.77339	7.10055
3405.84482	7.12025
3403.91626	7.13381
3401.98770	7.14657
3400.05913	7.17687
3398.13057	7.24401
3396.20200	7.30723
3394.27344	7.35209
3392.34487	7.38784
3390.41631	7.40902
3388.48774	7.42232
3386.55918	7.46194
3384.63062	7.52730
3382.70205	7.57713
3380.77349	7.59932
3378.84492	7.61341
3376.91636	7.64619
3374.98779	7.68072
3373.05923	7.70264
3371.13066	7.73295
3369.20210	7.79029
3367.27354	7.83476
3365.34497	7.83867
3363.41641	7.84241
3361.48784	7.85113
3359.55928	7.81747
3357.63071	7.80061
3355.70215	7.91122
3353.77358	8.03837
3351.84502	8.02133
3349.91646	7.93827
3347.98789	7.91573
3346.05933	7.95553
3344.13076	8.03232
3342.20220	8.14097
3340.27363	8.22811
3338.34507	8.21954
3336.41650	8.11147
3334.48794	8.04951
3332.55937	8.07848
3330.63081	8.13267
3328.70225	8.17646
3326.77368	8.20927
3324.84512	8.19977
3322.91655	8.13008
3320.98799	8.07567
3319.05942	8.07436
3317.13086	8.16169
3315.20229	8.33161
3313.27373	8.49288
3311.34517	8.45618
3309.41660	8.26104
3307.48804	8.14208
3305.55947	8.09713
3303.63091	8.11405
3301.70234	8.20826
3299.77378	8.26267
3297.84521	8.23524
3295.91665	8.22278
3293.98809	8.17938
3292.05952	8.06396
3290.13096	7.95762
3288.20239	7.95531
3286.27383	8.08818
3284.34526	8.23440
3282.41670	8.30707
3280.48813	8.35165
3278.55957	8.38800
3276.63101	8.33429
3274.70244	8.16032
3272.77388	8.00906
3270.84531	8.03093
3268.91675	8.14946
3266.98818	8.19059
3265.05962	8.27523
3263.13105	8.43740
3261.20249	8.41077
3259.27393	8.24708
3257.34536	8.20772
3255.41680	8.23444
3253.48823	8.21927
3251.55967	8.18445
3249.63110	8.14661
3247.70254	8.17945
3245.77397	8.22867
3243.84541	8.20523
3241.91685	8.20004
3239.98828	8.21525
3238.05972	8.17771
3236.13115	8.15090
3234.20259	8.17100
3232.27402	8.23462
3230.34546	8.32243
3228.41689	8.36876
3226.48833	8.38810
3224.55977	8.34990
3222.63120	8.23858
3220.70264	8.13379
3218.77407	8.11193
3216.84551	8.10885
3214.91694	8.00604
3212.98838	7.88914
3211.05981	7.84861
3209.13125	7.86045
3207.20269	7.85047
3205.27412	7.81262
3203.34556	7.79055
3201.41699	7.77085
3199.48843	7.74317
3197.55986	7.68621
3195.63130	7.60671
3193.70273	7.56173
3191.77417	7.54422
3189.84561	7.53167
3187.91704	7.50780
3185.98848	7.43052
3184.05991	7.35512
3182.13135	7.35435
3180.20278	7.37648
3178.27422	7.35590
3176.34565	7.29323
3174.41709	7.19645
3172.48853	7.09977
3170.55996	7.02843
3168.63140	6.96105
3166.70283	6.88911
3164.77427	6.82174
3162.84570	6.77381
3160.91714	6.73183
3158.98857	6.65373
3157.06001	6.55505
3155.13145	6.47866
3153.20288	6.42720
3151.27432	6.38113
3149.34575	6.31863
3147.41719	6.24023
3145.48862	6.17064
3143.56006	6.11469
3141.63149	6.05993
3139.70293	5.99964
3137.77437	5.93023
3135.84580	5.85530
3133.91724	5.78235
3131.98867	5.70897
3130.06011	5.63598
3128.13154	5.57145
3126.20298	5.51094
3124.27441	5.44409
3122.34585	5.36714
3120.41729	5.28429
3118.48872	5.20599
3116.56016	5.13261
3114.63159	5.05669
3112.70303	4.98740
3110.77446	4.93394
3108.84590	4.88207
3106.91733	4.81795
3104.98877	4.74577
3103.06021	4.67408
3101.13164	4.60658
3099.20308	4.54236
3097.27451	4.47951
3095.34595	4.41991
3093.41738	4.36208
3091.48882	4.30087
3089.56025	4.23520
3087.63169	4.16685
3085.70312	4.09985
3083.77456	4.03748
3081.84600	3.97855
3079.91743	3.91964
3077.98887	3.85968
3076.06030	3.79944
3074.13174	3.73961
3072.20317	3.68157
3070.27461	3.62599
3068.34604	3.57175
3066.41748	3.51704
3064.48892	3.46095
3062.56035	3.40468
3060.63179	3.35056
3058.70322	3.29775
3056.77466	3.24408
3054.84609	3.19095
3052.91753	3.13950
3050.98896	3.08904
3049.06040	3.03947
3047.13184	2.98976
3045.20327	2.93890
3043.27471	2.88856
3041.34614	2.84063
3039.41758	2.79534
3037.48901	2.75133
3035.56045	2.70621
3033.63188	2.65997
3031.70332	2.61410
3029.77476	2.56882
3027.84619	2.52461
3025.91763	2.48171
3023.98906	2.43929
3022.06050	2.39695
3020.13193	2.35528
3018.20337	2.31509
3016.27480	2.27614
3014.34624	2.23793
3012.41768	2.20030
3010.48911	2.16269
3008.56055	2.12500
3006.63198	2.08807
3004.70342	2.05223
3002.77485	2.01693
3000.84629	1.98203
2998.91772	1.94805
2996.98916	1.91549
2995.06060	1.88417
2993.13203	1.85325
2991.20347	1.82228
2989.27490	1.79183
2987.34634	1.76232
2985.41777	1.73346
2983.48921	1.70523
2981.56064	1.67761
2979.63208	1.65007
2977.70352	1.62292
2975.77495	1.59702
2973.84639	1.57178
2971.91782	1.54640
2969.98926	1.52132
2968.06069	1.49693
2966.13213	1.47298
2964.20356	1.44909
2962.27500	1.42521
2960.34644	1.40142
2958.41787	1.37770
2956.48931	1.35383
2954.56074	1.33017
2952.63218	1.30750
2950.70361	1.28506
2948.77505	1.26166
2946.84648	1.23812
2944.91792	1.21591
2942.98936	1.19519
2941.06079	1.17527
2939.13223	1.15546
2937.20366	1.13548
2935.27510	1.11553
2933.34653	1.09584
2931.41797	1.07656
2929.48940	1.05800
2927.56084	1.03985
2925.63228	1.02130
2923.70371	1.00276
2921.77515	0.98499
2919.84658	0.96768
2917.91802	0.95028
2915.98945	0.93251
2914.06089	0.91471
2912.13232	0.89764
2910.20376	0.88143
2908.27520	0.86577
2906.34663	0.85078
2904.41807	0.83632
2902.48950	0.82216
2900.56094	0.80835
2898.63237	0.79467
2896.70381	0.78115
2894.77524	0.76832
2892.84668	0.75603
2890.91812	0.74397
2888.98955	0.73220
2887.06099	0.72068
2885.13242	0.70969
2883.20386	0.69940
2881.27529	0.68926
2879.34673	0.67913
2877.41816	0.66933
2875.48960	0.65963
2873.56104	0.64957
2871.63247	0.63901
2869.70391	0.62804
2867.77534	0.61660
2865.84678	0.60485
2863.91821	0.59330
2861.98965	0.58226
2860.06108	0.57187
2858.13252	0.56216
2856.20396	0.55288
2854.27539	0.54368
2852.34683	0.53441
2850.41826	0.52527
2848.48970	0.51630
2846.56113	0.50754
2844.63257	0.49934
2842.70400	0.49197
2840.77544	0.48512
2838.84687	0.47836
2836.91831	0.47184
2834.98975	0.46576
2833.06118	0.46005
2831.13262	0.45453
2829.20405	0.44875
2827.27549	0.44257
2825.34692	0.43641
2823.41836	0.43036
2821.48979	0.42426
2819.56123	0.41817
2817.63267	0.41219
2815.70410	0.40629
2813.77554	0.40041
2811.84697	0.39461
2809.91841	0.38898
2807.98984	0.38350
2806.06128	0.37809
2804.13271	0.37287
2802.20415	0.36775
2800.27559	0.36255
2798.34702	0.35742
2796.41846	0.35258
2794.48989	0.34788
2792.56133	0.34310
2790.63276	0.33839
2788.70420	0.33403
2786.77563	0.32989
2784.84707	0.32560
2782.91851	0.32113
2780.98994	0.31686
2779.06138	0.31284
2777.13281	0.30889
2775.20425	0.30502
2773.27568	0.30110
2771.34712	0.29701
2769.41855	0.29307
2767.48999	0.28936
2765.56143	0.28580
2763.63286	0.28230
2761.70430	0.27871
2759.77573	0.27520
2757.84717	0.27194
2755.91860	0.26874
2753.99004	0.26550
2752.06147	0.26245
2750.13291	0.25964
2748.20435	0.25677
2746.27578	0.25373
2744.34722	0.25063
2742.41865	0.24762
2740.49009	0.24495
2738.56152	0.24255
2736.63296	0.23995
2734.70439	0.23717
2732.77583	0.23465
2730.84727	0.23235
2728.91870	0.22992
2726.99014	0.22746
2725.06157	0.22519
2723.13301	0.22290
2721.20444	0.22057
2719.27588	0.21847
2717.34731	0.21666
2715.41875	0.21486
2713.49019	0.21301
2711.56162	0.21120
2709.63306	0.20936
2707.70449	0.20740
2705.77593	0.20553
2703.84736	0.20384
2701.91880	0.20225
2699.99023	0.20071
2698.06167	0.19914
2696.13311	0.19754
2694.20454	0.19600
2692.27598	0.19457
2690.34741	0.19326
2688.41885	0.19193
2686.49028	0.19057
2684.56172	0.18932
2682.63315	0.18819
2680.70459	0.18711
2678.77603	0.18609
2676.84746	0.18507
2674.91890	0.18397
2672.99033	0.18272
2671.06177	0.18141
2669.13320	0.18023
2667.20464	0.17921
2665.27607	0.17827
2663.34751	0.17731
2661.41895	0.17629
2659.49038	0.17536
2657.56182	0.17466
2655.63325	0.17403
2653.70469	0.17332
2651.77612	0.17246
2649.84756	0.17160
2647.91899	0.17095
2645.99043	0.17041
2644.06187	0.16980
2642.13330	0.16919
2640.20474	0.16870
2638.27617	0.16821
2636.34761	0.16768
2634.41904	0.16713
2632.49048	0.16653
2630.56191	0.16600
2628.63335	0.16565
2626.70479	0.16533
2624.77622	0.16486
2622.84766	0.16431
2620.91909	0.16389
2618.99053	0.16372
2617.06196	0.16374
2615.13340	0.16374
2613.20483	0.16355
2611.27627	0.16323
2609.34771	0.16294
2607.41914	0.16272
2605.49058	0.16236
2603.56201	0.16195
2601.63345	0.16180
2599.70488	0.16192
2597.77632	0.16199
2595.84775	0.16195
2593.91919	0.16199
2591.99062	0.16210
2590.06206	0.16217
2588.13350	0.16231
2586.20493	0.16251
2584.27637	0.16265
2582.34780	0.16278
2580.41924	0.16299
2578.49067	0.16321
2576.56211	0.16333
2574.63354	0.16356
2572.70498	0.16400
2570.77642	0.16444
2568.84785	0.16476
2566.91929	0.16510
2564.99072	0.16540
2563.06216	0.16563
2561.13359	0.16592
2559.20503	0.16632
2557.27646	0.16682
2555.34790	0.16732
2553.41934	0.16778
2551.49077	0.16833
2549.56221	0.16897
2547.63364	0.16952
2545.70508	0.17002
2543.77651	0.17053
2541.84795	0.17105
2539.91938	0.17164
2537.99082	0.17223
2536.06226	0.17284
2534.13369	0.17345
2532.20513	0.17404
2530.27656	0.17466
2528.34800	0.17533
2526.41943	0.17602
2524.49087	0.17671
2522.56230	0.17749
2520.63374	0.17836
2518.70518	0.17910
2516.77661	0.17972
2514.84805	0.18038
2512.91948	0.18110
2510.99092	0.18187
2509.06235	0.18269
2507.13379	0.18345
2505.20522	0.18411
2503.27666	0.18485
2501.34810	0.18571
2499.41953	0.18649
2497.49097	0.18720
2495.56240	0.18800
2493.63384	0.18893
2491.70527	0.18981
2489.77671	0.19055
2487.84814	0.19134
2485.91958	0.19224
2483.99102	0.19319
2482.06245	0.19414
2480.13389	0.19500
2478.20532	0.19574
2476.27676	0.19649
2474.34819	0.19733
2472.41963	0.19825
2470.49106	0.19918
2468.56250	0.20007
2466.63394	0.20090
2464.70537	0.20171
2462.77681	0.20262
2460.84824	0.20365
2458.91968	0.20464
2456.99111	0.20550
2455.06255	0.20632
2453.13398	0.20724
2451.20542	0.20829
2449.27686	0.20932
2447.34829	0.21021
2445.41973	0.21101
2443.49116	0.21201
2441.56260	0.21322
2439.63403	0.21436
2437.70547	0.21531
2435.77690	0.21618
2433.84834	0.21716
2431.91978	0.21829
2429.99121	0.21940
2428.06265	0.22042
2426.13408	0.22142
2424.20552	0.22238
2422.27695	0.22337
2420.34839	0.22441
2418.41982	0.22547
2416.49126	0.22658
2414.56270	0.22775
2412.63413	0.22890
2410.70557	0.23002
2408.77700	0.23113
2406.84844	0.23226
2404.91987	0.23348
2402.99131	0.23474
2401.06274	0.23600
2399.13418	0.23725
2397.20562	0.23846
2395.27705	0.23961
2393.34849	0.24077
2391.41992	0.24203
2389.49136	0.24336
2387.56279	0.24468
2385.63423	0.24605
2383.70566	0.24762
2381.77710	0.24942
2379.84854	0.25131
2377.91997	0.25339
2375.99141	0.25579
2374.06284	0.25830
2372.13428	0.26084
2370.20571	0.26372
2368.27715	0.26721
2366.34858	0.27090
2364.42002	0.27329
2362.49146	0.27397
2360.56289	0.27456
2358.63433	0.27600
2356.70576	0.27739
2354.77720	0.27840
2352.84863	0.27943
2350.92007	0.27983
2348.99150	0.27979
2347.06294	0.28037
2345.13437	0.28262
2343.20581	0.28626
2341.27725	0.28853
2339.34868	0.28876
2337.42012	0.28916
2335.49155	0.29088
2333.56299	0.29281
2331.63442	0.29430
2329.70586	0.29598
2327.77729	0.29790
2325.84873	0.29932
2323.92017	0.30035
2321.99160	0.30162
2320.06304	0.30301
2318.13447	0.30419
2316.20591	0.30539
2314.27734	0.30682
2312.34878	0.30831
2310.42021	0.30980
2308.49165	0.31131
2306.56309	0.31275
2304.63452	0.31413
2302.70596	0.31561
2300.77739	0.31723
2298.84883	0.31889
2296.92026	0.32045
2294.99170	0.32202
2293.06313	0.32373
2291.13457	0.32557
2289.20601	0.32743
2287.27744	0.32915
2285.34888	0.33078
2283.42031	0.33264
2281.49175	0.33474
2279.56318	0.33683
2277.63462	0.33886
2275.70605	0.34099
2273.77749	0.34315
2271.84893	0.34517
2269.92036	0.34710
2267.99180	0.34915
2266.06323	0.35133
2264.13467	0.35356
2262.20610	0.35574
2260.27754	0.35783
2258.34897	0.35993
2256.42041	0.36204
2254.49185	0.36422
2252.56328	0.36648
2250.63472	0.36867
2248.70615	0.37075
2246.77759	0.37286
2244.84902	0.37504
2242.92046	0.37723
2240.99189	0.37947
2239.06333	0.38171
2237.13477	0.38388
2235.20620	0.38615
2233.27764	0.38850
2231.34907	0.39073
2229.42051	0.39288
2227.49194	0.39512
2225.56338	0.39738
2223.63481	0.39953
2221.70625	0.40159
2219.77769	0.40372
2217.84912	0.40591
2215.92056	0.40819
2213.99199	0.41049
2212.06343	0.41269
2210.13486	0.41483
2208.20630	0.41696
2206.27773	0.41908
2204.34917	0.42116
2202.42061	0.42322
2200.49204	0.42520
2198.56348	0.42715
2196.63491	0.42918
2194.70635	0.43122
2192.77778	0.43313
2190.84922	0.43496
2188.92065	0.43687
2186.99209	0.43876
2185.06353	0.44043
2183.13496	0.44203
2181.20640	0.44377
2179.27783	0.44551
2177.34927	0.44713
2175.42070	0.44863
2173.49214	0.45009
2171.56357	0.45160
2169.63501	0.45315
2167.70645	0.45455
2165.77788	0.45582
2163.84932	0.45705
2161.92075	0.45821
2159.99219	0.45931
2158.06362	0.46042
2156.13506	0.46147
2154.20649	0.46226
2152.27793	0.46286
2150.34937	0.46351
2148.42080	0.46420
2146.49224	0.46486
2144.56367	0.46538
2142.63511	0.46575
2140.70654	0.46605
2138.77798	0.46639
2136.84941	0.46667
2134.92085	0.46668
2132.99229	0.46653
2131.06372	0.46647
2129.13516	0.46644
2127.20659	0.46624
2125.27803	0.46585
2123.34946	0.46537
2121.42090	0.46489
2119.49233	0.46435
2117.56377	0.46369
2115.63521	0.46291
2113.70664	0.46209
2111.77808	0.46127
2109.84951	0.46043
2107.92095	0.45952
2105.99238	0.45840
2104.06382	0.45708
2102.13525	0.45574
2100.20669	0.45443
2098.27812	0.45303
2096.34956	0.45149
2094.42100	0.45000
2092.49243	0.44854
2090.56387	0.44693
2088.63530	0.44516
2086.70674	0.44332
2084.77817	0.44140
2082.84961	0.43948
2080.92104	0.43756
2078.99248	0.43555
2077.06392	0.43343
2075.13535	0.43128
2073.20679	0.42906
2071.27822	0.42674
2069.34966	0.42437
2067.42109	0.42204
2065.49253	0.41979
2063.56396	0.41746
2061.63540	0.41493
2059.70684	0.41227
2057.77827	0.40966
2055.84971	0.40712
2053.92114	0.40455
2051.99258	0.40196
2050.06401	0.39934
2048.13545	0.39661
2046.20688	0.39381
2044.27832	0.39115
2042.34976	0.38864
2040.42119	0.38604
2038.49263	0.38330
2036.56406	0.38056
2034.63550	0.37774
2032.70693	0.37480
2030.77837	0.37193
2028.84980	0.36911
2026.92124	0.36627
2024.99268	0.36343
2023.06411	0.36064
2021.13555	0.35795
2019.20698	0.35537
2017.27842	0.35272
2015.34985	0.34981
2013.42129	0.34682
2011.49272	0.34394
2009.56416	0.34116
2007.63560	0.33847
2005.70703	0.33577
2003.77847	0.33294
2001.84990	0.33012
1999.92134	0.32747
1997.99277	0.32488
1996.06421	0.32234
1994.13564	0.32009
1992.20708	0.31796
1990.27852	0.31545
1988.34995	0.31264
1986.42139	0.30986
1984.49282	0.30721
1982.56426	0.30475
1980.63569	0.30244
1978.70713	0.30020
1976.77856	0.29798
1974.85000	0.29579
1972.92144	0.29362
1970.99287	0.29153
1969.06431	0.28952
1967.13574	0.28747
1965.20718	0.28525
1963.27861	0.28311
1961.35005	0.28116
1959.42148	0.27923
1957.49292	0.27731
1955.56436	0.27547
1953.63579	0.27372
1951.70723	0.27200
1949.77866	0.27028
1947.85010	0.26867
1945.92153	0.26726
1943.99297	0.26596
1942.06440	0.26454
1940.13584	0.26281
1938.20728	0.26108
1936.27871	0.25957
1934.35015	0.25817
1932.42158	0.25688
1930.49302	0.25569
1928.56445	0.25456
1926.63589	0.25353
1924.70732	0.25276
1922.77876	0.25206
1920.85020	0.25111
1918.92163	0.25016
1916.99307	0.24918
1915.06450	0.24793
1913.13594	0.24683
1911.20737	0.24620
1909.27881	0.24572
1907.35024	0.24501
1905.42168	0.24414
1903.49312	0.24341
1901.56455	0.24284
1899.63599	0.24228
1897.70742	0.24182
1895.77886	0.24151
1893.85029	0.24117
1891.92173	0.24081
1889.99316	0.24073
1888.06460	0.24054
1886.13604	0.24006
1884.20747	0.23966
1882.27891	0.23931
1880.35034	0.23904
1878.42178	0.23891
1876.49321	0.23885
1874.56465	0.23877
1872.63608	0.23896
1870.70752	0.23974
1868.77896	0.24089
1866.85039	0.24114
1864.92183	0.24047
1862.99326	0.24008
1861.06470	0.24020
1859.13613	0.24052
1857.20757	0.24081
1855.27900	0.24119
1853.35044	0.24166
1851.42187	0.24223
1849.49331	0.24293
1847.56475	0.24391
1845.63618	0.24516
1843.70762	0.24633
1841.77905	0.24673
1839.85049	0.24672
1837.92192	0.24728
1835.99336	0.24818
1834.06479	0.24911
1832.13623	0.25027
1830.20767	0.25214
1828.27910	0.25391
1826.35054	0.25483
1824.42197	0.25582
1822.49341	0.25678
1820.56484	0.25772
1818.63628	0.25899
1816.70771	0.26064
1814.77915	0.26233
1812.85059	0.26417
1810.92202	0.26642
1808.99346	0.26861
1807.06489	0.27038
1805.13633	0.27207
1803.20776	0.27431
1801.27920	0.27718
1799.35063	0.28021
1797.42207	0.28267
1795.49351	0.28508
1793.56494	0.28824
1791.63638	0.29216
1789.70781	0.29511
1787.77925	0.29705
1785.85068	0.29998
1783.92212	0.30384
1781.99355	0.30794
1780.06499	0.31216
1778.13643	0.31632
1776.20786	0.32034
1774.27930	0.32510
1772.35073	0.33166
1770.42217	0.33807
1768.49360	0.34273
1766.56504	0.34730
1764.63647	0.35238
1762.70791	0.35838
1760.77935	0.36602
1758.85078	0.37312
1756.92222	0.38039
1754.99365	0.38829
1753.06509	0.39541
1751.13652	0.40417
1749.20796	0.41539
1747.27939	0.42592
1745.35083	0.43472
1743.42227	0.44403
1741.49370	0.45438
1739.56514	0.46657
1737.63657	0.47873
1735.70801	0.48941
1733.77944	0.50589
1731.85088	0.52547
1729.92231	0.54036
1727.99375	0.55555
1726.06519	0.57218
1724.13662	0.59067
1722.20806	0.61074
1720.27949	0.62937
1718.35093	0.65171
1716.42236	0.68503
1714.49380	0.71551
1712.56523	0.73921
1710.63667	0.76247
1708.70811	0.78802
1706.77954	0.81761
1704.85098	0.85330
1702.92241	0.88493
1700.99385	0.91576
1699.06528	0.96237
1697.13672	1.00547
1695.20815	1.04900
1693.27959	1.09101
1691.35103	1.12507
1689.42246	1.16520
1687.49390	1.20796
1685.56533	1.24927
1683.63677	1.31482
1681.70820	1.38320
1679.77964	1.42487
1677.85107	1.46450
1675.92251	1.51042
1673.99395	1.56820
1672.06538	1.62065
1670.13682	1.67299
1668.20825	1.74174
1666.27969	1.79636
1664.35112	1.84329
1662.42256	1.90482
1660.49399	1.97600
1658.56543	2.02982
1656.63687	2.07248
1654.70830	2.11268
1652.77974	2.17861
1650.85117	2.23722
1648.92261	2.25249
1646.99404	2.27751
1645.06548	2.30568
1643.13691	2.32134
1641.20835	2.32869
1639.27979	2.33796
1637.35122	2.34377
1635.42266	2.34051
1633.49409	2.33262
1631.56553	2.32103
1629.63696	2.30523
1627.70840	2.27623
1625.77983	2.24088
1623.85127	2.19460
1621.92271	2.14137
1619.99414	2.09721
1618.06558	2.05273
1616.13701	1.98589
1614.20845	1.91926
1612.27988	1.87058
1610.35132	1.81939
1608.42275	1.76323
1606.49419	1.70786
1604.56562	1.65755
1602.63706	1.60918
1600.70850	1.56169
1598.77993	1.51808
1596.85137	1.47725
1594.92280	1.43734
1592.99424	1.39863
1591.06567	1.36353
1589.13711	1.33105
1587.20854	1.30120
1585.27998	1.27403
1583.35142	1.24919
1581.42285	1.22685
1579.49429	1.20793
1577.56572	1.19159
1575.63716	1.17183
1573.70859	1.15368
1571.78003	1.14224
1569.85146	1.13214
1567.92290	1.12151
1565.99434	1.11339
1564.06577	1.10749
1562.13721	1.10324
1560.20864	1.10195
1558.28008	1.10580
1556.35151	1.10933
1554.42295	1.10979
1552.49438	1.11055
1550.56582	1.11039
1548.63726	1.10780
1546.70869	1.10265
1544.78013	1.09479
1542.85156	1.08401
1540.92300	1.06639
1538.99443	1.03516
1537.06587	1.01214
1535.13730	0.99731
1533.20874	0.97735
1531.28018	0.95543
1529.35161	0.93981
1527.42305	0.92558
1525.49448	0.91068
1523.56592	0.89801
1521.63735	0.88636
1519.70879	0.87436
1517.78022	0.86381
1515.85166	0.85156
1513.92310	0.83899
1511.99453	0.82827
1510.06597	0.81886
1508.13740	0.81016
1506.20884	0.79531
1504.28027	0.78103
1502.35171	0.77306
1500.42314	0.76682
1498.49458	0.76060
1496.56602	0.75294
1494.63745	0.74486
1492.70889	0.73892
1490.78032	0.73435
1488.85176	0.72904
1486.92319	0.72316
1484.99463	0.71822
1483.06606	0.71469
1481.13750	0.71226
1479.20894	0.71061
1477.28037	0.71001
1475.35181	0.71042
1473.42324	0.71117
1471.49468	0.71059
1469.56611	0.70824
1467.63755	0.70582
1465.70898	0.70412
1463.78042	0.70278
1461.85186	0.70179
1459.92329	0.70189
1457.99473	0.70307
1456.06616	0.70273
1454.13760	0.69951
1452.20903	0.69613
1450.28047	0.69303
1448.35190	0.69005
1446.42334	0.68694
1444.49478	0.68403
1442.56621	0.68141
1440.63765	0.67877
1438.70908	0.67614
1436.78052	0.67289
1434.85195	0.66894
1432.92339	0.66594
1430.99482	0.66422
1429.06626	0.66326
1427.13770	0.66283
1425.20913	0.66317
1423.28057	0.66415
1421.35200	0.66527
1419.42344	0.66651
1417.49487	0.66685
1415.56631	0.66552
1413.63774	0.66419
1411.70918	0.66374
1409.78062	0.66425
1407.85205	0.66539
1405.92349	0.66702
1403.99492	0.66858
1402.06636	0.66906
1400.13779	0.66863
1398.20923	0.66725
1396.28066	0.66464
1394.35210	0.66061
1392.42354	0.65573
1390.49497	0.65136
1388.56641	0.64741
1386.63784	0.64271
1384.70928	0.63723
1382.78071	0.63195
1380.85215	0.62714
1378.92358	0.62309
1376.99502	0.62020
1375.06646	0.61849
1373.13789	0.61726
1371.20933	0.61617
1369.28076	0.61536
1367.35220	0.61435
1365.42363	0.61294
1363.49507	0.61151
1361.56650	0.60999
1359.63794	0.60824
1357.70937	0.60669
1355.78081	0.60548
1353.85225	0.60454
1351.92368	0.60369
1349.99512	0.60281
1348.06655	0.60195
1346.13799	0.60102
1344.20942	0.59998
1342.28086	0.59919
1340.35229	0.59882
1338.42373	0.59833
1336.49517	0.59747
1334.56660	0.59673
1332.63804	0.59641
1330.70947	0.59654
1328.78091	0.59699
1326.85234	0.59763
1324.92378	0.59838
1322.99521	0.59926
1321.06665	0.60023
1319.13809	0.60110
1317.20952	0.60147
1315.28096	0.60141
1313.35239	0.60119
1311.42383	0.60064
1309.49526	0.59975
1307.56670	0.59888
1305.63813	0.59825
1303.70957	0.59773
1301.78101	0.59711
1299.85244	0.59612
1297.92388	0.59473
1295.99531	0.59324
1294.06675	0.59186
1292.13818	0.59059
1290.20962	0.58936
1288.28105	0.58810
1286.35249	0.58669
1284.42393	0.58524
1282.49536	0.58388
1280.56680	0.58257
1278.63823	0.58118
1276.70967	0.57979
1274.78110	0.57869
1272.85254	0.57786
1270.92397	0.57706
1268.99541	0.57627
1267.06685	0.57547
1265.13828	0.57448
1263.20972	0.57356
1261.28115	0.57305
1259.35259	0.57257
1257.42402	0.57183
1255.49546	0.57118
1253.56689	0.57095
1251.63833	0.57103
1249.70977	0.57122
1247.78120	0.57145
1245.85264	0.57148
1243.92407	0.57105
1241.99551	0.57010
1240.06694	0.56875
1238.13838	0.56714
1236.20981	0.56510
1234.28125	0.56261
1232.35269	0.56021
1230.42412	0.55806
1228.49556	0.55595
1226.56699	0.55396
1224.63843	0.55220
1222.70986	0.55052
1220.78130	0.54892
1218.85273	0.54751
1216.92417	0.54619
1214.99561	0.54497
1213.06704	0.54398
1211.13848	0.54324
1209.20991	0.54257
1207.28135	0.54179
1205.35278	0.54091
1203.42422	0.54010
1201.49565	0.53921
1199.56709	0.53809
1197.63853	0.53698
1195.70996	0.53621
1193.78140	0.53567
1191.85283	0.53510
1189.92427	0.53461
1187.99570	0.53432
1186.06714	0.53403
1184.13857	0.53381
1182.21001	0.53415
1180.28145	0.53523
1178.35288	0.53669
1176.42432	0.53813
1174.49575	0.53933
1172.56719	0.54004
1170.63862	0.54036
1168.71006	0.54064
1166.78149	0.54084
1164.85293	0.54072
1162.92437	0.54047
1160.99580	0.54027
1159.06724	0.53990
1157.13867	0.53928
1155.21011	0.53843
1153.28154	0.53714
1151.35298	0.53524
1149.42441	0.53297
1147.49585	0.53049
1145.56729	0.52781
1143.63872	0.52506
1141.71016	0.52261
1139.78159	0.52059
1137.85303	0.51889
1135.92446	0.51762
1133.99590	0.51702
1132.06733	0.51694
1130.13877	0.51681
1128.21021	0.51625
1126.28164	0.51553
1124.35308	0.51490
1122.42451	0.51436
1120.49595	0.51400
1118.56738	0.51391
1116.63882	0.51400
1114.71025	0.51418
1112.78169	0.51445
1110.85312	0.51486
1108.92456	0.51562
1106.99600	0.51680
1105.06743	0.51806
1103.13887	0.51911
1101.21030	0.52009
1099.28174	0.52145
1097.35317	0.52357
1095.42461	0.52659
1093.49604	0.53026
1091.56748	0.53439
1089.63892	0.53945
1087.71035	0.54606
1085.78179	0.55377
1083.85322	0.56137
1081.92466	0.56801
1079.99609	0.57300
1078.06753	0.57565
1076.13896	0.57572
1074.21040	0.57313
1072.28184	0.56827
1070.35327	0.56202
1068.42471	0.55519
1066.49614	0.54845
1064.56758	0.54215
1062.63901	0.53636
1060.71045	0.53127
1058.78188	0.52697
1056.85332	0.52299
1054.92476	0.51918
1052.99619	0.51603
1051.06763	0.51370
1049.13906	0.51186
1047.21050	0.51038
1045.28193	0.50944
1043.35337	0.50883
1041.42480	0.50815
1039.49624	0.50738
1037.56768	0.50674
1035.63911	0.50641
1033.71055	0.50603
1031.78198	0.50505
1029.85342	0.50365
1027.92485	0.50236
1025.99629	0.50132
1024.06772	0.50070
1022.13916	0.50050
1020.21060	0.50039
1018.28203	0.50044
1016.35347	0.50078
1014.42490	0.50102
1012.49634	0.50104
1010.56777	0.50125
1008.63921	0.50179
1006.71064	0.50264
1004.78208	0.50398
1002.85352	0.50588
1000.92495	0.50839
998.99639	0.51159
997.06782	0.51539
995.13926	0.51968
993.21069	0.52394
991.28213	0.52737
989.35356	0.52968
987.42500	0.53099
985.49644	0.53164
983.56787	0.53194
981.63931	0.53213
979.71074	0.53275
977.78218	0.53412
975.85361	0.53608
973.92505	0.53857
971.99648	0.54150
970.06792	0.54461
968.13936	0.54795
966.21079	0.55171
964.28223	0.55601
962.35366	0.56090
960.42510	0.56620
958.49653	0.57166
956.56797	0.57715
954.63940	0.58275
952.71084	0.58879
950.78228	0.59538
948.85371	0.60208
946.92515	0.60839
944.99658	0.61431
943.06802	0.62032
941.13945	0.62650
939.21089	0.63247
937.28232	0.63836
935.35376	0.64451
933.42520	0.65067
931.49663	0.65632
929.56807	0.66167
927.63950	0.66730
925.71094	0.67289
923.78237	0.67845
921.85381	0.68488
919.92524	0.69199
917.99668	0.69893
916.06812	0.70578
914.13955	0.71285
912.21099	0.72013
910.28242	0.72797
908.35386	0.73658
906.42529	0.74590
904.49673	0.75597
902.56816	0.76593
900.63960	0.77492
898.71104	0.78424
896.78247	0.79467
894.85391	0.80470
892.92534	0.81463
890.99678	0.82579
889.06821	0.83708
887.13965	0.84764
885.21108	0.85809
883.28252	0.86852
881.35396	0.87947
879.42539	0.89119
877.49683	0.90214
875.56826	0.91262
873.63970	0.92393
871.71113	0.93583
869.78257	0.94796
867.85400	0.95966
865.92544	0.97083
863.99687	0.98264
862.06831	0.99480
860.13975	1.00652
858.21118	1.01857
856.28262	1.03079
854.35405	1.04263
852.42549	1.05422
850.49692	1.06518
848.56836	1.07694
846.63979	1.09141
844.71123	1.10503
842.78267	1.11305
840.85410	1.11883
838.92554	1.12859
836.99697	1.14271
835.06841	1.15623
833.13984	1.16669
831.21128	1.17768
829.28271	1.19172
827.35415	1.20652
825.42559	1.21833
823.49702	1.22681
821.56846	1.23552
819.63989	1.24648
817.71133	1.25953
815.78276	1.27345
813.85420	1.28400
811.92563	1.29956
809.99707	1.32980
808.06851	1.35638
806.13994	1.36125
804.21138	1.35757
802.28281	1.37445
800.35425	1.40763
798.42568	1.41676
796.49712	1.40530
794.56855	1.41779
792.63999	1.46363
790.71143	1.49772
788.78286	1.50410
786.85430	1.52486
784.92573	1.55321
782.99717	1.53065
781.06860	1.49578
779.14004	1.46041
777.21147	1.39925
775.28291	1.38469
773.35435	1.43110
771.42578	1.45825
769.49722	1.45927
767.56865	1.53594
765.64009	1.76043
763.71152	2.49578
761.78296	4.57070
759.85439	4.55913
757.92583	4.54755
755.99727	3.13424
754.06870	1.95255
752.14014	1.76695
750.21157	1.41255
748.28301	1.23337
746.35444	1.21206
744.42588	1.31210
742.49731	1.41374
740.56875	1.22523
738.64019	1.11206
736.71162	1.32821
734.78306	1.49056
732.85449	0.95074
730.92593	0.73360
728.99736	0.73499
727.06880	0.94485
725.14023	1.02694
723.21167	0.78541
721.28311	0.87476
719.35454	4.31613
717.42598	4.30456
715.49741	0.73192
713.56885	0.21436
711.64028	0.07338
709.71172	-0.08195
707.78315	-0.49786
705.85459	-0.49417
703.92603	0.28241
701.99746	0.80456
700.06890	0.41003
698.14033	0.29537
696.21177	0.45851
694.28320	0.63246
692.35464	0.46957
690.42607	0.23337
688.49751	0.08716
686.56895	0.11297
684.64038	0.32287
682.71182	0.56536
680.78325	0.54485
678.85469	0.51910
676.92612	0.75798
674.99756	4.04999
673.06899	4.03841
671.14043	4.02684
669.21187	4.01527
667.28330	0.87252
665.35474	0.71703
663.42617	0.57037
661.49761	0.51151
659.56904	0.53858
657.64048	0.49477
655.71191	0.47052
653.78335	0.52550
651.85479	0.37241
649.92622	0.16739
647.99766	0.12481
646.06909	0.19382
644.14053	0.29938
642.21196	0.38167
640.28340	0.40913
638.35483	0.42188
636.42627	0.45044
634.49771	0.48452
632.56914	0.51487
630.64058	0.55516
628.71201	0.50264
626.78345	0.39579
624.85488	0.34468
622.92632	0.28708
620.99775	0.20961
619.06919	0.20116
617.14062	0.33649
615.21206	0.55504
613.28350	0.79417
611.35493	1.01888
609.42637	0.57021
607.49780	0.29094
605.56924	0.21691
603.64067	0.28702
601.71211	0.41220
599.78354	0.59250
597.85498	0.92942
595.92642	3.57556
593.99785	0.82449
592.06929	0.35155
590.14072	0.20766
588.21216	0.19952
586.28359	0.22747
584.35503	0.24677
582.42646	0.24239
580.49790	0.21602
578.56934	0.20850
576.64077	0.24309
574.71221	0.31970
572.78364	0.33816
570.85508	0.24039
568.92651	0.20980
566.99795	0.28774
565.06938	0.33546
563.14082	0.23205
561.21226	0.20246
559.28369	0.26977
557.35513	0.28536
555.42656	0.19994
553.49800	0.15872
551.56943	0.17329
549.64087	0.16831
547.71230	0.15169
545.78374	0.17852
543.85518	0.21420
541.92661	0.25041
539.99805	0.38067
538.06948	0.52572
536.14092	0.37496
534.21235	0.25429
532.28379	0.28245
530.35522	0.38593
528.42666	0.40234
526.49810	0.40671
524.56953	0.57226
522.64097	0.54967
520.71240	0.37562
518.78384	0.29186
516.85527	0.25187
514.92671	0.27392
512.99814	0.35453
511.06958	0.30115
509.14102	0.16084
507.21245	0.14368
505.28389	0.18733
503.35532	0.23109
501.42676	0.24767
499.49819	0.21915
