3997.91411	0.07151
3995.98555	0.07161
3994.05698	0.07203
3992.12842	0.07235
3990.19985	0.07239
3988.27129	0.07255
3986.34272	0.07288
3984.41416	0.07319
3982.48560	0.07357
3980.55703	0.07384
3978.62847	0.07394
3976.69990	0.07424
3974.77134	0.07454
3972.84277	0.07451
3970.91421	0.07442
3968.98564	0.07459
3967.05708	0.07488
3965.12852	0.07491
3963.19995	0.07485
3961.27139	0.07490
3959.34282	0.07504
3957.41426	0.07533
3955.48569	0.07571
3953.55713	0.07595
3951.62856	0.07589
3949.70000	0.07583
3947.77144	0.07601
3945.84287	0.07601
3943.91431	0.07577
3941.98574	0.07574
3940.05718	0.07558
3938.12861	0.07516
3936.20005	0.07510
3934.27148	0.07547
3932.34292	0.07600
3930.41436	0.07623
3928.48579	0.07594
3926.55723	0.07573
3924.62866	0.07588
3922.70010	0.07588
3920.77153	0.07558
3918.84297	0.07545
3916.91440	0.07554
3914.98584	0.07548
3913.05728	0.07511
3911.12871	0.07477
3909.20015	0.07466
3907.27158	0.07450
3905.34302	0.07414
3903.41445	0.07412
3901.48589	0.07478
3899.55732	0.07520
3897.62876	0.07510
3895.70020	0.07512
3893.77163	0.07552
3891.84307	0.07608
3889.91450	0.07604
3887.98594	0.07512
3886.05737	0.07454
3884.12881	0.07483
3882.20024	0.07530
3880.27168	0.07572
3878.34312	0.07586
3876.41455	0.07550
3874.48599	0.07545
3872.55742	0.07607
3870.62886	0.07692
3868.70029	0.07784
3866.77173	0.07837
3864.84316	0.07868
3862.91460	0.07902
3860.98604	0.07874
3859.05747	0.07808
3857.12891	0.07767
3855.20034	0.07791
3853.27178	0.07979
3851.34321	0.08217
3849.41465	0.08193
3847.48608	0.08119
3845.55752	0.08113
3843.62896	0.08161
3841.70039	0.08235
3839.77183	0.08327
3837.84326	0.08433
3835.91470	0.08519
3833.98613	0.08552
3832.05757	0.08564
3830.12900	0.08608
3828.20044	0.08689
3826.27187	0.08799
3824.34331	0.08917
3822.41475	0.09030
3820.48618	0.09193
3818.55762	0.09316
3816.62905	0.09349
3814.70049	0.09393
3812.77192	0.09425
3810.84336	0.09447
3808.91479	0.09503
3806.98623	0.09653
3805.05767	0.09847
3803.12910	0.09933
3801.20054	0.10027
3799.27197	0.10205
3797.34341	0.10329
3795.41484	0.10451
3793.48628	0.10557
3791.55771	0.10616
3789.62915	0.10704
3787.70059	0.10832
3785.77202	0.10977
3783.84346	0.11153
3781.91489	0.11317
3779.98633	0.11444
3778.05776	0.11576
3776.12920	0.11709
3774.20063	0.11847
3772.27207	0.12016
3770.34351	0.12242
3768.41494	0.12516
3766.48638	0.12734
3764.55781	0.12903
3762.62925	0.13057
3760.70068	0.13216
3758.77212	0.13454
3756.84355	0.13742
3754.91499	0.13953
3752.98643	0.14113
3751.05786	0.14381
3749.12930	0.14812
3747.20073	0.15131
3745.27217	0.15367
3743.34360	0.15736
3741.41504	0.16100
3739.48647	0.16326
3737.55791	0.16556
3735.62935	0.16963
3733.70078	0.17584
3731.77222	0.18129
3729.84365	0.18520
3727.91509	0.18891
3725.98652	0.19387
3724.05796	0.20051
3722.12939	0.20778
3720.20083	0.21547
3718.27227	0.22365
3716.34370	0.23192
3714.41514	0.23960
3712.48657	0.24809
3710.55801	0.26071
3708.62944	0.27548
3706.70088	0.28750
3704.77231	0.29836
3702.84375	0.31111
3700.91519	0.32817
3698.98662	0.34721
3697.05806	0.36539
3695.12949	0.38448
3693.20093	0.40422
3691.27236	0.42524
3689.34380	0.45374
3687.41523	0.49056
3685.48667	0.52237
3683.55811	0.54905
3681.62954	0.57700
3679.70098	0.60785
3677.77241	0.64039
3675.84385	0.68000
3673.91528	0.73491
3671.98672	0.77886
3670.05815	0.81749
3668.12959	0.87231
3666.20103	0.92186
3664.27246	0.96250
3662.34390	1.00594
3660.41533	1.05279
3658.48677	1.09896
3656.55820	1.14819
3654.62964	1.20368
3652.70107	1.24966
3650.77251	1.28824
3648.84395	1.34392
3646.91538	1.41663
3644.98682	1.46860
3643.05825	1.50691
3641.12969	1.54653
3639.20112	1.59129
3637.27256	1.63655
3635.34399	1.67981
3633.41543	1.72247
3631.48687	1.76232
3629.55830	1.80316
3627.62974	1.85887
3625.70117	1.91101
3623.77261	1.94483
3621.84404	1.97734
3619.91548	2.01574
3617.98691	2.06241
3616.05835	2.10636
3614.12979	2.14361
3612.20122	2.18407
3610.27266	2.22330
3608.34409	2.26092
3606.41553	2.30190
3604.48696	2.34158
3602.55840	2.37754
3600.62983	2.41576
3598.70127	2.45670
3596.77271	2.49586
3594.84414	2.53573
3592.91558	2.57866
3590.98701	2.61885
3589.05845	2.65469
3587.12988	2.69821
3585.20132	2.74713
3583.27275	2.78757
3581.34419	2.82624
3579.41562	2.86910
3577.48706	2.91398
3575.55850	2.95916
3573.62993	3.00376
3571.70137	3.04426
3569.77280	3.08173
3567.84424	3.12351
3565.91567	3.17848
3563.98711	3.23120
3562.05854	3.27113
3560.12998	3.31069
3558.20142	3.35462
3556.27285	3.40016
3554.34429	3.44459
3552.41572	3.49120
3550.48716	3.53952
3548.55859	3.58595
3546.63003	3.63263
3544.70146	3.68259
3542.77290	3.73034
3540.84434	3.77331
3538.91577	3.81721
3536.98721	3.86208
3535.05864	3.90836
3533.13008	3.95879
3531.20151	4.01078
3529.27295	4.05863
3527.34438	4.10356
3525.41582	4.14869
3523.48726	4.19619
3521.55869	4.24723
3519.63013	4.29794
3517.70156	4.34781
3515.77300	4.39499
3513.84443	4.43955
3511.91587	4.48684
3509.98730	4.53902
3508.05874	4.59300
3506.13018	4.64180
3504.20161	4.68235
3502.27305	4.72622
3500.34448	4.77925
3498.41592	4.82868
3496.48735	4.87734
3494.55879	4.92967
3492.63022	4.97542
3490.70166	5.01539
3488.77310	5.05693
3486.84453	5.10234
3484.91597	5.15392
3482.98740	5.21085
3481.05884	5.26570
3479.13027	5.31015
3477.20171	5.35354
3475.27314	5.40813
3473.34458	5.46665
3471.41602	5.51343
3469.48745	5.54773
3467.55889	5.58980
3465.63032	5.64541
3463.70176	5.69785
3461.77319	5.74223
3459.84463	5.79018
3457.91606	5.84580
3455.98750	5.90181
3454.05894	5.95163
3452.13037	6.00195
3450.20181	6.05704
3448.27324	6.10049
3446.34468	6.13327
3444.41611	6.18116
3442.48755	6.25486
3440.55898	6.32307
3438.63042	6.36091
3436.70186	6.38986
3434.77329	6.42952
3432.84473	6.47982
3430.91616	6.54011
3428.98760	6.61439
3427.05903	6.68722
3425.13047	6.72803
3423.20190	6.74420
3421.27334	6.78996
3419.34478	6.85653
3417.41621	6.90239
3415.48765	6.94007
3413.55908	6.97117
3411.63052	7.01013
3409.70195	7.06250
3407.77339	7.10901
3405.84482	7.14686
3403.91626	7.17677
3401.98770	7.20996
3400.05913	7.26080
3398.13057	7.30545
3396.20200	7.34621
3394.27344	7.41003
3392.34487	7.47084
3390.41631	7.50504
3388.48774	7.52182
3386.55918	7.56426
3384.63062	7.62698
3382.70205	7.67333
3380.77349	7.67509
3378.84492	7.63410
3376.91636	7.62629
3374.98779	7.68372
3373.05923	7.76817
3371.13066	7.80947
3369.20210	7.82814
3367.27354	7.89433
3365.34497	7.95271
3363.41641	7.88061
3361.48784	7.77692
3359.55928	7.80351
3357.63071	7.90412
3355.70215	7.98351
3353.77358	8.05779
3351.84502	8.12844
3349.91646	8.10981
3347.98789	8.02844
3346.05933	7.98452
3344.13076	7.98402
3342.20220	7.94156
3340.27363	7.86237
3338.34507	7.89238
3336.41650	8.02230
3334.48794	8.11226
3332.55937	8.13382
3330.63081	8.19445
3328.70225	8.29441
3326.77368	8.34547
3324.84512	8.31075
3322.91655	8.22856
3320.98799	8.18903
3319.05942	8.16761
3317.13086	8.16016
3315.20229	8.18646
3313.27373	8.23729
3311.34517	8.26914
3309.41660	8.21641
3307.48804	8.14347
3305.55947	8.17123
3303.63091	8.23581
3301.70234	8.14054
3299.77378	7.98051
3297.84521	7.91616
3295.91665	7.96985
3293.98809	8.07594
3292.05952	8.15910
3290.13096	8.23845
3288.20239	8.26042
3286.27383	8.17249
3284.34526	8.10474
3282.41670	8.14808
3280.48813	8.18709
3278.55957	8.15428
3276.63101	8.13829
3274.70244	8.18024
3272.77388	8.24914
3270.84531	8.30080
3268.91675	8.31901
3266.98818	8.33774
3265.05962	8.32631
3263.13105	8.18036
3261.20249	8.06427
3259.27393	8.10639
3257.34536	8.16712
3255.41680	8.14555
3253.48823	8.12168
3251.55967	8.14439
3249.63110	8.14757
3247.70254	8.16831
3245.77397	8.28175
3243.84541	8.35037
3241.91685	8.27123
3239.98828	8.17142
3238.05972	8.11382
3236.13115	8.12182
3234.20259	8.15953
3232.27402	8.12654
3230.34546	8.08475
3228.41689	8.08907
3226.48833	8.07116
3224.55977	8.04508
3222.63120	8.09638
3220.70264	8.14794
3218.77407	8.07882
3216.84551	7.98635
3214.91694	7.94243
3212.98838	7.94428
3211.05981	8.01825
3209.13125	8.06511
3207.20269	7.99588
3205.27412	7.93110
3203.34556	7.89368
3201.41699	7.83439
3199.48843	7.77846
3197.55986	7.72433
3195.63130	7.69076
3193.70273	7.67812
3191.77417	7.62491
3189.84561	7.55479
3187.91704	7.51995
3185.98848	7.49808
3184.05991	7.43259
3182.13135	7.33897
3180.20278	7.29431
3178.27422	7.27579
3176.34565	7.23867
3174.41709	7.21423
3172.48853	7.17091
3170.55996	7.07837
3168.63140	7.00341
3166.70283	6.96237
3164.77427	6.91845
3162.84570	6.85585
3160.91714	6.76699
3158.98857	6.68042
3157.06001	6.62810
3155.13145	6.58844
3153.20288	6.51929
3151.27432	6.43360
3149.34575	6.37695
3147.41719	6.33405
3145.48862	6.26165
3143.56006	6.17633
3141.63149	6.09931
3139.70293	6.01252
3137.77437	5.92719
3135.84580	5.87025
3133.91724	5.82610
3131.98867	5.75970
3130.06011	5.67506
3128.13154	5.59601
3126.20298	5.52600
3124.27441	5.46629
3122.34585	5.40613
3120.41729	5.33230
3118.48872	5.25723
3116.56016	5.19393
3114.63159	5.13354
3112.70303	5.06183
3110.77446	4.98222
3108.84590	4.90560
3106.91733	4.83705
3104.98877	4.77391
3103.06021	4.70853
3101.13164	4.63971
3099.20308	4.57141
3097.27451	4.50276
3095.34595	4.43251
3093.41738	4.36275
3091.48882	4.29513
3089.56025	4.23127
3087.63169	4.17199
3085.70312	4.11359
3083.77456	4.05318
3081.84600	3.99308
3079.91743	3.93250
3077.98887	3.86924
3076.06030	3.80642
3074.13174	3.74667
3072.20317	3.68761
3070.27461	3.62703
3068.34604	3.56776
3066.41748	3.51288
3064.48892	3.45989
3062.56035	3.40533
3060.63179	3.35040
3058.70322	3.29595
3056.77466	3.24089
3054.84609	3.18625
3052.91753	3.13364
3050.98896	3.08257
3049.06040	3.03158
3047.13184	2.98114
3045.20327	2.93153
3043.27471	2.88217
3041.34614	2.83389
3039.41758	2.78662
3037.48901	2.73951
3035.56045	2.69261
3033.63188	2.64588
3031.70332	2.59950
3029.77476	2.55473
3027.84619	2.51196
3025.91763	2.46971
3023.98906	2.42717
3022.06050	2.38569
3020.13193	2.34521
3018.20337	2.30393
3016.27480	2.26251
3014.34624	2.22258
3012.41768	2.18366
3010.48911	2.14510
3008.56055	2.10767
3006.63198	2.07180
3004.70342	2.03650
3002.77485	2.00103
3000.84629	1.96554
2998.91772	1.93054
2996.98916	1.89675
2995.06060	1.86412
2993.13203	1.83177
2991.20347	1.79949
2989.27490	1.76793
2987.34634	1.73744
2985.41777	1.70776
2983.48921	1.67827
2981.56064	1.64880
2979.63208	1.61975
2977.70352	1.59132
2975.77495	1.56302
2973.84639	1.53472
2971.91782	1.50730
2969.98926	1.48065
2968.06069	1.45388
2966.13213	1.42752
2964.20356	1.40219
2962.27500	1.37747
2960.34644	1.35298
2958.41787	1.32843
2956.48931	1.30403
2954.56074	1.28044
2952.63218	1.25753
2950.70361	1.23487
2948.77505	1.21277
2946.84648	1.19135
2944.91792	1.17007
2942.98936	1.14837
2941.06079	1.12661
2939.13223	1.10553
2937.20366	1.08504
2935.27510	1.06490
2933.34653	1.04512
2931.41797	1.02561
2929.48940	1.00637
2927.56084	0.98705
2925.63228	0.96801
2923.70371	0.95028
2921.77515	0.93359
2919.84658	0.91737
2917.91802	0.90151
2915.98945	0.88589
2914.06089	0.87066
2912.13232	0.85567
2910.20376	0.84100
2908.27520	0.82705
2906.34663	0.81352
2904.41807	0.80024
2902.48950	0.78736
2900.56094	0.77457
2898.63237	0.76173
2896.70381	0.74901
2894.77524	0.73668
2892.84668	0.72471
2890.91812	0.71296
2888.98955	0.70154
2887.06099	0.69035
2885.13242	0.67922
2883.20386	0.66831
2881.27529	0.65773
2879.34673	0.64726
2877.41816	0.63671
2875.48960	0.62617
2873.56104	0.61572
2871.63247	0.60547
2869.70391	0.59517
2867.77534	0.58441
2865.84678	0.57353
2863.91821	0.56305
2861.98965	0.55274
2860.06108	0.54252
2858.13252	0.53253
2856.20396	0.52266
2854.27539	0.51336
2852.34683	0.50500
2850.41826	0.49710
2848.48970	0.48937
2846.56113	0.48202
2844.63257	0.47507
2842.70400	0.46855
2840.77544	0.46242
2838.84687	0.45647
2836.91831	0.45064
2834.98975	0.44494
2833.06118	0.43939
2831.13262	0.43388
2829.20405	0.42821
2827.27549	0.42217
2825.34692	0.41598
2823.41836	0.40988
2821.48979	0.40383
2819.56123	0.39794
2817.63267	0.39230
2815.70410	0.38675
2813.77554	0.38117
2811.84697	0.37557
2809.91841	0.37005
2807.98984	0.36480
2806.06128	0.35970
2804.13271	0.35453
2802.20415	0.34941
2800.27559	0.34450
2798.34702	0.33972
2796.41846	0.33506
2794.48989	0.33056
2792.56133	0.32615
2790.63276	0.32182
2788.70420	0.31752
2786.77563	0.31323
2784.84707	0.30904
2782.91851	0.30487
2780.98994	0.30073
2779.06138	0.29685
2777.13281	0.29309
2775.20425	0.28917
2773.27568	0.28529
2771.34712	0.28170
2769.41855	0.27818
2767.48999	0.27459
2765.56143	0.27110
2763.63286	0.26781
2761.70430	0.26462
2759.77573	0.26136
2757.84717	0.25806
2755.91860	0.25493
2753.99004	0.25203
2752.06147	0.24929
2750.13291	0.24666
2748.20435	0.24389
2746.27578	0.24086
2744.34722	0.23792
2742.41865	0.23527
2740.49009	0.23276
2738.56152	0.23026
2736.63296	0.22781
2734.70439	0.22544
2732.77583	0.22316
2730.84727	0.22092
2728.91870	0.21864
2726.99014	0.21638
2725.06157	0.21426
2723.13301	0.21220
2721.20444	0.21012
2719.27588	0.20812
2717.34731	0.20614
2715.41875	0.20409
2713.49019	0.20214
2711.56162	0.20042
2709.63306	0.19878
2707.70449	0.19703
2705.77593	0.19529
2703.84736	0.19373
2701.91880	0.19223
2699.99023	0.19074
2698.06167	0.18927
2696.13311	0.18774
2694.20454	0.18616
2692.27598	0.18469
2690.34741	0.18343
2688.41885	0.18234
2686.49028	0.18126
2684.56172	0.18008
2682.63315	0.17873
2680.70459	0.17738
2678.77603	0.17617
2676.84746	0.17502
2674.91890	0.17391
2672.99033	0.17281
2671.06177	0.17175
2669.13320	0.17079
2667.20464	0.16994
2665.27607	0.16915
2663.34751	0.16833
2661.41895	0.16745
2659.49038	0.16659
2657.56182	0.16574
2655.63325	0.16486
2653.70469	0.16404
2651.77612	0.16327
2649.84756	0.16254
2647.91899	0.16189
2645.99043	0.16138
2644.06187	0.16095
2642.13330	0.16056
2640.20474	0.16022
2638.27617	0.15984
2636.34761	0.15931
2634.41904	0.15870
2632.49048	0.15821
2630.56191	0.15787
2628.63335	0.15754
2626.70479	0.15721
2624.77622	0.15685
2622.84766	0.15650
2620.91909	0.15621
2618.99053	0.15591
2617.06196	0.15563
2615.13340	0.15547
2613.20483	0.15542
2611.27627	0.15543
2609.34771	0.15531
2607.41914	0.15500
2605.49058	0.15480
2603.56201	0.15484
2601.63345	0.15499
2599.70488	0.15514
2597.77632	0.15526
2595.84775	0.15532
2593.91919	0.15533
2591.99062	0.15529
2590.06206	0.15528
2588.13350	0.15550
2586.20493	0.15585
2584.27637	0.15617
2582.34780	0.15645
2580.41924	0.15676
2578.49067	0.15712
2576.56211	0.15744
2574.63354	0.15771
2572.70498	0.15798
2570.77642	0.15826
2568.84785	0.15862
2566.91929	0.15907
2564.99072	0.15959
2563.06216	0.16007
2561.13359	0.16052
2559.20503	0.16095
2557.27646	0.16142
2555.34790	0.16196
2553.41934	0.16243
2551.49077	0.16282
2549.56221	0.16337
2547.63364	0.16414
2545.70508	0.16492
2543.77651	0.16557
2541.84795	0.16620
2539.91938	0.16683
2537.99082	0.16748
2536.06226	0.16815
2534.13369	0.16881
2532.20513	0.16950
2530.27656	0.17022
2528.34800	0.17098
2526.41943	0.17176
2524.49087	0.17239
2522.56230	0.17295
2520.63374	0.17373
2518.70518	0.17469
2516.77661	0.17559
2514.84805	0.17630
2512.91948	0.17699
2510.99092	0.17776
2509.06235	0.17858
2507.13379	0.17950
2505.20522	0.18044
2503.27666	0.18124
2501.34810	0.18198
2499.41953	0.18285
2497.49097	0.18378
2495.56240	0.18458
2493.63384	0.18531
2491.70527	0.18619
2489.77671	0.18720
2487.84814	0.18815
2485.91958	0.18900
2483.99102	0.18985
2482.06245	0.19070
2480.13389	0.19155
2478.20532	0.19243
2476.27676	0.19333
2474.34819	0.19428
2472.41963	0.19534
2470.49106	0.19646
2468.56250	0.19755
2466.63394	0.19849
2464.70537	0.19925
2462.77681	0.20002
2460.84824	0.20085
2458.91968	0.20173
2456.99111	0.20272
2455.06255	0.20373
2453.13398	0.20472
2451.20542	0.20572
2449.27686	0.20672
2447.34829	0.20773
2445.41973	0.20873
2443.49116	0.20971
2441.56260	0.21072
2439.63403	0.21179
2437.70547	0.21288
2435.77690	0.21397
2433.84834	0.21513
2431.91978	0.21637
2429.99121	0.21757
2428.06265	0.21865
2426.13408	0.21964
2424.20552	0.22062
2422.27695	0.22169
2420.34839	0.22286
2418.41982	0.22408
2416.49126	0.22528
2414.56270	0.22645
2412.63413	0.22757
2410.70557	0.22872
2408.77700	0.22993
2406.84844	0.23108
2404.91987	0.23219
2402.99131	0.23335
2401.06274	0.23459
2399.13418	0.23587
2397.20562	0.23711
2395.27705	0.23828
2393.34849	0.23951
2391.41992	0.24087
2389.49136	0.24228
2387.56279	0.24355
2385.63423	0.24442
2383.70566	0.24498
2381.77710	0.24531
2379.84854	0.24542
2377.91997	0.24534
2375.99141	0.24507
2374.06284	0.24469
2372.13428	0.24396
2370.20571	0.24242
2368.27715	0.24021
2366.34858	0.23824
2364.42002	0.23677
2362.49146	0.23560
2360.56289	0.23581
2358.63433	0.23815
2356.70576	0.24213
2354.77720	0.24733
2352.84863	0.25332
2350.92007	0.25859
2348.99150	0.26159
2347.06294	0.26224
2345.13437	0.26123
2343.20581	0.25994
2341.27725	0.26055
2339.34868	0.26303
2337.42012	0.26546
2335.49155	0.26749
2333.56299	0.26909
2331.63442	0.27054
2329.70586	0.27287
2327.77729	0.27604
2325.84873	0.27920
2323.92017	0.28219
2321.99160	0.28507
2320.06304	0.28793
2318.13447	0.29087
2316.20591	0.29365
2314.27734	0.29609
2312.34878	0.29825
2310.42021	0.30033
2308.49165	0.30255
2306.56309	0.30498
2304.63452	0.30751
2302.70596	0.30991
2300.77739	0.31215
2298.84883	0.31427
2296.92026	0.31636
2294.99170	0.31854
2293.06313	0.32081
2291.13457	0.32312
2289.20601	0.32546
2287.27744	0.32771
2285.34888	0.32984
2283.42031	0.33193
2281.49175	0.33404
2279.56318	0.33609
2277.63462	0.33802
2275.70605	0.33997
2273.77749	0.34202
2271.84893	0.34408
2269.92036	0.34607
2267.99180	0.34814
2266.06323	0.35038
2264.13467	0.35259
2262.20610	0.35477
2260.27754	0.35696
2258.34897	0.35916
2256.42041	0.36138
2254.49185	0.36367
2252.56328	0.36595
2250.63472	0.36816
2248.70615	0.37038
2246.77759	0.37265
2244.84902	0.37484
2242.92046	0.37702
2240.99189	0.37931
2239.06333	0.38162
2237.13477	0.38396
2235.20620	0.38628
2233.27764	0.38858
2231.34907	0.39082
2229.42051	0.39299
2227.49194	0.39518
2225.56338	0.39750
2223.63481	0.39979
2221.70625	0.40204
2219.77769	0.40438
2217.84912	0.40668
2215.92056	0.40882
2213.99199	0.41088
2212.06343	0.41293
2210.13486	0.41509
2208.20630	0.41722
2206.27773	0.41920
2204.34917	0.42128
2202.42061	0.42354
2200.49204	0.42571
2198.56348	0.42776
2196.63491	0.42979
2194.70635	0.43177
2192.77778	0.43366
2190.84922	0.43554
2188.92065	0.43742
2186.99209	0.43918
2185.06353	0.44092
2183.13496	0.44284
2181.20640	0.44474
2179.27783	0.44643
2177.34927	0.44803
2175.42070	0.44958
2173.49214	0.45108
2171.56357	0.45257
2169.63501	0.45407
2167.70645	0.45544
2165.77788	0.45668
2163.84932	0.45790
2161.92075	0.45903
2159.99219	0.46009
2158.06362	0.46119
2156.13506	0.46217
2154.20649	0.46292
2152.27793	0.46368
2150.34937	0.46452
2148.42080	0.46528
2146.49224	0.46587
2144.56367	0.46638
2142.63511	0.46688
2140.70654	0.46727
2138.77798	0.46760
2136.84941	0.46793
2134.92085	0.46804
2132.99229	0.46783
2131.06372	0.46764
2129.13516	0.46762
2127.20659	0.46749
2125.27803	0.46716
2123.34946	0.46672
2121.42090	0.46632
2119.49233	0.46586
2117.56377	0.46518
2115.63521	0.46439
2113.70664	0.46365
2111.77808	0.46289
2109.84951	0.46190
2107.92095	0.46071
2105.99238	0.45953
2104.06382	0.45847
2102.13525	0.45735
2100.20669	0.45609
2098.27812	0.45461
2096.34956	0.45299
2094.42100	0.45140
2092.49243	0.44980
2090.56387	0.44818
2088.63530	0.44647
2086.70674	0.44464
2084.77817	0.44275
2082.84961	0.44082
2080.92104	0.43881
2078.99248	0.43681
2077.06392	0.43478
2075.13535	0.43264
2073.20679	0.43050
2071.27822	0.42832
2069.34966	0.42602
2067.42109	0.42368
2065.49253	0.42141
2063.56396	0.41912
2061.63540	0.41658
2059.70684	0.41390
2057.77827	0.41134
2055.84971	0.40891
2053.92114	0.40648
2051.99258	0.40393
2050.06401	0.40125
2048.13545	0.39858
2046.20688	0.39586
2044.27832	0.39312
2042.34976	0.39041
2040.42119	0.38767
2038.49263	0.38485
2036.56406	0.38208
2034.63550	0.37938
2032.70693	0.37658
2030.77837	0.37374
2028.84980	0.37089
2026.92124	0.36798
2024.99268	0.36506
2023.06411	0.36232
2021.13555	0.35969
2019.20698	0.35697
2017.27842	0.35418
2015.34985	0.35142
2013.42129	0.34864
2011.49272	0.34576
2009.56416	0.34286
2007.63560	0.34012
2005.70703	0.33755
2003.77847	0.33491
2001.84990	0.33208
1999.92134	0.32922
1997.99277	0.32648
1996.06421	0.32391
1994.13564	0.32149
1992.20708	0.31912
1990.27852	0.31660
1988.34995	0.31394
1986.42139	0.31131
1984.49282	0.30882
1982.56426	0.30643
1980.63569	0.30408
1978.70713	0.30175
1976.77856	0.29940
1974.85000	0.29709
1972.92144	0.29485
1970.99287	0.29270
1969.06431	0.29064
1967.13574	0.28858
1965.20718	0.28642
1963.27861	0.28430
1961.35005	0.28232
1959.42148	0.28043
1957.49292	0.27863
1955.56436	0.27681
1953.63579	0.27492
1951.70723	0.27310
1949.77866	0.27142
1947.85010	0.26972
1945.92153	0.26808
1943.99297	0.26659
1942.06440	0.26510
1940.13584	0.26356
1938.20728	0.26209
1936.27871	0.26068
1934.35015	0.25932
1932.42158	0.25811
1930.49302	0.25699
1928.56445	0.25586
1926.63589	0.25472
1924.70732	0.25363
1922.77876	0.25256
1920.85020	0.25148
1918.92163	0.25051
1916.99307	0.24963
1915.06450	0.24873
1913.13594	0.24781
1911.20737	0.24705
1909.27881	0.24639
1907.35024	0.24570
1905.42168	0.24499
1903.49312	0.24434
1901.56455	0.24374
1899.63599	0.24319
1897.70742	0.24276
1895.77886	0.24237
1893.85029	0.24191
1891.92173	0.24141
1889.99316	0.24111
1888.06460	0.24093
1886.13604	0.24072
1884.20747	0.24047
1882.27891	0.24022
1880.35034	0.24002
1878.42178	0.23986
1876.49321	0.23981
1874.56465	0.23980
1872.63608	0.23982
1870.70752	0.23994
1868.77896	0.24043
1866.85039	0.24092
1864.92183	0.24092
1862.99326	0.24083
1861.06470	0.24100
1859.13613	0.24146
1857.20757	0.24188
1855.27900	0.24225
1853.35044	0.24260
1851.42187	0.24311
1849.49331	0.24374
1847.56475	0.24438
1845.63618	0.24507
1843.70762	0.24608
1841.77905	0.24704
1839.85049	0.24759
1837.92192	0.24830
1835.99336	0.24912
1834.06479	0.24992
1832.13623	0.25082
1830.20767	0.25228
1828.27910	0.25392
1826.35054	0.25498
1824.42197	0.25614
1822.49341	0.25742
1820.56484	0.25869
1818.63628	0.26005
1816.70771	0.26161
1814.77915	0.26319
1812.85059	0.26499
1810.92202	0.26710
1808.99346	0.26916
1807.06489	0.27102
1805.13633	0.27283
1803.20776	0.27492
1801.27920	0.27742
1799.35063	0.28038
1797.42207	0.28297
1795.49351	0.28529
1793.56494	0.28807
1791.63638	0.29185
1789.70781	0.29550
1787.77925	0.29814
1785.85068	0.30116
1783.92212	0.30479
1781.99355	0.30871
1780.06499	0.31302
1778.13643	0.31754
1776.20786	0.32157
1774.27930	0.32559
1772.35073	0.33126
1770.42217	0.33785
1768.49360	0.34333
1766.56504	0.34851
1764.63647	0.35378
1762.70791	0.35961
1760.77935	0.36720
1758.85078	0.37427
1756.92222	0.38131
1754.99365	0.38912
1753.06509	0.39608
1751.13652	0.40427
1749.20796	0.41485
1747.27939	0.42535
1745.35083	0.43450
1743.42227	0.44415
1741.49370	0.45473
1739.56514	0.46717
1737.63657	0.47963
1735.70801	0.49033
1733.77944	0.50671
1731.85088	0.52700
1729.92231	0.54279
1727.99375	0.55858
1726.06519	0.57551
1724.13662	0.59406
1722.20806	0.61406
1720.27949	0.63225
1718.35093	0.65351
1716.42236	0.68626
1714.49380	0.71802
1712.56523	0.74312
1710.63667	0.76683
1708.70811	0.79205
1706.77954	0.82093
1704.85098	0.85603
1702.92241	0.88709
1700.99385	0.91676
1699.06528	0.96183
1697.13672	1.00429
1695.20815	1.04843
1693.27959	1.09042
1691.35103	1.12302
1689.42246	1.16073
1687.49390	1.20066
1685.56533	1.23842
1683.63677	1.29884
1681.70820	1.36293
1679.77964	1.40238
1677.85107	1.43982
1675.92251	1.48301
1673.99395	1.53675
1672.06538	1.58384
1670.13682	1.62976
1668.20825	1.69126
1666.27969	1.73982
1664.35112	1.77884
1662.42256	1.82799
1660.49399	1.88578
1658.56543	1.93073
1656.63687	1.96655
1654.70830	1.99889
1652.77974	2.05443
1650.85117	2.11091
1648.92261	2.12900
1646.99404	2.15303
1645.06548	2.18543
1643.13691	2.21018
1641.20835	2.22490
1639.27979	2.23663
1637.35122	2.24164
1635.42266	2.23975
1633.49409	2.23613
1631.56553	2.22696
1629.63696	2.21259
1627.70840	2.18636
1625.77983	2.15666
1623.85127	2.11976
1621.92271	2.07339
1619.99414	2.03183
1618.06558	1.99064
1616.13701	1.92926
1614.20845	1.86651
1612.27988	1.82018
1610.35132	1.77210
1608.42275	1.71920
1606.49419	1.66602
1604.56562	1.61707
1602.63706	1.56993
1600.70850	1.52386
1598.77993	1.48140
1596.85137	1.44078
1594.92280	1.40053
1592.99424	1.36163
1591.06567	1.32618
1589.13711	1.29263
1587.20854	1.26111
1585.27998	1.23186
1583.35142	1.20440
1581.42285	1.17915
1579.49429	1.15744
1577.56572	1.13744
1575.63716	1.11175
1573.70859	1.08916
1571.78003	1.07478
1569.85146	1.05914
1567.92290	1.04113
1565.99434	1.02730
1564.06577	1.01599
1562.13721	1.00676
1560.20864	0.99931
1558.28008	0.98641
1556.35151	0.97533
1554.42295	0.96935
1552.49438	0.96322
1550.56582	0.95646
1548.63726	0.94877
1546.70869	0.94106
1544.78013	0.93229
1542.85156	0.92143
1540.92300	0.90804
1538.99443	0.88954
1537.06587	0.87631
1535.13730	0.86721
1533.20874	0.85503
1531.28018	0.84196
1529.35161	0.83254
1527.42305	0.82357
1525.49448	0.81408
1523.56592	0.80572
1521.63735	0.79753
1519.70879	0.78936
1517.78022	0.78264
1515.85166	0.77501
1513.92310	0.76731
1511.99453	0.76089
1510.06597	0.75513
1508.13740	0.74928
1506.20884	0.73985
1504.28027	0.73217
1502.35171	0.72781
1500.42314	0.72377
1498.49458	0.71956
1496.56602	0.71495
1494.63745	0.71029
1492.70889	0.70647
1490.78032	0.70315
1488.85176	0.69940
1486.92319	0.69550
1484.99463	0.69209
1483.06606	0.68934
1481.13750	0.68702
1479.20894	0.68500
1477.28037	0.68350
1475.35181	0.68228
1473.42324	0.68081
1471.49468	0.67851
1469.56611	0.67596
1467.63755	0.67366
1465.70898	0.67155
1463.78042	0.66959
1461.85186	0.66800
1459.92329	0.66687
1457.99473	0.66569
1456.06616	0.66352
1454.13760	0.66115
1452.20903	0.65903
1450.28047	0.65665
1448.35190	0.65412
1446.42334	0.65182
1444.49478	0.64992
1442.56621	0.64815
1440.63765	0.64635
1438.70908	0.64460
1436.78052	0.64266
1434.85195	0.64037
1432.92339	0.63827
1430.99482	0.63658
1429.06626	0.63528
1427.13770	0.63433
1425.20913	0.63355
1423.28057	0.63271
1421.35200	0.63182
1419.42344	0.63106
1417.49487	0.63006
1415.56631	0.62850
1413.63774	0.62701
1411.70918	0.62586
1409.78062	0.62498
1407.85205	0.62431
1405.92349	0.62396
1403.99492	0.62354
1402.06636	0.62249
1400.13779	0.62105
1398.20923	0.61942
1396.28066	0.61765
1394.35210	0.61556
1392.42354	0.61321
1390.49497	0.61089
1388.56641	0.60849
1386.63784	0.60589
1384.70928	0.60335
1382.78071	0.60116
1380.85215	0.59925
1378.92358	0.59749
1376.99502	0.59591
1375.06646	0.59476
1373.13789	0.59404
1371.20933	0.59340
1369.28076	0.59265
1367.35220	0.59175
1365.42363	0.59063
1363.49507	0.58934
1361.56650	0.58806
1359.63794	0.58695
1357.70937	0.58596
1355.78081	0.58495
1353.85225	0.58384
1351.92368	0.58273
1349.99512	0.58172
1348.06655	0.58077
1346.13799	0.57967
1344.20942	0.57841
1342.28086	0.57725
1340.35229	0.57640
1338.42373	0.57574
1336.49517	0.57506
1334.56660	0.57435
1332.63804	0.57362
1330.70947	0.57294
1328.78091	0.57243
1326.85234	0.57207
1324.92378	0.57178
1322.99521	0.57158
1321.06665	0.57139
1319.13809	0.57115
1317.20952	0.57079
1315.28096	0.57017
1313.35239	0.56936
1311.42383	0.56855
1309.49526	0.56775
1307.56670	0.56689
1305.63813	0.56599
1303.70957	0.56504
1301.78101	0.56408
1299.85244	0.56312
1297.92388	0.56214
1295.99531	0.56112
1294.06675	0.56012
1292.13818	0.55918
1290.20962	0.55828
1288.28105	0.55744
1286.35249	0.55676
1284.42393	0.55614
1282.49536	0.55538
1280.56680	0.55447
1278.63823	0.55352
1276.70967	0.55273
1274.78110	0.55209
1272.85254	0.55138
1270.92397	0.55062
1268.99541	0.55005
1267.06685	0.54968
1265.13828	0.54920
1263.20972	0.54858
1261.28115	0.54802
1259.35259	0.54754
1257.42402	0.54708
1255.49546	0.54684
1253.56689	0.54685
1251.63833	0.54691
1249.70977	0.54694
1247.78120	0.54679
1245.85264	0.54640
1243.92407	0.54589
1241.99551	0.54529
1240.06694	0.54448
1238.13838	0.54344
1236.20981	0.54236
1234.28125	0.54131
1232.35269	0.54019
1230.42412	0.53897
1228.49556	0.53776
1226.56699	0.53661
1224.63843	0.53553
1222.70986	0.53450
1220.78130	0.53347
1218.85273	0.53244
1216.92417	0.53142
1214.99561	0.53047
1213.06704	0.52972
1211.13848	0.52916
1209.20991	0.52857
1207.28135	0.52788
1205.35278	0.52720
1203.42422	0.52658
1201.49565	0.52598
1199.56709	0.52532
1197.63853	0.52465
1195.70996	0.52398
1193.78140	0.52321
1191.85283	0.52252
1189.92427	0.52196
1187.99570	0.52145
1186.06714	0.52108
1184.13857	0.52094
1182.21001	0.52106
1180.28145	0.52158
1178.35288	0.52241
1176.42432	0.52332
1174.49575	0.52422
1172.56719	0.52512
1170.63862	0.52599
1168.71006	0.52672
1166.78149	0.52735
1164.85293	0.52805
1162.92437	0.52879
1160.99580	0.52950
1159.06724	0.52987
1157.13867	0.52946
1155.21011	0.52846
1153.28154	0.52732
1151.35298	0.52590
1149.42441	0.52373
1147.49585	0.52097
1145.56729	0.51816
1143.63872	0.51549
1141.71016	0.51296
1139.78159	0.51070
1137.85303	0.50895
1135.92446	0.50771
1133.99590	0.50673
1132.06733	0.50582
1130.13877	0.50493
1128.21021	0.50408
1126.28164	0.50322
1124.35308	0.50238
1122.42451	0.50188
1120.49595	0.50185
1118.56738	0.50205
1116.63882	0.50241
1114.71025	0.50301
1112.78169	0.50380
1110.85312	0.50460
1108.92456	0.50534
1106.99600	0.50610
1105.06743	0.50702
1103.13887	0.50810
1101.21030	0.50928
1099.28174	0.51081
1097.35317	0.51291
1095.42461	0.51563
1093.49604	0.51916
1091.56748	0.52383
1089.63892	0.52972
1087.71035	0.53690
1085.78179	0.54524
1083.85322	0.55387
1081.92466	0.56161
1079.99609	0.56746
1078.06753	0.57051
1076.13896	0.57050
1074.21040	0.56772
1072.28184	0.56265
1070.35327	0.55610
1068.42471	0.54908
1066.49614	0.54236
1064.56758	0.53617
1062.63901	0.53054
1060.71045	0.52553
1058.78188	0.52123
1056.85332	0.51773
1054.92476	0.51470
1052.99619	0.51180
1051.06763	0.50939
1049.13906	0.50785
1047.21050	0.50701
1045.28193	0.50644
1043.35337	0.50613
1041.42480	0.50628
1039.49624	0.50679
1037.56768	0.50716
1035.63911	0.50702
1033.71055	0.50663
1031.78198	0.50607
1029.85342	0.50502
1027.92485	0.50360
1025.99629	0.50224
1024.06772	0.50126
1022.13916	0.50074
1020.21060	0.50054
1018.28203	0.50040
1016.35347	0.50020
1014.42490	0.50014
1012.49634	0.50025
1010.56777	0.50040
1008.63921	0.50062
1006.71064	0.50112
1004.78208	0.50214
1002.85352	0.50388
1000.92495	0.50634
998.99639	0.50949
997.06782	0.51335
995.13926	0.51763
993.21069	0.52161
991.28213	0.52456
989.35356	0.52634
987.42500	0.52710
985.49644	0.52718
983.56787	0.52718
981.63931	0.52756
979.71074	0.52857
977.78218	0.53017
975.85361	0.53202
973.92505	0.53422
971.99648	0.53706
970.06792	0.54030
968.13936	0.54376
966.21079	0.54771
964.28223	0.55211
962.35366	0.55691
960.42510	0.56212
958.49653	0.56744
956.56797	0.57287
954.63940	0.57877
952.71084	0.58503
950.78228	0.59126
948.85371	0.59755
946.92515	0.60403
944.99658	0.61022
943.06802	0.61604
941.13945	0.62196
939.21089	0.62771
937.28232	0.63300
935.35376	0.63841
933.42520	0.64408
931.49663	0.64988
929.56807	0.65595
927.63950	0.66202
925.71094	0.66791
923.78237	0.67384
921.85381	0.68029
919.92524	0.68716
917.99668	0.69391
916.06812	0.70088
914.13955	0.70818
912.21099	0.71586
910.28242	0.72443
908.35386	0.73316
906.42529	0.74102
904.49673	0.74858
902.56816	0.75715
900.63960	0.76708
898.71104	0.77785
896.78247	0.78845
894.85391	0.79797
892.92534	0.80713
890.99678	0.81696
889.06821	0.82734
887.13965	0.83782
885.21108	0.84815
883.28252	0.85940
881.35396	0.87188
879.42539	0.88390
877.49683	0.89481
875.56826	0.90518
873.63970	0.91589
871.71113	0.92754
869.78257	0.93908
867.85400	0.94892
865.92544	0.95803
863.99687	0.96938
862.06831	0.98335
860.13975	0.99761
858.21118	1.01011
856.28262	1.02026
854.35405	1.03021
852.42549	1.04122
850.49692	1.05250
848.56836	1.06445
846.63979	1.07671
844.71123	1.08905
842.78267	1.10277
840.85410	1.11585
838.92554	1.12425
836.99697	1.13163
835.06841	1.14467
833.13984	1.15982
831.21128	1.16983
829.28271	1.17851
827.35415	1.19204
825.42559	1.20727
823.49702	1.22149
821.56846	1.23222
819.63989	1.23683
817.71133	1.24154
815.78276	1.25205
813.85420	1.26390
811.92563	1.26894
809.99707	1.27192
808.06851	1.28863
806.13994	1.31794
804.21138	1.33784
802.28281	1.34735
800.35425	1.36247
798.42568	1.38424
796.49712	1.39301
794.56855	1.36254
792.63999	1.32732
790.71143	1.34096
788.78286	1.39825
786.85430	1.43003
784.92573	1.39338
782.99717	1.34193
781.06860	1.30768
779.14004	1.30024
777.21147	1.38359
775.28291	1.61418
773.35435	1.73873
771.42578	1.51952
769.49722	1.39450
767.56865	1.40501
765.64009	1.45882
763.71152	1.51868
761.78296	1.53255
759.85439	1.40491
757.92583	1.29275
755.99727	1.22350
754.06870	1.18079
752.14014	1.19992
750.21157	1.19885
748.28301	1.11569
746.35444	1.11633
744.42588	1.22268
742.49731	1.18676
740.56875	1.12357
738.64019	1.23254
736.71162	1.11443
734.78306	0.81745
732.85449	0.71056
730.92593	0.79248
728.99736	0.93015
727.06880	0.79748
725.14023	0.55618
723.21167	0.31212
721.28311	0.13879
719.35454	0.10148
717.42598	0.07606
715.49741	-0.01999
713.56885	-0.07586
711.64028	-0.01578
709.71172	0.26308
707.78315	0.47421
705.85459	0.44738
703.92603	0.40265
701.99746	0.47755
700.06890	0.56619
698.14033	0.49996
696.21177	0.38828
694.28320	0.38250
692.35464	0.47430
690.42607	0.59904
688.49751	0.61290
686.56895	0.40111
684.64038	0.24429
682.71182	0.20508
680.78325	0.25804
678.85469	0.39149
676.92612	0.47813
674.99756	0.47882
673.06899	0.61442
671.14043	0.78172
669.21187	0.62656
667.28330	0.51995
665.35474	0.52047
663.42617	0.47016
661.49761	0.35666
659.56904	0.29170
657.64048	0.33492
655.71191	0.49041
653.78335	0.69379
651.85479	0.62851
649.92622	0.36875
647.99766	0.26332
646.06909	0.30967
644.14053	0.32829
642.21196	0.24288
640.28340	0.18620
638.35483	0.19893
636.42627	0.24163
634.49771	0.28473
632.56914	0.31825
630.64058	0.33534
628.71201	0.34548
626.78345	0.38018
624.85488	0.44210
622.92632	0.53413
620.99775	0.63005
619.06919	0.55337
617.14062	0.43564
615.21206	0.43107
613.28350	0.59603
611.35493	0.76356
609.42637	0.54008
607.49780	0.38545
605.56924	0.34615
603.64067	0.42113
601.71211	0.60695
599.78354	0.69786
597.85498	0.55749
595.92642	0.52265
593.99785	0.49991
592.06929	0.36851
590.14072	0.28733
588.21216	0.23899
586.28359	0.19694
584.35503	0.18380
582.42646	0.22175
580.49790	0.27941
578.56934	0.30993
576.64077	0.34394
574.71221	0.43549
572.78364	0.47178
570.85508	0.40682
568.92651	0.39380
566.99795	0.43657
565.06938	0.50291
563.14082	0.57639
561.21226	0.54848
559.28369	0.37457
557.35513	0.25913
555.42656	0.24392
553.49800	0.28936
551.56943	0.32686
549.64087	0.29998
547.71230	0.27036
545.78374	0.27470
543.85518	0.29174
541.92661	0.29263
539.99805	0.29965
538.06948	0.30112
536.14092	0.28188
534.21235	0.28845
532.28379	0.32368
530.35522	0.32205
528.42666	0.29508
526.49810	0.30171
524.56953	0.30079
522.64097	0.23245
520.71240	0.18239
518.78384	0.21488
516.85527	0.30954
514.92671	0.36359
512.99814	0.35982
511.06958	0.36807
509.14102	0.39516
507.21245	0.38470
505.28389	0.33354
503.35532	0.29341
501.42676	0.25028
499.49819	0.23433
