3997.91411	0.06824
3995.98555	0.06876
3994.05698	0.06936
3992.12842	0.06988
3990.19985	0.07024
3988.27129	0.07034
3986.34272	0.07041
3984.41416	0.07081
3982.48560	0.07141
3980.55703	0.07159
3978.62847	0.07136
3976.69990	0.07130
3974.77134	0.07136
3972.84277	0.07148
3970.91421	0.07174
3968.98564	0.07214
3967.05708	0.07244
3965.12852	0.07247
3963.19995	0.07242
3961.27139	0.07243
3959.34282	0.07249
3957.41426	0.07257
3955.48569	0.07289
3953.55713	0.07342
3951.62856	0.07366
3949.70000	0.07356
3947.77144	0.07351
3945.84287	0.07343
3943.91431	0.07324
3941.98574	0.07324
3940.05718	0.07313
3938.12861	0.07267
3936.20005	0.07241
3934.27148	0.07259
3932.34292	0.07298
3930.41436	0.07317
3928.48579	0.07317
3926.55723	0.07326
3924.62866	0.07334
3922.70010	0.07316
3920.77153	0.07286
3918.84297	0.07249
3916.91440	0.07207
3914.98584	0.07187
3913.05728	0.07205
3911.12871	0.07223
3909.20015	0.07200
3907.27158	0.07148
3905.34302	0.07076
3903.41445	0.07022
3901.48589	0.07048
3899.55732	0.07078
3897.62876	0.07072
3895.70020	0.07083
3893.77163	0.07113
3891.84307	0.07160
3889.91450	0.07193
3887.98594	0.07170
3886.05737	0.07149
3884.12881	0.07172
3882.20024	0.07192
3880.27168	0.07195
3878.34312	0.07203
3876.41455	0.07197
3874.48599	0.07181
3872.55742	0.07190
3870.62886	0.07244
3868.70029	0.07333
3866.77173	0.07375
3864.84316	0.07387
3862.91460	0.07443
3860.98604	0.07480
3859.05747	0.07438
3857.12891	0.07367
3855.20034	0.07340
3853.27178	0.07450
3851.34321	0.07673
3849.41465	0.07771
3847.48608	0.07779
3845.55752	0.07756
3843.62896	0.07762
3841.70039	0.07828
3839.77183	0.07886
3837.84326	0.07951
3835.91470	0.08068
3833.98613	0.08150
3832.05757	0.08186
3830.12900	0.08235
3828.20044	0.08303
3826.27187	0.08398
3824.34331	0.08491
3822.41475	0.08544
3820.48618	0.08644
3818.55762	0.08779
3816.62905	0.08853
3814.70049	0.08947
3812.77192	0.09049
3810.84336	0.09117
3808.91479	0.09192
3806.98623	0.09311
3805.05767	0.09419
3803.12910	0.09445
3801.20054	0.09517
3799.27197	0.09696
3797.34341	0.09847
3795.41484	0.09990
3793.48628	0.10122
3791.55771	0.10234
3789.62915	0.10374
3787.70059	0.10511
3785.77202	0.10632
3783.84346	0.10773
3781.91489	0.10926
3779.98633	0.11077
3778.05776	0.11244
3776.12920	0.11403
3774.20063	0.11541
3772.27207	0.11671
3770.34351	0.11846
3768.41494	0.12103
3766.48638	0.12333
3764.55781	0.12524
3762.62925	0.12698
3760.70068	0.12846
3758.77212	0.13064
3756.84355	0.13364
3754.91499	0.13585
3752.98643	0.13706
3751.05786	0.13854
3749.12930	0.14178
3747.20073	0.14523
3745.27217	0.14777
3743.34360	0.15147
3741.41504	0.15576
3739.48647	0.15876
3737.55791	0.16171
3735.62935	0.16635
3733.70078	0.17273
3731.77222	0.17825
3729.84365	0.18261
3727.91509	0.18654
3725.98652	0.19145
3724.05796	0.19798
3722.12939	0.20497
3720.20083	0.21220
3718.27227	0.21992
3716.34370	0.22772
3714.41514	0.23488
3712.48657	0.24282
3710.55801	0.25512
3708.62944	0.27025
3706.70088	0.28312
3704.77231	0.29458
3702.84375	0.30727
3700.91519	0.32386
3698.98662	0.34259
3697.05806	0.36056
3695.12949	0.37930
3693.20093	0.39866
3691.27236	0.41933
3689.34380	0.44699
3687.41523	0.48273
3685.48667	0.51466
3683.55811	0.54192
3681.62954	0.57007
3679.70098	0.60065
3677.77241	0.63235
3675.84385	0.67074
3673.91528	0.72543
3671.98672	0.76983
3670.05815	0.80814
3668.12959	0.86307
3666.20103	0.91371
3664.27246	0.95494
3662.34390	0.99833
3660.41533	1.04475
3658.48677	1.09027
3656.55820	1.13900
3654.62964	1.19413
3652.70107	1.24002
3650.77251	1.27841
3648.84395	1.33236
3646.91538	1.40351
3644.98682	1.45670
3643.05825	1.49658
3641.12969	1.53691
3639.20112	1.58164
3637.27256	1.62676
3635.34399	1.66980
3633.41543	1.71185
3631.48687	1.75118
3629.55830	1.79139
3627.62974	1.84580
3625.70117	1.89827
3623.77261	1.93362
3621.84404	1.96612
3619.91548	2.00252
3617.98691	2.04766
3616.05835	2.09242
3614.12979	2.13062
3612.20122	2.17142
3610.27266	2.21162
3608.34409	2.25109
3606.41553	2.29399
3604.48696	2.33398
3602.55840	2.36860
3600.62983	2.40582
3598.70127	2.44737
3596.77271	2.48807
3594.84414	2.52813
3592.91558	2.56892
3590.98701	2.60748
3589.05845	2.64321
3587.12988	2.68681
3585.20132	2.73762
3583.27275	2.78079
3581.34419	2.81898
3579.41562	2.85906
3577.48706	2.90148
3575.55850	2.94519
3573.62993	2.99105
3571.70137	3.03505
3569.77280	3.07520
3567.84424	3.11736
3565.91567	3.17028
3563.98711	3.22107
3562.05854	3.26094
3560.12998	3.30254
3558.20142	3.34996
3556.27285	3.39732
3554.34429	3.44015
3552.41572	3.48492
3550.48716	3.53476
3548.55859	3.58172
3546.63003	3.62350
3544.70146	3.66870
3542.77290	3.71999
3540.84434	3.77004
3538.91577	3.81502
3536.98721	3.85766
3535.05864	3.90323
3533.13008	3.95037
3531.20151	3.99887
3529.27295	4.04832
3527.34438	4.09759
3525.41582	4.14908
3523.48726	4.20315
3521.55869	4.25428
3519.63013	4.29579
3517.70156	4.33731
3515.77300	4.38767
3513.84443	4.43887
3511.91587	4.48606
3509.98730	4.53335
3508.05874	4.58003
3506.13018	4.62665
3504.20161	4.67751
3502.27305	4.72869
3500.34448	4.77222
3498.41592	4.81269
3496.48735	4.85821
3494.55879	4.90449
3492.63022	4.95038
3490.70166	5.00040
3488.77310	5.05026
3486.84453	5.09724
3484.91597	5.14651
3482.98740	5.19858
3481.05884	5.24658
3479.13027	5.29075
3477.20171	5.34087
3475.27314	5.39550
3473.34458	5.44911
3471.41602	5.50264
3469.48745	5.54941
3467.55889	5.58719
3465.63032	5.63356
3463.70176	5.69679
3461.77319	5.75610
3459.84463	5.79470
3457.91606	5.82495
3455.98750	5.87600
3454.05894	5.94968
3452.13037	6.01985
3450.20181	6.07483
3448.27324	6.12112
3446.34468	6.16704
3444.41611	6.20342
3442.48755	6.22977
3440.55898	6.26454
3438.63042	6.31714
3436.70186	6.36832
3434.77329	6.41342
3432.84473	6.46429
3430.91616	6.49816
3428.98760	6.52853
3427.05903	6.60045
3425.13047	6.69138
3423.20190	6.74114
3421.27334	6.75933
3419.34478	6.77995
3417.41621	6.81496
3415.48765	6.86291
3413.55908	6.91055
3411.63052	6.96764
3409.70195	7.03157
3407.77339	7.07550
3405.84482	7.09086
3403.91626	7.13280
3401.98770	7.19895
3400.05913	7.25166
3398.13057	7.33021
3396.20200	7.40397
3394.27344	7.41702
3392.34487	7.42146
3390.41631	7.48793
3388.48774	7.58992
3386.55918	7.64455
3384.63062	7.60262
3382.70205	7.54985
3380.77349	7.57478
3378.84492	7.62967
3376.91636	7.66938
3374.98779	7.69891
3373.05923	7.74240
3371.13066	7.79241
3369.20210	7.82920
3367.27354	7.81389
3365.34497	7.74208
3363.41641	7.70854
3361.48784	7.78289
3359.55928	7.91183
3357.63071	7.97258
3355.70215	7.99269
3353.77358	8.02427
3351.84502	8.01564
3349.91646	7.95760
3347.98789	7.92654
3346.05933	7.94605
3344.13076	7.96559
3342.20220	7.97337
3340.27363	8.01099
3338.34507	8.06745
3336.41650	8.07156
3334.48794	8.09889
3332.55937	8.21167
3330.63081	8.32669
3328.70225	8.30804
3326.77368	8.16273
3324.84512	8.09250
3322.91655	8.14377
3320.98799	8.17591
3319.05942	8.11861
3317.13086	8.06718
3315.20229	8.05764
3313.27373	8.06270
3311.34517	8.09003
3309.41660	8.11891
3307.48804	8.10054
3305.55947	8.07755
3303.63091	8.12428
3301.70234	8.18898
3299.77378	8.19224
3297.84521	8.15984
3295.91665	8.16348
3293.98809	8.17597
3292.05952	8.16966
3290.13096	8.19452
3288.20239	8.23783
3286.27383	8.21784
3284.34526	8.17895
3282.41670	8.26838
3280.48813	8.42881
3278.55957	8.47417
3276.63101	8.38766
3274.70244	8.25280
3272.77388	8.12764
3270.84531	8.11049
3268.91675	8.25096
3266.98818	8.39948
3265.05962	8.40322
3263.13105	8.33986
3261.20249	8.27912
3259.27393	8.22658
3257.34536	8.22916
3255.41680	8.21473
3253.48823	8.18082
3251.55967	8.24552
3249.63110	8.34252
3247.70254	8.38612
3245.77397	8.41470
3243.84541	8.44044
3241.91685	8.41042
3239.98828	8.29503
3238.05972	8.11825
3236.13115	8.02306
3234.20259	8.09544
3232.27402	8.18744
3230.34546	8.21558
3228.41689	8.22179
3226.48833	8.14891
3224.55977	8.08363
3222.63120	8.12012
3220.70264	8.10160
3218.77407	8.00160
3216.84551	7.99024
3214.91694	8.07316
3212.98838	8.11168
3211.05981	8.01963
3209.13125	7.92991
3207.20269	7.95513
3205.27412	7.98241
3203.34556	7.91274
3201.41699	7.83726
3199.48843	7.83676
3197.55986	7.85434
3195.63130	7.78255
3193.70273	7.64591
3191.77417	7.54405
3189.84561	7.52079
3187.91704	7.52041
3185.98848	7.47753
3184.05991	7.42203
3182.13135	7.36458
3180.20278	7.29023
3178.27422	7.21806
3176.34565	7.17439
3174.41709	7.14560
3172.48853	7.07473
3170.55996	6.97355
3168.63140	6.90929
3166.70283	6.87632
3164.77427	6.83866
3162.84570	6.79695
3160.91714	6.74038
3158.98857	6.66959
3157.06001	6.61497
3155.13145	6.57184
3153.20288	6.50197
3151.27432	6.41455
3149.34575	6.34603
3147.41719	6.28781
3145.48862	6.22117
3143.56006	6.15225
3141.63149	6.08631
3139.70293	6.01354
3137.77437	5.93016
3135.84580	5.84365
3133.91724	5.76404
3131.98867	5.69457
3130.06011	5.62670
3128.13154	5.55995
3126.20298	5.50035
3124.27441	5.44490
3122.34585	5.38696
3120.41729	5.32131
3118.48872	5.24799
3116.56016	5.17279
3114.63159	5.10058
3112.70303	5.03635
3110.77446	4.97156
3108.84590	4.89477
3106.91733	4.81844
3104.98877	4.75529
3103.06021	4.69870
3101.13164	4.63728
3099.20308	4.57234
3097.27451	4.50847
3095.34595	4.44057
3093.41738	4.36974
3091.48882	4.30633
3089.56025	4.24907
3087.63169	4.18707
3085.70312	4.12091
3083.77456	4.05646
3081.84600	3.99384
3079.91743	3.93118
3077.98887	3.86821
3076.06030	3.80970
3074.13174	3.75667
3072.20317	3.70172
3070.27461	3.64265
3068.34604	3.58378
3066.41748	3.52701
3064.48892	3.47289
3062.56035	3.42014
3060.63179	3.36697
3058.70322	3.31373
3056.77466	3.26026
3054.84609	3.20710
3052.91753	3.15461
3050.98896	3.10177
3049.06040	3.04899
3047.13184	2.99781
3045.20327	2.94850
3043.27471	2.89937
3041.34614	2.84997
3039.41758	2.80202
3037.48901	2.75536
3035.56045	2.70909
3033.63188	2.66389
3031.70332	2.61926
3029.77476	2.57457
3027.84619	2.53096
3025.91763	2.48848
3023.98906	2.44602
3022.06050	2.40352
3020.13193	2.36174
3018.20337	2.32105
3016.27480	2.28087
3014.34624	2.24099
3012.41768	2.20190
3010.48911	2.16400
3008.56055	2.12760
3006.63198	2.09163
3004.70342	2.05543
3002.77485	2.01992
3000.84629	1.98514
2998.91772	1.95102
2996.98916	1.91790
2995.06060	1.88563
2993.13203	1.85400
2991.20347	1.82293
2989.27490	1.79248
2987.34634	1.76271
2985.41777	1.73366
2983.48921	1.70502
2981.56064	1.67672
2979.63208	1.64907
2977.70352	1.62148
2975.77495	1.59373
2973.84639	1.56689
2971.91782	1.54131
2969.98926	1.51609
2968.06069	1.49058
2966.13213	1.46502
2964.20356	1.43992
2962.27500	1.41534
2960.34644	1.39103
2958.41787	1.36703
2956.48931	1.34345
2954.56074	1.31988
2952.63218	1.29606
2950.70361	1.27276
2948.77505	1.25070
2946.84648	1.22941
2944.91792	1.20802
2942.98936	1.18638
2941.06079	1.16496
2939.13223	1.14398
2937.20366	1.12357
2935.27510	1.10382
2933.34653	1.08405
2931.41797	1.06343
2929.48940	1.04273
2927.56084	1.02312
2925.63228	1.00473
2923.70371	0.98743
2921.77515	0.97036
2919.84658	0.95310
2917.91802	0.93628
2915.98945	0.91990
2914.06089	0.90371
2912.13232	0.88797
2910.20376	0.87268
2908.27520	0.85781
2906.34663	0.84354
2904.41807	0.82964
2902.48950	0.81581
2900.56094	0.80236
2898.63237	0.78957
2896.70381	0.77683
2894.77524	0.76399
2892.84668	0.75163
2890.91812	0.73960
2888.98955	0.72782
2887.06099	0.71653
2885.13242	0.70567
2883.20386	0.69520
2881.27529	0.68492
2879.34673	0.67463
2877.41816	0.66447
2875.48960	0.65452
2873.56104	0.64446
2871.63247	0.63398
2869.70391	0.62297
2867.77534	0.61143
2865.84678	0.59967
2863.91821	0.58817
2861.98965	0.57714
2860.06108	0.56631
2858.13252	0.55546
2856.20396	0.54495
2854.27539	0.53519
2852.34683	0.52616
2850.41826	0.51762
2848.48970	0.50950
2846.56113	0.50168
2844.63257	0.49411
2842.70400	0.48712
2840.77544	0.48070
2838.84687	0.47457
2836.91831	0.46872
2834.98975	0.46288
2833.06118	0.45690
2831.13262	0.45105
2829.20405	0.44523
2827.27549	0.43900
2825.34692	0.43241
2823.41836	0.42599
2821.48979	0.42006
2819.56123	0.41440
2817.63267	0.40880
2815.70410	0.40312
2813.77554	0.39721
2811.84697	0.39130
2809.91841	0.38570
2807.98984	0.38036
2806.06128	0.37501
2804.13271	0.36961
2802.20415	0.36433
2800.27559	0.35928
2798.34702	0.35436
2796.41846	0.34948
2794.48989	0.34480
2792.56133	0.34032
2790.63276	0.33582
2788.70420	0.33129
2786.77563	0.32679
2784.84707	0.32230
2782.91851	0.31781
2780.98994	0.31339
2779.06138	0.30920
2777.13281	0.30534
2775.20425	0.30161
2773.27568	0.29774
2771.34712	0.29380
2769.41855	0.28989
2767.48999	0.28616
2765.56143	0.28268
2763.63286	0.27931
2761.70430	0.27585
2759.77573	0.27242
2757.84717	0.26918
2755.91860	0.26597
2753.99004	0.26274
2752.06147	0.25967
2750.13291	0.25677
2748.20435	0.25388
2746.27578	0.25092
2744.34722	0.24798
2742.41865	0.24513
2740.49009	0.24231
2738.56152	0.23953
2736.63296	0.23700
2734.70439	0.23472
2732.77583	0.23245
2730.84727	0.22999
2728.91870	0.22742
2726.99014	0.22498
2725.06157	0.22272
2723.13301	0.22058
2721.20444	0.21844
2719.27588	0.21627
2717.34731	0.21410
2715.41875	0.21195
2713.49019	0.20992
2711.56162	0.20817
2709.63306	0.20662
2707.70449	0.20491
2705.77593	0.20309
2703.84736	0.20142
2701.91880	0.19974
2699.99023	0.19803
2698.06167	0.19651
2696.13311	0.19511
2694.20454	0.19360
2692.27598	0.19209
2690.34741	0.19065
2688.41885	0.18935
2686.49028	0.18819
2684.56172	0.18699
2682.63315	0.18561
2680.70459	0.18422
2678.77603	0.18295
2676.84746	0.18171
2674.91890	0.18058
2672.99033	0.17952
2671.06177	0.17840
2669.13320	0.17728
2667.20464	0.17620
2665.27607	0.17518
2663.34751	0.17420
2661.41895	0.17320
2659.49038	0.17224
2657.56182	0.17134
2655.63325	0.17049
2653.70469	0.16973
2651.77612	0.16897
2649.84756	0.16824
2647.91899	0.16755
2645.99043	0.16689
2644.06187	0.16637
2642.13330	0.16593
2640.20474	0.16543
2638.27617	0.16484
2636.34761	0.16420
2634.41904	0.16358
2632.49048	0.16310
2630.56191	0.16266
2628.63335	0.16217
2626.70479	0.16173
2624.77622	0.16136
2622.84766	0.16106
2620.91909	0.16085
2618.99053	0.16055
2617.06196	0.16021
2615.13340	0.16000
2613.20483	0.15980
2611.27627	0.15961
2609.34771	0.15951
2607.41914	0.15941
2605.49058	0.15922
2603.56201	0.15905
2601.63345	0.15912
2599.70488	0.15925
2597.77632	0.15921
2595.84775	0.15909
2593.91919	0.15897
2591.99062	0.15883
2590.06206	0.15877
2588.13350	0.15890
2586.20493	0.15922
2584.27637	0.15962
2582.34780	0.15994
2580.41924	0.16015
2578.49067	0.16035
2576.56211	0.16062
2574.63354	0.16093
2572.70498	0.16123
2570.77642	0.16152
2568.84785	0.16180
2566.91929	0.16204
2564.99072	0.16227
2563.06216	0.16260
2561.13359	0.16311
2559.20503	0.16366
2557.27646	0.16409
2555.34790	0.16455
2553.41934	0.16502
2551.49077	0.16542
2549.56221	0.16589
2547.63364	0.16653
2545.70508	0.16721
2543.77651	0.16793
2541.84795	0.16862
2539.91938	0.16918
2537.99082	0.16972
2536.06226	0.17028
2534.13369	0.17083
2532.20513	0.17146
2530.27656	0.17215
2528.34800	0.17286
2526.41943	0.17356
2524.49087	0.17425
2522.56230	0.17489
2520.63374	0.17548
2518.70518	0.17618
2516.77661	0.17702
2514.84805	0.17779
2512.91948	0.17845
2510.99092	0.17914
2509.06235	0.17994
2507.13379	0.18084
2505.20522	0.18175
2503.27666	0.18257
2501.34810	0.18339
2499.41953	0.18427
2497.49097	0.18509
2495.56240	0.18580
2493.63384	0.18645
2491.70527	0.18724
2489.77671	0.18825
2487.84814	0.18915
2485.91958	0.18986
2483.99102	0.19063
2482.06245	0.19149
2480.13389	0.19238
2478.20532	0.19337
2476.27676	0.19431
2474.34819	0.19515
2472.41963	0.19609
2470.49106	0.19713
2468.56250	0.19815
2466.63394	0.19901
2464.70537	0.19968
2462.77681	0.20040
2460.84824	0.20121
2458.91968	0.20204
2456.99111	0.20296
2455.06255	0.20396
2453.13398	0.20502
2451.20542	0.20602
2449.27686	0.20687
2447.34829	0.20766
2445.41973	0.20856
2443.49116	0.20959
2441.56260	0.21076
2439.63403	0.21193
2437.70547	0.21291
2435.77690	0.21378
2433.84834	0.21479
2431.91978	0.21595
2429.99121	0.21708
2428.06265	0.21810
2426.13408	0.21909
2424.20552	0.22015
2422.27695	0.22133
2420.34839	0.22247
2418.41982	0.22350
2416.49126	0.22454
2414.56270	0.22567
2412.63413	0.22683
2410.70557	0.22800
2408.77700	0.22928
2406.84844	0.23056
2404.91987	0.23170
2402.99131	0.23272
2401.06274	0.23380
2399.13418	0.23506
2397.20562	0.23637
2395.27705	0.23762
2393.34849	0.23885
2391.41992	0.24013
2389.49136	0.24139
2387.56279	0.24261
2385.63423	0.24375
2383.70566	0.24481
2381.77710	0.24580
2379.84854	0.24692
2377.91997	0.24824
2375.99141	0.24950
2374.06284	0.25066
2372.13428	0.25184
2370.20571	0.25275
2368.27715	0.25331
2366.34858	0.25413
2364.42002	0.25435
2362.49146	0.25388
2360.56289	0.25557
2358.63433	0.25870
2356.70576	0.26115
2354.77720	0.26404
2352.84863	0.26748
2350.92007	0.27001
2348.99150	0.27115
2347.06294	0.27157
2345.13437	0.27229
2343.20581	0.27383
2341.27725	0.27564
2339.34868	0.27719
2337.42012	0.27813
2335.49155	0.27925
2333.56299	0.28132
2331.63442	0.28372
2329.70586	0.28577
2327.77729	0.28749
2325.84873	0.28889
2323.92017	0.29038
2321.99160	0.29242
2320.06304	0.29486
2318.13447	0.29719
2316.20591	0.29908
2314.27734	0.30066
2312.34878	0.30234
2310.42021	0.30418
2308.49165	0.30600
2306.56309	0.30776
2304.63452	0.30947
2302.70596	0.31123
2300.77739	0.31320
2298.84883	0.31531
2296.92026	0.31731
2294.99170	0.31906
2293.06313	0.32075
2291.13457	0.32262
2289.20601	0.32464
2287.27744	0.32664
2285.34888	0.32863
2283.42031	0.33066
2281.49175	0.33264
2279.56318	0.33460
2277.63462	0.33660
2275.70605	0.33861
2273.77749	0.34071
2271.84893	0.34288
2269.92036	0.34493
2267.99180	0.34696
2266.06323	0.34914
2264.13467	0.35133
2262.20610	0.35341
2260.27754	0.35538
2258.34897	0.35739
2256.42041	0.35959
2254.49185	0.36194
2252.56328	0.36423
2250.63472	0.36647
2248.70615	0.36872
2246.77759	0.37102
2244.84902	0.37329
2242.92046	0.37539
2240.99189	0.37741
2239.06333	0.37956
2237.13477	0.38186
2235.20620	0.38417
2233.27764	0.38648
2231.34907	0.38881
2229.42051	0.39104
2227.49194	0.39325
2225.56338	0.39553
2223.63481	0.39774
2221.70625	0.39984
2219.77769	0.40197
2217.84912	0.40420
2215.92056	0.40646
2213.99199	0.40868
2212.06343	0.41081
2210.13486	0.41286
2208.20630	0.41485
2206.27773	0.41689
2204.34917	0.41905
2202.42061	0.42119
2200.49204	0.42327
2198.56348	0.42539
2196.63491	0.42749
2194.70635	0.42950
2192.77778	0.43137
2190.84922	0.43326
2188.92065	0.43524
2186.99209	0.43711
2185.06353	0.43878
2183.13496	0.44047
2181.20640	0.44219
2179.27783	0.44381
2177.34927	0.44534
2175.42070	0.44679
2173.49214	0.44824
2171.56357	0.44981
2169.63501	0.45141
2167.70645	0.45289
2165.77788	0.45421
2163.84932	0.45542
2161.92075	0.45651
2159.99219	0.45759
2158.06362	0.45868
2156.13506	0.45968
2154.20649	0.46056
2152.27793	0.46142
2150.34937	0.46222
2148.42080	0.46282
2146.49224	0.46328
2144.56367	0.46374
2142.63511	0.46422
2140.70654	0.46470
2138.77798	0.46515
2136.84941	0.46536
2134.92085	0.46524
2132.99229	0.46501
2131.06372	0.46490
2129.13516	0.46484
2127.20659	0.46463
2125.27803	0.46427
2123.34946	0.46387
2121.42090	0.46348
2119.49233	0.46299
2117.56377	0.46238
2115.63521	0.46164
2113.70664	0.46080
2111.77808	0.45991
2109.84951	0.45897
2107.92095	0.45794
2105.99238	0.45688
2104.06382	0.45576
2102.13525	0.45446
2100.20669	0.45309
2098.27812	0.45170
2096.34956	0.45026
2094.42100	0.44879
2092.49243	0.44721
2090.56387	0.44541
2088.63530	0.44354
2086.70674	0.44175
2084.77817	0.43989
2082.84961	0.43791
2080.92104	0.43595
2078.99248	0.43407
2077.06392	0.43207
2075.13535	0.42987
2073.20679	0.42761
2071.27822	0.42530
2069.34966	0.42302
2067.42109	0.42080
2065.49253	0.41849
2063.56396	0.41600
2061.63540	0.41346
2059.70684	0.41090
2057.77827	0.40838
2055.84971	0.40594
2053.92114	0.40348
2051.99258	0.40096
2050.06401	0.39835
2048.13545	0.39564
2046.20688	0.39284
2044.27832	0.39006
2042.34976	0.38742
2040.42119	0.38480
2038.49263	0.38208
2036.56406	0.37930
2034.63550	0.37648
2032.70693	0.37361
2030.77837	0.37079
2028.84980	0.36800
2026.92124	0.36511
2024.99268	0.36215
2023.06411	0.35933
2021.13555	0.35664
2019.20698	0.35390
2017.27842	0.35110
2015.34985	0.34832
2013.42129	0.34556
2011.49272	0.34276
2009.56416	0.33999
2007.63560	0.33730
2005.70703	0.33459
2003.77847	0.33181
2001.84990	0.32912
1999.92134	0.32647
1997.99277	0.32377
1996.06421	0.32109
1994.13564	0.31851
1992.20708	0.31606
1990.27852	0.31365
1988.34995	0.31122
1986.42139	0.30869
1984.49282	0.30618
1982.56426	0.30375
1980.63569	0.30133
1978.70713	0.29898
1976.77856	0.29673
1974.85000	0.29451
1972.92144	0.29234
1970.99287	0.29020
1969.06431	0.28798
1967.13574	0.28574
1965.20718	0.28366
1963.27861	0.28172
1961.35005	0.27983
1959.42148	0.27792
1957.49292	0.27607
1955.56436	0.27424
1953.63579	0.27242
1951.70723	0.27070
1949.77866	0.26903
1947.85010	0.26725
1945.92153	0.26551
1943.99297	0.26400
1942.06440	0.26255
1940.13584	0.26099
1938.20728	0.25945
1936.27871	0.25801
1934.35015	0.25675
1932.42158	0.25565
1930.49302	0.25453
1928.56445	0.25334
1926.63589	0.25215
1924.70732	0.25106
1922.77876	0.25000
1920.85020	0.24894
1918.92163	0.24797
1916.99307	0.24708
1915.06450	0.24624
1913.13594	0.24541
1911.20737	0.24462
1909.27881	0.24386
1907.35024	0.24320
1905.42168	0.24264
1903.49312	0.24208
1901.56455	0.24146
1899.63599	0.24088
1897.70742	0.24044
1895.77886	0.24003
1893.85029	0.23960
1891.92173	0.23914
1889.99316	0.23883
1888.06460	0.23862
1886.13604	0.23832
1884.20747	0.23803
1882.27891	0.23790
1880.35034	0.23786
1878.42178	0.23778
1876.49321	0.23775
1874.56465	0.23772
1872.63608	0.23768
1870.70752	0.23763
1868.77896	0.23782
1866.85039	0.23816
1864.92183	0.23833
1862.99326	0.23846
1861.06470	0.23866
1859.13613	0.23901
1857.20757	0.23942
1855.27900	0.23986
1853.35044	0.24028
1851.42187	0.24078
1849.49331	0.24129
1847.56475	0.24175
1845.63618	0.24236
1843.70762	0.24339
1841.77905	0.24442
1839.85049	0.24507
1837.92192	0.24588
1835.99336	0.24680
1834.06479	0.24767
1832.13623	0.24854
1830.20767	0.24984
1828.27910	0.25134
1826.35054	0.25239
1824.42197	0.25363
1822.49341	0.25508
1820.56484	0.25645
1818.63628	0.25785
1816.70771	0.25944
1814.77915	0.26096
1812.85059	0.26253
1810.92202	0.26444
1808.99346	0.26651
1807.06489	0.26851
1805.13633	0.27041
1803.20776	0.27245
1801.27920	0.27473
1799.35063	0.27751
1797.42207	0.28015
1795.49351	0.28249
1793.56494	0.28511
1791.63638	0.28874
1789.70781	0.29254
1787.77925	0.29539
1785.85068	0.29848
1783.92212	0.30211
1781.99355	0.30605
1780.06499	0.31030
1778.13643	0.31467
1776.20786	0.31851
1774.27930	0.32234
1772.35073	0.32775
1770.42217	0.33427
1768.49360	0.34004
1766.56504	0.34554
1764.63647	0.35090
1762.70791	0.35659
1760.77935	0.36400
1758.85078	0.37100
1756.92222	0.37798
1754.99365	0.38574
1753.06509	0.39260
1751.13652	0.40055
1749.20796	0.41092
1747.27939	0.42141
1745.35083	0.43057
1743.42227	0.44014
1741.49370	0.45064
1739.56514	0.46309
1737.63657	0.47556
1735.70801	0.48614
1733.77944	0.50227
1731.85088	0.52246
1729.92231	0.53848
1727.99375	0.55453
1726.06519	0.57143
1724.13662	0.58977
1722.20806	0.60967
1720.27949	0.62767
1718.35093	0.64832
1716.42236	0.68057
1714.49380	0.71257
1712.56523	0.73792
1710.63667	0.76187
1708.70811	0.78722
1706.77954	0.81573
1704.85098	0.85048
1702.92241	0.88169
1700.99385	0.91166
1699.06528	0.95738
1697.13672	1.00114
1695.20815	1.04680
1693.27959	1.09012
1691.35103	1.12402
1689.42246	1.16347
1687.49390	1.20523
1685.56533	1.24453
1683.63677	1.30801
1681.70820	1.37605
1679.77964	1.41763
1677.85107	1.45658
1675.92251	1.50138
1673.99395	1.55865
1672.06538	1.61045
1670.13682	1.66048
1668.20825	1.72741
1666.27969	1.78219
1664.35112	1.82800
1662.42256	1.88606
1660.49399	1.95256
1658.56543	2.00233
1656.63687	2.04081
1654.70830	2.07428
1652.77974	2.13131
1650.85117	2.19389
1648.92261	2.21662
1646.99404	2.24297
1645.06548	2.27122
1643.13691	2.28795
1641.20835	2.29463
1639.27979	2.30205
1637.35122	2.30859
1635.42266	2.30900
1633.49409	2.30099
1631.56553	2.28732
1629.63696	2.27052
1627.70840	2.24211
1625.77983	2.20948
1623.85127	2.16811
1621.92271	2.11680
1619.99414	2.07093
1618.06558	2.02606
1616.13701	1.96138
1614.20845	1.89635
1612.27988	1.84807
1610.35132	1.79736
1608.42275	1.74222
1606.49419	1.68799
1604.56562	1.63770
1602.63706	1.58884
1600.70850	1.54153
1598.77993	1.49815
1596.85137	1.45733
1594.92280	1.41801
1592.99424	1.38034
1591.06567	1.34568
1589.13711	1.31287
1587.20854	1.28252
1585.27998	1.25504
1583.35142	1.22991
1581.42285	1.20717
1579.49429	1.18759
1577.56572	1.16984
1575.63716	1.14801
1573.70859	1.12898
1571.78003	1.11674
1569.85146	1.10415
1567.92290	1.09071
1565.99434	1.08119
1564.06577	1.07393
1562.13721	1.06809
1560.20864	1.06439
1558.28008	1.06220
1556.35151	1.06162
1554.42295	1.06091
1552.49438	1.06012
1550.56582	1.05820
1548.63726	1.05420
1546.70869	1.04790
1544.78013	1.03846
1542.85156	1.02604
1540.92300	1.00855
1538.99443	0.98186
1537.06587	0.96385
1535.13730	0.95149
1533.20874	0.93387
1531.28018	0.91536
1529.35161	0.90241
1527.42305	0.88969
1525.49448	0.87597
1523.56592	0.86441
1521.63735	0.85348
1519.70879	0.84259
1517.78022	0.83397
1515.85166	0.82409
1513.92310	0.81340
1511.99453	0.80378
1510.06597	0.79492
1508.13740	0.78594
1506.20884	0.77172
1504.28027	0.76097
1502.35171	0.75544
1500.42314	0.75007
1498.49458	0.74397
1496.56602	0.73708
1494.63745	0.73054
1492.70889	0.72530
1490.78032	0.72027
1488.85176	0.71451
1486.92319	0.70967
1484.99463	0.70603
1483.06606	0.70303
1481.13750	0.70056
1479.20894	0.69863
1477.28037	0.69720
1475.35181	0.69613
1473.42324	0.69540
1471.49468	0.69467
1469.56611	0.69338
1467.63755	0.69143
1465.70898	0.68935
1463.78042	0.68792
1461.85186	0.68735
1459.92329	0.68702
1457.99473	0.68665
1456.06616	0.68613
1454.13760	0.68486
1452.20903	0.68296
1450.28047	0.68053
1448.35190	0.67784
1446.42334	0.67524
1444.49478	0.67293
1442.56621	0.67067
1440.63765	0.66832
1438.70908	0.66599
1436.78052	0.66314
1434.85195	0.65999
1432.92339	0.65756
1430.99482	0.65573
1429.06626	0.65457
1427.13770	0.65423
1425.20913	0.65442
1423.28057	0.65484
1421.35200	0.65505
1419.42344	0.65506
1417.49487	0.65488
1415.56631	0.65391
1413.63774	0.65281
1411.70918	0.65243
1409.78062	0.65280
1407.85205	0.65332
1405.92349	0.65383
1403.99492	0.65438
1402.06636	0.65438
1400.13779	0.65346
1398.20923	0.65156
1396.28066	0.64888
1394.35210	0.64558
1392.42354	0.64212
1390.49497	0.63888
1388.56641	0.63547
1386.63784	0.63152
1384.70928	0.62748
1382.78071	0.62373
1380.85215	0.62007
1378.92358	0.61674
1376.99502	0.61420
1375.06646	0.61256
1373.13789	0.61158
1371.20933	0.61092
1369.28076	0.61032
1367.35220	0.60945
1365.42363	0.60819
1363.49507	0.60670
1361.56650	0.60515
1359.63794	0.60374
1357.70937	0.60247
1355.78081	0.60116
1353.85225	0.59985
1351.92368	0.59872
1349.99512	0.59778
1348.06655	0.59693
1346.13799	0.59609
1344.20942	0.59521
1342.28086	0.59424
1340.35229	0.59327
1338.42373	0.59244
1336.49517	0.59179
1334.56660	0.59131
1332.63804	0.59095
1330.70947	0.59071
1328.78091	0.59068
1326.85234	0.59089
1324.92378	0.59134
1322.99521	0.59201
1321.06665	0.59254
1319.13809	0.59278
1317.20952	0.59286
1315.28096	0.59276
1313.35239	0.59232
1311.42383	0.59156
1309.49526	0.59077
1307.56670	0.59008
1305.63813	0.58936
1303.70957	0.58838
1301.78101	0.58718
1299.85244	0.58604
1297.92388	0.58498
1295.99531	0.58382
1294.06675	0.58266
1292.13818	0.58150
1290.20962	0.58014
1288.28105	0.57878
1286.35249	0.57773
1284.42393	0.57686
1282.49536	0.57586
1280.56680	0.57466
1278.63823	0.57326
1276.70967	0.57185
1274.78110	0.57066
1272.85254	0.56973
1270.92397	0.56900
1268.99541	0.56834
1267.06685	0.56767
1265.13828	0.56710
1263.20972	0.56657
1261.28115	0.56585
1259.35259	0.56498
1257.42402	0.56436
1255.49546	0.56412
1253.56689	0.56394
1251.63833	0.56381
1249.70977	0.56390
1247.78120	0.56399
1245.85264	0.56387
1243.92407	0.56342
1241.99551	0.56250
1240.06694	0.56118
1238.13838	0.55969
1236.20981	0.55815
1234.28125	0.55637
1232.35269	0.55432
1230.42412	0.55217
1228.49556	0.55015
1226.56699	0.54836
1224.63843	0.54669
1222.70986	0.54514
1220.78130	0.54371
1218.85273	0.54231
1216.92417	0.54110
1214.99561	0.54010
1213.06704	0.53909
1211.13848	0.53815
1209.20991	0.53740
1207.28135	0.53681
1205.35278	0.53628
1203.42422	0.53557
1201.49565	0.53466
1199.56709	0.53376
1197.63853	0.53289
1195.70996	0.53199
1193.78140	0.53114
1191.85283	0.53051
1189.92427	0.53001
1187.99570	0.52947
1186.06714	0.52900
1184.13857	0.52886
1182.21001	0.52908
1180.28145	0.52970
1178.35288	0.53086
1176.42432	0.53240
1174.49575	0.53384
1172.56719	0.53486
1170.63862	0.53549
1168.71006	0.53584
1166.78149	0.53618
1164.85293	0.53680
1162.92437	0.53751
1160.99580	0.53799
1159.06724	0.53813
1157.13867	0.53784
1155.21011	0.53712
1153.28154	0.53598
1151.35298	0.53426
1149.42441	0.53204
1147.49585	0.52949
1145.56729	0.52664
1143.63872	0.52389
1141.71016	0.52156
1139.78159	0.51951
1137.85303	0.51789
1135.92446	0.51699
1133.99590	0.51676
1132.06733	0.51687
1130.13877	0.51689
1128.21021	0.51669
1126.28164	0.51635
1124.35308	0.51597
1122.42451	0.51581
1120.49595	0.51598
1118.56738	0.51632
1116.63882	0.51674
1114.71025	0.51721
1112.78169	0.51782
1110.85312	0.51868
1108.92456	0.51965
1106.99600	0.52063
1105.06743	0.52144
1103.13887	0.52212
1101.21030	0.52309
1099.28174	0.52441
1097.35317	0.52605
1095.42461	0.52839
1093.49604	0.53201
1091.56748	0.53723
1089.63892	0.54378
1087.71035	0.55147
1085.78179	0.56024
1083.85322	0.56919
1081.92466	0.57698
1079.99609	0.58260
1078.06753	0.58526
1076.13896	0.58461
1074.21040	0.58109
1072.28184	0.57545
1070.35327	0.56859
1068.42471	0.56145
1066.49614	0.55456
1064.56758	0.54811
1062.63901	0.54243
1060.71045	0.53786
1058.78188	0.53412
1056.85332	0.53051
1054.92476	0.52703
1052.99619	0.52408
1051.06763	0.52167
1049.13906	0.52008
1047.21050	0.51941
1045.28193	0.51934
1043.35337	0.51970
1041.42480	0.52020
1039.49624	0.52055
1037.56768	0.52068
1035.63911	0.52061
1033.71055	0.52011
1031.78198	0.51891
1029.85342	0.51716
1027.92485	0.51516
1025.99629	0.51305
1024.06772	0.51118
1022.13916	0.50993
1020.21060	0.50923
1018.28203	0.50882
1016.35347	0.50851
1014.42490	0.50810
1012.49634	0.50764
1010.56777	0.50734
1008.63921	0.50701
1006.71064	0.50679
1004.78208	0.50741
1002.85352	0.50907
1000.92495	0.51150
998.99639	0.51463
997.06782	0.51859
995.13926	0.52319
993.21069	0.52749
991.28213	0.53050
989.35356	0.53231
987.42500	0.53311
985.49644	0.53276
983.56787	0.53203
981.63931	0.53198
979.71074	0.53266
977.78218	0.53371
975.85361	0.53539
973.92505	0.53781
971.99648	0.54068
970.06792	0.54392
968.13936	0.54750
966.21079	0.55131
964.28223	0.55546
962.35366	0.55999
960.42510	0.56485
958.49653	0.57012
956.56797	0.57585
954.63940	0.58179
952.71084	0.58780
950.78228	0.59399
948.85371	0.60020
946.92515	0.60644
944.99658	0.61267
943.06802	0.61845
941.13945	0.62410
939.21089	0.63004
937.28232	0.63608
935.35376	0.64209
933.42520	0.64785
931.49663	0.65332
929.56807	0.65885
927.63950	0.66437
925.71094	0.67009
923.78237	0.67676
921.85381	0.68394
919.92524	0.69062
917.99668	0.69702
916.06812	0.70336
914.13955	0.70978
912.21099	0.71711
910.28242	0.72561
908.35386	0.73445
906.42529	0.74337
904.49673	0.75227
902.56816	0.76043
900.63960	0.76850
898.71104	0.77805
896.78247	0.78843
894.85391	0.79814
892.92534	0.80723
890.99678	0.81647
889.06821	0.82705
887.13965	0.83902
885.21108	0.85059
883.28252	0.86127
881.35396	0.87194
879.42539	0.88315
877.49683	0.89474
875.56826	0.90631
873.63970	0.91794
871.71113	0.93000
869.78257	0.94186
867.85400	0.95326
865.92544	0.96508
863.99687	0.97689
862.06831	0.98845
860.13975	1.00057
858.21118	1.01376
856.28262	1.02671
854.35405	1.03737
852.42549	1.04641
850.49692	1.05559
848.56836	1.06641
846.63979	1.07895
844.71123	1.09059
842.78267	1.10048
840.85410	1.11167
838.92554	1.12503
836.99697	1.13776
835.06841	1.14837
833.13984	1.15882
831.21128	1.16927
829.28271	1.17759
827.35415	1.18743
825.42559	1.20273
823.49702	1.22132
821.56846	1.23603
819.63989	1.24250
817.71133	1.25129
815.78276	1.27033
813.85420	1.28979
811.92563	1.30084
809.99707	1.30400
808.06851	1.29999
806.13994	1.29398
804.21138	1.29723
802.28281	1.31969
800.35425	1.34636
798.42568	1.35472
796.49712	1.36379
794.56855	1.38887
792.63999	1.40860
790.71143	1.40079
788.78286	1.38945
786.85430	1.40929
784.92573	1.44341
782.99717	1.46748
781.06860	1.47953
779.14004	1.45270
777.21147	1.41859
775.28291	1.43190
773.35435	1.45664
771.42578	1.47127
769.49722	1.55832
767.56865	1.67888
765.64009	1.58351
763.71152	1.44604
761.78296	1.39134
759.85439	1.34446
757.92583	1.31264
755.99727	1.29979
754.06870	1.27864
752.14014	1.28084
750.21157	1.26361
748.28301	1.19338
746.35444	1.18038
744.42588	1.29547
742.49731	1.38565
740.56875	1.13760
738.64019	0.94635
736.71162	0.95390
734.78306	1.03942
732.85449	0.78571
730.92593	0.50835
728.99736	0.38164
727.06880	0.35325
725.14023	0.37802
723.21167	0.40370
721.28311	0.37209
719.35454	0.29084
717.42598	0.17830
715.49741	0.12929
713.56885	0.16610
711.64028	0.14316
709.71172	0.13214
707.78315	0.13504
705.85459	0.17478
703.92603	0.28525
701.99746	0.47842
700.06890	0.73119
698.14033	0.81288
696.21177	0.72441
694.28320	0.74411
692.35464	0.80312
690.42607	0.83682
688.49751	0.67198
686.56895	0.44295
684.64038	0.37757
682.71182	0.48792
680.78325	0.66629
678.85469	0.98068
676.92612	4.06156
674.99756	4.04999
673.06899	1.33647
671.14043	0.54122
669.21187	0.32663
667.28330	0.32984
665.35474	0.62624
663.42617	1.35270
661.49761	0.75622
659.56904	0.49977
657.64048	0.42328
655.71191	0.40550
653.78335	0.41358
651.85479	0.50236
649.92622	0.70266
647.99766	0.62701
646.06909	0.45095
644.14053	0.43913
642.21196	0.45557
640.28340	0.39859
638.35483	0.37666
636.42627	0.41525
634.49771	0.45950
632.56914	0.39980
630.64058	0.31738
628.71201	0.38107
626.78345	0.57032
624.85488	0.54806
622.92632	0.39865
620.99775	0.35512
619.06919	0.42739
617.14062	0.56512
615.21206	0.57547
613.28350	0.45452
611.35493	0.43284
609.42637	0.53339
607.49780	0.54107
605.56924	0.37039
603.64067	0.29044
601.71211	0.30006
599.78354	0.37118
597.85498	0.52556
595.92642	0.53542
593.99785	0.36496
592.06929	0.31564
590.14072	0.32340
588.21216	0.30282
586.28359	0.27847
584.35503	0.30312
582.42646	0.38094
580.49790	0.41719
578.56934	0.42243
576.64077	0.41236
574.71221	0.38733
572.78364	0.36207
570.85508	0.32964
568.92651	0.36511
566.99795	0.49363
565.06938	0.55083
563.14082	0.55851
561.21226	0.68524
559.28369	0.65738
557.35513	0.50800
555.42656	0.43959
553.49800	0.38277
551.56943	0.33918
549.64087	0.32191
547.71230	0.30781
545.78374	0.32120
543.85518	0.39280
541.92661	0.40791
539.99805	0.32382
538.06948	0.26915
536.14092	0.28022
534.21235	0.33872
532.28379	0.37343
530.35522	0.33760
528.42666	0.26623
526.49810	0.22722
524.56953	0.25343
522.64097	0.27266
520.71240	0.23158
518.78384	0.19531
516.85527	0.20428
514.92671	0.26129
512.99814	0.32144
511.06958	0.33182
509.14102	0.33477
507.21245	0.34055
505.28389	0.30554
503.35532	0.31076
501.42676	0.38380
499.49819	0.50493
