3997.91411	0.10327
3995.98555	0.10345
3994.05698	0.10399
3992.12842	0.10441
3990.19985	0.10477
3988.27129	0.10545
3986.34272	0.10604
3984.41416	0.10617
3982.48560	0.10599
3980.55703	0.10610
3978.62847	0.10672
3976.69990	0.10730
3974.77134	0.10748
3972.84277	0.10754
3970.91421	0.10744
3968.98564	0.10729
3967.05708	0.10761
3965.12852	0.10823
3963.19995	0.10855
3961.27139	0.10845
3959.34282	0.10818
3957.41426	0.10802
3955.48569	0.10824
3953.55713	0.10882
3951.62856	0.10966
3949.70000	0.11042
3947.77144	0.11057
3945.84287	0.11026
3943.91431	0.11019
3941.98574	0.11035
3940.05718	0.11009
3938.12861	0.10966
3936.20005	0.10939
3934.27148	0.10928
3932.34292	0.10977
3930.41436	0.11031
3928.48579	0.10977
3926.55723	0.10929
3924.62866	0.11000
3922.70010	0.11072
3920.77153	0.11054
3918.84297	0.11051
3916.91440	0.11099
3914.98584	0.11060
3913.05728	0.10926
3911.12871	0.10825
3909.20015	0.10785
3907.27158	0.10852
3905.34302	0.11079
3903.41445	0.11354
3901.48589	0.11446
3899.55732	0.11319
3897.62876	0.11084
3895.70020	0.10907
3893.77163	0.10911
3891.84307	0.11052
3889.91450	0.11130
3887.98594	0.11080
3886.05737	0.11090
3884.12881	0.11193
3882.20024	0.11259
3880.27168	0.11209
3878.34312	0.11036
3876.41455	0.10949
3874.48599	0.11077
3872.55742	0.11310
3870.62886	0.11476
3868.70029	0.11459
3866.77173	0.11349
3864.84316	0.11414
3862.91460	0.11583
3860.98604	0.11564
3859.05747	0.11450
3857.12891	0.11481
3855.20034	0.11712
3853.27178	0.12102
3851.34321	0.12206
3849.41465	0.11870
3847.48608	0.11612
3845.55752	0.11569
3843.62896	0.11698
3841.70039	0.11925
3839.77183	0.12198
3837.84326	0.12424
3835.91470	0.12429
3833.98613	0.12285
3832.05757	0.12164
3830.12900	0.12114
3828.20044	0.12156
3826.27187	0.12280
3824.34331	0.12437
3822.41475	0.12681
3820.48618	0.13057
3818.55762	0.13247
3816.62905	0.13191
3814.70049	0.13036
3812.77192	0.12835
3810.84336	0.12772
3808.91479	0.12926
3806.98623	0.13241
3805.05767	0.13505
3803.12910	0.13664
3801.20054	0.13853
3799.27197	0.13957
3797.34341	0.13954
3795.41484	0.13941
3793.48628	0.13898
3791.55771	0.13894
3789.62915	0.13958
3787.70059	0.14081
3785.77202	0.14291
3783.84346	0.14518
3781.91489	0.14687
3779.98633	0.14886
3778.05776	0.15075
3776.12920	0.15125
3774.20063	0.15182
3772.27207	0.15394
3770.34351	0.15729
3768.41494	0.16010
3766.48638	0.16144
3764.55781	0.16245
3762.62925	0.16378
3760.70068	0.16642
3758.77212	0.17059
3756.84355	0.17422
3754.91499	0.17672
3752.98643	0.18008
3751.05786	0.18569
3749.12930	0.19101
3747.20073	0.19319
3745.27217	0.19561
3743.34360	0.19905
3741.41504	0.20177
3739.48647	0.20498
3737.55791	0.21041
3735.62935	0.21845
3733.70078	0.22594
3731.77222	0.22907
3729.84365	0.23101
3727.91509	0.23465
3725.98652	0.24034
3724.05796	0.24680
3722.12939	0.25287
3720.20083	0.25860
3718.27227	0.26378
3716.34370	0.26915
3714.41514	0.27630
3712.48657	0.28735
3710.55801	0.30328
3708.62944	0.31785
3706.70088	0.32796
3704.77231	0.33827
3702.84375	0.35176
3700.91519	0.36950
3698.98662	0.38802
3697.05806	0.40492
3695.12949	0.42303
3693.20093	0.44324
3691.27236	0.46640
3689.34380	0.49599
3687.41523	0.52963
3685.48667	0.55753
3683.55811	0.58229
3681.62954	0.61002
3679.70098	0.64253
3677.77241	0.67785
3675.84385	0.71942
3673.91528	0.77360
3671.98672	0.81649
3670.05815	0.85475
3668.12959	0.90713
3666.20103	0.95371
3664.27246	0.99305
3662.34390	1.03648
3660.41533	1.08398
3658.48677	1.13110
3656.55820	1.18161
3654.62964	1.23775
3652.70107	1.28462
3650.77251	1.32642
3648.84395	1.38570
3646.91538	1.45563
3644.98682	1.50269
3643.05825	1.53925
3641.12969	1.57866
3639.20112	1.62321
3637.27256	1.66854
3635.34399	1.71275
3633.41543	1.75720
3631.48687	1.79953
3629.55830	1.84322
3627.62974	1.89922
3625.70117	1.94848
3623.77261	1.98042
3621.84404	2.01181
3619.91548	2.04978
3617.98691	2.09712
3616.05835	2.14158
3614.12979	2.17837
3612.20122	2.21849
3610.27266	2.25904
3608.34409	2.29893
3606.41553	2.34110
3604.48696	2.37996
3602.55840	2.41487
3600.62983	2.45363
3598.70127	2.49544
3596.77271	2.53482
3594.84414	2.57540
3592.91558	2.61894
3590.98701	2.65865
3589.05845	2.69330
3587.12988	2.73529
3585.20132	2.78459
3583.27275	2.82745
3581.34419	2.86582
3579.41562	2.90531
3577.48706	2.94673
3575.55850	2.98925
3573.62993	3.03326
3571.70137	3.07565
3569.77280	3.11589
3567.84424	3.16035
3565.91567	3.21535
3563.98711	3.26486
3562.05854	3.30358
3560.12998	3.34497
3558.20142	3.39006
3556.27285	3.43492
3554.34429	3.47942
3552.41572	3.52712
3550.48716	3.57584
3548.55859	3.62061
3546.63003	3.66287
3544.70146	3.70967
3542.77290	3.76167
3540.84434	3.81049
3538.91577	3.85541
3536.98721	3.90043
3535.05864	3.94742
3533.13008	3.99377
3531.20151	4.03919
3529.27295	4.08623
3527.34438	4.13706
3525.41582	4.18822
3523.48726	4.23696
3521.55869	4.28748
3519.63013	4.33714
3517.70156	4.38155
3515.77300	4.42447
3513.84443	4.47162
3511.91587	4.52126
3509.98730	4.57048
3508.05874	4.62038
3506.13018	4.66997
3504.20161	4.71654
3502.27305	4.76367
3500.34448	4.81558
3498.41592	4.86215
3496.48735	4.89963
3494.55879	4.94164
3492.63022	4.99484
3490.70166	5.04973
3488.77310	5.09557
3486.84453	5.13644
3484.91597	5.18672
3482.98740	5.24525
3481.05884	5.30067
3479.13027	5.35179
3477.20171	5.40129
3475.27314	5.44484
3473.34458	5.48470
3471.41602	5.52564
3469.48745	5.56826
3467.55889	5.61804
3465.63032	5.67073
3463.70176	5.72190
3461.77319	5.77652
3459.84463	5.83740
3457.91606	5.89773
3455.98750	5.94619
3454.05894	5.98582
3452.13037	6.03093
3450.20181	6.08214
3448.27324	6.13013
3446.34468	6.17580
3444.41611	6.22369
3442.48755	6.27751
3440.55898	6.32545
3438.63042	6.36629
3436.70186	6.41204
3434.77329	6.45668
3432.84473	6.50590
3430.91616	6.57965
3428.98760	6.66498
3427.05903	6.72322
3425.13047	6.76901
3423.20190	6.82045
3421.27334	6.85762
3419.34478	6.88182
3417.41621	6.90596
3415.48765	6.91965
3413.55908	6.93756
3411.63052	6.99708
3409.70195	7.06980
3407.77339	7.12657
3405.84482	7.20052
3403.91626	7.28317
3401.98770	7.29997
3400.05913	7.28681
3398.13057	7.31891
3396.20200	7.38210
3394.27344	7.45748
3392.34487	7.51724
3390.41631	7.54334
3388.48774	7.54634
3386.55918	7.58571
3384.63062	7.67546
3382.70205	7.74426
3380.77349	7.74770
3378.84492	7.71415
3376.91636	7.72550
3374.98779	7.77867
3373.05923	7.80129
3371.13066	7.79862
3369.20210	7.82189
3367.27354	7.82605
3365.34497	7.81597
3363.41641	7.86951
3361.48784	7.94771
3359.55928	7.98182
3357.63071	7.97867
3355.70215	7.98531
3353.77358	8.01832
3351.84502	8.08337
3349.91646	8.11902
3347.98789	8.09623
3346.05933	8.07452
3344.13076	8.06626
3342.20220	8.08920
3340.27363	8.13794
3338.34507	8.17239
3336.41650	8.18520
3334.48794	8.21065
3332.55937	8.22745
3330.63081	8.21576
3328.70225	8.18428
3326.77368	8.12965
3324.84512	8.09560
3322.91655	8.11791
3320.98799	8.19015
3319.05942	8.27319
3317.13086	8.33955
3315.20229	8.31885
3313.27373	8.22210
3311.34517	8.16920
3309.41660	8.17785
3307.48804	8.22131
3305.55947	8.26135
3303.63091	8.24501
3301.70234	8.21249
3299.77378	8.25170
3297.84521	8.33839
3295.91665	8.39853
3293.98809	8.41971
3292.05952	8.40482
3290.13096	8.35425
3288.20239	8.31019
3286.27383	8.31782
3284.34526	8.40857
3282.41670	8.55330
3280.48813	8.61717
3278.55957	8.58701
3276.63101	8.51262
3274.70244	8.44199
3272.77388	8.47103
3270.84531	8.53082
3268.91675	8.45288
3266.98818	8.29943
3265.05962	8.25141
3263.13105	8.33461
3261.20249	8.42707
3259.27393	8.42211
3257.34536	8.38608
3255.41680	8.41060
3253.48823	8.45454
3251.55967	8.44229
3249.63110	8.42257
3247.70254	8.45196
3245.77397	8.45268
3243.84541	8.35537
3241.91685	8.24708
3239.98828	8.21838
3238.05972	8.23537
3236.13115	8.25606
3234.20259	8.24983
3232.27402	8.23014
3230.34546	8.24274
3228.41689	8.24428
3226.48833	8.21676
3224.55977	8.17118
3222.63120	8.13552
3220.70264	8.16548
3218.77407	8.20412
3216.84551	8.17590
3214.91694	8.14429
3212.98838	8.11528
3211.05981	8.05452
3209.13125	8.02303
3207.20269	8.04546
3205.27412	8.05923
3203.34556	7.99338
3201.41699	7.90476
3199.48843	7.88720
3197.55986	7.90043
3195.63130	7.85280
3193.70273	7.76346
3191.77417	7.70411
3189.84561	7.65736
3187.91704	7.58789
3185.98848	7.53825
3184.05991	7.52939
3182.13135	7.50987
3180.20278	7.44683
3178.27422	7.34902
3176.34565	7.23574
3174.41709	7.15696
3172.48853	7.13790
3170.55996	7.11127
3168.63140	7.03670
3166.70283	6.96474
3164.77427	6.90169
3162.84570	6.82030
3160.91714	6.74598
3158.98857	6.70827
3157.06001	6.67929
3155.13145	6.62442
3153.20288	6.53897
3151.27432	6.43643
3149.34575	6.34926
3147.41719	6.29585
3145.48862	6.25441
3143.56006	6.19361
3141.63149	6.11520
3139.70293	6.04109
3137.77437	5.98023
3135.84580	5.91485
3133.91724	5.83701
3131.98867	5.76262
3130.06011	5.69377
3128.13154	5.62910
3126.20298	5.56649
3124.27441	5.49414
3122.34585	5.41114
3120.41729	5.32770
3118.48872	5.25144
3116.56016	5.18296
3114.63159	5.11546
3112.70303	5.04681
3110.77446	4.98083
3108.84590	4.91311
3106.91733	4.83960
3104.98877	4.76651
3103.06021	4.69983
3101.13164	4.63834
3099.20308	4.57702
3097.27451	4.51182
3095.34595	4.44501
3093.41738	4.38093
3091.48882	4.31869
3089.56025	4.25627
3087.63169	4.19309
3085.70312	4.12972
3083.77456	4.06699
3081.84600	4.00558
3079.91743	3.94549
3077.98887	3.88422
3076.06030	3.82222
3074.13174	3.76362
3072.20317	3.70809
3070.27461	3.65314
3068.34604	3.59782
3066.41748	3.54097
3064.48892	3.48398
3062.56035	3.42999
3060.63179	3.37893
3058.70322	3.32672
3056.77466	3.27145
3054.84609	3.21690
3052.91753	3.16498
3050.98896	3.11360
3049.06040	3.06241
3047.13184	3.01265
3045.20327	2.96406
3043.27471	2.91526
3041.34614	2.86587
3039.41758	2.81753
3037.48901	2.77142
3035.56045	2.72679
3033.63188	2.68279
3031.70332	2.63822
3029.77476	2.59266
3027.84619	2.54838
3025.91763	2.50642
3023.98906	2.46476
3022.06050	2.42242
3020.13193	2.38038
3018.20337	2.33998
3016.27480	2.30115
3014.34624	2.26193
3012.41768	2.22214
3010.48911	2.18339
3008.56055	2.14619
3006.63198	2.10994
3004.70342	2.07364
3002.77485	2.03782
3000.84629	2.00393
2998.91772	1.97126
2996.98916	1.93857
2995.06060	1.90604
2993.13203	1.87402
2991.20347	1.84267
2989.27490	1.81238
2987.34634	1.78336
2985.41777	1.75482
2983.48921	1.72592
2981.56064	1.69741
2979.63208	1.67016
2977.70352	1.64377
2975.77495	1.61782
2973.84639	1.59229
2971.91782	1.56703
2969.98926	1.54172
2968.06069	1.51638
2966.13213	1.49163
2964.20356	1.46772
2962.27500	1.44386
2960.34644	1.41964
2958.41787	1.39576
2956.48931	1.37244
2954.56074	1.34927
2952.63218	1.32627
2950.70361	1.30359
2948.77505	1.28122
2946.84648	1.25915
2944.91792	1.23719
2942.98936	1.21535
2941.06079	1.19401
2939.13223	1.17325
2937.20366	1.15296
2935.27510	1.13261
2933.34653	1.11155
2931.41797	1.09011
2929.48940	1.06874
2927.56084	1.04754
2925.63228	1.02644
2923.70371	1.00494
2921.77515	0.98287
2919.84658	0.96109
2917.91802	0.94107
2915.98945	0.92404
2914.06089	0.91063
2912.13232	0.90057
2910.20376	0.89136
2908.27520	0.88039
2906.34663	0.86789
2904.41807	0.85508
2902.48950	0.84219
2900.56094	0.82909
2898.63237	0.81591
2896.70381	0.80297
2894.77524	0.79032
2892.84668	0.77797
2890.91812	0.76610
2888.98955	0.75496
2887.06099	0.74432
2885.13242	0.73380
2883.20386	0.72355
2881.27529	0.71377
2879.34673	0.70415
2877.41816	0.69439
2875.48960	0.68466
2873.56104	0.67492
2871.63247	0.66454
2869.70391	0.65331
2867.77534	0.64152
2865.84678	0.62929
2863.91821	0.61704
2861.98965	0.60496
2860.06108	0.59278
2858.13252	0.58061
2856.20396	0.56831
2854.27539	0.55536
2852.34683	0.54168
2850.41826	0.52874
2848.48970	0.51951
2846.56113	0.51499
2844.63257	0.51283
2842.70400	0.51045
2840.77544	0.50680
2838.84687	0.50201
2836.91831	0.49656
2834.98975	0.49079
2833.06118	0.48490
2831.13262	0.47891
2829.20405	0.47276
2827.27549	0.46652
2825.34692	0.46033
2823.41836	0.45427
2821.48979	0.44824
2819.56123	0.44216
2817.63267	0.43608
2815.70410	0.43013
2813.77554	0.42436
2811.84697	0.41884
2809.91841	0.41357
2807.98984	0.40830
2806.06128	0.40279
2804.13271	0.39718
2802.20415	0.39183
2800.27559	0.38683
2798.34702	0.38200
2796.41846	0.37711
2794.48989	0.37201
2792.56133	0.36710
2790.63276	0.36250
2788.70420	0.35790
2786.77563	0.35347
2784.84707	0.34936
2782.91851	0.34521
2780.98994	0.34091
2779.06138	0.33687
2777.13281	0.33305
2775.20425	0.32906
2773.27568	0.32488
2771.34712	0.32083
2769.41855	0.31705
2767.48999	0.31349
2765.56143	0.31014
2763.63286	0.30689
2761.70430	0.30349
2759.77573	0.29984
2757.84717	0.29621
2755.91860	0.29295
2753.99004	0.28997
2752.06147	0.28698
2750.13291	0.28381
2748.20435	0.28078
2746.27578	0.27800
2744.34722	0.27508
2742.41865	0.27202
2740.49009	0.26914
2738.56152	0.26660
2736.63296	0.26427
2734.70439	0.26192
2732.77583	0.25940
2730.84727	0.25673
2728.91870	0.25418
2726.99014	0.25196
2725.06157	0.24990
2723.13301	0.24779
2721.20444	0.24563
2719.27588	0.24340
2717.34731	0.24102
2715.41875	0.23873
2713.49019	0.23681
2711.56162	0.23507
2709.63306	0.23318
2707.70449	0.23129
2705.77593	0.22958
2703.84736	0.22803
2701.91880	0.22658
2699.99023	0.22513
2698.06167	0.22361
2696.13311	0.22212
2694.20454	0.22068
2692.27598	0.21911
2690.34741	0.21744
2688.41885	0.21599
2686.49028	0.21475
2684.56172	0.21351
2682.63315	0.21238
2680.70459	0.21136
2678.77603	0.21013
2676.84746	0.20870
2674.91890	0.20736
2672.99033	0.20616
2671.06177	0.20503
2669.13320	0.20391
2667.20464	0.20282
2665.27607	0.20183
2663.34751	0.20084
2661.41895	0.19989
2659.49038	0.19899
2657.56182	0.19811
2655.63325	0.19719
2653.70469	0.19628
2651.77612	0.19546
2649.84756	0.19477
2647.91899	0.19408
2645.99043	0.19324
2644.06187	0.19238
2642.13330	0.19174
2640.20474	0.19129
2638.27617	0.19090
2636.34761	0.19047
2634.41904	0.19002
2632.49048	0.18960
2630.56191	0.18920
2628.63335	0.18872
2626.70479	0.18815
2624.77622	0.18761
2622.84766	0.18727
2620.91909	0.18702
2618.99053	0.18675
2617.06196	0.18645
2615.13340	0.18609
2613.20483	0.18575
2611.27627	0.18552
2609.34771	0.18535
2607.41914	0.18527
2605.49058	0.18526
2603.56201	0.18526
2601.63345	0.18530
2599.70488	0.18524
2597.77632	0.18509
2595.84775	0.18506
2593.91919	0.18507
2591.99062	0.18501
2590.06206	0.18508
2588.13350	0.18529
2586.20493	0.18541
2584.27637	0.18551
2582.34780	0.18570
2580.41924	0.18593
2578.49067	0.18622
2576.56211	0.18649
2574.63354	0.18667
2572.70498	0.18691
2570.77642	0.18724
2568.84785	0.18757
2566.91929	0.18797
2564.99072	0.18844
2563.06216	0.18881
2561.13359	0.18912
2559.20503	0.18956
2557.27646	0.19010
2555.34790	0.19062
2553.41934	0.19108
2551.49077	0.19153
2549.56221	0.19203
2547.63364	0.19254
2545.70508	0.19298
2543.77651	0.19340
2541.84795	0.19386
2539.91938	0.19436
2537.99082	0.19498
2536.06226	0.19563
2534.13369	0.19617
2532.20513	0.19686
2530.27656	0.19776
2528.34800	0.19841
2526.41943	0.19885
2524.49087	0.19954
2522.56230	0.20043
2520.63374	0.20122
2518.70518	0.20188
2516.77661	0.20249
2514.84805	0.20312
2512.91948	0.20384
2510.99092	0.20461
2509.06235	0.20539
2507.13379	0.20620
2505.20522	0.20702
2503.27666	0.20781
2501.34810	0.20856
2499.41953	0.20926
2497.49097	0.20989
2495.56240	0.21069
2493.63384	0.21170
2491.70527	0.21263
2489.77671	0.21337
2487.84814	0.21410
2485.91958	0.21497
2483.99102	0.21589
2482.06245	0.21670
2480.13389	0.21737
2478.20532	0.21804
2476.27676	0.21881
2474.34819	0.21970
2472.41963	0.22069
2470.49106	0.22167
2468.56250	0.22248
2466.63394	0.22329
2464.70537	0.22421
2462.77681	0.22511
2460.84824	0.22599
2458.91968	0.22695
2456.99111	0.22801
2455.06255	0.22903
2453.13398	0.22996
2451.20542	0.23078
2449.27686	0.23153
2447.34829	0.23235
2445.41973	0.23325
2443.49116	0.23417
2441.56260	0.23516
2439.63403	0.23621
2437.70547	0.23727
2435.77690	0.23837
2433.84834	0.23945
2431.91978	0.24039
2429.99121	0.24131
2428.06265	0.24231
2426.13408	0.24330
2424.20552	0.24430
2422.27695	0.24541
2420.34839	0.24654
2418.41982	0.24755
2416.49126	0.24860
2414.56270	0.24976
2412.63413	0.25089
2410.70557	0.25196
2408.77700	0.25300
2406.84844	0.25412
2404.91987	0.25531
2402.99131	0.25650
2401.06274	0.25771
2399.13418	0.25896
2397.20562	0.26017
2395.27705	0.26135
2393.34849	0.26250
2391.41992	0.26369
2389.49136	0.26514
2387.56279	0.26707
2385.63423	0.26973
2383.70566	0.27337
2381.77710	0.27804
2379.84854	0.28359
2377.91997	0.28987
2375.99141	0.29687
2374.06284	0.30476
2372.13428	0.31377
2370.20571	0.32372
2368.27715	0.33392
2366.34858	0.34342
2364.42002	0.35101
2362.49146	0.35699
2360.56289	0.36174
2358.63433	0.36343
2356.70576	0.36140
2354.77720	0.35597
2352.84863	0.34777
2350.92007	0.33930
2348.99150	0.33424
2347.06294	0.33475
2345.13437	0.34138
2343.20581	0.35074
2341.27725	0.35647
2339.34868	0.35809
2337.42012	0.35815
2335.49155	0.35822
2333.56299	0.35865
2331.63442	0.35900
2329.70586	0.35887
2327.77729	0.35843
2325.84873	0.35747
2323.92017	0.35595
2321.99160	0.35399
2320.06304	0.35161
2318.13447	0.34942
2316.20591	0.34791
2314.27734	0.34719
2312.34878	0.34720
2310.42021	0.34738
2308.49165	0.34704
2306.56309	0.34620
2304.63452	0.34554
2302.70596	0.34555
2300.77739	0.34611
2298.84883	0.34690
2296.92026	0.34786
2294.99170	0.34885
2293.06313	0.34971
2291.13457	0.35055
2289.20601	0.35144
2287.27744	0.35236
2285.34888	0.35334
2283.42031	0.35462
2281.49175	0.35636
2279.56318	0.35843
2277.63462	0.36061
2275.70605	0.36295
2273.77749	0.36535
2271.84893	0.36747
2269.92036	0.36938
2267.99180	0.37140
2266.06323	0.37345
2264.13467	0.37537
2262.20610	0.37727
2260.27754	0.37919
2258.34897	0.38113
2256.42041	0.38310
2254.49185	0.38510
2252.56328	0.38713
2250.63472	0.38923
2248.70615	0.39126
2246.77759	0.39324
2244.84902	0.39531
2242.92046	0.39753
2240.99189	0.39983
2239.06333	0.40201
2237.13477	0.40411
2235.20620	0.40632
2233.27764	0.40858
2231.34907	0.41072
2229.42051	0.41274
2227.49194	0.41475
2225.56338	0.41684
2223.63481	0.41898
2221.70625	0.42121
2219.77769	0.42358
2217.84912	0.42588
2215.92056	0.42793
2213.99199	0.42990
2212.06343	0.43201
2210.13486	0.43421
2208.20630	0.43640
2206.27773	0.43862
2204.34917	0.44081
2202.42061	0.44283
2200.49204	0.44470
2198.56348	0.44658
2196.63491	0.44850
2194.70635	0.45050
2192.77778	0.45250
2190.84922	0.45436
2188.92065	0.45618
2186.99209	0.45804
2185.06353	0.45980
2183.13496	0.46145
2181.20640	0.46310
2179.27783	0.46475
2177.34927	0.46639
2175.42070	0.46795
2173.49214	0.46945
2171.56357	0.47099
2169.63501	0.47250
2167.70645	0.47382
2165.77788	0.47502
2163.84932	0.47621
2161.92075	0.47735
2159.99219	0.47840
2158.06362	0.47935
2156.13506	0.48030
2154.20649	0.48127
2152.27793	0.48218
2150.34937	0.48285
2148.42080	0.48334
2146.49224	0.48384
2144.56367	0.48442
2142.63511	0.48493
2140.70654	0.48521
2138.77798	0.48532
2136.84941	0.48540
2134.92085	0.48557
2132.99229	0.48576
2131.06372	0.48577
2129.13516	0.48558
2127.20659	0.48533
2125.27803	0.48503
2123.34946	0.48463
2121.42090	0.48415
2119.49233	0.48363
2117.56377	0.48300
2115.63521	0.48215
2113.70664	0.48120
2111.77808	0.48037
2109.84951	0.47953
2107.92095	0.47856
2105.99238	0.47751
2104.06382	0.47641
2102.13525	0.47519
2100.20669	0.47386
2098.27812	0.47240
2096.34956	0.47076
2094.42100	0.46908
2092.49243	0.46751
2090.56387	0.46597
2088.63530	0.46427
2086.70674	0.46246
2084.77817	0.46058
2082.84961	0.45862
2080.92104	0.45658
2078.99248	0.45454
2077.06392	0.45247
2075.13535	0.45034
2073.20679	0.44819
2071.27822	0.44606
2069.34966	0.44386
2067.42109	0.44161
2065.49253	0.43935
2063.56396	0.43692
2061.63540	0.43433
2059.70684	0.43172
2057.77827	0.42906
2055.84971	0.42634
2053.92114	0.42369
2051.99258	0.42112
2050.06401	0.41856
2048.13545	0.41605
2046.20688	0.41353
2044.27832	0.41095
2042.34976	0.40824
2040.42119	0.40538
2038.49263	0.40251
2036.56406	0.39967
2034.63550	0.39678
2032.70693	0.39385
2030.77837	0.39106
2028.84980	0.38833
2026.92124	0.38561
2024.99268	0.38287
2023.06411	0.38013
2021.13555	0.37744
2019.20698	0.37484
2017.27842	0.37211
2015.34985	0.36900
2013.42129	0.36584
2011.49272	0.36302
2009.56416	0.36044
2007.63560	0.35780
2005.70703	0.35502
2003.77847	0.35218
2001.84990	0.34936
1999.92134	0.34664
1997.99277	0.34404
1996.06421	0.34147
1994.13564	0.33899
1992.20708	0.33662
1990.27852	0.33407
1988.34995	0.33143
1986.42139	0.32884
1984.49282	0.32630
1982.56426	0.32386
1980.63569	0.32145
1978.70713	0.31902
1976.77856	0.31663
1974.85000	0.31430
1972.92144	0.31206
1970.99287	0.31002
1969.06431	0.30824
1967.13574	0.30638
1965.20718	0.30410
1963.27861	0.30174
1961.35005	0.29953
1959.42148	0.29746
1957.49292	0.29569
1955.56436	0.29409
1953.63579	0.29234
1951.70723	0.29046
1949.77866	0.28870
1947.85010	0.28716
1945.92153	0.28586
1943.99297	0.28466
1942.06440	0.28318
1940.13584	0.28131
1938.20728	0.27950
1936.27871	0.27794
1934.35015	0.27651
1932.42158	0.27516
1930.49302	0.27382
1928.56445	0.27258
1926.63589	0.27156
1924.70732	0.27089
1922.77876	0.27024
1920.85020	0.26921
1918.92163	0.26816
1916.99307	0.26709
1915.06450	0.26575
1913.13594	0.26461
1911.20737	0.26403
1909.27881	0.26360
1907.35024	0.26283
1905.42168	0.26185
1903.49312	0.26105
1901.56455	0.26039
1899.63599	0.25979
1897.70742	0.25940
1895.77886	0.25917
1893.85029	0.25889
1891.92173	0.25860
1889.99316	0.25846
1888.06460	0.25809
1886.13604	0.25756
1884.20747	0.25723
1882.27891	0.25694
1880.35034	0.25664
1878.42178	0.25649
1876.49321	0.25642
1874.56465	0.25631
1872.63608	0.25648
1870.70752	0.25724
1868.77896	0.25846
1866.85039	0.25882
1864.92183	0.25810
1862.99326	0.25754
1861.06470	0.25749
1859.13613	0.25774
1857.20757	0.25801
1855.27900	0.25835
1853.35044	0.25876
1851.42187	0.25934
1849.49331	0.26009
1847.56475	0.26105
1845.63618	0.26222
1843.70762	0.26330
1841.77905	0.26367
1839.85049	0.26377
1837.92192	0.26442
1835.99336	0.26532
1834.06479	0.26626
1832.13623	0.26753
1830.20767	0.26938
1828.27910	0.27090
1826.35054	0.27167
1824.42197	0.27256
1822.49341	0.27338
1820.56484	0.27428
1818.63628	0.27554
1816.70771	0.27713
1814.77915	0.27883
1812.85059	0.28080
1810.92202	0.28311
1808.99346	0.28515
1807.06489	0.28677
1805.13633	0.28848
1803.20776	0.29089
1801.27920	0.29380
1799.35063	0.29670
1797.42207	0.29911
1795.49351	0.30153
1793.56494	0.30456
1791.63638	0.30820
1789.70781	0.31110
1787.77925	0.31321
1785.85068	0.31622
1783.92212	0.31998
1781.99355	0.32406
1780.06499	0.32836
1778.13643	0.33258
1776.20786	0.33660
1774.27930	0.34127
1772.35073	0.34759
1770.42217	0.35375
1768.49360	0.35834
1766.56504	0.36285
1764.63647	0.36787
1762.70791	0.37380
1760.77935	0.38117
1758.85078	0.38770
1756.92222	0.39421
1754.99365	0.40131
1753.06509	0.40783
1751.13652	0.41607
1749.20796	0.42659
1747.27939	0.43649
1745.35083	0.44486
1743.42227	0.45382
1741.49370	0.46397
1739.56514	0.47639
1737.63657	0.48920
1735.70801	0.50074
1733.77944	0.51828
1731.85088	0.53881
1729.92231	0.55436
1727.99375	0.56988
1726.06519	0.58652
1724.13662	0.60492
1722.20806	0.62496
1720.27949	0.64374
1718.35093	0.66638
1716.42236	0.70007
1714.49380	0.73058
1712.56523	0.75407
1710.63667	0.77729
1708.70811	0.80313
1706.77954	0.83303
1704.85098	0.86870
1702.92241	0.89988
1700.99385	0.93021
1699.06528	0.97694
1697.13672	1.02114
1695.20815	1.06624
1693.27959	1.10890
1691.35103	1.14296
1689.42246	1.18337
1687.49390	1.22688
1685.56533	1.26884
1683.63677	1.33451
1681.70820	1.40210
1679.77964	1.44311
1677.85107	1.48232
1675.92251	1.52837
1673.99395	1.58662
1672.06538	1.63865
1670.13682	1.68995
1668.20825	1.75846
1666.27969	1.81375
1664.35112	1.85934
1662.42256	1.91699
1660.49399	1.98471
1658.56543	2.03771
1656.63687	2.08043
1654.70830	2.12108
1652.77974	2.18598
1650.85117	2.24280
1648.92261	2.25824
1646.99404	2.28013
1645.06548	2.30568
1643.13691	2.32339
1641.20835	2.33363
1639.27979	2.34363
1637.35122	2.34828
1635.42266	2.34242
1633.49409	2.33105
1631.56553	2.31743
1629.63696	2.30161
1627.70840	2.27422
1625.77983	2.24006
1623.85127	2.19511
1621.92271	2.14105
1619.99414	2.09580
1618.06558	2.05369
1616.13701	1.98990
1614.20845	1.92279
1612.27988	1.87265
1610.35132	1.82051
1608.42275	1.76370
1606.49419	1.70799
1604.56562	1.65710
1602.63706	1.60732
1600.70850	1.55824
1598.77993	1.51396
1596.85137	1.47323
1594.92280	1.43355
1592.99424	1.39528
1591.06567	1.36070
1589.13711	1.32839
1587.20854	1.29828
1585.27998	1.27057
1583.35142	1.24510
1581.42285	1.22241
1579.49429	1.20360
1577.56572	1.18721
1575.63716	1.16640
1573.70859	1.14764
1571.78003	1.13642
1569.85146	1.12558
1567.92290	1.11291
1565.99434	1.10331
1564.06577	1.09661
1562.13721	1.09226
1560.20864	1.09132
1558.28008	1.09288
1556.35151	1.09247
1554.42295	1.09123
1552.49438	1.09056
1550.56582	1.08907
1548.63726	1.08554
1546.70869	1.08015
1544.78013	1.07283
1542.85156	1.06314
1540.92300	1.04754
1538.99443	1.01909
1537.06587	0.99741
1535.13730	0.98336
1533.20874	0.96480
1531.28018	0.94490
1529.35161	0.93096
1527.42305	0.91821
1525.49448	0.90498
1523.56592	0.89415
1521.63735	0.88432
1519.70879	0.87344
1517.78022	0.86358
1515.85166	0.85199
1513.92310	0.83980
1511.99453	0.82966
1510.06597	0.82130
1508.13740	0.81386
1506.20884	0.79971
1504.28027	0.78579
1502.35171	0.77835
1500.42314	0.77255
1498.49458	0.76672
1496.56602	0.75925
1494.63745	0.75117
1492.70889	0.74536
1490.78032	0.74093
1488.85176	0.73529
1486.92319	0.72886
1484.99463	0.72355
1483.06606	0.71974
1481.13750	0.71691
1479.20894	0.71473
1477.28037	0.71350
1475.35181	0.71318
1473.42324	0.71303
1471.49468	0.71141
1469.56611	0.70858
1467.63755	0.70618
1465.70898	0.70472
1463.78042	0.70387
1461.85186	0.70359
1459.92329	0.70458
1457.99473	0.70685
1456.06616	0.70704
1454.13760	0.70376
1452.20903	0.70071
1450.28047	0.69826
1448.35190	0.69607
1446.42334	0.69358
1444.49478	0.69083
1442.56621	0.68820
1440.63765	0.68569
1438.70908	0.68334
1436.78052	0.68057
1434.85195	0.67709
1432.92339	0.67430
1430.99482	0.67265
1429.06626	0.67170
1427.13770	0.67133
1425.20913	0.67170
1423.28057	0.67255
1421.35200	0.67320
1419.42344	0.67349
1417.49487	0.67280
1415.56631	0.67103
1413.63774	0.66960
1411.70918	0.66915
1409.78062	0.66953
1407.85205	0.67039
1405.92349	0.67166
1403.99492	0.67270
1402.06636	0.67288
1400.13779	0.67250
1398.20923	0.67138
1396.28066	0.66923
1394.35210	0.66579
1392.42354	0.66136
1390.49497	0.65742
1388.56641	0.65405
1386.63784	0.64998
1384.70928	0.64521
1382.78071	0.64082
1380.85215	0.63690
1378.92358	0.63352
1376.99502	0.63115
1375.06646	0.62982
1373.13789	0.62873
1371.20933	0.62763
1369.28076	0.62685
1367.35220	0.62596
1365.42363	0.62471
1363.49507	0.62347
1361.56650	0.62197
1359.63794	0.61997
1357.70937	0.61820
1355.78081	0.61689
1353.85225	0.61570
1351.92368	0.61452
1349.99512	0.61354
1348.06655	0.61266
1346.13799	0.61168
1344.20942	0.61076
1342.28086	0.61018
1340.35229	0.60995
1338.42373	0.60945
1336.49517	0.60837
1334.56660	0.60734
1332.63804	0.60675
1330.70947	0.60662
1328.78091	0.60671
1326.85234	0.60688
1324.92378	0.60731
1322.99521	0.60803
1321.06665	0.60870
1319.13809	0.60922
1317.20952	0.60956
1315.28096	0.60964
1313.35239	0.60933
1311.42383	0.60851
1309.49526	0.60752
1307.56670	0.60670
1305.63813	0.60600
1303.70957	0.60519
1301.78101	0.60417
1299.85244	0.60305
1297.92388	0.60195
1295.99531	0.60082
1294.06675	0.59961
1292.13818	0.59841
1290.20962	0.59728
1288.28105	0.59591
1286.35249	0.59433
1284.42393	0.59300
1282.49536	0.59188
1280.56680	0.59065
1278.63823	0.58931
1276.70967	0.58808
1274.78110	0.58690
1272.85254	0.58573
1270.92397	0.58476
1268.99541	0.58402
1267.06685	0.58334
1265.13828	0.58246
1263.20972	0.58148
1261.28115	0.58063
1259.35259	0.58004
1257.42402	0.57962
1255.49546	0.57923
1253.56689	0.57885
1251.63833	0.57864
1249.70977	0.57862
1247.78120	0.57866
1245.85264	0.57858
1243.92407	0.57813
1241.99551	0.57728
1240.06694	0.57616
1238.13838	0.57462
1236.20981	0.57259
1234.28125	0.57045
1232.35269	0.56838
1230.42412	0.56637
1228.49556	0.56448
1226.56699	0.56263
1224.63843	0.56070
1222.70986	0.55870
1220.78130	0.55687
1218.85273	0.55533
1216.92417	0.55398
1214.99561	0.55275
1213.06704	0.55172
1211.13848	0.55094
1209.20991	0.55028
1207.28135	0.54961
1205.35278	0.54881
1203.42422	0.54789
1201.49565	0.54691
1199.56709	0.54593
1197.63853	0.54496
1195.70996	0.54400
1193.78140	0.54311
1191.85283	0.54238
1189.92427	0.54173
1187.99570	0.54103
1186.06714	0.54046
1184.13857	0.54023
1182.21001	0.54039
1180.28145	0.54104
1178.35288	0.54208
1176.42432	0.54327
1174.49575	0.54451
1172.56719	0.54565
1170.63862	0.54645
1168.71006	0.54694
1166.78149	0.54740
1164.85293	0.54794
1162.92437	0.54844
1160.99580	0.54877
1159.06724	0.54886
1157.13867	0.54864
1155.21011	0.54807
1153.28154	0.54703
1151.35298	0.54539
1149.42441	0.54321
1147.49585	0.54062
1145.56729	0.53783
1143.63872	0.53505
1141.71016	0.53238
1139.78159	0.52999
1137.85303	0.52834
1135.92446	0.52773
1133.99590	0.52772
1132.06733	0.52776
1130.13877	0.52768
1128.21021	0.52745
1126.28164	0.52714
1124.35308	0.52688
1122.42451	0.52680
1120.49595	0.52695
1118.56738	0.52728
1116.63882	0.52781
1114.71025	0.52858
1112.78169	0.52942
1110.85312	0.53022
1108.92456	0.53094
1106.99600	0.53163
1105.06743	0.53249
1103.13887	0.53346
1101.21030	0.53438
1099.28174	0.53568
1097.35317	0.53752
1095.42461	0.53991
1093.49604	0.54323
1091.56748	0.54786
1089.63892	0.55393
1087.71035	0.56144
1085.78179	0.57015
1083.85322	0.57927
1081.92466	0.58743
1079.99609	0.59301
1078.06753	0.59527
1076.13896	0.59451
1074.21040	0.59120
1072.28184	0.58579
1070.35327	0.57895
1068.42471	0.57169
1066.49614	0.56492
1064.56758	0.55887
1062.63901	0.55371
1060.71045	0.54940
1058.78188	0.54559
1056.85332	0.54210
1054.92476	0.53886
1052.99619	0.53600
1051.06763	0.53364
1049.13906	0.53187
1047.21050	0.53086
1045.28193	0.53033
1043.35337	0.53010
1041.42480	0.53035
1039.49624	0.53081
1037.56768	0.53093
1035.63911	0.53061
1033.71055	0.52995
1031.78198	0.52890
1029.85342	0.52742
1027.92485	0.52562
1025.99629	0.52367
1024.06772	0.52194
1022.13916	0.52083
1020.21060	0.52036
1018.28203	0.52014
1016.35347	0.51972
1014.42490	0.51912
1012.49634	0.51873
1010.56777	0.51861
1008.63921	0.51867
1006.71064	0.51915
1004.78208	0.52024
1002.85352	0.52181
1000.92495	0.52399
998.99639	0.52712
997.06782	0.53111
995.13926	0.53547
993.21069	0.53961
991.28213	0.54272
989.35356	0.54438
987.42500	0.54494
985.49644	0.54486
983.56787	0.54452
981.63931	0.54440
979.71074	0.54493
977.78218	0.54622
975.85361	0.54804
973.92505	0.55014
971.99648	0.55255
970.06792	0.55544
968.13936	0.55907
966.21079	0.56332
964.28223	0.56779
962.35366	0.57247
960.42510	0.57735
958.49653	0.58234
956.56797	0.58771
954.63940	0.59355
952.71084	0.59953
950.78228	0.60544
948.85371	0.61144
946.92515	0.61773
944.99658	0.62397
943.06802	0.62999
941.13945	0.63599
939.21089	0.64178
937.28232	0.64756
935.35376	0.65364
933.42520	0.65985
931.49663	0.66599
929.56807	0.67157
927.63950	0.67663
925.71094	0.68232
923.78237	0.68900
921.85381	0.69573
919.92524	0.70194
917.99668	0.70795
916.06812	0.71440
914.13955	0.72187
912.21099	0.73011
910.28242	0.73835
908.35386	0.74631
906.42529	0.75395
904.49673	0.76201
902.56816	0.77146
900.63960	0.78212
898.71104	0.79282
896.78247	0.80220
894.85391	0.81119
892.92534	0.82163
890.99678	0.83309
889.06821	0.84477
887.13965	0.85614
885.21108	0.86649
883.28252	0.87614
881.35396	0.88618
879.42539	0.89720
877.49683	0.90887
875.56826	0.92099
873.63970	0.93335
871.71113	0.94488
869.78257	0.95512
867.85400	0.96498
865.92544	0.97535
863.99687	0.98595
862.06831	0.99699
860.13975	1.00955
858.21118	1.02341
856.28262	1.03650
854.35405	1.04815
852.42549	1.06034
850.49692	1.07337
848.56836	1.08540
846.63979	1.09652
844.71123	1.10813
842.78267	1.12039
840.85410	1.13152
838.92554	1.13932
836.99697	1.14692
835.06841	1.15925
833.13984	1.17543
831.21128	1.19083
829.28271	1.20286
827.35415	1.21312
825.42559	1.22382
823.49702	1.23538
821.56846	1.24643
819.63989	1.25893
817.71133	1.27485
815.78276	1.28945
813.85420	1.30106
811.92563	1.31440
809.99707	1.32851
808.06851	1.33735
806.13994	1.34161
804.21138	1.34281
802.28281	1.34850
800.35425	1.36600
798.42568	1.39213
796.49712	1.42963
794.56855	1.46046
792.63999	1.44318
790.71143	1.40477
788.78286	1.41017
786.85430	1.47133
784.92573	1.55641
782.99717	1.62482
781.06860	1.62780
779.14004	1.57195
777.21147	1.53005
775.28291	1.52861
773.35435	1.58789
771.42578	1.91497
769.49722	4.61698
767.56865	4.60541
765.64009	4.59384
763.71152	2.17329
761.78296	1.68224
759.85439	1.68578
757.92583	1.92634
755.99727	2.00609
754.06870	1.64193
752.14014	1.35331
750.21157	1.36418
748.28301	2.02290
746.35444	4.47813
744.42588	2.06098
742.49731	1.45139
740.56875	1.29202
738.64019	1.31547
736.71162	1.73056
734.78306	1.81631
732.85449	1.26233
730.92593	1.16762
728.99736	1.07415
727.06880	0.77739
725.14023	0.53023
723.21167	0.35170
721.28311	0.20922
719.35454	-0.00755
717.42598	-0.35174
715.49741	-0.34925
713.56885	-0.25576
711.64028	-0.29126
709.71172	-0.48265
707.78315	-0.36565
705.85459	-0.13486
703.92603	0.00265
701.99746	0.13474
700.06890	0.31679
698.14033	0.47813
696.21177	0.50229
694.28320	0.43390
692.35464	0.36561
690.42607	0.33665
688.49751	0.33167
686.56895	0.35502
684.64038	0.40602
682.71182	0.45939
680.78325	0.64260
678.85469	1.19648
676.92612	1.11532
674.99756	0.81458
673.06899	0.65335
671.14043	0.45167
669.21187	0.32866
667.28330	0.28242
665.35474	0.33628
663.42617	0.55465
661.49761	0.94473
659.56904	0.75718
657.64048	0.44432
655.71191	0.30794
653.78335	0.35458
651.85479	0.47487
649.92622	0.44390
647.99766	0.36576
646.06909	0.38868
644.14053	0.51508
642.21196	0.55355
640.28340	0.45008
638.35483	0.40374
636.42627	0.39250
634.49771	0.36224
632.56914	0.38780
630.64058	0.52536
628.71201	0.86067
626.78345	0.76054
624.85488	0.52942
622.92632	0.45011
620.99775	0.42947
619.06919	0.41068
617.14062	0.39155
615.21206	0.43241
613.28350	0.56075
611.35493	0.55144
609.42637	0.38687
607.49780	0.30018
605.56924	0.32525
603.64067	0.39512
601.71211	0.40252
599.78354	0.33086
597.85498	0.26635
595.92642	0.23872
593.99785	0.23777
592.06929	0.25828
590.14072	0.27178
588.21216	0.24759
586.28359	0.20348
584.35503	0.19956
582.42646	0.25795
580.49790	0.37739
578.56934	0.54361
576.64077	0.52006
574.71221	0.30545
572.78364	0.18551
570.85508	0.16877
568.92651	0.18648
566.99795	0.22593
565.06938	0.31777
563.14082	0.36123
561.21226	0.30897
559.28369	0.26822
557.35513	0.26202
555.42656	0.24401
553.49800	0.24447
551.56943	0.33642
549.64087	0.55778
547.71230	0.94211
545.78374	0.77664
543.85518	0.51196
541.92661	0.34545
539.99805	0.27196
538.06948	0.27564
536.14092	0.30307
534.21235	0.29879
532.28379	0.29100
530.35522	0.31322
528.42666	0.30878
526.49810	0.25000
524.56953	0.23267
522.64097	0.28193
520.71240	0.36485
518.78384	0.43298
516.85527	0.41686
514.92671	0.35145
512.99814	0.32031
511.06958	0.34422
509.14102	0.37123
507.21245	0.40526
505.28389	0.45188
503.35532	0.43752
501.42676	0.35052
499.49819	0.27045
