3997.91411	0.07756
3995.98555	0.07777
3994.05698	0.07771
3992.12842	0.07789
3990.19985	0.07859
3988.27129	0.07931
3986.34272	0.07960
3984.41416	0.07950
3982.48560	0.07953
3980.55703	0.08004
3978.62847	0.08059
3976.69990	0.08102
3974.77134	0.08159
3972.84277	0.08198
3970.91421	0.08196
3968.98564	0.08190
3967.05708	0.08180
3965.12852	0.08161
3963.19995	0.08178
3961.27139	0.08238
3959.34282	0.08294
3957.41426	0.08316
3955.48569	0.08306
3953.55713	0.08296
3951.62856	0.08338
3949.70000	0.08446
3947.77144	0.08526
3945.84287	0.08513
3943.91431	0.08528
3941.98574	0.08580
3940.05718	0.08489
3938.12861	0.08322
3936.20005	0.08268
3934.27148	0.08361
3932.34292	0.08548
3930.41436	0.08667
3928.48579	0.08587
3926.55723	0.08501
3924.62866	0.08586
3922.70010	0.08660
3920.77153	0.08602
3918.84297	0.08586
3916.91440	0.08613
3914.98584	0.08499
3913.05728	0.08270
3911.12871	0.08108
3909.20015	0.08085
3907.27158	0.08233
3905.34302	0.08602
3903.41445	0.09063
3901.48589	0.09280
3899.55732	0.09178
3897.62876	0.08870
3895.70020	0.08548
3893.77163	0.08491
3891.84307	0.08711
3889.91450	0.08803
3887.98594	0.08645
3886.05737	0.08681
3884.12881	0.08930
3882.20024	0.09070
3880.27168	0.09093
3878.34312	0.08910
3876.41455	0.08661
3874.48599	0.08718
3872.55742	0.09032
3870.62886	0.09350
3868.70029	0.09460
3866.77173	0.09308
3864.84316	0.09287
3862.91460	0.09394
3860.98604	0.09242
3859.05747	0.09009
3857.12891	0.09063
3855.20034	0.09502
3853.27178	0.10241
3851.34321	0.10417
3849.41465	0.09768
3847.48608	0.09244
3845.55752	0.09123
3843.62896	0.09378
3841.70039	0.09816
3839.77183	0.10258
3837.84326	0.10609
3835.91470	0.10602
3833.98613	0.10330
3832.05757	0.10081
3830.12900	0.09889
3828.20044	0.09845
3826.27187	0.10028
3824.34331	0.10273
3822.41475	0.10560
3820.48618	0.10998
3818.55762	0.11144
3816.62905	0.10999
3814.70049	0.10820
3812.77192	0.10500
3810.84336	0.10274
3808.91479	0.10382
3806.98623	0.10811
3805.05767	0.11232
3803.12910	0.11521
3801.20054	0.11895
3799.27197	0.12020
3797.34341	0.11816
3795.41484	0.11623
3793.48628	0.11421
3791.55771	0.11277
3789.62915	0.11278
3787.70059	0.11423
3785.77202	0.11713
3783.84346	0.12009
3781.91489	0.12184
3779.98633	0.12374
3778.05776	0.12545
3776.12920	0.12522
3774.20063	0.12534
3772.27207	0.12784
3770.34351	0.13240
3768.41494	0.13661
3766.48638	0.13833
3764.55781	0.13905
3762.62925	0.13992
3760.70068	0.14251
3758.77212	0.14762
3756.84355	0.15188
3754.91499	0.15406
3752.98643	0.15826
3751.05786	0.16693
3749.12930	0.17455
3747.20073	0.17532
3745.27217	0.17571
3743.34360	0.17841
3741.41504	0.18047
3739.48647	0.18258
3737.55791	0.18762
3735.62935	0.19686
3733.70078	0.20588
3731.77222	0.20780
3729.84365	0.20689
3727.91509	0.20873
3725.98652	0.21444
3724.05796	0.22197
3722.12939	0.22873
3720.20083	0.23407
3718.27227	0.23823
3716.34370	0.24302
3714.41514	0.25049
3712.48657	0.26299
3710.55801	0.28070
3708.62944	0.29494
3706.70088	0.30294
3704.77231	0.31136
3702.84375	0.32403
3700.91519	0.34182
3698.98662	0.36011
3697.05806	0.37666
3695.12949	0.39489
3693.20093	0.41553
3691.27236	0.44006
3689.34380	0.47228
3687.41523	0.50679
3685.48667	0.53247
3683.55811	0.55477
3681.62954	0.58165
3679.70098	0.61484
3677.77241	0.65152
3675.84385	0.69515
3673.91528	0.75020
3671.98672	0.79121
3670.05815	0.82831
3668.12959	0.88012
3666.20103	0.92470
3664.27246	0.96223
3662.34390	1.00497
3660.41533	1.05249
3658.48677	1.10018
3656.55820	1.15154
3654.62964	1.20806
3652.70107	1.25504
3650.77251	1.29824
3648.84395	1.36058
3646.91538	1.43213
3644.98682	1.47759
3643.05825	1.51182
3641.12969	1.54966
3639.20112	1.59321
3637.27256	1.63796
3635.34399	1.68234
3633.41543	1.72738
3631.48687	1.77049
3629.55830	1.81550
3627.62974	1.87289
3625.70117	1.92114
3623.77261	1.95120
3621.84404	1.98254
3619.91548	2.02215
3617.98691	2.07022
3616.05835	2.11367
3614.12979	2.14987
3612.20122	2.18964
3610.27266	2.22904
3608.34409	2.26805
3606.41553	2.31053
3604.48696	2.34948
3602.55840	2.38345
3600.62983	2.42123
3598.70127	2.46319
3596.77271	2.50401
3594.84414	2.54594
3592.91558	2.58958
3590.98701	2.62933
3589.05845	2.66548
3587.12988	2.70964
3585.20132	2.75799
3583.27275	2.79725
3581.34419	2.83408
3579.41562	2.87455
3577.48706	2.91736
3575.55850	2.96055
3573.62993	3.00344
3571.70137	3.04424
3569.77280	3.08543
3567.84424	3.13294
3565.91567	3.19040
3563.98711	3.24051
3562.05854	3.27889
3560.12998	3.31896
3558.20142	3.36265
3556.27285	3.40695
3554.34429	3.45052
3552.41572	3.49674
3550.48716	3.54391
3548.55859	3.58897
3546.63003	3.63619
3544.70146	3.68751
3542.77290	3.73513
3540.84434	3.77706
3538.91577	3.82016
3536.98721	3.86694
3535.05864	3.91662
3533.13008	3.96474
3531.20151	4.01100
3529.27295	4.05870
3527.34438	4.10850
3525.41582	4.15832
3523.48726	4.20718
3521.55869	4.25470
3519.63013	4.30028
3517.70156	4.34668
3515.77300	4.39335
3513.84443	4.43981
3511.91587	4.48839
3509.98730	4.54124
3508.05874	4.59555
3506.13018	4.64494
3504.20161	4.68966
3502.27305	4.73627
3500.34448	4.78760
3498.41592	4.83839
3496.48735	4.88406
3494.55879	4.92470
3492.63022	4.96694
3490.70166	5.01414
3488.77310	5.06427
3486.84453	5.11604
3484.91597	5.16344
3482.98740	5.20475
3481.05884	5.24783
3479.13027	5.29615
3477.20171	5.35045
3475.27314	5.40543
3473.34458	5.45438
3471.41602	5.50125
3469.48745	5.54868
3467.55889	5.59398
3465.63032	5.63455
3463.70176	5.67604
3461.77319	5.72349
3459.84463	5.77857
3457.91606	5.83677
3455.98750	5.89484
3454.05894	5.96193
3452.13037	6.02994
3450.20181	6.07924
3448.27324	6.11416
3446.34468	6.14670
3444.41611	6.18097
3442.48755	6.23128
3440.55898	6.28836
3438.63042	6.33410
3436.70186	6.37978
3434.77329	6.43539
3432.84473	6.49456
3430.91616	6.54648
3428.98760	6.57919
3427.05903	6.59420
3425.13047	6.62966
3423.20190	6.69714
3421.27334	6.77691
3419.34478	6.84326
3417.41621	6.90130
3415.48765	6.97437
3413.55908	7.02402
3411.63052	7.03272
3409.70195	7.03135
3407.77339	7.04084
3405.84482	7.06420
3403.91626	7.11598
3401.98770	7.17882
3400.05913	7.23603
3398.13057	7.32396
3396.20200	7.42675
3394.27344	7.47810
3392.34487	7.48141
3390.41631	7.48247
3388.48774	7.44652
3386.55918	7.41285
3384.63062	7.44715
3382.70205	7.52185
3380.77349	7.59219
3378.84492	7.65695
3376.91636	7.74012
3374.98779	7.76304
3373.05923	7.72575
3371.13066	7.72504
3369.20210	7.74362
3367.27354	7.72196
3365.34497	7.70738
3363.41641	7.76533
3361.48784	7.88403
3359.55928	7.98683
3357.63071	7.97823
3355.70215	7.93052
3353.77358	7.94017
3351.84502	7.98573
3349.91646	7.97227
3347.98789	7.92780
3346.05933	7.94914
3344.13076	7.96964
3342.20220	7.96489
3340.27363	8.02897
3338.34507	8.13844
3336.41650	8.14673
3334.48794	8.08221
3332.55937	8.06975
3330.63081	8.08104
3328.70225	8.03429
3326.77368	7.96514
3324.84512	7.93969
3322.91655	8.00074
3320.98799	8.08708
3319.05942	8.04963
3317.13086	7.99657
3315.20229	8.06887
3313.27373	8.24267
3311.34517	8.31711
3309.41660	8.21184
3307.48804	8.19064
3305.55947	8.27514
3303.63091	8.26312
3301.70234	8.18803
3299.77378	8.23442
3297.84521	8.39000
3295.91665	8.51104
3293.98809	8.48902
3292.05952	8.34231
3290.13096	8.22287
3288.20239	8.26503
3286.27383	8.38754
3284.34526	8.35435
3282.41670	8.22965
3280.48813	8.14668
3278.55957	8.10923
3276.63101	8.08441
3274.70244	8.09569
3272.77388	8.21265
3270.84531	8.31339
3268.91675	8.28759
3266.98818	8.22206
3265.05962	8.16093
3263.13105	8.15635
3261.20249	8.22555
3259.27393	8.27363
3257.34536	8.31834
3255.41680	8.30781
3253.48823	8.15629
3251.55967	8.05935
3249.63110	8.07452
3247.70254	8.06479
3245.77397	8.03690
3243.84541	8.12306
3241.91685	8.32178
3239.98828	8.44941
3238.05972	8.35711
3236.13115	8.21731
3234.20259	8.18549
3232.27402	8.13492
3230.34546	8.04250
3228.41689	8.04990
3226.48833	8.15627
3224.55977	8.21811
3222.63120	8.16986
3220.70264	8.13085
3218.77407	8.13271
3216.84551	8.09409
3214.91694	8.01405
3212.98838	7.90842
3211.05981	7.84786
3209.13125	7.88962
3207.20269	7.93252
3205.27412	7.88826
3203.34556	7.82512
3201.41699	7.81971
3199.48843	7.84668
3197.55986	7.82223
3195.63130	7.72067
3193.70273	7.62928
3191.77417	7.61386
3189.84561	7.63145
3187.91704	7.63176
3185.98848	7.61568
3184.05991	7.57155
3182.13135	7.49017
3180.20278	7.40344
3178.27422	7.33728
3176.34565	7.29969
3174.41709	7.26862
3172.48853	7.20876
3170.55996	7.12433
3168.63140	7.04555
3166.70283	6.97843
3164.77427	6.89960
3162.84570	6.80175
3160.91714	6.70950
3158.98857	6.64430
3157.06001	6.58941
3155.13145	6.52330
3153.20288	6.45691
3151.27432	6.40743
3149.34575	6.35739
3147.41719	6.27991
3145.48862	6.19129
3143.56006	6.10923
3141.63149	6.03230
3139.70293	5.97405
3137.77437	5.93811
3135.84580	5.89424
3133.91724	5.82572
3131.98867	5.74639
3130.06011	5.67200
3128.13154	5.60510
3126.20298	5.53736
3124.27441	5.46457
3122.34585	5.38533
3120.41729	5.30461
3118.48872	5.23288
3116.56016	5.16907
3114.63159	5.10332
3112.70303	5.03380
3110.77446	4.96280
3108.84590	4.89117
3106.91733	4.82415
3104.98877	4.76344
3103.06021	4.70317
3101.13164	4.63653
3099.20308	4.56677
3097.27451	4.49960
3095.34595	4.43365
3093.41738	4.36973
3091.48882	4.30617
3089.56025	4.24096
3087.63169	4.17880
3085.70312	4.11980
3083.77456	4.05905
3081.84600	3.99677
3079.91743	3.93504
3077.98887	3.87396
3076.06030	3.81446
3074.13174	3.75571
3072.20317	3.69516
3070.27461	3.63511
3068.34604	3.57960
3066.41748	3.52663
3064.48892	3.47266
3062.56035	3.41732
3060.63179	3.36287
3058.70322	3.31060
3056.77466	3.25805
3054.84609	3.20385
3052.91753	3.15106
3050.98896	3.10092
3049.06040	3.05032
3047.13184	2.99900
3045.20327	2.94904
3043.27471	2.90101
3041.34614	2.85485
3039.41758	2.80816
3037.48901	2.75991
3035.56045	2.71290
3033.63188	2.66816
3031.70332	2.62409
3029.77476	2.57979
3027.84619	2.53619
3025.91763	2.49362
3023.98906	2.45109
3022.06050	2.40875
3020.13193	2.36747
3018.20337	2.32732
3016.27480	2.28766
3014.34624	2.24800
3012.41768	2.20855
3010.48911	2.16977
3008.56055	2.13208
3006.63198	2.09565
3004.70342	2.06059
3002.77485	2.02625
3000.84629	1.99174
2998.91772	1.95748
2996.98916	1.92460
2995.06060	1.89325
2993.13203	1.86233
2991.20347	1.83077
2989.27490	1.79915
2987.34634	1.76893
2985.41777	1.74010
2983.48921	1.71171
2981.56064	1.68385
2979.63208	1.65676
2977.70352	1.62979
2975.77495	1.60290
2973.84639	1.57694
2971.91782	1.55206
2969.98926	1.52726
2968.06069	1.50238
2966.13213	1.47808
2964.20356	1.45427
2962.27500	1.43027
2960.34644	1.40582
2958.41787	1.38165
2956.48931	1.35829
2954.56074	1.33524
2952.63218	1.31218
2950.70361	1.28902
2948.77505	1.26572
2946.84648	1.24295
2944.91792	1.22134
2942.98936	1.20062
2941.06079	1.18021
2939.13223	1.15982
2937.20366	1.13950
2935.27510	1.11960
2933.34653	1.09987
2931.41797	1.08022
2929.48940	1.06140
2927.56084	1.04282
2925.63228	1.02361
2923.70371	1.00477
2921.77515	0.98672
2919.84658	0.96897
2917.91802	0.95191
2915.98945	0.93526
2914.06089	0.91843
2912.13232	0.90213
2910.20376	0.88669
2908.27520	0.87162
2906.34663	0.85698
2904.41807	0.84288
2902.48950	0.82916
2900.56094	0.81557
2898.63237	0.80201
2896.70381	0.78870
2894.77524	0.77589
2892.84668	0.76355
2890.91812	0.75160
2888.98955	0.73998
2887.06099	0.72857
2885.13242	0.71759
2883.20386	0.70726
2881.27529	0.69735
2879.34673	0.68775
2877.41816	0.67808
2875.48960	0.66766
2873.56104	0.65668
2871.63247	0.64578
2869.70391	0.63500
2867.77534	0.62406
2865.84678	0.61256
2863.91821	0.60068
2861.98965	0.58918
2860.06108	0.57820
2858.13252	0.56760
2856.20396	0.55767
2854.27539	0.54845
2852.34683	0.53952
2850.41826	0.53076
2848.48970	0.52221
2846.56113	0.51378
2844.63257	0.50567
2842.70400	0.49837
2840.77544	0.49188
2838.84687	0.48562
2836.91831	0.47932
2834.98975	0.47317
2833.06118	0.46729
2831.13262	0.46149
2829.20405	0.45558
2827.27549	0.44954
2825.34692	0.44345
2823.41836	0.43733
2821.48979	0.43118
2819.56123	0.42509
2817.63267	0.41900
2815.70410	0.41283
2813.77554	0.40683
2811.84697	0.40125
2809.91841	0.39597
2807.98984	0.39068
2806.06128	0.38523
2804.13271	0.37977
2802.20415	0.37445
2800.27559	0.36921
2798.34702	0.36402
2796.41846	0.35905
2794.48989	0.35425
2792.56133	0.34953
2790.63276	0.34498
2788.70420	0.34053
2786.77563	0.33604
2784.84707	0.33147
2782.91851	0.32696
2780.98994	0.32269
2779.06138	0.31853
2777.13281	0.31432
2775.20425	0.31027
2773.27568	0.30636
2771.34712	0.30240
2769.41855	0.29855
2767.48999	0.29497
2765.56143	0.29150
2763.63286	0.28794
2761.70430	0.28431
2759.77573	0.28084
2757.84717	0.27754
2755.91860	0.27422
2753.99004	0.27101
2752.06147	0.26803
2750.13291	0.26510
2748.20435	0.26210
2746.27578	0.25910
2744.34722	0.25613
2742.41865	0.25330
2740.49009	0.25062
2738.56152	0.24795
2736.63296	0.24520
2734.70439	0.24240
2732.77583	0.23984
2730.84727	0.23758
2728.91870	0.23526
2726.99014	0.23279
2725.06157	0.23053
2723.13301	0.22844
2721.20444	0.22622
2719.27588	0.22406
2717.34731	0.22211
2715.41875	0.22022
2713.49019	0.21837
2711.56162	0.21656
2709.63306	0.21474
2707.70449	0.21286
2705.77593	0.21097
2703.84736	0.20905
2701.91880	0.20718
2699.99023	0.20551
2698.06167	0.20401
2696.13311	0.20255
2694.20454	0.20107
2692.27598	0.19963
2690.34741	0.19833
2688.41885	0.19713
2686.49028	0.19584
2684.56172	0.19441
2682.63315	0.19298
2680.70459	0.19175
2678.77603	0.19072
2676.84746	0.18971
2674.91890	0.18859
2672.99033	0.18736
2671.06177	0.18603
2669.13320	0.18472
2667.20464	0.18357
2665.27607	0.18263
2663.34751	0.18167
2661.41895	0.18060
2659.49038	0.17962
2657.56182	0.17883
2655.63325	0.17816
2653.70469	0.17744
2651.77612	0.17657
2649.84756	0.17565
2647.91899	0.17494
2645.99043	0.17442
2644.06187	0.17389
2642.13330	0.17334
2640.20474	0.17270
2638.27617	0.17191
2636.34761	0.17123
2634.41904	0.17077
2632.49048	0.17026
2630.56191	0.16970
2628.63335	0.16922
2626.70479	0.16876
2624.77622	0.16836
2622.84766	0.16800
2620.91909	0.16766
2618.99053	0.16744
2617.06196	0.16734
2615.13340	0.16718
2613.20483	0.16683
2611.27627	0.16638
2609.34771	0.16608
2607.41914	0.16602
2605.49058	0.16599
2603.56201	0.16582
2601.63345	0.16569
2599.70488	0.16572
2597.77632	0.16575
2595.84775	0.16566
2593.91919	0.16554
2591.99062	0.16548
2590.06206	0.16555
2588.13350	0.16572
2586.20493	0.16583
2584.27637	0.16595
2582.34780	0.16622
2580.41924	0.16654
2578.49067	0.16672
2576.56211	0.16677
2574.63354	0.16678
2572.70498	0.16699
2570.77642	0.16758
2568.84785	0.16824
2566.91929	0.16860
2564.99072	0.16873
2563.06216	0.16895
2561.13359	0.16934
2559.20503	0.16977
2557.27646	0.17021
2555.34790	0.17070
2553.41934	0.17120
2551.49077	0.17177
2549.56221	0.17235
2547.63364	0.17277
2545.70508	0.17310
2543.77651	0.17363
2541.84795	0.17438
2539.91938	0.17512
2537.99082	0.17563
2536.06226	0.17607
2534.13369	0.17667
2532.20513	0.17727
2530.27656	0.17780
2528.34800	0.17841
2526.41943	0.17913
2524.49087	0.17979
2522.56230	0.18044
2520.63374	0.18120
2518.70518	0.18200
2516.77661	0.18273
2514.84805	0.18344
2512.91948	0.18424
2510.99092	0.18514
2509.06235	0.18612
2507.13379	0.18699
2505.20522	0.18763
2503.27666	0.18823
2501.34810	0.18893
2499.41953	0.18964
2497.49097	0.19032
2495.56240	0.19114
2493.63384	0.19212
2491.70527	0.19303
2489.77671	0.19379
2487.84814	0.19450
2485.91958	0.19521
2483.99102	0.19606
2482.06245	0.19707
2480.13389	0.19799
2478.20532	0.19872
2476.27676	0.19947
2474.34819	0.20027
2472.41963	0.20111
2470.49106	0.20209
2468.56250	0.20311
2466.63394	0.20402
2464.70537	0.20480
2462.77681	0.20557
2460.84824	0.20653
2458.91968	0.20757
2456.99111	0.20846
2455.06255	0.20927
2453.13398	0.21011
2451.20542	0.21108
2449.27686	0.21210
2447.34829	0.21297
2445.41973	0.21377
2443.49116	0.21473
2441.56260	0.21589
2439.63403	0.21707
2437.70547	0.21811
2435.77690	0.21903
2433.84834	0.21997
2431.91978	0.22105
2429.99121	0.22216
2428.06265	0.22320
2426.13408	0.22419
2424.20552	0.22513
2422.27695	0.22597
2420.34839	0.22691
2418.41982	0.22803
2416.49126	0.22922
2414.56270	0.23046
2412.63413	0.23171
2410.70557	0.23285
2408.77700	0.23396
2406.84844	0.23511
2404.91987	0.23627
2402.99131	0.23738
2401.06274	0.23844
2399.13418	0.23959
2397.20562	0.24087
2395.27705	0.24215
2393.34849	0.24335
2391.41992	0.24461
2389.49136	0.24613
2387.56279	0.24800
2385.63423	0.25037
2383.70566	0.25352
2381.77710	0.25762
2379.84854	0.26254
2377.91997	0.26829
2375.99141	0.27497
2374.06284	0.28252
2372.13428	0.29078
2370.20571	0.29977
2368.27715	0.30980
2366.34858	0.32065
2364.42002	0.32999
2362.49146	0.33578
2360.56289	0.33932
2358.63433	0.34081
2356.70576	0.33814
2354.77720	0.33217
2352.84863	0.32504
2350.92007	0.31729
2348.99150	0.31208
2347.06294	0.31225
2345.13437	0.31872
2343.20581	0.32835
2341.27725	0.33433
2339.34868	0.33595
2337.42012	0.33603
2335.49155	0.33565
2333.56299	0.33536
2331.63442	0.33580
2329.70586	0.33621
2327.77729	0.33594
2325.84873	0.33500
2323.92017	0.33356
2321.99160	0.33197
2320.06304	0.33029
2318.13447	0.32852
2316.20591	0.32704
2314.27734	0.32639
2312.34878	0.32660
2310.42021	0.32702
2308.49165	0.32709
2306.56309	0.32668
2304.63452	0.32608
2302.70596	0.32607
2300.77739	0.32693
2298.84883	0.32787
2296.92026	0.32856
2294.99170	0.32949
2293.06313	0.33064
2291.13457	0.33170
2289.20601	0.33275
2287.27744	0.33384
2285.34888	0.33495
2283.42031	0.33630
2281.49175	0.33818
2279.56318	0.34035
2277.63462	0.34255
2275.70605	0.34484
2273.77749	0.34720
2271.84893	0.34943
2269.92036	0.35148
2267.99180	0.35349
2266.06323	0.35556
2264.13467	0.35758
2262.20610	0.35955
2260.27754	0.36160
2258.34897	0.36368
2256.42041	0.36561
2254.49185	0.36751
2252.56328	0.36958
2250.63472	0.37171
2248.70615	0.37371
2246.77759	0.37566
2244.84902	0.37772
2242.92046	0.37989
2240.99189	0.38208
2239.06333	0.38419
2237.13477	0.38635
2235.20620	0.38872
2233.27764	0.39108
2231.34907	0.39325
2229.42051	0.39548
2227.49194	0.39778
2225.56338	0.39993
2223.63481	0.40201
2221.70625	0.40417
2219.77769	0.40638
2217.84912	0.40857
2215.92056	0.41081
2213.99199	0.41314
2212.06343	0.41536
2210.13486	0.41737
2208.20630	0.41942
2206.27773	0.42159
2204.34917	0.42364
2202.42061	0.42555
2200.49204	0.42753
2198.56348	0.42956
2196.63491	0.43158
2194.70635	0.43366
2192.77778	0.43569
2190.84922	0.43762
2188.92065	0.43945
2186.99209	0.44120
2185.06353	0.44290
2183.13496	0.44461
2181.20640	0.44637
2179.27783	0.44814
2177.34927	0.44986
2175.42070	0.45143
2173.49214	0.45293
2171.56357	0.45438
2169.63501	0.45570
2167.70645	0.45692
2165.77788	0.45821
2163.84932	0.45957
2161.92075	0.46078
2159.99219	0.46180
2158.06362	0.46275
2156.13506	0.46363
2154.20649	0.46452
2152.27793	0.46547
2150.34937	0.46628
2148.42080	0.46692
2146.49224	0.46751
2144.56367	0.46793
2142.63511	0.46818
2140.70654	0.46850
2138.77798	0.46892
2136.84941	0.46920
2134.92085	0.46928
2132.99229	0.46928
2131.06372	0.46930
2129.13516	0.46924
2127.20659	0.46903
2125.27803	0.46868
2123.34946	0.46812
2121.42090	0.46746
2119.49233	0.46683
2117.56377	0.46620
2115.63521	0.46549
2113.70664	0.46470
2111.77808	0.46386
2109.84951	0.46302
2107.92095	0.46203
2105.99238	0.46079
2104.06382	0.45952
2102.13525	0.45832
2100.20669	0.45707
2098.27812	0.45571
2096.34956	0.45431
2094.42100	0.45282
2092.49243	0.45121
2090.56387	0.44950
2088.63530	0.44763
2086.70674	0.44567
2084.77817	0.44373
2082.84961	0.44183
2080.92104	0.43989
2078.99248	0.43783
2077.06392	0.43568
2075.13535	0.43355
2073.20679	0.43141
2071.27822	0.42916
2069.34966	0.42686
2067.42109	0.42459
2065.49253	0.42237
2063.56396	0.41997
2061.63540	0.41739
2059.70684	0.41483
2057.77827	0.41236
2055.84971	0.40982
2053.92114	0.40711
2051.99258	0.40439
2050.06401	0.40176
2048.13545	0.39909
2046.20688	0.39633
2044.27832	0.39367
2042.34976	0.39113
2040.42119	0.38847
2038.49263	0.38559
2036.56406	0.38269
2034.63550	0.37989
2032.70693	0.37709
2030.77837	0.37431
2028.84980	0.37153
2026.92124	0.36874
2024.99268	0.36591
2023.06411	0.36310
2021.13555	0.36032
2019.20698	0.35774
2017.27842	0.35522
2015.34985	0.35238
2013.42129	0.34933
2011.49272	0.34631
2009.56416	0.34339
2007.63560	0.34067
2005.70703	0.33804
2003.77847	0.33527
2001.84990	0.33248
1999.92134	0.32980
1997.99277	0.32715
1996.06421	0.32464
1994.13564	0.32255
1992.20708	0.32057
1990.27852	0.31802
1988.34995	0.31507
1986.42139	0.31216
1984.49282	0.30941
1982.56426	0.30696
1980.63569	0.30473
1978.70713	0.30250
1976.77856	0.30025
1974.85000	0.29798
1972.92144	0.29571
1970.99287	0.29366
1969.06431	0.29191
1967.13574	0.29013
1965.20718	0.28793
1963.27861	0.28562
1961.35005	0.28358
1959.42148	0.28163
1957.49292	0.27970
1955.56436	0.27785
1953.63579	0.27602
1951.70723	0.27405
1949.77866	0.27221
1947.85010	0.27078
1945.92153	0.26966
1943.99297	0.26860
1942.06440	0.26730
1940.13584	0.26535
1938.20728	0.26329
1936.27871	0.26170
1934.35015	0.26043
1932.42158	0.25923
1930.49302	0.25799
1928.56445	0.25683
1926.63589	0.25587
1924.70732	0.25535
1922.77876	0.25491
1920.85020	0.25396
1918.92163	0.25297
1916.99307	0.25192
1915.06450	0.25031
1913.13594	0.24894
1911.20737	0.24843
1909.27881	0.24820
1907.35024	0.24753
1905.42168	0.24650
1903.49312	0.24559
1901.56455	0.24486
1899.63599	0.24422
1897.70742	0.24382
1895.77886	0.24377
1893.85029	0.24364
1891.92173	0.24337
1889.99316	0.24348
1888.06460	0.24331
1886.13604	0.24258
1884.20747	0.24193
1882.27891	0.24142
1880.35034	0.24107
1878.42178	0.24093
1876.49321	0.24092
1874.56465	0.24094
1872.63608	0.24134
1870.70752	0.24265
1868.77896	0.24453
1866.85039	0.24477
1864.92183	0.24332
1862.99326	0.24235
1861.06470	0.24232
1859.13613	0.24269
1857.20757	0.24292
1855.27900	0.24316
1853.35044	0.24363
1851.42187	0.24432
1849.49331	0.24525
1847.56475	0.24660
1845.63618	0.24830
1843.70762	0.24966
1841.77905	0.24963
1839.85049	0.24920
1837.92192	0.24974
1835.99336	0.25064
1834.06479	0.25146
1832.13623	0.25294
1830.20767	0.25554
1828.27910	0.25745
1826.35054	0.25795
1824.42197	0.25867
1822.49341	0.25935
1820.56484	0.26003
1818.63628	0.26119
1816.70771	0.26277
1814.77915	0.26449
1812.85059	0.26667
1810.92202	0.26929
1808.99346	0.27136
1807.06489	0.27279
1805.13633	0.27438
1803.20776	0.27686
1801.27920	0.28016
1799.35063	0.28336
1797.42207	0.28567
1795.49351	0.28816
1793.56494	0.29181
1791.63638	0.29605
1789.70781	0.29842
1787.77925	0.29967
1785.85068	0.30241
1783.92212	0.30637
1781.99355	0.31065
1780.06499	0.31505
1778.13643	0.31929
1776.20786	0.32357
1774.27930	0.32902
1772.35073	0.33637
1770.42217	0.34267
1768.49360	0.34651
1766.56504	0.35031
1764.63647	0.35502
1762.70791	0.36127
1760.77935	0.36928
1758.85078	0.37626
1756.92222	0.38319
1754.99365	0.39069
1753.06509	0.39777
1751.13652	0.40724
1749.20796	0.41928
1747.27939	0.42973
1745.35083	0.43800
1743.42227	0.44700
1741.49370	0.45737
1739.56514	0.46961
1737.63657	0.48173
1735.70801	0.49296
1733.77944	0.51067
1731.85088	0.53034
1729.92231	0.54430
1727.99375	0.55857
1726.06519	0.57457
1724.13662	0.59294
1722.20806	0.61313
1720.27949	0.63219
1718.35093	0.65580
1716.42236	0.69046
1714.49380	0.72039
1712.56523	0.74294
1710.63667	0.76561
1708.70811	0.79113
1706.77954	0.82127
1704.85098	0.85769
1702.92241	0.88943
1700.99385	0.92028
1699.06528	0.96748
1697.13672	1.01098
1695.20815	1.05396
1693.27959	1.09461
1691.35103	1.12788
1689.42246	1.16822
1687.49390	1.21154
1685.56533	1.25336
1683.63677	1.31899
1681.70820	1.38635
1679.77964	1.42689
1677.85107	1.46563
1675.92251	1.51162
1673.99395	1.57039
1672.06538	1.62276
1670.13682	1.67364
1668.20825	1.73985
1666.27969	1.79228
1664.35112	1.83875
1662.42256	1.90096
1660.49399	1.97159
1658.56543	2.02386
1656.63687	2.06660
1654.70830	2.10793
1652.77974	2.16936
1650.85117	2.22366
1648.92261	2.24342
1646.99404	2.27213
1645.06548	2.30000
1643.13691	2.31707
1641.20835	2.32557
1639.27979	2.33385
1637.35122	2.34050
1635.42266	2.34053
1633.49409	2.33005
1631.56553	2.31458
1629.63696	2.29820
1627.70840	2.27053
1625.77983	2.23875
1623.85127	2.19767
1621.92271	2.14419
1619.99414	2.09632
1618.06558	2.05177
1616.13701	1.98743
1614.20845	1.92105
1612.27988	1.87154
1610.35132	1.81986
1608.42275	1.76295
1606.49419	1.70677
1604.56562	1.65630
1602.63706	1.60806
1600.70850	1.56055
1598.77993	1.51695
1596.85137	1.47633
1594.92280	1.43682
1592.99424	1.39862
1591.06567	1.36385
1589.13711	1.33120
1587.20854	1.30079
1585.27998	1.27302
1583.35142	1.24748
1581.42285	1.22449
1579.49429	1.20568
1577.56572	1.18999
1575.63716	1.17019
1573.70859	1.15143
1571.78003	1.13976
1569.85146	1.12894
1567.92290	1.11657
1565.99434	1.10752
1564.06577	1.10163
1562.13721	1.09759
1560.20864	1.09725
1558.28008	1.10204
1556.35151	1.10341
1554.42295	1.10172
1552.49438	1.10099
1550.56582	1.09968
1548.63726	1.09596
1546.70869	1.09031
1544.78013	1.08345
1542.85156	1.07465
1540.92300	1.05880
1538.99443	1.02743
1537.06587	1.00312
1535.13730	0.98829
1533.20874	0.96932
1531.28018	0.94781
1529.35161	0.93243
1527.42305	0.91943
1525.49448	0.90613
1523.56592	0.89461
1521.63735	0.88402
1519.70879	0.87239
1517.78022	0.86185
1515.85166	0.84926
1513.92310	0.83578
1511.99453	0.82506
1510.06597	0.81714
1508.13740	0.81094
1506.20884	0.79724
1504.28027	0.78128
1502.35171	0.77239
1500.42314	0.76627
1498.49458	0.76088
1496.56602	0.75391
1494.63745	0.74566
1492.70889	0.73969
1490.78032	0.73600
1488.85176	0.73168
1486.92319	0.72557
1484.99463	0.72009
1483.06606	0.71644
1481.13750	0.71403
1479.20894	0.71240
1477.28037	0.71214
1475.35181	0.71355
1473.42324	0.71541
1471.49468	0.71440
1469.56611	0.71076
1467.63755	0.70795
1465.70898	0.70663
1463.78042	0.70562
1461.85186	0.70466
1459.92329	0.70523
1457.99473	0.70751
1456.06616	0.70714
1454.13760	0.70268
1452.20903	0.69883
1450.28047	0.69587
1448.35190	0.69316
1446.42334	0.68993
1444.49478	0.68649
1442.56621	0.68353
1440.63765	0.68115
1438.70908	0.67937
1436.78052	0.67720
1434.85195	0.67350
1432.92339	0.67015
1430.99482	0.66834
1429.06626	0.66727
1427.13770	0.66655
1425.20913	0.66684
1423.28057	0.66790
1421.35200	0.66895
1419.42344	0.67026
1417.49487	0.67029
1415.56631	0.66816
1413.63774	0.66644
1411.70918	0.66598
1409.78062	0.66619
1407.85205	0.66679
1405.92349	0.66821
1403.99492	0.66972
1402.06636	0.67001
1400.13779	0.66961
1398.20923	0.66860
1396.28066	0.66629
1394.35210	0.66219
1392.42354	0.65702
1390.49497	0.65262
1388.56641	0.64894
1386.63784	0.64446
1384.70928	0.63904
1382.78071	0.63399
1380.85215	0.62969
1378.92358	0.62631
1376.99502	0.62415
1375.06646	0.62311
1373.13789	0.62208
1371.20933	0.62072
1369.28076	0.61973
1367.35220	0.61879
1365.42363	0.61765
1363.49507	0.61665
1361.56650	0.61522
1359.63794	0.61311
1357.70937	0.61121
1355.78081	0.60978
1353.85225	0.60854
1351.92368	0.60738
1349.99512	0.60637
1348.06655	0.60543
1346.13799	0.60441
1344.20942	0.60342
1342.28086	0.60276
1340.35229	0.60263
1338.42373	0.60232
1336.49517	0.60127
1334.56660	0.60017
1332.63804	0.59958
1330.70947	0.59938
1328.78091	0.59947
1326.85234	0.59996
1324.92378	0.60070
1322.99521	0.60147
1321.06665	0.60237
1319.13809	0.60329
1317.20952	0.60366
1315.28096	0.60350
1313.35239	0.60314
1311.42383	0.60243
1309.49526	0.60142
1307.56670	0.60043
1305.63813	0.59957
1303.70957	0.59875
1301.78101	0.59786
1299.85244	0.59673
1297.92388	0.59543
1295.99531	0.59410
1294.06675	0.59282
1292.13818	0.59159
1290.20962	0.59026
1288.28105	0.58891
1286.35249	0.58765
1284.42393	0.58638
1282.49536	0.58500
1280.56680	0.58357
1278.63823	0.58221
1276.70967	0.58099
1274.78110	0.57990
1272.85254	0.57893
1270.92397	0.57818
1268.99541	0.57758
1267.06685	0.57684
1265.13828	0.57585
1263.20972	0.57496
1261.28115	0.57437
1259.35259	0.57381
1257.42402	0.57312
1255.49546	0.57261
1253.56689	0.57246
1251.63833	0.57244
1249.70977	0.57244
1247.78120	0.57246
1245.85264	0.57231
1243.92407	0.57180
1241.99551	0.57096
1240.06694	0.56969
1238.13838	0.56796
1236.20981	0.56585
1234.28125	0.56359
1232.35269	0.56138
1230.42412	0.55932
1228.49556	0.55744
1226.56699	0.55560
1224.63843	0.55370
1222.70986	0.55185
1220.78130	0.55011
1218.85273	0.54858
1216.92417	0.54722
1214.99561	0.54591
1213.06704	0.54486
1211.13848	0.54419
1209.20991	0.54358
1207.28135	0.54282
1205.35278	0.54206
1203.42422	0.54135
1201.49565	0.54047
1199.56709	0.53938
1197.63853	0.53836
1195.70996	0.53750
1193.78140	0.53669
1191.85283	0.53592
1189.92427	0.53523
1187.99570	0.53477
1186.06714	0.53455
1184.13857	0.53441
1182.21001	0.53452
1180.28145	0.53523
1178.35288	0.53653
1176.42432	0.53805
1174.49575	0.53939
1172.56719	0.54048
1170.63862	0.54132
1168.71006	0.54188
1166.78149	0.54229
1164.85293	0.54265
1162.92437	0.54298
1160.99580	0.54332
1159.06724	0.54348
1157.13867	0.54327
1155.21011	0.54274
1153.28154	0.54182
1151.35298	0.54020
1149.42441	0.53771
1147.49585	0.53476
1145.56729	0.53184
1143.63872	0.52899
1141.71016	0.52625
1139.78159	0.52403
1137.85303	0.52271
1135.92446	0.52213
1133.99590	0.52190
1132.06733	0.52189
1130.13877	0.52198
1128.21021	0.52183
1126.28164	0.52150
1124.35308	0.52109
1122.42451	0.52067
1120.49595	0.52065
1118.56738	0.52123
1116.63882	0.52195
1114.71025	0.52261
1112.78169	0.52336
1110.85312	0.52426
1108.92456	0.52528
1106.99600	0.52614
1105.06743	0.52685
1103.13887	0.52759
1101.21030	0.52845
1099.28174	0.52963
1097.35317	0.53121
1095.42461	0.53350
1093.49604	0.53713
1091.56748	0.54230
1089.63892	0.54897
1087.71035	0.55690
1085.78179	0.56559
1083.85322	0.57446
1081.92466	0.58235
1079.99609	0.58785
1078.06753	0.59030
1076.13896	0.58962
1074.21040	0.58600
1072.28184	0.58033
1070.35327	0.57363
1068.42471	0.56636
1066.49614	0.55929
1064.56758	0.55304
1062.63901	0.54745
1060.71045	0.54255
1058.78188	0.53847
1056.85332	0.53496
1054.92476	0.53179
1052.99619	0.52887
1051.06763	0.52645
1049.13906	0.52495
1047.21050	0.52441
1045.28193	0.52444
1043.35337	0.52449
1041.42480	0.52444
1039.49624	0.52441
1037.56768	0.52444
1035.63911	0.52434
1033.71055	0.52382
1031.78198	0.52277
1029.85342	0.52123
1027.92485	0.51936
1025.99629	0.51739
1024.06772	0.51569
1022.13916	0.51453
1020.21060	0.51372
1018.28203	0.51302
1016.35347	0.51257
1014.42490	0.51222
1012.49634	0.51155
1010.56777	0.51070
1008.63921	0.51013
1006.71064	0.50996
1004.78208	0.51043
1002.85352	0.51186
1000.92495	0.51425
998.99639	0.51759
997.06782	0.52181
995.13926	0.52645
993.21069	0.53072
991.28213	0.53383
989.35356	0.53565
987.42500	0.53642
985.49644	0.53635
983.56787	0.53601
981.63931	0.53601
979.71074	0.53646
977.78218	0.53729
975.85361	0.53876
973.92505	0.54105
971.99648	0.54402
970.06792	0.54736
968.13936	0.55093
966.21079	0.55470
964.28223	0.55879
962.35366	0.56343
960.42510	0.56840
958.49653	0.57340
956.56797	0.57875
954.63940	0.58475
952.71084	0.59113
950.78228	0.59746
948.85371	0.60357
946.92515	0.60967
944.99658	0.61597
943.06802	0.62247
941.13945	0.62869
939.21089	0.63435
937.28232	0.63992
935.35376	0.64574
933.42520	0.65168
931.49663	0.65763
929.56807	0.66325
927.63950	0.66846
925.71094	0.67405
923.78237	0.68090
921.85381	0.68828
919.92524	0.69499
917.99668	0.70133
916.06812	0.70825
914.13955	0.71581
912.21099	0.72358
910.28242	0.73145
908.35386	0.73931
906.42529	0.74745
904.49673	0.75670
902.56816	0.76675
900.63960	0.77655
898.71104	0.78622
896.78247	0.79622
894.85391	0.80621
892.92534	0.81555
890.99678	0.82443
889.06821	0.83428
887.13965	0.84580
885.21108	0.85822
883.28252	0.87072
881.35396	0.88259
879.42539	0.89362
877.49683	0.90381
875.56826	0.91391
873.63970	0.92577
871.71113	0.93923
869.78257	0.95205
867.85400	0.96327
865.92544	0.97381
863.99687	0.98508
862.06831	0.99733
860.13975	1.00985
858.21118	1.02235
856.28262	1.03353
854.35405	1.04423
852.42549	1.05720
850.49692	1.07020
848.56836	1.08056
846.63979	1.09166
844.71123	1.10497
842.78267	1.11526
840.85410	1.12211
838.92554	1.13326
836.99697	1.15071
835.06841	1.16426
833.13984	1.16952
831.21128	1.17851
829.28271	1.19676
827.35415	1.21368
825.42559	1.22189
823.49702	1.22860
821.56846	1.24127
819.63989	1.25948
817.71133	1.27763
815.78276	1.28972
813.85420	1.29320
811.92563	1.29297
809.99707	1.30116
808.06851	1.32746
806.13994	1.37406
804.21138	1.40562
802.28281	1.38968
800.35425	1.37122
798.42568	1.37861
796.49712	1.40005
794.56855	1.42151
792.63999	1.42593
790.71143	1.42007
788.78286	1.41883
786.85430	1.40491
784.92573	1.38584
782.99717	1.38299
781.06860	1.39170
779.14004	1.40311
777.21147	1.41937
775.28291	1.43598
773.35435	1.45379
771.42578	1.57138
769.49722	1.86557
767.56865	1.69639
765.64009	1.41888
763.71152	1.32741
761.78296	1.31552
759.85439	1.33155
757.92583	1.36231
755.99727	1.32640
754.06870	1.25692
752.14014	1.26089
750.21157	1.30007
748.28301	1.25966
746.35444	1.22687
744.42588	1.25280
742.49731	1.25237
740.56875	1.26343
738.64019	1.30224
736.71162	1.10881
734.78306	0.83677
732.85449	0.65161
730.92593	0.53882
728.99736	0.49620
727.06880	0.55503
725.14023	0.74304
723.21167	0.86856
721.28311	0.59649
719.35454	0.39506
717.42598	0.25696
715.49741	0.04109
713.56885	-0.14565
711.64028	-0.14276
709.71172	-0.20388
707.78315	-0.66288
705.85459	-0.79451
703.92603	-0.26568
701.99746	-0.03186
700.06890	0.05973
698.14033	0.17796
696.21177	0.29094
694.28320	0.30679
692.35464	0.33891
690.42607	0.33051
688.49751	0.17694
686.56895	0.08251
684.64038	0.11679
682.71182	0.21235
680.78325	0.34687
678.85469	0.49646
676.92612	0.60825
674.99756	0.64842
673.06899	0.42950
671.14043	0.29540
669.21187	0.33236
667.28330	0.36742
665.35474	0.37298
663.42617	0.34672
661.49761	0.25988
659.56904	0.20154
657.64048	0.22034
655.71191	0.28899
653.78335	0.32407
651.85479	0.31013
649.92622	0.33714
647.99766	0.42025
646.06909	0.40194
644.14053	0.25127
642.21196	0.15705
640.28340	0.20466
638.35483	0.31746
636.42627	0.39665
634.49771	0.40064
632.56914	0.30063
630.64058	0.17434
628.71201	0.12277
626.78345	0.09654
624.85488	0.05732
622.92632	0.07682
620.99775	0.11503
619.06919	0.11044
617.14062	0.14597
615.21206	0.23065
613.28350	0.27025
611.35493	0.20988
609.42637	0.12899
607.49780	0.09396
605.56924	0.08585
603.64067	0.07247
601.71211	0.06537
599.78354	0.06883
597.85498	0.07064
595.92642	0.06509
593.99785	0.07827
592.06929	0.12590
590.14072	0.17038
588.21216	0.19518
586.28359	0.27484
584.35503	0.44260
582.42646	0.51079
580.49790	0.37180
578.56934	0.24489
576.64077	0.15447
574.71221	0.13375
572.78364	0.17755
570.85508	0.19680
568.92651	0.18919
566.99795	0.18933
565.06938	0.15277
563.14082	0.09588
561.21226	0.09735
559.28369	0.12415
557.35513	0.12715
555.42656	0.14569
553.49800	0.19549
551.56943	0.22199
549.64087	0.19263
547.71230	0.14512
545.78374	0.15581
543.85518	0.17657
541.92661	0.14679
539.99805	0.15095
538.06948	0.19722
536.14092	0.24036
534.21235	0.25586
532.28379	0.23339
530.35522	0.22224
528.42666	0.19744
526.49810	0.14854
524.56953	0.15657
522.64097	0.20956
520.71240	0.24150
518.78384	0.22284
516.85527	0.14017
514.92671	0.07168
512.99814	0.03992
511.06958	0.02795
509.14102	0.06075
507.21245	0.18521
505.28389	0.29686
503.35532	0.24031
501.42676	0.16164
499.49819	0.13071
