3997.91411	0.05893
3995.98555	0.05973
3994.05698	0.06029
3992.12842	0.06040
3990.19985	0.06026
3988.27129	0.06011
3986.34272	0.06020
3984.41416	0.06076
3982.48560	0.06139
3980.55703	0.06163
3978.62847	0.06166
3976.69990	0.06186
3974.77134	0.06229
3972.84277	0.06295
3970.91421	0.06357
3968.98564	0.06383
3967.05708	0.06372
3965.12852	0.06350
3963.19995	0.06364
3961.27139	0.06403
3959.34282	0.06421
3957.41426	0.06408
3955.48569	0.06386
3953.55713	0.06405
3951.62856	0.06467
3949.70000	0.06528
3947.77144	0.06565
3945.84287	0.06577
3943.91431	0.06570
3941.98574	0.06549
3940.05718	0.06528
3938.12861	0.06536
3936.20005	0.06545
3934.27148	0.06539
3932.34292	0.06586
3930.41436	0.06683
3928.48579	0.06698
3926.55723	0.06626
3924.62866	0.06604
3922.70010	0.06636
3920.77153	0.06636
3918.84297	0.06638
3916.91440	0.06635
3914.98584	0.06560
3913.05728	0.06471
3911.12871	0.06420
3909.20015	0.06385
3907.27158	0.06410
3905.34302	0.06572
3903.41445	0.06834
3901.48589	0.06978
3899.55732	0.06930
3897.62876	0.06830
3895.70020	0.06717
3893.77163	0.06650
3891.84307	0.06721
3889.91450	0.06802
3887.98594	0.06748
3886.05737	0.06732
3884.12881	0.06806
3882.20024	0.06867
3880.27168	0.06920
3878.34312	0.06867
3876.41455	0.06758
3874.48599	0.06813
3872.55742	0.06988
3870.62886	0.07123
3868.70029	0.07193
3866.77173	0.07182
3864.84316	0.07197
3862.91460	0.07241
3860.98604	0.07161
3859.05747	0.07054
3857.12891	0.07076
3855.20034	0.07234
3853.27178	0.07516
3851.34321	0.07676
3849.41465	0.07518
3847.48608	0.07353
3845.55752	0.07316
3843.62896	0.07415
3841.70039	0.07637
3839.77183	0.07981
3837.84326	0.08309
3835.91470	0.08289
3833.98613	0.08046
3832.05757	0.07929
3830.12900	0.07949
3828.20044	0.08009
3826.27187	0.08119
3824.34331	0.08285
3822.41475	0.08531
3820.48618	0.08855
3818.55762	0.08929
3816.62905	0.08819
3814.70049	0.08764
3812.77192	0.08688
3810.84336	0.08663
3808.91479	0.08798
3806.98623	0.09056
3805.05767	0.09266
3803.12910	0.09441
3801.20054	0.09730
3799.27197	0.09897
3797.34341	0.09889
3795.41484	0.09914
3793.48628	0.09882
3791.55771	0.09845
3789.62915	0.09899
3787.70059	0.10018
3785.77202	0.10209
3783.84346	0.10410
3781.91489	0.10552
3779.98633	0.10750
3778.05776	0.11006
3776.12920	0.11128
3774.20063	0.11199
3772.27207	0.11387
3770.34351	0.11694
3768.41494	0.11965
3766.48638	0.12114
3764.55781	0.12280
3762.62925	0.12473
3760.70068	0.12723
3758.77212	0.13111
3756.84355	0.13450
3754.91499	0.13636
3752.98643	0.13924
3751.05786	0.14502
3749.12930	0.15087
3747.20073	0.15256
3745.27217	0.15386
3743.34360	0.15768
3741.41504	0.16136
3739.48647	0.16399
3737.55791	0.16806
3735.62935	0.17535
3733.70078	0.18399
3731.77222	0.18893
3729.84365	0.19138
3727.91509	0.19451
3725.98652	0.19998
3724.05796	0.20697
3722.12939	0.21338
3720.20083	0.21898
3718.27227	0.22424
3716.34370	0.23005
3714.41514	0.23705
3712.48657	0.24705
3710.55801	0.26231
3708.62944	0.27768
3706.70088	0.28842
3704.77231	0.29855
3702.84375	0.31171
3700.91519	0.32942
3698.98662	0.34811
3697.05806	0.36522
3695.12949	0.38359
3693.20093	0.40371
3691.27236	0.42636
3689.34380	0.45590
3687.41523	0.49073
3685.48667	0.51958
3683.55811	0.54423
3681.62954	0.57157
3679.70098	0.60350
3677.77241	0.63770
3675.84385	0.67856
3673.91528	0.73380
3671.98672	0.77730
3670.05815	0.81547
3668.12959	0.86863
3666.20103	0.91574
3664.27246	0.95504
3662.34390	0.99855
3660.41533	1.04601
3658.48677	1.09233
3656.55820	1.14191
3654.62964	1.19847
3652.70107	1.24585
3650.77251	1.28669
3648.84395	1.34465
3646.91538	1.41605
3644.98682	1.46501
3643.05825	1.50196
3641.12969	1.54168
3639.20112	1.58676
3637.27256	1.63229
3635.34399	1.67651
3633.41543	1.72032
3631.48687	1.76114
3629.55830	1.80363
3627.62974	1.86067
3625.70117	1.91206
3623.77261	1.94458
3621.84404	1.97574
3619.91548	2.01314
3617.98691	2.05999
3616.05835	2.10439
3614.12979	2.14126
3612.20122	2.18081
3610.27266	2.21991
3608.34409	2.26036
3606.41553	2.30544
3604.48696	2.34573
3602.55840	2.38035
3600.62983	2.41868
3598.70127	2.46087
3596.77271	2.50152
3594.84414	2.54246
3592.91558	2.58443
3590.98701	2.62306
3589.05845	2.65824
3587.12988	2.70074
3585.20132	2.75012
3583.27275	2.79347
3581.34419	2.83220
3579.41562	2.87112
3577.48706	2.91238
3575.55850	2.95666
3573.62993	3.00240
3571.70137	3.04433
3569.77280	3.08204
3567.84424	3.12282
3565.91567	3.17722
3563.98711	3.23161
3562.05854	3.27423
3560.12998	3.31604
3558.20142	3.36005
3556.27285	3.40366
3554.34429	3.44618
3552.41572	3.49190
3550.48716	3.54072
3548.55859	3.58727
3546.63003	3.63087
3544.70146	3.67725
3542.77290	3.72727
3540.84434	3.77459
3538.91577	3.81908
3536.98721	3.86435
3535.05864	3.91318
3533.13008	3.96362
3531.20151	4.01282
3529.27295	4.06053
3527.34438	4.11003
3525.41582	4.16061
3523.48726	4.21039
3521.55869	4.26120
3519.63013	4.30996
3517.70156	4.35737
3515.77300	4.40416
3513.84443	4.44850
3511.91587	4.49433
3509.98730	4.54590
3508.05874	4.59814
3506.13018	4.64323
3504.20161	4.68423
3502.27305	4.72943
3500.34448	4.77719
3498.41592	4.82420
3496.48735	4.87495
3494.55879	4.92824
3492.63022	4.97858
3490.70166	5.02680
3488.77310	5.07545
3486.84453	5.12140
3484.91597	5.16943
3482.98740	5.22451
3481.05884	5.27513
3479.13027	5.31884
3477.20171	5.36901
3475.27314	5.42966
3473.34458	5.49498
3471.41602	5.55567
3469.48745	5.60361
3467.55889	5.63894
3465.63032	5.67330
3463.70176	5.71956
3461.77319	5.77180
3459.84463	5.82080
3457.91606	5.87147
3455.98750	5.93228
3454.05894	5.99181
3452.13037	6.03466
3450.20181	6.07227
3448.27324	6.12630
3446.34468	6.19592
3444.41611	6.24402
3442.48755	6.27486
3440.55898	6.32226
3438.63042	6.38154
3436.70186	6.43931
3434.77329	6.49683
3432.84473	6.55536
3430.91616	6.60925
3428.98760	6.65026
3427.05903	6.68007
3425.13047	6.72644
3423.20190	6.78566
3421.27334	6.82998
3419.34478	6.84590
3417.41621	6.85664
3415.48765	6.89984
3413.55908	6.97378
3411.63052	7.04953
3409.70195	7.08418
3407.77339	7.10074
3405.84482	7.14125
3403.91626	7.19524
3401.98770	7.23225
3400.05913	7.26980
3398.13057	7.33173
3396.20200	7.37338
3394.27344	7.39858
3392.34487	7.43481
3390.41631	7.47885
3388.48774	7.54196
3386.55918	7.63483
3384.63062	7.71052
3382.70205	7.72327
3380.77349	7.69478
3378.84492	7.66827
3376.91636	7.68633
3374.98779	7.75877
3373.05923	7.84102
3371.13066	7.87229
3369.20210	7.90490
3367.27354	7.95984
3365.34497	7.98711
3363.41641	8.01086
3361.48784	8.07400
3359.55928	8.13262
3357.63071	8.11548
3355.70215	8.08278
3353.77358	8.08037
3351.84502	8.07625
3349.91646	8.02496
3347.98789	8.00067
3346.05933	8.06707
3344.13076	8.13331
3342.20220	8.13002
3340.27363	8.09131
3338.34507	8.08250
3336.41650	8.12235
3334.48794	8.19589
3332.55937	8.20032
3330.63081	8.14848
3328.70225	8.18750
3326.77368	8.30546
3324.84512	8.37236
3322.91655	8.37663
3320.98799	8.36141
3319.05942	8.27702
3317.13086	8.19742
3315.20229	8.15569
3313.27373	8.15559
3311.34517	8.20789
3309.41660	8.21795
3307.48804	8.20373
3305.55947	8.20407
3303.63091	8.18277
3301.70234	8.21935
3299.77378	8.40747
3297.84521	8.62296
3295.91665	8.71570
3293.98809	8.63285
3292.05952	8.39151
3290.13096	8.17505
3288.20239	8.08660
3286.27383	8.09481
3284.34526	8.11061
3282.41670	8.15159
3280.48813	8.30093
3278.55957	8.46208
3276.63101	8.41658
3274.70244	8.26854
3272.77388	8.23955
3270.84531	8.32272
3268.91675	8.37991
3266.98818	8.36683
3265.05962	8.39844
3263.13105	8.45932
3261.20249	8.46776
3259.27393	8.44011
3257.34536	8.38188
3255.41680	8.36127
3253.48823	8.40287
3251.55967	8.40016
3249.63110	8.42704
3247.70254	8.55227
3245.77397	8.54471
3243.84541	8.38752
3241.91685	8.30509
3239.98828	8.34635
3238.05972	8.39601
3236.13115	8.32566
3234.20259	8.22092
3232.27402	8.23853
3230.34546	8.32258
3228.41689	8.27448
3226.48833	8.17213
3224.55977	8.18554
3222.63120	8.24470
3220.70264	8.20414
3218.77407	8.08803
3216.84551	8.02259
3214.91694	8.01086
3212.98838	7.99000
3211.05981	8.00759
3209.13125	8.08521
3207.20269	8.07209
3205.27412	7.92346
3203.34556	7.82071
3201.41699	7.82459
3199.48843	7.84731
3197.55986	7.84017
3195.63130	7.81724
3193.70273	7.80368
3191.77417	7.78505
3189.84561	7.72256
3187.91704	7.62533
3185.98848	7.54889
3184.05991	7.52177
3182.13135	7.50351
3180.20278	7.45710
3178.27422	7.38613
3176.34565	7.29713
3174.41709	7.20380
3172.48853	7.13196
3170.55996	7.08521
3168.63140	7.04529
3166.70283	7.00201
3164.77427	6.94578
3162.84570	6.86023
3160.91714	6.77381
3158.98857	6.71706
3157.06001	6.64548
3155.13145	6.55012
3153.20288	6.47740
3151.27432	6.42581
3149.34575	6.35628
3147.41719	6.26902
3145.48862	6.19897
3143.56006	6.13780
3141.63149	6.06722
3139.70293	5.99766
3137.77437	5.93502
3135.84580	5.87574
3133.91724	5.81123
3131.98867	5.73131
3130.06011	5.64225
3128.13154	5.56221
3126.20298	5.49221
3124.27441	5.42041
3122.34585	5.34693
3120.41729	5.28219
3118.48872	5.22430
3116.56016	5.15978
3114.63159	5.08452
3112.70303	5.00917
3110.77446	4.93971
3108.84590	4.87262
3106.91733	4.80608
3104.98877	4.73735
3103.06021	4.66872
3101.13164	4.60447
3099.20308	4.53976
3097.27451	4.47120
3095.34595	4.40289
3093.41738	4.33724
3091.48882	4.27205
3089.56025	4.20755
3087.63169	4.14635
3085.70312	4.08681
3083.77456	4.02544
3081.84600	3.96350
3079.91743	3.90522
3077.98887	3.85007
3076.06030	3.79189
3074.13174	3.73052
3072.20317	3.67034
3070.27461	3.61181
3068.34604	3.55464
3066.41748	3.49766
3064.48892	3.44077
3062.56035	3.38665
3060.63179	3.33484
3058.70322	3.28199
3056.77466	3.22786
3054.84609	3.17431
3052.91753	3.12261
3050.98896	3.07261
3049.06040	3.02159
3047.13184	2.96970
3045.20327	2.91913
3043.27471	2.86974
3041.34614	2.82179
3039.41758	2.77522
3037.48901	2.72947
3035.56045	2.68485
3033.63188	2.64106
3031.70332	2.59664
3029.77476	2.55183
3027.84619	2.50861
3025.91763	2.46626
3023.98906	2.42323
3022.06050	2.38060
3020.13193	2.33946
3018.20337	2.29938
3016.27480	2.25970
3014.34624	2.22065
3012.41768	2.18235
3010.48911	2.14413
3008.56055	2.10646
3006.63198	2.06985
3004.70342	2.03378
3002.77485	1.99852
3000.84629	1.96448
2998.91772	1.93146
2996.98916	1.89920
2995.06060	1.86725
2993.13203	1.83576
2991.20347	1.80559
2989.27490	1.77649
2987.34634	1.74758
2985.41777	1.71883
2983.48921	1.69041
2981.56064	1.66251
2979.63208	1.63553
2977.70352	1.60910
2975.77495	1.58292
2973.84639	1.55746
2971.91782	1.53274
2969.98926	1.50852
2968.06069	1.48502
2966.13213	1.46213
2964.20356	1.43909
2962.27500	1.41527
2960.34644	1.39105
2958.41787	1.36681
2956.48931	1.34226
2954.56074	1.31788
2952.63218	1.29452
2950.70361	1.27196
2948.77505	1.24968
2946.84648	1.22779
2944.91792	1.20654
2942.98936	1.18561
2941.06079	1.16494
2939.13223	1.14478
2937.20366	1.12499
2935.27510	1.10514
2933.34653	1.08535
2931.41797	1.06618
2929.48940	1.04736
2927.56084	1.02834
2925.63228	1.00908
2923.70371	0.98992
2921.77515	0.97189
2919.84658	0.95537
2917.91802	0.93917
2915.98945	0.92233
2914.06089	0.90498
2912.13232	0.88794
2910.20376	0.87152
2908.27520	0.85569
2906.34663	0.84057
2904.41807	0.82590
2902.48950	0.81154
2900.56094	0.79763
2898.63237	0.78400
2896.70381	0.77056
2894.77524	0.75757
2892.84668	0.74533
2890.91812	0.73371
2888.98955	0.72228
2887.06099	0.71095
2885.13242	0.70009
2883.20386	0.68971
2881.27529	0.67944
2879.34673	0.66933
2877.41816	0.65963
2875.48960	0.65011
2873.56104	0.64025
2871.63247	0.62982
2869.70391	0.61892
2867.77534	0.60755
2865.84678	0.59577
2863.91821	0.58403
2861.98965	0.57264
2860.06108	0.56161
2858.13252	0.55094
2856.20396	0.54091
2854.27539	0.53172
2852.34683	0.52298
2850.41826	0.51426
2848.48970	0.50573
2846.56113	0.49750
2844.63257	0.48943
2842.70400	0.48171
2840.77544	0.47469
2838.84687	0.46851
2836.91831	0.46275
2834.98975	0.45670
2833.06118	0.45035
2831.13262	0.44424
2829.20405	0.43844
2827.27549	0.43248
2825.34692	0.42622
2823.41836	0.42003
2821.48979	0.41399
2819.56123	0.40801
2817.63267	0.40215
2815.70410	0.39644
2813.77554	0.39074
2811.84697	0.38502
2809.91841	0.37935
2807.98984	0.37380
2806.06128	0.36843
2804.13271	0.36325
2802.20415	0.35815
2800.27559	0.35300
2798.34702	0.34785
2796.41846	0.34280
2794.48989	0.33796
2792.56133	0.33351
2790.63276	0.32926
2788.70420	0.32479
2786.77563	0.32029
2784.84707	0.31595
2782.91851	0.31172
2780.98994	0.30749
2779.06138	0.30320
2777.13281	0.29896
2775.20425	0.29500
2773.27568	0.29122
2771.34712	0.28746
2769.41855	0.28377
2767.48999	0.28009
2765.56143	0.27639
2763.63286	0.27282
2761.70430	0.26942
2759.77573	0.26609
2757.84717	0.26273
2755.91860	0.25950
2753.99004	0.25646
2752.06147	0.25343
2750.13291	0.25031
2748.20435	0.24727
2746.27578	0.24436
2744.34722	0.24149
2742.41865	0.23863
2740.49009	0.23588
2738.56152	0.23329
2736.63296	0.23084
2734.70439	0.22853
2732.77583	0.22625
2730.84727	0.22381
2728.91870	0.22128
2726.99014	0.21889
2725.06157	0.21653
2723.13301	0.21426
2721.20444	0.21229
2719.27588	0.21035
2717.34731	0.20821
2715.41875	0.20616
2713.49019	0.20429
2711.56162	0.20243
2709.63306	0.20060
2707.70449	0.19887
2705.77593	0.19720
2703.84736	0.19550
2701.91880	0.19381
2699.99023	0.19232
2698.06167	0.19097
2696.13311	0.18963
2694.20454	0.18814
2692.27598	0.18654
2690.34741	0.18509
2688.41885	0.18375
2686.49028	0.18240
2684.56172	0.18110
2682.63315	0.17997
2680.70459	0.17899
2678.77603	0.17798
2676.84746	0.17678
2674.91890	0.17548
2672.99033	0.17433
2671.06177	0.17336
2669.13320	0.17229
2667.20464	0.17103
2665.27607	0.16989
2663.34751	0.16905
2661.41895	0.16835
2659.49038	0.16757
2657.56182	0.16674
2655.63325	0.16595
2653.70469	0.16515
2651.77612	0.16425
2649.84756	0.16342
2647.91899	0.16285
2645.99043	0.16235
2644.06187	0.16170
2642.13330	0.16101
2640.20474	0.16052
2638.27617	0.16020
2636.34761	0.15975
2634.41904	0.15911
2632.49048	0.15852
2630.56191	0.15814
2628.63335	0.15789
2626.70479	0.15760
2624.77622	0.15727
2622.84766	0.15688
2620.91909	0.15642
2618.99053	0.15606
2617.06196	0.15584
2615.13340	0.15568
2613.20483	0.15551
2611.27627	0.15531
2609.34771	0.15516
2607.41914	0.15512
2605.49058	0.15513
2603.56201	0.15509
2601.63345	0.15510
2599.70488	0.15511
2597.77632	0.15505
2595.84775	0.15504
2593.91919	0.15503
2591.99062	0.15482
2590.06206	0.15460
2588.13350	0.15467
2586.20493	0.15496
2584.27637	0.15538
2582.34780	0.15580
2580.41924	0.15613
2578.49067	0.15642
2576.56211	0.15670
2574.63354	0.15703
2572.70498	0.15738
2570.77642	0.15762
2568.84785	0.15779
2566.91929	0.15810
2564.99072	0.15849
2563.06216	0.15879
2561.13359	0.15916
2559.20503	0.15975
2557.27646	0.16030
2555.34790	0.16075
2553.41934	0.16121
2551.49077	0.16172
2549.56221	0.16233
2547.63364	0.16300
2545.70508	0.16354
2543.77651	0.16394
2541.84795	0.16442
2539.91938	0.16506
2537.99082	0.16575
2536.06226	0.16638
2534.13369	0.16696
2532.20513	0.16757
2530.27656	0.16834
2528.34800	0.16922
2526.41943	0.17002
2524.49087	0.17073
2522.56230	0.17143
2520.63374	0.17213
2518.70518	0.17281
2516.77661	0.17349
2514.84805	0.17420
2512.91948	0.17497
2510.99092	0.17569
2509.06235	0.17636
2507.13379	0.17714
2505.20522	0.17796
2503.27666	0.17873
2501.34810	0.17959
2499.41953	0.18057
2497.49097	0.18150
2495.56240	0.18228
2493.63384	0.18302
2491.70527	0.18379
2489.77671	0.18451
2487.84814	0.18516
2485.91958	0.18598
2483.99102	0.18705
2482.06245	0.18811
2480.13389	0.18902
2478.20532	0.18984
2476.27676	0.19059
2474.34819	0.19138
2472.41963	0.19232
2470.49106	0.19327
2468.56250	0.19416
2466.63394	0.19506
2464.70537	0.19595
2462.77681	0.19680
2460.84824	0.19776
2458.91968	0.19884
2456.99111	0.19985
2455.06255	0.20080
2453.13398	0.20180
2451.20542	0.20274
2449.27686	0.20361
2447.34829	0.20457
2445.41973	0.20565
2443.49116	0.20673
2441.56260	0.20772
2439.63403	0.20870
2437.70547	0.20978
2435.77690	0.21081
2433.84834	0.21179
2431.91978	0.21291
2429.99121	0.21408
2428.06265	0.21508
2426.13408	0.21593
2424.20552	0.21682
2422.27695	0.21789
2420.34839	0.21910
2418.41982	0.22030
2416.49126	0.22143
2414.56270	0.22262
2412.63413	0.22389
2410.70557	0.22512
2408.77700	0.22623
2406.84844	0.22733
2404.91987	0.22846
2402.99131	0.22963
2401.06274	0.23085
2399.13418	0.23210
2397.20562	0.23334
2395.27705	0.23450
2393.34849	0.23566
2391.41992	0.23704
2389.49136	0.23867
2387.56279	0.24057
2385.63423	0.24291
2383.70566	0.24607
2381.77710	0.25037
2379.84854	0.25577
2377.91997	0.26183
2375.99141	0.26855
2374.06284	0.27653
2372.13428	0.28604
2370.20571	0.29646
2368.27715	0.30693
2366.34858	0.31715
2364.42002	0.32700
2362.49146	0.33559
2360.56289	0.34127
2358.63433	0.34207
2356.70576	0.33775
2354.77720	0.33013
2352.84863	0.32093
2350.92007	0.31194
2348.99150	0.30664
2347.06294	0.30717
2345.13437	0.31414
2343.20581	0.32435
2341.27725	0.33081
2339.34868	0.33226
2337.42012	0.33189
2335.49155	0.33186
2333.56299	0.33217
2331.63442	0.33269
2329.70586	0.33316
2327.77729	0.33296
2325.84873	0.33198
2323.92017	0.33053
2321.99160	0.32851
2320.06304	0.32605
2318.13447	0.32370
2316.20591	0.32190
2314.27734	0.32113
2312.34878	0.32129
2310.42021	0.32151
2308.49165	0.32112
2306.56309	0.32039
2304.63452	0.31984
2302.70596	0.31992
2300.77739	0.32076
2298.84883	0.32185
2296.92026	0.32273
2294.99170	0.32357
2293.06313	0.32461
2291.13457	0.32572
2289.20601	0.32681
2287.27744	0.32794
2285.34888	0.32913
2283.42031	0.33052
2281.49175	0.33231
2279.56318	0.33451
2277.63462	0.33685
2275.70605	0.33912
2273.77749	0.34128
2271.84893	0.34335
2269.92036	0.34534
2267.99180	0.34734
2266.06323	0.34941
2264.13467	0.35152
2262.20610	0.35366
2260.27754	0.35576
2258.34897	0.35773
2256.42041	0.35968
2254.49185	0.36171
2252.56328	0.36376
2250.63472	0.36584
2248.70615	0.36802
2246.77759	0.37014
2244.84902	0.37217
2242.92046	0.37423
2240.99189	0.37641
2239.06333	0.37872
2237.13477	0.38103
2235.20620	0.38324
2233.27764	0.38539
2231.34907	0.38756
2229.42051	0.38973
2227.49194	0.39189
2225.56338	0.39409
2223.63481	0.39635
2221.70625	0.39862
2219.77769	0.40081
2217.84912	0.40294
2215.92056	0.40512
2213.99199	0.40734
2212.06343	0.40955
2210.13486	0.41163
2208.20630	0.41366
2206.27773	0.41577
2204.34917	0.41788
2202.42061	0.41993
2200.49204	0.42196
2198.56348	0.42406
2196.63491	0.42618
2194.70635	0.42819
2192.77778	0.43011
2190.84922	0.43193
2188.92065	0.43370
2186.99209	0.43548
2185.06353	0.43731
2183.13496	0.43913
2181.20640	0.44086
2179.27783	0.44252
2177.34927	0.44412
2175.42070	0.44562
2173.49214	0.44709
2171.56357	0.44856
2169.63501	0.45000
2167.70645	0.45142
2165.77788	0.45270
2163.84932	0.45386
2161.92075	0.45510
2159.99219	0.45628
2158.06362	0.45724
2156.13506	0.45814
2154.20649	0.45900
2152.27793	0.45974
2150.34937	0.46043
2148.42080	0.46103
2146.49224	0.46143
2144.56367	0.46186
2142.63511	0.46246
2140.70654	0.46298
2138.77798	0.46329
2136.84941	0.46349
2134.92085	0.46362
2132.99229	0.46362
2131.06372	0.46360
2129.13516	0.46354
2127.20659	0.46333
2125.27803	0.46298
2123.34946	0.46258
2121.42090	0.46211
2119.49233	0.46153
2117.56377	0.46089
2115.63521	0.46014
2113.70664	0.45927
2111.77808	0.45839
2109.84951	0.45750
2107.92095	0.45657
2105.99238	0.45553
2104.06382	0.45434
2102.13525	0.45310
2100.20669	0.45185
2098.27812	0.45040
2096.34956	0.44876
2094.42100	0.44717
2092.49243	0.44565
2090.56387	0.44399
2088.63530	0.44219
2086.70674	0.44039
2084.77817	0.43850
2082.84961	0.43656
2080.92104	0.43462
2078.99248	0.43253
2077.06392	0.43034
2075.13535	0.42824
2073.20679	0.42618
2071.27822	0.42401
2069.34966	0.42175
2067.42109	0.41946
2065.49253	0.41718
2063.56396	0.41481
2061.63540	0.41229
2059.70684	0.40972
2057.77827	0.40723
2055.84971	0.40479
2053.92114	0.40224
2051.99258	0.39961
2050.06401	0.39698
2048.13545	0.39435
2046.20688	0.39170
2044.27832	0.38911
2042.34976	0.38647
2040.42119	0.38365
2038.49263	0.38080
2036.56406	0.37800
2034.63550	0.37520
2032.70693	0.37241
2030.77837	0.36972
2028.84980	0.36699
2026.92124	0.36415
2024.99268	0.36130
2023.06411	0.35848
2021.13555	0.35567
2019.20698	0.35295
2017.27842	0.35035
2015.34985	0.34763
2013.42129	0.34473
2011.49272	0.34184
2009.56416	0.33903
2007.63560	0.33622
2005.70703	0.33343
2003.77847	0.33080
2001.84990	0.32828
1999.92134	0.32561
1997.99277	0.32284
1996.06421	0.32024
1994.13564	0.31792
1992.20708	0.31563
1990.27852	0.31305
1988.34995	0.31041
1986.42139	0.30788
1984.49282	0.30541
1982.56426	0.30296
1980.63569	0.30048
1978.70713	0.29809
1976.77856	0.29585
1974.85000	0.29359
1972.92144	0.29132
1970.99287	0.28922
1969.06431	0.28733
1967.13574	0.28543
1965.20718	0.28335
1963.27861	0.28124
1961.35005	0.27925
1959.42148	0.27733
1957.49292	0.27544
1955.56436	0.27358
1953.63579	0.27187
1951.70723	0.27023
1949.77866	0.26856
1947.85010	0.26694
1945.92153	0.26552
1943.99297	0.26427
1942.06440	0.26292
1940.13584	0.26119
1938.20728	0.25942
1936.27871	0.25792
1934.35015	0.25658
1932.42158	0.25530
1930.49302	0.25403
1928.56445	0.25284
1926.63589	0.25178
1924.70732	0.25092
1922.77876	0.25014
1920.85020	0.24918
1918.92163	0.24820
1916.99307	0.24725
1915.06450	0.24621
1913.13594	0.24530
1911.20737	0.24474
1909.27881	0.24421
1907.35024	0.24339
1905.42168	0.24253
1903.49312	0.24189
1901.56455	0.24134
1899.63599	0.24079
1897.70742	0.24039
1895.77886	0.24011
1893.85029	0.23978
1891.92173	0.23938
1889.99316	0.23925
1888.06460	0.23910
1886.13604	0.23870
1884.20747	0.23835
1882.27891	0.23808
1880.35034	0.23785
1878.42178	0.23768
1876.49321	0.23770
1874.56465	0.23779
1872.63608	0.23798
1870.70752	0.23853
1868.77896	0.23952
1866.85039	0.23988
1864.92183	0.23935
1862.99326	0.23898
1861.06470	0.23902
1859.13613	0.23934
1857.20757	0.23969
1855.27900	0.24007
1853.35044	0.24048
1851.42187	0.24101
1849.49331	0.24173
1847.56475	0.24268
1845.63618	0.24382
1843.70762	0.24499
1841.77905	0.24558
1839.85049	0.24575
1837.92192	0.24637
1835.99336	0.24724
1834.06479	0.24810
1832.13623	0.24924
1830.20767	0.25107
1828.27910	0.25282
1826.35054	0.25383
1824.42197	0.25492
1822.49341	0.25595
1820.56484	0.25695
1818.63628	0.25820
1816.70771	0.25974
1814.77915	0.26135
1812.85059	0.26327
1810.92202	0.26560
1808.99346	0.26776
1807.06489	0.26951
1805.13633	0.27132
1803.20776	0.27362
1801.27920	0.27633
1799.35063	0.27925
1797.42207	0.28178
1795.49351	0.28428
1793.56494	0.28744
1791.63638	0.29131
1789.70781	0.29443
1787.77925	0.29667
1785.85068	0.29978
1783.92212	0.30364
1781.99355	0.30767
1780.06499	0.31183
1778.13643	0.31610
1776.20786	0.32025
1774.27930	0.32488
1772.35073	0.33113
1770.42217	0.33758
1768.49360	0.34251
1766.56504	0.34720
1764.63647	0.35223
1762.70791	0.35816
1760.77935	0.36580
1758.85078	0.37268
1756.92222	0.37955
1754.99365	0.38718
1753.06509	0.39418
1751.13652	0.40287
1749.20796	0.41417
1747.27939	0.42489
1745.35083	0.43383
1743.42227	0.44328
1741.49370	0.45378
1739.56514	0.46607
1737.63657	0.47836
1735.70801	0.48931
1733.77944	0.50619
1731.85088	0.52599
1729.92231	0.54101
1727.99375	0.55634
1726.06519	0.57289
1724.13662	0.59129
1722.20806	0.61140
1720.27949	0.62984
1718.35093	0.65170
1716.42236	0.68515
1714.49380	0.71620
1712.56523	0.74006
1710.63667	0.76329
1708.70811	0.78869
1706.77954	0.81807
1704.85098	0.85370
1702.92241	0.88506
1700.99385	0.91547
1699.06528	0.96240
1697.13672	1.00636
1695.20815	1.05106
1693.27959	1.09378
1691.35103	1.12774
1689.42246	1.16766
1687.49390	1.21057
1685.56533	1.25197
1683.63677	1.31770
1681.70820	1.38685
1679.77964	1.42922
1677.85107	1.46935
1675.92251	1.51556
1673.99395	1.57390
1672.06538	1.62664
1670.13682	1.67923
1668.20825	1.74872
1666.27969	1.80370
1664.35112	1.85075
1662.42256	1.91212
1660.49399	1.98305
1658.56543	2.03669
1656.63687	2.08048
1654.70830	2.12340
1652.77974	2.19174
1650.85117	2.25092
1648.92261	2.26627
1646.99404	2.28814
1645.06548	2.31099
1643.13691	2.32617
1641.20835	2.33359
1639.27979	2.34233
1637.35122	2.34946
1635.42266	2.34943
1633.49409	2.34085
1631.56553	2.32701
1629.63696	2.31042
1627.70840	2.28130
1625.77983	2.24717
1623.85127	2.20105
1621.92271	2.14473
1619.99414	2.09910
1618.06558	2.05630
1616.13701	1.99046
1614.20845	1.92207
1612.27988	1.87191
1610.35132	1.81976
1608.42275	1.76245
1606.49419	1.70606
1604.56562	1.65490
1602.63706	1.60582
1600.70850	1.55784
1598.77993	1.51341
1596.85137	1.47182
1594.92280	1.43169
1592.99424	1.39279
1591.06567	1.35718
1589.13711	1.32421
1587.20854	1.29444
1585.27998	1.26791
1583.35142	1.24363
1581.42285	1.22126
1579.49429	1.20200
1577.56572	1.18536
1575.63716	1.16576
1573.70859	1.14914
1571.78003	1.13948
1569.85146	1.13004
1567.92290	1.11899
1565.99434	1.11122
1564.06577	1.10656
1562.13721	1.10373
1560.20864	1.10367
1558.28008	1.10855
1556.35151	1.11300
1554.42295	1.11471
1552.49438	1.11694
1550.56582	1.11774
1548.63726	1.11570
1546.70869	1.11130
1544.78013	1.10436
1542.85156	1.09421
1540.92300	1.07695
1538.99443	1.04546
1537.06587	1.02182
1535.13730	1.00611
1533.20874	0.98453
1531.28018	0.96167
1529.35161	0.94629
1527.42305	0.93235
1525.49448	0.91729
1523.56592	0.90420
1521.63735	0.89194
1519.70879	0.87948
1517.78022	0.86921
1515.85166	0.85698
1513.92310	0.84380
1511.99453	0.83241
1510.06597	0.82232
1508.13740	0.81279
1506.20884	0.79712
1504.28027	0.78301
1502.35171	0.77512
1500.42314	0.76857
1498.49458	0.76199
1496.56602	0.75414
1494.63745	0.74584
1492.70889	0.73958
1490.78032	0.73469
1488.85176	0.72887
1486.92319	0.72243
1484.99463	0.71725
1483.06606	0.71362
1481.13750	0.71093
1479.20894	0.70896
1477.28037	0.70810
1475.35181	0.70834
1473.42324	0.70918
1471.49468	0.70908
1469.56611	0.70716
1467.63755	0.70494
1465.70898	0.70339
1463.78042	0.70214
1461.85186	0.70105
1459.92329	0.70097
1457.99473	0.70236
1456.06616	0.70302
1454.13760	0.70051
1452.20903	0.69740
1450.28047	0.69450
1448.35190	0.69178
1446.42334	0.68899
1444.49478	0.68633
1442.56621	0.68371
1440.63765	0.68104
1438.70908	0.67856
1436.78052	0.67551
1434.85195	0.67156
1432.92339	0.66843
1430.99482	0.66660
1429.06626	0.66560
1427.13770	0.66520
1425.20913	0.66558
1423.28057	0.66664
1421.35200	0.66761
1419.42344	0.66845
1417.49487	0.66855
1415.56631	0.66724
1413.63774	0.66616
1411.70918	0.66621
1409.78062	0.66714
1407.85205	0.66853
1405.92349	0.67037
1403.99492	0.67193
1402.06636	0.67228
1400.13779	0.67193
1398.20923	0.67094
1396.28066	0.66863
1394.35210	0.66467
1392.42354	0.65977
1390.49497	0.65521
1388.56641	0.65092
1386.63784	0.64604
1384.70928	0.64065
1382.78071	0.63549
1380.85215	0.63076
1378.92358	0.62678
1376.99502	0.62383
1375.06646	0.62194
1373.13789	0.62068
1371.20933	0.61963
1369.28076	0.61869
1367.35220	0.61750
1365.42363	0.61613
1363.49507	0.61488
1361.56650	0.61335
1359.63794	0.61140
1357.70937	0.60963
1355.78081	0.60825
1353.85225	0.60707
1351.92368	0.60604
1349.99512	0.60520
1348.06655	0.60448
1346.13799	0.60366
1344.20942	0.60275
1342.28086	0.60195
1340.35229	0.60142
1338.42373	0.60095
1336.49517	0.60038
1334.56660	0.59980
1332.63804	0.59938
1330.70947	0.59943
1328.78091	0.59999
1326.85234	0.60073
1324.92378	0.60152
1322.99521	0.60243
1321.06665	0.60337
1319.13809	0.60414
1317.20952	0.60456
1315.28096	0.60459
1313.35239	0.60424
1311.42383	0.60354
1309.49526	0.60268
1307.56670	0.60190
1305.63813	0.60135
1303.70957	0.60091
1301.78101	0.60032
1299.85244	0.59932
1297.92388	0.59798
1295.99531	0.59661
1294.06675	0.59540
1292.13818	0.59421
1290.20962	0.59293
1288.28105	0.59165
1286.35249	0.59038
1284.42393	0.58902
1282.49536	0.58756
1280.56680	0.58607
1278.63823	0.58457
1276.70967	0.58314
1274.78110	0.58197
1272.85254	0.58111
1270.92397	0.58042
1268.99541	0.57974
1267.06685	0.57894
1265.13828	0.57809
1263.20972	0.57732
1261.28115	0.57653
1259.35259	0.57574
1257.42402	0.57514
1255.49546	0.57479
1253.56689	0.57459
1251.63833	0.57448
1249.70977	0.57451
1247.78120	0.57463
1245.85264	0.57464
1243.92407	0.57423
1241.99551	0.57319
1240.06694	0.57163
1238.13838	0.56980
1236.20981	0.56777
1234.28125	0.56542
1232.35269	0.56294
1230.42412	0.56066
1228.49556	0.55864
1226.56699	0.55661
1224.63843	0.55450
1222.70986	0.55244
1220.78130	0.55058
1218.85273	0.54902
1216.92417	0.54779
1214.99561	0.54669
1213.06704	0.54573
1211.13848	0.54497
1209.20991	0.54431
1207.28135	0.54357
1205.35278	0.54267
1203.42422	0.54170
1201.49565	0.54074
1199.56709	0.53973
1197.63853	0.53868
1195.70996	0.53782
1193.78140	0.53726
1191.85283	0.53679
1189.92427	0.53631
1187.99570	0.53587
1186.06714	0.53548
1184.13857	0.53538
1182.21001	0.53592
1180.28145	0.53704
1178.35288	0.53831
1176.42432	0.53951
1174.49575	0.54071
1172.56719	0.54170
1170.63862	0.54216
1168.71006	0.54232
1166.78149	0.54251
1164.85293	0.54267
1162.92437	0.54268
1160.99580	0.54252
1159.06724	0.54221
1157.13867	0.54174
1155.21011	0.54091
1153.28154	0.53953
1151.35298	0.53758
1149.42441	0.53519
1147.49585	0.53254
1145.56729	0.52987
1143.63872	0.52730
1141.71016	0.52478
1139.78159	0.52248
1137.85303	0.52082
1135.92446	0.51986
1133.99590	0.51945
1132.06733	0.51944
1130.13877	0.51958
1128.21021	0.51951
1126.28164	0.51911
1124.35308	0.51857
1122.42451	0.51800
1120.49595	0.51753
1118.56738	0.51755
1116.63882	0.51821
1114.71025	0.51894
1112.78169	0.51948
1110.85312	0.52027
1108.92456	0.52135
1106.99600	0.52240
1105.06743	0.52346
1103.13887	0.52464
1101.21030	0.52580
1099.28174	0.52705
1097.35317	0.52897
1095.42461	0.53180
1093.49604	0.53539
1091.56748	0.53979
1089.63892	0.54526
1087.71035	0.55206
1085.78179	0.55997
1083.85322	0.56804
1081.92466	0.57521
1079.99609	0.58067
1078.06753	0.58352
1076.13896	0.58314
1074.21040	0.57993
1072.28184	0.57486
1070.35327	0.56855
1068.42471	0.56141
1066.49614	0.55418
1064.56758	0.54762
1062.63901	0.54193
1060.71045	0.53699
1058.78188	0.53279
1056.85332	0.52922
1054.92476	0.52585
1052.99619	0.52270
1051.06763	0.52022
1049.13906	0.51845
1047.21050	0.51716
1045.28193	0.51633
1043.35337	0.51580
1041.42480	0.51533
1039.49624	0.51495
1037.56768	0.51469
1035.63911	0.51441
1033.71055	0.51380
1031.78198	0.51274
1029.85342	0.51154
1027.92485	0.51029
1025.99629	0.50890
1024.06772	0.50783
1022.13916	0.50738
1020.21060	0.50718
1018.28203	0.50696
1016.35347	0.50684
1014.42490	0.50686
1012.49634	0.50679
1010.56777	0.50663
1008.63921	0.50670
1006.71064	0.50720
1004.78208	0.50823
1002.85352	0.51002
1000.92495	0.51269
998.99639	0.51609
997.06782	0.52011
995.13926	0.52457
993.21069	0.52887
991.28213	0.53232
989.35356	0.53451
987.42500	0.53535
985.49644	0.53541
983.56787	0.53535
981.63931	0.53550
979.71074	0.53605
977.78218	0.53712
975.85361	0.53877
973.92505	0.54098
971.99648	0.54376
970.06792	0.54710
968.13936	0.55107
966.21079	0.55538
964.28223	0.55965
962.35366	0.56411
960.42510	0.56910
958.49653	0.57442
956.56797	0.57992
954.63940	0.58581
952.71084	0.59217
950.78228	0.59873
948.85371	0.60521
946.92515	0.61154
944.99658	0.61777
943.06802	0.62385
941.13945	0.62964
939.21089	0.63534
937.28232	0.64115
935.35376	0.64676
933.42520	0.65243
931.49663	0.65888
929.56807	0.66563
927.63950	0.67161
925.71094	0.67691
923.78237	0.68240
921.85381	0.68872
919.92524	0.69566
917.99668	0.70277
916.06812	0.71022
914.13955	0.71817
912.21099	0.72579
910.28242	0.73309
908.35386	0.74113
906.42529	0.74991
904.49673	0.75893
902.56816	0.76828
900.63960	0.77784
898.71104	0.78719
896.78247	0.79667
894.85391	0.80668
892.92534	0.81689
890.99678	0.82781
889.06821	0.83924
887.13965	0.85020
885.21108	0.86121
883.28252	0.87178
881.35396	0.88153
879.42539	0.89200
877.49683	0.90395
875.56826	0.91656
873.63970	0.92842
871.71113	0.93938
869.78257	0.95023
867.85400	0.96188
865.92544	0.97456
863.99687	0.98654
862.06831	0.99664
860.13975	1.00653
858.21118	1.01830
856.28262	1.03141
854.35405	1.04470
852.42549	1.05756
850.49692	1.06940
848.56836	1.08068
846.63979	1.09214
844.71123	1.10424
842.78267	1.11726
840.85410	1.13108
838.92554	1.14379
836.99697	1.15486
835.06841	1.16661
833.13984	1.17883
831.21128	1.19068
829.28271	1.20282
827.35415	1.21346
825.42559	1.22226
823.49702	1.23291
821.56846	1.24740
819.63989	1.26402
817.71133	1.27346
815.78276	1.27526
813.85420	1.28412
811.92563	1.30277
809.99707	1.32259
808.06851	1.33624
806.13994	1.34677
804.21138	1.36559
802.28281	1.38496
800.35425	1.38403
798.42568	1.38396
796.49712	1.40834
794.56855	1.42146
792.63999	1.40900
790.71143	1.42209
788.78286	1.49404
786.85430	1.59770
784.92573	1.61877
782.99717	1.49463
781.06860	1.39166
779.14004	1.38630
777.21147	1.43657
775.28291	1.45889
773.35435	1.45099
771.42578	1.51168
769.49722	1.65273
767.56865	1.66452
765.64009	1.51799
763.71152	1.45341
761.78296	1.51482
759.85439	1.52891
757.92583	1.35121
755.99727	1.20608
754.06870	1.15721
752.14014	1.16390
750.21157	1.19288
748.28301	1.18745
746.35444	1.10760
744.42588	1.01296
742.49731	0.94140
740.56875	0.92332
738.64019	0.97461
736.71162	1.03072
734.78306	1.04686
732.85449	0.98700
730.92593	0.80829
728.99736	0.67837
727.06880	0.64568
725.14023	0.60049
723.21167	0.51713
721.28311	0.49951
719.35454	0.46942
717.42598	0.32070
715.49741	0.14613
713.56885	-0.03150
711.64028	-0.16404
709.71172	-0.09011
707.78315	0.13308
705.85459	0.10851
703.92603	0.07547
701.99746	0.08723
700.06890	0.12314
698.14033	0.12271
696.21177	0.07811
694.28320	0.07504
692.35464	0.10012
690.42607	0.13736
688.49751	0.16193
686.56895	0.17983
684.64038	0.21346
682.71182	0.24966
680.78325	0.25516
678.85469	0.14428
676.92612	0.01968
674.99756	-0.03061
673.06899	-0.00167
671.14043	0.12439
669.21187	0.25407
667.28330	0.28426
665.35474	0.16149
663.42617	0.02412
661.49761	0.04711
659.56904	0.11959
657.64048	0.10566
655.71191	0.02953
653.78335	-0.00626
651.85479	0.03812
649.92622	0.11520
647.99766	0.10651
646.06909	0.02494
644.14053	0.01916
642.21196	0.12533
640.28340	0.27044
638.35483	0.31692
636.42627	0.24686
634.49771	0.14717
632.56914	0.03535
630.64058	-0.04542
628.71201	0.01062
626.78345	0.11241
624.85488	0.10148
622.92632	0.01619
620.99775	-0.04524
619.06919	-0.01101
617.14062	0.09833
615.21206	0.14562
613.28350	0.16760
611.35493	0.28298
609.42637	0.43366
607.49780	0.36035
605.56924	0.23923
603.64067	0.19841
601.71211	0.20740
599.78354	0.20911
597.85498	0.16154
595.92642	0.14804
593.99785	0.21838
592.06929	0.25338
590.14072	0.17486
588.21216	0.09111
586.28359	0.09367
584.35503	0.11388
582.42646	0.08090
580.49790	0.08300
578.56934	0.10828
576.64077	0.12671
574.71221	0.14820
572.78364	0.13971
570.85508	0.13409
568.92651	0.17118
566.99795	0.16552
565.06938	0.12249
563.14082	0.13163
561.21226	0.17806
559.28369	0.19715
557.35513	0.19261
555.42656	0.22181
553.49800	0.21197
551.56943	0.19656
549.64087	0.23551
547.71230	0.27228
545.78374	0.23827
543.85518	0.17828
541.92661	0.19222
539.99805	0.24922
538.06948	0.18368
536.14092	0.08443
534.21235	0.08303
532.28379	0.16608
530.35522	0.19499
528.42666	0.18288
526.49810	0.24669
524.56953	0.36258
522.64097	0.27227
520.71240	0.16512
518.78384	0.14902
516.85527	0.17889
514.92671	0.19390
512.99814	0.16128
511.06958	0.13194
509.14102	0.14970
507.21245	0.16505
505.28389	0.12927
503.35532	0.10951
501.42676	0.11217
499.49819	0.10545
