3997.91411	0.03998
3995.98555	0.04050
3994.05698	0.04142
3992.12842	0.04220
3990.19985	0.04262
3988.27129	0.04301
3986.34272	0.04326
3984.41416	0.04344
3982.48560	0.04386
3980.55703	0.04446
3978.62847	0.04484
3976.69990	0.04506
3974.77134	0.04548
3972.84277	0.04596
3970.91421	0.04616
3968.98564	0.04605
3967.05708	0.04590
3965.12852	0.04593
3963.19995	0.04634
3961.27139	0.04701
3959.34282	0.04733
3957.41426	0.04721
3955.48569	0.04730
3953.55713	0.04779
3951.62856	0.04855
3949.70000	0.04979
3947.77144	0.05077
3945.84287	0.05051
3943.91431	0.05034
3941.98574	0.05083
3940.05718	0.05041
3938.12861	0.04948
3936.20005	0.04919
3934.27148	0.04983
3932.34292	0.05173
3930.41436	0.05330
3928.48579	0.05240
3926.55723	0.05108
3924.62866	0.05167
3922.70010	0.05251
3920.77153	0.05230
3918.84297	0.05243
3916.91440	0.05275
3914.98584	0.05159
3913.05728	0.04938
3911.12871	0.04791
3909.20015	0.04773
3907.27158	0.04953
3905.34302	0.05429
3903.41445	0.06013
3901.48589	0.06242
3899.55732	0.06051
3897.62876	0.05652
3895.70020	0.05303
3893.77163	0.05267
3891.84307	0.05496
3889.91450	0.05575
3887.98594	0.05446
3886.05737	0.05523
3884.12881	0.05734
3882.20024	0.05814
3880.27168	0.05833
3878.34312	0.05633
3876.41455	0.05378
3874.48599	0.05520
3872.55742	0.05982
3870.62886	0.06396
3868.70029	0.06480
3866.77173	0.06293
3864.84316	0.06349
3862.91460	0.06506
3860.98604	0.06266
3859.05747	0.05983
3857.12891	0.06099
3855.20034	0.06642
3853.27178	0.07439
3851.34321	0.07539
3849.41465	0.06787
3847.48608	0.06223
3845.55752	0.06103
3843.62896	0.06364
3841.70039	0.06807
3839.77183	0.07306
3837.84326	0.07702
3835.91470	0.07637
3833.98613	0.07316
3832.05757	0.07090
3830.12900	0.06945
3828.20044	0.06908
3826.27187	0.07022
3824.34331	0.07220
3822.41475	0.07613
3820.48618	0.08237
3818.55762	0.08430
3816.62905	0.08211
3814.70049	0.07942
3812.77192	0.07597
3810.84336	0.07422
3808.91479	0.07586
3806.98623	0.08059
3805.05767	0.08497
3803.12910	0.08741
3801.20054	0.09035
3799.27197	0.09155
3797.34341	0.09036
3795.41484	0.08881
3793.48628	0.08648
3791.55771	0.08492
3789.62915	0.08513
3787.70059	0.08684
3785.77202	0.09012
3783.84346	0.09339
3781.91489	0.09511
3779.98633	0.09722
3778.05776	0.09963
3776.12920	0.09967
3774.20063	0.09920
3772.27207	0.10112
3770.34351	0.10572
3768.41494	0.11035
3766.48638	0.11254
3764.55781	0.11349
3762.62925	0.11444
3760.70068	0.11752
3758.77212	0.12318
3756.84355	0.12752
3754.91499	0.12997
3752.98643	0.13499
3751.05786	0.14479
3749.12930	0.15297
3747.20073	0.15360
3745.27217	0.15429
3743.34360	0.15714
3741.41504	0.15900
3739.48647	0.16178
3737.55791	0.16844
3735.62935	0.17962
3733.70078	0.18938
3731.77222	0.19085
3729.84365	0.19023
3727.91509	0.19277
3725.98652	0.19885
3724.05796	0.20624
3722.12939	0.21245
3720.20083	0.21716
3718.27227	0.22085
3716.34370	0.22506
3714.41514	0.23191
3712.48657	0.24479
3710.55801	0.26428
3708.62944	0.27974
3706.70088	0.28810
3704.77231	0.29723
3702.84375	0.31081
3700.91519	0.32904
3698.98662	0.34711
3697.05806	0.36331
3695.12949	0.38133
3693.20093	0.40218
3691.27236	0.42771
3689.34380	0.46116
3687.41523	0.49552
3685.48667	0.52033
3683.55811	0.54279
3681.62954	0.57040
3679.70098	0.60426
3677.77241	0.64159
3675.84385	0.68619
3673.91528	0.74247
3671.98672	0.78443
3670.05815	0.82298
3668.12959	0.87638
3666.20103	0.92141
3664.27246	0.95899
3662.34390	1.00214
3660.41533	1.05051
3658.48677	1.09870
3656.55820	1.15057
3654.62964	1.20850
3652.70107	1.25677
3650.77251	1.30134
3648.84395	1.36603
3646.91538	1.43848
3644.98682	1.48326
3643.05825	1.51777
3641.12969	1.55700
3639.20112	1.60275
3637.27256	1.64954
3635.34399	1.69527
3633.41543	1.74131
3631.48687	1.78537
3629.55830	1.83147
3627.62974	1.89055
3625.70117	1.94018
3623.77261	1.97084
3621.84404	2.00236
3619.91548	2.04176
3617.98691	2.09054
3616.05835	2.13618
3614.12979	2.17451
3612.20122	2.21536
3610.27266	2.25467
3608.34409	2.29392
3606.41553	2.33683
3604.48696	2.37637
3602.55840	2.41229
3600.62983	2.45283
3598.70127	2.49728
3596.77271	2.53905
3594.84414	2.57975
3592.91558	2.62156
3590.98701	2.66122
3589.05845	2.69998
3587.12988	2.74847
3585.20132	2.79916
3583.27275	2.83783
3581.34419	2.87325
3579.41562	2.91274
3577.48706	2.95547
3575.55850	2.99916
3573.62993	3.04456
3571.70137	3.08891
3569.77280	3.13134
3567.84424	3.17785
3565.91567	3.23261
3563.98711	3.27987
3562.05854	3.31811
3560.12998	3.36050
3558.20142	3.40751
3556.27285	3.45343
3554.34429	3.49545
3552.41572	3.54008
3550.48716	3.58983
3548.55859	3.63939
3546.63003	3.68850
3544.70146	3.74049
3542.77290	3.79135
3540.84434	3.83665
3538.91577	3.88012
3536.98721	3.92674
3535.05864	3.97890
3533.13008	4.03122
3531.20151	4.08113
3529.27295	4.13169
3527.34438	4.18226
3525.41582	4.22945
3523.48726	4.27617
3521.55869	4.32314
3519.63013	4.36642
3517.70156	4.41348
3515.77300	4.46918
3513.84443	4.52498
3511.91587	4.57452
3509.98730	4.62284
3508.05874	4.67340
3506.13018	4.72199
3504.20161	4.76820
3502.27305	4.81656
3500.34448	4.86464
3498.41592	4.91136
3496.48735	4.96382
3494.55879	5.01975
3492.63022	5.07194
3490.70166	5.12056
3488.77310	5.16914
3486.84453	5.21894
3484.91597	5.26727
3482.98740	5.31089
3481.05884	5.35388
3479.13027	5.40174
3477.20171	5.45333
3475.27314	5.50648
3473.34458	5.55488
3471.41602	5.59703
3469.48745	5.64475
3467.55889	5.69812
3465.63032	5.74348
3463.70176	5.78504
3461.77319	5.83615
3459.84463	5.90204
3457.91606	5.97555
3455.98750	6.03565
3454.05894	6.07347
3452.13037	6.11082
3450.20181	6.16225
3448.27324	6.21453
3446.34468	6.26128
3444.41611	6.31149
3442.48755	6.37758
3440.55898	6.44732
3438.63042	6.49540
3436.70186	6.51397
3434.77329	6.52832
3432.84473	6.57436
3430.91616	6.65136
3428.98760	6.74680
3427.05903	6.82540
3425.13047	6.86516
3423.20190	6.90143
3421.27334	6.94856
3419.34478	6.99111
3417.41621	7.02911
3415.48765	7.06001
3413.55908	7.09193
3411.63052	7.13906
3409.70195	7.19096
3407.77339	7.26354
3405.84482	7.35471
3403.91626	7.41280
3401.98770	7.42400
3400.05913	7.43046
3398.13057	7.43561
3396.20200	7.46304
3394.27344	7.57417
3392.34487	7.70154
3390.41631	7.74501
3388.48774	7.73470
3386.55918	7.75100
3384.63062	7.82202
3382.70205	7.90857
3380.77349	7.91793
3378.84492	7.87769
3376.91636	7.89006
3374.98779	7.94035
3373.05923	7.99094
3371.13066	7.99536
3369.20210	7.99050
3367.27354	8.02623
3365.34497	8.08232
3363.41641	8.13861
3361.48784	8.15757
3359.55928	8.14139
3357.63071	8.10830
3355.70215	8.07716
3353.77358	8.05823
3351.84502	8.08057
3349.91646	8.14605
3347.98789	8.21390
3346.05933	8.24713
3344.13076	8.25952
3342.20220	8.29270
3340.27363	8.32389
3338.34507	8.31474
3336.41650	8.24525
3334.48794	8.19217
3332.55937	8.22396
3330.63081	8.32353
3328.70225	8.37026
3326.77368	8.32283
3324.84512	8.35326
3322.91655	8.46157
3320.98799	8.48609
3319.05942	8.41294
3317.13086	8.36261
3315.20229	8.36796
3313.27373	8.38652
3311.34517	8.38521
3309.41660	8.34345
3307.48804	8.31390
3305.55947	8.36342
3303.63091	8.42891
3301.70234	8.43213
3299.77378	8.45065
3297.84521	8.46685
3295.91665	8.43339
3293.98809	8.40827
3292.05952	8.39119
3290.13096	8.38902
3288.20239	8.42037
3286.27383	8.44600
3284.34526	8.47596
3282.41670	8.55929
3280.48813	8.67093
3278.55957	8.74866
3276.63101	8.77540
3274.70244	8.80407
3272.77388	8.76747
3270.84531	8.64792
3268.91675	8.57845
3266.98818	8.54573
3265.05962	8.51981
3263.13105	8.48808
3261.20249	8.46574
3259.27393	8.51474
3257.34536	8.57666
3255.41680	8.53656
3253.48823	8.50300
3251.55967	8.59687
3249.63110	8.68814
3247.70254	8.64084
3245.77397	8.53601
3243.84541	8.46628
3241.91685	8.37160
3239.98828	8.26211
3238.05972	8.28495
3236.13115	8.41747
3234.20259	8.49471
3232.27402	8.53734
3230.34546	8.60193
3228.41689	8.58918
3226.48833	8.51414
3224.55977	8.46435
3222.63120	8.45412
3220.70264	8.48975
3218.77407	8.45110
3216.84551	8.28364
3214.91694	8.17603
3212.98838	8.15754
3211.05981	8.17222
3209.13125	8.22955
3207.20269	8.24545
3205.27412	8.17414
3203.34556	8.09370
3201.41699	8.05323
3199.48843	8.04976
3197.55986	8.04996
3195.63130	8.02028
3193.70273	7.95875
3191.77417	7.87757
3189.84561	7.82007
3187.91704	7.82162
3185.98848	7.82313
3184.05991	7.78854
3182.13135	7.75256
3180.20278	7.68379
3178.27422	7.56398
3176.34565	7.43987
3174.41709	7.31332
3172.48853	7.20112
3170.55996	7.14494
3168.63140	7.11697
3166.70283	7.06803
3164.77427	7.01349
3162.84570	6.97211
3160.91714	6.92582
3158.98857	6.87679
3157.06001	6.81568
3155.13145	6.72013
3153.20288	6.61292
3151.27432	6.53123
3149.34575	6.47002
3147.41719	6.39573
3145.48862	6.30644
3143.56006	6.21728
3141.63149	6.13627
3139.70293	6.07265
3137.77437	6.02447
3135.84580	5.97794
3133.91724	5.91690
3131.98867	5.83435
3130.06011	5.75024
3128.13154	5.67958
3126.20298	5.60913
3124.27441	5.53447
3122.34585	5.46498
3120.41729	5.39783
3118.48872	5.31829
3116.56016	5.23156
3114.63159	5.15876
3112.70303	5.09564
3110.77446	5.02842
3108.84590	4.95986
3106.91733	4.88884
3104.98877	4.81052
3103.06021	4.73392
3101.13164	4.66345
3099.20308	4.59377
3097.27451	4.52850
3095.34595	4.46994
3093.41738	4.40855
3091.48882	4.33959
3089.56025	4.26982
3087.63169	4.20656
3085.70312	4.14776
3083.77456	4.08406
3081.84600	4.01647
3079.91743	3.95494
3077.98887	3.89830
3076.06030	3.83925
3074.13174	3.77877
3072.20317	3.71897
3070.27461	3.65858
3068.34604	3.59973
3066.41748	3.54391
3064.48892	3.48782
3062.56035	3.43072
3060.63179	3.37568
3058.70322	3.32231
3056.77466	3.26836
3054.84609	3.21427
3052.91753	3.16175
3050.98896	3.11062
3049.06040	3.05972
3047.13184	3.00988
3045.20327	2.96093
3043.27471	2.91188
3041.34614	2.86294
3039.41758	2.81422
3037.48901	2.76638
3035.56045	2.71989
3033.63188	2.67431
3031.70332	2.62906
3029.77476	2.58429
3027.84619	2.54062
3025.91763	2.49752
3023.98906	2.45414
3022.06050	2.41088
3020.13193	2.36818
3018.20337	2.32628
3016.27480	2.28574
3014.34624	2.24670
3012.41768	2.20841
3010.48911	2.17016
3008.56055	2.13220
3006.63198	2.09519
3004.70342	2.05941
3002.77485	2.02442
3000.84629	1.98990
2998.91772	1.95550
2996.98916	1.92124
2995.06060	1.88833
2993.13203	1.85702
2991.20347	1.82612
2989.27490	1.79530
2987.34634	1.76525
2985.41777	1.73596
2983.48921	1.70679
2981.56064	1.67777
2979.63208	1.64931
2977.70352	1.62186
2975.77495	1.59551
2973.84639	1.56956
2971.91782	1.54310
2969.98926	1.51581
2968.06069	1.48811
2966.13213	1.46099
2964.20356	1.43489
2962.27500	1.40885
2960.34644	1.38233
2958.41787	1.35631
2956.48931	1.33178
2954.56074	1.30825
2952.63218	1.28467
2950.70361	1.26116
2948.77505	1.23816
2946.84648	1.21571
2944.91792	1.19354
2942.98936	1.17085
2941.06079	1.14738
2939.13223	1.12355
2937.20366	1.09933
2935.27510	1.07443
2933.34653	1.04892
2931.41797	1.02297
2929.48940	0.99689
2927.56084	0.97101
2925.63228	0.94532
2923.70371	0.92004
2921.77515	0.89626
2919.84658	0.87521
2917.91802	0.85762
2915.98945	0.84480
2914.06089	0.83779
2912.13232	0.83427
2910.20376	0.83030
2908.27520	0.82376
2906.34663	0.81484
2904.41807	0.80457
2902.48950	0.79349
2900.56094	0.78185
2898.63237	0.77032
2896.70381	0.75943
2894.77524	0.74865
2892.84668	0.73756
2890.91812	0.72678
2888.98955	0.71686
2887.06099	0.70743
2885.13242	0.69822
2883.20386	0.68938
2881.27529	0.68069
2879.34673	0.67151
2877.41816	0.66158
2875.48960	0.65122
2873.56104	0.64055
2871.63247	0.62954
2869.70391	0.61830
2867.77534	0.60652
2865.84678	0.59364
2863.91821	0.57984
2861.98965	0.56536
2860.06108	0.55014
2858.13252	0.53431
2856.20396	0.51813
2854.27539	0.50179
2852.34683	0.48571
2850.41826	0.47186
2848.48970	0.46386
2846.56113	0.46349
2844.63257	0.46769
2842.70400	0.47146
2840.77544	0.47233
2838.84687	0.47063
2836.91831	0.46749
2834.98975	0.46345
2833.06118	0.45884
2831.13262	0.45394
2829.20405	0.44888
2827.27549	0.44356
2825.34692	0.43787
2823.41836	0.43208
2821.48979	0.42640
2819.56123	0.42079
2817.63267	0.41524
2815.70410	0.40972
2813.77554	0.40416
2811.84697	0.39874
2809.91841	0.39351
2807.98984	0.38829
2806.06128	0.38297
2804.13271	0.37765
2802.20415	0.37252
2800.27559	0.36760
2798.34702	0.36270
2796.41846	0.35771
2794.48989	0.35266
2792.56133	0.34778
2790.63276	0.34327
2788.70420	0.33901
2786.77563	0.33484
2784.84707	0.33064
2782.91851	0.32628
2780.98994	0.32191
2779.06138	0.31783
2777.13281	0.31395
2775.20425	0.31002
2773.27568	0.30602
2771.34712	0.30208
2769.41855	0.29830
2767.48999	0.29464
2765.56143	0.29104
2763.63286	0.28758
2761.70430	0.28416
2759.77573	0.28058
2757.84717	0.27713
2755.91860	0.27398
2753.99004	0.27083
2752.06147	0.26748
2750.13291	0.26424
2748.20435	0.26134
2746.27578	0.25853
2744.34722	0.25559
2742.41865	0.25266
2740.49009	0.24988
2738.56152	0.24729
2736.63296	0.24488
2734.70439	0.24242
2732.77583	0.23979
2730.84727	0.23707
2728.91870	0.23438
2726.99014	0.23193
2725.06157	0.22970
2723.13301	0.22746
2721.20444	0.22530
2719.27588	0.22326
2717.34731	0.22112
2715.41875	0.21886
2713.49019	0.21676
2711.56162	0.21491
2709.63306	0.21320
2707.70449	0.21147
2705.77593	0.20964
2703.84736	0.20791
2701.91880	0.20645
2699.99023	0.20499
2698.06167	0.20330
2696.13311	0.20167
2694.20454	0.20023
2692.27598	0.19880
2690.34741	0.19731
2688.41885	0.19576
2686.49028	0.19416
2684.56172	0.19271
2682.63315	0.19158
2680.70459	0.19058
2678.77603	0.18944
2676.84746	0.18805
2674.91890	0.18660
2672.99033	0.18530
2671.06177	0.18408
2669.13320	0.18280
2667.20464	0.18167
2665.27607	0.18072
2663.34751	0.17976
2661.41895	0.17878
2659.49038	0.17787
2657.56182	0.17700
2655.63325	0.17607
2653.70469	0.17500
2651.77612	0.17392
2649.84756	0.17309
2647.91899	0.17247
2645.99043	0.17181
2644.06187	0.17105
2642.13330	0.17028
2640.20474	0.16966
2638.27617	0.16927
2636.34761	0.16878
2634.41904	0.16815
2632.49048	0.16773
2630.56191	0.16744
2628.63335	0.16690
2626.70479	0.16622
2624.77622	0.16575
2622.84766	0.16541
2620.91909	0.16499
2618.99053	0.16465
2617.06196	0.16446
2615.13340	0.16412
2613.20483	0.16370
2611.27627	0.16352
2609.34771	0.16350
2607.41914	0.16341
2605.49058	0.16324
2603.56201	0.16310
2601.63345	0.16299
2599.70488	0.16286
2597.77632	0.16278
2595.84775	0.16279
2593.91919	0.16282
2591.99062	0.16284
2590.06206	0.16290
2588.13350	0.16305
2586.20493	0.16324
2584.27637	0.16333
2582.34780	0.16345
2580.41924	0.16378
2578.49067	0.16419
2576.56211	0.16451
2574.63354	0.16480
2572.70498	0.16515
2570.77642	0.16549
2568.84785	0.16580
2566.91929	0.16618
2564.99072	0.16669
2563.06216	0.16709
2561.13359	0.16733
2559.20503	0.16766
2557.27646	0.16814
2555.34790	0.16877
2553.41934	0.16946
2551.49077	0.16996
2549.56221	0.17036
2547.63364	0.17083
2545.70508	0.17134
2543.77651	0.17188
2541.84795	0.17242
2539.91938	0.17299
2537.99082	0.17358
2536.06226	0.17416
2534.13369	0.17484
2532.20513	0.17570
2530.27656	0.17652
2528.34800	0.17710
2526.41943	0.17768
2524.49087	0.17848
2522.56230	0.17939
2520.63374	0.18023
2518.70518	0.18097
2516.77661	0.18160
2514.84805	0.18218
2512.91948	0.18293
2510.99092	0.18394
2509.06235	0.18494
2507.13379	0.18576
2505.20522	0.18650
2503.27666	0.18731
2501.34810	0.18814
2499.41953	0.18886
2497.49097	0.18958
2495.56240	0.19042
2493.63384	0.19136
2491.70527	0.19229
2489.77671	0.19312
2487.84814	0.19392
2485.91958	0.19484
2483.99102	0.19583
2482.06245	0.19674
2480.13389	0.19758
2478.20532	0.19839
2476.27676	0.19918
2474.34819	0.20001
2472.41963	0.20097
2470.49106	0.20201
2468.56250	0.20298
2466.63394	0.20387
2464.70537	0.20476
2462.77681	0.20565
2460.84824	0.20664
2458.91968	0.20771
2456.99111	0.20871
2455.06255	0.20960
2453.13398	0.21052
2451.20542	0.21138
2449.27686	0.21218
2447.34829	0.21309
2445.41973	0.21415
2443.49116	0.21528
2441.56260	0.21638
2439.63403	0.21741
2437.70547	0.21843
2435.77690	0.21955
2433.84834	0.22071
2431.91978	0.22166
2429.99121	0.22254
2428.06265	0.22359
2426.13408	0.22463
2424.20552	0.22557
2422.27695	0.22659
2420.34839	0.22775
2418.41982	0.22886
2416.49126	0.22994
2414.56270	0.23113
2412.63413	0.23236
2410.70557	0.23355
2408.77700	0.23472
2406.84844	0.23587
2404.91987	0.23697
2402.99131	0.23811
2401.06274	0.23934
2399.13418	0.24058
2397.20562	0.24190
2395.27705	0.24326
2393.34849	0.24450
2391.41992	0.24581
2389.49136	0.24745
2387.56279	0.24971
2385.63423	0.25318
2383.70566	0.25836
2381.77710	0.26529
2379.84854	0.27368
2377.91997	0.28329
2375.99141	0.29417
2374.06284	0.30694
2372.13428	0.32186
2370.20571	0.33794
2368.27715	0.35385
2366.34858	0.36874
2364.42002	0.38194
2362.49146	0.39273
2360.56289	0.39954
2358.63433	0.40038
2356.70576	0.39506
2354.77720	0.38446
2352.84863	0.36981
2350.92007	0.35413
2348.99150	0.34412
2347.06294	0.34425
2345.13437	0.35524
2343.20581	0.37081
2341.27725	0.37959
2339.34868	0.38054
2337.42012	0.37889
2335.49155	0.37758
2333.56299	0.37664
2331.63442	0.37639
2329.70586	0.37628
2327.77729	0.37468
2325.84873	0.37122
2323.92017	0.36696
2321.99160	0.36257
2320.06304	0.35775
2318.13447	0.35270
2316.20591	0.34859
2314.27734	0.34623
2312.34878	0.34515
2310.42021	0.34416
2308.49165	0.34223
2306.56309	0.33937
2304.63452	0.33693
2302.70596	0.33598
2300.77739	0.33594
2298.84883	0.33586
2296.92026	0.33581
2294.99170	0.33600
2293.06313	0.33614
2291.13457	0.33619
2289.20601	0.33643
2287.27744	0.33683
2285.34888	0.33738
2283.42031	0.33835
2281.49175	0.33997
2279.56318	0.34216
2277.63462	0.34458
2275.70605	0.34705
2273.77749	0.34941
2271.84893	0.35148
2269.92036	0.35342
2267.99180	0.35547
2266.06323	0.35759
2264.13467	0.35960
2262.20610	0.36151
2260.27754	0.36333
2258.34897	0.36503
2256.42041	0.36676
2254.49185	0.36866
2252.56328	0.37069
2250.63472	0.37272
2248.70615	0.37467
2246.77759	0.37656
2244.84902	0.37854
2242.92046	0.38077
2240.99189	0.38315
2239.06333	0.38531
2237.13477	0.38721
2235.20620	0.38913
2233.27764	0.39124
2231.34907	0.39349
2229.42051	0.39573
2227.49194	0.39791
2225.56338	0.40014
2223.63481	0.40250
2221.70625	0.40481
2219.77769	0.40696
2217.84912	0.40907
2215.92056	0.41125
2213.99199	0.41340
2212.06343	0.41551
2210.13486	0.41764
2208.20630	0.41972
2206.27773	0.42183
2204.34917	0.42399
2202.42061	0.42606
2200.49204	0.42804
2198.56348	0.43007
2196.63491	0.43209
2194.70635	0.43408
2192.77778	0.43605
2190.84922	0.43793
2188.92065	0.43969
2186.99209	0.44139
2185.06353	0.44310
2183.13496	0.44484
2181.20640	0.44659
2179.27783	0.44828
2177.34927	0.44993
2175.42070	0.45152
2173.49214	0.45300
2171.56357	0.45438
2169.63501	0.45571
2167.70645	0.45703
2165.77788	0.45834
2163.84932	0.45959
2161.92075	0.46080
2159.99219	0.46194
2158.06362	0.46296
2156.13506	0.46399
2154.20649	0.46497
2152.27793	0.46571
2150.34937	0.46627
2148.42080	0.46684
2146.49224	0.46740
2144.56367	0.46791
2142.63511	0.46841
2140.70654	0.46883
2138.77798	0.46920
2136.84941	0.46949
2134.92085	0.46966
2132.99229	0.46966
2131.06372	0.46951
2129.13516	0.46931
2127.20659	0.46907
2125.27803	0.46871
2123.34946	0.46826
2121.42090	0.46780
2119.49233	0.46728
2117.56377	0.46664
2115.63521	0.46588
2113.70664	0.46511
2111.77808	0.46430
2109.84951	0.46332
2107.92095	0.46226
2105.99238	0.46122
2104.06382	0.46014
2102.13525	0.45892
2100.20669	0.45762
2098.27812	0.45619
2096.34956	0.45466
2094.42100	0.45310
2092.49243	0.45158
2090.56387	0.45002
2088.63530	0.44824
2086.70674	0.44629
2084.77817	0.44434
2082.84961	0.44245
2080.92104	0.44053
2078.99248	0.43852
2077.06392	0.43642
2075.13535	0.43425
2073.20679	0.43205
2071.27822	0.42984
2069.34966	0.42759
2067.42109	0.42540
2065.49253	0.42326
2063.56396	0.42083
2061.63540	0.41817
2059.70684	0.41561
2057.77827	0.41311
2055.84971	0.41056
2053.92114	0.40795
2051.99258	0.40533
2050.06401	0.40275
2048.13545	0.40018
2046.20688	0.39754
2044.27832	0.39492
2042.34976	0.39230
2040.42119	0.38950
2038.49263	0.38658
2036.56406	0.38373
2034.63550	0.38093
2032.70693	0.37811
2030.77837	0.37526
2028.84980	0.37238
2026.92124	0.36959
2024.99268	0.36688
2023.06411	0.36414
2021.13555	0.36142
2019.20698	0.35890
2017.27842	0.35638
2015.34985	0.35342
2013.42129	0.35022
2011.49272	0.34727
2009.56416	0.34463
2007.63560	0.34198
2005.70703	0.33920
2003.77847	0.33640
2001.84990	0.33362
1999.92134	0.33095
1997.99277	0.32844
1996.06421	0.32600
1994.13564	0.32381
1992.20708	0.32171
1990.27852	0.31909
1988.34995	0.31621
1986.42139	0.31350
1984.49282	0.31088
1982.56426	0.30836
1980.63569	0.30593
1978.70713	0.30353
1976.77856	0.30115
1974.85000	0.29885
1972.92144	0.29669
1970.99287	0.29475
1969.06431	0.29318
1967.13574	0.29160
1965.20718	0.28931
1963.27861	0.28671
1961.35005	0.28449
1959.42148	0.28252
1957.49292	0.28070
1955.56436	0.27905
1953.63579	0.27734
1951.70723	0.27548
1949.77866	0.27376
1947.85010	0.27241
1945.92153	0.27140
1943.99297	0.27052
1942.06440	0.26916
1940.13584	0.26697
1938.20728	0.26480
1936.27871	0.26314
1934.35015	0.26180
1932.42158	0.26059
1930.49302	0.25937
1928.56445	0.25820
1926.63589	0.25726
1924.70732	0.25689
1922.77876	0.25668
1920.85020	0.25580
1918.92163	0.25482
1916.99307	0.25385
1915.06450	0.25231
1913.13594	0.25095
1911.20737	0.25043
1909.27881	0.25017
1907.35024	0.24944
1905.42168	0.24843
1903.49312	0.24763
1901.56455	0.24699
1899.63599	0.24644
1897.70742	0.24616
1895.77886	0.24616
1893.85029	0.24597
1891.92173	0.24569
1889.99316	0.24583
1888.06460	0.24564
1886.13604	0.24492
1884.20747	0.24449
1882.27891	0.24426
1880.35034	0.24403
1878.42178	0.24388
1876.49321	0.24377
1874.56465	0.24370
1872.63608	0.24410
1870.70752	0.24552
1868.77896	0.24769
1866.85039	0.24812
1864.92183	0.24662
1862.99326	0.24559
1861.06470	0.24561
1859.13613	0.24604
1857.20757	0.24631
1855.27900	0.24656
1853.35044	0.24699
1851.42187	0.24768
1849.49331	0.24870
1847.56475	0.25024
1845.63618	0.25226
1843.70762	0.25387
1841.77905	0.25374
1839.85049	0.25313
1837.92192	0.25362
1835.99336	0.25457
1834.06479	0.25553
1832.13623	0.25722
1830.20767	0.26004
1828.27910	0.26209
1826.35054	0.26267
1824.42197	0.26340
1822.49341	0.26398
1820.56484	0.26460
1818.63628	0.26583
1816.70771	0.26751
1814.77915	0.26926
1812.85059	0.27150
1810.92202	0.27424
1808.99346	0.27642
1807.06489	0.27788
1805.13633	0.27952
1803.20776	0.28219
1801.27920	0.28572
1799.35063	0.28911
1797.42207	0.29160
1795.49351	0.29425
1793.56494	0.29791
1791.63638	0.30197
1789.70781	0.30427
1787.77925	0.30567
1785.85068	0.30859
1783.92212	0.31261
1781.99355	0.31701
1780.06499	0.32161
1778.13643	0.32593
1776.20786	0.33016
1774.27930	0.33564
1772.35073	0.34307
1770.42217	0.34939
1768.49360	0.35324
1766.56504	0.35704
1764.63647	0.36166
1762.70791	0.36771
1760.77935	0.37527
1758.85078	0.38158
1756.92222	0.38767
1754.99365	0.39409
1753.06509	0.40003
1751.13652	0.40831
1749.20796	0.41910
1747.27939	0.42843
1745.35083	0.43579
1743.42227	0.44424
1741.49370	0.45456
1739.56514	0.46766
1737.63657	0.48117
1735.70801	0.49358
1733.77944	0.51297
1731.85088	0.53461
1729.92231	0.54985
1727.99375	0.56509
1726.06519	0.58198
1724.13662	0.60132
1722.20806	0.62265
1720.27949	0.64276
1718.35093	0.66743
1716.42236	0.70347
1714.49380	0.73439
1712.56523	0.75738
1710.63667	0.78051
1708.70811	0.80691
1706.77954	0.83812
1704.85098	0.87556
1702.92241	0.90827
1700.99385	0.94075
1699.06528	0.99097
1697.13672	1.03721
1695.20815	1.08219
1693.27959	1.12397
1691.35103	1.15830
1689.42246	1.20029
1687.49390	1.24523
1685.56533	1.28847
1683.63677	1.35681
1681.70820	1.42668
1679.77964	1.46829
1677.85107	1.50810
1675.92251	1.55553
1673.99395	1.61547
1672.06538	1.66830
1670.13682	1.72039
1668.20825	1.78875
1666.27969	1.84285
1664.35112	1.88951
1662.42256	1.94945
1660.49399	2.01714
1658.56543	2.06940
1656.63687	2.11238
1654.70830	2.15201
1652.77974	2.21441
1650.85117	2.27310
1648.92261	2.29369
1646.99404	2.32034
1645.06548	2.34204
1643.13691	2.35300
1641.20835	2.35794
1639.27979	2.36391
1637.35122	2.36886
1635.42266	2.36846
1633.49409	2.35878
1631.56553	2.34228
1629.63696	2.32352
1627.70840	2.29352
1625.77983	2.25856
1623.85127	2.21421
1621.92271	2.16048
1619.99414	2.11456
1618.06558	2.07093
1616.13701	2.00561
1614.20845	1.93754
1612.27988	1.88717
1610.35132	1.83544
1608.42275	1.77899
1606.49419	1.72332
1604.56562	1.67318
1602.63706	1.62509
1600.70850	1.57707
1598.77993	1.53241
1596.85137	1.49108
1594.92280	1.45142
1592.99424	1.41289
1591.06567	1.37743
1589.13711	1.34454
1587.20854	1.31453
1585.27998	1.28678
1583.35142	1.26049
1581.42285	1.23664
1579.49429	1.21707
1577.56572	1.20056
1575.63716	1.17899
1573.70859	1.15782
1571.78003	1.14444
1569.85146	1.13221
1567.92290	1.11832
1565.99434	1.10730
1564.06577	1.09897
1562.13721	1.09305
1560.20864	1.09127
1558.28008	1.09147
1556.35151	1.08785
1554.42295	1.08407
1552.49438	1.08161
1550.56582	1.07923
1548.63726	1.07499
1546.70869	1.06921
1544.78013	1.06295
1542.85156	1.05590
1540.92300	1.04298
1538.99443	1.01559
1537.06587	0.99437
1535.13730	0.98212
1533.20874	0.96677
1531.28018	0.94864
1529.35161	0.93503
1527.42305	0.92318
1525.49448	0.91120
1523.56592	0.90137
1521.63735	0.89219
1519.70879	0.88121
1517.78022	0.87122
1515.85166	0.85938
1513.92310	0.84647
1511.99453	0.83610
1510.06597	0.82847
1508.13740	0.82243
1506.20884	0.80771
1504.28027	0.79069
1502.35171	0.78168
1500.42314	0.77545
1498.49458	0.76962
1496.56602	0.76207
1494.63745	0.75343
1492.70889	0.74716
1490.78032	0.74310
1488.85176	0.73822
1486.92319	0.73146
1484.99463	0.72539
1483.06606	0.72129
1481.13750	0.71862
1479.20894	0.71668
1477.28037	0.71581
1475.35181	0.71632
1473.42324	0.71696
1471.49468	0.71398
1469.56611	0.70864
1467.63755	0.70495
1465.70898	0.70322
1463.78042	0.70229
1461.85186	0.70177
1459.92329	0.70289
1457.99473	0.70585
1456.06616	0.70633
1454.13760	0.70245
1452.20903	0.69903
1450.28047	0.69653
1448.35190	0.69409
1446.42334	0.69080
1444.49478	0.68744
1442.56621	0.68471
1440.63765	0.68224
1438.70908	0.68017
1436.78052	0.67796
1434.85195	0.67441
1432.92339	0.67115
1430.99482	0.66938
1429.06626	0.66824
1427.13770	0.66727
1425.20913	0.66727
1423.28057	0.66808
1421.35200	0.66877
1419.42344	0.66951
1417.49487	0.66920
1415.56631	0.66706
1413.63774	0.66532
1411.70918	0.66473
1409.78062	0.66472
1407.85205	0.66504
1405.92349	0.66608
1403.99492	0.66697
1402.06636	0.66667
1400.13779	0.66605
1398.20923	0.66531
1396.28066	0.66379
1394.35210	0.66084
1392.42354	0.65662
1390.49497	0.65281
1388.56641	0.64970
1386.63784	0.64572
1384.70928	0.64046
1382.78071	0.63545
1380.85215	0.63122
1378.92358	0.62778
1376.99502	0.62556
1375.06646	0.62459
1373.13789	0.62354
1371.20933	0.62205
1369.28076	0.62097
1367.35220	0.61981
1365.42363	0.61853
1363.49507	0.61778
1361.56650	0.61659
1359.63794	0.61440
1357.70937	0.61258
1355.78081	0.61132
1353.85225	0.61013
1351.92368	0.60912
1349.99512	0.60850
1348.06655	0.60790
1346.13799	0.60698
1344.20942	0.60600
1342.28086	0.60553
1340.35229	0.60575
1338.42373	0.60546
1336.49517	0.60401
1334.56660	0.60261
1332.63804	0.60199
1330.70947	0.60188
1328.78091	0.60195
1326.85234	0.60224
1324.92378	0.60274
1322.99521	0.60326
1321.06665	0.60389
1319.13809	0.60469
1317.20952	0.60514
1315.28096	0.60506
1313.35239	0.60462
1311.42383	0.60382
1309.49526	0.60298
1307.56670	0.60233
1305.63813	0.60169
1303.70957	0.60090
1301.78101	0.59991
1299.85244	0.59883
1297.92388	0.59782
1295.99531	0.59675
1294.06675	0.59541
1292.13818	0.59395
1290.20962	0.59268
1288.28105	0.59146
1286.35249	0.59015
1284.42393	0.58892
1282.49536	0.58775
1280.56680	0.58665
1278.63823	0.58557
1276.70967	0.58447
1274.78110	0.58344
1272.85254	0.58253
1270.92397	0.58182
1268.99541	0.58125
1267.06685	0.58041
1265.13828	0.57924
1263.20972	0.57820
1261.28115	0.57750
1259.35259	0.57702
1257.42402	0.57656
1255.49546	0.57614
1253.56689	0.57601
1251.63833	0.57614
1249.70977	0.57620
1247.78120	0.57605
1245.85264	0.57577
1243.92407	0.57525
1241.99551	0.57438
1240.06694	0.57317
1238.13838	0.57157
1236.20981	0.56964
1234.28125	0.56758
1232.35269	0.56555
1230.42412	0.56359
1228.49556	0.56174
1226.56699	0.55997
1224.63843	0.55816
1222.70986	0.55626
1220.78130	0.55453
1218.85273	0.55311
1216.92417	0.55185
1214.99561	0.55077
1213.06704	0.54984
1211.13848	0.54882
1209.20991	0.54777
1207.28135	0.54698
1205.35278	0.54625
1203.42422	0.54539
1201.49565	0.54459
1199.56709	0.54391
1197.63853	0.54318
1195.70996	0.54240
1193.78140	0.54171
1191.85283	0.54108
1189.92427	0.54059
1187.99570	0.54034
1186.06714	0.54031
1184.13857	0.54053
1182.21001	0.54092
1180.28145	0.54157
1178.35288	0.54269
1176.42432	0.54429
1174.49575	0.54595
1172.56719	0.54716
1170.63862	0.54783
1168.71006	0.54842
1166.78149	0.54924
1164.85293	0.55007
1162.92437	0.55072
1160.99580	0.55117
1159.06724	0.55129
1157.13867	0.55118
1155.21011	0.55096
1153.28154	0.55034
1151.35298	0.54912
1149.42441	0.54724
1147.49585	0.54479
1145.56729	0.54223
1143.63872	0.53992
1141.71016	0.53788
1139.78159	0.53622
1137.85303	0.53499
1135.92446	0.53424
1133.99590	0.53379
1132.06733	0.53343
1130.13877	0.53328
1128.21021	0.53325
1126.28164	0.53302
1124.35308	0.53246
1122.42451	0.53182
1120.49595	0.53147
1118.56738	0.53148
1116.63882	0.53172
1114.71025	0.53204
1112.78169	0.53246
1110.85312	0.53308
1108.92456	0.53396
1106.99600	0.53498
1105.06743	0.53606
1103.13887	0.53711
1101.21030	0.53839
1099.28174	0.54024
1097.35317	0.54256
1095.42461	0.54527
1093.49604	0.54884
1091.56748	0.55373
1089.63892	0.55989
1087.71035	0.56718
1085.78179	0.57551
1083.85322	0.58422
1081.92466	0.59200
1079.99609	0.59780
1078.06753	0.60112
1076.13896	0.60139
1074.21040	0.59839
1072.28184	0.59307
1070.35327	0.58657
1068.42471	0.57957
1066.49614	0.57260
1064.56758	0.56611
1062.63901	0.56055
1060.71045	0.55597
1058.78188	0.55190
1056.85332	0.54806
1054.92476	0.54467
1052.99619	0.54180
1051.06763	0.53930
1049.13906	0.53737
1047.21050	0.53610
1045.28193	0.53511
1043.35337	0.53423
1041.42480	0.53353
1039.49624	0.53310
1037.56768	0.53288
1035.63911	0.53256
1033.71055	0.53198
1031.78198	0.53102
1029.85342	0.52955
1027.92485	0.52767
1025.99629	0.52585
1024.06772	0.52449
1022.13916	0.52352
1020.21060	0.52266
1018.28203	0.52184
1016.35347	0.52130
1014.42490	0.52121
1012.49634	0.52125
1010.56777	0.52119
1008.63921	0.52124
1006.71064	0.52166
1004.78208	0.52257
1002.85352	0.52414
1000.92495	0.52644
998.99639	0.52933
997.06782	0.53289
995.13926	0.53704
993.21069	0.54134
991.28213	0.54509
989.35356	0.54751
987.42500	0.54844
985.49644	0.54858
983.56787	0.54857
981.63931	0.54870
979.71074	0.54918
977.78218	0.55010
975.85361	0.55153
973.92505	0.55356
971.99648	0.55616
970.06792	0.55937
968.13936	0.56312
966.21079	0.56686
964.28223	0.57064
962.35366	0.57531
960.42510	0.58081
958.49653	0.58650
956.56797	0.59228
954.63940	0.59811
952.71084	0.60410
950.78228	0.61045
948.85371	0.61698
946.92515	0.62348
944.99658	0.63003
943.06802	0.63649
941.13945	0.64267
939.21089	0.64882
937.28232	0.65497
935.35376	0.66069
933.42520	0.66597
931.49663	0.67157
929.56807	0.67768
927.63950	0.68331
925.71094	0.68852
923.78237	0.69444
921.85381	0.70098
919.92524	0.70754
917.99668	0.71442
916.06812	0.72138
914.13955	0.72782
912.21099	0.73457
910.28242	0.74265
908.35386	0.75150
906.42529	0.76001
904.49673	0.76832
902.56816	0.77720
900.63960	0.78658
898.71104	0.79619
896.78247	0.80610
894.85391	0.81645
892.92534	0.82708
890.99678	0.83735
889.06821	0.84772
887.13965	0.85908
885.21108	0.87064
883.28252	0.88169
881.35396	0.89309
879.42539	0.90517
877.49683	0.91669
875.56826	0.92781
873.63970	0.93981
871.71113	0.95193
869.78257	0.96226
867.85400	0.97149
865.92544	0.98323
863.99687	0.99783
862.06831	1.01149
860.13975	1.02218
858.21118	1.03158
856.28262	1.04240
854.35405	1.05468
852.42549	1.06653
850.49692	1.07754
848.56836	1.08845
846.63979	1.10060
844.71123	1.11460
842.78267	1.12884
840.85410	1.14190
838.92554	1.15205
836.99697	1.16037
835.06841	1.17085
833.13984	1.18336
831.21128	1.19592
829.28271	1.20807
827.35415	1.22071
825.42559	1.23288
823.49702	1.24435
821.56846	1.25868
819.63989	1.27222
817.71133	1.28131
815.78276	1.29087
813.85420	1.30103
811.92563	1.31136
809.99707	1.31759
808.06851	1.31122
806.13994	1.31380
804.21138	1.33988
802.28281	1.35518
800.35425	1.34642
798.42568	1.35113
796.49712	1.37858
794.56855	1.40062
792.63999	1.41025
790.71143	1.43612
788.78286	1.47220
786.85430	1.46384
784.92573	1.43700
782.99717	1.44177
781.06860	1.43640
779.14004	1.40194
777.21147	1.39757
775.28291	1.43535
773.35435	1.47501
771.42578	1.50166
769.49722	1.54882
767.56865	1.63253
765.64009	1.69677
763.71152	1.64897
761.78296	1.45880
759.85439	1.31825
757.92583	1.30834
755.99727	1.40856
754.06870	1.54172
752.14014	1.55089
750.21157	1.39417
748.28301	1.19100
746.35444	1.04944
744.42588	0.98628
742.49731	1.02567
740.56875	1.15322
738.64019	1.15576
736.71162	1.13174
734.78306	1.30516
732.85449	1.23748
730.92593	1.08240
728.99736	1.10954
727.06880	0.71010
725.14023	0.35541
723.21167	0.23728
721.28311	0.18900
719.35454	-0.00782
717.42598	-0.26223
715.49741	-0.09715
713.56885	0.48261
711.64028	4.26984
709.71172	4.25827
707.78315	0.02641
705.85459	-0.10099
703.92603	0.01010
701.99746	0.18851
700.06890	0.35611
698.14033	0.44820
696.21177	0.53901
694.28320	0.53443
692.35464	0.38546
690.42607	0.30180
688.49751	0.27436
686.56895	0.25215
684.64038	0.31188
682.71182	0.46332
680.78325	0.76760
678.85469	1.13750
676.92612	0.72330
674.99756	0.55313
673.06899	0.64182
671.14043	0.72771
669.21187	0.44677
667.28330	0.29842
665.35474	0.30804
663.42617	0.38018
661.49761	0.40209
659.56904	0.37940
657.64048	0.38173
655.71191	0.48452
653.78335	0.72798
651.85479	0.69697
649.92622	0.47042
647.99766	0.42130
646.06909	0.52936
644.14053	0.49108
642.21196	0.37160
640.28340	0.32211
638.35483	0.27339
636.42627	0.30275
634.49771	0.48295
632.56914	0.74434
630.64058	0.62976
628.71201	0.34948
626.78345	0.23844
624.85488	0.24015
622.92632	0.30788
620.99775	0.45064
619.06919	0.64757
617.14062	0.80109
615.21206	0.57219
613.28350	0.35175
611.35493	0.29234
609.42637	0.32399
607.49780	0.34698
605.56924	0.35868
603.64067	0.40266
601.71211	0.39544
599.78354	0.42006
597.85498	3.58713
595.92642	3.57556
593.99785	3.56399
592.06929	3.55242
590.14072	3.54084
588.21216	0.62023
586.28359	0.45615
584.35503	0.45483
582.42646	0.48889
580.49790	0.45560
578.56934	0.36072
576.64077	0.33654
574.71221	0.40290
572.78364	0.51929
570.85508	0.67606
568.92651	0.62969
566.99795	0.39067
565.06938	0.29743
563.14082	0.33296
561.21226	0.38268
559.28369	0.36125
557.35513	0.31945
555.42656	0.27259
553.49800	0.21439
551.56943	0.21572
549.64087	0.30095
547.71230	0.39359
545.78374	0.37792
543.85518	0.35265
541.92661	0.32689
539.99805	0.28308
538.06948	0.27638
536.14092	0.35779
534.21235	0.44690
532.28379	0.36466
530.35522	0.25449
528.42666	0.21803
526.49810	0.28914
524.56953	0.37086
522.64097	0.30824
520.71240	0.27350
518.78384	0.38697
516.85527	0.58032
514.92671	0.54546
512.99814	0.44607
511.06958	0.46493
509.14102	0.45906
507.21245	0.34488
505.28389	0.25926
503.35532	0.20276
501.42676	0.18876
499.49819	0.25257
