3997.91411	0.07248
3995.98555	0.07320
3994.05698	0.07389
3992.12842	0.07430
3990.19985	0.07468
3988.27129	0.07510
3986.34272	0.07512
3984.41416	0.07485
3982.48560	0.07494
3980.55703	0.07540
3978.62847	0.07578
3976.69990	0.07593
3974.77134	0.07615
3972.84277	0.07646
3970.91421	0.07654
3968.98564	0.07661
3967.05708	0.07695
3965.12852	0.07719
3963.19995	0.07712
3961.27139	0.07695
3959.34282	0.07684
3957.41426	0.07690
3955.48569	0.07727
3953.55713	0.07771
3951.62856	0.07813
3949.70000	0.07874
3947.77144	0.07903
3945.84287	0.07853
3943.91431	0.07808
3941.98574	0.07813
3940.05718	0.07785
3938.12861	0.07740
3936.20005	0.07742
3934.27148	0.07771
3932.34292	0.07809
3930.41436	0.07864
3928.48579	0.07880
3926.55723	0.07850
3924.62866	0.07852
3922.70010	0.07868
3920.77153	0.07843
3918.84297	0.07814
3916.91440	0.07793
3914.98584	0.07761
3913.05728	0.07697
3911.12871	0.07625
3909.20015	0.07598
3907.27158	0.07668
3905.34302	0.07840
3903.41445	0.08018
3901.48589	0.08073
3899.55732	0.07995
3897.62876	0.07846
3895.70020	0.07719
3893.77163	0.07704
3891.84307	0.07791
3889.91450	0.07810
3887.98594	0.07707
3886.05737	0.07694
3884.12881	0.07797
3882.20024	0.07861
3880.27168	0.07896
3878.34312	0.07918
3876.41455	0.07891
3874.48599	0.07900
3872.55742	0.07974
3870.62886	0.08077
3868.70029	0.08166
3866.77173	0.08161
3864.84316	0.08143
3862.91460	0.08170
3860.98604	0.08139
3859.05747	0.08065
3857.12891	0.08066
3855.20034	0.08198
3853.27178	0.08485
3851.34321	0.08682
3849.41465	0.08539
3847.48608	0.08373
3845.55752	0.08334
3843.62896	0.08423
3841.70039	0.08597
3839.77183	0.08821
3837.84326	0.09015
3835.91470	0.09042
3833.98613	0.08959
3832.05757	0.08886
3830.12900	0.08863
3828.20044	0.08905
3826.27187	0.09009
3824.34331	0.09131
3822.41475	0.09274
3820.48618	0.09501
3818.55762	0.09639
3816.62905	0.09673
3814.70049	0.09709
3812.77192	0.09635
3810.84336	0.09568
3808.91479	0.09642
3806.98623	0.09864
3805.05767	0.10127
3803.12910	0.10346
3801.20054	0.10590
3799.27197	0.10699
3797.34341	0.10653
3795.41484	0.10682
3793.48628	0.10725
3791.55771	0.10726
3789.62915	0.10770
3787.70059	0.10898
3785.77202	0.11082
3783.84346	0.11260
3781.91489	0.11411
3779.98633	0.11579
3778.05776	0.11747
3776.12920	0.11864
3774.20063	0.11987
3772.27207	0.12161
3770.34351	0.12404
3768.41494	0.12680
3766.48638	0.12872
3764.55781	0.13027
3762.62925	0.13202
3760.70068	0.13424
3758.77212	0.13745
3756.84355	0.14074
3754.91499	0.14282
3752.98643	0.14505
3751.05786	0.14923
3749.12930	0.15409
3747.20073	0.15614
3745.27217	0.15766
3743.34360	0.16148
3741.41504	0.16500
3739.48647	0.16661
3737.55791	0.16873
3735.62935	0.17297
3733.70078	0.17841
3731.77222	0.18227
3729.84365	0.18484
3727.91509	0.18795
3725.98652	0.19297
3724.05796	0.19974
3722.12939	0.20716
3720.20083	0.21483
3718.27227	0.22248
3716.34370	0.23039
3714.41514	0.23879
3712.48657	0.24886
3710.55801	0.26217
3708.62944	0.27522
3706.70088	0.28552
3704.77231	0.29624
3702.84375	0.30981
3700.91519	0.32741
3698.98662	0.34593
3697.05806	0.36303
3695.12949	0.38140
3693.20093	0.40141
3691.27236	0.42377
3689.34380	0.45351
3687.41523	0.48940
3685.48667	0.51936
3683.55811	0.54509
3681.62954	0.57302
3679.70098	0.60450
3677.77241	0.63780
3675.84385	0.67827
3673.91528	0.73386
3671.98672	0.77738
3670.05815	0.81505
3668.12959	0.86827
3666.20103	0.91626
3664.27246	0.95628
3662.34390	0.99995
3660.41533	1.04742
3658.48677	1.09391
3656.55820	1.14342
3654.62964	1.19959
3652.70107	1.24627
3650.77251	1.28560
3648.84395	1.34173
3646.91538	1.41271
3644.98682	1.46260
3643.05825	1.50008
3641.12969	1.53902
3639.20112	1.58297
3637.27256	1.62808
3635.34399	1.67163
3633.41543	1.71442
3631.48687	1.75421
3629.55830	1.79456
3627.62974	1.84914
3625.70117	1.90033
3623.77261	1.93422
3621.84404	1.96746
3619.91548	2.00652
3617.98691	2.05358
3616.05835	2.09745
3614.12979	2.13384
3612.20122	2.17276
3610.27266	2.21067
3608.34409	2.24870
3606.41553	2.29135
3604.48696	2.33113
3602.55840	2.36570
3600.62983	2.40389
3598.70127	2.44682
3596.77271	2.48802
3594.84414	2.52867
3592.91558	2.57058
3590.98701	2.60913
3589.05845	2.64411
3587.12988	2.68769
3585.20132	2.73839
3583.27275	2.78112
3581.34419	2.81932
3579.41562	2.85949
3577.48706	2.90128
3575.55850	2.94315
3573.62993	2.98650
3571.70137	3.02944
3569.77280	3.07091
3567.84424	3.11447
3565.91567	3.16676
3563.98711	3.21792
3562.05854	3.26059
3560.12998	3.30287
3558.20142	3.34641
3556.27285	3.39071
3554.34429	3.43553
3552.41572	3.48249
3550.48716	3.52974
3548.55859	3.57340
3546.63003	3.61547
3544.70146	3.66190
3542.77290	3.71215
3540.84434	3.76058
3538.91577	3.80655
3536.98721	3.85200
3535.05864	3.89941
3533.13008	3.94777
3531.20151	3.99523
3529.27295	4.04085
3527.34438	4.08720
3525.41582	4.13458
3523.48726	4.18135
3521.55869	4.22835
3519.63013	4.27491
3517.70156	4.32357
3515.77300	4.37254
3513.84443	4.41862
3511.91587	4.46833
3509.98730	4.52381
3508.05874	4.57375
3506.13018	4.61742
3504.20161	4.66383
3502.27305	4.71486
3500.34448	4.76697
3498.41592	4.81388
3496.48735	4.85902
3494.55879	4.90767
3492.63022	4.95629
3490.70166	5.00142
3488.77310	5.04560
3486.84453	5.09459
3484.91597	5.14690
3482.98740	5.19319
3481.05884	5.23239
3479.13027	5.27450
3477.20171	5.32819
3475.27314	5.38816
3473.34458	5.43986
3471.41602	5.47640
3469.48745	5.50817
3467.55889	5.55071
3465.63032	5.60347
3463.70176	5.65980
3461.77319	5.71262
3459.84463	5.75420
3457.91606	5.79337
3455.98750	5.84990
3454.05894	5.92445
3452.13037	5.99526
3450.20181	6.04606
3448.27324	6.08256
3446.34468	6.12338
3444.41611	6.17654
3442.48755	6.23620
3440.55898	6.28140
3438.63042	6.31108
3436.70186	6.35003
3434.77329	6.40038
3432.84473	6.44717
3430.91616	6.48538
3428.98760	6.52473
3427.05903	6.57397
3425.13047	6.63003
3423.20190	6.67622
3421.27334	6.71755
3419.34478	6.75946
3417.41621	6.81075
3415.48765	6.87576
3413.55908	6.92759
3411.63052	6.97259
3409.70195	7.02014
3407.77339	7.06270
3405.84482	7.10356
3403.91626	7.15944
3401.98770	7.20360
3400.05913	7.20825
3398.13057	7.20925
3396.20200	7.22680
3394.27344	7.25598
3392.34487	7.33096
3390.41631	7.47407
3388.48774	7.54037
3386.55918	7.48743
3384.63062	7.44686
3382.70205	7.44102
3380.77349	7.46165
3378.84492	7.51583
3376.91636	7.58707
3374.98779	7.65152
3373.05923	7.71237
3371.13066	7.77999
3369.20210	7.84754
3367.27354	7.87536
3365.34497	7.88431
3363.41641	7.88143
3361.48784	7.82167
3359.55928	7.77408
3357.63071	7.79176
3355.70215	7.82536
3353.77358	7.83460
3351.84502	7.85249
3349.91646	7.88017
3347.98789	7.91040
3346.05933	7.93433
3344.13076	7.96983
3342.20220	8.07462
3340.27363	8.19413
3338.34507	8.20644
3336.41650	8.12511
3334.48794	8.09279
3332.55937	8.09911
3330.63081	8.07254
3328.70225	8.02144
3326.77368	8.00014
3324.84512	8.03872
3322.91655	8.07352
3320.98799	8.10081
3319.05942	8.11742
3317.13086	8.06139
3315.20229	8.00440
3313.27373	8.06776
3311.34517	8.13183
3309.41660	8.07916
3307.48804	8.02053
3305.55947	7.97977
3303.63091	7.93732
3301.70234	7.91445
3299.77378	7.94241
3297.84521	8.01264
3295.91665	8.08495
3293.98809	8.14618
3292.05952	8.21124
3290.13096	8.20360
3288.20239	8.12055
3286.27383	8.09738
3284.34526	8.12450
3282.41670	8.15918
3280.48813	8.19108
3278.55957	8.23003
3276.63101	8.25963
3274.70244	8.19911
3272.77388	8.13952
3270.84531	8.21484
3268.91675	8.27231
3266.98818	8.20383
3265.05962	8.12601
3263.13105	8.01902
3261.20249	7.97880
3259.27393	8.07015
3257.34536	8.15221
3255.41680	8.19473
3253.48823	8.20586
3251.55967	8.14568
3249.63110	8.11784
3247.70254	8.13938
3245.77397	8.06097
3243.84541	7.95165
3241.91685	7.94940
3239.98828	8.02831
3238.05972	8.12333
3236.13115	8.15575
3234.20259	8.12248
3232.27402	8.13375
3230.34546	8.17392
3228.41689	8.15104
3226.48833	8.14011
3224.55977	8.19225
3222.63120	8.16054
3220.70264	8.00630
3218.77407	7.91104
3216.84551	7.90737
3214.91694	7.92518
3212.98838	7.95753
3211.05981	7.94171
3209.13125	7.85079
3207.20269	7.78705
3205.27412	7.78114
3203.34556	7.80205
3201.41699	7.83052
3199.48843	7.76169
3197.55986	7.58385
3195.63130	7.43297
3193.70273	7.37954
3191.77417	7.41387
3189.84561	7.47076
3187.91704	7.49500
3185.98848	7.46961
3184.05991	7.39483
3182.13135	7.30064
3180.20278	7.22743
3178.27422	7.20013
3176.34565	7.18349
3174.41709	7.11882
3172.48853	7.02164
3170.55996	6.94485
3168.63140	6.90176
3166.70283	6.85826
3164.77427	6.79218
3162.84570	6.71608
3160.91714	6.64527
3158.98857	6.59468
3157.06001	6.56096
3155.13145	6.51360
3153.20288	6.43664
3151.27432	6.36717
3149.34575	6.32045
3147.41719	6.26113
3145.48862	6.19248
3143.56006	6.13151
3141.63149	6.06693
3139.70293	5.99612
3137.77437	5.92458
3135.84580	5.85109
3133.91724	5.77557
3131.98867	5.70308
3130.06011	5.63391
3128.13154	5.56015
3126.20298	5.48324
3124.27441	5.41281
3122.34585	5.34932
3120.41729	5.28412
3118.48872	5.21053
3116.56016	5.13607
3114.63159	5.06530
3112.70303	4.99269
3110.77446	4.91993
3108.84590	4.85285
3106.91733	4.79092
3104.98877	4.73107
3103.06021	4.67485
3101.13164	4.61695
3099.20308	4.54884
3097.27451	4.47377
3095.34595	4.40121
3093.41738	4.33605
3091.48882	4.27401
3089.56025	4.21117
3087.63169	4.14928
3085.70312	4.08891
3083.77456	4.02836
3081.84600	3.96835
3079.91743	3.90920
3077.98887	3.84899
3076.06030	3.78839
3074.13174	3.73050
3072.20317	3.67489
3070.27461	3.61774
3068.34604	3.56007
3066.41748	3.50543
3064.48892	3.45244
3062.56035	3.39769
3060.63179	3.34225
3058.70322	3.28893
3056.77466	3.23574
3054.84609	3.18138
3052.91753	3.12942
3050.98896	3.08015
3049.06040	3.02997
3047.13184	2.97942
3045.20327	2.93040
3043.27471	2.88186
3041.34614	2.83450
3039.41758	2.78900
3037.48901	2.74291
3035.56045	2.69582
3033.63188	2.64972
3031.70332	2.60481
3029.77476	2.56068
3027.84619	2.51779
3025.91763	2.47531
3023.98906	2.43256
3022.06050	2.39077
3020.13193	2.35040
3018.20337	2.31060
3016.27480	2.27069
3014.34624	2.23113
3012.41768	2.19283
3010.48911	2.15524
3008.56055	2.11803
3006.63198	2.08186
3004.70342	2.04631
3002.77485	2.01090
3000.84629	1.97628
2998.91772	1.94293
2996.98916	1.91038
2995.06060	1.87808
2993.13203	1.84655
2991.20347	1.81609
2989.27490	1.78577
2987.34634	1.75553
2985.41777	1.72606
2983.48921	1.69745
2981.56064	1.66957
2979.63208	1.64247
2977.70352	1.61605
2975.77495	1.58993
2973.84639	1.56382
2971.91782	1.53780
2969.98926	1.51224
2968.06069	1.48729
2966.13213	1.46252
2964.20356	1.43790
2962.27500	1.41381
2960.34644	1.38985
2958.41787	1.36584
2956.48931	1.34230
2954.56074	1.31897
2952.63218	1.29566
2950.70361	1.27305
2948.77505	1.25075
2946.84648	1.22815
2944.91792	1.20599
2942.98936	1.18480
2941.06079	1.16445
2939.13223	1.14468
2937.20366	1.12481
2935.27510	1.10460
2933.34653	1.08413
2931.41797	1.06366
2929.48940	1.04402
2927.56084	1.02527
2925.63228	1.00674
2923.70371	0.98815
2921.77515	0.96961
2919.84658	0.95197
2917.91802	0.93561
2915.98945	0.91938
2914.06089	0.90285
2912.13232	0.88698
2910.20376	0.87199
2908.27520	0.85756
2906.34663	0.84351
2904.41807	0.82965
2902.48950	0.81605
2900.56094	0.80283
2898.63237	0.79003
2896.70381	0.77755
2894.77524	0.76519
2892.84668	0.75298
2890.91812	0.74086
2888.98955	0.72891
2887.06099	0.71768
2885.13242	0.70734
2883.20386	0.69736
2881.27529	0.68733
2879.34673	0.67726
2877.41816	0.66726
2875.48960	0.65721
2873.56104	0.64674
2871.63247	0.63585
2869.70391	0.62484
2867.77534	0.61362
2865.84678	0.60202
2863.91821	0.59027
2861.98965	0.57887
2860.06108	0.56803
2858.13252	0.55769
2856.20396	0.54780
2854.27539	0.53810
2852.34683	0.52856
2850.41826	0.51966
2848.48970	0.51166
2846.56113	0.50419
2844.63257	0.49681
2842.70400	0.48975
2840.77544	0.48334
2838.84687	0.47735
2836.91831	0.47144
2834.98975	0.46542
2833.06118	0.45942
2831.13262	0.45367
2829.20405	0.44798
2827.27549	0.44203
2825.34692	0.43583
2823.41836	0.42961
2821.48979	0.42345
2819.56123	0.41740
2817.63267	0.41153
2815.70410	0.40582
2813.77554	0.40017
2811.84697	0.39458
2809.91841	0.38922
2807.98984	0.38394
2806.06128	0.37859
2804.13271	0.37326
2802.20415	0.36801
2800.27559	0.36284
2798.34702	0.35776
2796.41846	0.35274
2794.48989	0.34785
2792.56133	0.34325
2790.63276	0.33888
2788.70420	0.33448
2786.77563	0.32994
2784.84707	0.32540
2782.91851	0.32104
2780.98994	0.31700
2779.06138	0.31301
2777.13281	0.30869
2775.20425	0.30438
2773.27568	0.30042
2771.34712	0.29667
2769.41855	0.29304
2767.48999	0.28959
2765.56143	0.28618
2763.63286	0.28264
2761.70430	0.27908
2759.77573	0.27559
2757.84717	0.27228
2755.91860	0.26921
2753.99004	0.26621
2752.06147	0.26309
2750.13291	0.25986
2748.20435	0.25674
2746.27578	0.25384
2744.34722	0.25106
2742.41865	0.24833
2740.49009	0.24569
2738.56152	0.24309
2736.63296	0.24039
2734.70439	0.23776
2732.77583	0.23529
2730.84727	0.23278
2728.91870	0.23028
2726.99014	0.22798
2725.06157	0.22578
2723.13301	0.22356
2721.20444	0.22137
2719.27588	0.21919
2717.34731	0.21711
2715.41875	0.21510
2713.49019	0.21304
2711.56162	0.21106
2709.63306	0.20939
2707.70449	0.20800
2705.77593	0.20656
2703.84736	0.20485
2701.91880	0.20310
2699.99023	0.20159
2698.06167	0.20022
2696.13311	0.19872
2694.20454	0.19716
2692.27598	0.19569
2690.34741	0.19421
2688.41885	0.19271
2686.49028	0.19133
2684.56172	0.19001
2682.63315	0.18860
2680.70459	0.18724
2678.77603	0.18607
2676.84746	0.18496
2674.91890	0.18377
2672.99033	0.18259
2671.06177	0.18162
2669.13320	0.18069
2667.20464	0.17968
2665.27607	0.17866
2663.34751	0.17760
2661.41895	0.17658
2659.49038	0.17575
2657.56182	0.17496
2655.63325	0.17409
2653.70469	0.17322
2651.77612	0.17238
2649.84756	0.17157
2647.91899	0.17077
2645.99043	0.17010
2644.06187	0.16963
2642.13330	0.16923
2640.20474	0.16881
2638.27617	0.16822
2636.34761	0.16746
2634.41904	0.16682
2632.49048	0.16639
2630.56191	0.16602
2628.63335	0.16557
2626.70479	0.16500
2624.77622	0.16447
2622.84766	0.16417
2620.91909	0.16397
2618.99053	0.16373
2617.06196	0.16348
2615.13340	0.16324
2613.20483	0.16303
2611.27627	0.16284
2609.34771	0.16258
2607.41914	0.16235
2605.49058	0.16225
2603.56201	0.16218
2601.63345	0.16214
2599.70488	0.16210
2597.77632	0.16199
2595.84775	0.16186
2593.91919	0.16179
2591.99062	0.16174
2590.06206	0.16173
2588.13350	0.16192
2586.20493	0.16223
2584.27637	0.16253
2582.34780	0.16287
2580.41924	0.16319
2578.49067	0.16341
2576.56211	0.16362
2574.63354	0.16387
2572.70498	0.16414
2570.77642	0.16439
2568.84785	0.16469
2566.91929	0.16512
2564.99072	0.16554
2563.06216	0.16584
2561.13359	0.16612
2559.20503	0.16651
2557.27646	0.16702
2555.34790	0.16754
2553.41934	0.16796
2551.49077	0.16840
2549.56221	0.16897
2547.63364	0.16957
2545.70508	0.17018
2543.77651	0.17071
2541.84795	0.17110
2539.91938	0.17156
2537.99082	0.17223
2536.06226	0.17293
2534.13369	0.17352
2532.20513	0.17407
2530.27656	0.17470
2528.34800	0.17546
2526.41943	0.17624
2524.49087	0.17695
2522.56230	0.17762
2520.63374	0.17830
2518.70518	0.17899
2516.77661	0.17967
2514.84805	0.18033
2512.91948	0.18100
2510.99092	0.18180
2509.06235	0.18274
2507.13379	0.18363
2505.20522	0.18442
2503.27666	0.18515
2501.34810	0.18587
2499.41953	0.18665
2497.49097	0.18745
2495.56240	0.18823
2493.63384	0.18903
2491.70527	0.18980
2489.77671	0.19051
2487.84814	0.19134
2485.91958	0.19239
2483.99102	0.19344
2482.06245	0.19434
2480.13389	0.19519
2478.20532	0.19595
2476.27676	0.19662
2474.34819	0.19741
2472.41963	0.19832
2470.49106	0.19916
2468.56250	0.19991
2466.63394	0.20071
2464.70537	0.20157
2462.77681	0.20250
2460.84824	0.20348
2458.91968	0.20458
2456.99111	0.20575
2455.06255	0.20677
2453.13398	0.20759
2451.20542	0.20835
2449.27686	0.20916
2447.34829	0.21012
2445.41973	0.21118
2443.49116	0.21218
2441.56260	0.21304
2439.63403	0.21394
2437.70547	0.21499
2435.77690	0.21607
2433.84834	0.21708
2431.91978	0.21810
2429.99121	0.21914
2428.06265	0.22020
2426.13408	0.22128
2424.20552	0.22237
2422.27695	0.22346
2420.34839	0.22453
2418.41982	0.22559
2416.49126	0.22663
2414.56270	0.22774
2412.63413	0.22890
2410.70557	0.23009
2408.77700	0.23136
2406.84844	0.23256
2404.91987	0.23360
2402.99131	0.23464
2401.06274	0.23576
2399.13418	0.23689
2397.20562	0.23801
2395.27705	0.23923
2393.34849	0.24050
2391.41992	0.24173
2389.49136	0.24283
2387.56279	0.24374
2385.63423	0.24423
2383.70566	0.24406
2381.77710	0.24328
2379.84854	0.24203
2377.91997	0.24024
2375.99141	0.23794
2374.06284	0.23525
2372.13428	0.23201
2370.20571	0.22777
2368.27715	0.22275
2366.34858	0.21839
2364.42002	0.21582
2362.49146	0.21449
2360.56289	0.21333
2358.63433	0.21373
2356.70576	0.21829
2354.77720	0.22627
2352.84863	0.23570
2350.92007	0.24433
2348.99150	0.24928
2347.06294	0.24978
2345.13437	0.24661
2343.20581	0.24267
2341.27725	0.24191
2339.34868	0.24410
2337.42012	0.24693
2335.49155	0.24933
2333.56299	0.25144
2331.63442	0.25376
2329.70586	0.25684
2327.77729	0.26080
2325.84873	0.26480
2323.92017	0.26838
2321.99160	0.27214
2320.06304	0.27645
2318.13447	0.28089
2316.20591	0.28488
2314.27734	0.28811
2312.34878	0.29080
2310.42021	0.29356
2308.49165	0.29664
2306.56309	0.29993
2304.63452	0.30321
2302.70596	0.30617
2300.77739	0.30875
2298.84883	0.31129
2296.92026	0.31389
2294.99170	0.31631
2293.06313	0.31861
2291.13457	0.32106
2289.20601	0.32362
2287.27744	0.32614
2285.34888	0.32865
2283.42031	0.33096
2281.49175	0.33297
2279.56318	0.33484
2277.63462	0.33666
2275.70605	0.33846
2273.77749	0.34037
2271.84893	0.34251
2269.92036	0.34480
2267.99180	0.34706
2266.06323	0.34928
2264.13467	0.35148
2262.20610	0.35361
2260.27754	0.35571
2258.34897	0.35799
2256.42041	0.36041
2254.49185	0.36277
2252.56328	0.36507
2250.63472	0.36736
2248.70615	0.36960
2246.77759	0.37180
2244.84902	0.37400
2242.92046	0.37629
2240.99189	0.37863
2239.06333	0.38085
2237.13477	0.38302
2235.20620	0.38537
2233.27764	0.38778
2231.34907	0.39003
2229.42051	0.39215
2227.49194	0.39435
2225.56338	0.39666
2223.63481	0.39899
2221.70625	0.40129
2219.77769	0.40357
2217.84912	0.40574
2215.92056	0.40772
2213.99199	0.40976
2212.06343	0.41190
2210.13486	0.41404
2208.20630	0.41620
2206.27773	0.41835
2204.34917	0.42049
2202.42061	0.42265
2200.49204	0.42468
2198.56348	0.42659
2196.63491	0.42855
2194.70635	0.43055
2192.77778	0.43259
2190.84922	0.43454
2188.92065	0.43637
2186.99209	0.43815
2185.06353	0.43988
2183.13496	0.44157
2181.20640	0.44328
2179.27783	0.44502
2177.34927	0.44679
2175.42070	0.44843
2173.49214	0.44987
2171.56357	0.45127
2169.63501	0.45270
2167.70645	0.45404
2165.77788	0.45527
2163.84932	0.45649
2161.92075	0.45771
2159.99219	0.45880
2158.06362	0.45969
2156.13506	0.46053
2154.20649	0.46142
2152.27793	0.46231
2150.34937	0.46314
2148.42080	0.46390
2146.49224	0.46452
2144.56367	0.46493
2142.63511	0.46525
2140.70654	0.46561
2138.77798	0.46601
2136.84941	0.46629
2134.92085	0.46640
2132.99229	0.46640
2131.06372	0.46636
2129.13516	0.46622
2127.20659	0.46595
2125.27803	0.46565
2123.34946	0.46528
2121.42090	0.46469
2119.49233	0.46401
2117.56377	0.46344
2115.63521	0.46286
2113.70664	0.46215
2111.77808	0.46127
2109.84951	0.46031
2107.92095	0.45933
2105.99238	0.45826
2104.06382	0.45704
2102.13525	0.45571
2100.20669	0.45435
2098.27812	0.45292
2096.34956	0.45145
2094.42100	0.44997
2092.49243	0.44845
2090.56387	0.44684
2088.63530	0.44503
2086.70674	0.44311
2084.77817	0.44120
2082.84961	0.43929
2080.92104	0.43727
2078.99248	0.43513
2077.06392	0.43293
2075.13535	0.43079
2073.20679	0.42868
2071.27822	0.42644
2069.34966	0.42412
2067.42109	0.42188
2065.49253	0.41967
2063.56396	0.41728
2061.63540	0.41482
2059.70684	0.41237
2057.77827	0.40985
2055.84971	0.40725
2053.92114	0.40467
2051.99258	0.40213
2050.06401	0.39950
2048.13545	0.39685
2046.20688	0.39423
2044.27832	0.39160
2042.34976	0.38891
2040.42119	0.38613
2038.49263	0.38326
2036.56406	0.38042
2034.63550	0.37770
2032.70693	0.37503
2030.77837	0.37227
2028.84980	0.36941
2026.92124	0.36659
2024.99268	0.36378
2023.06411	0.36095
2021.13555	0.35817
2019.20698	0.35547
2017.27842	0.35275
2015.34985	0.34989
2013.42129	0.34700
2011.49272	0.34416
2009.56416	0.34139
2007.63560	0.33867
2005.70703	0.33593
2003.77847	0.33316
2001.84990	0.33045
1999.92134	0.32780
1997.99277	0.32518
1996.06421	0.32259
1994.13564	0.32009
1992.20708	0.31770
1990.27852	0.31521
1988.34995	0.31258
1986.42139	0.30994
1984.49282	0.30739
1982.56426	0.30499
1980.63569	0.30264
1978.70713	0.30034
1976.77856	0.29814
1974.85000	0.29592
1972.92144	0.29366
1970.99287	0.29148
1969.06431	0.28948
1967.13574	0.28761
1965.20718	0.28562
1963.27861	0.28353
1961.35005	0.28144
1959.42148	0.27941
1957.49292	0.27757
1955.56436	0.27586
1953.63579	0.27406
1951.70723	0.27220
1949.77866	0.27050
1947.85010	0.26895
1945.92153	0.26750
1943.99297	0.26616
1942.06440	0.26474
1940.13584	0.26300
1938.20728	0.26130
1936.27871	0.25986
1934.35015	0.25854
1932.42158	0.25730
1930.49302	0.25603
1928.56445	0.25480
1926.63589	0.25370
1924.70732	0.25283
1922.77876	0.25204
1920.85020	0.25107
1918.92163	0.25010
1916.99307	0.24916
1915.06450	0.24813
1913.13594	0.24721
1911.20737	0.24654
1909.27881	0.24590
1907.35024	0.24512
1905.42168	0.24423
1903.49312	0.24346
1901.56455	0.24285
1899.63599	0.24234
1897.70742	0.24195
1895.77886	0.24173
1893.85029	0.24151
1891.92173	0.24113
1889.99316	0.24094
1888.06460	0.24069
1886.13604	0.24020
1884.20747	0.23980
1882.27891	0.23959
1880.35034	0.23942
1878.42178	0.23924
1876.49321	0.23914
1874.56465	0.23909
1872.63608	0.23922
1870.70752	0.23969
1868.77896	0.24049
1866.85039	0.24078
1864.92183	0.24039
1862.99326	0.24014
1861.06470	0.24026
1859.13613	0.24061
1857.20757	0.24103
1855.27900	0.24149
1853.35044	0.24184
1851.42187	0.24227
1849.49331	0.24297
1847.56475	0.24388
1845.63618	0.24491
1843.70762	0.24600
1841.77905	0.24663
1839.85049	0.24684
1837.92192	0.24747
1835.99336	0.24842
1834.06479	0.24936
1832.13623	0.25044
1830.20767	0.25211
1828.27910	0.25374
1826.35054	0.25472
1824.42197	0.25585
1822.49341	0.25694
1820.56484	0.25794
1818.63628	0.25916
1816.70771	0.26074
1814.77915	0.26241
1812.85059	0.26428
1810.92202	0.26653
1808.99346	0.26870
1807.06489	0.27054
1805.13633	0.27236
1803.20776	0.27456
1801.27920	0.27711
1799.35063	0.27993
1797.42207	0.28246
1795.49351	0.28492
1793.56494	0.28793
1791.63638	0.29173
1789.70781	0.29502
1787.77925	0.29729
1785.85068	0.30016
1783.92212	0.30384
1781.99355	0.30791
1780.06499	0.31219
1778.13643	0.31647
1776.20786	0.32051
1774.27930	0.32495
1772.35073	0.33093
1770.42217	0.33720
1768.49360	0.34227
1766.56504	0.34724
1764.63647	0.35244
1762.70791	0.35837
1760.77935	0.36601
1758.85078	0.37304
1756.92222	0.38014
1754.99365	0.38796
1753.06509	0.39487
1751.13652	0.40314
1749.20796	0.41401
1747.27939	0.42462
1745.35083	0.43353
1743.42227	0.44278
1741.49370	0.45303
1739.56514	0.46543
1737.63657	0.47789
1735.70801	0.48849
1733.77944	0.50467
1731.85088	0.52451
1729.92231	0.53986
1727.99375	0.55524
1726.06519	0.57171
1724.13662	0.59003
1722.20806	0.61006
1720.27949	0.62835
1718.35093	0.64984
1716.42236	0.68303
1714.49380	0.71456
1712.56523	0.73889
1710.63667	0.76217
1708.70811	0.78732
1706.77954	0.81620
1704.85098	0.85149
1702.92241	0.88310
1700.99385	0.91379
1699.06528	0.96035
1697.13672	1.00331
1695.20815	1.04684
1693.27959	1.08898
1691.35103	1.12284
1689.42246	1.16248
1687.49390	1.20447
1685.56533	1.24407
1683.63677	1.30675
1681.70820	1.37396
1679.77964	1.41584
1677.85107	1.45499
1675.92251	1.49947
1673.99395	1.55530
1672.06538	1.60535
1670.13682	1.65546
1668.20825	1.72302
1666.27969	1.77640
1664.35112	1.82098
1662.42256	1.87811
1660.49399	1.94351
1658.56543	1.99377
1656.63687	2.03490
1654.70830	2.07366
1652.77974	2.13790
1650.85117	2.19613
1648.92261	2.21072
1646.99404	2.23266
1645.06548	2.26123
1643.13691	2.28283
1641.20835	2.29440
1639.27979	2.30277
1637.35122	2.30437
1635.42266	2.29913
1633.49409	2.29224
1631.56553	2.28074
1629.63696	2.26553
1627.70840	2.23716
1625.77983	2.20274
1623.85127	2.15972
1621.92271	2.10886
1619.99414	2.06570
1618.06558	2.02356
1616.13701	1.95939
1614.20845	1.89290
1612.27988	1.84336
1610.35132	1.79204
1608.42275	1.73686
1606.49419	1.68254
1604.56562	1.63201
1602.63706	1.58273
1600.70850	1.53465
1598.77993	1.49091
1596.85137	1.45046
1594.92280	1.41084
1592.99424	1.37208
1591.06567	1.33724
1589.13711	1.30540
1587.20854	1.27592
1585.27998	1.24865
1583.35142	1.22350
1581.42285	1.20104
1579.49429	1.18217
1577.56572	1.16547
1575.63716	1.14498
1573.70859	1.12695
1571.78003	1.11553
1569.85146	1.10396
1567.92290	1.09121
1565.99434	1.08220
1564.06577	1.07624
1562.13721	1.07218
1560.20864	1.07014
1558.28008	1.06966
1556.35151	1.06994
1554.42295	1.06930
1552.49438	1.06841
1550.56582	1.06671
1548.63726	1.06315
1546.70869	1.05756
1544.78013	1.04916
1542.85156	1.03727
1540.92300	1.02000
1538.99443	0.99356
1537.06587	0.97417
1535.13730	0.96076
1533.20874	0.94290
1531.28018	0.92393
1529.35161	0.91032
1527.42305	0.89749
1525.49448	0.88390
1523.56592	0.87232
1521.63735	0.86196
1519.70879	0.85162
1517.78022	0.84225
1515.85166	0.83100
1513.92310	0.81944
1511.99453	0.80948
1510.06597	0.80068
1508.13740	0.79279
1506.20884	0.77952
1504.28027	0.76677
1502.35171	0.75944
1500.42314	0.75330
1498.49458	0.74722
1496.56602	0.74022
1494.63745	0.73278
1492.70889	0.72705
1490.78032	0.72265
1488.85176	0.71761
1486.92319	0.71193
1484.99463	0.70703
1483.06606	0.70340
1481.13750	0.70064
1479.20894	0.69852
1477.28037	0.69732
1475.35181	0.69689
1473.42324	0.69655
1471.49468	0.69527
1469.56611	0.69310
1467.63755	0.69094
1465.70898	0.68920
1463.78042	0.68795
1461.85186	0.68727
1459.92329	0.68721
1457.99473	0.68763
1456.06616	0.68703
1454.13760	0.68477
1452.20903	0.68262
1450.28047	0.68069
1448.35190	0.67864
1446.42334	0.67612
1444.49478	0.67366
1442.56621	0.67151
1440.63765	0.66951
1438.70908	0.66762
1436.78052	0.66492
1434.85195	0.66127
1432.92339	0.65857
1430.99482	0.65694
1429.06626	0.65590
1427.13770	0.65547
1425.20913	0.65572
1423.28057	0.65637
1421.35200	0.65694
1419.42344	0.65750
1417.49487	0.65746
1415.56631	0.65609
1413.63774	0.65463
1411.70918	0.65391
1409.78062	0.65414
1407.85205	0.65499
1405.92349	0.65611
1403.99492	0.65712
1402.06636	0.65731
1400.13779	0.65670
1398.20923	0.65534
1396.28066	0.65310
1394.35210	0.64964
1392.42354	0.64547
1390.49497	0.64178
1388.56641	0.63833
1386.63784	0.63418
1384.70928	0.62946
1382.78071	0.62501
1380.85215	0.62106
1378.92358	0.61777
1376.99502	0.61534
1375.06646	0.61372
1373.13789	0.61256
1371.20933	0.61171
1369.28076	0.61102
1367.35220	0.61000
1365.42363	0.60867
1363.49507	0.60743
1361.56650	0.60608
1359.63794	0.60442
1357.70937	0.60274
1355.78081	0.60131
1353.85225	0.60032
1351.92368	0.59961
1349.99512	0.59878
1348.06655	0.59776
1346.13799	0.59669
1344.20942	0.59570
1342.28086	0.59489
1340.35229	0.59433
1338.42373	0.59379
1336.49517	0.59296
1334.56660	0.59207
1332.63804	0.59152
1330.70947	0.59141
1328.78091	0.59156
1326.85234	0.59194
1324.92378	0.59251
1322.99521	0.59311
1321.06665	0.59372
1319.13809	0.59429
1317.20952	0.59449
1315.28096	0.59424
1313.35239	0.59371
1311.42383	0.59293
1309.49526	0.59206
1307.56670	0.59131
1305.63813	0.59061
1303.70957	0.58975
1301.78101	0.58875
1299.85244	0.58774
1297.92388	0.58662
1295.99531	0.58538
1294.06675	0.58414
1292.13818	0.58291
1290.20962	0.58155
1288.28105	0.58009
1286.35249	0.57881
1284.42393	0.57778
1282.49536	0.57672
1280.56680	0.57546
1278.63823	0.57408
1276.70967	0.57277
1274.78110	0.57160
1272.85254	0.57061
1270.92397	0.56994
1268.99541	0.56948
1267.06685	0.56894
1265.13828	0.56826
1263.20972	0.56768
1261.28115	0.56716
1259.35259	0.56655
1257.42402	0.56592
1255.49546	0.56544
1253.56689	0.56518
1251.63833	0.56511
1249.70977	0.56520
1247.78120	0.56527
1245.85264	0.56509
1243.92407	0.56471
1241.99551	0.56419
1240.06694	0.56325
1238.13838	0.56172
1236.20981	0.55971
1234.28125	0.55752
1232.35269	0.55543
1230.42412	0.55350
1228.49556	0.55157
1226.56699	0.54960
1224.63843	0.54772
1222.70986	0.54615
1220.78130	0.54484
1218.85273	0.54345
1216.92417	0.54193
1214.99561	0.54064
1213.06704	0.53974
1211.13848	0.53905
1209.20991	0.53848
1207.28135	0.53795
1205.35278	0.53727
1203.42422	0.53630
1201.49565	0.53521
1199.56709	0.53418
1197.63853	0.53322
1195.70996	0.53241
1193.78140	0.53176
1191.85283	0.53111
1189.92427	0.53033
1187.99570	0.52961
1186.06714	0.52924
1184.13857	0.52921
1182.21001	0.52946
1180.28145	0.53011
1178.35288	0.53116
1176.42432	0.53242
1174.49575	0.53366
1172.56719	0.53458
1170.63862	0.53496
1168.71006	0.53509
1166.78149	0.53544
1164.85293	0.53601
1162.92437	0.53649
1160.99580	0.53671
1159.06724	0.53664
1157.13867	0.53628
1155.21011	0.53554
1153.28154	0.53441
1151.35298	0.53287
1149.42441	0.53075
1147.49585	0.52813
1145.56729	0.52532
1143.63872	0.52258
1141.71016	0.52007
1139.78159	0.51799
1137.85303	0.51638
1135.92446	0.51523
1133.99590	0.51479
1132.06733	0.51501
1130.13877	0.51532
1128.21021	0.51522
1126.28164	0.51478
1124.35308	0.51442
1122.42451	0.51412
1120.49595	0.51378
1118.56738	0.51384
1116.63882	0.51444
1114.71025	0.51525
1112.78169	0.51615
1110.85312	0.51716
1108.92456	0.51823
1106.99600	0.51927
1105.06743	0.52023
1103.13887	0.52116
1101.21030	0.52226
1099.28174	0.52352
1097.35317	0.52495
1095.42461	0.52722
1093.49604	0.53088
1091.56748	0.53584
1089.63892	0.54205
1087.71035	0.54971
1085.78179	0.55845
1083.85322	0.56714
1081.92466	0.57460
1079.99609	0.57986
1078.06753	0.58232
1076.13896	0.58192
1074.21040	0.57904
1072.28184	0.57392
1070.35327	0.56698
1068.42471	0.55952
1066.49614	0.55269
1064.56758	0.54669
1062.63901	0.54145
1060.71045	0.53693
1058.78188	0.53271
1056.85332	0.52861
1054.92476	0.52505
1052.99619	0.52223
1051.06763	0.51996
1049.13906	0.51824
1047.21050	0.51729
1045.28193	0.51710
1043.35337	0.51737
1041.42480	0.51770
1039.49624	0.51778
1037.56768	0.51768
1035.63911	0.51750
1033.71055	0.51707
1031.78198	0.51606
1029.85342	0.51448
1027.92485	0.51270
1025.99629	0.51099
1024.06772	0.50945
1022.13916	0.50813
1020.21060	0.50723
1018.28203	0.50697
1016.35347	0.50698
1014.42490	0.50687
1012.49634	0.50666
1010.56777	0.50642
1008.63921	0.50629
1006.71064	0.50664
1004.78208	0.50752
1002.85352	0.50897
1000.92495	0.51127
998.99639	0.51444
997.06782	0.51837
995.13926	0.52284
993.21069	0.52707
991.28213	0.53022
989.35356	0.53207
987.42500	0.53275
985.49644	0.53264
983.56787	0.53234
981.63931	0.53245
979.71074	0.53318
977.78218	0.53434
975.85361	0.53587
973.92505	0.53797
971.99648	0.54066
970.06792	0.54376
968.13936	0.54717
966.21079	0.55097
964.28223	0.55534
962.35366	0.56029
960.42510	0.56553
958.49653	0.57064
956.56797	0.57566
954.63940	0.58116
952.71084	0.58719
950.78228	0.59335
948.85371	0.59966
946.92515	0.60616
944.99658	0.61254
943.06802	0.61866
941.13945	0.62473
939.21089	0.63062
937.28232	0.63606
935.35376	0.64163
933.42520	0.64788
931.49663	0.65416
929.56807	0.65953
927.63950	0.66431
925.71094	0.66964
923.78237	0.67617
921.85381	0.68311
919.92524	0.68967
917.99668	0.69645
916.06812	0.70406
914.13955	0.71198
912.21099	0.71937
910.28242	0.72686
908.35386	0.73548
906.42529	0.74452
904.49673	0.75353
902.56816	0.76304
900.63960	0.77240
898.71104	0.78113
896.78247	0.79032
894.85391	0.80026
892.92534	0.81029
890.99678	0.82040
889.06821	0.83057
887.13965	0.84115
885.21108	0.85259
883.28252	0.86386
881.35396	0.87493
879.42539	0.88680
877.49683	0.89852
875.56826	0.91009
873.63970	0.92242
871.71113	0.93471
869.78257	0.94647
867.85400	0.95746
865.92544	0.96759
863.99687	0.97784
862.06831	0.98874
860.13975	1.00005
858.21118	1.01235
856.28262	1.02460
854.35405	1.03516
852.42549	1.04575
850.49692	1.05776
848.56836	1.06936
846.63979	1.08034
844.71123	1.09299
842.78267	1.10573
840.85410	1.11688
838.92554	1.12909
836.99697	1.14264
835.06841	1.15613
833.13984	1.16958
831.21128	1.17964
829.28271	1.18533
827.35415	1.19223
825.42559	1.20140
823.49702	1.20988
821.56846	1.21686
819.63989	1.22416
817.71133	1.23585
815.78276	1.25304
813.85420	1.26854
811.92563	1.27609
809.99707	1.28121
808.06851	1.28692
806.13994	1.28837
804.21138	1.28932
802.28281	1.29721
800.35425	1.30312
798.42568	1.30438
796.49712	1.31072
794.56855	1.33165
792.63999	1.37842
790.71143	1.41150
788.78286	1.39184
786.85430	1.36782
784.92573	1.36024
782.99717	1.36147
781.06860	1.39851
779.14004	1.42689
777.21147	1.39115
775.28291	1.39063
773.35435	1.43454
771.42578	1.44412
769.49722	1.39787
767.56865	1.32970
765.64009	1.25589
763.71152	1.21551
761.78296	1.18293
759.85439	1.13278
757.92583	1.10935
755.99727	1.12993
754.06870	1.14023
752.14014	1.10001
750.21157	1.00235
748.28301	0.90648
746.35444	0.87027
744.42588	0.90989
742.49731	1.00755
740.56875	1.14385
738.64019	1.06579
736.71162	0.79184
734.78306	0.60222
732.85449	0.44280
730.92593	0.29302
728.99736	0.20769
727.06880	0.19084
725.14023	0.19283
723.21167	0.16468
721.28311	0.09892
719.35454	0.01057
717.42598	-0.13947
715.49741	-0.34181
713.56885	-0.45605
711.64028	-0.37722
709.71172	-0.38048
707.78315	-0.37581
705.85459	-0.22812
703.92603	-0.08846
701.99746	-0.00814
700.06890	0.09710
698.14033	0.17906
696.21177	0.16868
694.28320	0.16104
692.35464	0.18141
690.42607	0.16506
688.49751	0.14800
686.56895	0.19181
684.64038	0.22648
682.71182	0.22429
680.78325	0.26828
678.85469	0.32445
676.92612	0.29250
674.99756	0.18363
673.06899	0.09941
671.14043	0.11619
669.21187	0.25190
667.28330	0.24922
665.35474	0.15449
663.42617	0.09361
661.49761	0.07370
659.56904	0.06257
657.64048	0.05220
655.71191	0.08893
653.78335	0.17839
651.85479	0.18137
649.92622	0.11715
647.99766	0.09121
646.06909	0.10649
644.14053	0.10233
642.21196	0.06528
640.28340	0.07157
638.35483	0.11794
636.42627	0.09723
634.49771	0.04393
632.56914	0.03116
630.64058	0.04127
628.71201	0.03825
626.78345	0.05576
624.85488	0.09189
622.92632	0.09064
620.99775	0.06947
619.06919	0.06456
617.14062	0.09277
615.21206	0.15631
613.28350	0.20899
611.35493	0.22249
609.42637	0.20359
607.49780	0.16006
605.56924	0.11310
603.64067	0.08028
601.71211	0.07255
599.78354	0.09949
597.85498	0.10193
595.92642	0.06708
593.99785	0.07350
592.06929	0.14573
590.14072	0.19166
588.21216	0.15543
586.28359	0.12025
584.35503	0.09688
582.42646	0.10221
580.49790	0.13469
578.56934	0.12226
576.64077	0.09488
574.71221	0.10642
572.78364	0.10211
570.85508	0.07078
568.92651	0.07194
566.99795	0.10152
565.06938	0.11625
563.14082	0.10412
561.21226	0.07891
559.28369	0.04587
557.35513	0.03293
555.42656	0.05757
553.49800	0.04357
551.56943	0.00205
549.64087	0.01667
547.71230	0.07782
545.78374	0.12225
543.85518	0.10346
541.92661	0.04596
539.99805	0.02938
538.06948	0.04993
536.14092	0.04772
534.21235	0.02360
532.28379	0.00823
530.35522	-0.00673
528.42666	-0.01350
526.49810	0.04151
524.56953	0.15076
522.64097	0.18690
520.71240	0.12472
518.78384	0.05128
516.85527	0.01266
514.92671	0.04220
512.99814	0.11617
511.06958	0.16928
509.14102	0.15617
507.21245	0.09651
505.28389	0.06270
503.35532	0.06402
501.42676	0.07554
499.49819	0.10257
