3997.91411	0.03804
3995.98555	0.03841
3994.05698	0.03886
3992.12842	0.03923
3990.19985	0.03982
3988.27129	0.04064
3986.34272	0.04106
3984.41416	0.04123
3982.48560	0.04161
3980.55703	0.04210
3978.62847	0.04250
3976.69990	0.04293
3974.77134	0.04356
3972.84277	0.04388
3970.91421	0.04339
3968.98564	0.04270
3967.05708	0.04267
3965.12852	0.04320
3963.19995	0.04405
3961.27139	0.04488
3959.34282	0.04490
3957.41426	0.04444
3955.48569	0.04453
3953.55713	0.04520
3951.62856	0.04627
3949.70000	0.04764
3947.77144	0.04830
3945.84287	0.04779
3943.91431	0.04746
3941.98574	0.04768
3940.05718	0.04728
3938.12861	0.04664
3936.20005	0.04633
3934.27148	0.04664
3932.34292	0.04833
3930.41436	0.04985
3928.48579	0.04901
3926.55723	0.04798
3924.62866	0.04883
3922.70010	0.04962
3920.77153	0.04914
3918.84297	0.04918
3916.91440	0.04980
3914.98584	0.04909
3913.05728	0.04724
3911.12871	0.04592
3909.20015	0.04567
3907.27158	0.04707
3905.34302	0.05090
3903.41445	0.05541
3901.48589	0.05679
3899.55732	0.05494
3897.62876	0.05157
3895.70020	0.04866
3893.77163	0.04855
3891.84307	0.05095
3889.91450	0.05202
3887.98594	0.05062
3886.05737	0.05059
3884.12881	0.05238
3882.20024	0.05389
3880.27168	0.05456
3878.34312	0.05260
3876.41455	0.05011
3874.48599	0.05122
3872.55742	0.05519
3870.62886	0.05864
3868.70029	0.05909
3866.77173	0.05733
3864.84316	0.05791
3862.91460	0.06009
3860.98604	0.05882
3859.05747	0.05596
3857.12891	0.05629
3855.20034	0.06087
3853.27178	0.06810
3851.34321	0.06955
3849.41465	0.06329
3847.48608	0.05834
3845.55752	0.05708
3843.62896	0.05918
3841.70039	0.06319
3839.77183	0.06756
3837.84326	0.07079
3835.91470	0.07046
3833.98613	0.06802
3832.05757	0.06617
3830.12900	0.06502
3828.20044	0.06479
3826.27187	0.06594
3824.34331	0.06789
3822.41475	0.07157
3820.48618	0.07727
3818.55762	0.07933
3816.62905	0.07789
3814.70049	0.07558
3812.77192	0.07190
3810.84336	0.06980
3808.91479	0.07129
3806.98623	0.07588
3805.05767	0.08006
3803.12910	0.08275
3801.20054	0.08628
3799.27197	0.08767
3797.34341	0.08638
3795.41484	0.08496
3793.48628	0.08287
3791.55771	0.08162
3789.62915	0.08208
3787.70059	0.08365
3785.77202	0.08659
3783.84346	0.08977
3781.91489	0.09163
3779.98633	0.09348
3778.05776	0.09520
3776.12920	0.09518
3774.20063	0.09529
3772.27207	0.09747
3770.34351	0.10162
3768.41494	0.10553
3766.48638	0.10738
3764.55781	0.10834
3762.62925	0.10942
3760.70068	0.11237
3758.77212	0.11763
3756.84355	0.12199
3754.91499	0.12465
3752.98643	0.12918
3751.05786	0.13761
3749.12930	0.14502
3747.20073	0.14652
3745.27217	0.14816
3743.34360	0.15136
3741.41504	0.15340
3739.48647	0.15613
3737.55791	0.16204
3735.62935	0.17189
3733.70078	0.18108
3731.77222	0.18337
3729.84365	0.18343
3727.91509	0.18628
3725.98652	0.19271
3724.05796	0.20046
3722.12939	0.20683
3720.20083	0.21161
3718.27227	0.21550
3716.34370	0.21994
3714.41514	0.22671
3712.48657	0.23894
3710.55801	0.25775
3708.62944	0.27318
3706.70088	0.28163
3704.77231	0.29085
3702.84375	0.30449
3700.91519	0.32257
3698.98662	0.34079
3697.05806	0.35749
3695.12949	0.37597
3693.20093	0.39692
3691.27236	0.42145
3689.34380	0.45298
3687.41523	0.48704
3685.48667	0.51314
3683.55811	0.53636
3681.62954	0.56398
3679.70098	0.59759
3677.77241	0.63495
3675.84385	0.67935
3673.91528	0.73498
3671.98672	0.77719
3670.05815	0.81599
3668.12959	0.86897
3666.20103	0.91401
3664.27246	0.95207
3662.34390	0.99559
3660.41533	1.04404
3658.48677	1.09202
3656.55820	1.14333
3654.62964	1.20051
3652.70107	1.24831
3650.77251	1.29219
3648.84395	1.35568
3646.91538	1.42852
3644.98682	1.47518
3643.05825	1.51083
3641.12969	1.54993
3639.20112	1.59501
3637.27256	1.64144
3635.34399	1.68654
3633.41543	1.73125
3631.48687	1.77416
3629.55830	1.82018
3627.62974	1.87963
3625.70117	1.93041
3623.77261	1.96335
3621.84404	1.99652
3619.91548	2.03604
3617.98691	2.08406
3616.05835	2.12877
3614.12979	2.16579
3612.20122	2.20555
3610.27266	2.24600
3608.34409	2.28804
3606.41553	2.33311
3604.48696	2.37315
3602.55840	2.40816
3600.62983	2.44697
3598.70127	2.48916
3596.77271	2.53025
3594.84414	2.57388
3592.91558	2.61969
3590.98701	2.66129
3589.05845	2.69904
3587.12988	2.74307
3585.20132	2.79061
3583.27275	2.83097
3581.34419	2.86864
3579.41562	2.90956
3577.48706	2.95399
3575.55850	2.99866
3573.62993	3.04260
3571.70137	3.08439
3569.77280	3.12620
3567.84424	3.17394
3565.91567	3.23190
3563.98711	3.28433
3562.05854	3.32479
3560.12998	3.36479
3558.20142	3.40708
3556.27285	3.45155
3554.34429	3.49637
3552.41572	3.54205
3550.48716	3.59081
3548.55859	3.64077
3546.63003	3.68914
3544.70146	3.73913
3542.77290	3.79135
3540.84434	3.84100
3538.91577	3.88739
3536.98721	3.93271
3535.05864	3.98141
3533.13008	4.03101
3531.20151	4.07695
3529.27295	4.12222
3527.34438	4.17207
3525.41582	4.22354
3523.48726	4.27346
3521.55869	4.32441
3519.63013	4.37201
3517.70156	4.41555
3515.77300	4.46220
3513.84443	4.51454
3511.91587	4.56803
3509.98730	4.61897
3508.05874	4.66577
3506.13018	4.71069
3504.20161	4.75993
3502.27305	4.81504
3500.34448	4.86957
3498.41592	4.91634
3496.48735	4.96036
3494.55879	5.01112
3492.63022	5.06633
3490.70166	5.11728
3488.77310	5.16131
3486.84453	5.20463
3484.91597	5.25429
3482.98740	5.30695
3481.05884	5.35784
3479.13027	5.40790
3477.20171	5.46058
3475.27314	5.51502
3473.34458	5.56919
3471.41602	5.61620
3469.48745	5.64982
3467.55889	5.69312
3465.63032	5.76416
3463.70176	5.83538
3461.77319	5.87951
3459.84463	5.91806
3457.91606	5.96870
3455.98750	6.02149
3454.05894	6.07203
3452.13037	6.11552
3450.20181	6.15323
3448.27324	6.19694
3446.34468	6.25507
3444.41611	6.31552
3442.48755	6.36169
3440.55898	6.40163
3438.63042	6.45479
3436.70186	6.51653
3434.77329	6.57753
3432.84473	6.64159
3430.91616	6.69636
3428.98760	6.73538
3427.05903	6.76753
3425.13047	6.81698
3423.20190	6.89237
3421.27334	6.96372
3419.34478	7.01709
3417.41621	7.07204
3415.48765	7.11973
3413.55908	7.14924
3411.63052	7.18099
3409.70195	7.20827
3407.77339	7.22165
3405.84482	7.23404
3403.91626	7.27767
3401.98770	7.34761
3400.05913	7.40341
3398.13057	7.43662
3396.20200	7.46800
3394.27344	7.51349
3392.34487	7.57367
3390.41631	7.65412
3388.48774	7.69665
3386.55918	7.68120
3384.63062	7.67292
3382.70205	7.70488
3380.77349	7.76130
3378.84492	7.81691
3376.91636	7.89154
3374.98779	8.01107
3373.05923	8.13394
3371.13066	8.14537
3369.20210	8.04535
3367.27354	7.95872
3365.34497	7.95613
3363.41641	7.96448
3361.48784	7.94292
3359.55928	7.99369
3357.63071	8.12406
3355.70215	8.19204
3353.77358	8.14920
3351.84502	8.15654
3349.91646	8.21731
3347.98789	8.23084
3346.05933	8.22319
3344.13076	8.21316
3342.20220	8.20460
3340.27363	8.21580
3338.34507	8.21687
3336.41650	8.18653
3334.48794	8.20409
3332.55937	8.24751
3330.63081	8.24304
3328.70225	8.19164
3326.77368	8.16526
3324.84512	8.22610
3322.91655	8.33450
3320.98799	8.48273
3319.05942	8.56470
3317.13086	8.47992
3315.20229	8.34626
3313.27373	8.27409
3311.34517	8.28171
3309.41660	8.30576
3307.48804	8.29577
3305.55947	8.25530
3303.63091	8.21006
3301.70234	8.21664
3299.77378	8.30299
3297.84521	8.36106
3295.91665	8.32525
3293.98809	8.27816
3292.05952	8.28770
3290.13096	8.39241
3288.20239	8.58919
3286.27383	8.73913
3284.34526	8.64888
3282.41670	8.41717
3280.48813	8.26845
3278.55957	8.24177
3276.63101	8.22012
3274.70244	8.20975
3272.77388	8.31879
3270.84531	8.46381
3268.91675	8.46597
3266.98818	8.37076
3265.05962	8.30937
3263.13105	8.29881
3261.20249	8.34243
3259.27393	8.40547
3257.34536	8.43627
3255.41680	8.45341
3253.48823	8.48505
3251.55967	8.51725
3249.63110	8.50650
3247.70254	8.47159
3245.77397	8.42664
3243.84541	8.34565
3241.91685	8.26557
3239.98828	8.25198
3238.05972	8.29914
3236.13115	8.32856
3234.20259	8.27566
3232.27402	8.20224
3230.34546	8.19013
3228.41689	8.21628
3226.48833	8.24975
3224.55977	8.27046
3222.63120	8.27543
3220.70264	8.30467
3218.77407	8.34267
3216.84551	8.34060
3214.91694	8.23275
3212.98838	8.03028
3211.05981	7.91231
3209.13125	7.92643
3207.20269	7.96477
3205.27412	7.98989
3203.34556	8.01905
3201.41699	8.04172
3199.48843	8.00262
3197.55986	7.88261
3195.63130	7.76063
3193.70273	7.69451
3191.77417	7.68893
3189.84561	7.72956
3187.91704	7.75258
3185.98848	7.70484
3184.05991	7.62518
3182.13135	7.54952
3180.20278	7.47268
3178.27422	7.40401
3176.34565	7.35712
3174.41709	7.30664
3172.48853	7.24148
3170.55996	7.17242
3168.63140	7.09284
3166.70283	7.01214
3164.77427	6.94535
3162.84570	6.88179
3160.91714	6.79861
3158.98857	6.71302
3157.06001	6.65806
3155.13145	6.60980
3153.20288	6.54074
3151.27432	6.48413
3149.34575	6.44494
3147.41719	6.37975
3145.48862	6.29055
3143.56006	6.20709
3141.63149	6.13832
3139.70293	6.07837
3137.77437	6.00914
3135.84580	5.92300
3133.91724	5.84064
3131.98867	5.77572
3130.06011	5.71827
3128.13154	5.65594
3126.20298	5.59066
3124.27441	5.52505
3122.34585	5.44952
3120.41729	5.36710
3118.48872	5.28883
3116.56016	5.21623
3114.63159	5.14432
3112.70303	5.07333
3110.77446	5.00630
3108.84590	4.93689
3106.91733	4.86555
3104.98877	4.79986
3103.06021	4.73781
3101.13164	4.67050
3099.20308	4.59836
3097.27451	4.52849
3095.34595	4.46149
3093.41738	4.39589
3091.48882	4.33104
3089.56025	4.26711
3087.63169	4.20452
3085.70312	4.14286
3083.77456	4.08072
3081.84600	4.01896
3079.91743	3.96135
3077.98887	3.90612
3076.06030	3.84831
3074.13174	3.78860
3072.20317	3.72930
3070.27461	3.67004
3068.34604	3.61183
3066.41748	3.55614
3064.48892	3.50227
3062.56035	3.44811
3060.63179	3.39298
3058.70322	3.33814
3056.77466	3.28383
3054.84609	3.23094
3052.91753	3.18050
3050.98896	3.13022
3049.06040	3.07892
3047.13184	3.02859
3045.20327	2.97976
3043.27471	2.93129
3041.34614	2.88259
3039.41758	2.83369
3037.48901	2.78576
3035.56045	2.73942
3033.63188	2.69427
3031.70332	2.65030
3029.77476	2.60707
3027.84619	2.56380
3025.91763	2.52044
3023.98906	2.47772
3022.06050	2.43550
3020.13193	2.39344
3018.20337	2.35244
3016.27480	2.31197
3014.34624	2.27140
3012.41768	2.23205
3010.48911	2.19367
3008.56055	2.15531
3006.63198	2.11806
3004.70342	2.08268
3002.77485	2.04788
3000.84629	2.01281
2998.91772	1.97850
2996.98916	1.94578
2995.06060	1.91397
2993.13203	1.88252
2991.20347	1.85203
2989.27490	1.82271
2987.34634	1.79384
2985.41777	1.76501
2983.48921	1.73678
2981.56064	1.70938
2979.63208	1.68247
2977.70352	1.65599
2975.77495	1.63000
2973.84639	1.60488
2971.91782	1.58038
2969.98926	1.55524
2968.06069	1.52903
2966.13213	1.50243
2964.20356	1.47624
2962.27500	1.45057
2960.34644	1.42480
2958.41787	1.39875
2956.48931	1.37318
2954.56074	1.34893
2952.63218	1.32571
2950.70361	1.30302
2948.77505	1.28038
2946.84648	1.25719
2944.91792	1.23402
2942.98936	1.21116
2941.06079	1.18786
2939.13223	1.16421
2937.20366	1.14015
2935.27510	1.11494
2933.34653	1.08914
2931.41797	1.06320
2929.48940	1.03653
2927.56084	1.00953
2925.63228	0.98308
2923.70371	0.95709
2921.77515	0.93195
2919.84658	0.90956
2917.91802	0.89152
2915.98945	0.87889
2914.06089	0.87181
2912.13232	0.86770
2910.20376	0.86292
2908.27520	0.85561
2906.34663	0.84586
2904.41807	0.83464
2902.48950	0.82296
2900.56094	0.81105
2898.63237	0.79903
2896.70381	0.78762
2894.77524	0.77677
2892.84668	0.76581
2890.91812	0.75500
2888.98955	0.74489
2887.06099	0.73539
2885.13242	0.72640
2883.20386	0.71780
2881.27529	0.70926
2879.34673	0.70053
2877.41816	0.69130
2875.48960	0.68147
2873.56104	0.67097
2871.63247	0.65952
2869.70391	0.64720
2867.77534	0.63428
2865.84678	0.62066
2863.91821	0.60624
2861.98965	0.59082
2860.06108	0.57457
2858.13252	0.55794
2856.20396	0.54098
2854.27539	0.52388
2852.34683	0.50713
2850.41826	0.49255
2848.48970	0.48406
2846.56113	0.48360
2844.63257	0.48768
2842.70400	0.49111
2840.77544	0.49164
2838.84687	0.48981
2836.91831	0.48664
2834.98975	0.48262
2833.06118	0.47802
2831.13262	0.47310
2829.20405	0.46801
2827.27549	0.46259
2825.34692	0.45677
2823.41836	0.45083
2821.48979	0.44497
2819.56123	0.43907
2817.63267	0.43311
2815.70410	0.42725
2813.77554	0.42164
2811.84697	0.41620
2809.91841	0.41080
2807.98984	0.40537
2806.06128	0.39984
2804.13271	0.39441
2802.20415	0.38917
2800.27559	0.38391
2798.34702	0.37863
2796.41846	0.37354
2794.48989	0.36858
2792.56133	0.36368
2790.63276	0.35878
2788.70420	0.35390
2786.77563	0.34919
2784.84707	0.34479
2782.91851	0.34059
2780.98994	0.33631
2779.06138	0.33190
2777.13281	0.32761
2775.20425	0.32348
2773.27568	0.31929
2771.34712	0.31503
2769.41855	0.31096
2767.48999	0.30709
2765.56143	0.30336
2763.63286	0.29982
2761.70430	0.29626
2759.77573	0.29243
2757.84717	0.28860
2755.91860	0.28511
2753.99004	0.28188
2752.06147	0.27875
2750.13291	0.27561
2748.20435	0.27252
2746.27578	0.26957
2744.34722	0.26659
2742.41865	0.26350
2740.49009	0.26043
2738.56152	0.25761
2736.63296	0.25500
2734.70439	0.25232
2732.77583	0.24954
2730.84727	0.24674
2728.91870	0.24408
2726.99014	0.24165
2725.06157	0.23932
2723.13301	0.23693
2721.20444	0.23456
2719.27588	0.23228
2717.34731	0.23004
2715.41875	0.22778
2713.49019	0.22559
2711.56162	0.22358
2709.63306	0.22167
2707.70449	0.21977
2705.77593	0.21795
2703.84736	0.21621
2701.91880	0.21451
2699.99023	0.21279
2698.06167	0.21112
2696.13311	0.20964
2694.20454	0.20817
2692.27598	0.20653
2690.34741	0.20497
2688.41885	0.20363
2686.49028	0.20217
2684.56172	0.20055
2682.63315	0.19906
2680.70459	0.19773
2678.77603	0.19637
2676.84746	0.19494
2674.91890	0.19360
2672.99033	0.19231
2671.06177	0.19096
2669.13320	0.18961
2667.20464	0.18850
2665.27607	0.18758
2663.34751	0.18658
2661.41895	0.18551
2659.49038	0.18454
2657.56182	0.18364
2655.63325	0.18266
2653.70469	0.18156
2651.77612	0.18049
2649.84756	0.17954
2647.91899	0.17878
2645.99043	0.17808
2644.06187	0.17729
2642.13330	0.17653
2640.20474	0.17591
2638.27617	0.17533
2636.34761	0.17481
2634.41904	0.17430
2632.49048	0.17374
2630.56191	0.17317
2628.63335	0.17254
2626.70479	0.17187
2624.77622	0.17137
2622.84766	0.17096
2620.91909	0.17045
2618.99053	0.16999
2617.06196	0.16966
2615.13340	0.16926
2613.20483	0.16884
2611.27627	0.16858
2609.34771	0.16843
2607.41914	0.16833
2605.49058	0.16824
2603.56201	0.16808
2601.63345	0.16791
2599.70488	0.16769
2597.77632	0.16743
2595.84775	0.16723
2593.91919	0.16710
2591.99062	0.16708
2590.06206	0.16715
2588.13350	0.16718
2586.20493	0.16716
2584.27637	0.16722
2582.34780	0.16741
2580.41924	0.16765
2578.49067	0.16796
2576.56211	0.16835
2574.63354	0.16863
2572.70498	0.16880
2570.77642	0.16904
2568.84785	0.16945
2566.91929	0.16990
2564.99072	0.17026
2563.06216	0.17052
2561.13359	0.17077
2559.20503	0.17109
2557.27646	0.17151
2555.34790	0.17198
2553.41934	0.17247
2551.49077	0.17302
2549.56221	0.17354
2547.63364	0.17394
2545.70508	0.17434
2543.77651	0.17487
2541.84795	0.17540
2539.91938	0.17584
2537.99082	0.17638
2536.06226	0.17702
2534.13369	0.17762
2532.20513	0.17829
2530.27656	0.17905
2528.34800	0.17968
2526.41943	0.18015
2524.49087	0.18079
2522.56230	0.18166
2520.63374	0.18256
2518.70518	0.18332
2516.77661	0.18389
2514.84805	0.18440
2512.91948	0.18503
2510.99092	0.18585
2509.06235	0.18679
2507.13379	0.18769
2505.20522	0.18851
2503.27666	0.18931
2501.34810	0.19002
2499.41953	0.19067
2497.49097	0.19139
2495.56240	0.19217
2493.63384	0.19300
2491.70527	0.19386
2489.77671	0.19455
2487.84814	0.19524
2485.91958	0.19620
2483.99102	0.19723
2482.06245	0.19807
2480.13389	0.19881
2478.20532	0.19954
2476.27676	0.20030
2474.34819	0.20114
2472.41963	0.20207
2470.49106	0.20301
2468.56250	0.20386
2466.63394	0.20467
2464.70537	0.20559
2462.77681	0.20656
2460.84824	0.20742
2458.91968	0.20827
2456.99111	0.20923
2455.06255	0.21025
2453.13398	0.21116
2451.20542	0.21203
2449.27686	0.21300
2447.34829	0.21404
2445.41973	0.21502
2443.49116	0.21594
2441.56260	0.21682
2439.63403	0.21768
2437.70547	0.21859
2435.77690	0.21967
2433.84834	0.22081
2431.91978	0.22174
2429.99121	0.22259
2428.06265	0.22360
2426.13408	0.22464
2424.20552	0.22563
2422.27695	0.22669
2420.34839	0.22779
2418.41982	0.22887
2416.49126	0.22996
2414.56270	0.23103
2412.63413	0.23211
2410.70557	0.23323
2408.77700	0.23435
2406.84844	0.23554
2404.91987	0.23680
2402.99131	0.23798
2401.06274	0.23907
2399.13418	0.24018
2397.20562	0.24141
2395.27705	0.24272
2393.34849	0.24395
2391.41992	0.24519
2389.49136	0.24671
2387.56279	0.24885
2385.63423	0.25211
2383.70566	0.25688
2381.77710	0.26315
2379.84854	0.27065
2377.91997	0.27916
2375.99141	0.28884
2374.06284	0.30022
2372.13428	0.31326
2370.20571	0.32723
2368.27715	0.34146
2366.34858	0.35583
2364.42002	0.36898
2362.49146	0.37833
2360.56289	0.38346
2358.63433	0.38435
2356.70576	0.37964
2354.77720	0.37020
2352.84863	0.35750
2350.92007	0.34363
2348.99150	0.33498
2347.06294	0.33541
2345.13437	0.34502
2343.20581	0.35855
2341.27725	0.36707
2339.34868	0.36924
2337.42012	0.36843
2335.49155	0.36715
2333.56299	0.36610
2331.63442	0.36556
2329.70586	0.36508
2327.77729	0.36392
2325.84873	0.36171
2323.92017	0.35845
2321.99160	0.35457
2320.06304	0.35059
2318.13447	0.34662
2316.20591	0.34303
2314.27734	0.34071
2312.34878	0.33976
2310.42021	0.33910
2308.49165	0.33768
2306.56309	0.33558
2304.63452	0.33378
2302.70596	0.33294
2300.77739	0.33277
2298.84883	0.33278
2296.92026	0.33297
2294.99170	0.33343
2293.06313	0.33396
2291.13457	0.33442
2289.20601	0.33488
2287.27744	0.33540
2285.34888	0.33602
2283.42031	0.33696
2281.49175	0.33860
2279.56318	0.34080
2277.63462	0.34307
2275.70605	0.34532
2273.77749	0.34760
2271.84893	0.34982
2269.92036	0.35192
2267.99180	0.35392
2266.06323	0.35590
2264.13467	0.35790
2262.20610	0.35984
2260.27754	0.36169
2258.34897	0.36351
2256.42041	0.36538
2254.49185	0.36726
2252.56328	0.36915
2250.63472	0.37108
2248.70615	0.37309
2246.77759	0.37520
2244.84902	0.37737
2242.92046	0.37958
2240.99189	0.38174
2239.06333	0.38378
2237.13477	0.38583
2235.20620	0.38795
2233.27764	0.39010
2231.34907	0.39228
2229.42051	0.39447
2227.49194	0.39660
2225.56338	0.39882
2223.63481	0.40112
2221.70625	0.40324
2219.77769	0.40525
2217.84912	0.40735
2215.92056	0.40955
2213.99199	0.41174
2212.06343	0.41387
2210.13486	0.41597
2208.20630	0.41809
2206.27773	0.42026
2204.34917	0.42236
2202.42061	0.42442
2200.49204	0.42650
2198.56348	0.42850
2196.63491	0.43032
2194.70635	0.43212
2192.77778	0.43408
2190.84922	0.43604
2188.92065	0.43786
2186.99209	0.43958
2185.06353	0.44127
2183.13496	0.44306
2181.20640	0.44490
2179.27783	0.44662
2177.34927	0.44821
2175.42070	0.44973
2173.49214	0.45116
2171.56357	0.45258
2169.63501	0.45405
2167.70645	0.45549
2165.77788	0.45681
2163.84932	0.45800
2161.92075	0.45904
2159.99219	0.45996
2158.06362	0.46101
2156.13506	0.46213
2154.20649	0.46305
2152.27793	0.46384
2150.34937	0.46455
2148.42080	0.46512
2146.49224	0.46560
2144.56367	0.46607
2142.63511	0.46655
2140.70654	0.46687
2138.77798	0.46700
2136.84941	0.46712
2134.92085	0.46729
2132.99229	0.46739
2131.06372	0.46738
2129.13516	0.46730
2127.20659	0.46713
2125.27803	0.46683
2123.34946	0.46639
2121.42090	0.46581
2119.49233	0.46514
2117.56377	0.46444
2115.63521	0.46368
2113.70664	0.46290
2111.77808	0.46206
2109.84951	0.46102
2107.92095	0.46001
2105.99238	0.45912
2104.06382	0.45810
2102.13525	0.45685
2100.20669	0.45543
2098.27812	0.45391
2096.34956	0.45243
2094.42100	0.45094
2092.49243	0.44937
2090.56387	0.44776
2088.63530	0.44604
2086.70674	0.44416
2084.77817	0.44211
2082.84961	0.44001
2080.92104	0.43802
2078.99248	0.43617
2077.06392	0.43427
2075.13535	0.43216
2073.20679	0.42985
2071.27822	0.42753
2069.34966	0.42533
2067.42109	0.42324
2065.49253	0.42104
2063.56396	0.41844
2061.63540	0.41575
2059.70684	0.41333
2057.77827	0.41095
2055.84971	0.40833
2053.92114	0.40561
2051.99258	0.40297
2050.06401	0.40035
2048.13545	0.39769
2046.20688	0.39499
2044.27832	0.39237
2042.34976	0.38979
2040.42119	0.38697
2038.49263	0.38396
2036.56406	0.38107
2034.63550	0.37835
2032.70693	0.37563
2030.77837	0.37288
2028.84980	0.37008
2026.92124	0.36723
2024.99268	0.36446
2023.06411	0.36176
2021.13555	0.35910
2019.20698	0.35659
2017.27842	0.35407
2015.34985	0.35111
2013.42129	0.34792
2011.49272	0.34496
2009.56416	0.34231
2007.63560	0.33967
2005.70703	0.33686
2003.77847	0.33405
2001.84990	0.33136
1999.92134	0.32875
1997.99277	0.32619
1996.06421	0.32369
1994.13564	0.32145
1992.20708	0.31931
1990.27852	0.31675
1988.34995	0.31395
1986.42139	0.31122
1984.49282	0.30853
1982.56426	0.30600
1980.63569	0.30363
1978.70713	0.30130
1976.77856	0.29900
1974.85000	0.29677
1972.92144	0.29455
1970.99287	0.29246
1969.06431	0.29076
1967.13574	0.28916
1965.20718	0.28706
1963.27861	0.28467
1961.35005	0.28245
1959.42148	0.28042
1957.49292	0.27864
1955.56436	0.27706
1953.63579	0.27533
1951.70723	0.27336
1949.77866	0.27152
1947.85010	0.27008
1945.92153	0.26902
1943.99297	0.26815
1942.06440	0.26691
1940.13584	0.26492
1938.20728	0.26287
1936.27871	0.26126
1934.35015	0.25991
1932.42158	0.25864
1930.49302	0.25736
1928.56445	0.25619
1926.63589	0.25531
1924.70732	0.25492
1922.77876	0.25461
1920.85020	0.25371
1918.92163	0.25271
1916.99307	0.25169
1915.06450	0.25023
1913.13594	0.24888
1911.20737	0.24831
1909.27881	0.24814
1907.35024	0.24764
1905.42168	0.24675
1903.49312	0.24590
1901.56455	0.24515
1899.63599	0.24456
1897.70742	0.24429
1895.77886	0.24429
1893.85029	0.24414
1891.92173	0.24381
1889.99316	0.24379
1888.06460	0.24353
1886.13604	0.24290
1884.20747	0.24247
1882.27891	0.24217
1880.35034	0.24193
1878.42178	0.24183
1876.49321	0.24180
1874.56465	0.24180
1872.63608	0.24221
1870.70752	0.24344
1868.77896	0.24526
1866.85039	0.24563
1864.92183	0.24434
1862.99326	0.24343
1861.06470	0.24342
1859.13613	0.24382
1857.20757	0.24419
1855.27900	0.24459
1853.35044	0.24507
1851.42187	0.24575
1849.49331	0.24678
1847.56475	0.24819
1845.63618	0.24992
1843.70762	0.25136
1841.77905	0.25140
1839.85049	0.25099
1837.92192	0.25154
1835.99336	0.25261
1834.06479	0.25362
1832.13623	0.25512
1830.20767	0.25764
1828.27910	0.25962
1826.35054	0.26036
1824.42197	0.26124
1822.49341	0.26183
1820.56484	0.26236
1818.63628	0.26354
1816.70771	0.26528
1814.77915	0.26712
1812.85059	0.26936
1810.92202	0.27207
1808.99346	0.27426
1807.06489	0.27577
1805.13633	0.27741
1803.20776	0.27996
1801.27920	0.28336
1799.35063	0.28673
1797.42207	0.28926
1795.49351	0.29184
1793.56494	0.29540
1791.63638	0.29946
1789.70781	0.30190
1787.77925	0.30337
1785.85068	0.30622
1783.92212	0.31013
1781.99355	0.31442
1780.06499	0.31894
1778.13643	0.32328
1776.20786	0.32747
1774.27930	0.33276
1772.35073	0.34008
1770.42217	0.34649
1768.49360	0.35033
1766.56504	0.35406
1764.63647	0.35868
1762.70791	0.36462
1760.77935	0.37200
1758.85078	0.37825
1756.92222	0.38435
1754.99365	0.39083
1753.06509	0.39678
1751.13652	0.40480
1749.20796	0.41526
1747.27939	0.42455
1745.35083	0.43196
1743.42227	0.44034
1741.49370	0.45043
1739.56514	0.46325
1737.63657	0.47664
1735.70801	0.48899
1733.77944	0.50819
1731.85088	0.52982
1729.92231	0.54513
1727.99375	0.56037
1726.06519	0.57733
1724.13662	0.59679
1722.20806	0.61810
1720.27949	0.63795
1718.35093	0.66215
1716.42236	0.69778
1714.49380	0.72869
1712.56523	0.75195
1710.63667	0.77537
1708.70811	0.80198
1706.77954	0.83338
1704.85098	0.87129
1702.92241	0.90431
1700.99385	0.93645
1699.06528	0.98653
1697.13672	1.03381
1695.20815	1.08101
1693.27959	1.12548
1691.35103	1.16196
1689.42246	1.20639
1687.49390	1.25430
1685.56533	1.30044
1683.63677	1.37304
1681.70820	1.44792
1679.77964	1.49321
1677.85107	1.53648
1675.92251	1.58753
1673.99395	1.65242
1672.06538	1.71018
1670.13682	1.76625
1668.20825	1.84065
1666.27969	1.90180
1664.35112	1.95536
1662.42256	2.02446
1660.49399	2.10271
1658.56543	2.16185
1656.63687	2.21031
1654.70830	2.25581
1652.77974	2.32223
1650.85117	2.38016
1648.92261	2.39843
1646.99404	2.42351
1645.06548	2.44552
1643.13691	2.45863
1641.20835	2.46390
1639.27979	2.46765
1637.35122	2.46791
1635.42266	2.46042
1633.49409	2.44427
1631.56553	2.42401
1629.63696	2.40160
1627.70840	2.36781
1625.77983	2.33194
1623.85127	2.28631
1621.92271	2.22713
1619.99414	2.17532
1618.06558	2.12711
1616.13701	2.05694
1614.20845	1.98598
1612.27988	1.93437
1610.35132	1.88087
1608.42275	1.82224
1606.49419	1.76426
1604.56562	1.71122
1602.63706	1.66062
1600.70850	1.61222
1598.77993	1.56831
1596.85137	1.52737
1594.92280	1.48764
1592.99424	1.44891
1591.06567	1.41361
1589.13711	1.38122
1587.20854	1.35165
1585.27998	1.32471
1583.35142	1.30002
1581.42285	1.27800
1579.49429	1.26012
1577.56572	1.24542
1575.63716	1.22696
1573.70859	1.20964
1571.78003	1.19947
1569.85146	1.19125
1567.92290	1.18215
1565.99434	1.17499
1564.06577	1.17087
1562.13721	1.16957
1560.20864	1.17273
1558.28008	1.18400
1556.35151	1.19210
1554.42295	1.19522
1552.49438	1.19936
1550.56582	1.20262
1548.63726	1.20311
1546.70869	1.20016
1544.78013	1.19400
1542.85156	1.18445
1540.92300	1.16656
1538.99443	1.13111
1537.06587	1.10414
1535.13730	1.08747
1533.20874	1.06488
1531.28018	1.03958
1529.35161	1.02184
1527.42305	1.00606
1525.49448	0.98929
1523.56592	0.97485
1521.63735	0.96144
1519.70879	0.94764
1517.78022	0.93592
1515.85166	0.92093
1513.92310	0.90415
1511.99453	0.89014
1510.06597	0.87895
1508.13740	0.86892
1506.20884	0.84824
1504.28027	0.82777
1502.35171	0.81746
1500.42314	0.80977
1498.49458	0.80201
1496.56602	0.79203
1494.63745	0.78098
1492.70889	0.77306
1490.78032	0.76765
1488.85176	0.76122
1486.92319	0.75326
1484.99463	0.74648
1483.06606	0.74201
1481.13750	0.73927
1479.20894	0.73762
1477.28037	0.73744
1475.35181	0.73892
1473.42324	0.74071
1471.49468	0.73915
1469.56611	0.73470
1467.63755	0.73110
1465.70898	0.72932
1463.78042	0.72891
1461.85186	0.72932
1459.92329	0.73127
1457.99473	0.73526
1456.06616	0.73719
1454.13760	0.73376
1452.20903	0.72995
1450.28047	0.72689
1448.35190	0.72420
1446.42334	0.72095
1444.49478	0.71723
1442.56621	0.71366
1440.63765	0.71039
1438.70908	0.70768
1436.78052	0.70449
1434.85195	0.69957
1432.92339	0.69527
1430.99482	0.69299
1429.06626	0.69209
1427.13770	0.69198
1425.20913	0.69292
1423.28057	0.69474
1421.35200	0.69649
1419.42344	0.69831
1417.49487	0.69897
1415.56631	0.69740
1413.63774	0.69606
1411.70918	0.69611
1409.78062	0.69722
1407.85205	0.69912
1405.92349	0.70187
1403.99492	0.70420
1402.06636	0.70477
1400.13779	0.70456
1398.20923	0.70388
1396.28066	0.70188
1394.35210	0.69778
1392.42354	0.69202
1390.49497	0.68662
1388.56641	0.68169
1386.63784	0.67559
1384.70928	0.66838
1382.78071	0.66162
1380.85215	0.65557
1378.92358	0.65045
1376.99502	0.64678
1375.06646	0.64472
1373.13789	0.64315
1371.20933	0.64166
1369.28076	0.64082
1367.35220	0.63992
1365.42363	0.63855
1363.49507	0.63728
1361.56650	0.63564
1359.63794	0.63324
1357.70937	0.63117
1355.78081	0.62984
1353.85225	0.62881
1351.92368	0.62778
1349.99512	0.62704
1348.06655	0.62644
1346.13799	0.62565
1344.20942	0.62488
1342.28086	0.62452
1340.35229	0.62471
1338.42373	0.62453
1336.49517	0.62340
1334.56660	0.62237
1332.63804	0.62208
1330.70947	0.62240
1328.78091	0.62316
1326.85234	0.62421
1324.92378	0.62543
1322.99521	0.62685
1321.06665	0.62844
1319.13809	0.62998
1317.20952	0.63103
1315.28096	0.63145
1313.35239	0.63135
1311.42383	0.63075
1309.49526	0.62986
1307.56670	0.62906
1305.63813	0.62853
1303.70957	0.62803
1301.78101	0.62729
1299.85244	0.62623
1297.92388	0.62496
1295.99531	0.62359
1294.06675	0.62212
1292.13818	0.62050
1290.20962	0.61880
1288.28105	0.61708
1286.35249	0.61537
1284.42393	0.61383
1282.49536	0.61234
1280.56680	0.61062
1278.63823	0.60881
1276.70967	0.60726
1274.78110	0.60604
1272.85254	0.60498
1270.92397	0.60403
1268.99541	0.60313
1267.06685	0.60207
1265.13828	0.60085
1263.20972	0.59963
1261.28115	0.59862
1259.35259	0.59784
1257.42402	0.59715
1255.49546	0.59662
1253.56689	0.59647
1251.63833	0.59670
1249.70977	0.59699
1247.78120	0.59711
1245.85264	0.59700
1243.92407	0.59640
1241.99551	0.59521
1240.06694	0.59357
1238.13838	0.59146
1236.20981	0.58878
1234.28125	0.58574
1232.35269	0.58271
1230.42412	0.57990
1228.49556	0.57726
1226.56699	0.57467
1224.63843	0.57213
1222.70986	0.56982
1220.78130	0.56783
1218.85273	0.56604
1216.92417	0.56422
1214.99561	0.56253
1213.06704	0.56125
1211.13848	0.56033
1209.20991	0.55961
1207.28135	0.55897
1205.35278	0.55815
1203.42422	0.55712
1201.49565	0.55602
1199.56709	0.55490
1197.63853	0.55382
1195.70996	0.55294
1193.78140	0.55235
1191.85283	0.55196
1189.92427	0.55162
1187.99570	0.55127
1186.06714	0.55095
1184.13857	0.55101
1182.21001	0.55179
1180.28145	0.55317
1178.35288	0.55489
1176.42432	0.55691
1174.49575	0.55887
1172.56719	0.56033
1170.63862	0.56121
1168.71006	0.56172
1166.78149	0.56214
1164.85293	0.56257
1162.92437	0.56285
1160.99580	0.56289
1159.06724	0.56281
1157.13867	0.56263
1155.21011	0.56222
1153.28154	0.56137
1151.35298	0.55992
1149.42441	0.55777
1147.49585	0.55517
1145.56729	0.55249
1143.63872	0.54992
1141.71016	0.54777
1139.78159	0.54630
1137.85303	0.54544
1135.92446	0.54515
1133.99590	0.54544
1132.06733	0.54610
1130.13877	0.54664
1128.21021	0.54679
1126.28164	0.54656
1124.35308	0.54617
1122.42451	0.54585
1120.49595	0.54554
1118.56738	0.54537
1116.63882	0.54576
1114.71025	0.54640
1112.78169	0.54676
1110.85312	0.54713
1108.92456	0.54782
1106.99600	0.54867
1105.06743	0.54966
1103.13887	0.55101
1101.21030	0.55265
1099.28174	0.55436
1097.35317	0.55630
1095.42461	0.55900
1093.49604	0.56277
1091.56748	0.56768
1089.63892	0.57367
1087.71035	0.58075
1085.78179	0.58907
1083.85322	0.59782
1081.92466	0.60547
1079.99609	0.61098
1078.06753	0.61392
1076.13896	0.61397
1074.21040	0.61111
1072.28184	0.60596
1070.35327	0.59939
1068.42471	0.59198
1066.49614	0.58440
1064.56758	0.57769
1062.63901	0.57222
1060.71045	0.56754
1058.78188	0.56330
1056.85332	0.55938
1054.92476	0.55571
1052.99619	0.55244
1051.06763	0.54972
1049.13906	0.54753
1047.21050	0.54584
1045.28193	0.54476
1043.35337	0.54407
1041.42480	0.54334
1039.49624	0.54264
1037.56768	0.54215
1035.63911	0.54161
1033.71055	0.54078
1031.78198	0.53966
1029.85342	0.53813
1027.92485	0.53615
1025.99629	0.53388
1024.06772	0.53175
1022.13916	0.53021
1020.21060	0.52934
1018.28203	0.52882
1016.35347	0.52842
1014.42490	0.52798
1012.49634	0.52760
1010.56777	0.52738
1008.63921	0.52708
1006.71064	0.52690
1004.78208	0.52755
1002.85352	0.52921
1000.92495	0.53161
998.99639	0.53468
997.06782	0.53847
995.13926	0.54275
993.21069	0.54699
991.28213	0.55061
989.35356	0.55322
987.42500	0.55449
985.49644	0.55444
983.56787	0.55387
981.63931	0.55352
979.71074	0.55380
977.78218	0.55486
975.85361	0.55643
973.92505	0.55838
971.99648	0.56076
970.06792	0.56356
968.13936	0.56678
966.21079	0.57035
964.28223	0.57441
962.35366	0.57926
960.42510	0.58467
958.49653	0.59018
956.56797	0.59578
954.63940	0.60148
952.71084	0.60736
950.78228	0.61370
948.85371	0.62033
946.92515	0.62676
944.99658	0.63286
943.06802	0.63888
941.13945	0.64517
939.21089	0.65158
937.28232	0.65770
935.35376	0.66371
933.42520	0.66977
931.49663	0.67546
929.56807	0.68092
927.63950	0.68674
925.71094	0.69302
923.78237	0.69954
921.85381	0.70558
919.92524	0.71124
917.99668	0.71772
916.06812	0.72477
914.13955	0.73157
912.21099	0.73865
910.28242	0.74647
908.35386	0.75531
906.42529	0.76463
904.49673	0.77331
902.56816	0.78161
900.63960	0.79031
898.71104	0.79950
896.78247	0.80888
894.85391	0.81841
892.92534	0.82851
890.99678	0.83884
889.06821	0.84922
887.13965	0.86016
885.21108	0.87087
883.28252	0.88124
881.35396	0.89245
879.42539	0.90413
877.49683	0.91612
875.56826	0.92910
873.63970	0.94220
871.71113	0.95368
869.78257	0.96392
867.85400	0.97510
865.92544	0.98674
863.99687	0.99765
862.06831	1.00928
860.13975	1.02175
858.21118	1.03268
856.28262	1.04231
854.35405	1.05341
852.42549	1.06532
850.49692	1.07684
848.56836	1.08945
846.63979	1.10199
844.71123	1.11240
842.78267	1.12325
840.85410	1.13640
838.92554	1.14999
836.99697	1.16278
835.06841	1.17220
833.13984	1.17839
831.21128	1.18745
829.28271	1.20069
827.35415	1.21125
825.42559	1.21930
823.49702	1.23420
821.56846	1.25239
819.63989	1.26497
817.71133	1.27286
815.78276	1.28016
813.85420	1.28872
811.92563	1.29707
809.99707	1.30563
808.06851	1.31173
806.13994	1.31601
804.21138	1.32389
802.28281	1.33480
800.35425	1.34789
798.42568	1.36427
796.49712	1.37481
794.56855	1.37639
792.63999	1.38105
790.71143	1.38792
788.78286	1.40400
786.85430	1.42632
784.92573	1.44525
782.99717	1.49261
781.06860	1.55240
779.14004	1.51696
777.21147	1.44586
775.28291	1.43978
773.35435	1.43978
771.42578	1.44579
769.49722	1.52780
767.56865	1.57169
765.64009	1.44146
763.71152	1.33131
761.78296	1.35217
759.85439	1.50270
757.92583	1.56532
755.99727	1.46572
754.06870	1.58093
752.14014	1.80074
750.21157	1.46686
748.28301	1.29988
746.35444	1.26438
744.42588	1.15754
742.49731	1.07571
740.56875	1.13554
738.64019	1.29521
736.71162	1.25727
734.78306	1.04770
732.85449	0.86175
730.92593	0.77473
728.99736	0.78561
727.06880	0.82760
725.14023	1.29731
723.21167	4.33927
721.28311	4.32770
719.35454	0.36837
717.42598	-0.25290
715.49741	-0.24659
713.56885	-0.11515
711.64028	-0.17072
709.71172	-0.26302
707.78315	0.59392
705.85459	4.23513
703.92603	0.54010
701.99746	0.30820
700.06890	0.31111
698.14033	0.35389
696.21177	0.33416
694.28320	0.31375
692.35464	0.28905
690.42607	0.30013
688.49751	0.41418
686.56895	0.63408
684.64038	1.10687
682.71182	1.06902
680.78325	0.66985
678.85469	0.54649
676.92612	0.55330
674.99756	0.59070
673.06899	0.55515
671.14043	0.41894
669.21187	0.30498
667.28330	0.22905
665.35474	0.24586
663.42617	0.41571
661.49761	0.65189
659.56904	0.63276
657.64048	0.55134
655.71191	0.60100
653.78335	0.75825
651.85479	1.29805
649.92622	3.89956
647.99766	0.70234
646.06909	0.46854
644.14053	0.49423
642.21196	0.51779
640.28340	0.43642
638.35483	0.41490
636.42627	0.44577
634.49771	0.44846
632.56914	0.44635
630.64058	0.36844
628.71201	0.35027
626.78345	0.65378
624.85488	3.74913
622.92632	1.46037
620.99775	0.59089
619.06919	0.42755
617.14062	0.34051
615.21206	0.28463
613.28350	0.34895
611.35493	0.61660
609.42637	0.90291
607.49780	0.80676
605.56924	0.85784
603.64067	0.73808
601.71211	0.51508
599.78354	0.36693
597.85498	0.30180
595.92642	0.27172
593.99785	0.26576
592.06929	0.30600
590.14072	0.35553
588.21216	0.36256
586.28359	0.32353
584.35503	0.26881
582.42646	0.23295
580.49790	0.24183
578.56934	0.30026
576.64077	0.37735
574.71221	0.44319
572.78364	0.47649
570.85508	0.45679
568.92651	0.38865
566.99795	0.32350
565.06938	0.30763
563.14082	0.33515
561.21226	0.33136
559.28369	0.26240
557.35513	0.23027
555.42656	0.23921
553.49800	0.24230
551.56943	0.25908
549.64087	0.28246
547.71230	0.27067
545.78374	0.23697
543.85518	0.23230
541.92661	0.25251
539.99805	0.27679
538.06948	0.25980
536.14092	0.19974
534.21235	0.21615
532.28379	0.32876
530.35522	0.39134
528.42666	0.32894
526.49810	0.30148
524.56953	0.35232
522.64097	0.42394
520.71240	0.39491
518.78384	0.33257
516.85527	0.30211
514.92671	0.26048
512.99814	0.21860
511.06958	0.24477
509.14102	0.29963
507.21245	0.30512
505.28389	0.30900
503.35532	0.35670
501.42676	0.39113
499.49819	0.35274
