3997.91411	0.05296
3995.98555	0.05341
3994.05698	0.05405
3992.12842	0.05425
3990.19985	0.05406
3988.27129	0.05384
3986.34272	0.05401
3984.41416	0.05476
3982.48560	0.05544
3980.55703	0.05581
3978.62847	0.05615
3976.69990	0.05653
3974.77134	0.05695
3972.84277	0.05734
3970.91421	0.05736
3968.98564	0.05705
3967.05708	0.05683
3965.12852	0.05699
3963.19995	0.05751
3961.27139	0.05809
3959.34282	0.05848
3957.41426	0.05846
3955.48569	0.05810
3953.55713	0.05792
3951.62856	0.05823
3949.70000	0.05867
3947.77144	0.05899
3945.84287	0.05921
3943.91431	0.05918
3941.98574	0.05901
3940.05718	0.05894
3938.12861	0.05896
3936.20005	0.05891
3934.27148	0.05876
3932.34292	0.05896
3930.41436	0.05962
3928.48579	0.05988
3926.55723	0.05953
3924.62866	0.05940
3922.70010	0.05955
3920.77153	0.05962
3918.84297	0.05983
3916.91440	0.05989
3914.98584	0.05933
3913.05728	0.05869
3911.12871	0.05831
3909.20015	0.05807
3907.27158	0.05832
3905.34302	0.05937
3903.41445	0.06071
3901.48589	0.06134
3899.55732	0.06115
3897.62876	0.06083
3895.70020	0.06050
3893.77163	0.06032
3891.84307	0.06042
3889.91450	0.06029
3887.98594	0.05992
3886.05737	0.06032
3884.12881	0.06134
3882.20024	0.06181
3880.27168	0.06175
3878.34312	0.06123
3876.41455	0.06086
3874.48599	0.06155
3872.55742	0.06281
3870.62886	0.06364
3868.70029	0.06407
3866.77173	0.06423
3864.84316	0.06440
3862.91460	0.06455
3860.98604	0.06425
3859.05747	0.06413
3857.12891	0.06460
3855.20034	0.06544
3853.27178	0.06681
3851.34321	0.06807
3849.41465	0.06776
3847.48608	0.06724
3845.55752	0.06723
3843.62896	0.06788
3841.70039	0.06941
3839.77183	0.07189
3837.84326	0.07434
3835.91470	0.07463
3833.98613	0.07343
3832.05757	0.07294
3830.12900	0.07323
3828.20044	0.07365
3826.27187	0.07455
3824.34331	0.07583
3822.41475	0.07731
3820.48618	0.07964
3818.55762	0.08122
3816.62905	0.08135
3814.70049	0.08128
3812.77192	0.08113
3810.84336	0.08134
3808.91479	0.08226
3806.98623	0.08402
3805.05767	0.08601
3803.12910	0.08773
3801.20054	0.09002
3799.27197	0.09180
3797.34341	0.09239
3795.41484	0.09297
3793.48628	0.09317
3791.55771	0.09345
3789.62915	0.09438
3787.70059	0.09558
3785.77202	0.09715
3783.84346	0.09882
3781.91489	0.09999
3779.98633	0.10181
3778.05776	0.10460
3776.12920	0.10619
3774.20063	0.10697
3772.27207	0.10851
3770.34351	0.11096
3768.41494	0.11355
3766.48638	0.11546
3764.55781	0.11724
3762.62925	0.11893
3760.70068	0.12106
3758.77212	0.12467
3756.84355	0.12818
3754.91499	0.13031
3752.98643	0.13278
3751.05786	0.13720
3749.12930	0.14223
3747.20073	0.14465
3745.27217	0.14674
3743.34360	0.15117
3741.41504	0.15550
3739.48647	0.15853
3737.55791	0.16247
3735.62935	0.16890
3733.70078	0.17722
3731.77222	0.18357
3729.84365	0.18739
3727.91509	0.19100
3725.98652	0.19645
3724.05796	0.20348
3722.12939	0.20997
3720.20083	0.21547
3718.27227	0.22051
3716.34370	0.22596
3714.41514	0.23248
3712.48657	0.24177
3710.55801	0.25652
3708.62944	0.27283
3706.70088	0.28523
3704.77231	0.29641
3702.84375	0.30963
3700.91519	0.32698
3698.98662	0.34574
3697.05806	0.36300
3695.12949	0.38118
3693.20093	0.40084
3691.27236	0.42237
3689.34380	0.45024
3687.41523	0.48461
3685.48667	0.51450
3683.55811	0.54007
3681.62954	0.56780
3679.70098	0.60009
3677.77241	0.63456
3675.84385	0.67426
3673.91528	0.72751
3671.98672	0.77083
3670.05815	0.80951
3668.12959	0.86346
3666.20103	0.91189
3664.27246	0.95198
3662.34390	0.99541
3660.41533	1.04266
3658.48677	1.08896
3656.55820	1.13789
3654.62964	1.19305
3652.70107	1.23920
3650.77251	1.27897
3648.84395	1.33620
3646.91538	1.40791
3644.98682	1.45781
3643.05825	1.49572
3641.12969	1.53574
3639.20112	1.58075
3637.27256	1.62641
3635.34399	1.67027
3633.41543	1.71332
3631.48687	1.75367
3629.55830	1.79546
3627.62974	1.85192
3625.70117	1.90416
3623.77261	1.93817
3621.84404	1.96994
3619.91548	2.00573
3617.98691	2.05038
3616.05835	2.09494
3614.12979	2.13243
3612.20122	2.17189
3610.27266	2.21088
3608.34409	2.25022
3606.41553	2.29452
3604.48696	2.33620
3602.55840	2.37150
3600.62983	2.40879
3598.70127	2.44988
3596.77271	2.48990
3594.84414	2.53046
3592.91558	2.57255
3590.98701	2.61163
3589.05845	2.64752
3587.12988	2.69116
3585.20132	2.73989
3583.27275	2.78014
3581.34419	2.81688
3579.41562	2.85631
3577.48706	2.89817
3575.55850	2.94120
3573.62993	2.98535
3571.70137	3.02758
3569.77280	3.06718
3567.84424	3.10838
3565.91567	3.16062
3563.98711	3.21378
3562.05854	3.25528
3560.12998	3.29472
3558.20142	3.33832
3556.27285	3.38357
3554.34429	3.42610
3552.41572	3.47045
3550.48716	3.51828
3548.55859	3.56486
3546.63003	3.61108
3544.70146	3.65936
3542.77290	3.70554
3540.84434	3.74970
3538.91577	3.79637
3536.98721	3.84500
3535.05864	3.89505
3533.13008	3.94430
3531.20151	3.99298
3529.27295	4.04178
3527.34438	4.09139
3525.41582	4.14045
3523.48726	4.18592
3521.55869	4.23200
3519.63013	4.27986
3517.70156	4.32979
3515.77300	4.38181
3513.84443	4.43020
3511.91587	4.47271
3509.98730	4.51651
3508.05874	4.56669
3506.13018	4.61811
3504.20161	4.66239
3502.27305	4.70033
3500.34448	4.74161
3498.41592	4.78995
3496.48735	4.84470
3494.55879	4.90129
3492.63022	4.95613
3490.70166	5.01234
3488.77310	5.06710
3486.84453	5.11393
3484.91597	5.15568
3482.98740	5.19848
3481.05884	5.24192
3479.13027	5.28696
3477.20171	5.33764
3475.27314	5.39241
3473.34458	5.45120
3471.41602	5.51338
3469.48745	5.56842
3467.55889	5.60545
3465.63032	5.63637
3463.70176	5.67979
3461.77319	5.72296
3459.84463	5.75930
3457.91606	5.80197
3455.98750	5.85172
3454.05894	5.90451
3452.13037	5.95921
3450.20181	6.01112
3448.27324	6.06024
3446.34468	6.11789
3444.41611	6.17877
3442.48755	6.22952
3440.55898	6.27141
3438.63042	6.32483
3436.70186	6.39460
3434.77329	6.44424
3432.84473	6.46656
3430.91616	6.50509
3428.98760	6.56199
3427.05903	6.59400
3425.13047	6.62806
3423.20190	6.71452
3421.27334	6.82362
3419.34478	6.88123
3417.41621	6.89391
3415.48765	6.93439
3413.55908	7.00890
3411.63052	7.04763
3409.70195	7.04249
3407.77339	7.08168
3405.84482	7.16425
3403.91626	7.21621
3401.98770	7.22238
3400.05913	7.25330
3398.13057	7.31889
3396.20200	7.34405
3394.27344	7.35360
3392.34487	7.40552
3390.41631	7.48177
3388.48774	7.50778
3386.55918	7.48750
3384.63062	7.49058
3382.70205	7.53568
3380.77349	7.59046
3378.84492	7.63687
3376.91636	7.67475
3374.98779	7.67683
3373.05923	7.65274
3371.13066	7.64877
3369.20210	7.72561
3367.27354	7.83553
3365.34497	7.87609
3363.41641	7.85854
3361.48784	7.83619
3359.55928	7.84495
3357.63071	7.89652
3355.70215	7.96234
3353.77358	7.97885
3351.84502	7.96806
3349.91646	7.97631
3347.98789	8.03064
3346.05933	8.09155
3344.13076	8.08905
3342.20220	8.04052
3340.27363	8.00765
3338.34507	8.04968
3336.41650	8.13660
3334.48794	8.23257
3332.55937	8.25749
3330.63081	8.15022
3328.70225	8.01136
3326.77368	7.97523
3324.84512	8.01082
3322.91655	8.00142
3320.98799	7.99184
3319.05942	7.96695
3317.13086	7.91357
3315.20229	7.90678
3313.27373	7.93763
3311.34517	7.95274
3309.41660	7.97890
3307.48804	8.04659
3305.55947	8.11001
3303.63091	8.16907
3301.70234	8.21894
3299.77378	8.23700
3297.84521	8.20297
3295.91665	8.12594
3293.98809	8.04815
3292.05952	8.01536
3290.13096	8.03796
3288.20239	8.06834
3286.27383	8.09048
3284.34526	8.11409
3282.41670	8.13115
3280.48813	8.14816
3278.55957	8.21367
3276.63101	8.27959
3274.70244	8.30520
3272.77388	8.32426
3270.84531	8.29295
3268.91675	8.19757
3266.98818	8.05283
3265.05962	7.95406
3263.13105	8.00088
3261.20249	8.13355
3259.27393	8.19187
3257.34536	8.14461
3255.41680	8.11302
3253.48823	8.13290
3251.55967	8.13370
3249.63110	8.14305
3247.70254	8.16951
3245.77397	8.08382
3243.84541	7.95284
3241.91685	7.94450
3239.98828	8.03064
3238.05972	8.07528
3236.13115	8.09770
3234.20259	8.14443
3232.27402	8.10799
3230.34546	8.00520
3228.41689	7.92308
3226.48833	7.86604
3224.55977	7.85760
3222.63120	7.91685
3220.70264	8.03929
3218.77407	8.14394
3216.84551	8.10826
3214.91694	8.02115
3212.98838	7.95754
3211.05981	7.88227
3209.13125	7.83366
3207.20269	7.83092
3205.27412	7.84859
3203.34556	7.87286
3201.41699	7.87425
3199.48843	7.83291
3197.55986	7.77781
3195.63130	7.73632
3193.70273	7.69831
3191.77417	7.62609
3189.84561	7.52875
3187.91704	7.44891
3185.98848	7.41278
3184.05991	7.41235
3182.13135	7.35289
3180.20278	7.21678
3178.27422	7.11140
3176.34565	7.08984
3174.41709	7.10776
3172.48853	7.11684
3170.55996	7.12746
3168.63140	7.12034
3166.70283	7.05723
3164.77427	6.95108
3162.84570	6.84429
3160.91714	6.75844
3158.98857	6.68942
3157.06001	6.63245
3155.13145	6.57349
3153.20288	6.50389
3151.27432	6.43223
3149.34575	6.36503
3147.41719	6.29420
3145.48862	6.20732
3143.56006	6.11741
3141.63149	6.04838
3139.70293	6.00132
3137.77437	5.95435
3135.84580	5.88918
3133.91724	5.81871
3131.98867	5.75399
3130.06011	5.68515
3128.13154	5.60969
3126.20298	5.53046
3124.27441	5.44805
3122.34585	5.36062
3120.41729	5.27708
3118.48872	5.20868
3116.56016	5.14689
3114.63159	5.08446
3112.70303	5.02186
3110.77446	4.95328
3108.84590	4.87751
3106.91733	4.80378
3104.98877	4.73617
3103.06021	4.66865
3101.13164	4.60000
3099.20308	4.53439
3097.27451	4.46968
3095.34595	4.40354
3093.41738	4.33594
3091.48882	4.26601
3089.56025	4.19718
3087.63169	4.13362
3085.70312	4.07390
3083.77456	4.01341
3081.84600	3.94948
3079.91743	3.88474
3077.98887	3.82318
3076.06030	3.76318
3074.13174	3.70234
3072.20317	3.64237
3070.27461	3.58336
3068.34604	3.52320
3066.41748	3.46388
3064.48892	3.40800
3062.56035	3.35254
3060.63179	3.29660
3058.70322	3.24242
3056.77466	3.18883
3054.84609	3.13499
3052.91753	3.08243
3050.98896	3.03131
3049.06040	2.98033
3047.13184	2.92969
3045.20327	2.88025
3043.27471	2.83161
3041.34614	2.78350
3039.41758	2.73615
3037.48901	2.68918
3035.56045	2.64312
3033.63188	2.59928
3031.70332	2.55624
3029.77476	2.51204
3027.84619	2.46750
3025.91763	2.42395
3023.98906	2.38162
3022.06050	2.34003
3020.13193	2.29917
3018.20337	2.25915
3016.27480	2.21895
3014.34624	2.17863
3012.41768	2.14001
3010.48911	2.10312
3008.56055	2.06683
3006.63198	2.03132
3004.70342	1.99614
3002.77485	1.96066
3000.84629	1.92558
2998.91772	1.89127
2996.98916	1.85779
2995.06060	1.82484
2993.13203	1.79186
2991.20347	1.75967
2989.27490	1.72889
2987.34634	1.69864
2985.41777	1.66844
2983.48921	1.63874
2981.56064	1.60971
2979.63208	1.58096
2977.70352	1.55222
2975.77495	1.52402
2973.84639	1.49698
2971.91782	1.47053
2969.98926	1.44361
2968.06069	1.41651
2966.13213	1.39050
2964.20356	1.36583
2962.27500	1.34139
2960.34644	1.31644
2958.41787	1.29176
2956.48931	1.26820
2954.56074	1.24545
2952.63218	1.22301
2950.70361	1.20120
2948.77505	1.18004
2946.84648	1.15891
2944.91792	1.13796
2942.98936	1.11730
2941.06079	1.09661
2939.13223	1.07591
2937.20366	1.05550
2935.27510	1.03567
2933.34653	1.01675
2931.41797	0.99845
2929.48940	0.97980
2927.56084	0.96090
2925.63228	0.94324
2923.70371	0.92696
2921.77515	0.91076
2919.84658	0.89446
2917.91802	0.87875
2915.98945	0.86336
2914.06089	0.84784
2912.13232	0.83262
2910.20376	0.81802
2908.27520	0.80381
2906.34663	0.79002
2904.41807	0.77686
2902.48950	0.76408
2900.56094	0.75120
2898.63237	0.73805
2896.70381	0.72504
2894.77524	0.71264
2892.84668	0.70069
2890.91812	0.68894
2888.98955	0.67752
2887.06099	0.66651
2885.13242	0.65569
2883.20386	0.64490
2881.27529	0.63413
2879.34673	0.62346
2877.41816	0.61305
2875.48960	0.60288
2873.56104	0.59268
2871.63247	0.58225
2869.70391	0.57174
2867.77534	0.56150
2865.84678	0.55140
2863.91821	0.54130
2861.98965	0.53142
2860.06108	0.52185
2858.13252	0.51244
2856.20396	0.50318
2854.27539	0.49423
2852.34683	0.48561
2850.41826	0.47740
2848.48970	0.46976
2846.56113	0.46265
2844.63257	0.45573
2842.70400	0.44901
2840.77544	0.44275
2838.84687	0.43680
2836.91831	0.43081
2834.98975	0.42468
2833.06118	0.41871
2831.13262	0.41289
2829.20405	0.40708
2827.27549	0.40138
2825.34692	0.39569
2823.41836	0.38980
2821.48979	0.38377
2819.56123	0.37776
2817.63267	0.37195
2815.70410	0.36644
2813.77554	0.36117
2811.84697	0.35595
2809.91841	0.35066
2807.98984	0.34539
2806.06128	0.34013
2804.13271	0.33491
2802.20415	0.32995
2800.27559	0.32531
2798.34702	0.32087
2796.41846	0.31634
2794.48989	0.31164
2792.56133	0.30709
2790.63276	0.30274
2788.70420	0.29837
2786.77563	0.29400
2784.84707	0.28983
2782.91851	0.28596
2780.98994	0.28214
2779.06138	0.27826
2777.13281	0.27447
2775.20425	0.27089
2773.27568	0.26737
2771.34712	0.26378
2769.41855	0.26021
2767.48999	0.25685
2765.56143	0.25369
2763.63286	0.25051
2761.70430	0.24726
2759.77573	0.24403
2757.84717	0.24090
2755.91860	0.23795
2753.99004	0.23515
2752.06147	0.23233
2750.13291	0.22947
2748.20435	0.22681
2746.27578	0.22425
2744.34722	0.22145
2742.41865	0.21855
2740.49009	0.21597
2738.56152	0.21377
2736.63296	0.21172
2734.70439	0.20959
2732.77583	0.20733
2730.84727	0.20501
2728.91870	0.20265
2726.99014	0.20041
2725.06157	0.19833
2723.13301	0.19640
2721.20444	0.19459
2719.27588	0.19273
2717.34731	0.19085
2715.41875	0.18904
2713.49019	0.18720
2711.56162	0.18531
2709.63306	0.18369
2707.70449	0.18225
2705.77593	0.18065
2703.84736	0.17897
2701.91880	0.17737
2699.99023	0.17591
2698.06167	0.17461
2696.13311	0.17334
2694.20454	0.17184
2692.27598	0.17026
2690.34741	0.16891
2688.41885	0.16771
2686.49028	0.16643
2684.56172	0.16524
2682.63315	0.16427
2680.70459	0.16328
2678.77603	0.16206
2676.84746	0.16083
2674.91890	0.15978
2672.99033	0.15881
2671.06177	0.15779
2669.13320	0.15669
2667.20464	0.15561
2665.27607	0.15463
2663.34751	0.15374
2661.41895	0.15293
2659.49038	0.15216
2657.56182	0.15139
2655.63325	0.15059
2653.70469	0.14970
2651.77612	0.14880
2649.84756	0.14812
2647.91899	0.14778
2645.99043	0.14741
2644.06187	0.14686
2642.13330	0.14630
2640.20474	0.14590
2638.27617	0.14567
2636.34761	0.14539
2634.41904	0.14492
2632.49048	0.14448
2630.56191	0.14424
2628.63335	0.14400
2626.70479	0.14359
2624.77622	0.14319
2622.84766	0.14288
2620.91909	0.14262
2618.99053	0.14245
2617.06196	0.14239
2615.13340	0.14227
2613.20483	0.14208
2611.27627	0.14204
2609.34771	0.14209
2607.41914	0.14197
2605.49058	0.14177
2603.56201	0.14180
2601.63345	0.14204
2599.70488	0.14222
2597.77632	0.14227
2595.84775	0.14237
2593.91919	0.14250
2591.99062	0.14250
2590.06206	0.14257
2588.13350	0.14284
2586.20493	0.14322
2584.27637	0.14361
2582.34780	0.14395
2580.41924	0.14423
2578.49067	0.14449
2576.56211	0.14487
2574.63354	0.14532
2572.70498	0.14572
2570.77642	0.14615
2568.84785	0.14657
2566.91929	0.14690
2564.99072	0.14728
2563.06216	0.14776
2561.13359	0.14825
2559.20503	0.14881
2557.27646	0.14938
2555.34790	0.14996
2553.41934	0.15058
2551.49077	0.15120
2549.56221	0.15182
2547.63364	0.15246
2545.70508	0.15300
2543.77651	0.15345
2541.84795	0.15409
2539.91938	0.15495
2537.99082	0.15576
2536.06226	0.15645
2534.13369	0.15716
2532.20513	0.15791
2530.27656	0.15871
2528.34800	0.15955
2526.41943	0.16036
2524.49087	0.16115
2522.56230	0.16198
2520.63374	0.16281
2518.70518	0.16352
2516.77661	0.16419
2514.84805	0.16502
2512.91948	0.16593
2510.99092	0.16670
2509.06235	0.16736
2507.13379	0.16812
2505.20522	0.16900
2503.27666	0.16997
2501.34810	0.17093
2499.41953	0.17185
2497.49097	0.17275
2495.56240	0.17357
2493.63384	0.17439
2491.70527	0.17535
2489.77671	0.17630
2487.84814	0.17719
2485.91958	0.17814
2483.99102	0.17915
2482.06245	0.18013
2480.13389	0.18105
2478.20532	0.18196
2476.27676	0.18287
2474.34819	0.18381
2472.41963	0.18483
2470.49106	0.18584
2468.56250	0.18679
2466.63394	0.18777
2464.70537	0.18871
2462.77681	0.18958
2460.84824	0.19054
2458.91968	0.19161
2456.99111	0.19270
2455.06255	0.19377
2453.13398	0.19480
2451.20542	0.19579
2449.27686	0.19679
2447.34829	0.19783
2445.41973	0.19889
2443.49116	0.19997
2441.56260	0.20107
2439.63403	0.20218
2437.70547	0.20326
2435.77690	0.20430
2433.84834	0.20536
2431.91978	0.20655
2429.99121	0.20773
2428.06265	0.20875
2426.13408	0.20973
2424.20552	0.21082
2422.27695	0.21201
2420.34839	0.21315
2418.41982	0.21422
2416.49126	0.21532
2414.56270	0.21657
2412.63413	0.21791
2410.70557	0.21923
2408.77700	0.22040
2406.84844	0.22146
2404.91987	0.22257
2402.99131	0.22371
2401.06274	0.22483
2399.13418	0.22611
2397.20562	0.22756
2395.27705	0.22897
2393.34849	0.23026
2391.41992	0.23160
2389.49136	0.23315
2387.56279	0.23521
2385.63423	0.23820
2383.70566	0.24238
2381.77710	0.24796
2379.84854	0.25486
2377.91997	0.26263
2375.99141	0.27146
2374.06284	0.28210
2372.13428	0.29422
2370.20571	0.30690
2368.27715	0.31990
2366.34858	0.33266
2364.42002	0.34419
2362.49146	0.35364
2360.56289	0.35931
2358.63433	0.36062
2356.70576	0.35785
2354.77720	0.34965
2352.84863	0.33705
2350.92007	0.32398
2348.99150	0.31617
2347.06294	0.31672
2345.13437	0.32590
2343.20581	0.33878
2341.27725	0.34674
2339.34868	0.34870
2337.42012	0.34761
2335.49155	0.34575
2333.56299	0.34445
2331.63442	0.34455
2329.70586	0.34530
2327.77729	0.34508
2325.84873	0.34318
2323.92017	0.34015
2321.99160	0.33648
2320.06304	0.33261
2318.13447	0.32919
2316.20591	0.32638
2314.27734	0.32458
2312.34878	0.32401
2310.42021	0.32368
2308.49165	0.32263
2306.56309	0.32121
2304.63452	0.32014
2302.70596	0.31991
2300.77739	0.32039
2298.84883	0.32101
2296.92026	0.32147
2294.99170	0.32195
2293.06313	0.32259
2291.13457	0.32325
2289.20601	0.32392
2287.27744	0.32465
2285.34888	0.32545
2283.42031	0.32655
2281.49175	0.32831
2279.56318	0.33067
2277.63462	0.33317
2275.70605	0.33557
2273.77749	0.33784
2271.84893	0.34000
2269.92036	0.34203
2267.99180	0.34406
2266.06323	0.34615
2264.13467	0.34822
2262.20610	0.35023
2260.27754	0.35218
2258.34897	0.35415
2256.42041	0.35614
2254.49185	0.35806
2252.56328	0.35995
2250.63472	0.36198
2248.70615	0.36415
2246.77759	0.36629
2244.84902	0.36839
2242.92046	0.37050
2240.99189	0.37261
2239.06333	0.37468
2237.13477	0.37683
2235.20620	0.37911
2233.27764	0.38138
2231.34907	0.38361
2229.42051	0.38589
2227.49194	0.38819
2225.56338	0.39047
2223.63481	0.39281
2221.70625	0.39510
2219.77769	0.39724
2217.84912	0.39934
2215.92056	0.40147
2213.99199	0.40353
2212.06343	0.40562
2210.13486	0.40789
2208.20630	0.41019
2206.27773	0.41237
2204.34917	0.41444
2202.42061	0.41644
2200.49204	0.41843
2198.56348	0.42045
2196.63491	0.42250
2194.70635	0.42452
2192.77778	0.42645
2190.84922	0.42829
2188.92065	0.43020
2186.99209	0.43208
2185.06353	0.43387
2183.13496	0.43571
2181.20640	0.43758
2179.27783	0.43920
2177.34927	0.44067
2175.42070	0.44225
2173.49214	0.44389
2171.56357	0.44540
2169.63501	0.44683
2167.70645	0.44829
2165.77788	0.44970
2163.84932	0.45093
2161.92075	0.45194
2159.99219	0.45284
2158.06362	0.45380
2156.13506	0.45482
2154.20649	0.45578
2152.27793	0.45664
2150.34937	0.45742
2148.42080	0.45808
2146.49224	0.45860
2144.56367	0.45904
2142.63511	0.45945
2140.70654	0.45984
2138.77798	0.46019
2136.84941	0.46046
2134.92085	0.46069
2132.99229	0.46087
2131.06372	0.46088
2129.13516	0.46061
2127.20659	0.46026
2125.27803	0.45993
2123.34946	0.45955
2121.42090	0.45915
2119.49233	0.45869
2117.56377	0.45815
2115.63521	0.45747
2113.70664	0.45659
2111.77808	0.45555
2109.84951	0.45450
2107.92095	0.45354
2105.99238	0.45260
2104.06382	0.45150
2102.13525	0.45026
2100.20669	0.44900
2098.27812	0.44759
2096.34956	0.44607
2094.42100	0.44457
2092.49243	0.44292
2090.56387	0.44110
2088.63530	0.43938
2086.70674	0.43777
2084.77817	0.43607
2082.84961	0.43423
2080.92104	0.43230
2078.99248	0.43030
2077.06392	0.42814
2075.13535	0.42586
2073.20679	0.42358
2071.27822	0.42129
2069.34966	0.41897
2067.42109	0.41672
2065.49253	0.41457
2063.56396	0.41236
2061.63540	0.40997
2059.70684	0.40748
2057.77827	0.40499
2055.84971	0.40247
2053.92114	0.39987
2051.99258	0.39727
2050.06401	0.39471
2048.13545	0.39210
2046.20688	0.38941
2044.27832	0.38678
2042.34976	0.38413
2040.42119	0.38129
2038.49263	0.37844
2036.56406	0.37568
2034.63550	0.37296
2032.70693	0.37020
2030.77837	0.36747
2028.84980	0.36473
2026.92124	0.36192
2024.99268	0.35907
2023.06411	0.35623
2021.13555	0.35341
2019.20698	0.35061
2017.27842	0.34786
2015.34985	0.34511
2013.42129	0.34236
2011.49272	0.33965
2009.56416	0.33692
2007.63560	0.33406
2005.70703	0.33122
2003.77847	0.32857
2001.84990	0.32606
1999.92134	0.32354
1997.99277	0.32085
1996.06421	0.31812
1994.13564	0.31560
1992.20708	0.31317
1990.27852	0.31057
1988.34995	0.30797
1986.42139	0.30547
1984.49282	0.30299
1982.56426	0.30055
1980.63569	0.29821
1978.70713	0.29596
1976.77856	0.29372
1974.85000	0.29144
1972.92144	0.28911
1970.99287	0.28682
1969.06431	0.28476
1967.13574	0.28289
1965.20718	0.28089
1963.27861	0.27882
1961.35005	0.27687
1959.42148	0.27500
1957.49292	0.27307
1955.56436	0.27110
1953.63579	0.26921
1951.70723	0.26746
1949.77866	0.26587
1947.85010	0.26437
1945.92153	0.26292
1943.99297	0.26156
1942.06440	0.26016
1940.13584	0.25854
1938.20728	0.25694
1936.27871	0.25552
1934.35015	0.25421
1932.42158	0.25297
1930.49302	0.25170
1928.56445	0.25045
1926.63589	0.24939
1924.70732	0.24859
1922.77876	0.24780
1920.85020	0.24684
1918.92163	0.24590
1916.99307	0.24499
1915.06450	0.24395
1913.13594	0.24295
1911.20737	0.24223
1909.27881	0.24158
1907.35024	0.24078
1905.42168	0.23997
1903.49312	0.23940
1901.56455	0.23896
1899.63599	0.23843
1897.70742	0.23794
1895.77886	0.23758
1893.85029	0.23721
1891.92173	0.23678
1889.99316	0.23659
1888.06460	0.23643
1886.13604	0.23613
1884.20747	0.23588
1882.27891	0.23562
1880.35034	0.23535
1878.42178	0.23524
1876.49321	0.23528
1874.56465	0.23525
1872.63608	0.23535
1870.70752	0.23581
1868.77896	0.23661
1866.85039	0.23699
1864.92183	0.23668
1862.99326	0.23641
1861.06470	0.23649
1859.13613	0.23691
1857.20757	0.23736
1855.27900	0.23778
1853.35044	0.23822
1851.42187	0.23884
1849.49331	0.23956
1847.56475	0.24034
1845.63618	0.24126
1843.70762	0.24232
1841.77905	0.24304
1839.85049	0.24342
1837.92192	0.24418
1835.99336	0.24514
1834.06479	0.24599
1832.13623	0.24693
1830.20767	0.24853
1828.27910	0.25025
1826.35054	0.25130
1824.42197	0.25242
1822.49341	0.25354
1820.56484	0.25463
1818.63628	0.25595
1816.70771	0.25764
1814.77915	0.25939
1812.85059	0.26124
1810.92202	0.26340
1808.99346	0.26554
1807.06489	0.26739
1805.13633	0.26921
1803.20776	0.27143
1801.27920	0.27405
1799.35063	0.27700
1797.42207	0.27966
1795.49351	0.28220
1793.56494	0.28522
1791.63638	0.28897
1789.70781	0.29229
1787.77925	0.29476
1785.85068	0.29787
1783.92212	0.30170
1781.99355	0.30574
1780.06499	0.30998
1778.13643	0.31427
1776.20786	0.31828
1774.27930	0.32272
1772.35073	0.32890
1770.42217	0.33548
1768.49360	0.34071
1766.56504	0.34571
1764.63647	0.35090
1762.70791	0.35679
1760.77935	0.36438
1758.85078	0.37137
1756.92222	0.37837
1754.99365	0.38609
1753.06509	0.39295
1751.13652	0.40113
1749.20796	0.41204
1747.27939	0.42299
1745.35083	0.43235
1743.42227	0.44206
1741.49370	0.45279
1739.56514	0.46534
1737.63657	0.47770
1735.70801	0.48838
1733.77944	0.50503
1731.85088	0.52531
1729.92231	0.54097
1727.99375	0.55668
1726.06519	0.57333
1724.13662	0.59171
1722.20806	0.61191
1720.27949	0.63046
1718.35093	0.65212
1716.42236	0.68516
1714.49380	0.71641
1712.56523	0.74070
1710.63667	0.76414
1708.70811	0.78948
1706.77954	0.81830
1704.85098	0.85300
1702.92241	0.88379
1700.99385	0.91352
1699.06528	0.95878
1697.13672	1.00089
1695.20815	1.04343
1693.27959	1.08365
1691.35103	1.11502
1689.42246	1.15173
1687.49390	1.19104
1685.56533	1.22801
1683.63677	1.28556
1681.70820	1.34653
1679.77964	1.38464
1677.85107	1.42103
1675.92251	1.46256
1673.99395	1.51410
1672.06538	1.55958
1670.13682	1.60320
1668.20825	1.66053
1666.27969	1.70603
1664.35112	1.74402
1662.42256	1.79156
1660.49399	1.84545
1658.56543	1.88636
1656.63687	1.91930
1654.70830	1.94997
1652.77974	2.00533
1650.85117	2.06378
1648.92261	2.08388
1646.99404	2.10926
1645.06548	2.13955
1643.13691	2.16198
1641.20835	2.17658
1639.27979	2.18998
1637.35122	2.19983
1635.42266	2.20515
1633.49409	2.20174
1631.56553	2.19033
1629.63696	2.17744
1627.70840	2.15460
1625.77983	2.12650
1623.85127	2.09013
1621.92271	2.04510
1619.99414	2.00390
1618.06558	1.96283
1616.13701	1.90382
1614.20845	1.84430
1612.27988	1.80027
1610.35132	1.75368
1608.42275	1.70181
1606.49419	1.65024
1604.56562	1.60284
1602.63706	1.55654
1600.70850	1.51102
1598.77993	1.46902
1596.85137	1.42912
1594.92280	1.39002
1592.99424	1.35190
1591.06567	1.31663
1589.13711	1.28323
1587.20854	1.25170
1585.27998	1.22210
1583.35142	1.19417
1581.42285	1.16841
1579.49429	1.14625
1577.56572	1.12592
1575.63716	1.09960
1573.70859	1.07620
1571.78003	1.06132
1569.85146	1.04460
1567.92290	1.02472
1565.99434	1.00946
1564.06577	0.99676
1562.13721	0.98615
1560.20864	0.97770
1558.28008	0.96260
1556.35151	0.94767
1554.42295	0.93840
1552.49438	0.92949
1550.56582	0.92076
1548.63726	0.91154
1546.70869	0.90291
1544.78013	0.89433
1542.85156	0.88478
1540.92300	0.87307
1538.99443	0.85618
1537.06587	0.84442
1535.13730	0.83681
1533.20874	0.82662
1531.28018	0.81551
1529.35161	0.80750
1527.42305	0.79994
1525.49448	0.79202
1523.56592	0.78524
1521.63735	0.77817
1519.70879	0.77001
1517.78022	0.76328
1515.85166	0.75631
1513.92310	0.74947
1511.99453	0.74394
1510.06597	0.73921
1508.13740	0.73475
1506.20884	0.72704
1504.28027	0.72014
1502.35171	0.71638
1500.42314	0.71299
1498.49458	0.70924
1496.56602	0.70495
1494.63745	0.70080
1492.70889	0.69768
1490.78032	0.69521
1488.85176	0.69216
1486.92319	0.68862
1484.99463	0.68563
1483.06606	0.68331
1481.13750	0.68127
1479.20894	0.67937
1477.28037	0.67799
1475.35181	0.67708
1473.42324	0.67604
1471.49468	0.67365
1469.56611	0.67064
1467.63755	0.66825
1465.70898	0.66634
1463.78042	0.66453
1461.85186	0.66299
1459.92329	0.66195
1457.99473	0.66105
1456.06616	0.65888
1454.13760	0.65570
1452.20903	0.65291
1450.28047	0.65026
1448.35190	0.64759
1446.42334	0.64497
1444.49478	0.64268
1442.56621	0.64068
1440.63765	0.63888
1438.70908	0.63742
1436.78052	0.63604
1434.85195	0.63425
1432.92339	0.63243
1430.99482	0.63095
1429.06626	0.62955
1427.13770	0.62821
1425.20913	0.62723
1423.28057	0.62652
1421.35200	0.62568
1419.42344	0.62453
1417.49487	0.62316
1415.56631	0.62158
1413.63774	0.61994
1411.70918	0.61844
1409.78062	0.61720
1407.85205	0.61614
1405.92349	0.61517
1403.99492	0.61395
1402.06636	0.61238
1400.13779	0.61098
1398.20923	0.60973
1396.28066	0.60823
1394.35210	0.60614
1392.42354	0.60378
1390.49497	0.60180
1388.56641	0.60023
1386.63784	0.59855
1384.70928	0.59649
1382.78071	0.59454
1380.85215	0.59301
1378.92358	0.59182
1376.99502	0.59086
1375.06646	0.59024
1373.13789	0.58972
1371.20933	0.58906
1369.28076	0.58849
1367.35220	0.58783
1365.42363	0.58683
1363.49507	0.58571
1361.56650	0.58448
1359.63794	0.58312
1357.70937	0.58187
1355.78081	0.58076
1353.85225	0.57966
1351.92368	0.57853
1349.99512	0.57744
1348.06655	0.57638
1346.13799	0.57527
1344.20942	0.57411
1342.28086	0.57303
1340.35229	0.57216
1338.42373	0.57137
1336.49517	0.57035
1334.56660	0.56925
1332.63804	0.56838
1330.70947	0.56780
1328.78091	0.56733
1326.85234	0.56679
1324.92378	0.56627
1322.99521	0.56588
1321.06665	0.56555
1319.13809	0.56516
1317.20952	0.56455
1315.28096	0.56384
1313.35239	0.56311
1311.42383	0.56204
1309.49526	0.56072
1307.56670	0.55956
1305.63813	0.55855
1303.70957	0.55754
1301.78101	0.55666
1299.85244	0.55578
1297.92388	0.55480
1295.99531	0.55381
1294.06675	0.55290
1292.13818	0.55206
1290.20962	0.55122
1288.28105	0.55036
1286.35249	0.54961
1284.42393	0.54907
1282.49536	0.54846
1280.56680	0.54763
1278.63823	0.54678
1276.70967	0.54594
1274.78110	0.54518
1272.85254	0.54469
1270.92397	0.54436
1268.99541	0.54398
1267.06685	0.54352
1265.13828	0.54296
1263.20972	0.54245
1261.28115	0.54215
1259.35259	0.54188
1257.42402	0.54143
1255.49546	0.54100
1253.56689	0.54074
1251.63833	0.54049
1249.70977	0.54019
1247.78120	0.53995
1245.85264	0.53973
1243.92407	0.53932
1241.99551	0.53863
1240.06694	0.53779
1238.13838	0.53696
1236.20981	0.53609
1234.28125	0.53515
1232.35269	0.53430
1230.42412	0.53350
1228.49556	0.53252
1226.56699	0.53128
1224.63843	0.53006
1222.70986	0.52907
1220.78130	0.52818
1218.85273	0.52715
1216.92417	0.52608
1214.99561	0.52516
1213.06704	0.52448
1211.13848	0.52406
1209.20991	0.52369
1207.28135	0.52316
1205.35278	0.52252
1203.42422	0.52192
1201.49565	0.52138
1199.56709	0.52081
1197.63853	0.52013
1195.70996	0.51939
1193.78140	0.51867
1191.85283	0.51792
1189.92427	0.51719
1187.99570	0.51660
1186.06714	0.51632
1184.13857	0.51631
1182.21001	0.51641
1180.28145	0.51668
1178.35288	0.51727
1176.42432	0.51805
1174.49575	0.51894
1172.56719	0.51998
1170.63862	0.52106
1168.71006	0.52210
1166.78149	0.52318
1164.85293	0.52425
1162.92437	0.52511
1160.99580	0.52574
1159.06724	0.52610
1157.13867	0.52606
1155.21011	0.52565
1153.28154	0.52476
1151.35298	0.52330
1149.42441	0.52136
1147.49585	0.51898
1145.56729	0.51622
1143.63872	0.51331
1141.71016	0.51060
1139.78159	0.50829
1137.85303	0.50651
1135.92446	0.50530
1133.99590	0.50457
1132.06733	0.50403
1130.13877	0.50342
1128.21021	0.50285
1126.28164	0.50243
1124.35308	0.50200
1122.42451	0.50142
1120.49595	0.50099
1118.56738	0.50114
1116.63882	0.50185
1114.71025	0.50264
1112.78169	0.50322
1110.85312	0.50386
1108.92456	0.50482
1106.99600	0.50588
1105.06743	0.50678
1103.13887	0.50762
1101.21030	0.50861
1099.28174	0.50977
1097.35317	0.51147
1095.42461	0.51416
1093.49604	0.51784
1091.56748	0.52267
1089.63892	0.52912
1087.71035	0.53712
1085.78179	0.54598
1083.85322	0.55498
1081.92466	0.56319
1079.99609	0.56933
1078.06753	0.57223
1076.13896	0.57159
1074.21040	0.56816
1072.28184	0.56293
1070.35327	0.55629
1068.42471	0.54896
1066.49614	0.54205
1064.56758	0.53604
1062.63901	0.53081
1060.71045	0.52624
1058.78188	0.52221
1056.85332	0.51871
1054.92476	0.51563
1052.99619	0.51286
1051.06763	0.51078
1049.13906	0.50975
1047.21050	0.50957
1045.28193	0.50986
1043.35337	0.51039
1041.42480	0.51105
1039.49624	0.51181
1037.56768	0.51256
1035.63911	0.51290
1033.71055	0.51242
1031.78198	0.51124
1029.85342	0.50970
1027.92485	0.50796
1025.99629	0.50616
1024.06772	0.50455
1022.13916	0.50340
1020.21060	0.50293
1018.28203	0.50285
1016.35347	0.50253
1014.42490	0.50194
1012.49634	0.50138
1010.56777	0.50098
1008.63921	0.50093
1006.71064	0.50123
1004.78208	0.50185
1002.85352	0.50309
1000.92495	0.50541
998.99639	0.50896
997.06782	0.51323
995.13926	0.51759
993.21069	0.52154
991.28213	0.52455
989.35356	0.52622
987.42500	0.52668
985.49644	0.52645
983.56787	0.52607
981.63931	0.52614
979.71074	0.52708
977.78218	0.52865
975.85361	0.53052
973.92505	0.53294
971.99648	0.53592
970.06792	0.53913
968.13936	0.54265
966.21079	0.54667
964.28223	0.55093
962.35366	0.55537
960.42510	0.56038
958.49653	0.56603
956.56797	0.57190
954.63940	0.57771
952.71084	0.58364
950.78228	0.58998
948.85371	0.59650
946.92515	0.60264
944.99658	0.60840
943.06802	0.61421
941.13945	0.62017
939.21089	0.62595
937.28232	0.63155
935.35376	0.63724
933.42520	0.64259
931.49663	0.64755
929.56807	0.65303
927.63950	0.65930
925.71094	0.66602
923.78237	0.67273
921.85381	0.67935
919.92524	0.68608
917.99668	0.69278
916.06812	0.69961
914.13955	0.70702
912.21099	0.71504
910.28242	0.72324
908.35386	0.73122
906.42529	0.73960
904.49673	0.74879
902.56816	0.75776
900.63960	0.76608
898.71104	0.77471
896.78247	0.78464
894.85391	0.79580
892.92534	0.80663
890.99678	0.81591
889.06821	0.82480
887.13965	0.83501
885.21108	0.84695
883.28252	0.85966
881.35396	0.87057
879.42539	0.87966
877.49683	0.88983
875.56826	0.90162
873.63970	0.91375
871.71113	0.92490
869.78257	0.93487
867.85400	0.94624
865.92544	0.95951
863.99687	0.97208
862.06831	0.98371
860.13975	0.99553
858.21118	1.00756
856.28262	1.01886
854.35405	1.02918
852.42549	1.03984
850.49692	1.05157
848.56836	1.06350
846.63979	1.07457
844.71123	1.08558
842.78267	1.09737
840.85410	1.10845
838.92554	1.11804
836.99697	1.12910
835.06841	1.14353
833.13984	1.15795
831.21128	1.16688
829.28271	1.16989
827.35415	1.17543
825.42559	1.19035
823.49702	1.20969
821.56846	1.22219
819.63989	1.22974
817.71133	1.24164
815.78276	1.25276
813.85420	1.25465
811.92563	1.25436
809.99707	1.26589
808.06851	1.28268
806.13994	1.28807
804.21138	1.28860
802.28281	1.30040
800.35425	1.32110
798.42568	1.33616
796.49712	1.35185
794.56855	1.35924
792.63999	1.33002
790.71143	1.29834
788.78286	1.29393
786.85430	1.29916
784.92573	1.31012
782.99717	1.31687
781.06860	1.31243
779.14004	1.32349
777.21147	1.33078
775.28291	1.29318
773.35435	1.24306
771.42578	1.21247
769.49722	1.20245
767.56865	1.21765
765.64009	1.22533
763.71152	1.21068
761.78296	1.20277
759.85439	1.19648
757.92583	1.20276
755.99727	1.22392
754.06870	1.28060
752.14014	1.38320
750.21157	1.36447
748.28301	1.22899
746.35444	1.11502
744.42588	1.05757
742.49731	1.03752
740.56875	0.97286
738.64019	0.90430
736.71162	0.85631
734.78306	0.81771
732.85449	0.83423
730.92593	0.85656
728.99736	0.73508
727.06880	0.51729
725.14023	0.34636
723.21167	0.25722
721.28311	0.19710
719.35454	0.13227
717.42598	0.09336
715.49741	0.01516
713.56885	-0.13570
711.64028	-0.23466
709.71172	-0.13270
707.78315	0.06122
705.85459	0.05439
703.92603	0.04498
701.99746	0.06885
700.06890	0.12126
698.14033	0.13785
696.21177	0.15145
694.28320	0.23605
692.35464	0.23846
690.42607	0.11633
688.49751	0.01359
686.56895	-0.01876
684.64038	0.08214
682.71182	0.25453
680.78325	0.41360
678.85469	0.61439
676.92612	0.61507
674.99756	0.42049
673.06899	0.33561
671.14043	0.33849
669.21187	0.26078
667.28330	0.12747
665.35474	0.04572
663.42617	0.05009
661.49761	0.08910
659.56904	0.03912
657.64048	-0.06663
655.71191	-0.13589
653.78335	-0.10727
651.85479	0.01284
649.92622	0.16278
647.99766	0.21982
646.06909	0.17936
644.14053	0.18397
642.21196	0.19446
640.28340	0.16564
638.35483	0.20128
636.42627	0.37644
634.49771	0.79526
632.56914	0.59183
630.64058	0.27159
628.71201	0.18474
626.78345	0.18994
624.85488	0.17921
622.92632	0.10476
620.99775	0.02609
619.06919	0.06554
617.14062	0.24102
615.21206	0.34506
613.28350	0.26695
611.35493	0.15078
609.42637	0.09277
607.49780	0.10266
605.56924	0.12597
603.64067	0.11617
601.71211	0.11304
599.78354	0.13058
597.85498	0.15451
595.92642	0.18552
593.99785	0.19123
592.06929	0.16829
590.14072	0.14350
588.21216	0.14834
586.28359	0.21853
584.35503	0.31043
582.42646	0.34240
580.49790	0.28480
578.56934	0.20529
576.64077	0.18310
574.71221	0.23373
572.78364	0.21733
570.85508	0.14562
568.92651	0.14678
566.99795	0.21190
565.06938	0.25710
563.14082	0.26230
561.21226	0.21473
559.28369	0.09761
557.35513	0.00479
555.42656	0.04637
553.49800	0.22344
551.56943	0.27301
549.64087	0.24297
547.71230	0.24483
545.78374	0.20733
543.85518	0.14236
541.92661	0.13187
539.99805	0.17338
538.06948	0.18944
536.14092	0.16505
534.21235	0.15447
532.28379	0.15710
530.35522	0.12482
528.42666	0.07231
526.49810	0.06338
524.56953	0.13563
522.64097	0.20506
520.71240	0.21121
518.78384	0.23048
516.85527	0.25762
514.92671	0.25041
512.99814	0.24130
511.06958	0.23916
509.14102	0.23025
507.21245	0.18256
505.28389	0.12064
503.35532	0.09741
501.42676	0.11203
499.49819	0.13534
