3997.91411	0.07012
3995.98555	0.07037
3994.05698	0.07062
3992.12842	0.07076
3990.19985	0.07094
3988.27129	0.07138
3986.34272	0.07191
3984.41416	0.07238
3982.48560	0.07249
3980.55703	0.07224
3978.62847	0.07227
3976.69990	0.07271
3974.77134	0.07312
3972.84277	0.07345
3970.91421	0.07367
3968.98564	0.07364
3967.05708	0.07349
3965.12852	0.07342
3963.19995	0.07334
3961.27139	0.07331
3959.34282	0.07350
3957.41426	0.07358
3955.48569	0.07350
3953.55713	0.07354
3951.62856	0.07369
3949.70000	0.07371
3947.77144	0.07385
3945.84287	0.07412
3943.91431	0.07407
3941.98574	0.07403
3940.05718	0.07430
3938.12861	0.07451
3936.20005	0.07446
3934.27148	0.07426
3932.34292	0.07423
3930.41436	0.07433
3928.48579	0.07426
3926.55723	0.07412
3924.62866	0.07398
3922.70010	0.07374
3920.77153	0.07338
3918.84297	0.07327
3916.91440	0.07376
3914.98584	0.07432
3913.05728	0.07432
3911.12871	0.07396
3909.20015	0.07341
3907.27158	0.07289
3905.34302	0.07293
3903.41445	0.07377
3901.48589	0.07450
3899.55732	0.07445
3897.62876	0.07421
3895.70020	0.07395
3893.77163	0.07377
3891.84307	0.07376
3889.91450	0.07356
3887.98594	0.07307
3886.05737	0.07294
3884.12881	0.07322
3882.20024	0.07331
3880.27168	0.07352
3878.34312	0.07430
3876.41455	0.07477
3874.48599	0.07461
3872.55742	0.07439
3870.62886	0.07440
3868.70029	0.07450
3866.77173	0.07451
3864.84316	0.07483
3862.91460	0.07559
3860.98604	0.07617
3859.05747	0.07625
3857.12891	0.07622
3855.20034	0.07674
3853.27178	0.07835
3851.34321	0.07975
3849.41465	0.07972
3847.48608	0.07971
3845.55752	0.08001
3843.62896	0.08017
3841.70039	0.08011
3839.77183	0.08055
3837.84326	0.08197
3835.91470	0.08327
3833.98613	0.08361
3832.05757	0.08397
3830.12900	0.08463
3828.20044	0.08498
3826.27187	0.08534
3824.34331	0.08592
3822.41475	0.08650
3820.48618	0.08798
3818.55762	0.08977
3816.62905	0.09038
3814.70049	0.09098
3812.77192	0.09197
3810.84336	0.09274
3808.91479	0.09331
3806.98623	0.09433
3805.05767	0.09590
3803.12910	0.09677
3801.20054	0.09755
3799.27197	0.09946
3797.34341	0.10121
3795.41484	0.10251
3793.48628	0.10340
3791.55771	0.10405
3789.62915	0.10516
3787.70059	0.10670
3785.77202	0.10836
3783.84346	0.11011
3781.91489	0.11174
3779.98633	0.11327
3778.05776	0.11498
3776.12920	0.11640
3774.20063	0.11751
3772.27207	0.11873
3770.34351	0.12032
3768.41494	0.12224
3766.48638	0.12404
3764.55781	0.12616
3762.62925	0.12859
3760.70068	0.13094
3758.77212	0.13371
3756.84355	0.13653
3754.91499	0.13841
3752.98643	0.13987
3751.05786	0.14226
3749.12930	0.14611
3747.20073	0.14910
3745.27217	0.15114
3743.34360	0.15444
3741.41504	0.15837
3739.48647	0.16104
3737.55791	0.16313
3735.62935	0.16646
3733.70078	0.17279
3731.77222	0.17978
3729.84365	0.18500
3727.91509	0.18932
3725.98652	0.19438
3724.05796	0.20050
3722.12939	0.20718
3720.20083	0.21472
3718.27227	0.22258
3716.34370	0.23016
3714.41514	0.23737
3712.48657	0.24560
3710.55801	0.25801
3708.62944	0.27338
3706.70088	0.28656
3704.77231	0.29829
3702.84375	0.31142
3700.91519	0.32846
3698.98662	0.34712
3697.05806	0.36461
3695.12949	0.38313
3693.20093	0.40291
3691.27236	0.42433
3689.34380	0.45276
3687.41523	0.48901
3685.48667	0.52046
3683.55811	0.54681
3681.62954	0.57483
3679.70098	0.60642
3677.77241	0.63938
3675.84385	0.67805
3673.91528	0.73152
3671.98672	0.77498
3670.05815	0.81335
3668.12959	0.86876
3666.20103	0.91966
3664.27246	0.96094
3662.34390	1.00461
3660.41533	1.05190
3658.48677	1.09823
3656.55820	1.14716
3654.62964	1.20263
3652.70107	1.24903
3650.77251	1.28775
3648.84395	1.34288
3646.91538	1.41549
3644.98682	1.46807
3643.05825	1.50717
3641.12969	1.54723
3639.20112	1.59124
3637.27256	1.63557
3635.34399	1.67908
3633.41543	1.72226
3631.48687	1.76179
3629.55830	1.80189
3627.62974	1.85746
3625.70117	1.91010
3623.77261	1.94425
3621.84404	1.97630
3619.91548	2.01312
3617.98691	2.05937
3616.05835	2.10482
3614.12979	2.14207
3612.20122	2.18151
3610.27266	2.22136
3608.34409	2.26133
3606.41553	2.30464
3604.48696	2.34436
3602.55840	2.37852
3600.62983	2.41529
3598.70127	2.45678
3596.77271	2.49861
3594.84414	2.54074
3592.91558	2.58299
3590.98701	2.62152
3589.05845	2.65688
3587.12988	2.70024
3585.20132	2.74939
3583.27275	2.79099
3581.34419	2.83016
3579.41562	2.87301
3577.48706	2.91736
3575.55850	2.96004
3573.62993	3.00305
3571.70137	3.04518
3569.77280	3.08476
3567.84424	3.12659
3565.91567	3.17999
3563.98711	3.23289
3562.05854	3.27446
3560.12998	3.31486
3558.20142	3.35842
3556.27285	3.40388
3554.34429	3.44928
3552.41572	3.49619
3550.48716	3.54382
3548.55859	3.59068
3546.63003	3.63664
3544.70146	3.68134
3542.77290	3.72684
3540.84434	3.77381
3538.91577	3.82008
3536.98721	3.86599
3535.05864	3.91454
3533.13008	3.96307
3531.20151	4.01019
3529.27295	4.05745
3527.34438	4.10685
3525.41582	4.15718
3523.48726	4.20730
3521.55869	4.25900
3519.63013	4.30620
3517.70156	4.35041
3515.77300	4.39901
3513.84443	4.44777
3511.91587	4.49264
3509.98730	4.54195
3508.05874	4.59834
3506.13018	4.64871
3504.20161	4.69057
3502.27305	4.73475
3500.34448	4.78035
3498.41592	4.82433
3496.48735	4.87385
3494.55879	4.92730
3492.63022	4.97668
3490.70166	5.01887
3488.77310	5.05636
3486.84453	5.10073
3484.91597	5.15596
3482.98740	5.20993
3481.05884	5.26029
3479.13027	5.31011
3477.20171	5.35524
3475.27314	5.39816
3473.34458	5.44538
3471.41602	5.49323
3469.48745	5.54142
3467.55889	5.59914
3465.63032	5.65975
3463.70176	5.71264
3461.77319	5.76001
3459.84463	5.80510
3457.91606	5.84807
3455.98750	5.89176
3454.05894	5.93716
3452.13037	5.98905
3450.20181	6.04678
3448.27324	6.09526
3446.34468	6.13911
3444.41611	6.18972
3442.48755	6.24773
3440.55898	6.31042
3438.63042	6.36761
3436.70186	6.40313
3434.77329	6.42878
3432.84473	6.46904
3430.91616	6.52413
3428.98760	6.57992
3427.05903	6.61105
3425.13047	6.64124
3423.20190	6.69908
3421.27334	6.76451
3419.34478	6.82878
3417.41621	6.90022
3415.48765	6.95386
3413.55908	6.98527
3411.63052	7.04067
3409.70195	7.10433
3407.77339	7.13061
3405.84482	7.13426
3403.91626	7.16650
3401.98770	7.20642
3400.05913	7.22943
3398.13057	7.28704
3396.20200	7.37404
3394.27344	7.42665
3392.34487	7.44048
3390.41631	7.46933
3388.48774	7.49093
3386.55918	7.49665
3384.63062	7.54292
3382.70205	7.64464
3380.77349	7.70016
3378.84492	7.64204
3376.91636	7.59102
3374.98779	7.60913
3373.05923	7.66722
3371.13066	7.72019
3369.20210	7.75102
3367.27354	7.76067
3365.34497	7.77192
3363.41641	7.79038
3361.48784	7.78677
3359.55928	7.80424
3357.63071	7.86447
3355.70215	7.93848
3353.77358	7.99655
3351.84502	8.03647
3349.91646	8.05150
3347.98789	8.05080
3346.05933	8.05346
3344.13076	8.05308
3342.20220	8.03692
3340.27363	8.01699
3338.34507	8.01654
3336.41650	8.00939
3334.48794	8.02027
3332.55937	8.03591
3330.63081	8.02768
3328.70225	8.03391
3326.77368	8.10467
3324.84512	8.18732
3322.91655	8.13216
3320.98799	8.02782
3319.05942	8.01114
3317.13086	8.09338
3315.20229	8.20234
3313.27373	8.23928
3311.34517	8.21661
3309.41660	8.20205
3307.48804	8.13934
3305.55947	8.02577
3303.63091	8.02765
3301.70234	8.09955
3299.77378	8.09479
3297.84521	8.08451
3295.91665	8.14587
3293.98809	8.20565
3292.05952	8.18878
3290.13096	8.07423
3288.20239	7.95216
3286.27383	7.98018
3284.34526	8.13844
3282.41670	8.24651
3280.48813	8.22366
3278.55957	8.20856
3276.63101	8.19985
3274.70244	8.11351
3272.77388	8.03614
3270.84531	8.01757
3268.91675	8.09212
3266.98818	8.23209
3265.05962	8.27237
3263.13105	8.20021
3261.20249	8.17390
3259.27393	8.21168
3257.34536	8.24184
3255.41680	8.27886
3253.48823	8.31574
3251.55967	8.28083
3249.63110	8.17154
3247.70254	8.07775
3245.77397	8.11421
3243.84541	8.23055
3241.91685	8.25121
3239.98828	8.21976
3238.05972	8.19625
3236.13115	8.16447
3234.20259	8.14620
3232.27402	8.13136
3230.34546	8.10144
3228.41689	8.01335
3226.48833	7.91576
3224.55977	7.92829
3222.63120	8.03575
3220.70264	8.10848
3218.77407	8.09618
3216.84551	8.04840
3214.91694	7.98898
3212.98838	7.95558
3211.05981	7.99472
3209.13125	8.02278
3207.20269	7.94661
3205.27412	7.84999
3203.34556	7.81354
3201.41699	7.82355
3199.48843	7.79914
3197.55986	7.72965
3195.63130	7.69950
3193.70273	7.68579
3191.77417	7.61084
3189.84561	7.51469
3187.91704	7.47697
3185.98848	7.47641
3184.05991	7.44680
3182.13135	7.39668
3180.20278	7.35106
3178.27422	7.29318
3176.34565	7.23007
3174.41709	7.16884
3172.48853	7.09546
3170.55996	7.03873
3168.63140	6.99821
3166.70283	6.92784
3164.77427	6.84723
3162.84570	6.78494
3160.91714	6.73144
3158.98857	6.67857
3157.06001	6.61671
3155.13145	6.54960
3153.20288	6.47456
3151.27432	6.39405
3149.34575	6.32757
3147.41719	6.26862
3145.48862	6.20910
3143.56006	6.15038
3141.63149	6.08338
3139.70293	6.00908
3137.77437	5.93698
3135.84580	5.86814
3133.91724	5.80265
3131.98867	5.74402
3130.06011	5.68798
3128.13154	5.61567
3126.20298	5.52919
3124.27441	5.45161
3122.34585	5.38498
3120.41729	5.31954
3118.48872	5.24859
3116.56016	5.17456
3114.63159	5.10729
3112.70303	5.04480
3110.77446	4.97500
3108.84590	4.89700
3106.91733	4.82048
3104.98877	4.75007
3103.06021	4.68545
3101.13164	4.62316
3099.20308	4.55980
3097.27451	4.49580
3095.34595	4.43362
3093.41738	4.37277
3091.48882	4.31034
3089.56025	4.24677
3087.63169	4.18242
3085.70312	4.11737
3083.77456	4.05335
3081.84600	3.99171
3079.91743	3.93181
3077.98887	3.87210
3076.06030	3.81152
3074.13174	3.75035
3072.20317	3.69091
3070.27461	3.63527
3068.34604	3.58154
3066.41748	3.52559
3064.48892	3.46949
3062.56035	3.41660
3060.63179	3.36306
3058.70322	3.30618
3056.77466	3.24896
3054.84609	3.19545
3052.91753	3.14619
3050.98896	3.09762
3049.06040	3.04741
3047.13184	2.99704
3045.20327	2.94743
3043.27471	2.89794
3041.34614	2.84887
3039.41758	2.80122
3037.48901	2.75503
3035.56045	2.70864
3033.63188	2.66229
3031.70332	2.61765
3029.77476	2.57400
3027.84619	2.53068
3025.91763	2.48798
3023.98906	2.44539
3022.06050	2.40285
3020.13193	2.36064
3018.20337	2.31891
3016.27480	2.27781
3014.34624	2.23777
3012.41768	2.19939
3010.48911	2.16236
3008.56055	2.12581
3006.63198	2.08940
3004.70342	2.05366
3002.77485	2.01861
3000.84629	1.98365
2998.91772	1.94894
2996.98916	1.91504
2995.06060	1.88228
2993.13203	1.85039
2991.20347	1.81922
2989.27490	1.78879
2987.34634	1.75872
2985.41777	1.72914
2983.48921	1.70038
2981.56064	1.67215
2979.63208	1.64422
2977.70352	1.61698
2975.77495	1.59084
2973.84639	1.56522
2971.91782	1.53947
2969.98926	1.51383
2968.06069	1.48880
2966.13213	1.46445
2964.20356	1.44032
2962.27500	1.41572
2960.34644	1.39105
2958.41787	1.36713
2956.48931	1.34339
2954.56074	1.31911
2952.63218	1.29481
2950.70361	1.27114
2948.77505	1.24804
2946.84648	1.22499
2944.91792	1.20193
2942.98936	1.17995
2941.06079	1.15954
2939.13223	1.13934
2937.20366	1.11872
2935.27510	1.09849
2933.34653	1.07862
2931.41797	1.05860
2929.48940	1.03915
2927.56084	1.02076
2925.63228	1.00247
2923.70371	0.98401
2921.77515	0.96594
2919.84658	0.94825
2917.91802	0.93108
2915.98945	0.91480
2914.06089	0.89871
2912.13232	0.88212
2910.20376	0.86563
2908.27520	0.84996
2906.34663	0.83521
2904.41807	0.82108
2902.48950	0.80721
2900.56094	0.79334
2898.63237	0.77944
2896.70381	0.76601
2894.77524	0.75329
2892.84668	0.74097
2890.91812	0.72898
2888.98955	0.71746
2887.06099	0.70626
2885.13242	0.69511
2883.20386	0.68418
2881.27529	0.67386
2879.34673	0.66424
2877.41816	0.65506
2875.48960	0.64571
2873.56104	0.63548
2871.63247	0.62438
2869.70391	0.61314
2867.77534	0.60189
2865.84678	0.59021
2863.91821	0.57855
2861.98965	0.56762
2860.06108	0.55710
2858.13252	0.54688
2856.20396	0.53731
2854.27539	0.52796
2852.34683	0.51854
2850.41826	0.50974
2848.48970	0.50155
2846.56113	0.49353
2844.63257	0.48593
2842.70400	0.47905
2840.77544	0.47280
2838.84687	0.46678
2836.91831	0.46074
2834.98975	0.45493
2833.06118	0.44928
2831.13262	0.44336
2829.20405	0.43720
2827.27549	0.43115
2825.34692	0.42527
2823.41836	0.41926
2821.48979	0.41310
2819.56123	0.40707
2817.63267	0.40123
2815.70410	0.39552
2813.77554	0.38995
2811.84697	0.38443
2809.91841	0.37891
2807.98984	0.37359
2806.06128	0.36852
2804.13271	0.36347
2802.20415	0.35838
2800.27559	0.35339
2798.34702	0.34850
2796.41846	0.34359
2794.48989	0.33881
2792.56133	0.33426
2790.63276	0.32970
2788.70420	0.32507
2786.77563	0.32058
2784.84707	0.31617
2782.91851	0.31180
2780.98994	0.30769
2779.06138	0.30378
2777.13281	0.29980
2775.20425	0.29574
2773.27568	0.29192
2771.34712	0.28830
2769.41855	0.28455
2767.48999	0.28076
2765.56143	0.27715
2763.63286	0.27373
2761.70430	0.27039
2759.77573	0.26714
2757.84717	0.26400
2755.91860	0.26083
2753.99004	0.25764
2752.06147	0.25459
2750.13291	0.25160
2748.20435	0.24862
2746.27578	0.24569
2744.34722	0.24293
2742.41865	0.24036
2740.49009	0.23766
2738.56152	0.23467
2736.63296	0.23189
2734.70439	0.22970
2732.77583	0.22762
2730.84727	0.22525
2728.91870	0.22283
2726.99014	0.22041
2725.06157	0.21801
2723.13301	0.21584
2721.20444	0.21386
2719.27588	0.21192
2717.34731	0.20998
2715.41875	0.20793
2713.49019	0.20583
2711.56162	0.20397
2709.63306	0.20225
2707.70449	0.20044
2705.77593	0.19863
2703.84736	0.19700
2701.91880	0.19543
2699.99023	0.19387
2698.06167	0.19238
2696.13311	0.19094
2694.20454	0.18958
2692.27598	0.18831
2690.34741	0.18697
2688.41885	0.18565
2686.49028	0.18442
2684.56172	0.18331
2682.63315	0.18239
2680.70459	0.18142
2678.77603	0.18009
2676.84746	0.17856
2674.91890	0.17720
2672.99033	0.17615
2671.06177	0.17528
2669.13320	0.17448
2667.20464	0.17353
2665.27607	0.17233
2663.34751	0.17123
2661.41895	0.17044
2659.49038	0.16972
2657.56182	0.16890
2655.63325	0.16803
2653.70469	0.16731
2651.77612	0.16672
2649.84756	0.16598
2647.91899	0.16518
2645.99043	0.16466
2644.06187	0.16432
2642.13330	0.16394
2640.20474	0.16345
2638.27617	0.16291
2636.34761	0.16232
2634.41904	0.16167
2632.49048	0.16119
2630.56191	0.16094
2628.63335	0.16059
2626.70479	0.16006
2624.77622	0.15959
2622.84766	0.15929
2620.91909	0.15913
2618.99053	0.15902
2617.06196	0.15876
2615.13340	0.15847
2613.20483	0.15832
2611.27627	0.15823
2609.34771	0.15816
2607.41914	0.15805
2605.49058	0.15797
2603.56201	0.15797
2601.63345	0.15791
2599.70488	0.15787
2597.77632	0.15802
2595.84775	0.15817
2593.91919	0.15817
2591.99062	0.15816
2590.06206	0.15831
2588.13350	0.15847
2586.20493	0.15851
2584.27637	0.15858
2582.34780	0.15878
2580.41924	0.15897
2578.49067	0.15915
2576.56211	0.15940
2574.63354	0.15974
2572.70498	0.16013
2570.77642	0.16046
2568.84785	0.16078
2566.91929	0.16126
2564.99072	0.16176
2563.06216	0.16211
2561.13359	0.16244
2559.20503	0.16282
2557.27646	0.16321
2555.34790	0.16372
2553.41934	0.16434
2551.49077	0.16494
2549.56221	0.16544
2547.63364	0.16591
2545.70508	0.16643
2543.77651	0.16695
2541.84795	0.16745
2539.91938	0.16803
2537.99082	0.16875
2536.06226	0.16945
2534.13369	0.17008
2532.20513	0.17082
2530.27656	0.17163
2528.34800	0.17239
2526.41943	0.17306
2524.49087	0.17375
2522.56230	0.17449
2520.63374	0.17518
2518.70518	0.17584
2516.77661	0.17651
2514.84805	0.17727
2512.91948	0.17820
2510.99092	0.17910
2509.06235	0.17981
2507.13379	0.18049
2505.20522	0.18135
2503.27666	0.18227
2501.34810	0.18307
2499.41953	0.18378
2497.49097	0.18451
2495.56240	0.18539
2493.63384	0.18642
2491.70527	0.18745
2489.77671	0.18836
2487.84814	0.18920
2485.91958	0.19004
2483.99102	0.19086
2482.06245	0.19167
2480.13389	0.19244
2478.20532	0.19319
2476.27676	0.19409
2474.34819	0.19508
2472.41963	0.19595
2470.49106	0.19669
2468.56250	0.19748
2466.63394	0.19841
2464.70537	0.19946
2462.77681	0.20048
2460.84824	0.20145
2458.91968	0.20235
2456.99111	0.20322
2455.06255	0.20418
2453.13398	0.20524
2451.20542	0.20626
2449.27686	0.20726
2447.34829	0.20831
2445.41973	0.20931
2443.49116	0.21017
2441.56260	0.21108
2439.63403	0.21217
2437.70547	0.21326
2435.77690	0.21418
2433.84834	0.21506
2431.91978	0.21608
2429.99121	0.21722
2428.06265	0.21843
2426.13408	0.21968
2424.20552	0.22081
2422.27695	0.22180
2420.34839	0.22275
2418.41982	0.22384
2416.49126	0.22512
2414.56270	0.22637
2412.63413	0.22744
2410.70557	0.22840
2408.77700	0.22952
2406.84844	0.23080
2404.91987	0.23203
2402.99131	0.23321
2401.06274	0.23445
2399.13418	0.23576
2397.20562	0.23708
2395.27705	0.23832
2393.34849	0.23944
2391.41992	0.24068
2389.49136	0.24208
2387.56279	0.24335
2385.63423	0.24436
2383.70566	0.24531
2381.77710	0.24641
2379.84854	0.24776
2377.91997	0.24925
2375.99141	0.25049
2374.06284	0.25124
2372.13428	0.25207
2370.20571	0.25377
2368.27715	0.25595
2366.34858	0.25728
2364.42002	0.25710
2362.49146	0.25686
2360.56289	0.25834
2358.63433	0.26015
2356.70576	0.26124
2354.77720	0.26358
2352.84863	0.26766
2350.92007	0.27064
2348.99150	0.27149
2347.06294	0.27161
2345.13437	0.27226
2343.20581	0.27396
2341.27725	0.27625
2339.34868	0.27847
2337.42012	0.28013
2335.49155	0.28132
2333.56299	0.28245
2331.63442	0.28399
2329.70586	0.28628
2327.77729	0.28869
2325.84873	0.29037
2323.92017	0.29171
2321.99160	0.29347
2320.06304	0.29562
2318.13447	0.29776
2316.20591	0.29966
2314.27734	0.30135
2312.34878	0.30312
2310.42021	0.30512
2308.49165	0.30704
2306.56309	0.30882
2304.63452	0.31058
2302.70596	0.31238
2300.77739	0.31423
2298.84883	0.31613
2296.92026	0.31810
2294.99170	0.32008
2293.06313	0.32197
2291.13457	0.32394
2289.20601	0.32604
2287.27744	0.32799
2285.34888	0.32984
2283.42031	0.33179
2281.49175	0.33377
2279.56318	0.33571
2277.63462	0.33769
2275.70605	0.33978
2273.77749	0.34185
2271.84893	0.34391
2269.92036	0.34603
2267.99180	0.34819
2266.06323	0.35034
2264.13467	0.35252
2262.20610	0.35472
2260.27754	0.35697
2258.34897	0.35926
2256.42041	0.36150
2254.49185	0.36368
2252.56328	0.36588
2250.63472	0.36813
2248.70615	0.37032
2246.77759	0.37240
2244.84902	0.37445
2242.92046	0.37654
2240.99189	0.37879
2239.06333	0.38114
2237.13477	0.38342
2235.20620	0.38571
2233.27764	0.38809
2231.34907	0.39038
2229.42051	0.39256
2227.49194	0.39477
2225.56338	0.39698
2223.63481	0.39917
2221.70625	0.40142
2219.77769	0.40372
2217.84912	0.40599
2215.92056	0.40823
2213.99199	0.41042
2212.06343	0.41252
2210.13486	0.41458
2208.20630	0.41666
2206.27773	0.41874
2204.34917	0.42094
2202.42061	0.42317
2200.49204	0.42520
2198.56348	0.42713
2196.63491	0.42915
2194.70635	0.43118
2192.77778	0.43309
2190.84922	0.43488
2188.92065	0.43666
2186.99209	0.43854
2185.06353	0.44050
2183.13496	0.44234
2181.20640	0.44401
2179.27783	0.44565
2177.34927	0.44724
2175.42070	0.44876
2173.49214	0.45028
2171.56357	0.45179
2169.63501	0.45325
2167.70645	0.45452
2165.77788	0.45563
2163.84932	0.45680
2161.92075	0.45812
2159.99219	0.45942
2158.06362	0.46046
2156.13506	0.46131
2154.20649	0.46212
2152.27793	0.46298
2150.34937	0.46379
2148.42080	0.46446
2146.49224	0.46506
2144.56367	0.46558
2142.63511	0.46602
2140.70654	0.46637
2138.77798	0.46666
2136.84941	0.46685
2134.92085	0.46693
2132.99229	0.46701
2131.06372	0.46709
2129.13516	0.46700
2127.20659	0.46677
2125.27803	0.46641
2123.34946	0.46582
2121.42090	0.46528
2119.49233	0.46490
2117.56377	0.46445
2115.63521	0.46377
2113.70664	0.46290
2111.77808	0.46190
2109.84951	0.46095
2107.92095	0.46010
2105.99238	0.45904
2104.06382	0.45768
2102.13525	0.45622
2100.20669	0.45484
2098.27812	0.45346
2096.34956	0.45203
2094.42100	0.45051
2092.49243	0.44884
2090.56387	0.44711
2088.63530	0.44546
2086.70674	0.44380
2084.77817	0.44195
2082.84961	0.43996
2080.92104	0.43784
2078.99248	0.43574
2077.06392	0.43369
2075.13535	0.43165
2073.20679	0.42958
2071.27822	0.42740
2069.34966	0.42503
2067.42109	0.42254
2065.49253	0.42015
2063.56396	0.41781
2061.63540	0.41536
2059.70684	0.41291
2057.77827	0.41044
2055.84971	0.40785
2053.92114	0.40525
2051.99258	0.40266
2050.06401	0.40001
2048.13545	0.39736
2046.20688	0.39471
2044.27832	0.39199
2042.34976	0.38921
2040.42119	0.38633
2038.49263	0.38343
2036.56406	0.38067
2034.63550	0.37800
2032.70693	0.37524
2030.77837	0.37239
2028.84980	0.36954
2026.92124	0.36673
2024.99268	0.36396
2023.06411	0.36121
2021.13555	0.35841
2019.20698	0.35562
2017.27842	0.35281
2015.34985	0.34993
2013.42129	0.34701
2011.49272	0.34420
2009.56416	0.34155
2007.63560	0.33895
2005.70703	0.33625
2003.77847	0.33348
2001.84990	0.33074
1999.92134	0.32805
1997.99277	0.32534
1996.06421	0.32269
1994.13564	0.32014
1992.20708	0.31761
1990.27852	0.31507
1988.34995	0.31256
1986.42139	0.31011
1984.49282	0.30773
1982.56426	0.30531
1980.63569	0.30286
1978.70713	0.30050
1976.77856	0.29824
1974.85000	0.29595
1972.92144	0.29363
1970.99287	0.29144
1969.06431	0.28938
1967.13574	0.28727
1965.20718	0.28515
1963.27861	0.28319
1961.35005	0.28129
1959.42148	0.27937
1957.49292	0.27746
1955.56436	0.27557
1953.63579	0.27381
1951.70723	0.27214
1949.77866	0.27039
1947.85010	0.26864
1945.92153	0.26706
1943.99297	0.26554
1942.06440	0.26398
1940.13584	0.26241
1938.20728	0.26089
1936.27871	0.25948
1934.35015	0.25820
1932.42158	0.25700
1930.49302	0.25579
1928.56445	0.25463
1926.63589	0.25346
1924.70732	0.25233
1922.77876	0.25130
1920.85020	0.25033
1918.92163	0.24939
1916.99307	0.24852
1915.06450	0.24767
1913.13594	0.24680
1911.20737	0.24600
1909.27881	0.24527
1907.35024	0.24456
1905.42168	0.24380
1903.49312	0.24313
1901.56455	0.24260
1899.63599	0.24209
1897.70742	0.24165
1895.77886	0.24125
1893.85029	0.24094
1891.92173	0.24062
1889.99316	0.24032
1888.06460	0.24000
1886.13604	0.23968
1884.20747	0.23943
1882.27891	0.23920
1880.35034	0.23905
1878.42178	0.23901
1876.49321	0.23898
1874.56465	0.23891
1872.63608	0.23894
1870.70752	0.23904
1868.77896	0.23933
1866.85039	0.23966
1864.92183	0.23974
1862.99326	0.23980
1861.06470	0.24000
1859.13613	0.24033
1857.20757	0.24069
1855.27900	0.24113
1853.35044	0.24160
1851.42187	0.24213
1849.49331	0.24270
1847.56475	0.24330
1845.63618	0.24400
1843.70762	0.24497
1841.77905	0.24593
1839.85049	0.24651
1837.92192	0.24715
1835.99336	0.24793
1834.06479	0.24882
1832.13623	0.24975
1830.20767	0.25101
1828.27910	0.25253
1826.35054	0.25374
1824.42197	0.25505
1822.49341	0.25638
1820.56484	0.25763
1818.63628	0.25900
1816.70771	0.26068
1814.77915	0.26233
1812.85059	0.26389
1810.92202	0.26570
1808.99346	0.26774
1807.06489	0.26978
1805.13633	0.27176
1803.20776	0.27394
1801.27920	0.27638
1799.35063	0.27918
1797.42207	0.28174
1795.49351	0.28408
1793.56494	0.28674
1791.63638	0.29039
1789.70781	0.29414
1787.77925	0.29687
1785.85068	0.29983
1783.92212	0.30340
1781.99355	0.30732
1780.06499	0.31155
1778.13643	0.31591
1776.20786	0.31985
1774.27930	0.32386
1772.35073	0.32945
1770.42217	0.33601
1768.49360	0.34169
1766.56504	0.34706
1764.63647	0.35232
1762.70791	0.35796
1760.77935	0.36545
1758.85078	0.37267
1756.92222	0.37978
1754.99365	0.38755
1753.06509	0.39438
1751.13652	0.40217
1749.20796	0.41240
1747.27939	0.42303
1745.35083	0.43239
1743.42227	0.44216
1741.49370	0.45289
1739.56514	0.46546
1737.63657	0.47777
1735.70801	0.48808
1733.77944	0.50420
1731.85088	0.52461
1729.92231	0.54060
1727.99375	0.55645
1726.06519	0.57327
1724.13662	0.59171
1722.20806	0.61179
1720.27949	0.62988
1718.35093	0.65059
1716.42236	0.68296
1714.49380	0.71485
1712.56523	0.74007
1710.63667	0.76396
1708.70811	0.78925
1706.77954	0.81801
1704.85098	0.85327
1702.92241	0.88482
1700.99385	0.91502
1699.06528	0.96117
1697.13672	1.00511
1695.20815	1.05080
1693.27959	1.09430
1691.35103	1.12831
1689.42246	1.16791
1687.49390	1.21001
1685.56533	1.24945
1683.63677	1.31274
1681.70820	1.38182
1679.77964	1.42492
1677.85107	1.46496
1675.92251	1.51066
1673.99395	1.56823
1672.06538	1.61971
1670.13682	1.67114
1668.20825	1.74005
1666.27969	1.79346
1664.35112	1.83734
1662.42256	1.89599
1660.49399	1.96671
1658.56543	2.02109
1656.63687	2.06310
1654.70830	2.10053
1652.77974	2.16255
1650.85117	2.22183
1648.92261	2.23835
1646.99404	2.26166
1645.06548	2.29090
1643.13691	2.31182
1641.20835	2.32270
1639.27979	2.33180
1637.35122	2.33690
1635.42266	2.33358
1633.49409	2.32132
1631.56553	2.30574
1629.63696	2.28847
1627.70840	2.25946
1625.77983	2.22729
1623.85127	2.18744
1621.92271	2.13711
1619.99414	2.09117
1618.06558	2.04502
1616.13701	1.97812
1614.20845	1.91194
1612.27988	1.86371
1610.35132	1.81307
1608.42275	1.75643
1606.49419	1.69964
1604.56562	1.64820
1602.63706	1.59900
1600.70850	1.55105
1598.77993	1.50709
1596.85137	1.46550
1594.92280	1.42483
1592.99424	1.38556
1591.06567	1.35000
1589.13711	1.31727
1587.20854	1.28711
1585.27998	1.25909
1583.35142	1.23288
1581.42285	1.20926
1579.49429	1.18936
1577.56572	1.17148
1575.63716	1.14989
1573.70859	1.13191
1571.78003	1.12081
1569.85146	1.10951
1567.92290	1.09767
1565.99434	1.08963
1564.06577	1.08379
1562.13721	1.07910
1560.20864	1.07629
1558.28008	1.07642
1556.35151	1.07873
1554.42295	1.07981
1552.49438	1.08062
1550.56582	1.07987
1548.63726	1.07661
1546.70869	1.07116
1544.78013	1.06279
1542.85156	1.05072
1540.92300	1.03256
1538.99443	1.00457
1537.06587	0.98505
1535.13730	0.97159
1533.20874	0.95279
1531.28018	0.93305
1529.35161	0.91914
1527.42305	0.90553
1525.49448	0.89110
1523.56592	0.87880
1521.63735	0.86692
1519.70879	0.85542
1517.78022	0.84632
1515.85166	0.83545
1513.92310	0.82404
1511.99453	0.81414
1510.06597	0.80491
1508.13740	0.79544
1506.20884	0.78078
1504.28027	0.76949
1502.35171	0.76336
1500.42314	0.75753
1498.49458	0.75100
1496.56602	0.74323
1494.63745	0.73580
1492.70889	0.73008
1490.78032	0.72466
1488.85176	0.71857
1486.92319	0.71355
1484.99463	0.70972
1483.06606	0.70641
1481.13750	0.70338
1479.20894	0.70090
1477.28037	0.69928
1475.35181	0.69820
1473.42324	0.69747
1471.49468	0.69662
1469.56611	0.69499
1467.63755	0.69263
1465.70898	0.69017
1463.78042	0.68847
1461.85186	0.68774
1459.92329	0.68726
1457.99473	0.68660
1456.06616	0.68561
1454.13760	0.68411
1452.20903	0.68213
1450.28047	0.67967
1448.35190	0.67702
1446.42334	0.67452
1444.49478	0.67239
1442.56621	0.67030
1440.63765	0.66792
1438.70908	0.66527
1436.78052	0.66200
1434.85195	0.65844
1432.92339	0.65573
1430.99482	0.65391
1429.06626	0.65293
1427.13770	0.65259
1425.20913	0.65255
1423.28057	0.65274
1421.35200	0.65290
1419.42344	0.65296
1417.49487	0.65285
1415.56631	0.65222
1413.63774	0.65152
1411.70918	0.65135
1409.78062	0.65204
1407.85205	0.65322
1405.92349	0.65459
1403.99492	0.65592
1402.06636	0.65635
1400.13779	0.65572
1398.20923	0.65422
1396.28066	0.65182
1394.35210	0.64837
1392.42354	0.64439
1390.49497	0.64059
1388.56641	0.63672
1386.63784	0.63220
1384.70928	0.62742
1382.78071	0.62295
1380.85215	0.61862
1378.92358	0.61473
1376.99502	0.61171
1375.06646	0.60956
1373.13789	0.60808
1371.20933	0.60703
1369.28076	0.60610
1367.35220	0.60502
1365.42363	0.60370
1363.49507	0.60217
1361.56650	0.60054
1359.63794	0.59899
1357.70937	0.59771
1355.78081	0.59662
1353.85225	0.59566
1351.92368	0.59487
1349.99512	0.59424
1348.06655	0.59357
1346.13799	0.59278
1344.20942	0.59189
1342.28086	0.59103
1340.35229	0.59036
1338.42373	0.58987
1336.49517	0.58943
1334.56660	0.58898
1332.63804	0.58865
1330.70947	0.58863
1328.78091	0.58895
1326.85234	0.58939
1324.92378	0.58972
1322.99521	0.59012
1321.06665	0.59071
1319.13809	0.59122
1317.20952	0.59135
1315.28096	0.59118
1313.35239	0.59089
1311.42383	0.59053
1309.49526	0.59006
1307.56670	0.58944
1305.63813	0.58888
1303.70957	0.58843
1301.78101	0.58788
1299.85244	0.58721
1297.92388	0.58632
1295.99531	0.58519
1294.06675	0.58408
1292.13818	0.58290
1290.20962	0.58146
1288.28105	0.58008
1286.35249	0.57891
1284.42393	0.57779
1282.49536	0.57657
1280.56680	0.57531
1278.63823	0.57399
1276.70967	0.57265
1274.78110	0.57147
1272.85254	0.57059
1270.92397	0.56994
1268.99541	0.56931
1267.06685	0.56859
1265.13828	0.56777
1263.20972	0.56694
1261.28115	0.56625
1259.35259	0.56579
1257.42402	0.56543
1255.49546	0.56530
1253.56689	0.56542
1251.63833	0.56558
1249.70977	0.56569
1247.78120	0.56569
1245.85264	0.56549
1243.92407	0.56509
1241.99551	0.56434
1240.06694	0.56308
1238.13838	0.56142
1236.20981	0.55950
1234.28125	0.55744
1232.35269	0.55530
1230.42412	0.55323
1228.49556	0.55142
1226.56699	0.54978
1224.63843	0.54819
1222.70986	0.54670
1220.78130	0.54529
1218.85273	0.54391
1216.92417	0.54258
1214.99561	0.54140
1213.06704	0.54045
1211.13848	0.53978
1209.20991	0.53917
1207.28135	0.53845
1205.35278	0.53770
1203.42422	0.53698
1201.49565	0.53617
1199.56709	0.53518
1197.63853	0.53432
1195.70996	0.53380
1193.78140	0.53341
1191.85283	0.53293
1189.92427	0.53246
1187.99570	0.53210
1186.06714	0.53185
1184.13857	0.53180
1182.21001	0.53218
1180.28145	0.53299
1178.35288	0.53409
1176.42432	0.53533
1174.49575	0.53643
1172.56719	0.53711
1170.63862	0.53733
1168.71006	0.53720
1166.78149	0.53687
1164.85293	0.53646
1162.92437	0.53607
1160.99580	0.53558
1159.06724	0.53482
1157.13867	0.53388
1155.21011	0.53285
1153.28154	0.53147
1151.35298	0.52963
1149.42441	0.52760
1147.49585	0.52546
1145.56729	0.52307
1143.63872	0.52049
1141.71016	0.51792
1139.78159	0.51563
1137.85303	0.51371
1135.92446	0.51221
1133.99590	0.51122
1132.06733	0.51042
1130.13877	0.50939
1128.21021	0.50827
1126.28164	0.50717
1124.35308	0.50609
1122.42451	0.50529
1120.49595	0.50477
1118.56738	0.50439
1116.63882	0.50428
1114.71025	0.50441
1112.78169	0.50466
1110.85312	0.50524
1108.92456	0.50622
1106.99600	0.50733
1105.06743	0.50837
1103.13887	0.50957
1101.21030	0.51119
1099.28174	0.51334
1097.35317	0.51598
1095.42461	0.51896
1093.49604	0.52239
1091.56748	0.52649
1089.63892	0.53126
1087.71035	0.53674
1085.78179	0.54303
1083.85322	0.54970
1081.92466	0.55587
1079.99609	0.56093
1078.06753	0.56424
1076.13896	0.56496
1074.21040	0.56297
1072.28184	0.55885
1070.35327	0.55302
1068.42471	0.54604
1066.49614	0.53892
1064.56758	0.53245
1062.63901	0.52678
1060.71045	0.52182
1058.78188	0.51741
1056.85332	0.51343
1054.92476	0.50984
1052.99619	0.50656
1051.06763	0.50351
1049.13906	0.50093
1047.21050	0.49894
1045.28193	0.49728
1043.35337	0.49572
1041.42480	0.49412
1039.49624	0.49267
1037.56768	0.49182
1035.63911	0.49151
1033.71055	0.49126
1031.78198	0.49098
1029.85342	0.49081
1027.92485	0.49075
1025.99629	0.49082
1024.06772	0.49097
1022.13916	0.49117
1020.21060	0.49164
1018.28203	0.49233
1016.35347	0.49300
1014.42490	0.49369
1012.49634	0.49444
1010.56777	0.49536
1008.63921	0.49657
1006.71064	0.49806
1004.78208	0.49994
1002.85352	0.50224
1000.92495	0.50491
998.99639	0.50799
997.06782	0.51157
995.13926	0.51552
993.21069	0.51962
991.28213	0.52342
989.35356	0.52618
987.42500	0.52757
985.49644	0.52813
983.56787	0.52858
981.63931	0.52927
979.71074	0.53045
977.78218	0.53229
975.85361	0.53452
973.92505	0.53695
971.99648	0.53981
970.06792	0.54316
968.13936	0.54691
966.21079	0.55099
964.28223	0.55533
962.35366	0.56008
960.42510	0.56545
958.49653	0.57122
956.56797	0.57693
954.63940	0.58255
952.71084	0.58833
950.78228	0.59433
948.85371	0.60061
946.92515	0.60708
944.99658	0.61315
943.06802	0.61898
941.13945	0.62514
939.21089	0.63145
937.28232	0.63765
935.35376	0.64363
933.42520	0.64925
931.49663	0.65475
929.56807	0.66038
927.63950	0.66615
925.71094	0.67216
923.78237	0.67867
921.85381	0.68533
919.92524	0.69166
917.99668	0.69812
916.06812	0.70512
914.13955	0.71248
912.21099	0.71988
910.28242	0.72716
908.35386	0.73503
906.42529	0.74415
904.49673	0.75386
902.56816	0.76310
900.63960	0.77225
898.71104	0.78201
896.78247	0.79159
894.85391	0.80053
892.92534	0.80934
890.99678	0.81838
889.06821	0.82827
887.13965	0.83936
885.21108	0.85165
883.28252	0.86422
881.35396	0.87589
879.42539	0.88751
877.49683	0.89967
875.56826	0.91142
873.63970	0.92259
871.71113	0.93426
869.78257	0.94663
867.85400	0.95820
865.92544	0.96828
863.99687	0.97860
862.06831	0.99024
860.13975	1.00190
858.21118	1.01275
856.28262	1.02336
854.35405	1.03449
852.42549	1.04686
850.49692	1.06052
848.56836	1.07355
846.63979	1.08465
844.71123	1.09580
842.78267	1.10822
840.85410	1.12046
838.92554	1.13231
836.99697	1.14491
835.06841	1.15578
833.13984	1.16372
831.21128	1.17176
829.28271	1.18211
827.35415	1.19592
825.42559	1.21181
823.49702	1.22880
821.56846	1.23969
819.63989	1.24055
817.71133	1.24410
815.78276	1.25575
813.85420	1.27123
811.92563	1.28386
809.99707	1.28983
808.06851	1.30422
806.13994	1.33708
804.21138	1.37061
802.28281	1.38291
800.35425	1.36624
798.42568	1.33857
796.49712	1.31668
794.56855	1.31051
792.63999	1.33932
790.71143	1.38340
788.78286	1.41884
786.85430	1.46039
784.92573	1.49846
782.99717	1.52417
781.06860	1.51349
779.14004	1.44337
777.21147	1.36945
775.28291	1.33509
773.35435	1.34507
771.42578	1.40523
769.49722	1.46040
767.56865	1.41270
765.64009	1.33287
763.71152	1.28720
761.78296	1.27610
759.85439	1.33893
757.92583	1.53642
755.99727	1.97041
754.06870	2.47564
752.14014	1.79483
750.21157	1.42033
748.28301	1.19906
746.35444	1.10193
744.42588	1.09310
742.49731	1.17468
740.56875	1.33438
738.64019	1.23370
736.71162	1.02911
734.78306	0.91551
732.85449	0.85286
730.92593	0.86565
728.99736	0.87799
727.06880	0.68412
725.14023	0.45265
723.21167	0.30861
721.28311	0.28999
719.35454	0.35686
717.42598	0.24459
715.49741	-0.00462
713.56885	-0.10457
711.64028	0.05223
709.71172	0.20371
707.78315	0.19975
705.85459	0.13251
703.92603	0.16979
701.99746	0.29243
700.06890	0.37260
698.14033	0.38010
696.21177	0.37194
694.28320	0.35857
692.35464	0.32044
690.42607	0.29934
688.49751	0.36807
686.56895	0.50312
684.64038	0.67277
682.71182	0.56749
680.78325	0.30318
678.85469	0.21645
676.92612	0.27844
674.99756	0.39589
673.06899	0.31866
671.14043	0.18329
669.21187	0.21958
667.28330	0.36031
665.35474	0.46951
663.42617	0.45573
661.49761	0.43869
659.56904	0.33962
657.64048	0.25788
655.71191	0.29350
653.78335	0.37801
651.85479	0.43688
649.92622	0.47888
647.99766	0.39026
646.06909	0.27425
644.14053	0.25210
642.21196	0.26971
640.28340	0.21045
638.35483	0.12206
636.42627	0.13592
634.49771	0.23304
632.56914	0.30187
630.64058	0.38412
628.71201	0.45895
626.78345	0.45616
624.85488	0.53049
622.92632	0.63809
620.99775	0.44326
619.06919	0.38714
617.14062	0.44768
615.21206	0.39277
613.28350	0.32220
611.35493	0.27631
609.42637	0.24956
607.49780	0.29864
605.56924	0.47200
603.64067	0.88730
601.71211	0.52172
599.78354	0.20264
597.85498	0.07705
595.92642	0.06743
593.99785	0.12905
592.06929	0.20722
590.14072	0.23823
588.21216	0.21300
586.28359	0.19253
584.35503	0.20007
582.42646	0.21328
580.49790	0.25629
578.56934	0.29288
576.64077	0.27482
574.71221	0.24614
572.78364	0.23722
570.85508	0.24414
568.92651	0.22886
566.99795	0.21911
565.06938	0.25134
563.14082	0.27156
561.21226	0.26931
559.28369	0.28176
557.35513	0.28051
555.42656	0.25584
553.49800	0.25476
551.56943	0.29637
549.64087	0.31618
547.71230	0.25771
545.78374	0.22108
543.85518	0.25412
541.92661	0.33304
539.99805	0.36080
538.06948	0.29637
536.14092	0.30510
534.21235	0.37766
532.28379	0.34585
530.35522	0.23531
528.42666	0.21443
526.49810	0.26768
524.56953	0.28497
522.64097	0.25320
520.71240	0.23447
518.78384	0.27321
516.85527	0.28818
514.92671	0.21932
512.99814	0.17172
511.06958	0.18061
509.14102	0.18966
507.21245	0.20376
505.28389	0.25574
503.35532	0.27538
501.42676	0.21442
499.49819	0.16056
