3997.91411	0.07464
3995.98555	0.07525
3994.05698	0.07597
3992.12842	0.07651
3990.19985	0.07682
3988.27129	0.07696
3986.34272	0.07693
3984.41416	0.07701
3982.48560	0.07730
3980.55703	0.07770
3978.62847	0.07815
3976.69990	0.07856
3974.77134	0.07871
3972.84277	0.07858
3970.91421	0.07849
3968.98564	0.07861
3967.05708	0.07873
3965.12852	0.07875
3963.19995	0.07883
3961.27139	0.07898
3959.34282	0.07909
3957.41426	0.07922
3955.48569	0.07937
3953.55713	0.07942
3951.62856	0.07954
3949.70000	0.07991
3947.77144	0.08008
3945.84287	0.07964
3943.91431	0.07913
3941.98574	0.07909
3940.05718	0.07919
3938.12861	0.07915
3936.20005	0.07914
3934.27148	0.07915
3932.34292	0.07923
3930.41436	0.07966
3928.48579	0.07996
3926.55723	0.07963
3924.62866	0.07932
3922.70010	0.07927
3920.77153	0.07924
3918.84297	0.07934
3916.91440	0.07947
3914.98584	0.07931
3913.05728	0.07882
3911.12871	0.07835
3909.20015	0.07806
3907.27158	0.07811
3905.34302	0.07881
3903.41445	0.07979
3901.48589	0.07989
3899.55732	0.07901
3897.62876	0.07792
3895.70020	0.07713
3893.77163	0.07696
3891.84307	0.07768
3889.91450	0.07881
3887.98594	0.07903
3886.05737	0.07860
3884.12881	0.07855
3882.20024	0.07896
3880.27168	0.07938
3878.34312	0.07963
3876.41455	0.07935
3874.48599	0.07881
3872.55742	0.07873
3870.62886	0.07943
3868.70029	0.08059
3866.77173	0.08118
3864.84316	0.08107
3862.91460	0.08102
3860.98604	0.08105
3859.05747	0.08086
3857.12891	0.08093
3855.20034	0.08151
3853.27178	0.08248
3851.34321	0.08375
3849.41465	0.08411
3847.48608	0.08400
3845.55752	0.08419
3843.62896	0.08485
3841.70039	0.08587
3839.77183	0.08670
3837.84326	0.08720
3835.91470	0.08785
3833.98613	0.08837
3832.05757	0.08862
3830.12900	0.08906
3828.20044	0.08982
3826.27187	0.09072
3824.34331	0.09144
3822.41475	0.09196
3820.48618	0.09314
3818.55762	0.09436
3816.62905	0.09505
3814.70049	0.09609
3812.77192	0.09670
3810.84336	0.09684
3808.91479	0.09744
3806.98623	0.09877
3805.05767	0.10029
3803.12910	0.10162
3801.20054	0.10361
3799.27197	0.10558
3797.34341	0.10642
3795.41484	0.10738
3793.48628	0.10828
3791.55771	0.10886
3789.62915	0.10981
3787.70059	0.11104
3785.77202	0.11219
3783.84346	0.11355
3781.91489	0.11517
3779.98633	0.11680
3778.05776	0.11858
3776.12920	0.12020
3774.20063	0.12157
3772.27207	0.12297
3770.34351	0.12461
3768.41494	0.12669
3766.48638	0.12880
3764.55781	0.13088
3762.62925	0.13295
3760.70068	0.13507
3758.77212	0.13767
3756.84355	0.14040
3754.91499	0.14242
3752.98643	0.14414
3751.05786	0.14689
3749.12930	0.15058
3747.20073	0.15235
3745.27217	0.15365
3743.34360	0.15787
3741.41504	0.16250
3739.48647	0.16496
3737.55791	0.16727
3735.62935	0.17077
3733.70078	0.17571
3731.77222	0.18067
3729.84365	0.18444
3727.91509	0.18764
3725.98652	0.19197
3724.05796	0.19824
3722.12939	0.20584
3720.20083	0.21418
3718.27227	0.22270
3716.34370	0.23101
3714.41514	0.23873
3712.48657	0.24731
3710.55801	0.25979
3708.62944	0.27395
3706.70088	0.28578
3704.77231	0.29712
3702.84375	0.31036
3700.91519	0.32752
3698.98662	0.34625
3697.05806	0.36376
3695.12949	0.38226
3693.20093	0.40190
3691.27236	0.42312
3689.34380	0.45129
3687.41523	0.48715
3685.48667	0.51871
3683.55811	0.54572
3681.62954	0.57407
3679.70098	0.60510
3677.77241	0.63738
3675.84385	0.67650
3673.91528	0.73121
3671.98672	0.77507
3670.05815	0.81306
3668.12959	0.86734
3666.20103	0.91709
3664.27246	0.95778
3662.34390	1.00124
3660.41533	1.04843
3658.48677	1.09460
3656.55820	1.14344
3654.62964	1.19895
3652.70107	1.24523
3650.77251	1.28373
3648.84395	1.33792
3646.91538	1.40849
3644.98682	1.46096
3643.05825	1.50059
3641.12969	1.54023
3639.20112	1.58368
3637.27256	1.62757
3635.34399	1.67035
3633.41543	1.71352
3631.48687	1.75381
3629.55830	1.79359
3627.62974	1.84760
3625.70117	1.90032
3623.77261	1.93511
3621.84404	1.96710
3619.91548	2.00399
3617.98691	2.04990
3616.05835	2.09508
3614.12979	2.13365
3612.20122	2.17441
3610.27266	2.21433
3608.34409	2.25341
3606.41553	2.29569
3604.48696	2.33602
3602.55840	2.37200
3600.62983	2.41045
3598.70127	2.45170
3596.77271	2.49111
3594.84414	2.53146
3592.91558	2.57375
3590.98701	2.61243
3589.05845	2.64718
3587.12988	2.69010
3585.20132	2.74031
3583.27275	2.78242
3581.34419	2.81977
3579.41562	2.86025
3577.48706	2.90400
3575.55850	2.94787
3573.62993	2.99248
3571.70137	3.03639
3569.77280	3.07776
3567.84424	3.11963
3565.91567	3.16945
3563.98711	3.21939
3562.05854	3.26327
3560.12998	3.30698
3558.20142	3.35057
3556.27285	3.39425
3554.34429	3.43813
3552.41572	3.48440
3550.48716	3.53230
3548.55859	3.57766
3546.63003	3.62217
3544.70146	3.67083
3542.77290	3.72047
3540.84434	3.76580
3538.91577	3.80820
3536.98721	3.85111
3535.05864	3.89871
3533.13008	3.94812
3531.20151	3.99730
3529.27295	4.04859
3527.34438	4.10101
3525.41582	4.14932
3523.48726	4.19379
3521.55869	4.23980
3519.63013	4.28630
3517.70156	4.33289
3515.77300	4.38037
3513.84443	4.42689
3511.91587	4.47248
3509.98730	4.51927
3508.05874	4.56764
3506.13018	4.61718
3504.20161	4.66468
3502.27305	4.71057
3500.34448	4.75954
3498.41592	4.80868
3496.48735	4.85544
3494.55879	4.89976
3492.63022	4.94597
3490.70166	5.00067
3488.77310	5.05735
3486.84453	5.10381
3484.91597	5.14007
3482.98740	5.17625
3481.05884	5.22320
3479.13027	5.28108
3477.20171	5.33951
3475.27314	5.39242
3473.34458	5.44265
3471.41602	5.49227
3469.48745	5.53754
3467.55889	5.57912
3465.63032	5.61900
3463.70176	5.66023
3461.77319	5.70821
3459.84463	5.76224
3457.91606	5.81712
3455.98750	5.87451
3454.05894	5.92964
3452.13037	5.97892
3450.20181	6.02957
3448.27324	6.08445
3446.34468	6.13992
3444.41611	6.17618
3442.48755	6.20284
3440.55898	6.24122
3438.63042	6.28503
3436.70186	6.33047
3434.77329	6.38507
3432.84473	6.45053
3430.91616	6.51792
3428.98760	6.58108
3427.05903	6.63411
3425.13047	6.67717
3423.20190	6.70562
3421.27334	6.74234
3419.34478	6.79871
3417.41621	6.84207
3415.48765	6.87643
3413.55908	6.92552
3411.63052	6.97925
3409.70195	7.02186
3407.77339	7.07103
3405.84482	7.11815
3403.91626	7.18089
3401.98770	7.26717
3400.05913	7.32510
3398.13057	7.35721
3396.20200	7.38361
3394.27344	7.40331
3392.34487	7.40739
3390.41631	7.40078
3388.48774	7.40805
3386.55918	7.45963
3384.63062	7.51633
3382.70205	7.53931
3380.77349	7.56068
3378.84492	7.61080
3376.91636	7.69404
3374.98779	7.73061
3373.05923	7.69703
3371.13066	7.68159
3369.20210	7.71706
3367.27354	7.74893
3365.34497	7.77254
3363.41641	7.79001
3361.48784	7.79771
3359.55928	7.83168
3357.63071	7.86553
3355.70215	7.88308
3353.77358	7.89987
3351.84502	7.96785
3349.91646	8.03653
3347.98789	8.03427
3346.05933	8.03452
3344.13076	8.08235
3342.20220	8.16090
3340.27363	8.18816
3338.34507	8.14751
3336.41650	8.07169
3334.48794	7.99330
3332.55937	8.00355
3330.63081	8.12801
3328.70225	8.25623
3326.77368	8.30789
3324.84512	8.22965
3322.91655	8.06830
3320.98799	8.02962
3319.05942	8.09638
3317.13086	8.10855
3315.20229	8.07750
3313.27373	8.08112
3311.34517	8.09132
3309.41660	8.10932
3307.48804	8.13979
3305.55947	8.13708
3303.63091	8.07442
3301.70234	7.94641
3299.77378	7.91496
3297.84521	8.05981
3295.91665	8.24921
3293.98809	8.34206
3292.05952	8.32731
3290.13096	8.28205
3288.20239	8.29576
3286.27383	8.37090
3284.34526	8.38112
3282.41670	8.29821
3280.48813	8.21423
3278.55957	8.18490
3276.63101	8.16823
3274.70244	8.14181
3272.77388	8.11959
3270.84531	8.10880
3268.91675	8.14162
3266.98818	8.21503
3265.05962	8.30425
3263.13105	8.30461
3261.20249	8.20703
3259.27393	8.14508
3257.34536	8.14544
3255.41680	8.17335
3253.48823	8.23497
3251.55967	8.29031
3249.63110	8.23350
3247.70254	8.11428
3245.77397	8.08335
3243.84541	8.13762
3241.91685	8.18452
3239.98828	8.23745
3238.05972	8.27082
3236.13115	8.25485
3234.20259	8.21442
3232.27402	8.09848
3230.34546	7.93186
3228.41689	7.82354
3226.48833	7.84353
3224.55977	7.92886
3222.63120	7.95409
3220.70264	7.94823
3218.77407	7.97929
3216.84551	8.02144
3214.91694	8.07082
3212.98838	8.10625
3211.05981	8.08986
3209.13125	8.03773
3207.20269	7.92713
3205.27412	7.78106
3203.34556	7.70987
3201.41699	7.74097
3199.48843	7.74941
3197.55986	7.69180
3195.63130	7.67706
3193.70273	7.66945
3191.77417	7.58634
3189.84561	7.50591
3187.91704	7.45286
3185.98848	7.38547
3184.05991	7.34718
3182.13135	7.34251
3180.20278	7.32023
3178.27422	7.29843
3176.34565	7.28806
3174.41709	7.23914
3172.48853	7.14625
3170.55996	7.05272
3168.63140	6.98726
3166.70283	6.92554
3164.77427	6.83572
3162.84570	6.75341
3160.91714	6.70499
3158.98857	6.67490
3157.06001	6.63484
3155.13145	6.56100
3153.20288	6.47066
3151.27432	6.39600
3149.34575	6.33400
3147.41719	6.27086
3145.48862	6.20936
3143.56006	6.13845
3141.63149	6.05278
3139.70293	5.96843
3137.77437	5.89588
3135.84580	5.83614
3133.91724	5.77435
3131.98867	5.70023
3130.06011	5.62791
3128.13154	5.55973
3126.20298	5.48717
3124.27441	5.41225
3122.34585	5.33783
3120.41729	5.26950
3118.48872	5.20327
3116.56016	5.12913
3114.63159	5.05303
3112.70303	4.98584
3110.77446	4.92350
3108.84590	4.85515
3106.91733	4.78731
3104.98877	4.72571
3103.06021	4.66226
3101.13164	4.59726
3099.20308	4.53349
3097.27451	4.46752
3095.34595	4.40009
3093.41738	4.33436
3091.48882	4.27139
3089.56025	4.20920
3087.63169	4.14600
3085.70312	4.08369
3083.77456	4.02191
3081.84600	3.96073
3079.91743	3.90282
3077.98887	3.84832
3076.06030	3.79487
3074.13174	3.73914
3072.20317	3.68186
3070.27461	3.62580
3068.34604	3.56983
3066.41748	3.51221
3064.48892	3.45410
3062.56035	3.39883
3060.63179	3.34687
3058.70322	3.29455
3056.77466	3.24072
3054.84609	3.18805
3052.91753	3.13749
3050.98896	3.08763
3049.06040	3.03707
3047.13184	2.98607
3045.20327	2.93590
3043.27471	2.88719
3041.34614	2.84007
3039.41758	2.79387
3037.48901	2.74785
3035.56045	2.70243
3033.63188	2.65753
3031.70332	2.61303
3029.77476	2.56957
3027.84619	2.52636
3025.91763	2.48255
3023.98906	2.43944
3022.06050	2.39827
3020.13193	2.35871
3018.20337	2.31937
3016.27480	2.27899
3014.34624	2.23869
3012.41768	2.19965
3010.48911	2.16141
3008.56055	2.12406
3006.63198	2.08793
3004.70342	2.05271
3002.77485	2.01795
3000.84629	1.98394
2998.91772	1.95082
2996.98916	1.91799
2995.06060	1.88594
2993.13203	1.85528
2991.20347	1.82516
2989.27490	1.79505
2987.34634	1.76554
2985.41777	1.73681
2983.48921	1.70887
2981.56064	1.68172
2979.63208	1.65479
2977.70352	1.62812
2975.77495	1.60201
2973.84639	1.57616
2971.91782	1.55073
2969.98926	1.52601
2968.06069	1.50153
2966.13213	1.47728
2964.20356	1.45358
2962.27500	1.42991
2960.34644	1.40579
2958.41787	1.38170
2956.48931	1.35792
2954.56074	1.33402
2952.63218	1.31030
2950.70361	1.28751
2948.77505	1.26527
2946.84648	1.24275
2944.91792	1.22022
2942.98936	1.19859
2941.06079	1.17803
2939.13223	1.15797
2937.20366	1.13792
2935.27510	1.11785
2933.34653	1.09789
2931.41797	1.07782
2929.48940	1.05754
2927.56084	1.03760
2925.63228	1.01876
2923.70371	1.00090
2921.77515	0.98302
2919.84658	0.96501
2917.91802	0.94743
2915.98945	0.93046
2914.06089	0.91435
2912.13232	0.89924
2910.20376	0.88461
2908.27520	0.87024
2906.34663	0.85612
2904.41807	0.84190
2902.48950	0.82787
2900.56094	0.81429
2898.63237	0.80087
2896.70381	0.78764
2894.77524	0.77483
2892.84668	0.76253
2890.91812	0.75086
2888.98955	0.73958
2887.06099	0.72850
2885.13242	0.71791
2883.20386	0.70775
2881.27529	0.69776
2879.34673	0.68777
2877.41816	0.67782
2875.48960	0.66801
2873.56104	0.65790
2871.63247	0.64713
2869.70391	0.63577
2867.77534	0.62397
2865.84678	0.61182
2863.91821	0.59936
2861.98965	0.58706
2860.06108	0.57568
2858.13252	0.56533
2856.20396	0.55529
2854.27539	0.54508
2852.34683	0.53520
2850.41826	0.52634
2848.48970	0.51859
2846.56113	0.51147
2844.63257	0.50441
2842.70400	0.49736
2840.77544	0.49071
2838.84687	0.48466
2836.91831	0.47890
2834.98975	0.47296
2833.06118	0.46688
2831.13262	0.46102
2829.20405	0.45534
2827.27549	0.44939
2825.34692	0.44314
2823.41836	0.43691
2821.48979	0.43082
2819.56123	0.42498
2817.63267	0.41931
2815.70410	0.41368
2813.77554	0.40801
2811.84697	0.40217
2809.91841	0.39636
2807.98984	0.39082
2806.06128	0.38556
2804.13271	0.38036
2802.20415	0.37515
2800.27559	0.37000
2798.34702	0.36478
2796.41846	0.35954
2794.48989	0.35460
2792.56133	0.35015
2790.63276	0.34588
2788.70420	0.34128
2786.77563	0.33644
2784.84707	0.33172
2782.91851	0.32726
2780.98994	0.32319
2779.06138	0.31935
2777.13281	0.31524
2775.20425	0.31084
2773.27568	0.30666
2771.34712	0.30282
2769.41855	0.29910
2767.48999	0.29545
2765.56143	0.29183
2763.63286	0.28816
2761.70430	0.28454
2759.77573	0.28109
2757.84717	0.27786
2755.91860	0.27478
2753.99004	0.27161
2752.06147	0.26837
2750.13291	0.26526
2748.20435	0.26229
2746.27578	0.25933
2744.34722	0.25637
2742.41865	0.25349
2740.49009	0.25079
2738.56152	0.24815
2736.63296	0.24537
2734.70439	0.24263
2732.77583	0.24019
2730.84727	0.23782
2728.91870	0.23531
2726.99014	0.23294
2725.06157	0.23083
2723.13301	0.22865
2721.20444	0.22627
2719.27588	0.22389
2717.34731	0.22172
2715.41875	0.21970
2713.49019	0.21769
2711.56162	0.21576
2709.63306	0.21393
2707.70449	0.21222
2705.77593	0.21070
2703.84736	0.20914
2701.91880	0.20748
2699.99023	0.20586
2698.06167	0.20424
2696.13311	0.20262
2694.20454	0.20118
2692.27598	0.19981
2690.34741	0.19831
2688.41885	0.19685
2686.49028	0.19556
2684.56172	0.19424
2682.63315	0.19283
2680.70459	0.19141
2678.77603	0.19018
2676.84746	0.18911
2674.91890	0.18798
2672.99033	0.18675
2671.06177	0.18562
2669.13320	0.18469
2667.20464	0.18382
2665.27607	0.18281
2663.34751	0.18160
2661.41895	0.18046
2659.49038	0.17963
2657.56182	0.17893
2655.63325	0.17810
2653.70469	0.17709
2651.77612	0.17612
2649.84756	0.17540
2647.91899	0.17484
2645.99043	0.17423
2644.06187	0.17356
2642.13330	0.17302
2640.20474	0.17261
2638.27617	0.17206
2636.34761	0.17136
2634.41904	0.17071
2632.49048	0.17014
2630.56191	0.16962
2628.63335	0.16912
2626.70479	0.16856
2624.77622	0.16808
2622.84766	0.16785
2620.91909	0.16759
2618.99053	0.16715
2617.06196	0.16670
2615.13340	0.16642
2613.20483	0.16629
2611.27627	0.16616
2609.34771	0.16598
2607.41914	0.16587
2605.49058	0.16582
2603.56201	0.16567
2601.63345	0.16555
2599.70488	0.16552
2597.77632	0.16542
2595.84775	0.16525
2593.91919	0.16515
2591.99062	0.16508
2590.06206	0.16508
2588.13350	0.16531
2586.20493	0.16569
2584.27637	0.16593
2582.34780	0.16603
2580.41924	0.16615
2578.49067	0.16634
2576.56211	0.16658
2574.63354	0.16685
2572.70498	0.16712
2570.77642	0.16741
2568.84785	0.16774
2566.91929	0.16810
2564.99072	0.16844
2563.06216	0.16878
2561.13359	0.16912
2559.20503	0.16943
2557.27646	0.16984
2555.34790	0.17036
2553.41934	0.17085
2551.49077	0.17133
2549.56221	0.17182
2547.63364	0.17218
2545.70508	0.17258
2543.77651	0.17314
2541.84795	0.17377
2539.91938	0.17439
2537.99082	0.17489
2536.06226	0.17535
2534.13369	0.17588
2532.20513	0.17651
2530.27656	0.17718
2528.34800	0.17785
2526.41943	0.17858
2524.49087	0.17940
2522.56230	0.18018
2520.63374	0.18085
2518.70518	0.18153
2516.77661	0.18221
2514.84805	0.18275
2512.91948	0.18332
2510.99092	0.18408
2509.06235	0.18488
2507.13379	0.18564
2505.20522	0.18647
2503.27666	0.18733
2501.34810	0.18809
2499.41953	0.18880
2497.49097	0.18954
2495.56240	0.19030
2493.63384	0.19110
2491.70527	0.19183
2489.77671	0.19258
2487.84814	0.19349
2485.91958	0.19443
2483.99102	0.19524
2482.06245	0.19602
2480.13389	0.19680
2478.20532	0.19749
2476.27676	0.19827
2474.34819	0.19926
2472.41963	0.20024
2470.49106	0.20103
2468.56250	0.20185
2466.63394	0.20286
2464.70537	0.20385
2462.77681	0.20472
2460.84824	0.20557
2458.91968	0.20645
2456.99111	0.20733
2455.06255	0.20818
2453.13398	0.20901
2451.20542	0.20988
2449.27686	0.21082
2447.34829	0.21186
2445.41973	0.21293
2443.49116	0.21390
2441.56260	0.21469
2439.63403	0.21546
2437.70547	0.21641
2435.77690	0.21753
2433.84834	0.21868
2431.91978	0.21972
2429.99121	0.22074
2428.06265	0.22173
2426.13408	0.22267
2424.20552	0.22366
2422.27695	0.22471
2420.34839	0.22581
2418.41982	0.22698
2416.49126	0.22814
2414.56270	0.22929
2412.63413	0.23046
2410.70557	0.23162
2408.77700	0.23276
2406.84844	0.23381
2404.91987	0.23482
2402.99131	0.23592
2401.06274	0.23705
2399.13418	0.23816
2397.20562	0.23934
2395.27705	0.24061
2393.34849	0.24187
2391.41992	0.24310
2389.49136	0.24420
2387.56279	0.24503
2385.63423	0.24541
2383.70566	0.24522
2381.77710	0.24456
2379.84854	0.24335
2377.91997	0.24138
2375.99141	0.23887
2374.06284	0.23595
2372.13428	0.23215
2370.20571	0.22756
2368.27715	0.22319
2366.34858	0.21929
2364.42002	0.21553
2362.49146	0.21252
2360.56289	0.21122
2358.63433	0.21282
2356.70576	0.21854
2354.77720	0.22714
2352.84863	0.23651
2350.92007	0.24505
2348.99150	0.25025
2347.06294	0.25115
2345.13437	0.24845
2343.20581	0.24478
2341.27725	0.24363
2339.34868	0.24500
2337.42012	0.24740
2335.49155	0.25025
2333.56299	0.25310
2331.63442	0.25559
2329.70586	0.25809
2327.77729	0.26127
2325.84873	0.26522
2323.92017	0.26940
2321.99160	0.27327
2320.06304	0.27718
2318.13447	0.28151
2316.20591	0.28558
2314.27734	0.28888
2312.34878	0.29173
2310.42021	0.29453
2308.49165	0.29739
2306.56309	0.30044
2304.63452	0.30368
2302.70596	0.30675
2300.77739	0.30941
2298.84883	0.31193
2296.92026	0.31457
2294.99170	0.31718
2293.06313	0.31963
2291.13457	0.32203
2289.20601	0.32450
2287.27744	0.32710
2285.34888	0.32973
2283.42031	0.33212
2281.49175	0.33413
2279.56318	0.33595
2277.63462	0.33768
2275.70605	0.33949
2273.77749	0.34159
2271.84893	0.34378
2269.92036	0.34587
2267.99180	0.34795
2266.06323	0.35013
2264.13467	0.35237
2262.20610	0.35463
2260.27754	0.35683
2258.34897	0.35902
2256.42041	0.36134
2254.49185	0.36372
2252.56328	0.36601
2250.63472	0.36820
2248.70615	0.37045
2246.77759	0.37275
2244.84902	0.37498
2242.92046	0.37719
2240.99189	0.37950
2239.06333	0.38181
2237.13477	0.38404
2235.20620	0.38622
2233.27764	0.38843
2231.34907	0.39061
2229.42051	0.39281
2227.49194	0.39508
2225.56338	0.39736
2223.63481	0.39962
2221.70625	0.40192
2219.77769	0.40426
2217.84912	0.40647
2215.92056	0.40850
2213.99199	0.41048
2212.06343	0.41257
2210.13486	0.41471
2208.20630	0.41682
2206.27773	0.41897
2204.34917	0.42114
2202.42061	0.42322
2200.49204	0.42523
2198.56348	0.42729
2196.63491	0.42936
2194.70635	0.43136
2192.77778	0.43322
2190.84922	0.43507
2188.92065	0.43698
2186.99209	0.43883
2185.06353	0.44059
2183.13496	0.44232
2181.20640	0.44395
2179.27783	0.44544
2177.34927	0.44693
2175.42070	0.44858
2173.49214	0.45029
2171.56357	0.45181
2169.63501	0.45311
2167.70645	0.45434
2165.77788	0.45566
2163.84932	0.45701
2161.92075	0.45827
2159.99219	0.45938
2158.06362	0.46031
2156.13506	0.46114
2154.20649	0.46198
2152.27793	0.46280
2150.34937	0.46350
2148.42080	0.46413
2146.49224	0.46478
2144.56367	0.46531
2142.63511	0.46570
2140.70654	0.46606
2138.77798	0.46639
2136.84941	0.46654
2134.92085	0.46655
2132.99229	0.46656
2131.06372	0.46655
2129.13516	0.46649
2127.20659	0.46637
2125.27803	0.46612
2123.34946	0.46565
2121.42090	0.46502
2119.49233	0.46440
2117.56377	0.46390
2115.63521	0.46330
2113.70664	0.46251
2111.77808	0.46164
2109.84951	0.46069
2107.92095	0.45968
2105.99238	0.45858
2104.06382	0.45743
2102.13525	0.45622
2100.20669	0.45493
2098.27812	0.45348
2096.34956	0.45197
2094.42100	0.45042
2092.49243	0.44876
2090.56387	0.44701
2088.63530	0.44526
2086.70674	0.44354
2084.77817	0.44172
2082.84961	0.43975
2080.92104	0.43773
2078.99248	0.43573
2077.06392	0.43364
2075.13535	0.43146
2073.20679	0.42928
2071.27822	0.42705
2069.34966	0.42481
2067.42109	0.42257
2065.49253	0.42033
2063.56396	0.41795
2061.63540	0.41549
2059.70684	0.41300
2057.77827	0.41054
2055.84971	0.40816
2053.92114	0.40571
2051.99258	0.40305
2050.06401	0.40031
2048.13545	0.39769
2046.20688	0.39504
2044.27832	0.39226
2042.34976	0.38945
2040.42119	0.38668
2038.49263	0.38385
2036.56406	0.38104
2034.63550	0.37832
2032.70693	0.37559
2030.77837	0.37282
2028.84980	0.37009
2026.92124	0.36745
2024.99268	0.36469
2023.06411	0.36178
2021.13555	0.35891
2019.20698	0.35611
2017.27842	0.35324
2015.34985	0.35029
2013.42129	0.34741
2011.49272	0.34461
2009.56416	0.34193
2007.63560	0.33931
2005.70703	0.33659
2003.77847	0.33379
2001.84990	0.33107
1999.92134	0.32852
1997.99277	0.32601
1996.06421	0.32344
1994.13564	0.32085
1992.20708	0.31834
1990.27852	0.31579
1988.34995	0.31323
1986.42139	0.31069
1984.49282	0.30820
1982.56426	0.30582
1980.63569	0.30349
1978.70713	0.30121
1976.77856	0.29899
1974.85000	0.29679
1972.92144	0.29454
1970.99287	0.29226
1969.06431	0.29010
1967.13574	0.28809
1965.20718	0.28609
1963.27861	0.28405
1961.35005	0.28203
1959.42148	0.28007
1957.49292	0.27821
1955.56436	0.27642
1953.63579	0.27462
1951.70723	0.27285
1949.77866	0.27123
1947.85010	0.26966
1945.92153	0.26809
1943.99297	0.26655
1942.06440	0.26501
1940.13584	0.26340
1938.20728	0.26185
1936.27871	0.26041
1934.35015	0.25907
1932.42158	0.25787
1930.49302	0.25671
1928.56445	0.25551
1926.63589	0.25433
1924.70732	0.25331
1922.77876	0.25234
1920.85020	0.25130
1918.92163	0.25030
1916.99307	0.24941
1915.06450	0.24858
1913.13594	0.24776
1911.20737	0.24695
1909.27881	0.24616
1907.35024	0.24541
1905.42168	0.24469
1903.49312	0.24405
1901.56455	0.24350
1899.63599	0.24296
1897.70742	0.24247
1895.77886	0.24213
1893.85029	0.24186
1891.92173	0.24149
1889.99316	0.24115
1888.06460	0.24085
1886.13604	0.24057
1884.20747	0.24033
1882.27891	0.24011
1880.35034	0.23991
1878.42178	0.23979
1876.49321	0.23978
1874.56465	0.23975
1872.63608	0.23974
1870.70752	0.23988
1868.77896	0.24030
1866.85039	0.24062
1864.92183	0.24060
1862.99326	0.24058
1861.06470	0.24076
1859.13613	0.24112
1857.20757	0.24153
1855.27900	0.24198
1853.35044	0.24235
1851.42187	0.24279
1849.49331	0.24334
1847.56475	0.24393
1845.63618	0.24462
1843.70762	0.24560
1841.77905	0.24653
1839.85049	0.24707
1837.92192	0.24777
1835.99336	0.24869
1834.06479	0.24963
1832.13623	0.25048
1830.20767	0.25168
1828.27910	0.25317
1826.35054	0.25435
1824.42197	0.25564
1822.49341	0.25696
1820.56484	0.25815
1818.63628	0.25944
1816.70771	0.26105
1814.77915	0.26276
1812.85059	0.26451
1810.92202	0.26650
1808.99346	0.26863
1807.06489	0.27066
1805.13633	0.27252
1803.20776	0.27449
1801.27920	0.27673
1799.35063	0.27945
1797.42207	0.28206
1795.49351	0.28445
1793.56494	0.28715
1791.63638	0.29082
1789.70781	0.29449
1787.77925	0.29713
1785.85068	0.30011
1783.92212	0.30379
1781.99355	0.30780
1780.06499	0.31198
1778.13643	0.31626
1776.20786	0.32023
1774.27930	0.32431
1772.35073	0.32982
1770.42217	0.33617
1768.49360	0.34167
1766.56504	0.34691
1764.63647	0.35215
1762.70791	0.35786
1760.77935	0.36529
1758.85078	0.37232
1756.92222	0.37928
1754.99365	0.38692
1753.06509	0.39366
1751.13652	0.40144
1749.20796	0.41174
1747.27939	0.42235
1745.35083	0.43147
1743.42227	0.44074
1741.49370	0.45091
1739.56514	0.46327
1737.63657	0.47594
1735.70801	0.48675
1733.77944	0.50284
1731.85088	0.52254
1729.92231	0.53807
1727.99375	0.55393
1726.06519	0.57098
1724.13662	0.58955
1722.20806	0.60952
1720.27949	0.62766
1718.35093	0.64864
1716.42236	0.68076
1714.49380	0.71212
1712.56523	0.73713
1710.63667	0.76089
1708.70811	0.78612
1706.77954	0.81505
1704.85098	0.85060
1702.92241	0.88233
1700.99385	0.91271
1699.06528	0.95905
1697.13672	1.00281
1695.20815	1.04802
1693.27959	1.09144
1691.35103	1.12578
1689.42246	1.16608
1687.49390	1.20935
1685.56533	1.25082
1683.63677	1.31644
1681.70820	1.38532
1679.77964	1.42749
1677.85107	1.46756
1675.92251	1.51396
1673.99395	1.57293
1672.06538	1.62602
1670.13682	1.67728
1668.20825	1.74464
1666.27969	1.79914
1664.35112	1.84636
1662.42256	1.90821
1660.49399	1.98064
1658.56543	2.03622
1656.63687	2.08076
1654.70830	2.12295
1652.77974	2.19022
1650.85117	2.24690
1648.92261	2.26078
1646.99404	2.28459
1645.06548	2.31161
1643.13691	2.32979
1641.20835	2.33963
1639.27979	2.34804
1637.35122	2.35113
1635.42266	2.34503
1633.49409	2.33321
1631.56553	2.31959
1629.63696	2.30403
1627.70840	2.27513
1625.77983	2.24068
1623.85127	2.19685
1621.92271	2.14275
1619.99414	2.09603
1618.06558	2.05253
1616.13701	1.98772
1614.20845	1.91866
1612.27988	1.86681
1610.35132	1.81402
1608.42275	1.75708
1606.49419	1.70112
1604.56562	1.64986
1602.63706	1.60049
1600.70850	1.55289
1598.77993	1.50940
1596.85137	1.46837
1594.92280	1.42840
1592.99424	1.38987
1591.06567	1.35510
1589.13711	1.32316
1587.20854	1.29404
1585.27998	1.26767
1583.35142	1.24334
1581.42285	1.22124
1579.49429	1.20247
1577.56572	1.18585
1575.63716	1.16602
1573.70859	1.14939
1571.78003	1.13914
1569.85146	1.12901
1567.92290	1.11841
1565.99434	1.11122
1564.06577	1.10666
1562.13721	1.10356
1560.20864	1.10234
1558.28008	1.10571
1556.35151	1.11080
1554.42295	1.11293
1552.49438	1.11471
1550.56582	1.11495
1548.63726	1.11251
1546.70869	1.10727
1544.78013	1.09881
1542.85156	1.08687
1540.92300	1.06822
1538.99443	1.03804
1537.06587	1.01673
1535.13730	1.00229
1533.20874	0.98197
1531.28018	0.95992
1529.35161	0.94425
1527.42305	0.92967
1525.49448	0.91429
1523.56592	0.90099
1521.63735	0.88876
1519.70879	0.87692
1517.78022	0.86659
1515.85166	0.85425
1513.92310	0.84168
1511.99453	0.83068
1510.06597	0.82026
1508.13740	0.80972
1506.20884	0.79350
1504.28027	0.78073
1502.35171	0.77394
1500.42314	0.76776
1498.49458	0.76092
1496.56602	0.75265
1494.63745	0.74444
1492.70889	0.73835
1490.78032	0.73297
1488.85176	0.72654
1486.92319	0.72050
1484.99463	0.71594
1483.06606	0.71250
1481.13750	0.70976
1479.20894	0.70769
1477.28037	0.70650
1475.35181	0.70599
1473.42324	0.70578
1471.49468	0.70513
1469.56611	0.70359
1467.63755	0.70148
1465.70898	0.69947
1463.78042	0.69830
1461.85186	0.69800
1459.92329	0.69814
1457.99473	0.69865
1456.06616	0.69859
1454.13760	0.69686
1452.20903	0.69456
1450.28047	0.69212
1448.35190	0.68966
1446.42334	0.68707
1444.49478	0.68472
1442.56621	0.68262
1440.63765	0.68028
1438.70908	0.67754
1436.78052	0.67399
1434.85195	0.67009
1432.92339	0.66724
1430.99482	0.66554
1429.06626	0.66489
1427.13770	0.66497
1425.20913	0.66556
1423.28057	0.66649
1421.35200	0.66710
1419.42344	0.66750
1417.49487	0.66773
1415.56631	0.66713
1413.63774	0.66636
1411.70918	0.66615
1409.78062	0.66687
1407.85205	0.66824
1405.92349	0.66993
1403.99492	0.67154
1402.06636	0.67213
1400.13779	0.67162
1398.20923	0.67011
1396.28066	0.66746
1394.35210	0.66357
1392.42354	0.65907
1390.49497	0.65478
1388.56641	0.65041
1386.63784	0.64540
1384.70928	0.64024
1382.78071	0.63541
1380.85215	0.63077
1378.92358	0.62657
1376.99502	0.62334
1375.06646	0.62136
1373.13789	0.62020
1371.20933	0.61937
1369.28076	0.61871
1367.35220	0.61772
1365.42363	0.61612
1363.49507	0.61439
1361.56650	0.61279
1359.63794	0.61119
1357.70937	0.60967
1355.78081	0.60836
1353.85225	0.60734
1351.92368	0.60648
1349.99512	0.60561
1348.06655	0.60474
1346.13799	0.60385
1344.20942	0.60291
1342.28086	0.60200
1340.35229	0.60141
1338.42373	0.60095
1336.49517	0.60033
1334.56660	0.59982
1332.63804	0.59964
1330.70947	0.59977
1328.78091	0.60017
1326.85234	0.60082
1324.92378	0.60165
1322.99521	0.60256
1321.06665	0.60336
1319.13809	0.60396
1317.20952	0.60417
1315.28096	0.60406
1313.35239	0.60385
1311.42383	0.60344
1309.49526	0.60272
1307.56670	0.60188
1305.63813	0.60117
1303.70957	0.60060
1301.78101	0.59987
1299.85244	0.59874
1297.92388	0.59737
1295.99531	0.59601
1294.06675	0.59464
1292.13818	0.59316
1290.20962	0.59163
1288.28105	0.59029
1286.35249	0.58905
1284.42393	0.58774
1282.49536	0.58629
1280.56680	0.58478
1278.63823	0.58336
1276.70967	0.58206
1274.78110	0.58080
1272.85254	0.57975
1270.92397	0.57910
1268.99541	0.57864
1267.06685	0.57800
1265.13828	0.57723
1263.20972	0.57639
1261.28115	0.57551
1259.35259	0.57485
1257.42402	0.57442
1255.49546	0.57403
1253.56689	0.57375
1251.63833	0.57375
1249.70977	0.57389
1247.78120	0.57394
1245.85264	0.57384
1243.92407	0.57351
1241.99551	0.57273
1240.06694	0.57132
1238.13838	0.56949
1236.20981	0.56747
1234.28125	0.56524
1232.35269	0.56280
1230.42412	0.56032
1228.49556	0.55810
1226.56699	0.55621
1224.63843	0.55438
1222.70986	0.55246
1220.78130	0.55061
1218.85273	0.54897
1216.92417	0.54758
1214.99561	0.54644
1213.06704	0.54547
1211.13848	0.54457
1209.20991	0.54382
1207.28135	0.54326
1205.35278	0.54255
1203.42422	0.54147
1201.49565	0.54038
1199.56709	0.53957
1197.63853	0.53874
1195.70996	0.53774
1193.78140	0.53686
1191.85283	0.53616
1189.92427	0.53550
1187.99570	0.53496
1186.06714	0.53464
1184.13857	0.53461
1182.21001	0.53497
1180.28145	0.53575
1178.35288	0.53696
1176.42432	0.53854
1174.49575	0.53999
1172.56719	0.54085
1170.63862	0.54124
1168.71006	0.54133
1166.78149	0.54125
1164.85293	0.54142
1162.92437	0.54194
1160.99580	0.54223
1159.06724	0.54204
1157.13867	0.54146
1155.21011	0.54038
1153.28154	0.53886
1151.35298	0.53717
1149.42441	0.53514
1147.49585	0.53246
1145.56729	0.52948
1143.63872	0.52672
1141.71016	0.52437
1139.78159	0.52242
1137.85303	0.52092
1135.92446	0.52012
1133.99590	0.52013
1132.06733	0.52053
1130.13877	0.52075
1128.21021	0.52050
1126.28164	0.51996
1124.35308	0.51941
1122.42451	0.51895
1120.49595	0.51875
1118.56738	0.51897
1116.63882	0.51949
1114.71025	0.52019
1112.78169	0.52104
1110.85312	0.52200
1108.92456	0.52290
1106.99600	0.52366
1105.06743	0.52452
1103.13887	0.52563
1101.21030	0.52692
1099.28174	0.52843
1097.35317	0.53038
1095.42461	0.53305
1093.49604	0.53676
1091.56748	0.54160
1089.63892	0.54749
1087.71035	0.55443
1085.78179	0.56222
1083.85322	0.57014
1081.92466	0.57725
1079.99609	0.58273
1078.06753	0.58574
1076.13896	0.58576
1074.21040	0.58287
1072.28184	0.57762
1070.35327	0.57094
1068.42471	0.56393
1066.49614	0.55722
1064.56758	0.55093
1062.63901	0.54518
1060.71045	0.54025
1058.78188	0.53604
1056.85332	0.53223
1054.92476	0.52879
1052.99619	0.52568
1051.06763	0.52306
1049.13906	0.52118
1047.21050	0.52005
1045.28193	0.51939
1043.35337	0.51892
1041.42480	0.51858
1039.49624	0.51819
1037.56768	0.51764
1035.63911	0.51724
1033.71055	0.51696
1031.78198	0.51620
1029.85342	0.51468
1027.92485	0.51296
1025.99629	0.51160
1024.06772	0.51057
1022.13916	0.50977
1020.21060	0.50924
1018.28203	0.50885
1016.35347	0.50853
1014.42490	0.50829
1012.49634	0.50802
1010.56777	0.50773
1008.63921	0.50766
1006.71064	0.50823
1004.78208	0.50955
1002.85352	0.51136
1000.92495	0.51371
998.99639	0.51680
997.06782	0.52063
995.13926	0.52495
993.21069	0.52913
991.28213	0.53242
989.35356	0.53443
987.42500	0.53513
985.49644	0.53502
983.56787	0.53482
981.63931	0.53499
979.71074	0.53566
977.78218	0.53689
975.85361	0.53872
973.92505	0.54114
971.99648	0.54395
970.06792	0.54692
968.13936	0.55023
966.21079	0.55400
964.28223	0.55817
962.35366	0.56270
960.42510	0.56752
958.49653	0.57269
956.56797	0.57829
954.63940	0.58417
952.71084	0.59016
950.78228	0.59631
948.85371	0.60252
946.92515	0.60862
944.99658	0.61463
943.06802	0.62060
941.13945	0.62677
939.21089	0.63312
937.28232	0.63933
935.35376	0.64534
933.42520	0.65117
931.49663	0.65661
929.56807	0.66154
927.63950	0.66681
925.71094	0.67325
923.78237	0.68017
921.85381	0.68668
919.92524	0.69301
917.99668	0.69988
916.06812	0.70737
914.13955	0.71497
912.21099	0.72217
910.28242	0.72906
908.35386	0.73641
906.42529	0.74459
904.49673	0.75347
902.56816	0.76334
900.63960	0.77367
898.71104	0.78305
896.78247	0.79208
894.85391	0.80226
892.92534	0.81338
890.99678	0.82460
889.06821	0.83533
887.13965	0.84533
885.21108	0.85546
883.28252	0.86727
881.35396	0.88032
879.42539	0.89310
877.49683	0.90484
875.56826	0.91557
873.63970	0.92620
871.71113	0.93665
869.78257	0.94619
867.85400	0.95597
865.92544	0.96789
863.99687	0.98159
862.06831	0.99443
860.13975	1.00571
858.21118	1.01761
856.28262	1.02962
854.35405	1.04050
852.42549	1.05247
850.49692	1.06568
848.56836	1.07721
846.63979	1.08730
844.71123	1.09926
842.78267	1.11269
840.85410	1.12374
838.92554	1.13269
836.99697	1.14396
835.06841	1.15806
833.13984	1.17170
831.21128	1.18409
829.28271	1.19419
827.35415	1.20164
825.42559	1.21260
823.49702	1.23039
821.56846	1.24893
819.63989	1.26309
817.71133	1.27021
815.78276	1.27183
813.85420	1.27931
811.92563	1.30263
809.99707	1.33302
808.06851	1.34990
806.13994	1.35562
804.21138	1.35959
802.28281	1.35952
800.35425	1.36301
798.42568	1.36969
796.49712	1.36455
794.56855	1.36633
792.63999	1.40013
790.71143	1.44786
788.78286	1.49108
786.85430	1.51888
784.92573	1.53387
782.99717	1.52453
781.06860	1.45240
779.14004	1.37127
777.21147	1.35709
775.28291	1.40375
773.35435	1.43671
771.42578	1.41593
769.49722	1.37673
767.56865	1.35826
765.64009	1.40157
763.71152	1.47467
761.78296	1.41366
759.85439	1.30073
757.92583	1.26999
755.99727	1.29370
754.06870	1.33028
752.14014	1.33545
750.21157	1.32081
748.28301	1.29856
746.35444	1.21315
744.42588	1.05363
742.49731	0.91484
740.56875	0.84008
738.64019	0.81912
736.71162	0.84800
734.78306	0.89384
732.85449	0.81351
730.92593	0.58976
728.99736	0.41426
727.06880	0.36795
725.14023	0.38688
723.21167	0.37884
721.28311	0.42637
719.35454	0.84324
717.42598	1.74554
715.49741	0.42231
713.56885	0.11112
711.64028	0.12752
709.71172	0.08659
707.78315	-0.02231
705.85459	0.08619
703.92603	0.27319
701.99746	0.25708
700.06890	0.23172
698.14033	0.29175
696.21177	0.31640
694.28320	0.27917
692.35464	0.26290
690.42607	0.23563
688.49751	0.16080
686.56895	0.09882
684.64038	0.09855
682.71182	0.17348
680.78325	0.31561
678.85469	0.49466
676.92612	0.53425
674.99756	0.41428
673.06899	0.31531
671.14043	0.22682
669.21187	0.26163
667.28330	0.42110
665.35474	0.47107
663.42617	0.43793
661.49761	0.42791
659.56904	0.36842
657.64048	0.26538
655.71191	0.20517
653.78335	0.21724
651.85479	0.23487
649.92622	0.20837
647.99766	0.18288
646.06909	0.20802
644.14053	0.24764
642.21196	0.23364
640.28340	0.25897
638.35483	0.36102
636.42627	0.37277
634.49771	0.25470
632.56914	0.17226
630.64058	0.16736
628.71201	0.19683
626.78345	0.25087
624.85488	0.29250
622.92632	0.28516
620.99775	0.27230
619.06919	0.27524
617.14062	0.25064
615.21206	0.18827
613.28350	0.14662
611.35493	0.18385
609.42637	0.28607
607.49780	0.30116
605.56924	0.21018
603.64067	0.14669
601.71211	0.17012
599.78354	0.24220
597.85498	0.21471
595.92642	0.17945
593.99785	0.22449
592.06929	0.32805
590.14072	0.38278
588.21216	0.37613
586.28359	0.36565
584.35503	0.32065
582.42646	0.26250
580.49790	0.21660
578.56934	0.18078
576.64077	0.19735
574.71221	0.24750
572.78364	0.24838
570.85508	0.19290
568.92651	0.15837
566.99795	0.16232
565.06938	0.18303
563.14082	0.19175
561.21226	0.14218
559.28369	0.09572
557.35513	0.17055
555.42656	0.34734
553.49800	0.36662
551.56943	0.23944
549.64087	0.16981
547.71230	0.18318
545.78374	0.22294
543.85518	0.21123
541.92661	0.17228
539.99805	0.18989
538.06948	0.23512
536.14092	0.25004
534.21235	0.24899
532.28379	0.25171
530.35522	0.22882
528.42666	0.14633
526.49810	0.08443
524.56953	0.10593
522.64097	0.15603
520.71240	0.17266
518.78384	0.15250
516.85527	0.12372
514.92671	0.15946
512.99814	0.27398
511.06958	0.35999
509.14102	0.32828
507.21245	0.31024
505.28389	0.37119
503.35532	0.39342
501.42676	0.29113
499.49819	0.19336
