3997.91411	0.09681
3995.98555	0.09736
3994.05698	0.09789
3992.12842	0.09828
3990.19985	0.09867
3988.27129	0.09898
3986.34272	0.09925
3984.41416	0.09973
3982.48560	0.10037
3980.55703	0.10088
3978.62847	0.10112
3976.69990	0.10140
3974.77134	0.10185
3972.84277	0.10201
3970.91421	0.10173
3968.98564	0.10144
3967.05708	0.10146
3965.12852	0.10179
3963.19995	0.10230
3961.27139	0.10270
3959.34282	0.10273
3957.41426	0.10256
3955.48569	0.10264
3953.55713	0.10320
3951.62856	0.10415
3949.70000	0.10525
3947.77144	0.10565
3945.84287	0.10504
3943.91431	0.10461
3941.98574	0.10475
3940.05718	0.10451
3938.12861	0.10401
3936.20005	0.10379
3934.27148	0.10410
3932.34292	0.10512
3930.41436	0.10579
3928.48579	0.10509
3926.55723	0.10463
3924.62866	0.10541
3922.70010	0.10579
3920.77153	0.10517
3918.84297	0.10504
3916.91440	0.10542
3914.98584	0.10488
3913.05728	0.10363
3911.12871	0.10296
3909.20015	0.10300
3907.27158	0.10392
3905.34302	0.10651
3903.41445	0.10987
3901.48589	0.11113
3899.55732	0.10988
3897.62876	0.10750
3895.70020	0.10532
3893.77163	0.10506
3891.84307	0.10671
3889.91450	0.10759
3887.98594	0.10710
3886.05737	0.10753
3884.12881	0.10858
3882.20024	0.10901
3880.27168	0.10896
3878.34312	0.10757
3876.41455	0.10613
3874.48599	0.10702
3872.55742	0.10963
3870.62886	0.11172
3868.70029	0.11192
3866.77173	0.11121
3864.84316	0.11209
3862.91460	0.11364
3860.98604	0.11289
3859.05747	0.11124
3857.12891	0.11144
3855.20034	0.11424
3853.27178	0.11913
3851.34321	0.12053
3849.41465	0.11656
3847.48608	0.11347
3845.55752	0.11295
3843.62896	0.11456
3841.70039	0.11719
3839.77183	0.12013
3837.84326	0.12223
3835.91470	0.12185
3833.98613	0.12054
3832.05757	0.11973
3830.12900	0.11938
3828.20044	0.11969
3826.27187	0.12080
3824.34331	0.12245
3822.41475	0.12504
3820.48618	0.12864
3818.55762	0.13022
3816.62905	0.12976
3814.70049	0.12825
3812.77192	0.12596
3810.84336	0.12514
3808.91479	0.12662
3806.98623	0.12998
3805.05767	0.13320
3803.12910	0.13520
3801.20054	0.13726
3799.27197	0.13854
3797.34341	0.13849
3795.41484	0.13798
3793.48628	0.13710
3791.55771	0.13683
3789.62915	0.13738
3787.70059	0.13856
3785.77202	0.14093
3783.84346	0.14374
3781.91489	0.14565
3779.98633	0.14762
3778.05776	0.14956
3776.12920	0.14983
3774.20063	0.15004
3772.27207	0.15213
3770.34351	0.15592
3768.41494	0.15944
3766.48638	0.16128
3764.55781	0.16257
3762.62925	0.16397
3760.70068	0.16640
3758.77212	0.17038
3756.84355	0.17399
3754.91499	0.17661
3752.98643	0.18060
3751.05786	0.18720
3749.12930	0.19270
3747.20073	0.19425
3745.27217	0.19625
3743.34360	0.20015
3741.41504	0.20376
3739.48647	0.20735
3737.55791	0.21301
3735.62935	0.22165
3733.70078	0.22962
3731.77222	0.23214
3729.84365	0.23355
3727.91509	0.23736
3725.98652	0.24360
3724.05796	0.25081
3722.12939	0.25712
3720.20083	0.26233
3718.27227	0.26703
3716.34370	0.27219
3714.41514	0.27926
3712.48657	0.29070
3710.55801	0.30742
3708.62944	0.32250
3706.70088	0.33278
3704.77231	0.34324
3702.84375	0.35695
3700.91519	0.37460
3698.98662	0.39243
3697.05806	0.40902
3695.12949	0.42762
3693.20093	0.44836
3691.27236	0.47177
3689.34380	0.50171
3687.41523	0.53566
3685.48667	0.56360
3683.55811	0.58841
3681.62954	0.61641
3679.70098	0.64930
3677.77241	0.68494
3675.84385	0.72699
3673.91528	0.78180
3671.98672	0.82498
3670.05815	0.86374
3668.12959	0.91685
3666.20103	0.96349
3664.27246	1.00280
3662.34390	1.04658
3660.41533	1.09443
3658.48677	1.14170
3656.55820	1.19249
3654.62964	1.24910
3652.70107	1.29632
3650.77251	1.33858
3648.84395	1.39907
3646.91538	1.47111
3644.98682	1.51931
3643.05825	1.55592
3641.12969	1.59506
3639.20112	1.63948
3637.27256	1.68524
3635.34399	1.73016
3633.41543	1.77500
3631.48687	1.81725
3629.55830	1.86032
3627.62974	1.91619
3625.70117	1.96723
3623.77261	2.00144
3621.84404	2.03433
3619.91548	2.07245
3617.98691	2.11893
3616.05835	2.16241
3614.12979	2.19872
3612.20122	2.23847
3610.27266	2.27828
3608.34409	2.31822
3606.41553	2.36155
3604.48696	2.40189
3602.55840	2.43756
3600.62983	2.47587
3598.70127	2.51787
3596.77271	2.55901
3594.84414	2.60098
3592.91558	2.64327
3590.98701	2.68078
3589.05845	2.71619
3587.12988	2.76122
3585.20132	2.81110
3583.27275	2.85160
3581.34419	2.88793
3579.41562	2.92692
3577.48706	2.96968
3575.55850	3.01371
3573.62993	3.05723
3571.70137	3.09873
3569.77280	3.13955
3567.84424	3.18618
3565.91567	3.24409
3563.98711	3.29407
3562.05854	3.33049
3560.12998	3.36883
3558.20142	3.41237
3556.27285	3.45887
3554.34429	3.50548
3552.41572	3.55137
3550.48716	3.59653
3548.55859	3.64261
3546.63003	3.69141
3544.70146	3.74302
3542.77290	3.79270
3540.84434	3.83823
3538.91577	3.88499
3536.98721	3.93436
3535.05864	3.98314
3533.13008	4.03009
3531.20151	4.07881
3529.27295	4.12807
3527.34438	4.17623
3525.41582	4.22448
3523.48726	4.27324
3521.55869	4.32466
3519.63013	4.37515
3517.70156	4.42199
3515.77300	4.46685
3513.84443	4.51050
3511.91587	4.55628
3509.98730	4.60610
3508.05874	4.65528
3506.13018	4.70398
3504.20161	4.75567
3502.27305	4.80762
3500.34448	4.85605
3498.41592	4.90189
3496.48735	4.94978
3494.55879	5.00445
3492.63022	5.06210
3490.70166	5.11133
3488.77310	5.15359
3486.84453	5.19980
3484.91597	5.25011
3482.98740	5.29977
3481.05884	5.34807
3479.13027	5.39528
3477.20171	5.44994
3475.27314	5.50991
3473.34458	5.55593
3471.41602	5.58947
3469.48745	5.63575
3467.55889	5.69696
3465.63032	5.74737
3463.70176	5.79255
3461.77319	5.84778
3459.84463	5.90292
3457.91606	5.95406
3455.98750	6.00217
3454.05894	6.04899
3452.13037	6.10053
3450.20181	6.15035
3448.27324	6.18418
3446.34468	6.21195
3444.41611	6.25698
3442.48755	6.32362
3440.55898	6.39542
3438.63042	6.46213
3436.70186	6.51893
3434.77329	6.56226
3432.84473	6.60922
3430.91616	6.65643
3428.98760	6.68591
3427.05903	6.71159
3425.13047	6.75002
3423.20190	6.80249
3421.27334	6.88073
3419.34478	6.97209
3417.41621	7.04486
3415.48765	7.09216
3413.55908	7.12521
3411.63052	7.16968
3409.70195	7.23465
3407.77339	7.30437
3405.84482	7.34721
3403.91626	7.35195
3401.98770	7.34203
3400.05913	7.39144
3398.13057	7.51978
3396.20200	7.62896
3394.27344	7.67799
3392.34487	7.71449
3390.41631	7.75096
3388.48774	7.74907
3386.55918	7.73183
3384.63062	7.74062
3382.70205	7.79079
3380.77349	7.86018
3378.84492	7.88118
3376.91636	7.86940
3374.98779	7.88488
3373.05923	7.93175
3371.13066	7.96525
3369.20210	8.00138
3367.27354	8.05668
3365.34497	8.08531
3363.41641	8.06454
3361.48784	8.04026
3359.55928	8.05454
3357.63071	8.07650
3355.70215	8.11317
3353.77358	8.15620
3351.84502	8.15928
3349.91646	8.15048
3347.98789	8.19077
3346.05933	8.22990
3344.13076	8.19248
3342.20220	8.15955
3340.27363	8.21717
3338.34507	8.29849
3336.41650	8.32965
3334.48794	8.41866
3332.55937	8.54389
3330.63081	8.55480
3328.70225	8.45955
3326.77368	8.34544
3324.84512	8.29090
3322.91655	8.28132
3320.98799	8.24777
3319.05942	8.22029
3317.13086	8.29035
3315.20229	8.39196
3313.27373	8.41444
3311.34517	8.39937
3309.41660	8.41202
3307.48804	8.43834
3305.55947	8.47099
3303.63091	8.51406
3301.70234	8.48706
3299.77378	8.40232
3297.84521	8.34639
3295.91665	8.38393
3293.98809	8.50787
3292.05952	8.60588
3290.13096	8.61997
3288.20239	8.59672
3286.27383	8.51223
3284.34526	8.36339
3282.41670	8.31707
3280.48813	8.41755
3278.55957	8.52328
3276.63101	8.52507
3274.70244	8.42520
3272.77388	8.32367
3270.84531	8.33085
3268.91675	8.42568
3266.98818	8.52541
3265.05962	8.58235
3263.13105	8.57677
3261.20249	8.61259
3259.27393	8.68383
3257.34536	8.63275
3255.41680	8.53316
3253.48823	8.50846
3251.55967	8.48827
3249.63110	8.42765
3247.70254	8.38973
3245.77397	8.36874
3243.84541	8.34749
3241.91685	8.40613
3239.98828	8.54480
3238.05972	8.58145
3236.13115	8.47814
3234.20259	8.38930
3232.27402	8.36706
3230.34546	8.37958
3228.41689	8.42749
3226.48833	8.48749
3224.55977	8.50425
3222.63120	8.48857
3220.70264	8.41063
3218.77407	8.29005
3216.84551	8.21686
3214.91694	8.20589
3212.98838	8.19915
3211.05981	8.15842
3209.13125	8.12359
3207.20269	8.10097
3205.27412	8.06270
3203.34556	8.01126
3201.41699	7.98757
3199.48843	8.01166
3197.55986	8.01412
3195.63130	7.94963
3193.70273	7.88442
3191.77417	7.82846
3189.84561	7.71667
3187.91704	7.59258
3185.98848	7.53172
3184.05991	7.49206
3182.13135	7.43009
3180.20278	7.40176
3178.27422	7.41769
3176.34565	7.40480
3174.41709	7.33752
3172.48853	7.25869
3170.55996	7.18827
3168.63140	7.10772
3166.70283	7.02643
3164.77427	6.97548
3162.84570	6.95173
3160.91714	6.92675
3158.98857	6.87771
3157.06001	6.80735
3155.13145	6.72613
3153.20288	6.63103
3151.27432	6.53613
3149.34575	6.45687
3147.41719	6.39294
3145.48862	6.34218
3143.56006	6.28427
3141.63149	6.19621
3139.70293	6.09443
3137.77437	6.01570
3135.84580	5.95621
3133.91724	5.89243
3131.98867	5.82955
3130.06011	5.76780
3128.13154	5.69519
3126.20298	5.61852
3124.27441	5.54375
3122.34585	5.46503
3120.41729	5.38173
3118.48872	5.30119
3116.56016	5.23171
3114.63159	5.16655
3112.70303	5.09705
3110.77446	5.02634
3108.84590	4.95564
3106.91733	4.88593
3104.98877	4.81689
3103.06021	4.74501
3101.13164	4.67047
3099.20308	4.59920
3097.27451	4.53342
3095.34595	4.46951
3093.41738	4.40576
3091.48882	4.34120
3089.56025	4.27492
3087.63169	4.20824
3085.70312	4.14335
3083.77456	4.07940
3081.84600	4.01611
3079.91743	3.95433
3077.98887	3.89239
3076.06030	3.83110
3074.13174	3.77222
3072.20317	3.71262
3070.27461	3.65086
3068.34604	3.59181
3066.41748	3.53620
3064.48892	3.47968
3062.56035	3.42205
3060.63179	3.36583
3058.70322	3.31162
3056.77466	3.25832
3054.84609	3.20530
3052.91753	3.15328
3050.98896	3.10209
3049.06040	3.05034
3047.13184	2.99846
3045.20327	2.94776
3043.27471	2.89823
3041.34614	2.84987
3039.41758	2.80254
3037.48901	2.75523
3035.56045	2.70794
3033.63188	2.66211
3031.70332	2.61788
3029.77476	2.57383
3027.84619	2.52965
3025.91763	2.48607
3023.98906	2.44347
3022.06050	2.40167
3020.13193	2.36049
3018.20337	2.32007
3016.27480	2.27984
3014.34624	2.23928
3012.41768	2.19890
3010.48911	2.15951
3008.56055	2.12194
3006.63198	2.08597
3004.70342	2.05071
3002.77485	2.01608
3000.84629	1.98164
2998.91772	1.94700
2996.98916	1.91310
2995.06060	1.88011
2993.13203	1.84698
2991.20347	1.81393
2989.27490	1.78181
2987.34634	1.75107
2985.41777	1.72158
2983.48921	1.69218
2981.56064	1.66223
2979.63208	1.63234
2977.70352	1.60326
2975.77495	1.57494
2973.84639	1.54697
2971.91782	1.51969
2969.98926	1.49281
2968.06069	1.46532
2966.13213	1.43748
2964.20356	1.41033
2962.27500	1.38412
2960.34644	1.35838
2958.41787	1.33310
2956.48931	1.30863
2954.56074	1.28515
2952.63218	1.26258
2950.70361	1.24053
2948.77505	1.21854
2946.84648	1.19635
2944.91792	1.17395
2942.98936	1.15135
2941.06079	1.12828
2939.13223	1.10492
2937.20366	1.08186
2935.27510	1.05911
2933.34653	1.03608
2931.41797	1.01246
2929.48940	0.98832
2927.56084	0.96405
2925.63228	0.94042
2923.70371	0.91794
2921.77515	0.89654
2919.84658	0.87671
2917.91802	0.85995
2915.98945	0.84742
2914.06089	0.83881
2912.13232	0.83264
2910.20376	0.82641
2908.27520	0.81828
2906.34663	0.80834
2904.41807	0.79750
2902.48950	0.78637
2900.56094	0.77526
2898.63237	0.76436
2896.70381	0.75347
2894.77524	0.74224
2892.84668	0.73098
2890.91812	0.72032
2888.98955	0.70994
2887.06099	0.69940
2885.13242	0.68912
2883.20386	0.67916
2881.27529	0.66924
2879.34673	0.65916
2877.41816	0.64856
2875.48960	0.63764
2873.56104	0.62692
2871.63247	0.61609
2869.70391	0.60481
2867.77534	0.59365
2865.84678	0.58271
2863.91821	0.57123
2861.98965	0.55891
2860.06108	0.54596
2858.13252	0.53256
2856.20396	0.51882
2854.27539	0.50510
2852.34683	0.49185
2850.41826	0.48054
2848.48970	0.47391
2846.56113	0.47269
2844.63257	0.47389
2842.70400	0.47428
2840.77544	0.47282
2838.84687	0.46986
2836.91831	0.46588
2834.98975	0.46105
2833.06118	0.45575
2831.13262	0.45043
2829.20405	0.44504
2827.27549	0.43941
2825.34692	0.43365
2823.41836	0.42786
2821.48979	0.42200
2819.56123	0.41632
2817.63267	0.41086
2815.70410	0.40537
2813.77554	0.39991
2811.84697	0.39467
2809.91841	0.38959
2807.98984	0.38448
2806.06128	0.37931
2804.13271	0.37410
2802.20415	0.36890
2800.27559	0.36387
2798.34702	0.35921
2796.41846	0.35475
2794.48989	0.35017
2792.56133	0.34556
2790.63276	0.34106
2788.70420	0.33665
2786.77563	0.33247
2784.84707	0.32850
2782.91851	0.32461
2780.98994	0.32083
2779.06138	0.31709
2777.13281	0.31320
2775.20425	0.30928
2773.27568	0.30542
2771.34712	0.30162
2769.41855	0.29799
2767.48999	0.29456
2765.56143	0.29120
2763.63286	0.28790
2761.70430	0.28456
2759.77573	0.28112
2757.84717	0.27787
2755.91860	0.27503
2753.99004	0.27236
2752.06147	0.26956
2750.13291	0.26661
2748.20435	0.26374
2746.27578	0.26111
2744.34722	0.25847
2742.41865	0.25568
2740.49009	0.25304
2738.56152	0.25074
2736.63296	0.24853
2734.70439	0.24614
2732.77583	0.24361
2730.84727	0.24110
2728.91870	0.23870
2726.99014	0.23650
2725.06157	0.23444
2723.13301	0.23238
2721.20444	0.23045
2719.27588	0.22855
2717.34731	0.22644
2715.41875	0.22430
2713.49019	0.22248
2711.56162	0.22097
2709.63306	0.21945
2707.70449	0.21774
2705.77593	0.21599
2703.84736	0.21440
2701.91880	0.21299
2699.99023	0.21152
2698.06167	0.20998
2696.13311	0.20863
2694.20454	0.20730
2692.27598	0.20571
2690.34741	0.20413
2688.41885	0.20284
2686.49028	0.20154
2684.56172	0.20017
2682.63315	0.19908
2680.70459	0.19825
2678.77603	0.19726
2676.84746	0.19601
2674.91890	0.19476
2672.99033	0.19354
2671.06177	0.19240
2669.13320	0.19139
2667.20464	0.19051
2665.27607	0.18980
2663.34751	0.18899
2661.41895	0.18796
2659.49038	0.18702
2657.56182	0.18641
2655.63325	0.18585
2653.70469	0.18508
2651.77612	0.18422
2649.84756	0.18347
2647.91899	0.18287
2645.99043	0.18220
2644.06187	0.18147
2642.13330	0.18096
2640.20474	0.18061
2638.27617	0.18019
2636.34761	0.17968
2634.41904	0.17924
2632.49048	0.17902
2630.56191	0.17881
2628.63335	0.17843
2626.70479	0.17790
2624.77622	0.17732
2622.84766	0.17688
2620.91909	0.17667
2618.99053	0.17653
2617.06196	0.17631
2615.13340	0.17608
2613.20483	0.17600
2611.27627	0.17603
2609.34771	0.17607
2607.41914	0.17613
2605.49058	0.17609
2603.56201	0.17595
2601.63345	0.17593
2599.70488	0.17599
2597.77632	0.17609
2595.84775	0.17626
2593.91919	0.17634
2591.99062	0.17633
2590.06206	0.17646
2588.13350	0.17669
2586.20493	0.17683
2584.27637	0.17694
2582.34780	0.17715
2580.41924	0.17750
2578.49067	0.17793
2576.56211	0.17829
2574.63354	0.17862
2572.70498	0.17909
2570.77642	0.17960
2568.84785	0.18003
2566.91929	0.18050
2564.99072	0.18097
2563.06216	0.18125
2561.13359	0.18149
2559.20503	0.18200
2557.27646	0.18264
2555.34790	0.18323
2553.41934	0.18380
2551.49077	0.18438
2549.56221	0.18497
2547.63364	0.18556
2545.70508	0.18610
2543.77651	0.18662
2541.84795	0.18716
2539.91938	0.18772
2537.99082	0.18833
2536.06226	0.18903
2534.13369	0.18982
2532.20513	0.19071
2530.27656	0.19159
2528.34800	0.19231
2526.41943	0.19295
2524.49087	0.19368
2522.56230	0.19453
2520.63374	0.19542
2518.70518	0.19620
2516.77661	0.19687
2514.84805	0.19758
2512.91948	0.19838
2510.99092	0.19923
2509.06235	0.20012
2507.13379	0.20097
2505.20522	0.20176
2503.27666	0.20248
2501.34810	0.20326
2499.41953	0.20416
2497.49097	0.20504
2495.56240	0.20588
2493.63384	0.20676
2491.70527	0.20766
2489.77671	0.20847
2487.84814	0.20923
2485.91958	0.21016
2483.99102	0.21118
2482.06245	0.21209
2480.13389	0.21293
2478.20532	0.21380
2476.27676	0.21475
2474.34819	0.21578
2472.41963	0.21679
2470.49106	0.21783
2468.56250	0.21884
2466.63394	0.21971
2464.70537	0.22063
2462.77681	0.22163
2460.84824	0.22257
2458.91968	0.22346
2456.99111	0.22448
2455.06255	0.22559
2453.13398	0.22656
2451.20542	0.22735
2449.27686	0.22824
2447.34829	0.22933
2445.41973	0.23043
2443.49116	0.23140
2441.56260	0.23226
2439.63403	0.23319
2437.70547	0.23430
2435.77690	0.23560
2433.84834	0.23682
2431.91978	0.23777
2429.99121	0.23868
2428.06265	0.23971
2426.13408	0.24075
2424.20552	0.24180
2422.27695	0.24299
2420.34839	0.24419
2418.41982	0.24527
2416.49126	0.24640
2414.56270	0.24769
2412.63413	0.24893
2410.70557	0.25007
2408.77700	0.25128
2406.84844	0.25258
2404.91987	0.25386
2402.99131	0.25505
2401.06274	0.25617
2399.13418	0.25727
2397.20562	0.25849
2395.27705	0.25981
2393.34849	0.26108
2391.41992	0.26236
2389.49136	0.26392
2387.56279	0.26603
2385.63423	0.26909
2383.70566	0.27354
2381.77710	0.27953
2379.84854	0.28680
2377.91997	0.29493
2375.99141	0.30378
2374.06284	0.31393
2372.13428	0.32599
2370.20571	0.33939
2368.27715	0.35290
2366.34858	0.36553
2364.42002	0.37595
2362.49146	0.38437
2360.56289	0.39139
2358.63433	0.39404
2356.70576	0.38993
2354.77720	0.38073
2352.84863	0.36872
2350.92007	0.35627
2348.99150	0.34865
2347.06294	0.34931
2345.13437	0.35874
2343.20581	0.37162
2341.27725	0.37841
2339.34868	0.37850
2337.42012	0.37700
2335.49155	0.37682
2333.56299	0.37742
2331.63442	0.37795
2329.70586	0.37760
2327.77729	0.37606
2325.84873	0.37391
2323.92017	0.37145
2321.99160	0.36855
2320.06304	0.36518
2318.13447	0.36142
2316.20591	0.35805
2314.27734	0.35600
2312.34878	0.35532
2310.42021	0.35515
2308.49165	0.35441
2306.56309	0.35289
2304.63452	0.35137
2302.70596	0.35049
2300.77739	0.35027
2298.84883	0.35054
2296.92026	0.35105
2294.99170	0.35158
2293.06313	0.35209
2291.13457	0.35270
2289.20601	0.35341
2287.27744	0.35403
2285.34888	0.35466
2283.42031	0.35567
2281.49175	0.35737
2279.56318	0.35969
2277.63462	0.36221
2275.70605	0.36470
2273.77749	0.36703
2271.84893	0.36916
2269.92036	0.37119
2267.99180	0.37320
2266.06323	0.37517
2264.13467	0.37714
2262.20610	0.37918
2260.27754	0.38112
2258.34897	0.38293
2256.42041	0.38479
2254.49185	0.38683
2252.56328	0.38892
2250.63472	0.39090
2248.70615	0.39286
2246.77759	0.39489
2244.84902	0.39694
2242.92046	0.39915
2240.99189	0.40148
2239.06333	0.40371
2237.13477	0.40582
2235.20620	0.40792
2233.27764	0.41010
2231.34907	0.41231
2229.42051	0.41446
2227.49194	0.41662
2225.56338	0.41889
2223.63481	0.42118
2221.70625	0.42337
2219.77769	0.42549
2217.84912	0.42761
2215.92056	0.42971
2213.99199	0.43181
2212.06343	0.43401
2210.13486	0.43630
2208.20630	0.43849
2206.27773	0.44052
2204.34917	0.44248
2202.42061	0.44452
2200.49204	0.44664
2198.56348	0.44873
2196.63491	0.45065
2194.70635	0.45254
2192.77778	0.45451
2190.84922	0.45641
2188.92065	0.45815
2186.99209	0.45988
2185.06353	0.46166
2183.13496	0.46344
2181.20640	0.46526
2179.27783	0.46710
2177.34927	0.46873
2175.42070	0.47017
2173.49214	0.47160
2171.56357	0.47305
2169.63501	0.47449
2167.70645	0.47590
2165.77788	0.47722
2163.84932	0.47836
2161.92075	0.47941
2159.99219	0.48052
2158.06362	0.48162
2156.13506	0.48268
2154.20649	0.48369
2152.27793	0.48453
2150.34937	0.48517
2148.42080	0.48575
2146.49224	0.48629
2144.56367	0.48678
2142.63511	0.48724
2140.70654	0.48765
2138.77798	0.48802
2136.84941	0.48824
2134.92085	0.48830
2132.99229	0.48822
2131.06372	0.48805
2129.13516	0.48789
2127.20659	0.48783
2125.27803	0.48764
2123.34946	0.48718
2121.42090	0.48658
2119.49233	0.48598
2117.56377	0.48539
2115.63521	0.48473
2113.70664	0.48403
2111.77808	0.48323
2109.84951	0.48222
2107.92095	0.48104
2105.99238	0.47986
2104.06382	0.47874
2102.13525	0.47754
2100.20669	0.47617
2098.27812	0.47469
2096.34956	0.47319
2094.42100	0.47168
2092.49243	0.47016
2090.56387	0.46860
2088.63530	0.46685
2086.70674	0.46490
2084.77817	0.46289
2082.84961	0.46097
2080.92104	0.45909
2078.99248	0.45709
2077.06392	0.45495
2075.13535	0.45273
2073.20679	0.45050
2071.27822	0.44824
2069.34966	0.44596
2067.42109	0.44376
2065.49253	0.44154
2063.56396	0.43907
2061.63540	0.43652
2059.70684	0.43402
2057.77827	0.43141
2055.84971	0.42880
2053.92114	0.42632
2051.99258	0.42378
2050.06401	0.42111
2048.13545	0.41848
2046.20688	0.41589
2044.27832	0.41326
2042.34976	0.41058
2040.42119	0.40777
2038.49263	0.40482
2036.56406	0.40188
2034.63550	0.39901
2032.70693	0.39616
2030.77837	0.39336
2028.84980	0.39055
2026.92124	0.38774
2024.99268	0.38494
2023.06411	0.38215
2021.13555	0.37938
2019.20698	0.37675
2017.27842	0.37413
2015.34985	0.37122
2013.42129	0.36810
2011.49272	0.36508
2009.56416	0.36232
2007.63560	0.35963
2005.70703	0.35689
2003.77847	0.35416
2001.84990	0.35142
1999.92134	0.34869
1997.99277	0.34604
1996.06421	0.34349
1994.13564	0.34120
1992.20708	0.33897
1990.27852	0.33628
1988.34995	0.33342
1986.42139	0.33072
1984.49282	0.32816
1982.56426	0.32571
1980.63569	0.32325
1978.70713	0.32084
1976.77856	0.31853
1974.85000	0.31624
1972.92144	0.31396
1970.99287	0.31179
1969.06431	0.30994
1967.13574	0.30821
1965.20718	0.30604
1963.27861	0.30362
1961.35005	0.30142
1959.42148	0.29940
1957.49292	0.29753
1955.56436	0.29572
1953.63579	0.29386
1951.70723	0.29198
1949.77866	0.29023
1947.85010	0.28866
1945.92153	0.28735
1943.99297	0.28624
1942.06440	0.28476
1940.13584	0.28275
1938.20728	0.28090
1936.27871	0.27940
1934.35015	0.27801
1932.42158	0.27669
1930.49302	0.27538
1928.56445	0.27416
1926.63589	0.27315
1924.70732	0.27252
1922.77876	0.27191
1920.85020	0.27089
1918.92163	0.26989
1916.99307	0.26897
1915.06450	0.26772
1913.13594	0.26653
1911.20737	0.26583
1909.27881	0.26525
1907.35024	0.26439
1905.42168	0.26345
1903.49312	0.26270
1901.56455	0.26199
1899.63599	0.26133
1897.70742	0.26102
1895.77886	0.26092
1893.85029	0.26059
1891.92173	0.26014
1889.99316	0.26002
1888.06460	0.25974
1886.13604	0.25918
1884.20747	0.25879
1882.27891	0.25850
1880.35034	0.25822
1878.42178	0.25811
1876.49321	0.25809
1874.56465	0.25802
1872.63608	0.25820
1870.70752	0.25903
1868.77896	0.26041
1866.85039	0.26076
1864.92183	0.25991
1862.99326	0.25930
1861.06470	0.25924
1859.13613	0.25946
1857.20757	0.25973
1855.27900	0.26009
1853.35044	0.26053
1851.42187	0.26108
1849.49331	0.26181
1847.56475	0.26286
1845.63618	0.26429
1843.70762	0.26560
1841.77905	0.26587
1839.85049	0.26579
1837.92192	0.26634
1835.99336	0.26713
1834.06479	0.26797
1832.13623	0.26931
1830.20767	0.27143
1828.27910	0.27315
1826.35054	0.27392
1824.42197	0.27479
1822.49341	0.27548
1820.56484	0.27626
1818.63628	0.27753
1816.70771	0.27921
1814.77915	0.28096
1812.85059	0.28298
1810.92202	0.28531
1808.99346	0.28732
1807.06489	0.28896
1805.13633	0.29071
1803.20776	0.29313
1801.27920	0.29621
1799.35063	0.29932
1797.42207	0.30173
1795.49351	0.30413
1793.56494	0.30725
1791.63638	0.31102
1789.70781	0.31393
1787.77925	0.31595
1785.85068	0.31889
1783.92212	0.32265
1781.99355	0.32678
1780.06499	0.33115
1778.13643	0.33542
1776.20786	0.33952
1774.27930	0.34438
1772.35073	0.35101
1770.42217	0.35737
1768.49360	0.36186
1766.56504	0.36613
1764.63647	0.37085
1762.70791	0.37656
1760.77935	0.38387
1758.85078	0.39043
1756.92222	0.39686
1754.99365	0.40377
1753.06509	0.41014
1751.13652	0.41833
1749.20796	0.42897
1747.27939	0.43906
1745.35083	0.44753
1743.42227	0.45675
1741.49370	0.46745
1739.56514	0.48048
1737.63657	0.49361
1735.70801	0.50534
1733.77944	0.52342
1731.85088	0.54429
1729.92231	0.55958
1727.99375	0.57490
1726.06519	0.59166
1724.13662	0.61043
1722.20806	0.63089
1720.27949	0.64997
1718.35093	0.67284
1716.42236	0.70682
1714.49380	0.73766
1712.56523	0.76127
1710.63667	0.78429
1708.70811	0.80980
1706.77954	0.83980
1704.85098	0.87631
1702.92241	0.90834
1700.99385	0.93910
1699.06528	0.98563
1697.13672	1.02846
1695.20815	1.07129
1693.27959	1.11193
1691.35103	1.14469
1689.42246	1.18356
1687.49390	1.22482
1685.56533	1.26429
1683.63677	1.32693
1681.70820	1.39163
1679.77964	1.43063
1677.85107	1.46781
1675.92251	1.51143
1673.99395	1.56644
1672.06538	1.61545
1670.13682	1.66337
1668.20825	1.72522
1666.27969	1.77336
1664.35112	1.81348
1662.42256	1.86418
1660.49399	1.92132
1658.56543	1.96445
1656.63687	1.99936
1654.70830	2.03397
1652.77974	2.09648
1650.85117	2.15595
1648.92261	2.17493
1646.99404	2.20201
1645.06548	2.23200
1643.13691	2.24992
1641.20835	2.26114
1639.27979	2.27380
1637.35122	2.28331
1635.42266	2.28398
1633.49409	2.27590
1631.56553	2.26383
1629.63696	2.24945
1627.70840	2.22415
1625.77983	2.19561
1623.85127	2.15894
1621.92271	2.11064
1619.99414	2.06652
1618.06558	2.02328
1616.13701	1.96098
1614.20845	1.89857
1612.27988	1.85180
1610.35132	1.80215
1608.42275	1.74748
1606.49419	1.69325
1604.56562	1.64389
1602.63706	1.59626
1600.70850	1.54906
1598.77993	1.50547
1596.85137	1.46474
1594.92280	1.42500
1592.99424	1.38607
1591.06567	1.35023
1589.13711	1.31655
1587.20854	1.28488
1585.27998	1.25509
1583.35142	1.22677
1581.42285	1.20096
1579.49429	1.17956
1577.56572	1.16073
1575.63716	1.13610
1573.70859	1.11311
1571.78003	1.09843
1569.85146	1.08314
1567.92290	1.06506
1565.99434	1.05084
1564.06577	1.03949
1562.13721	1.03075
1560.20864	1.02508
1558.28008	1.01478
1556.35151	1.00265
1554.42295	0.99519
1552.49438	0.98842
1550.56582	0.98130
1548.63726	0.97302
1546.70869	0.96511
1544.78013	0.95787
1542.85156	0.95027
1540.92300	0.93945
1538.99443	0.91899
1537.06587	0.90300
1535.13730	0.89356
1533.20874	0.88165
1531.28018	0.86799
1529.35161	0.85811
1527.42305	0.84956
1525.49448	0.84105
1523.56592	0.83415
1521.63735	0.82733
1519.70879	0.81851
1517.78022	0.81050
1515.85166	0.80203
1513.92310	0.79342
1511.99453	0.78665
1510.06597	0.78165
1508.13740	0.77791
1506.20884	0.76890
1504.28027	0.75783
1502.35171	0.75159
1500.42314	0.74721
1498.49458	0.74316
1496.56602	0.73807
1494.63745	0.73241
1492.70889	0.72827
1490.78032	0.72546
1488.85176	0.72217
1486.92319	0.71763
1484.99463	0.71310
1483.06606	0.70956
1481.13750	0.70683
1479.20894	0.70456
1477.28037	0.70292
1475.35181	0.70187
1473.42324	0.70054
1471.49468	0.69690
1469.56611	0.69233
1467.63755	0.68918
1465.70898	0.68739
1463.78042	0.68604
1461.85186	0.68491
1459.92329	0.68486
1457.99473	0.68576
1456.06616	0.68450
1454.13760	0.68062
1452.20903	0.67741
1450.28047	0.67497
1448.35190	0.67292
1446.42334	0.67057
1444.49478	0.66799
1442.56621	0.66577
1440.63765	0.66388
1438.70908	0.66236
1436.78052	0.66075
1434.85195	0.65841
1432.92339	0.65629
1430.99482	0.65492
1429.06626	0.65359
1427.13770	0.65217
1425.20913	0.65135
1423.28057	0.65100
1421.35200	0.65063
1419.42344	0.65019
1417.49487	0.64885
1415.56631	0.64649
1413.63774	0.64457
1411.70918	0.64341
1409.78062	0.64259
1407.85205	0.64195
1405.92349	0.64182
1403.99492	0.64179
1402.06636	0.64106
1400.13779	0.64003
1398.20923	0.63887
1396.28066	0.63725
1394.35210	0.63485
1392.42354	0.63191
1390.49497	0.62936
1388.56641	0.62739
1386.63784	0.62508
1384.70928	0.62205
1382.78071	0.61920
1380.85215	0.61677
1378.92358	0.61474
1376.99502	0.61347
1375.06646	0.61299
1373.13789	0.61228
1371.20933	0.61101
1369.28076	0.61006
1367.35220	0.60929
1365.42363	0.60843
1363.49507	0.60770
1361.56650	0.60660
1359.63794	0.60482
1357.70937	0.60321
1355.78081	0.60204
1353.85225	0.60094
1351.92368	0.59975
1349.99512	0.59864
1348.06655	0.59758
1346.13799	0.59650
1344.20942	0.59556
1342.28086	0.59504
1340.35229	0.59492
1338.42373	0.59434
1336.49517	0.59292
1334.56660	0.59148
1332.63804	0.59048
1330.70947	0.58978
1328.78091	0.58930
1326.85234	0.58892
1324.92378	0.58858
1322.99521	0.58838
1321.06665	0.58831
1319.13809	0.58818
1317.20952	0.58780
1315.28096	0.58720
1313.35239	0.58652
1311.42383	0.58563
1309.49526	0.58461
1307.56670	0.58370
1305.63813	0.58286
1303.70957	0.58190
1301.78101	0.58076
1299.85244	0.57958
1297.92388	0.57854
1295.99531	0.57765
1294.06675	0.57681
1292.13818	0.57589
1290.20962	0.57486
1288.28105	0.57384
1286.35249	0.57298
1284.42393	0.57229
1282.49536	0.57147
1280.56680	0.57048
1278.63823	0.56953
1276.70967	0.56872
1274.78110	0.56792
1272.85254	0.56707
1270.92397	0.56638
1268.99541	0.56592
1267.06685	0.56536
1265.13828	0.56442
1263.20972	0.56348
1261.28115	0.56310
1259.35259	0.56303
1257.42402	0.56270
1255.49546	0.56225
1253.56689	0.56196
1251.63833	0.56184
1249.70977	0.56174
1247.78120	0.56161
1245.85264	0.56149
1243.92407	0.56122
1241.99551	0.56074
1240.06694	0.56002
1238.13838	0.55895
1236.20981	0.55768
1234.28125	0.55653
1232.35269	0.55541
1230.42412	0.55412
1228.49556	0.55274
1226.56699	0.55136
1224.63843	0.55002
1222.70986	0.54877
1220.78130	0.54764
1218.85273	0.54661
1216.92417	0.54565
1214.99561	0.54474
1213.06704	0.54384
1211.13848	0.54295
1209.20991	0.54217
1207.28135	0.54142
1205.35278	0.54058
1203.42422	0.53989
1201.49565	0.53931
1199.56709	0.53857
1197.63853	0.53770
1195.70996	0.53691
1193.78140	0.53621
1191.85283	0.53555
1189.92427	0.53487
1187.99570	0.53421
1186.06714	0.53372
1184.13857	0.53350
1182.21001	0.53347
1180.28145	0.53366
1178.35288	0.53431
1176.42432	0.53526
1174.49575	0.53608
1172.56719	0.53674
1170.63862	0.53743
1168.71006	0.53829
1166.78149	0.53922
1164.85293	0.54005
1162.92437	0.54078
1160.99580	0.54130
1159.06724	0.54147
1157.13867	0.54134
1155.21011	0.54085
1153.28154	0.53985
1151.35298	0.53830
1149.42441	0.53615
1147.49585	0.53355
1145.56729	0.53085
1143.63872	0.52823
1141.71016	0.52570
1139.78159	0.52345
1137.85303	0.52181
1135.92446	0.52056
1133.99590	0.51934
1132.06733	0.51840
1130.13877	0.51789
1128.21021	0.51739
1126.28164	0.51665
1124.35308	0.51594
1122.42451	0.51547
1120.49595	0.51517
1118.56738	0.51523
1116.63882	0.51575
1114.71025	0.51631
1112.78169	0.51682
1110.85312	0.51762
1108.92456	0.51868
1106.99600	0.51970
1105.06743	0.52067
1103.13887	0.52171
1101.21030	0.52278
1099.28174	0.52392
1097.35317	0.52571
1095.42461	0.52842
1093.49604	0.53197
1091.56748	0.53677
1089.63892	0.54306
1087.71035	0.55047
1085.78179	0.55856
1083.85322	0.56687
1081.92466	0.57450
1079.99609	0.58030
1078.06753	0.58351
1076.13896	0.58382
1074.21040	0.58116
1072.28184	0.57610
1070.35327	0.56972
1068.42471	0.56277
1066.49614	0.55582
1064.56758	0.54952
1062.63901	0.54407
1060.71045	0.53928
1058.78188	0.53509
1056.85332	0.53147
1054.92476	0.52825
1052.99619	0.52543
1051.06763	0.52303
1049.13906	0.52122
1047.21050	0.52024
1045.28193	0.52005
1043.35337	0.52018
1041.42480	0.52033
1039.49624	0.52059
1037.56768	0.52079
1035.63911	0.52063
1033.71055	0.52017
1031.78198	0.51949
1029.85342	0.51832
1027.92485	0.51685
1025.99629	0.51562
1024.06772	0.51473
1022.13916	0.51404
1020.21060	0.51352
1018.28203	0.51317
1016.35347	0.51301
1014.42490	0.51303
1012.49634	0.51316
1010.56777	0.51331
1008.63921	0.51352
1006.71064	0.51403
1004.78208	0.51510
1002.85352	0.51690
1000.92495	0.51943
998.99639	0.52264
997.06782	0.52648
995.13926	0.53062
993.21069	0.53448
991.28213	0.53749
989.35356	0.53940
987.42500	0.54032
985.49644	0.54052
983.56787	0.54050
981.63931	0.54067
979.71074	0.54137
977.78218	0.54277
975.85361	0.54478
973.92505	0.54716
971.99648	0.54993
970.06792	0.55335
968.13936	0.55728
966.21079	0.56140
964.28223	0.56579
962.35366	0.57056
960.42510	0.57556
958.49653	0.58083
956.56797	0.58633
954.63940	0.59178
952.71084	0.59751
950.78228	0.60379
948.85371	0.61020
946.92515	0.61655
944.99658	0.62289
943.06802	0.62904
941.13945	0.63496
939.21089	0.64059
937.28232	0.64588
935.35376	0.65155
933.42520	0.65803
931.49663	0.66439
929.56807	0.66988
927.63950	0.67531
925.71094	0.68130
923.78237	0.68768
921.85381	0.69436
919.92524	0.70088
917.99668	0.70735
916.06812	0.71475
914.13955	0.72293
912.21099	0.73090
910.28242	0.73881
908.35386	0.74716
906.42529	0.75550
904.49673	0.76401
902.56816	0.77318
900.63960	0.78226
898.71104	0.79119
896.78247	0.80064
894.85391	0.81036
892.92534	0.82015
890.99678	0.83059
889.06821	0.84178
887.13965	0.85317
885.21108	0.86473
883.28252	0.87573
881.35396	0.88551
879.42539	0.89637
877.49683	0.90956
875.56826	0.92252
873.63970	0.93352
871.71113	0.94402
869.78257	0.95542
867.85400	0.96732
865.92544	0.97872
863.99687	0.98930
862.06831	0.99997
860.13975	1.01171
858.21118	1.02390
856.28262	1.03500
854.35405	1.04635
852.42549	1.05939
850.49692	1.07232
848.56836	1.08439
846.63979	1.09640
844.71123	1.10888
842.78267	1.12060
840.85410	1.13020
838.92554	1.13989
836.99697	1.15167
835.06841	1.16444
833.13984	1.17721
831.21128	1.18835
829.28271	1.19784
827.35415	1.21018
825.42559	1.22589
823.49702	1.24019
821.56846	1.24911
819.63989	1.25331
817.71133	1.26031
815.78276	1.27843
813.85420	1.30379
811.92563	1.31980
809.99707	1.32268
808.06851	1.32867
806.13994	1.35086
804.21138	1.38052
802.28281	1.39648
800.35425	1.40065
798.42568	1.40279
796.49712	1.39715
794.56855	1.40065
792.63999	1.43112
790.71143	1.46850
788.78286	1.47413
786.85430	1.45066
784.92573	1.48751
782.99717	1.60302
781.06860	1.59803
779.14004	1.48909
777.21147	1.46628
775.28291	1.53240
773.35435	1.60249
771.42578	1.71145
769.49722	1.92202
767.56865	1.83366
765.64009	1.57786
763.71152	1.50148
761.78296	1.54590
759.85439	1.55021
757.92583	1.51711
755.99727	1.61401
754.06870	2.04386
752.14014	1.75844
750.21157	1.38581
748.28301	1.31142
746.35444	1.42513
744.42588	1.55913
742.49731	1.38932
740.56875	1.19022
738.64019	1.09421
736.71162	1.04763
734.78306	0.95814
732.85449	0.80680
730.92593	0.68119
728.99736	0.63773
727.06880	0.67978
725.14023	0.64021
723.21167	0.51162
721.28311	0.46439
719.35454	0.21581
717.42598	-0.16030
715.49741	0.04991
713.56885	4.28141
711.64028	0.63647
709.71172	-0.15596
707.78315	-0.01719
705.85459	0.71778
703.92603	4.22356
701.99746	0.65543
700.06890	0.39045
698.14033	0.30409
696.21177	0.37595
694.28320	0.47734
692.35464	0.41983
690.42607	0.36339
688.49751	0.40426
686.56895	0.51160
684.64038	0.72985
682.71182	1.01058
680.78325	0.82698
678.85469	0.60106
676.92612	0.60560
674.99756	0.95974
673.06899	1.20711
671.14043	0.60652
669.21187	0.41713
667.28330	0.36890
665.35474	0.39811
663.42617	0.44971
661.49761	0.53948
659.56904	0.63326
657.64048	0.61915
655.71191	0.62972
653.78335	0.78232
651.85479	0.69289
649.92622	0.52547
647.99766	0.50207
646.06909	0.52575
644.14053	0.56380
642.21196	0.80732
640.28340	1.53245
638.35483	0.69999
636.42627	0.49174
634.49771	0.44907
632.56914	0.36239
630.64058	0.26587
628.71201	0.25448
626.78345	0.38702
624.85488	0.73362
622.92632	3.73756
620.99775	3.72599
619.06919	0.67573
617.14062	0.36772
615.21206	0.28949
613.28350	0.27746
611.35493	0.27818
609.42637	0.30151
607.49780	0.31581
605.56924	0.33922
603.64067	0.37796
601.71211	0.36036
599.78354	0.32528
597.85498	0.30730
595.92642	0.28256
593.99785	0.31572
592.06929	0.41815
590.14072	0.49396
588.21216	0.56653
586.28359	0.72873
584.35503	0.61058
582.42646	0.43006
580.49790	0.38867
578.56934	0.45162
576.64077	0.40886
574.71221	0.28465
572.78364	0.25004
570.85508	0.33303
568.92651	0.46738
566.99795	0.44452
565.06938	0.36812
563.14082	0.40301
561.21226	0.44452
559.28369	0.40148
557.35513	0.36540
555.42656	0.41735
553.49800	0.64182
551.56943	0.74594
549.64087	0.47062
547.71230	0.35890
545.78374	0.34937
543.85518	0.36797
541.92661	0.41404
539.99805	0.41907
538.06948	0.34997
536.14092	0.28956
534.21235	0.23297
532.28379	0.19354
530.35522	0.20948
528.42666	0.27779
526.49810	0.30671
524.56953	0.26955
522.64097	0.24623
520.71240	0.27928
518.78384	0.34273
516.85527	0.35311
514.92671	0.32215
512.99814	0.30646
511.06958	0.30871
509.14102	0.29530
507.21245	0.33872
505.28389	0.56360
503.35532	3.02013
501.42676	1.17045
499.49819	0.49882
