3997.91411	0.06931
3995.98555	0.06962
3994.05698	0.06993
3992.12842	0.07011
3990.19985	0.07017
3988.27129	0.07045
3986.34272	0.07094
3984.41416	0.07137
3982.48560	0.07154
3980.55703	0.07143
3978.62847	0.07142
3976.69990	0.07181
3974.77134	0.07243
3972.84277	0.07298
3970.91421	0.07316
3968.98564	0.07310
3967.05708	0.07325
3965.12852	0.07353
3963.19995	0.07364
3961.27139	0.07362
3959.34282	0.07344
3957.41426	0.07315
3955.48569	0.07297
3953.55713	0.07285
3951.62856	0.07304
3949.70000	0.07370
3947.77144	0.07423
3945.84287	0.07421
3943.91431	0.07397
3941.98574	0.07397
3940.05718	0.07400
3938.12861	0.07390
3936.20005	0.07386
3934.27148	0.07404
3932.34292	0.07440
3930.41436	0.07460
3928.48579	0.07441
3926.55723	0.07397
3924.62866	0.07362
3922.70010	0.07343
3920.77153	0.07326
3918.84297	0.07339
3916.91440	0.07399
3914.98584	0.07415
3913.05728	0.07328
3911.12871	0.07239
3909.20015	0.07222
3907.27158	0.07270
3905.34302	0.07391
3903.41445	0.07573
3901.48589	0.07670
3899.55732	0.07624
3897.62876	0.07537
3895.70020	0.07453
3893.77163	0.07409
3891.84307	0.07437
3889.91450	0.07448
3887.98594	0.07384
3886.05737	0.07373
3884.12881	0.07447
3882.20024	0.07494
3880.27168	0.07511
3878.34312	0.07525
3876.41455	0.07513
3874.48599	0.07522
3872.55742	0.07574
3870.62886	0.07657
3868.70029	0.07740
3866.77173	0.07752
3864.84316	0.07766
3862.91460	0.07820
3860.98604	0.07816
3859.05747	0.07765
3857.12891	0.07760
3855.20034	0.07859
3853.27178	0.08093
3851.34321	0.08244
3849.41465	0.08114
3847.48608	0.07988
3845.55752	0.07986
3843.62896	0.08086
3841.70039	0.08229
3839.77183	0.08381
3837.84326	0.08520
3835.91470	0.08537
3833.98613	0.08483
3832.05757	0.08514
3830.12900	0.08587
3828.20044	0.08619
3826.27187	0.08665
3824.34331	0.08746
3822.41475	0.08880
3820.48618	0.09130
3818.55762	0.09269
3816.62905	0.09256
3814.70049	0.09276
3812.77192	0.09279
3810.84336	0.09279
3808.91479	0.09341
3806.98623	0.09520
3805.05767	0.09759
3803.12910	0.09914
3801.20054	0.10100
3799.27197	0.10283
3797.34341	0.10319
3795.41484	0.10331
3793.48628	0.10320
3791.55771	0.10308
3789.62915	0.10393
3787.70059	0.10554
3785.77202	0.10748
3783.84346	0.10966
3781.91489	0.11171
3779.98633	0.11372
3778.05776	0.11547
3776.12920	0.11618
3774.20063	0.11697
3772.27207	0.11879
3770.34351	0.12139
3768.41494	0.12385
3766.48638	0.12537
3764.55781	0.12691
3762.62925	0.12865
3760.70068	0.13064
3758.77212	0.13384
3756.84355	0.13716
3754.91499	0.13896
3752.98643	0.14095
3751.05786	0.14525
3749.12930	0.15031
3747.20073	0.15235
3745.27217	0.15384
3743.34360	0.15739
3741.41504	0.16104
3739.48647	0.16338
3737.55791	0.16620
3735.62935	0.17122
3733.70078	0.17790
3731.77222	0.18284
3729.84365	0.18610
3727.91509	0.18943
3725.98652	0.19458
3724.05796	0.20154
3722.12939	0.20847
3720.20083	0.21527
3718.27227	0.22228
3716.34370	0.22948
3714.41514	0.23696
3712.48657	0.24622
3710.55801	0.25965
3708.62944	0.27407
3706.70088	0.28549
3704.77231	0.29639
3702.84375	0.30940
3700.91519	0.32646
3698.98662	0.34496
3697.05806	0.36217
3695.12949	0.38063
3693.20093	0.40069
3691.27236	0.42284
3689.34380	0.45203
3687.41523	0.48725
3685.48667	0.51695
3683.55811	0.54287
3681.62954	0.57119
3679.70098	0.60316
3677.77241	0.63681
3675.84385	0.67681
3673.91528	0.73131
3671.98672	0.77464
3670.05815	0.81311
3668.12959	0.86809
3666.20103	0.91707
3664.27246	0.95667
3662.34390	0.99952
3660.41533	1.04645
3658.48677	1.09308
3656.55820	1.14304
3654.62964	1.19900
3652.70107	1.24515
3650.77251	1.28453
3648.84395	1.34165
3646.91538	1.41418
3644.98682	1.46467
3643.05825	1.50267
3641.12969	1.54231
3639.20112	1.58624
3637.27256	1.63085
3635.34399	1.67442
3633.41543	1.71737
3631.48687	1.75700
3629.55830	1.79736
3627.62974	1.85275
3625.70117	1.90525
3623.77261	1.93957
3621.84404	1.97216
3619.91548	2.01067
3617.98691	2.05851
3616.05835	2.10346
3614.12979	2.13997
3612.20122	2.17937
3610.27266	2.21954
3608.34409	2.25978
3606.41553	2.30261
3604.48696	2.34170
3602.55840	2.37624
3600.62983	2.41464
3598.70127	2.45749
3596.77271	2.49916
3594.84414	2.54012
3592.91558	2.58080
3590.98701	2.61859
3589.05845	2.65420
3587.12988	2.69759
3585.20132	2.74632
3583.27275	2.78785
3581.34419	2.82727
3579.41562	2.87025
3577.48706	2.91461
3575.55850	2.95863
3573.62993	3.00343
3571.70137	3.04556
3569.77280	3.08482
3567.84424	3.12642
3565.91567	3.17782
3563.98711	3.22860
3562.05854	3.27077
3560.12998	3.31382
3558.20142	3.35893
3556.27285	3.40377
3554.34429	3.44837
3552.41572	3.49552
3550.48716	3.54411
3548.55859	3.59029
3546.63003	3.63613
3544.70146	3.68581
3542.77290	3.73460
3540.84434	3.77888
3538.91577	3.82331
3536.98721	3.87033
3535.05864	3.91979
3533.13008	3.96816
3531.20151	4.01504
3529.27295	4.06115
3527.34438	4.10656
3525.41582	4.15322
3523.48726	4.20526
3521.55869	4.26070
3519.63013	4.30915
3517.70156	4.35296
3515.77300	4.40122
3513.84443	4.45442
3511.91587	4.50430
3509.98730	4.54858
3508.05874	4.59612
3506.13018	4.64834
3504.20161	4.69731
3502.27305	4.74129
3500.34448	4.78410
3498.41592	4.82793
3496.48735	4.87625
3494.55879	4.92953
3492.63022	4.98220
3490.70166	5.03105
3488.77310	5.07656
3486.84453	5.12179
3484.91597	5.17032
3482.98740	5.21680
3481.05884	5.26147
3479.13027	5.31313
3477.20171	5.36654
3475.27314	5.41472
3473.34458	5.46224
3471.41602	5.51022
3469.48745	5.55361
3467.55889	5.59841
3465.63032	5.65356
3463.70176	5.70722
3461.77319	5.74652
3459.84463	5.78352
3457.91606	5.82957
3455.98750	5.88700
3454.05894	5.94591
3452.13037	5.99164
3450.20181	6.02732
3448.27324	6.06514
3446.34468	6.11506
3444.41611	6.16486
3442.48755	6.21276
3440.55898	6.27302
3438.63042	6.33668
3436.70186	6.38378
3434.77329	6.42463
3432.84473	6.48419
3430.91616	6.54344
3428.98760	6.58565
3427.05903	6.63652
3425.13047	6.71173
3423.20190	6.78434
3421.27334	6.82669
3419.34478	6.84182
3417.41621	6.86230
3415.48765	6.90336
3413.55908	6.94407
3411.63052	6.97621
3409.70195	7.00589
3407.77339	7.04988
3405.84482	7.10414
3403.91626	7.15468
3401.98770	7.18935
3400.05913	7.21491
3398.13057	7.26283
3396.20200	7.31830
3394.27344	7.33203
3392.34487	7.32952
3390.41631	7.37205
3388.48774	7.41940
3386.55918	7.44081
3384.63062	7.46776
3382.70205	7.52688
3380.77349	7.58861
3378.84492	7.60131
3376.91636	7.59330
3374.98779	7.63012
3373.05923	7.72400
3371.13066	7.77499
3369.20210	7.75780
3367.27354	7.74716
3365.34497	7.81043
3363.41641	7.94101
3361.48784	8.00517
3359.55928	7.95810
3357.63071	7.90416
3355.70215	7.90163
3353.77358	7.90644
3351.84502	7.89305
3349.91646	7.88857
3347.98789	7.94691
3346.05933	8.00296
3344.13076	7.98974
3342.20220	7.99964
3340.27363	8.02705
3338.34507	8.02422
3336.41650	7.97810
3334.48794	7.91755
3332.55937	7.90186
3330.63081	7.94823
3328.70225	8.03353
3326.77368	8.10838
3324.84512	8.14042
3322.91655	8.15568
3320.98799	8.13731
3319.05942	8.05533
3317.13086	7.99568
3315.20229	8.01494
3313.27373	8.11384
3311.34517	8.17236
3309.41660	8.12957
3307.48804	8.09062
3305.55947	8.09186
3303.63091	8.18946
3301.70234	8.30441
3299.77378	8.24015
3297.84521	8.11387
3295.91665	8.06201
3293.98809	7.97867
3292.05952	7.92061
3290.13096	8.00006
3288.20239	8.10749
3286.27383	8.15687
3284.34526	8.16187
3282.41670	8.14416
3280.48813	8.16072
3278.55957	8.22175
3276.63101	8.19672
3274.70244	8.09057
3272.77388	8.06410
3270.84531	8.14433
3268.91675	8.23834
3266.98818	8.27913
3265.05962	8.26022
3263.13105	8.17249
3261.20249	8.11731
3259.27393	8.13688
3257.34536	8.16817
3255.41680	8.22543
3253.48823	8.31228
3251.55967	8.30949
3249.63110	8.20784
3247.70254	8.16586
3245.77397	8.21623
3243.84541	8.32184
3241.91685	8.38493
3239.98828	8.27711
3238.05972	8.09770
3236.13115	7.99723
3234.20259	7.96026
3232.27402	7.97725
3230.34546	8.09917
3228.41689	8.17887
3226.48833	8.13665
3224.55977	8.15603
3222.63120	8.20319
3220.70264	8.13301
3218.77407	8.00413
3216.84551	7.92053
3214.91694	7.89158
3212.98838	7.84523
3211.05981	7.78420
3209.13125	7.76190
3207.20269	7.75446
3205.27412	7.76846
3203.34556	7.81863
3201.41699	7.85546
3199.48843	7.81176
3197.55986	7.70837
3195.63130	7.65335
3193.70273	7.63847
3191.77417	7.57756
3189.84561	7.50035
3187.91704	7.46152
3185.98848	7.43169
3184.05991	7.37891
3182.13135	7.33011
3180.20278	7.31380
3178.27422	7.29425
3176.34565	7.22902
3174.41709	7.15054
3172.48853	7.08484
3170.55996	7.01826
3168.63140	6.94158
3166.70283	6.84882
3164.77427	6.76806
3162.84570	6.71764
3160.91714	6.67283
3158.98857	6.63025
3157.06001	6.59840
3155.13145	6.55720
3153.20288	6.48278
3151.27432	6.40112
3149.34575	6.33925
3147.41719	6.27762
3145.48862	6.19784
3143.56006	6.11176
3141.63149	6.04125
3139.70293	5.98538
3137.77437	5.93106
3135.84580	5.87064
3133.91724	5.80592
3131.98867	5.73516
3130.06011	5.65171
3128.13154	5.56979
3126.20298	5.50496
3124.27441	5.45016
3122.34585	5.38929
3120.41729	5.32007
3118.48872	5.24617
3116.56016	5.16953
3114.63159	5.09438
3112.70303	5.02292
3110.77446	4.95812
3108.84590	4.89840
3106.91733	4.83628
3104.98877	4.76917
3103.06021	4.70024
3101.13164	4.63311
3099.20308	4.56755
3097.27451	4.50102
3095.34595	4.43505
3093.41738	4.37157
3091.48882	4.30979
3089.56025	4.24696
3087.63169	4.18112
3085.70312	4.11620
3083.77456	4.05554
3081.84600	3.99794
3079.91743	3.94067
3077.98887	3.88363
3076.06030	3.82714
3074.13174	3.76858
3072.20317	3.70877
3070.27461	3.65080
3068.34604	3.59574
3066.41748	3.54193
3064.48892	3.48723
3062.56035	3.43189
3060.63179	3.37714
3058.70322	3.32399
3056.77466	3.27280
3054.84609	3.22219
3052.91753	3.16987
3050.98896	3.11686
3049.06040	3.06596
3047.13184	3.01636
3045.20327	2.96660
3043.27471	2.91779
3041.34614	2.86997
3039.41758	2.82245
3037.48901	2.77585
3035.56045	2.73005
3033.63188	2.68437
3031.70332	2.63885
3029.77476	2.59356
3027.84619	2.54930
3025.91763	2.50654
3023.98906	2.46403
3022.06050	2.42168
3020.13193	2.38081
3018.20337	2.34059
3016.27480	2.29972
3014.34624	2.25922
3012.41768	2.21992
3010.48911	2.18161
3008.56055	2.14484
3006.63198	2.10945
3004.70342	2.07408
3002.77485	2.03849
3000.84629	2.00330
2998.91772	1.96919
2996.98916	1.93661
2995.06060	1.90512
2993.13203	1.87406
2991.20347	1.84356
2989.27490	1.81377
2987.34634	1.78430
2985.41777	1.75540
2983.48921	1.72761
2981.56064	1.70065
2979.63208	1.67406
2977.70352	1.64786
2975.77495	1.62221
2973.84639	1.59722
2971.91782	1.57284
2969.98926	1.54875
2968.06069	1.52483
2966.13213	1.50114
2964.20356	1.47740
2962.27500	1.45370
2960.34644	1.43030
2958.41787	1.40698
2956.48931	1.38303
2954.56074	1.35837
2952.63218	1.33397
2950.70361	1.31039
2948.77505	1.28750
2946.84648	1.26520
2944.91792	1.24331
2942.98936	1.22208
2941.06079	1.20197
2939.13223	1.18239
2937.20366	1.16227
2935.27510	1.14180
2933.34653	1.12203
2931.41797	1.10310
2929.48940	1.08446
2927.56084	1.06591
2925.63228	1.04740
2923.70371	1.02880
2921.77515	1.00996
2919.84658	0.99114
2917.91802	0.97273
2915.98945	0.95484
2914.06089	0.93734
2912.13232	0.92007
2910.20376	0.90323
2908.27520	0.88706
2906.34663	0.87143
2904.41807	0.85606
2902.48950	0.84113
2900.56094	0.82682
2898.63237	0.81312
2896.70381	0.79978
2894.77524	0.78651
2892.84668	0.77352
2890.91812	0.76105
2888.98955	0.74911
2887.06099	0.73767
2885.13242	0.72671
2883.20386	0.71626
2881.27529	0.70632
2879.34673	0.69660
2877.41816	0.68696
2875.48960	0.67763
2873.56104	0.66812
2871.63247	0.65751
2869.70391	0.64588
2867.77534	0.63387
2865.84678	0.62171
2863.91821	0.60961
2861.98965	0.59786
2860.06108	0.58648
2858.13252	0.57580
2856.20396	0.56600
2854.27539	0.55665
2852.34683	0.54730
2850.41826	0.53784
2848.48970	0.52824
2846.56113	0.51884
2844.63257	0.51026
2842.70400	0.50264
2840.77544	0.49571
2838.84687	0.48905
2836.91831	0.48244
2834.98975	0.47614
2833.06118	0.47014
2831.13262	0.46402
2829.20405	0.45776
2827.27549	0.45149
2825.34692	0.44528
2823.41836	0.43905
2821.48979	0.43267
2819.56123	0.42634
2817.63267	0.42024
2815.70410	0.41437
2813.77554	0.40862
2811.84697	0.40282
2809.91841	0.39700
2807.98984	0.39147
2806.06128	0.38628
2804.13271	0.38101
2802.20415	0.37549
2800.27559	0.37010
2798.34702	0.36506
2796.41846	0.36018
2794.48989	0.35530
2792.56133	0.35044
2790.63276	0.34560
2788.70420	0.34091
2786.77563	0.33637
2784.84707	0.33185
2782.91851	0.32743
2780.98994	0.32306
2779.06138	0.31869
2777.13281	0.31450
2775.20425	0.31042
2773.27568	0.30639
2771.34712	0.30245
2769.41855	0.29852
2767.48999	0.29464
2765.56143	0.29094
2763.63286	0.28742
2761.70430	0.28396
2759.77573	0.28044
2757.84717	0.27703
2755.91860	0.27374
2753.99004	0.27042
2752.06147	0.26717
2750.13291	0.26406
2748.20435	0.26102
2746.27578	0.25796
2744.34722	0.25503
2742.41865	0.25229
2740.49009	0.24953
2738.56152	0.24658
2736.63296	0.24362
2734.70439	0.24102
2732.77583	0.23868
2730.84727	0.23618
2728.91870	0.23360
2726.99014	0.23123
2725.06157	0.22893
2723.13301	0.22674
2721.20444	0.22465
2719.27588	0.22245
2717.34731	0.22018
2715.41875	0.21797
2713.49019	0.21588
2711.56162	0.21406
2709.63306	0.21246
2707.70449	0.21077
2705.77593	0.20885
2703.84736	0.20695
2701.91880	0.20527
2699.99023	0.20374
2698.06167	0.20218
2696.13311	0.20060
2694.20454	0.19908
2692.27598	0.19761
2690.34741	0.19619
2688.41885	0.19490
2686.49028	0.19373
2684.56172	0.19253
2682.63315	0.19129
2680.70459	0.19010
2678.77603	0.18877
2676.84746	0.18725
2674.91890	0.18590
2672.99033	0.18482
2671.06177	0.18374
2669.13320	0.18259
2667.20464	0.18143
2665.27607	0.18021
2663.34751	0.17909
2661.41895	0.17830
2659.49038	0.17762
2657.56182	0.17673
2655.63325	0.17579
2653.70469	0.17505
2651.77612	0.17438
2649.84756	0.17358
2647.91899	0.17270
2645.99043	0.17194
2644.06187	0.17138
2642.13330	0.17090
2640.20474	0.17038
2638.27617	0.16971
2636.34761	0.16900
2634.41904	0.16839
2632.49048	0.16790
2630.56191	0.16744
2628.63335	0.16693
2626.70479	0.16646
2624.77622	0.16607
2622.84766	0.16575
2620.91909	0.16545
2618.99053	0.16510
2617.06196	0.16466
2615.13340	0.16431
2613.20483	0.16410
2611.27627	0.16392
2609.34771	0.16375
2607.41914	0.16353
2605.49058	0.16329
2603.56201	0.16320
2601.63345	0.16326
2599.70488	0.16330
2597.77632	0.16328
2595.84775	0.16325
2593.91919	0.16319
2591.99062	0.16318
2590.06206	0.16329
2588.13350	0.16332
2586.20493	0.16328
2584.27637	0.16343
2582.34780	0.16378
2580.41924	0.16407
2578.49067	0.16419
2576.56211	0.16430
2574.63354	0.16449
2572.70498	0.16480
2570.77642	0.16510
2568.84785	0.16536
2566.91929	0.16572
2564.99072	0.16612
2563.06216	0.16640
2561.13359	0.16663
2559.20503	0.16697
2557.27646	0.16743
2555.34790	0.16794
2553.41934	0.16841
2551.49077	0.16890
2549.56221	0.16944
2547.63364	0.16993
2545.70508	0.17038
2543.77651	0.17083
2541.84795	0.17129
2539.91938	0.17189
2537.99082	0.17269
2536.06226	0.17343
2534.13369	0.17397
2532.20513	0.17450
2530.27656	0.17514
2528.34800	0.17580
2526.41943	0.17643
2524.49087	0.17710
2522.56230	0.17782
2520.63374	0.17856
2518.70518	0.17929
2516.77661	0.17996
2514.84805	0.18065
2512.91948	0.18141
2510.99092	0.18212
2509.06235	0.18277
2507.13379	0.18354
2505.20522	0.18447
2503.27666	0.18529
2501.34810	0.18585
2499.41953	0.18636
2497.49097	0.18709
2495.56240	0.18805
2493.63384	0.18903
2491.70527	0.18994
2489.77671	0.19082
2487.84814	0.19167
2485.91958	0.19243
2483.99102	0.19317
2482.06245	0.19395
2480.13389	0.19473
2478.20532	0.19558
2476.27676	0.19652
2474.34819	0.19748
2472.41963	0.19829
2470.49106	0.19890
2468.56250	0.19960
2466.63394	0.20056
2464.70537	0.20158
2462.77681	0.20250
2460.84824	0.20332
2458.91968	0.20414
2456.99111	0.20506
2455.06255	0.20604
2453.13398	0.20701
2451.20542	0.20797
2449.27686	0.20894
2447.34829	0.20997
2445.41973	0.21092
2443.49116	0.21171
2441.56260	0.21252
2439.63403	0.21351
2437.70547	0.21454
2435.77690	0.21551
2433.84834	0.21653
2431.91978	0.21764
2429.99121	0.21874
2428.06265	0.21974
2426.13408	0.22082
2424.20552	0.22201
2422.27695	0.22308
2420.34839	0.22400
2418.41982	0.22498
2416.49126	0.22604
2414.56270	0.22712
2412.63413	0.22822
2410.70557	0.22939
2408.77700	0.23064
2406.84844	0.23183
2404.91987	0.23294
2402.99131	0.23404
2401.06274	0.23525
2399.13418	0.23662
2397.20562	0.23793
2395.27705	0.23904
2393.34849	0.24017
2391.41992	0.24145
2389.49136	0.24265
2387.56279	0.24368
2385.63423	0.24469
2383.70566	0.24568
2381.77710	0.24656
2379.84854	0.24752
2377.91997	0.24863
2375.99141	0.24954
2374.06284	0.24988
2372.13428	0.24990
2370.20571	0.25035
2368.27715	0.25114
2366.34858	0.25103
2364.42002	0.24975
2362.49146	0.24901
2360.56289	0.25050
2358.63433	0.25331
2356.70576	0.25576
2354.77720	0.25910
2352.84863	0.26397
2350.92007	0.26752
2348.99150	0.26883
2347.06294	0.26926
2345.13437	0.26976
2343.20581	0.27081
2341.27725	0.27255
2339.34868	0.27456
2337.42012	0.27616
2335.49155	0.27738
2333.56299	0.27834
2331.63442	0.27931
2329.70586	0.28139
2327.77729	0.28462
2325.84873	0.28744
2323.92017	0.28943
2321.99160	0.29146
2320.06304	0.29384
2318.13447	0.29622
2316.20591	0.29827
2314.27734	0.30001
2312.34878	0.30180
2310.42021	0.30382
2308.49165	0.30588
2306.56309	0.30792
2304.63452	0.30993
2302.70596	0.31187
2300.77739	0.31375
2298.84883	0.31563
2296.92026	0.31764
2294.99170	0.31975
2293.06313	0.32184
2291.13457	0.32382
2289.20601	0.32573
2287.27744	0.32771
2285.34888	0.32976
2283.42031	0.33177
2281.49175	0.33368
2279.56318	0.33555
2277.63462	0.33750
2275.70605	0.33958
2273.77749	0.34168
2271.84893	0.34372
2269.92036	0.34580
2267.99180	0.34799
2266.06323	0.35013
2264.13467	0.35221
2262.20610	0.35436
2260.27754	0.35657
2258.34897	0.35879
2256.42041	0.36103
2254.49185	0.36328
2252.56328	0.36546
2250.63472	0.36757
2248.70615	0.36967
2246.77759	0.37185
2244.84902	0.37411
2242.92046	0.37632
2240.99189	0.37850
2239.06333	0.38069
2237.13477	0.38285
2235.20620	0.38506
2233.27764	0.38742
2231.34907	0.38980
2229.42051	0.39213
2227.49194	0.39442
2225.56338	0.39663
2223.63481	0.39873
2221.70625	0.40087
2219.77769	0.40309
2217.84912	0.40530
2215.92056	0.40752
2213.99199	0.40979
2212.06343	0.41203
2210.13486	0.41423
2208.20630	0.41636
2206.27773	0.41843
2204.34917	0.42053
2202.42061	0.42258
2200.49204	0.42451
2198.56348	0.42643
2196.63491	0.42838
2194.70635	0.43035
2192.77778	0.43231
2190.84922	0.43417
2188.92065	0.43599
2186.99209	0.43790
2185.06353	0.43983
2183.13496	0.44162
2181.20640	0.44326
2179.27783	0.44484
2177.34927	0.44644
2175.42070	0.44799
2173.49214	0.44950
2171.56357	0.45103
2169.63501	0.45252
2167.70645	0.45394
2165.77788	0.45527
2163.84932	0.45643
2161.92075	0.45749
2159.99219	0.45862
2158.06362	0.45968
2156.13506	0.46057
2154.20649	0.46143
2152.27793	0.46242
2150.34937	0.46328
2148.42080	0.46387
2146.49224	0.46436
2144.56367	0.46477
2142.63511	0.46508
2140.70654	0.46538
2138.77798	0.46572
2136.84941	0.46596
2134.92085	0.46602
2132.99229	0.46597
2131.06372	0.46594
2129.13516	0.46594
2127.20659	0.46585
2125.27803	0.46555
2123.34946	0.46504
2121.42090	0.46448
2119.49233	0.46389
2117.56377	0.46327
2115.63521	0.46260
2113.70664	0.46184
2111.77808	0.46093
2109.84951	0.45995
2107.92095	0.45899
2105.99238	0.45794
2104.06382	0.45667
2102.13525	0.45531
2100.20669	0.45398
2098.27812	0.45254
2096.34956	0.45106
2094.42100	0.44961
2092.49243	0.44800
2090.56387	0.44624
2088.63530	0.44452
2086.70674	0.44283
2084.77817	0.44094
2082.84961	0.43886
2080.92104	0.43679
2078.99248	0.43485
2077.06392	0.43293
2075.13535	0.43084
2073.20679	0.42854
2071.27822	0.42621
2069.34966	0.42395
2067.42109	0.42165
2065.49253	0.41921
2063.56396	0.41670
2061.63540	0.41427
2059.70684	0.41185
2057.77827	0.40930
2055.84971	0.40666
2053.92114	0.40406
2051.99258	0.40154
2050.06401	0.39898
2048.13545	0.39632
2046.20688	0.39358
2044.27832	0.39088
2042.34976	0.38816
2040.42119	0.38536
2038.49263	0.38254
2036.56406	0.37977
2034.63550	0.37704
2032.70693	0.37426
2030.77837	0.37142
2028.84980	0.36853
2026.92124	0.36569
2024.99268	0.36293
2023.06411	0.36015
2021.13555	0.35728
2019.20698	0.35448
2017.27842	0.35183
2015.34985	0.34908
2013.42129	0.34622
2011.49272	0.34337
2009.56416	0.34062
2007.63560	0.33787
2005.70703	0.33509
2003.77847	0.33236
2001.84990	0.32971
1999.92134	0.32710
1997.99277	0.32446
1996.06421	0.32180
1994.13564	0.31925
1992.20708	0.31685
1990.27852	0.31440
1988.34995	0.31189
1986.42139	0.30940
1984.49282	0.30695
1982.56426	0.30448
1980.63569	0.30201
1978.70713	0.29966
1976.77856	0.29739
1974.85000	0.29506
1972.92144	0.29272
1970.99287	0.29057
1969.06431	0.28864
1967.13574	0.28670
1965.20718	0.28457
1963.27861	0.28247
1961.35005	0.28048
1959.42148	0.27853
1957.49292	0.27664
1955.56436	0.27483
1953.63579	0.27312
1951.70723	0.27144
1949.77866	0.26981
1947.85010	0.26824
1945.92153	0.26677
1943.99297	0.26531
1942.06440	0.26368
1940.13584	0.26190
1938.20728	0.26028
1936.27871	0.25891
1934.35015	0.25761
1932.42158	0.25633
1930.49302	0.25512
1928.56445	0.25399
1926.63589	0.25290
1924.70732	0.25191
1922.77876	0.25098
1920.85020	0.24996
1918.92163	0.24898
1916.99307	0.24809
1915.06450	0.24714
1913.13594	0.24630
1911.20737	0.24565
1909.27881	0.24498
1907.35024	0.24420
1905.42168	0.24337
1903.49312	0.24264
1901.56455	0.24206
1899.63599	0.24155
1897.70742	0.24117
1895.77886	0.24088
1893.85029	0.24058
1891.92173	0.24024
1889.99316	0.24007
1888.06460	0.23983
1886.13604	0.23936
1884.20747	0.23899
1882.27891	0.23878
1880.35034	0.23867
1878.42178	0.23857
1876.49321	0.23845
1874.56465	0.23837
1872.63608	0.23848
1870.70752	0.23887
1868.77896	0.23962
1866.85039	0.24000
1864.92183	0.23966
1862.99326	0.23940
1861.06470	0.23952
1859.13613	0.23984
1857.20757	0.24016
1855.27900	0.24055
1853.35044	0.24102
1851.42187	0.24162
1849.49331	0.24229
1847.56475	0.24306
1845.63618	0.24402
1843.70762	0.24510
1841.77905	0.24574
1839.85049	0.24598
1837.92192	0.24659
1835.99336	0.24754
1834.06479	0.24858
1832.13623	0.24969
1830.20767	0.25124
1828.27910	0.25276
1826.35054	0.25377
1824.42197	0.25494
1822.49341	0.25605
1820.56484	0.25706
1818.63628	0.25834
1816.70771	0.26002
1814.77915	0.26168
1812.85059	0.26341
1810.92202	0.26544
1808.99346	0.26750
1807.06489	0.26944
1805.13633	0.27135
1803.20776	0.27360
1801.27920	0.27628
1799.35063	0.27917
1797.42207	0.28168
1795.49351	0.28413
1793.56494	0.28708
1791.63638	0.29079
1789.70781	0.29404
1787.77925	0.29630
1785.85068	0.29921
1783.92212	0.30288
1781.99355	0.30689
1780.06499	0.31122
1778.13643	0.31553
1776.20786	0.31944
1774.27930	0.32375
1772.35073	0.32987
1770.42217	0.33650
1768.49360	0.34170
1766.56504	0.34655
1764.63647	0.35160
1762.70791	0.35744
1760.77935	0.36509
1758.85078	0.37220
1756.92222	0.37924
1754.99365	0.38696
1753.06509	0.39390
1751.13652	0.40224
1749.20796	0.41313
1747.27939	0.42374
1745.35083	0.43261
1743.42227	0.44190
1741.49370	0.45232
1739.56514	0.46477
1737.63657	0.47719
1735.70801	0.48792
1733.77944	0.50448
1731.85088	0.52439
1729.92231	0.53961
1727.99375	0.55511
1726.06519	0.57180
1724.13662	0.59014
1722.20806	0.61009
1720.27949	0.62827
1718.35093	0.64955
1716.42236	0.68236
1714.49380	0.71376
1712.56523	0.73837
1710.63667	0.76199
1708.70811	0.78746
1706.77954	0.81668
1704.85098	0.85234
1702.92241	0.88415
1700.99385	0.91484
1699.06528	0.96179
1697.13672	1.00600
1695.20815	1.05152
1693.27959	1.09527
1691.35103	1.13029
1689.42246	1.17177
1687.49390	1.21647
1685.56533	1.25913
1683.63677	1.32603
1681.70820	1.39660
1679.77964	1.44054
1677.85107	1.48206
1675.92251	1.52968
1673.99395	1.59049
1672.06538	1.64541
1670.13682	1.69871
1668.20825	1.76997
1666.27969	1.82862
1664.35112	1.87917
1662.42256	1.94473
1660.49399	2.02119
1658.56543	2.07952
1656.63687	2.12537
1654.70830	2.16631
1652.77974	2.23309
1650.85117	2.29768
1648.92261	2.31456
1646.99404	2.33322
1645.06548	2.35527
1643.13691	2.37425
1641.20835	2.38458
1639.27979	2.39329
1637.35122	2.39751
1635.42266	2.39144
1633.49409	2.37712
1631.56553	2.36136
1629.63696	2.34386
1627.70840	2.31162
1625.77983	2.27356
1623.85127	2.22701
1621.92271	2.17091
1619.99414	2.12360
1618.06558	2.07873
1616.13701	2.01048
1614.20845	1.94066
1612.27988	1.88987
1610.35132	1.83659
1608.42275	1.77763
1606.49419	1.72026
1604.56562	1.66889
1602.63706	1.61919
1600.70850	1.57053
1598.77993	1.52624
1596.85137	1.48484
1594.92280	1.44478
1592.99424	1.40649
1591.06567	1.37200
1589.13711	1.34022
1587.20854	1.31097
1585.27998	1.28420
1583.35142	1.25981
1581.42285	1.23821
1579.49429	1.22014
1577.56572	1.20462
1575.63716	1.18665
1573.70859	1.17124
1571.78003	1.16153
1569.85146	1.15234
1567.92290	1.14332
1565.99434	1.13790
1564.06577	1.13515
1562.13721	1.13359
1560.20864	1.13442
1558.28008	1.14282
1556.35151	1.15156
1554.42295	1.15524
1552.49438	1.15911
1550.56582	1.16142
1548.63726	1.16095
1546.70869	1.15747
1544.78013	1.15011
1542.85156	1.13825
1540.92300	1.11781
1538.99443	1.08304
1537.06587	1.05859
1535.13730	1.04219
1533.20874	1.01897
1531.28018	0.99412
1529.35161	0.97676
1527.42305	0.96042
1525.49448	0.94328
1523.56592	0.92910
1521.63735	0.91589
1519.70879	0.90253
1517.78022	0.89134
1515.85166	0.87787
1513.92310	0.86365
1511.99453	0.85140
1510.06597	0.84045
1508.13740	0.82993
1506.20884	0.81238
1504.28027	0.79691
1502.35171	0.78831
1500.42314	0.78094
1498.49458	0.77339
1496.56602	0.76458
1494.63745	0.75563
1492.70889	0.74890
1490.78032	0.74312
1488.85176	0.73611
1486.92319	0.72938
1484.99463	0.72433
1483.06606	0.72056
1481.13750	0.71757
1479.20894	0.71544
1477.28037	0.71458
1475.35181	0.71495
1473.42324	0.71605
1471.49468	0.71626
1469.56611	0.71456
1467.63755	0.71224
1465.70898	0.71041
1463.78042	0.70952
1461.85186	0.70941
1459.92329	0.70991
1457.99473	0.71115
1456.06616	0.71152
1454.13760	0.70926
1452.20903	0.70650
1450.28047	0.70390
1448.35190	0.70139
1446.42334	0.69854
1444.49478	0.69574
1442.56621	0.69322
1440.63765	0.69054
1438.70908	0.68768
1436.78052	0.68410
1434.85195	0.67993
1432.92339	0.67677
1430.99482	0.67485
1429.06626	0.67399
1427.13770	0.67404
1425.20913	0.67496
1423.28057	0.67655
1421.35200	0.67790
1419.42344	0.67892
1417.49487	0.67953
1415.56631	0.67898
1413.63774	0.67825
1411.70918	0.67828
1409.78062	0.67939
1407.85205	0.68124
1405.92349	0.68352
1403.99492	0.68563
1402.06636	0.68650
1400.13779	0.68609
1398.20923	0.68460
1396.28066	0.68184
1394.35210	0.67736
1392.42354	0.67197
1390.49497	0.66705
1388.56641	0.66218
1386.63784	0.65643
1384.70928	0.65043
1382.78071	0.64485
1380.85215	0.63952
1378.92358	0.63485
1376.99502	0.63145
1375.06646	0.62936
1373.13789	0.62797
1371.20933	0.62696
1369.28076	0.62622
1367.35220	0.62521
1365.42363	0.62362
1363.49507	0.62189
1361.56650	0.62016
1359.63794	0.61837
1357.70937	0.61678
1355.78081	0.61544
1353.85225	0.61423
1351.92368	0.61325
1349.99512	0.61260
1348.06655	0.61202
1346.13799	0.61115
1344.20942	0.61012
1342.28086	0.60921
1340.35229	0.60862
1338.42373	0.60817
1336.49517	0.60760
1334.56660	0.60722
1332.63804	0.60718
1330.70947	0.60744
1328.78091	0.60800
1326.85234	0.60878
1324.92378	0.60970
1322.99521	0.61091
1321.06665	0.61229
1319.13809	0.61341
1317.20952	0.61397
1315.28096	0.61409
1313.35239	0.61399
1311.42383	0.61351
1309.49526	0.61270
1307.56670	0.61194
1305.63813	0.61137
1303.70957	0.61086
1301.78101	0.61018
1299.85244	0.60921
1297.92388	0.60809
1295.99531	0.60682
1294.06675	0.60529
1292.13818	0.60367
1290.20962	0.60212
1288.28105	0.60067
1286.35249	0.59933
1284.42393	0.59796
1282.49536	0.59629
1280.56680	0.59438
1278.63823	0.59258
1276.70967	0.59108
1274.78110	0.58989
1272.85254	0.58908
1270.92397	0.58840
1268.99541	0.58750
1267.06685	0.58635
1265.13828	0.58515
1263.20972	0.58418
1261.28115	0.58356
1259.35259	0.58313
1257.42402	0.58259
1255.49546	0.58202
1253.56689	0.58182
1251.63833	0.58197
1249.70977	0.58230
1247.78120	0.58255
1245.85264	0.58239
1243.92407	0.58181
1241.99551	0.58086
1240.06694	0.57926
1238.13838	0.57710
1236.20981	0.57475
1234.28125	0.57229
1232.35269	0.56958
1230.42412	0.56678
1228.49556	0.56421
1226.56699	0.56192
1224.63843	0.55983
1222.70986	0.55800
1220.78130	0.55626
1218.85273	0.55445
1216.92417	0.55280
1214.99561	0.55140
1213.06704	0.55023
1211.13848	0.54951
1209.20991	0.54905
1207.28135	0.54847
1205.35278	0.54766
1203.42422	0.54663
1201.49565	0.54548
1199.56709	0.54439
1197.63853	0.54345
1195.70996	0.54264
1193.78140	0.54190
1191.85283	0.54119
1189.92427	0.54064
1187.99570	0.54029
1186.06714	0.54008
1184.13857	0.54013
1182.21001	0.54069
1180.28145	0.54174
1178.35288	0.54311
1176.42432	0.54463
1174.49575	0.54600
1172.56719	0.54692
1170.63862	0.54722
1168.71006	0.54710
1166.78149	0.54696
1164.85293	0.54708
1162.92437	0.54716
1160.99580	0.54668
1159.06724	0.54590
1157.13867	0.54532
1155.21011	0.54467
1153.28154	0.54353
1151.35298	0.54178
1149.42441	0.53942
1147.49585	0.53665
1145.56729	0.53380
1143.63872	0.53105
1141.71016	0.52862
1139.78159	0.52678
1137.85303	0.52562
1135.92446	0.52492
1133.99590	0.52472
1132.06733	0.52490
1130.13877	0.52506
1128.21021	0.52505
1126.28164	0.52476
1124.35308	0.52436
1122.42451	0.52409
1120.49595	0.52398
1118.56738	0.52410
1116.63882	0.52441
1114.71025	0.52473
1112.78169	0.52517
1110.85312	0.52576
1108.92456	0.52631
1106.99600	0.52703
1105.06743	0.52818
1103.13887	0.52949
1101.21030	0.53077
1099.28174	0.53224
1097.35317	0.53416
1095.42461	0.53684
1093.49604	0.54043
1091.56748	0.54498
1089.63892	0.55072
1087.71035	0.55786
1085.78179	0.56587
1083.85322	0.57370
1081.92466	0.58062
1079.99609	0.58589
1078.06753	0.58852
1076.13896	0.58802
1074.21040	0.58472
1072.28184	0.57935
1070.35327	0.57271
1068.42471	0.56547
1066.49614	0.55821
1064.56758	0.55155
1062.63901	0.54591
1060.71045	0.54123
1058.78188	0.53713
1056.85332	0.53334
1054.92476	0.52970
1052.99619	0.52636
1051.06763	0.52378
1049.13906	0.52200
1047.21050	0.52069
1045.28193	0.51971
1043.35337	0.51905
1041.42480	0.51866
1039.49624	0.51837
1037.56768	0.51783
1035.63911	0.51704
1033.71055	0.51623
1031.78198	0.51533
1029.85342	0.51424
1027.92485	0.51283
1025.99629	0.51125
1024.06772	0.51000
1022.13916	0.50929
1020.21060	0.50900
1018.28203	0.50900
1016.35347	0.50896
1014.42490	0.50869
1012.49634	0.50837
1010.56777	0.50823
1008.63921	0.50836
1006.71064	0.50886
1004.78208	0.50996
1002.85352	0.51169
1000.92495	0.51408
998.99639	0.51741
997.06782	0.52169
995.13926	0.52639
993.21069	0.53078
991.28213	0.53407
989.35356	0.53601
987.42500	0.53692
985.49644	0.53706
983.56787	0.53677
981.63931	0.53659
979.71074	0.53699
977.78218	0.53810
975.85361	0.53977
973.92505	0.54209
971.99648	0.54510
970.06792	0.54860
968.13936	0.55231
966.21079	0.55619
964.28223	0.56044
962.35366	0.56516
960.42510	0.57018
958.49653	0.57551
956.56797	0.58128
954.63940	0.58723
952.71084	0.59308
950.78228	0.59905
948.85371	0.60533
946.92515	0.61168
944.99658	0.61777
943.06802	0.62365
941.13945	0.62967
939.21089	0.63605
937.28232	0.64230
935.35376	0.64792
933.42520	0.65329
931.49663	0.65888
929.56807	0.66472
927.63950	0.67073
925.71094	0.67673
923.78237	0.68278
921.85381	0.68916
919.92524	0.69593
917.99668	0.70314
916.06812	0.71060
914.13955	0.71802
912.21099	0.72552
910.28242	0.73308
908.35386	0.74116
906.42529	0.75028
904.49673	0.75954
902.56816	0.76817
900.63960	0.77706
898.71104	0.78693
896.78247	0.79653
894.85391	0.80496
892.92534	0.81361
890.99678	0.82386
889.06821	0.83489
887.13965	0.84542
885.21108	0.85605
883.28252	0.86833
881.35396	0.88205
879.42539	0.89484
877.49683	0.90636
875.56826	0.91801
873.63970	0.92909
871.71113	0.93936
869.78257	0.95036
867.85400	0.96185
865.92544	0.97233
863.99687	0.98246
862.06831	0.99413
860.13975	1.00735
858.21118	1.02076
856.28262	1.03263
854.35405	1.04190
852.42549	1.05000
850.49692	1.06018
848.56836	1.07315
846.63979	1.08682
844.71123	1.10022
842.78267	1.11226
840.85410	1.12269
838.92554	1.13329
836.99697	1.14362
835.06841	1.15256
833.13984	1.16280
831.21128	1.17813
829.28271	1.19571
827.35415	1.20896
825.42559	1.21839
823.49702	1.22773
821.56846	1.23549
819.63989	1.24328
817.71133	1.25447
815.78276	1.26224
813.85420	1.26175
811.92563	1.26359
809.99707	1.27497
808.06851	1.28945
806.13994	1.30295
804.21138	1.31055
802.28281	1.31326
800.35425	1.32437
798.42568	1.34069
796.49712	1.34385
794.56855	1.32887
792.63999	1.31863
790.71143	1.33079
788.78286	1.34825
786.85430	1.36203
784.92573	1.39456
782.99717	1.44992
781.06860	1.50231
779.14004	1.51240
777.21147	1.46471
775.28291	1.40697
773.35435	1.36834
771.42578	1.31971
769.49722	1.27787
767.56865	1.30527
765.64009	1.39676
763.71152	1.44462
761.78296	1.40522
759.85439	1.35694
757.92583	1.32017
755.99727	1.28519
754.06870	1.21281
752.14014	1.13617
750.21157	1.12699
748.28301	1.15188
746.35444	1.14636
744.42588	1.06331
742.49731	0.92906
740.56875	0.90459
738.64019	1.26675
736.71162	4.42027
734.78306	4.40870
732.85449	0.92073
730.92593	0.79840
728.99736	0.77518
727.06880	0.64803
725.14023	0.57870
723.21167	0.57098
721.28311	0.40852
719.35454	0.24139
717.42598	0.23468
715.49741	0.20971
713.56885	0.10545
711.64028	0.25848
709.71172	0.51771
707.78315	0.55200
705.85459	0.35855
703.92603	0.29282
701.99746	0.27049
700.06890	0.25705
698.14033	0.27922
696.21177	0.30145
694.28320	0.32441
692.35464	0.26325
690.42607	0.23039
688.49751	0.32107
686.56895	0.33901
684.64038	0.23190
682.71182	0.13561
680.78325	0.10056
678.85469	0.11991
676.92612	0.19077
674.99756	0.24726
673.06899	0.15866
671.14043	0.07195
669.21187	0.09496
667.28330	0.10418
665.35474	0.06449
663.42617	0.10062
661.49761	0.23992
659.56904	0.39073
657.64048	0.51030
655.71191	0.51572
653.78335	0.40050
651.85479	0.33831
649.92622	0.29493
647.99766	0.24176
646.06909	0.24065
644.14053	0.33282
642.21196	0.40065
640.28340	0.26005
638.35483	0.12653
636.42627	0.12868
634.49771	0.26720
632.56914	0.47674
630.64058	0.45399
628.71201	0.34159
626.78345	0.30830
624.85488	0.32125
622.92632	0.31261
620.99775	0.28269
619.06919	0.28705
617.14062	0.29937
615.21206	0.25252
613.28350	0.19988
611.35493	0.19337
609.42637	0.26674
607.49780	0.36213
605.56924	0.32223
603.64067	0.25476
601.71211	0.27508
599.78354	0.35887
597.85498	0.53766
595.92642	0.63220
593.99785	0.34298
592.06929	0.21783
590.14072	0.22004
588.21216	0.22343
586.28359	0.23508
584.35503	0.32672
582.42646	0.37303
580.49790	0.28387
578.56934	0.33603
576.64077	0.51666
574.71221	0.84138
572.78364	0.90606
570.85508	0.50270
568.92651	0.34855
566.99795	0.28985
565.06938	0.25409
563.14082	0.22931
561.21226	0.21840
559.28369	0.27408
557.35513	0.39247
555.42656	0.36027
553.49800	0.23408
551.56943	0.17413
549.64087	0.20194
547.71230	0.35854
545.78374	0.71579
543.85518	0.79305
541.92661	0.49815
539.99805	0.34717
538.06948	0.28122
536.14092	0.28068
534.21235	0.32204
532.28379	0.48465
530.35522	0.93612
528.42666	0.41612
526.49810	0.21488
524.56953	0.18651
522.64097	0.22883
520.71240	0.31116
518.78384	0.38670
516.85527	0.36165
514.92671	0.31687
512.99814	0.25986
511.06958	0.21487
509.14102	0.22175
507.21245	0.27798
505.28389	0.36484
503.35532	0.36450
501.42676	0.23436
499.49819	0.17356
