3997.91411	0.06304
3995.98555	0.06360
3994.05698	0.06432
3992.12842	0.06496
3990.19985	0.06520
3988.27129	0.06515
3986.34272	0.06520
3984.41416	0.06540
3982.48560	0.06569
3980.55703	0.06586
3978.62847	0.06565
3976.69990	0.06544
3974.77134	0.06556
3972.84277	0.06584
3970.91421	0.06618
3968.98564	0.06658
3967.05708	0.06699
3965.12852	0.06717
3963.19995	0.06704
3961.27139	0.06702
3959.34282	0.06732
3957.41426	0.06765
3955.48569	0.06774
3953.55713	0.06767
3951.62856	0.06784
3949.70000	0.06838
3947.77144	0.06885
3945.84287	0.06876
3943.91431	0.06832
3941.98574	0.06797
3940.05718	0.06749
3938.12861	0.06705
3936.20005	0.06719
3934.27148	0.06783
3932.34292	0.06855
3930.41436	0.06871
3928.48579	0.06808
3926.55723	0.06760
3924.62866	0.06775
3922.70010	0.06780
3920.77153	0.06772
3918.84297	0.06818
3916.91440	0.06877
3914.98584	0.06850
3913.05728	0.06759
3911.12871	0.06715
3909.20015	0.06734
3907.27158	0.06763
3905.34302	0.06805
3903.41445	0.06889
3901.48589	0.06957
3899.55732	0.06964
3897.62876	0.06909
3895.70020	0.06810
3893.77163	0.06741
3891.84307	0.06746
3889.91450	0.06788
3887.98594	0.06793
3886.05737	0.06799
3884.12881	0.06857
3882.20024	0.06912
3880.27168	0.06928
3878.34312	0.06880
3876.41455	0.06814
3874.48599	0.06849
3872.55742	0.06966
3870.62886	0.07069
3868.70029	0.07129
3866.77173	0.07118
3864.84316	0.07127
3862.91460	0.07182
3860.98604	0.07155
3859.05747	0.07085
3857.12891	0.07094
3855.20034	0.07205
3853.27178	0.07446
3851.34321	0.07627
3849.41465	0.07478
3847.48608	0.07307
3845.55752	0.07281
3843.62896	0.07388
3841.70039	0.07541
3839.77183	0.07693
3837.84326	0.07850
3835.91470	0.07906
3833.98613	0.07853
3832.05757	0.07867
3830.12900	0.07959
3828.20044	0.08015
3826.27187	0.08059
3824.34331	0.08149
3822.41475	0.08313
3820.48618	0.08562
3818.55762	0.08651
3816.62905	0.08598
3814.70049	0.08639
3812.77192	0.08678
3810.84336	0.08680
3808.91479	0.08753
3806.98623	0.08913
3805.05767	0.09043
3803.12910	0.09122
3801.20054	0.09308
3799.27197	0.09531
3797.34341	0.09619
3795.41484	0.09679
3793.48628	0.09736
3791.55771	0.09792
3789.62915	0.09883
3787.70059	0.09997
3785.77202	0.10147
3783.84346	0.10346
3781.91489	0.10524
3779.98633	0.10700
3778.05776	0.10930
3776.12920	0.11083
3774.20063	0.11168
3772.27207	0.11305
3770.34351	0.11519
3768.41494	0.11776
3766.48638	0.11990
3764.55781	0.12168
3762.62925	0.12341
3760.70068	0.12549
3758.77212	0.12831
3756.84355	0.13096
3754.91499	0.13302
3752.98643	0.13574
3751.05786	0.14020
3749.12930	0.14489
3747.20073	0.14699
3745.27217	0.14898
3743.34360	0.15274
3741.41504	0.15583
3739.48647	0.15800
3737.55791	0.16109
3735.62935	0.16592
3733.70078	0.17249
3731.77222	0.17791
3729.84365	0.18120
3727.91509	0.18462
3725.98652	0.18996
3724.05796	0.19685
3722.12939	0.20403
3720.20083	0.21145
3718.27227	0.21876
3716.34370	0.22566
3714.41514	0.23238
3712.48657	0.24114
3710.55801	0.25507
3708.62944	0.27045
3706.70088	0.28229
3704.77231	0.29319
3702.84375	0.30620
3700.91519	0.32333
3698.98662	0.34169
3697.05806	0.35864
3695.12949	0.37713
3693.20093	0.39758
3691.27236	0.41991
3689.34380	0.44873
3687.41523	0.48424
3685.48667	0.51515
3683.55811	0.54184
3681.62954	0.57021
3679.70098	0.60157
3677.77241	0.63420
3675.84385	0.67345
3673.91528	0.72794
3671.98672	0.77182
3670.05815	0.81087
3668.12959	0.86603
3666.20103	0.91532
3664.27246	0.95574
3662.34390	0.99927
3660.41533	1.04617
3658.48677	1.09222
3656.55820	1.14154
3654.62964	1.19728
3652.70107	1.24372
3650.77251	1.28335
3648.84395	1.33994
3646.91538	1.41144
3644.98682	1.46202
3643.05825	1.50044
3641.12969	1.54039
3639.20112	1.58469
3637.27256	1.62933
3635.34399	1.67245
3633.41543	1.71479
3631.48687	1.75412
3629.55830	1.79520
3627.62974	1.85113
3625.70117	1.90228
3623.77261	1.93545
3621.84404	1.96739
3619.91548	2.00504
3617.98691	2.05225
3616.05835	2.09735
3614.12979	2.13389
3612.20122	2.17285
3610.27266	2.21301
3608.34409	2.25393
3606.41553	2.29676
3604.48696	2.33490
3602.55840	2.36874
3600.62983	2.40665
3598.70127	2.44881
3596.77271	2.48932
3594.84414	2.52889
3592.91558	2.57016
3590.98701	2.61011
3589.05845	2.64677
3587.12988	2.69065
3585.20132	2.73986
3583.27275	2.77993
3581.34419	2.81508
3579.41562	2.85334
3577.48706	2.89648
3575.55850	2.94195
3573.62993	2.98797
3571.70137	3.03014
3569.77280	3.06799
3567.84424	3.10899
3565.91567	3.16134
3563.98711	3.21178
3562.05854	3.25381
3560.12998	3.29606
3558.20142	3.33827
3556.27285	3.38062
3554.34429	3.42496
3552.41572	3.47494
3550.48716	3.52697
3548.55859	3.57319
3546.63003	3.61620
3544.70146	3.66263
3542.77290	3.71174
3540.84434	3.75906
3538.91577	3.80228
3536.98721	3.84369
3535.05864	3.89185
3533.13008	3.94450
3531.20151	3.99422
3529.27295	4.04189
3527.34438	4.09170
3525.41582	4.14055
3523.48726	4.18605
3521.55869	4.23574
3519.63013	4.28908
3517.70156	4.33891
3515.77300	4.38267
3513.84443	4.42404
3511.91587	4.46881
3509.98730	4.52030
3508.05874	4.57268
3506.13018	4.61706
3504.20161	4.65844
3502.27305	4.70650
3500.34448	4.75873
3498.41592	4.80642
3496.48735	4.85380
3494.55879	4.90514
3492.63022	4.95245
3490.70166	4.99331
3488.77310	5.03424
3486.84453	5.07852
3484.91597	5.12720
3482.98740	5.18014
3481.05884	5.23143
3479.13027	5.27425
3477.20171	5.31520
3475.27314	5.36108
3473.34458	5.40918
3471.41602	5.45893
3469.48745	5.51051
3467.55889	5.56072
3465.63032	5.61066
3463.70176	5.66920
3461.77319	5.73026
3459.84463	5.77720
3457.91606	5.81838
3455.98750	5.87417
3454.05894	5.93540
3452.13037	5.98357
3450.20181	6.02257
3448.27324	6.06833
3446.34468	6.12571
3444.41611	6.17921
3442.48755	6.23019
3440.55898	6.27245
3438.63042	6.30205
3436.70186	6.34346
3434.77329	6.40544
3432.84473	6.47023
3430.91616	6.52423
3428.98760	6.57705
3427.05903	6.63371
3425.13047	6.69643
3423.20190	6.74996
3421.27334	6.79303
3419.34478	6.83614
3417.41621	6.87457
3415.48765	6.90223
3413.55908	6.92363
3411.63052	6.98017
3409.70195	7.05462
3407.77339	7.11213
3405.84482	7.16746
3403.91626	7.22183
3401.98770	7.27358
3400.05913	7.31585
3398.13057	7.32043
3396.20200	7.32983
3394.27344	7.39368
3392.34487	7.43940
3390.41631	7.45920
3388.48774	7.53406
3386.55918	7.65314
3384.63062	7.70042
3382.70205	7.66549
3380.77349	7.65056
3378.84492	7.67910
3376.91636	7.71453
3374.98779	7.72336
3373.05923	7.77492
3371.13066	7.88941
3369.20210	7.94188
3367.27354	7.89119
3365.34497	7.89771
3363.41641	7.99078
3361.48784	8.02342
3359.55928	7.99213
3357.63071	7.96816
3355.70215	7.98286
3353.77358	8.00951
3351.84502	8.04155
3349.91646	8.07554
3347.98789	8.07621
3346.05933	8.06376
3344.13076	8.09086
3342.20220	8.15901
3340.27363	8.24663
3338.34507	8.36516
3336.41650	8.41236
3334.48794	8.35878
3332.55937	8.31102
3330.63081	8.32999
3328.70225	8.37650
3326.77368	8.32068
3324.84512	8.18173
3322.91655	8.11808
3320.98799	8.18624
3319.05942	8.28481
3317.13086	8.33951
3315.20229	8.32885
3313.27373	8.28544
3311.34517	8.27198
3309.41660	8.27588
3307.48804	8.24908
3305.55947	8.25060
3303.63091	8.37968
3301.70234	8.46195
3299.77378	8.38316
3297.84521	8.29640
3295.91665	8.19573
3293.98809	8.05615
3292.05952	7.96282
3290.13096	7.94637
3288.20239	7.97504
3286.27383	8.06277
3284.34526	8.24723
3282.41670	8.45540
3280.48813	8.52466
3278.55957	8.46221
3276.63101	8.33782
3274.70244	8.22437
3272.77388	8.19461
3270.84531	8.22215
3268.91675	8.28537
3266.98818	8.34782
3265.05962	8.38568
3263.13105	8.46692
3261.20249	8.52392
3259.27393	8.33502
3257.34536	8.00966
3255.41680	7.84170
3253.48823	7.91930
3251.55967	8.10940
3249.63110	8.21605
3247.70254	8.21655
3245.77397	8.20058
3243.84541	8.17378
3241.91685	8.12645
3239.98828	8.18152
3238.05972	8.35994
3236.13115	8.49537
3234.20259	8.47213
3232.27402	8.36996
3230.34546	8.32679
3228.41689	8.29875
3226.48833	8.21367
3224.55977	8.15022
3222.63120	8.12891
3220.70264	8.11987
3218.77407	8.11382
3216.84551	8.10551
3214.91694	8.11095
3212.98838	8.08704
3211.05981	8.01659
3209.13125	7.95613
3207.20269	7.90962
3205.27412	7.84379
3203.34556	7.79228
3201.41699	7.76439
3199.48843	7.69915
3197.55986	7.66504
3195.63130	7.69805
3193.70273	7.67344
3191.77417	7.59349
3189.84561	7.57874
3187.91704	7.59758
3185.98848	7.53538
3184.05991	7.42676
3182.13135	7.35859
3180.20278	7.32204
3178.27422	7.27523
3176.34565	7.22732
3174.41709	7.19118
3172.48853	7.16540
3170.55996	7.11742
3168.63140	7.00946
3166.70283	6.88233
3164.77427	6.78703
3162.84570	6.73030
3160.91714	6.68605
3158.98857	6.64008
3157.06001	6.59330
3155.13145	6.54633
3153.20288	6.49937
3151.27432	6.43726
3149.34575	6.35829
3147.41719	6.27582
3145.48862	6.19402
3143.56006	6.11056
3141.63149	6.02968
3139.70293	5.96008
3137.77437	5.90035
3135.84580	5.84210
3133.91724	5.78630
3131.98867	5.72718
3130.06011	5.65553
3128.13154	5.58097
3126.20298	5.50766
3124.27441	5.42758
3122.34585	5.33460
3120.41729	5.24791
3118.48872	5.19011
3116.56016	5.14003
3114.63159	5.07168
3112.70303	4.99697
3110.77446	4.92783
3108.84590	4.85803
3106.91733	4.78770
3104.98877	4.72204
3103.06021	4.65832
3101.13164	4.58697
3099.20308	4.51109
3097.27451	4.44449
3095.34595	4.38329
3093.41738	4.31943
3091.48882	4.25558
3089.56025	4.19128
3087.63169	4.12564
3085.70312	4.06181
3083.77456	4.00046
3081.84600	3.94055
3079.91743	3.88132
3077.98887	3.82151
3076.06030	3.76195
3074.13174	3.70459
3072.20317	3.64769
3070.27461	3.58893
3068.34604	3.52907
3066.41748	3.46972
3064.48892	3.41305
3062.56035	3.35918
3060.63179	3.30607
3058.70322	3.25256
3056.77466	3.19817
3054.84609	3.14407
3052.91753	3.09225
3050.98896	3.04257
3049.06040	2.99287
3047.13184	2.94291
3045.20327	2.89403
3043.27471	2.84545
3041.34614	2.79760
3039.41758	2.75199
3037.48901	2.70682
3035.56045	2.66040
3033.63188	2.61411
3031.70332	2.56938
3029.77476	2.52581
3027.84619	2.48214
3025.91763	2.43833
3023.98906	2.39589
3022.06050	2.35495
3020.13193	2.31438
3018.20337	2.27409
3016.27480	2.23386
3014.34624	2.19382
3012.41768	2.15484
3010.48911	2.11699
3008.56055	2.07989
3006.63198	2.04341
3004.70342	2.00748
3002.77485	1.97211
3000.84629	1.93759
2998.91772	1.90410
2996.98916	1.87132
2995.06060	1.83863
2993.13203	1.80620
2991.20347	1.77489
2989.27490	1.74445
2987.34634	1.71407
2985.41777	1.68380
2983.48921	1.65400
2981.56064	1.62479
2979.63208	1.59604
2977.70352	1.56769
2975.77495	1.53984
2973.84639	1.51219
2971.91782	1.48450
2969.98926	1.45695
2968.06069	1.42963
2966.13213	1.40267
2964.20356	1.37634
2962.27500	1.35078
2960.34644	1.32571
2958.41787	1.30051
2956.48931	1.27565
2954.56074	1.25179
2952.63218	1.22824
2950.70361	1.20504
2948.77505	1.18305
2946.84648	1.16160
2944.91792	1.13937
2942.98936	1.11628
2941.06079	1.09297
2939.13223	1.06961
2937.20366	1.04670
2935.27510	1.02455
2933.34653	1.00219
2931.41797	0.97946
2929.48940	0.95706
2927.56084	0.93538
2925.63228	0.91479
2923.70371	0.89570
2921.77515	0.87841
2919.84658	0.86310
2917.91802	0.84948
2915.98945	0.83677
2914.06089	0.82414
2912.13232	0.81172
2910.20376	0.80010
2908.27520	0.78880
2906.34663	0.77707
2904.41807	0.76522
2902.48950	0.75361
2900.56094	0.74191
2898.63237	0.73001
2896.70381	0.71809
2894.77524	0.70640
2892.84668	0.69531
2890.91812	0.68478
2888.98955	0.67439
2887.06099	0.66380
2885.13242	0.65313
2883.20386	0.64269
2881.27529	0.63248
2879.34673	0.62236
2877.41816	0.61209
2875.48960	0.60146
2873.56104	0.59070
2871.63247	0.58004
2869.70391	0.56933
2867.77534	0.55829
2865.84678	0.54689
2863.91821	0.53542
2861.98965	0.52397
2860.06108	0.51231
2858.13252	0.50027
2856.20396	0.48836
2854.27539	0.47752
2852.34683	0.46795
2850.41826	0.45969
2848.48970	0.45338
2846.56113	0.44904
2844.63257	0.44573
2842.70400	0.44273
2840.77544	0.43934
2838.84687	0.43524
2836.91831	0.43075
2834.98975	0.42604
2833.06118	0.42115
2831.13262	0.41597
2829.20405	0.41035
2827.27549	0.40470
2825.34692	0.39933
2823.41836	0.39401
2821.48979	0.38855
2819.56123	0.38309
2817.63267	0.37766
2815.70410	0.37206
2813.77554	0.36660
2811.84697	0.36155
2809.91841	0.35653
2807.98984	0.35134
2806.06128	0.34615
2804.13271	0.34104
2802.20415	0.33607
2800.27559	0.33131
2798.34702	0.32664
2796.41846	0.32193
2794.48989	0.31733
2792.56133	0.31290
2790.63276	0.30859
2788.70420	0.30438
2786.77563	0.30022
2784.84707	0.29612
2782.91851	0.29205
2780.98994	0.28803
2779.06138	0.28423
2777.13281	0.28052
2775.20425	0.27672
2773.27568	0.27291
2771.34712	0.26929
2769.41855	0.26589
2767.48999	0.26259
2765.56143	0.25914
2763.63286	0.25550
2761.70430	0.25206
2759.77573	0.24904
2757.84717	0.24617
2755.91860	0.24317
2753.99004	0.24014
2752.06147	0.23724
2750.13291	0.23438
2748.20435	0.23154
2746.27578	0.22888
2744.34722	0.22630
2742.41865	0.22372
2740.49009	0.22111
2738.56152	0.21850
2736.63296	0.21605
2734.70439	0.21374
2732.77583	0.21132
2730.84727	0.20892
2728.91870	0.20670
2726.99014	0.20458
2725.06157	0.20250
2723.13301	0.20048
2721.20444	0.19855
2719.27588	0.19662
2717.34731	0.19461
2715.41875	0.19267
2713.49019	0.19085
2711.56162	0.18898
2709.63306	0.18709
2707.70449	0.18547
2705.77593	0.18416
2703.84736	0.18279
2701.91880	0.18121
2699.99023	0.17965
2698.06167	0.17827
2696.13311	0.17692
2694.20454	0.17549
2692.27598	0.17404
2690.34741	0.17267
2688.41885	0.17152
2686.49028	0.17048
2684.56172	0.16935
2682.63315	0.16817
2680.70459	0.16713
2678.77603	0.16616
2676.84746	0.16502
2674.91890	0.16374
2672.99033	0.16246
2671.06177	0.16129
2669.13320	0.16026
2667.20464	0.15937
2665.27607	0.15856
2663.34751	0.15773
2661.41895	0.15701
2659.49038	0.15648
2657.56182	0.15592
2655.63325	0.15514
2653.70469	0.15441
2651.77612	0.15385
2649.84756	0.15330
2647.91899	0.15264
2645.99043	0.15194
2644.06187	0.15131
2642.13330	0.15072
2640.20474	0.15018
2638.27617	0.14977
2636.34761	0.14952
2634.41904	0.14930
2632.49048	0.14897
2630.56191	0.14851
2628.63335	0.14795
2626.70479	0.14747
2624.77622	0.14729
2622.84766	0.14727
2620.91909	0.14705
2618.99053	0.14672
2617.06196	0.14655
2615.13340	0.14652
2613.20483	0.14650
2611.27627	0.14644
2609.34771	0.14633
2607.41914	0.14617
2605.49058	0.14609
2603.56201	0.14608
2601.63345	0.14608
2599.70488	0.14612
2597.77632	0.14629
2595.84775	0.14646
2593.91919	0.14649
2591.99062	0.14653
2590.06206	0.14672
2588.13350	0.14694
2586.20493	0.14719
2584.27637	0.14747
2582.34780	0.14766
2580.41924	0.14778
2578.49067	0.14802
2576.56211	0.14836
2574.63354	0.14865
2572.70498	0.14909
2570.77642	0.14964
2568.84785	0.15012
2566.91929	0.15052
2564.99072	0.15089
2563.06216	0.15128
2561.13359	0.15171
2559.20503	0.15210
2557.27646	0.15252
2555.34790	0.15312
2553.41934	0.15373
2551.49077	0.15416
2549.56221	0.15455
2547.63364	0.15513
2545.70508	0.15592
2543.77651	0.15670
2541.84795	0.15729
2539.91938	0.15784
2537.99082	0.15848
2536.06226	0.15922
2534.13369	0.16003
2532.20513	0.16082
2530.27656	0.16159
2528.34800	0.16229
2526.41943	0.16286
2524.49087	0.16349
2522.56230	0.16425
2520.63374	0.16508
2518.70518	0.16594
2516.77661	0.16687
2514.84805	0.16779
2512.91948	0.16853
2510.99092	0.16921
2509.06235	0.16997
2507.13379	0.17069
2505.20522	0.17143
2503.27666	0.17232
2501.34810	0.17334
2499.41953	0.17431
2497.49097	0.17518
2495.56240	0.17596
2493.63384	0.17674
2491.70527	0.17761
2489.77671	0.17859
2487.84814	0.17958
2485.91958	0.18053
2483.99102	0.18145
2482.06245	0.18240
2480.13389	0.18331
2478.20532	0.18416
2476.27676	0.18502
2474.34819	0.18598
2472.41963	0.18694
2470.49106	0.18787
2468.56250	0.18881
2466.63394	0.18968
2464.70537	0.19050
2462.77681	0.19140
2460.84824	0.19239
2458.91968	0.19344
2456.99111	0.19455
2455.06255	0.19562
2453.13398	0.19651
2451.20542	0.19733
2449.27686	0.19831
2447.34829	0.19949
2445.41973	0.20066
2443.49116	0.20176
2441.56260	0.20277
2439.63403	0.20374
2437.70547	0.20481
2435.77690	0.20589
2433.84834	0.20687
2431.91978	0.20789
2429.99121	0.20902
2428.06265	0.21013
2426.13408	0.21120
2424.20552	0.21225
2422.27695	0.21328
2420.34839	0.21438
2418.41982	0.21553
2416.49126	0.21673
2414.56270	0.21796
2412.63413	0.21919
2410.70557	0.22040
2408.77700	0.22161
2406.84844	0.22278
2404.91987	0.22390
2402.99131	0.22513
2401.06274	0.22654
2399.13418	0.22787
2397.20562	0.22902
2395.27705	0.23022
2393.34849	0.23152
2391.41992	0.23284
2389.49136	0.23414
2387.56279	0.23532
2385.63423	0.23659
2383.70566	0.23815
2381.77710	0.23979
2379.84854	0.24147
2377.91997	0.24324
2375.99141	0.24497
2374.06284	0.24687
2372.13428	0.24929
2370.20571	0.25183
2368.27715	0.25453
2366.34858	0.25810
2364.42002	0.26143
2362.49146	0.26363
2360.56289	0.26540
2358.63433	0.26689
2356.70576	0.26791
2354.77720	0.26785
2352.84863	0.26770
2350.92007	0.26809
2348.99150	0.26854
2347.06294	0.26929
2345.13437	0.27101
2343.20581	0.27371
2341.27725	0.27620
2339.34868	0.27809
2337.42012	0.27977
2335.49155	0.28122
2333.56299	0.28263
2331.63442	0.28453
2329.70586	0.28641
2327.77729	0.28778
2325.84873	0.28882
2323.92017	0.29004
2321.99160	0.29174
2320.06304	0.29342
2318.13447	0.29464
2316.20591	0.29577
2314.27734	0.29725
2312.34878	0.29895
2310.42021	0.30050
2308.49165	0.30192
2306.56309	0.30341
2304.63452	0.30491
2302.70596	0.30634
2300.77739	0.30800
2298.84883	0.30992
2296.92026	0.31182
2294.99170	0.31360
2293.06313	0.31544
2291.13457	0.31736
2289.20601	0.31919
2287.27744	0.32093
2285.34888	0.32273
2283.42031	0.32463
2281.49175	0.32653
2279.56318	0.32850
2277.63462	0.33063
2275.70605	0.33281
2273.77749	0.33493
2271.84893	0.33698
2269.92036	0.33906
2267.99180	0.34125
2266.06323	0.34347
2264.13467	0.34564
2262.20610	0.34780
2260.27754	0.34988
2258.34897	0.35199
2256.42041	0.35419
2254.49185	0.35637
2252.56328	0.35854
2250.63472	0.36072
2248.70615	0.36282
2246.77759	0.36487
2244.84902	0.36701
2242.92046	0.36925
2240.99189	0.37156
2239.06333	0.37388
2237.13477	0.37618
2235.20620	0.37846
2233.27764	0.38072
2231.34907	0.38296
2229.42051	0.38516
2227.49194	0.38736
2225.56338	0.38963
2223.63481	0.39188
2221.70625	0.39401
2219.77769	0.39611
2217.84912	0.39833
2215.92056	0.40069
2213.99199	0.40307
2212.06343	0.40534
2210.13486	0.40750
2208.20630	0.40965
2206.27773	0.41178
2204.34917	0.41386
2202.42061	0.41590
2200.49204	0.41786
2198.56348	0.41984
2196.63491	0.42191
2194.70635	0.42390
2192.77778	0.42573
2190.84922	0.42758
2188.92065	0.42951
2186.99209	0.43139
2185.06353	0.43320
2183.13496	0.43503
2181.20640	0.43675
2179.27783	0.43840
2177.34927	0.44003
2175.42070	0.44153
2173.49214	0.44303
2171.56357	0.44464
2169.63501	0.44615
2167.70645	0.44747
2165.77788	0.44870
2163.84932	0.44988
2161.92075	0.45105
2159.99219	0.45222
2158.06362	0.45329
2156.13506	0.45428
2154.20649	0.45524
2152.27793	0.45610
2150.34937	0.45682
2148.42080	0.45751
2146.49224	0.45814
2144.56367	0.45863
2142.63511	0.45898
2140.70654	0.45928
2138.77798	0.45956
2136.84941	0.45979
2134.92085	0.45995
2132.99229	0.45999
2131.06372	0.45992
2129.13516	0.45978
2127.20659	0.45954
2125.27803	0.45929
2123.34946	0.45908
2121.42090	0.45881
2119.49233	0.45829
2117.56377	0.45747
2115.63521	0.45659
2113.70664	0.45580
2111.77808	0.45501
2109.84951	0.45414
2107.92095	0.45314
2105.99238	0.45195
2104.06382	0.45068
2102.13525	0.44946
2100.20669	0.44828
2098.27812	0.44695
2096.34956	0.44549
2094.42100	0.44399
2092.49243	0.44244
2090.56387	0.44078
2088.63530	0.43904
2086.70674	0.43726
2084.77817	0.43543
2082.84961	0.43354
2080.92104	0.43159
2078.99248	0.42959
2077.06392	0.42750
2075.13535	0.42529
2073.20679	0.42305
2071.27822	0.42086
2069.34966	0.41871
2067.42109	0.41652
2065.49253	0.41421
2063.56396	0.41175
2061.63540	0.40923
2059.70684	0.40671
2057.77827	0.40417
2055.84971	0.40158
2053.92114	0.39897
2051.99258	0.39643
2050.06401	0.39393
2048.13545	0.39130
2046.20688	0.38854
2044.27832	0.38582
2042.34976	0.38311
2040.42119	0.38028
2038.49263	0.37743
2036.56406	0.37470
2034.63550	0.37205
2032.70693	0.36929
2030.77837	0.36644
2028.84980	0.36367
2026.92124	0.36096
2024.99268	0.35821
2023.06411	0.35549
2021.13555	0.35274
2019.20698	0.34994
2017.27842	0.34716
2015.34985	0.34432
2013.42129	0.34149
2011.49272	0.33874
2009.56416	0.33599
2007.63560	0.33317
2005.70703	0.33038
2003.77847	0.32770
2001.84990	0.32502
1999.92134	0.32233
1997.99277	0.31967
1996.06421	0.31706
1994.13564	0.31455
1992.20708	0.31206
1990.27852	0.30945
1988.34995	0.30689
1986.42139	0.30445
1984.49282	0.30206
1982.56426	0.29967
1980.63569	0.29726
1978.70713	0.29488
1976.77856	0.29257
1974.85000	0.29031
1972.92144	0.28806
1970.99287	0.28583
1969.06431	0.28378
1967.13574	0.28188
1965.20718	0.27983
1963.27861	0.27767
1961.35005	0.27560
1959.42148	0.27367
1957.49292	0.27186
1955.56436	0.27007
1953.63579	0.26820
1951.70723	0.26630
1949.77866	0.26458
1947.85010	0.26304
1945.92153	0.26152
1943.99297	0.26000
1942.06440	0.25851
1940.13584	0.25700
1938.20728	0.25547
1936.27871	0.25403
1934.35015	0.25268
1932.42158	0.25141
1930.49302	0.25019
1928.56445	0.24909
1926.63589	0.24808
1924.70732	0.24710
1922.77876	0.24611
1920.85020	0.24513
1918.92163	0.24424
1916.99307	0.24327
1915.06450	0.24216
1913.13594	0.24116
1911.20737	0.24047
1909.27881	0.23993
1907.35024	0.23929
1905.42168	0.23852
1903.49312	0.23784
1901.56455	0.23724
1899.63599	0.23667
1897.70742	0.23621
1895.77886	0.23588
1893.85029	0.23562
1891.92173	0.23530
1889.99316	0.23500
1888.06460	0.23468
1886.13604	0.23436
1884.20747	0.23410
1882.27891	0.23385
1880.35034	0.23365
1878.42178	0.23354
1876.49321	0.23352
1874.56465	0.23339
1872.63608	0.23334
1870.70752	0.23363
1868.77896	0.23433
1866.85039	0.23471
1864.92183	0.23452
1862.99326	0.23445
1861.06470	0.23470
1859.13613	0.23507
1857.20757	0.23537
1855.27900	0.23569
1853.35044	0.23606
1851.42187	0.23656
1849.49331	0.23723
1847.56475	0.23797
1845.63618	0.23882
1843.70762	0.23994
1841.77905	0.24076
1839.85049	0.24108
1837.92192	0.24174
1835.99336	0.24269
1834.06479	0.24362
1832.13623	0.24463
1830.20767	0.24617
1828.27910	0.24775
1826.35054	0.24868
1824.42197	0.24978
1822.49341	0.25104
1820.56484	0.25221
1818.63628	0.25346
1816.70771	0.25505
1814.77915	0.25678
1812.85059	0.25862
1810.92202	0.26068
1808.99346	0.26277
1807.06489	0.26472
1805.13633	0.26658
1803.20776	0.26874
1801.27920	0.27129
1799.35063	0.27412
1797.42207	0.27668
1795.49351	0.27915
1793.56494	0.28212
1791.63638	0.28596
1789.70781	0.28935
1787.77925	0.29173
1785.85068	0.29474
1783.92212	0.29851
1781.99355	0.30254
1780.06499	0.30679
1778.13643	0.31109
1776.20786	0.31504
1774.27930	0.31926
1772.35073	0.32518
1770.42217	0.33167
1768.49360	0.33688
1766.56504	0.34187
1764.63647	0.34703
1762.70791	0.35275
1760.77935	0.36003
1758.85078	0.36671
1756.92222	0.37341
1754.99365	0.38076
1753.06509	0.38716
1751.13652	0.39470
1749.20796	0.40472
1747.27939	0.41487
1745.35083	0.42357
1743.42227	0.43266
1741.49370	0.44299
1739.56514	0.45580
1737.63657	0.46889
1735.70801	0.48015
1733.77944	0.49723
1731.85088	0.51784
1729.92231	0.53357
1727.99375	0.54945
1726.06519	0.56648
1724.13662	0.58513
1722.20806	0.60533
1720.27949	0.62367
1718.35093	0.64501
1716.42236	0.67802
1714.49380	0.70960
1712.56523	0.73407
1710.63667	0.75757
1708.70811	0.78291
1706.77954	0.81171
1704.85098	0.84644
1702.92241	0.87725
1700.99385	0.90683
1699.06528	0.95201
1697.13672	0.99471
1695.20815	1.03839
1693.27959	1.07955
1691.35103	1.11153
1689.42246	1.14884
1687.49390	1.18879
1685.56533	1.22703
1683.63677	1.28746
1681.70820	1.35072
1679.77964	1.38955
1677.85107	1.42669
1675.92251	1.46943
1673.99395	1.52310
1672.06538	1.57084
1670.13682	1.61744
1668.20825	1.67961
1666.27969	1.72816
1664.35112	1.76769
1662.42256	1.81892
1660.49399	1.87964
1658.56543	1.92669
1656.63687	1.96468
1654.70830	1.99990
1652.77974	2.05786
1650.85117	2.11443
1648.92261	2.13327
1646.99404	2.15938
1645.06548	2.18884
1643.13691	2.20911
1641.20835	2.22190
1639.27979	2.23357
1637.35122	2.24036
1635.42266	2.24115
1633.49409	2.23568
1631.56553	2.22289
1629.63696	2.20712
1627.70840	2.18223
1625.77983	2.15378
1623.85127	2.11474
1621.92271	2.06628
1619.99414	2.02500
1618.06558	1.98452
1616.13701	1.92326
1614.20845	1.86005
1612.27988	1.81294
1610.35132	1.76365
1608.42275	1.70989
1606.49419	1.65682
1604.56562	1.60819
1602.63706	1.56074
1600.70850	1.51349
1598.77993	1.46988
1596.85137	1.42929
1594.92280	1.38992
1592.99424	1.35188
1591.06567	1.31727
1589.13711	1.28447
1587.20854	1.25353
1585.27998	1.22498
1583.35142	1.19855
1581.42285	1.17461
1579.49429	1.15389
1577.56572	1.13466
1575.63716	1.11071
1573.70859	1.08977
1571.78003	1.07634
1569.85146	1.06231
1567.92290	1.04631
1565.99434	1.03378
1564.06577	1.02356
1562.13721	1.01537
1560.20864	1.00979
1558.28008	1.00267
1556.35151	0.99561
1554.42295	0.99036
1552.49438	0.98534
1550.56582	0.97985
1548.63726	0.97275
1546.70869	0.96480
1544.78013	0.95562
1542.85156	0.94459
1540.92300	0.93007
1538.99443	0.90842
1537.06587	0.89300
1535.13730	0.88271
1533.20874	0.86899
1531.28018	0.85414
1529.35161	0.84339
1527.42305	0.83329
1525.49448	0.82280
1523.56592	0.81383
1521.63735	0.80495
1519.70879	0.79545
1517.78022	0.78756
1515.85166	0.77901
1513.92310	0.77028
1511.99453	0.76290
1510.06597	0.75658
1508.13740	0.75097
1506.20884	0.74117
1504.28027	0.73129
1502.35171	0.72560
1500.42314	0.72109
1498.49458	0.71651
1496.56602	0.71095
1494.63745	0.70537
1492.70889	0.70115
1490.78032	0.69762
1488.85176	0.69352
1486.92319	0.68921
1484.99463	0.68542
1483.06606	0.68237
1481.13750	0.67984
1479.20894	0.67765
1477.28037	0.67587
1475.35181	0.67430
1473.42324	0.67246
1471.49468	0.66929
1469.56611	0.66562
1467.63755	0.66265
1465.70898	0.66048
1463.78042	0.65882
1461.85186	0.65738
1459.92329	0.65638
1457.99473	0.65579
1456.06616	0.65440
1454.13760	0.65176
1452.20903	0.64932
1450.28047	0.64720
1448.35190	0.64523
1446.42334	0.64308
1444.49478	0.64086
1442.56621	0.63885
1440.63765	0.63708
1438.70908	0.63554
1436.78052	0.63364
1434.85195	0.63113
1432.92339	0.62903
1430.99482	0.62773
1429.06626	0.62688
1427.13770	0.62624
1425.20913	0.62602
1423.28057	0.62614
1421.35200	0.62602
1419.42344	0.62567
1417.49487	0.62495
1415.56631	0.62362
1413.63774	0.62242
1411.70918	0.62177
1409.78062	0.62161
1407.85205	0.62155
1405.92349	0.62142
1403.99492	0.62095
1402.06636	0.62011
1400.13779	0.61926
1398.20923	0.61809
1396.28066	0.61617
1394.35210	0.61340
1392.42354	0.61020
1390.49497	0.60729
1388.56641	0.60461
1386.63784	0.60155
1384.70928	0.59811
1382.78071	0.59481
1380.85215	0.59175
1378.92358	0.58921
1376.99502	0.58736
1375.06646	0.58605
1373.13789	0.58502
1371.20933	0.58419
1369.28076	0.58355
1367.35220	0.58281
1365.42363	0.58174
1363.49507	0.58060
1361.56650	0.57949
1359.63794	0.57823
1357.70937	0.57697
1355.78081	0.57581
1353.85225	0.57477
1351.92368	0.57392
1349.99512	0.57325
1348.06655	0.57259
1346.13799	0.57182
1344.20942	0.57103
1342.28086	0.57038
1340.35229	0.56981
1338.42373	0.56908
1336.49517	0.56820
1334.56660	0.56745
1332.63804	0.56698
1330.70947	0.56671
1328.78091	0.56654
1326.85234	0.56656
1324.92378	0.56670
1322.99521	0.56680
1321.06665	0.56680
1319.13809	0.56673
1317.20952	0.56652
1315.28096	0.56611
1313.35239	0.56559
1311.42383	0.56487
1309.49526	0.56392
1307.56670	0.56309
1305.63813	0.56247
1303.70957	0.56181
1301.78101	0.56093
1299.85244	0.55987
1297.92388	0.55877
1295.99531	0.55768
1294.06675	0.55651
1292.13818	0.55527
1290.20962	0.55416
1288.28105	0.55325
1286.35249	0.55242
1284.42393	0.55153
1282.49536	0.55055
1280.56680	0.54966
1278.63823	0.54882
1276.70967	0.54787
1274.78110	0.54701
1272.85254	0.54639
1270.92397	0.54581
1268.99541	0.54517
1267.06685	0.54444
1265.13828	0.54365
1263.20972	0.54302
1261.28115	0.54255
1259.35259	0.54213
1257.42402	0.54180
1255.49546	0.54152
1253.56689	0.54128
1251.63833	0.54125
1249.70977	0.54148
1247.78120	0.54167
1245.85264	0.54144
1243.92407	0.54088
1241.99551	0.54030
1240.06694	0.53960
1238.13838	0.53863
1236.20981	0.53737
1234.28125	0.53595
1232.35269	0.53462
1230.42412	0.53337
1228.49556	0.53207
1226.56699	0.53076
1224.63843	0.52954
1222.70986	0.52852
1220.78130	0.52769
1218.85273	0.52674
1216.92417	0.52560
1214.99561	0.52459
1213.06704	0.52384
1211.13848	0.52327
1209.20991	0.52273
1207.28135	0.52214
1205.35278	0.52159
1203.42422	0.52100
1201.49565	0.52017
1199.56709	0.51929
1197.63853	0.51855
1195.70996	0.51794
1193.78140	0.51746
1191.85283	0.51705
1189.92427	0.51664
1187.99570	0.51633
1186.06714	0.51611
1184.13857	0.51590
1182.21001	0.51588
1180.28145	0.51628
1178.35288	0.51703
1176.42432	0.51787
1174.49575	0.51858
1172.56719	0.51909
1170.63862	0.51930
1168.71006	0.51929
1166.78149	0.51926
1164.85293	0.51925
1162.92437	0.51919
1160.99580	0.51902
1159.06724	0.51867
1157.13867	0.51807
1155.21011	0.51703
1153.28154	0.51564
1151.35298	0.51411
1149.42441	0.51229
1147.49585	0.51012
1145.56729	0.50788
1143.63872	0.50573
1141.71016	0.50365
1139.78159	0.50163
1137.85303	0.49977
1135.92446	0.49820
1133.99590	0.49703
1132.06733	0.49621
1130.13877	0.49554
1128.21021	0.49470
1126.28164	0.49360
1124.35308	0.49254
1122.42451	0.49168
1120.49595	0.49091
1118.56738	0.49026
1116.63882	0.48991
1114.71025	0.48966
1112.78169	0.48938
1110.85312	0.48938
1108.92456	0.48988
1106.99600	0.49091
1105.06743	0.49229
1103.13887	0.49368
1101.21030	0.49527
1099.28174	0.49748
1097.35317	0.50018
1095.42461	0.50315
1093.49604	0.50641
1091.56748	0.51026
1089.63892	0.51504
1087.71035	0.52067
1085.78179	0.52692
1083.85322	0.53342
1081.92466	0.53966
1079.99609	0.54507
1078.06753	0.54861
1076.13896	0.54940
1074.21040	0.54751
1072.28184	0.54328
1070.35327	0.53742
1068.42471	0.53106
1066.49614	0.52479
1064.56758	0.51883
1062.63901	0.51330
1060.71045	0.50816
1058.78188	0.50352
1056.85332	0.49948
1054.92476	0.49603
1052.99619	0.49300
1051.06763	0.49039
1049.13906	0.48840
1047.21050	0.48701
1045.28193	0.48584
1043.35337	0.48454
1041.42480	0.48325
1039.49624	0.48226
1037.56768	0.48160
1035.63911	0.48118
1033.71055	0.48074
1031.78198	0.48017
1029.85342	0.47979
1027.92485	0.47964
1025.99629	0.47960
1024.06772	0.47973
1022.13916	0.48002
1020.21060	0.48065
1018.28203	0.48162
1016.35347	0.48252
1014.42490	0.48328
1012.49634	0.48426
1010.56777	0.48562
1008.63921	0.48715
1006.71064	0.48874
1004.78208	0.49044
1002.85352	0.49239
1000.92495	0.49481
998.99639	0.49790
997.06782	0.50163
995.13926	0.50578
993.21069	0.50990
991.28213	0.51327
989.35356	0.51553
987.42500	0.51686
985.49644	0.51775
983.56787	0.51863
981.63931	0.51968
979.71074	0.52109
977.78218	0.52288
975.85361	0.52494
973.92505	0.52746
971.99648	0.53048
970.06792	0.53390
968.13936	0.53783
966.21079	0.54215
964.28223	0.54652
962.35366	0.55101
960.42510	0.55606
958.49653	0.56172
956.56797	0.56759
954.63940	0.57349
952.71084	0.57951
950.78228	0.58556
948.85371	0.59151
946.92515	0.59777
944.99658	0.60448
943.06802	0.61102
941.13945	0.61718
939.21089	0.62325
937.28232	0.62940
935.35376	0.63552
933.42520	0.64102
931.49663	0.64578
929.56807	0.65081
927.63950	0.65677
925.71094	0.66318
923.78237	0.66920
921.85381	0.67503
919.92524	0.68164
917.99668	0.68897
916.06812	0.69612
914.13955	0.70292
912.21099	0.71011
910.28242	0.71824
908.35386	0.72693
906.42529	0.73583
904.49673	0.74529
902.56816	0.75524
900.63960	0.76500
898.71104	0.77399
896.78247	0.78271
894.85391	0.79232
892.92534	0.80305
890.99678	0.81418
889.06821	0.82509
887.13965	0.83581
885.21108	0.84686
883.28252	0.85856
881.35396	0.87057
879.42539	0.88198
877.49683	0.89258
875.56826	0.90368
873.63970	0.91594
871.71113	0.92838
869.78257	0.93958
867.85400	0.94956
865.92544	0.95921
863.99687	0.96856
862.06831	0.97867
860.13975	0.99179
858.21118	1.00721
856.28262	1.02060
854.35405	1.03122
852.42549	1.04218
850.49692	1.05442
848.56836	1.06748
846.63979	1.07984
844.71123	1.09056
842.78267	1.10085
840.85410	1.11123
838.92554	1.12115
836.99697	1.13198
835.06841	1.14680
833.13984	1.16354
831.21128	1.17486
829.28271	1.18213
827.35415	1.19072
825.42559	1.20042
823.49702	1.21406
821.56846	1.23108
819.63989	1.24651
817.71133	1.25757
815.78276	1.26244
813.85420	1.26469
811.92563	1.27276
809.99707	1.28877
808.06851	1.30003
806.13994	1.30307
804.21138	1.31433
802.28281	1.34141
800.35425	1.37311
798.42568	1.39433
796.49712	1.39683
794.56855	1.39827
792.63999	1.42184
790.71143	1.45812
788.78286	1.50459
786.85430	1.57630
784.92573	1.64774
782.99717	1.63853
781.06860	1.59254
779.14004	1.58902
777.21147	1.61527
775.28291	1.64844
773.35435	1.69158
771.42578	1.80838
769.49722	1.86049
767.56865	1.75561
765.64009	1.53697
763.71152	1.45051
761.78296	1.51983
759.85439	1.55787
757.92583	1.33716
755.99727	1.14229
754.06870	1.10385
752.14014	1.13427
750.21157	1.12707
748.28301	1.11369
746.35444	1.14900
744.42588	1.16977
742.49731	1.10418
740.56875	0.97832
738.64019	0.85955
736.71162	0.78070
734.78306	0.71424
732.85449	0.65848
730.92593	0.67061
728.99736	0.67655
727.06880	0.52757
725.14023	0.34045
723.21167	0.18945
721.28311	0.11868
719.35454	0.17082
717.42598	0.17354
715.49741	0.12664
713.56885	0.17230
711.64028	0.20094
709.71172	0.14934
707.78315	0.05142
705.85459	0.06399
703.92603	0.39294
701.99746	0.65861
700.06890	0.13819
698.14033	-0.12055
696.21177	-0.11580
694.28320	0.03587
692.35464	0.19553
690.42607	0.32097
688.49751	0.39570
686.56895	0.42828
684.64038	0.39660
682.71182	0.34996
680.78325	0.31667
678.85469	0.27069
676.92612	0.16667
674.99756	0.09837
673.06899	0.11864
671.14043	0.16687
669.21187	0.22996
667.28330	0.21821
665.35474	0.10752
663.42617	0.08311
661.49761	0.13025
659.56904	0.14467
657.64048	0.15115
655.71191	0.19349
653.78335	0.23491
651.85479	0.26079
649.92622	0.20508
647.99766	0.13859
646.06909	0.17952
644.14053	0.28192
642.21196	0.31450
640.28340	0.28390
638.35483	0.28685
636.42627	0.29799
634.49771	0.31608
632.56914	0.32263
630.64058	0.30961
628.71201	0.32268
626.78345	0.31310
624.85488	0.23769
622.92632	0.12466
620.99775	0.03049
619.06919	-0.01845
617.14062	-0.00817
615.21206	0.10607
613.28350	0.31485
611.35493	0.54156
609.42637	0.39692
607.49780	0.22063
605.56924	0.14607
603.64067	0.11532
601.71211	0.10695
599.78354	0.12724
597.85498	0.13873
595.92642	0.12703
593.99785	0.13601
592.06929	0.15772
590.14072	0.13544
588.21216	0.11502
586.28359	0.21229
584.35503	0.35577
582.42646	0.31137
580.49790	0.21967
578.56934	0.17571
576.64077	0.15295
574.71221	0.14601
572.78364	0.16610
570.85508	0.18525
568.92651	0.16234
566.99795	0.13974
565.06938	0.13890
563.14082	0.14350
561.21226	0.15683
559.28369	0.15602
557.35513	0.13549
555.42656	0.12625
553.49800	0.13423
551.56943	0.11670
549.64087	0.09570
547.71230	0.10442
545.78374	0.10350
543.85518	0.11744
541.92661	0.17585
539.99805	0.13357
538.06948	0.04393
536.14092	0.04316
534.21235	0.12742
532.28379	0.21160
530.35522	0.22249
528.42666	0.17323
526.49810	0.12011
524.56953	0.09631
522.64097	0.12419
520.71240	0.20093
518.78384	0.22092
516.85527	0.17468
514.92671	0.14350
512.99814	0.14884
511.06958	0.17918
509.14102	0.19024
507.21245	0.19495
505.28389	0.23008
503.35532	0.25560
501.42676	0.24216
499.49819	0.24904
