3997.91411	0.08763
3995.98555	0.08807
3994.05698	0.08865
3992.12842	0.08916
3990.19985	0.08975
3988.27129	0.09031
3986.34272	0.09050
3984.41416	0.09054
3982.48560	0.09075
3980.55703	0.09117
3978.62847	0.09169
3976.69990	0.09214
3974.77134	0.09249
3972.84277	0.09254
3970.91421	0.09219
3968.98564	0.09201
3967.05708	0.09235
3965.12852	0.09290
3963.19995	0.09349
3961.27139	0.09392
3959.34282	0.09371
3957.41426	0.09329
3955.48569	0.09343
3953.55713	0.09411
3951.62856	0.09494
3949.70000	0.09574
3947.77144	0.09608
3945.84287	0.09571
3943.91431	0.09541
3941.98574	0.09541
3940.05718	0.09494
3938.12861	0.09428
3936.20005	0.09392
3934.27148	0.09408
3932.34292	0.09522
3930.41436	0.09631
3928.48579	0.09576
3926.55723	0.09498
3924.62866	0.09542
3922.70010	0.09607
3920.77153	0.09608
3918.84297	0.09609
3916.91440	0.09626
3914.98584	0.09576
3913.05728	0.09445
3911.12871	0.09313
3909.20015	0.09238
3907.27158	0.09319
3905.34302	0.09607
3903.41445	0.09941
3901.48589	0.10045
3899.55732	0.09912
3897.62876	0.09693
3895.70020	0.09523
3893.77163	0.09517
3891.84307	0.09658
3889.91450	0.09723
3887.98594	0.09653
3886.05737	0.09680
3884.12881	0.09794
3882.20024	0.09841
3880.27168	0.09838
3878.34312	0.09731
3876.41455	0.09601
3874.48599	0.09665
3872.55742	0.09911
3870.62886	0.10155
3868.70029	0.10225
3866.77173	0.10144
3864.84316	0.10205
3862.91460	0.10351
3860.98604	0.10247
3859.05747	0.10041
3857.12891	0.10051
3855.20034	0.10339
3853.27178	0.10806
3851.34321	0.10967
3849.41465	0.10609
3847.48608	0.10272
3845.55752	0.10175
3843.62896	0.10326
3841.70039	0.10624
3839.77183	0.10960
3837.84326	0.11209
3835.91470	0.11219
3833.98613	0.11105
3832.05757	0.11002
3830.12900	0.10920
3828.20044	0.10921
3826.27187	0.11027
3824.34331	0.11167
3822.41475	0.11400
3820.48618	0.11810
3818.55762	0.12030
3816.62905	0.11954
3814.70049	0.11763
3812.77192	0.11526
3810.84336	0.11434
3808.91479	0.11585
3806.98623	0.11954
3805.05767	0.12288
3803.12910	0.12453
3801.20054	0.12641
3799.27197	0.12746
3797.34341	0.12708
3795.41484	0.12661
3793.48628	0.12588
3791.55771	0.12562
3789.62915	0.12645
3787.70059	0.12811
3785.77202	0.13055
3783.84346	0.13291
3781.91489	0.13440
3779.98633	0.13612
3778.05776	0.13797
3776.12920	0.13838
3774.20063	0.13870
3772.27207	0.14072
3770.34351	0.14442
3768.41494	0.14817
3766.48638	0.15026
3764.55781	0.15123
3762.62925	0.15210
3760.70068	0.15444
3758.77212	0.15877
3756.84355	0.16277
3754.91499	0.16553
3752.98643	0.16932
3751.05786	0.17561
3749.12930	0.18115
3747.20073	0.18236
3745.27217	0.18352
3743.34360	0.18693
3741.41504	0.19094
3739.48647	0.19491
3737.55791	0.20018
3735.62935	0.20777
3733.70078	0.21540
3731.77222	0.21892
3729.84365	0.22094
3727.91509	0.22477
3725.98652	0.23104
3724.05796	0.23801
3722.12939	0.24382
3720.20083	0.24895
3718.27227	0.25393
3716.34370	0.25933
3714.41514	0.26638
3712.48657	0.27770
3710.55801	0.29444
3708.62944	0.30909
3706.70088	0.31869
3704.77231	0.32887
3702.84375	0.34280
3700.91519	0.36102
3698.98662	0.37933
3697.05806	0.39600
3695.12949	0.41439
3693.20093	0.43473
3691.27236	0.45776
3689.34380	0.48777
3687.41523	0.52234
3685.48667	0.55034
3683.55811	0.57467
3681.62954	0.60214
3679.70098	0.63440
3677.77241	0.66957
3675.84385	0.71185
3673.91528	0.76734
3671.98672	0.81039
3670.05815	0.84839
3668.12959	0.90100
3666.20103	0.94791
3664.27246	0.98743
3662.34390	1.03072
3660.41533	1.07799
3658.48677	1.12523
3656.55820	1.17601
3654.62964	1.23236
3652.70107	1.27936
3650.77251	1.32181
3648.84395	1.38281
3646.91538	1.45379
3644.98682	1.50020
3643.05825	1.53607
3641.12969	1.57526
3639.20112	1.62054
3637.27256	1.66747
3635.34399	1.71249
3633.41543	1.75603
3631.48687	1.79729
3629.55830	1.84154
3627.62974	1.89954
3625.70117	1.94947
3623.77261	1.98152
3621.84404	2.01380
3619.91548	2.05210
3617.98691	2.09917
3616.05835	2.14454
3614.12979	2.18182
3612.20122	2.22080
3610.27266	2.26034
3608.34409	2.30049
3606.41553	2.34354
3604.48696	2.38342
3602.55840	2.41927
3600.62983	2.45829
3598.70127	2.49984
3596.77271	2.53943
3594.84414	2.58038
3592.91558	2.62352
3590.98701	2.66277
3589.05845	2.69812
3587.12988	2.74193
3585.20132	2.79155
3583.27275	2.83192
3581.34419	2.86800
3579.41562	2.90699
3577.48706	2.94953
3575.55850	2.99372
3573.62993	3.03785
3571.70137	3.07893
3569.77280	3.11847
3567.84424	3.16331
3565.91567	3.21996
3563.98711	3.27311
3562.05854	3.31465
3560.12998	3.35506
3558.20142	3.39682
3556.27285	3.44016
3554.34429	3.48551
3552.41572	3.53342
3550.48716	3.58042
3548.55859	3.62394
3546.63003	3.66761
3544.70146	3.71672
3542.77290	3.76957
3540.84434	3.81967
3538.91577	3.86619
3536.98721	3.91200
3535.05864	3.96129
3533.13008	4.01092
3531.20151	4.05721
3529.27295	4.10393
3527.34438	4.15337
3525.41582	4.20146
3523.48726	4.24888
3521.55869	4.29530
3519.63013	4.33685
3517.70156	4.38032
3515.77300	4.42811
3513.84443	4.47794
3511.91587	4.53232
3509.98730	4.58790
3508.05874	4.63744
3506.13018	4.68287
3504.20161	4.72980
3502.27305	4.77960
3500.34448	4.82764
3498.41592	4.87171
3496.48735	4.91776
3494.55879	4.96919
3492.63022	5.02203
3490.70166	5.06990
3488.77310	5.11886
3486.84453	5.17465
3484.91597	5.22761
3482.98740	5.27422
3481.05884	5.31818
3479.13027	5.36403
3477.20171	5.41719
3475.27314	5.46928
3473.34458	5.51353
3471.41602	5.55448
3469.48745	5.59490
3467.55889	5.64158
3465.63032	5.69755
3463.70176	5.75802
3461.77319	5.81892
3459.84463	5.87685
3457.91606	5.92672
3455.98750	5.97762
3454.05894	6.03944
3452.13037	6.09316
3450.20181	6.12658
3448.27324	6.15220
3446.34468	6.18299
3444.41611	6.23076
3442.48755	6.29983
3440.55898	6.37556
3438.63042	6.44089
3436.70186	6.48538
3434.77329	6.52522
3432.84473	6.57702
3430.91616	6.62706
3428.98760	6.67776
3427.05903	6.73088
3425.13047	6.78327
3423.20190	6.83646
3421.27334	6.88709
3419.34478	6.93314
3417.41621	6.98701
3415.48765	7.05309
3413.55908	7.11267
3411.63052	7.15916
3409.70195	7.18232
3407.77339	7.19811
3405.84482	7.22312
3403.91626	7.24554
3401.98770	7.26815
3400.05913	7.30085
3398.13057	7.33913
3396.20200	7.37980
3394.27344	7.43651
3392.34487	7.50540
3390.41631	7.56265
3388.48774	7.59492
3386.55918	7.62424
3384.63062	7.66244
3382.70205	7.71295
3380.77349	7.74141
3378.84492	7.72937
3376.91636	7.75149
3374.98779	7.80200
3373.05923	7.81022
3371.13066	7.80634
3369.20210	7.85273
3367.27354	7.89554
3365.34497	7.88433
3363.41641	7.86495
3361.48784	7.89044
3359.55928	7.94739
3357.63071	7.98149
3355.70215	8.01024
3353.77358	8.05104
3351.84502	8.11117
3349.91646	8.18890
3347.98789	8.24855
3346.05933	8.24901
3344.13076	8.22533
3342.20220	8.22166
3340.27363	8.23039
3338.34507	8.25338
3336.41650	8.22225
3334.48794	8.17872
3332.55937	8.22371
3330.63081	8.29196
3328.70225	8.29195
3326.77368	8.25177
3324.84512	8.19016
3322.91655	8.14707
3320.98799	8.18582
3319.05942	8.22884
3317.13086	8.21575
3315.20229	8.18443
3313.27373	8.18969
3311.34517	8.21740
3309.41660	8.23211
3307.48804	8.27229
3305.55947	8.34624
3303.63091	8.39528
3301.70234	8.39419
3299.77378	8.41903
3297.84521	8.40688
3295.91665	8.31038
3293.98809	8.28560
3292.05952	8.42221
3290.13096	8.59882
3288.20239	8.55576
3286.27383	8.36333
3284.34526	8.27770
3282.41670	8.34354
3280.48813	8.42760
3278.55957	8.44297
3276.63101	8.41453
3274.70244	8.34913
3272.77388	8.28532
3270.84531	8.27446
3268.91675	8.30637
3266.98818	8.38424
3265.05962	8.47694
3263.13105	8.42561
3261.20249	8.27133
3259.27393	8.19142
3257.34536	8.24125
3255.41680	8.41420
3253.48823	8.56991
3251.55967	8.53004
3249.63110	8.41445
3247.70254	8.34837
3245.77397	8.30190
3243.84541	8.30262
3241.91685	8.33556
3239.98828	8.31393
3238.05972	8.28327
3236.13115	8.29139
3234.20259	8.27255
3232.27402	8.23681
3230.34546	8.23957
3228.41689	8.25788
3226.48833	8.26191
3224.55977	8.25884
3222.63120	8.25341
3220.70264	8.22553
3218.77407	8.18387
3216.84551	8.13384
3214.91694	8.11298
3212.98838	8.16069
3211.05981	8.20500
3209.13125	8.17759
3207.20269	8.07901
3205.27412	7.93421
3203.34556	7.83294
3201.41699	7.82363
3199.48843	7.80052
3197.55986	7.72614
3195.63130	7.70827
3193.70273	7.72296
3191.77417	7.67007
3189.84561	7.61561
3187.91704	7.62724
3185.98848	7.61734
3184.05991	7.55710
3182.13135	7.50357
3180.20278	7.45551
3178.27422	7.40326
3176.34565	7.33373
3174.41709	7.23055
3172.48853	7.12242
3170.55996	7.04580
3168.63140	7.01154
3166.70283	6.99884
3164.77427	6.95636
3162.84570	6.87527
3160.91714	6.79842
3158.98857	6.73664
3157.06001	6.67151
3155.13145	6.59995
3153.20288	6.52966
3151.27432	6.46813
3149.34575	6.40990
3147.41719	6.34269
3145.48862	6.26997
3143.56006	6.20218
3141.63149	6.14189
3139.70293	6.07850
3137.77437	6.00830
3135.84580	5.93712
3133.91724	5.86345
3131.98867	5.78539
3130.06011	5.70685
3128.13154	5.63141
3126.20298	5.55774
3124.27441	5.48510
3122.34585	5.41473
3120.41729	5.34888
3118.48872	5.28648
3116.56016	5.22152
3114.63159	5.15220
3112.70303	5.08225
3110.77446	5.01375
3108.84590	4.94611
3106.91733	4.87896
3104.98877	4.81096
3103.06021	4.74120
3101.13164	4.66915
3099.20308	4.59598
3097.27451	4.52520
3095.34595	4.45808
3093.41738	4.39483
3091.48882	4.33438
3089.56025	4.27159
3087.63169	4.20393
3085.70312	4.13648
3083.77456	4.07308
3081.84600	4.01132
3079.91743	3.94829
3077.98887	3.88612
3076.06030	3.82647
3074.13174	3.76664
3072.20317	3.70646
3070.27461	3.64762
3068.34604	3.59039
3066.41748	3.53458
3064.48892	3.47972
3062.56035	3.42591
3060.63179	3.37217
3058.70322	3.31650
3056.77466	3.26036
3054.84609	3.20705
3052.91753	3.15626
3050.98896	3.10634
3049.06040	3.05667
3047.13184	3.00606
3045.20327	2.95439
3043.27471	2.90294
3041.34614	2.85241
3039.41758	2.80340
3037.48901	2.75613
3035.56045	2.71027
3033.63188	2.66550
3031.70332	2.62094
3029.77476	2.57684
3027.84619	2.53439
3025.91763	2.49255
3023.98906	2.45009
3022.06050	2.40771
3020.13193	2.36548
3018.20337	2.32346
3016.27480	2.28277
3014.34624	2.24326
3012.41768	2.20363
3010.48911	2.16440
3008.56055	2.12674
3006.63198	2.09050
3004.70342	2.05522
3002.77485	2.02014
3000.84629	1.98482
2998.91772	1.94992
2996.98916	1.91585
2995.06060	1.88289
2993.13203	1.85128
2991.20347	1.82025
2989.27490	1.78915
2987.34634	1.75821
2985.41777	1.72776
2983.48921	1.69813
2981.56064	1.66917
2979.63208	1.64030
2977.70352	1.61129
2975.77495	1.58272
2973.84639	1.55503
2971.91782	1.52801
2969.98926	1.50124
2968.06069	1.47434
2966.13213	1.44759
2964.20356	1.42109
2962.27500	1.39426
2960.34644	1.36720
2958.41787	1.34099
2956.48931	1.31650
2954.56074	1.29320
2952.63218	1.27030
2950.70361	1.24797
2948.77505	1.22603
2946.84648	1.20381
2944.91792	1.18154
2942.98936	1.15964
2941.06079	1.13764
2939.13223	1.11480
2937.20366	1.09125
2935.27510	1.06753
2933.34653	1.04337
2931.41797	1.01885
2929.48940	0.99473
2927.56084	0.97108
2925.63228	0.94764
2923.70371	0.92443
2921.77515	0.90226
2919.84658	0.88276
2917.91802	0.86669
2915.98945	0.85438
2914.06089	0.84575
2912.13232	0.83928
2910.20376	0.83270
2908.27520	0.82443
2906.34663	0.81452
2904.41807	0.80360
2902.48950	0.79205
2900.56094	0.78019
2898.63237	0.76848
2896.70381	0.75720
2894.77524	0.74610
2892.84668	0.73501
2890.91812	0.72419
2888.98955	0.71388
2887.06099	0.70394
2885.13242	0.69411
2883.20386	0.68431
2881.27529	0.67449
2879.34673	0.66450
2877.41816	0.65412
2875.48960	0.64333
2873.56104	0.63230
2871.63247	0.62098
2869.70391	0.60945
2867.77534	0.59809
2865.84678	0.58669
2863.91821	0.57461
2861.98965	0.56166
2860.06108	0.54811
2858.13252	0.53421
2856.20396	0.51999
2854.27539	0.50573
2852.34683	0.49205
2850.41826	0.48057
2848.48970	0.47401
2846.56113	0.47305
2844.63257	0.47446
2842.70400	0.47491
2840.77544	0.47335
2838.84687	0.47020
2836.91831	0.46630
2834.98975	0.46177
2833.06118	0.45658
2831.13262	0.45113
2829.20405	0.44563
2827.27549	0.44003
2825.34692	0.43428
2823.41836	0.42852
2821.48979	0.42287
2819.56123	0.41729
2817.63267	0.41160
2815.70410	0.40575
2813.77554	0.39996
2811.84697	0.39445
2809.91841	0.38935
2807.98984	0.38449
2806.06128	0.37937
2804.13271	0.37392
2802.20415	0.36859
2800.27559	0.36367
2798.34702	0.35912
2796.41846	0.35456
2794.48989	0.34971
2792.56133	0.34482
2790.63276	0.34022
2788.70420	0.33593
2786.77563	0.33182
2784.84707	0.32777
2782.91851	0.32375
2780.98994	0.31978
2779.06138	0.31578
2777.13281	0.31178
2775.20425	0.30787
2773.27568	0.30395
2771.34712	0.30001
2769.41855	0.29629
2767.48999	0.29284
2765.56143	0.28946
2763.63286	0.28610
2761.70430	0.28278
2759.77573	0.27940
2757.84717	0.27607
2755.91860	0.27299
2753.99004	0.27004
2752.06147	0.26714
2750.13291	0.26420
2748.20435	0.26131
2746.27578	0.25861
2744.34722	0.25591
2742.41865	0.25304
2740.49009	0.25015
2738.56152	0.24749
2736.63296	0.24512
2734.70439	0.24283
2732.77583	0.24045
2730.84727	0.23802
2728.91870	0.23570
2726.99014	0.23354
2725.06157	0.23145
2723.13301	0.22930
2721.20444	0.22720
2719.27588	0.22521
2717.34731	0.22320
2715.41875	0.22118
2713.49019	0.21931
2711.56162	0.21763
2709.63306	0.21599
2707.70449	0.21427
2705.77593	0.21254
2703.84736	0.21088
2701.91880	0.20934
2699.99023	0.20785
2698.06167	0.20631
2696.13311	0.20492
2694.20454	0.20366
2692.27598	0.20219
2690.34741	0.20056
2688.41885	0.19906
2686.49028	0.19766
2684.56172	0.19620
2682.63315	0.19493
2680.70459	0.19401
2678.77603	0.19303
2676.84746	0.19175
2674.91890	0.19051
2672.99033	0.18937
2671.06177	0.18817
2669.13320	0.18700
2667.20464	0.18606
2665.27607	0.18529
2663.34751	0.18444
2661.41895	0.18352
2659.49038	0.18260
2657.56182	0.18176
2655.63325	0.18100
2653.70469	0.18014
2651.77612	0.17920
2649.84756	0.17846
2647.91899	0.17794
2645.99043	0.17738
2644.06187	0.17671
2642.13330	0.17609
2640.20474	0.17569
2638.27617	0.17538
2636.34761	0.17493
2634.41904	0.17433
2632.49048	0.17381
2630.56191	0.17347
2628.63335	0.17319
2626.70479	0.17274
2624.77622	0.17217
2622.84766	0.17172
2620.91909	0.17156
2618.99053	0.17155
2617.06196	0.17142
2615.13340	0.17118
2613.20483	0.17098
2611.27627	0.17077
2609.34771	0.17060
2607.41914	0.17061
2605.49058	0.17061
2603.56201	0.17051
2601.63345	0.17046
2599.70488	0.17053
2597.77632	0.17052
2595.84775	0.17047
2593.91919	0.17057
2591.99062	0.17071
2590.06206	0.17080
2588.13350	0.17094
2586.20493	0.17112
2584.27637	0.17121
2582.34780	0.17128
2580.41924	0.17146
2578.49067	0.17187
2576.56211	0.17245
2574.63354	0.17293
2572.70498	0.17332
2570.77642	0.17366
2568.84785	0.17396
2566.91929	0.17435
2564.99072	0.17483
2563.06216	0.17519
2561.13359	0.17540
2559.20503	0.17577
2557.27646	0.17635
2555.34790	0.17700
2553.41934	0.17767
2551.49077	0.17832
2549.56221	0.17888
2547.63364	0.17929
2545.70508	0.17966
2543.77651	0.18020
2541.84795	0.18090
2539.91938	0.18156
2537.99082	0.18218
2536.06226	0.18279
2534.13369	0.18341
2532.20513	0.18417
2530.27656	0.18499
2528.34800	0.18566
2526.41943	0.18627
2524.49087	0.18707
2522.56230	0.18793
2520.63374	0.18870
2518.70518	0.18946
2516.77661	0.19015
2514.84805	0.19076
2512.91948	0.19150
2510.99092	0.19247
2509.06235	0.19345
2507.13379	0.19433
2505.20522	0.19512
2503.27666	0.19587
2501.34810	0.19665
2499.41953	0.19738
2497.49097	0.19802
2495.56240	0.19875
2493.63384	0.19962
2491.70527	0.20055
2489.77671	0.20142
2487.84814	0.20229
2485.91958	0.20326
2483.99102	0.20428
2482.06245	0.20525
2480.13389	0.20613
2478.20532	0.20686
2476.27676	0.20762
2474.34819	0.20851
2472.41963	0.20949
2470.49106	0.21049
2468.56250	0.21137
2466.63394	0.21216
2464.70537	0.21303
2462.77681	0.21400
2460.84824	0.21509
2458.91968	0.21627
2456.99111	0.21730
2455.06255	0.21816
2453.13398	0.21903
2451.20542	0.21992
2449.27686	0.22090
2447.34829	0.22200
2445.41973	0.22297
2443.49116	0.22373
2441.56260	0.22459
2439.63403	0.22571
2437.70547	0.22685
2435.77690	0.22802
2433.84834	0.22923
2431.91978	0.23023
2429.99121	0.23103
2428.06265	0.23196
2426.13408	0.23309
2424.20552	0.23420
2422.27695	0.23528
2420.34839	0.23640
2418.41982	0.23756
2416.49126	0.23877
2414.56270	0.24001
2412.63413	0.24120
2410.70557	0.24231
2408.77700	0.24339
2406.84844	0.24451
2404.91987	0.24569
2402.99131	0.24691
2401.06274	0.24820
2399.13418	0.24948
2397.20562	0.25070
2395.27705	0.25192
2393.34849	0.25320
2391.41992	0.25456
2389.49136	0.25602
2387.56279	0.25789
2385.63423	0.26071
2383.70566	0.26482
2381.77710	0.27020
2379.84854	0.27664
2377.91997	0.28401
2375.99141	0.29234
2374.06284	0.30199
2372.13428	0.31315
2370.20571	0.32542
2368.27715	0.33799
2366.34858	0.34962
2364.42002	0.35914
2362.49146	0.36644
2360.56289	0.37152
2358.63433	0.37323
2356.70576	0.37064
2354.77720	0.36342
2352.84863	0.35258
2350.92007	0.34127
2348.99150	0.33453
2347.06294	0.33518
2345.13437	0.34354
2343.20581	0.35520
2341.27725	0.36200
2339.34868	0.36305
2337.42012	0.36245
2335.49155	0.36240
2333.56299	0.36244
2331.63442	0.36244
2329.70586	0.36186
2327.77729	0.36043
2325.84873	0.35864
2323.92017	0.35656
2321.99160	0.35408
2320.06304	0.35118
2318.13447	0.34813
2316.20591	0.34556
2314.27734	0.34413
2312.34878	0.34389
2310.42021	0.34402
2308.49165	0.34351
2306.56309	0.34212
2304.63452	0.34059
2302.70596	0.33996
2300.77739	0.34031
2298.84883	0.34085
2296.92026	0.34140
2294.99170	0.34215
2293.06313	0.34292
2291.13457	0.34360
2289.20601	0.34436
2287.27744	0.34521
2285.34888	0.34615
2283.42031	0.34738
2281.49175	0.34903
2279.56318	0.35111
2277.63462	0.35349
2275.70605	0.35592
2273.77749	0.35822
2271.84893	0.36037
2269.92036	0.36246
2267.99180	0.36455
2266.06323	0.36667
2264.13467	0.36879
2262.20610	0.37083
2260.27754	0.37272
2258.34897	0.37446
2256.42041	0.37618
2254.49185	0.37806
2252.56328	0.38015
2250.63472	0.38231
2248.70615	0.38438
2246.77759	0.38632
2244.84902	0.38831
2242.92046	0.39054
2240.99189	0.39288
2239.06333	0.39510
2237.13477	0.39717
2235.20620	0.39919
2233.27764	0.40130
2231.34907	0.40354
2229.42051	0.40582
2227.49194	0.40804
2225.56338	0.41022
2223.63481	0.41243
2221.70625	0.41465
2219.77769	0.41691
2217.84912	0.41922
2215.92056	0.42143
2213.99199	0.42342
2212.06343	0.42546
2210.13486	0.42765
2208.20630	0.42982
2206.27773	0.43190
2204.34917	0.43398
2202.42061	0.43607
2200.49204	0.43811
2198.56348	0.44010
2196.63491	0.44205
2194.70635	0.44402
2192.77778	0.44604
2190.84922	0.44806
2188.92065	0.44992
2186.99209	0.45168
2185.06353	0.45356
2183.13496	0.45550
2181.20640	0.45724
2179.27783	0.45874
2177.34927	0.46016
2175.42070	0.46164
2173.49214	0.46318
2171.56357	0.46474
2169.63501	0.46629
2167.70645	0.46774
2165.77788	0.46905
2163.84932	0.47028
2161.92075	0.47137
2159.99219	0.47234
2158.06362	0.47338
2156.13506	0.47445
2154.20649	0.47542
2152.27793	0.47624
2150.34937	0.47691
2148.42080	0.47751
2146.49224	0.47806
2144.56367	0.47852
2142.63511	0.47892
2140.70654	0.47920
2138.77798	0.47933
2136.84941	0.47942
2134.92085	0.47963
2132.99229	0.47985
2131.06372	0.47984
2129.13516	0.47972
2127.20659	0.47957
2125.27803	0.47928
2123.34946	0.47884
2121.42090	0.47836
2119.49233	0.47779
2117.56377	0.47715
2115.63521	0.47642
2113.70664	0.47556
2111.77808	0.47454
2109.84951	0.47341
2107.92095	0.47228
2105.99238	0.47120
2104.06382	0.47009
2102.13525	0.46892
2100.20669	0.46773
2098.27812	0.46648
2096.34956	0.46509
2094.42100	0.46358
2092.49243	0.46198
2090.56387	0.46030
2088.63530	0.45853
2086.70674	0.45667
2084.77817	0.45464
2082.84961	0.45256
2080.92104	0.45055
2078.99248	0.44857
2077.06392	0.44661
2075.13535	0.44459
2073.20679	0.44243
2071.27822	0.44014
2069.34966	0.43774
2067.42109	0.43538
2065.49253	0.43323
2063.56396	0.43100
2061.63540	0.42849
2059.70684	0.42586
2057.77827	0.42320
2055.84971	0.42051
2053.92114	0.41784
2051.99258	0.41531
2050.06401	0.41283
2048.13545	0.41027
2046.20688	0.40762
2044.27832	0.40497
2042.34976	0.40230
2040.42119	0.39951
2038.49263	0.39664
2036.56406	0.39381
2034.63550	0.39100
2032.70693	0.38815
2030.77837	0.38533
2028.84980	0.38251
2026.92124	0.37966
2024.99268	0.37684
2023.06411	0.37409
2021.13555	0.37136
2019.20698	0.36870
2017.27842	0.36604
2015.34985	0.36308
2013.42129	0.35998
2011.49272	0.35711
2009.56416	0.35443
2007.63560	0.35168
2005.70703	0.34885
2003.77847	0.34611
2001.84990	0.34350
1999.92134	0.34089
1997.99277	0.33828
1996.06421	0.33569
1994.13564	0.33321
1992.20708	0.33077
1990.27852	0.32809
1988.34995	0.32538
1986.42139	0.32280
1984.49282	0.32032
1982.56426	0.31790
1980.63569	0.31548
1978.70713	0.31305
1976.77856	0.31063
1974.85000	0.30829
1972.92144	0.30605
1970.99287	0.30390
1969.06431	0.30199
1967.13574	0.30014
1965.20718	0.29793
1963.27861	0.29564
1961.35005	0.29361
1959.42148	0.29174
1957.49292	0.29000
1955.56436	0.28827
1953.63579	0.28644
1951.70723	0.28451
1949.77866	0.28267
1947.85010	0.28107
1945.92153	0.27976
1943.99297	0.27860
1942.06440	0.27713
1940.13584	0.27515
1938.20728	0.27327
1936.27871	0.27180
1934.35015	0.27051
1932.42158	0.26924
1930.49302	0.26794
1928.56445	0.26673
1926.63589	0.26571
1924.70732	0.26506
1922.77876	0.26448
1920.85020	0.26346
1918.92163	0.26244
1916.99307	0.26148
1915.06450	0.26017
1913.13594	0.25889
1911.20737	0.25812
1909.27881	0.25763
1907.35024	0.25695
1905.42168	0.25608
1903.49312	0.25529
1901.56455	0.25462
1899.63599	0.25405
1897.70742	0.25368
1895.77886	0.25346
1893.85029	0.25310
1891.92173	0.25267
1889.99316	0.25253
1888.06460	0.25218
1886.13604	0.25159
1884.20747	0.25120
1882.27891	0.25086
1880.35034	0.25059
1878.42178	0.25053
1876.49321	0.25056
1874.56465	0.25055
1872.63608	0.25079
1870.70752	0.25160
1868.77896	0.25289
1866.85039	0.25321
1864.92183	0.25231
1862.99326	0.25168
1861.06470	0.25169
1859.13613	0.25206
1857.20757	0.25245
1855.27900	0.25278
1853.35044	0.25310
1851.42187	0.25359
1849.49331	0.25438
1847.56475	0.25559
1845.63618	0.25710
1843.70762	0.25826
1841.77905	0.25836
1839.85049	0.25819
1837.92192	0.25874
1835.99336	0.25967
1834.06479	0.26060
1832.13623	0.26193
1830.20767	0.26407
1828.27910	0.26578
1826.35054	0.26643
1824.42197	0.26726
1822.49341	0.26805
1820.56484	0.26887
1818.63628	0.27011
1816.70771	0.27172
1814.77915	0.27342
1812.85059	0.27548
1810.92202	0.27789
1808.99346	0.27994
1807.06489	0.28152
1805.13633	0.28321
1803.20776	0.28561
1801.27920	0.28863
1799.35063	0.29169
1797.42207	0.29416
1795.49351	0.29670
1793.56494	0.29998
1791.63638	0.30379
1789.70781	0.30649
1787.77925	0.30833
1785.85068	0.31130
1783.92212	0.31522
1781.99355	0.31945
1780.06499	0.32381
1778.13643	0.32804
1776.20786	0.33213
1774.27930	0.33697
1772.35073	0.34357
1770.42217	0.34979
1768.49360	0.35414
1766.56504	0.35841
1764.63647	0.36321
1762.70791	0.36895
1760.77935	0.37619
1758.85078	0.38265
1756.92222	0.38908
1754.99365	0.39607
1753.06509	0.40242
1751.13652	0.41045
1749.20796	0.42090
1747.27939	0.43074
1745.35083	0.43899
1743.42227	0.44810
1741.49370	0.45864
1739.56514	0.47143
1737.63657	0.48438
1735.70801	0.49600
1733.77944	0.51404
1731.85088	0.53504
1729.92231	0.55057
1727.99375	0.56605
1726.06519	0.58292
1724.13662	0.60175
1722.20806	0.62214
1720.27949	0.64105
1718.35093	0.66406
1716.42236	0.69849
1714.49380	0.72926
1712.56523	0.75253
1710.63667	0.77547
1708.70811	0.80124
1706.77954	0.83150
1704.85098	0.86780
1702.92241	0.89951
1700.99385	0.93052
1699.06528	0.97765
1697.13672	1.02095
1695.20815	1.06434
1693.27959	1.10538
1691.35103	1.13842
1689.42246	1.17773
1687.49390	1.21946
1685.56533	1.25936
1683.63677	1.32231
1681.70820	1.38765
1679.77964	1.42806
1677.85107	1.46662
1675.92251	1.51090
1673.99395	1.56626
1672.06538	1.61574
1670.13682	1.66464
1668.20825	1.72855
1666.27969	1.77890
1664.35112	1.82177
1662.42256	1.87659
1660.49399	1.93744
1658.56543	1.98324
1656.63687	2.02159
1654.70830	2.05941
1652.77974	2.11845
1650.85117	2.17001
1648.92261	2.18807
1646.99404	2.21635
1645.06548	2.24795
1643.13691	2.26806
1641.20835	2.27918
1639.27979	2.28870
1637.35122	2.29435
1635.42266	2.29391
1633.49409	2.28591
1631.56553	2.27191
1629.63696	2.25534
1627.70840	2.22831
1625.77983	2.19734
1623.85127	2.15794
1621.92271	2.10930
1619.99414	2.06601
1618.06558	2.02323
1616.13701	1.96043
1614.20845	1.89621
1612.27988	1.84824
1610.35132	1.79816
1608.42275	1.74322
1606.49419	1.68848
1604.56562	1.63833
1602.63706	1.59041
1600.70850	1.54345
1598.77993	1.49984
1596.85137	1.45879
1594.92280	1.41889
1592.99424	1.38012
1591.06567	1.34452
1589.13711	1.31122
1587.20854	1.28034
1585.27998	1.25190
1583.35142	1.22510
1581.42285	1.20035
1579.49429	1.17955
1577.56572	1.16152
1575.63716	1.13833
1573.70859	1.11675
1571.78003	1.10321
1569.85146	1.08955
1567.92290	1.07377
1565.99434	1.06166
1564.06577	1.05218
1562.13721	1.04484
1560.20864	1.04028
1558.28008	1.03375
1556.35151	1.02619
1554.42295	1.02101
1552.49438	1.01633
1550.56582	1.01126
1548.63726	1.00458
1546.70869	0.99727
1544.78013	0.98960
1542.85156	0.98089
1540.92300	0.96826
1538.99443	0.94534
1537.06587	0.92766
1535.13730	0.91664
1533.20874	0.90260
1531.28018	0.88711
1529.35161	0.87596
1527.42305	0.86610
1525.49448	0.85605
1523.56592	0.84731
1521.63735	0.83865
1519.70879	0.82950
1517.78022	0.82175
1515.85166	0.81236
1513.92310	0.80232
1511.99453	0.79437
1510.06597	0.78830
1508.13740	0.78303
1506.20884	0.77170
1504.28027	0.75990
1502.35171	0.75357
1500.42314	0.74880
1498.49458	0.74423
1496.56602	0.73850
1494.63745	0.73202
1492.70889	0.72735
1490.78032	0.72421
1488.85176	0.72021
1486.92319	0.71484
1484.99463	0.70995
1483.06606	0.70632
1481.13750	0.70353
1479.20894	0.70128
1477.28037	0.69985
1475.35181	0.69901
1473.42324	0.69782
1471.49468	0.69450
1469.56611	0.69027
1467.63755	0.68723
1465.70898	0.68538
1463.78042	0.68407
1461.85186	0.68328
1459.92329	0.68371
1457.99473	0.68514
1456.06616	0.68438
1454.13760	0.68082
1452.20903	0.67784
1450.28047	0.67546
1448.35190	0.67331
1446.42334	0.67107
1444.49478	0.66884
1442.56621	0.66677
1440.63765	0.66487
1438.70908	0.66332
1436.78052	0.66152
1434.85195	0.65884
1432.92339	0.65642
1430.99482	0.65492
1429.06626	0.65377
1427.13770	0.65277
1425.20913	0.65242
1423.28057	0.65246
1421.35200	0.65230
1419.42344	0.65206
1417.49487	0.65110
1415.56631	0.64905
1413.63774	0.64731
1411.70918	0.64643
1409.78062	0.64611
1407.85205	0.64609
1405.92349	0.64642
1403.99492	0.64651
1402.06636	0.64592
1400.13779	0.64526
1398.20923	0.64446
1396.28066	0.64279
1394.35210	0.63984
1392.42354	0.63628
1390.49497	0.63325
1388.56641	0.63064
1386.63784	0.62763
1384.70928	0.62406
1382.78071	0.62063
1380.85215	0.61768
1378.92358	0.61536
1376.99502	0.61391
1375.06646	0.61322
1373.13789	0.61251
1371.20933	0.61153
1369.28076	0.61070
1367.35220	0.60972
1365.42363	0.60860
1363.49507	0.60776
1361.56650	0.60656
1359.63794	0.60461
1357.70937	0.60283
1355.78081	0.60153
1353.85225	0.60036
1351.92368	0.59926
1349.99512	0.59839
1348.06655	0.59752
1346.13799	0.59651
1344.20942	0.59558
1342.28086	0.59494
1340.35229	0.59466
1338.42373	0.59417
1336.49517	0.59298
1334.56660	0.59166
1332.63804	0.59070
1330.70947	0.59014
1328.78091	0.58990
1326.85234	0.58980
1324.92378	0.58973
1322.99521	0.58976
1321.06665	0.58995
1319.13809	0.59014
1317.20952	0.59000
1315.28096	0.58950
1313.35239	0.58873
1311.42383	0.58765
1309.49526	0.58655
1307.56670	0.58562
1305.63813	0.58477
1303.70957	0.58397
1301.78101	0.58309
1299.85244	0.58205
1297.92388	0.58105
1295.99531	0.58015
1294.06675	0.57913
1292.13818	0.57790
1290.20962	0.57665
1288.28105	0.57548
1286.35249	0.57439
1284.42393	0.57346
1282.49536	0.57255
1280.56680	0.57145
1278.63823	0.57026
1276.70967	0.56927
1274.78110	0.56856
1272.85254	0.56792
1270.92397	0.56717
1268.99541	0.56635
1267.06685	0.56551
1265.13828	0.56468
1263.20972	0.56398
1261.28115	0.56352
1259.35259	0.56315
1257.42402	0.56267
1255.49546	0.56223
1253.56689	0.56201
1251.63833	0.56195
1249.70977	0.56198
1247.78120	0.56204
1245.85264	0.56197
1243.92407	0.56151
1241.99551	0.56066
1240.06694	0.55961
1238.13838	0.55838
1236.20981	0.55692
1234.28125	0.55542
1232.35269	0.55390
1230.42412	0.55232
1228.49556	0.55083
1226.56699	0.54944
1224.63843	0.54801
1222.70986	0.54657
1220.78130	0.54525
1218.85273	0.54400
1216.92417	0.54282
1214.99561	0.54172
1213.06704	0.54078
1211.13848	0.54002
1209.20991	0.53932
1207.28135	0.53872
1205.35278	0.53810
1203.42422	0.53737
1201.49565	0.53661
1199.56709	0.53586
1197.63853	0.53498
1195.70996	0.53398
1193.78140	0.53306
1191.85283	0.53237
1189.92427	0.53182
1187.99570	0.53124
1186.06714	0.53076
1184.13857	0.53060
1182.21001	0.53071
1180.28145	0.53098
1178.35288	0.53162
1176.42432	0.53273
1174.49575	0.53380
1172.56719	0.53456
1170.63862	0.53528
1168.71006	0.53610
1166.78149	0.53689
1164.85293	0.53765
1162.92437	0.53830
1160.99580	0.53871
1159.06724	0.53895
1157.13867	0.53897
1155.21011	0.53854
1153.28154	0.53755
1151.35298	0.53599
1149.42441	0.53383
1147.49585	0.53117
1145.56729	0.52825
1143.63872	0.52537
1141.71016	0.52289
1139.78159	0.52100
1137.85303	0.51957
1135.92446	0.51847
1133.99590	0.51762
1132.06733	0.51713
1130.13877	0.51690
1128.21021	0.51653
1126.28164	0.51596
1124.35308	0.51547
1122.42451	0.51521
1120.49595	0.51520
1118.56738	0.51542
1116.63882	0.51604
1114.71025	0.51697
1112.78169	0.51783
1110.85312	0.51868
1108.92456	0.51967
1106.99600	0.52061
1105.06743	0.52145
1103.13887	0.52236
1101.21030	0.52342
1099.28174	0.52482
1097.35317	0.52690
1095.42461	0.52975
1093.49604	0.53346
1091.56748	0.53825
1089.63892	0.54415
1087.71035	0.55135
1085.78179	0.55985
1083.85322	0.56886
1081.92466	0.57699
1079.99609	0.58299
1078.06753	0.58606
1076.13896	0.58604
1074.21040	0.58325
1072.28184	0.57802
1070.35327	0.57107
1068.42471	0.56388
1066.49614	0.55728
1064.56758	0.55107
1062.63901	0.54543
1060.71045	0.54080
1058.78188	0.53690
1056.85332	0.53332
1054.92476	0.52994
1052.99619	0.52693
1051.06763	0.52459
1049.13906	0.52293
1047.21050	0.52184
1045.28193	0.52124
1043.35337	0.52111
1041.42480	0.52132
1039.49624	0.52143
1037.56768	0.52144
1035.63911	0.52157
1033.71055	0.52154
1031.78198	0.52098
1029.85342	0.51976
1027.92485	0.51800
1025.99629	0.51611
1024.06772	0.51464
1022.13916	0.51372
1020.21060	0.51312
1018.28203	0.51260
1016.35347	0.51208
1014.42490	0.51165
1012.49634	0.51139
1010.56777	0.51121
1008.63921	0.51114
1006.71064	0.51168
1004.78208	0.51300
1002.85352	0.51478
1000.92495	0.51707
998.99639	0.52017
997.06782	0.52404
995.13926	0.52834
993.21069	0.53247
991.28213	0.53562
989.35356	0.53740
987.42500	0.53805
985.49644	0.53808
983.56787	0.53794
981.63931	0.53790
979.71074	0.53835
977.78218	0.53946
975.85361	0.54124
973.92505	0.54366
971.99648	0.54658
970.06792	0.54985
968.13936	0.55342
966.21079	0.55721
964.28223	0.56126
962.35366	0.56569
960.42510	0.57044
958.49653	0.57550
956.56797	0.58099
954.63940	0.58674
952.71084	0.59265
950.78228	0.59885
948.85371	0.60536
946.92515	0.61187
944.99658	0.61813
943.06802	0.62415
941.13945	0.63008
939.21089	0.63581
937.28232	0.64133
935.35376	0.64715
933.42520	0.65342
931.49663	0.65977
929.56807	0.66568
927.63950	0.67086
925.71094	0.67622
923.78237	0.68268
921.85381	0.68974
919.92524	0.69667
917.99668	0.70339
916.06812	0.71011
914.13955	0.71675
912.21099	0.72296
910.28242	0.72988
908.35386	0.73911
906.42529	0.74973
904.49673	0.75984
902.56816	0.76891
900.63960	0.77754
898.71104	0.78659
896.78247	0.79605
894.85391	0.80557
892.92534	0.81619
890.99678	0.82747
889.06821	0.83698
887.13965	0.84599
885.21108	0.85720
883.28252	0.86942
881.35396	0.88066
879.42539	0.89161
877.49683	0.90392
875.56826	0.91674
873.63970	0.92786
871.71113	0.93763
869.78257	0.94776
867.85400	0.95921
865.92544	0.97211
863.99687	0.98517
862.06831	0.99704
860.13975	1.00768
858.21118	1.01811
856.28262	1.02842
854.35405	1.03842
852.42549	1.05041
850.49692	1.06454
848.56836	1.07713
846.63979	1.08788
844.71123	1.09969
842.78267	1.11271
840.85410	1.12563
838.92554	1.13751
836.99697	1.14800
835.06841	1.15856
833.13984	1.17071
831.21128	1.18429
829.28271	1.19818
827.35415	1.21103
825.42559	1.21919
823.49702	1.22062
821.56846	1.22524
819.63989	1.24196
817.71133	1.26177
815.78276	1.27635
813.85420	1.29083
811.92563	1.30856
809.99707	1.31900
808.06851	1.31307
806.13994	1.31323
804.21138	1.33575
802.28281	1.35457
800.35425	1.35433
798.42568	1.36697
796.49712	1.38938
794.56855	1.38086
792.63999	1.37118
790.71143	1.39310
788.78286	1.41607
786.85430	1.40813
784.92573	1.37567
782.99717	1.35531
781.06860	1.37789
779.14004	1.41203
777.21147	1.39586
775.28291	1.34994
773.35435	1.35067
771.42578	1.43824
769.49722	1.57009
767.56865	1.72121
765.64009	1.80729
763.71152	1.50446
761.78296	1.27050
759.85439	1.22519
757.92583	1.28346
755.99727	1.31882
754.06870	1.37651
752.14014	1.48195
750.21157	1.42918
748.28301	1.31767
746.35444	1.29564
744.42588	1.26923
742.49731	1.20830
740.56875	1.21470
738.64019	1.19816
736.71162	1.06425
734.78306	0.91092
732.85449	0.78210
730.92593	0.70706
728.99736	0.73517
727.06880	1.19217
725.14023	4.35084
723.21167	4.33927
721.28311	4.32770
719.35454	4.31613
717.42598	0.82031
715.49741	0.09759
713.56885	0.20192
711.64028	0.22948
709.71172	0.44999
707.78315	4.24670
705.85459	0.47499
703.92603	0.33588
701.99746	0.24606
700.06890	0.21643
698.14033	0.27653
696.21177	0.43714
694.28320	0.61444
692.35464	0.59266
690.42607	0.50777
688.49751	0.59144
686.56895	0.68118
684.64038	0.57233
682.71182	0.51249
680.78325	0.53633
678.85469	0.53411
676.92612	0.44151
674.99756	0.44168
673.06899	0.67052
671.14043	1.00398
669.21187	0.83858
667.28330	0.71416
665.35474	0.59909
663.42617	0.53301
661.49761	0.57095
659.56904	0.62755
657.64048	0.59369
655.71191	0.58777
653.78335	0.98593
651.85479	3.91113
649.92622	0.60740
647.99766	0.33570
646.06909	0.33699
644.14053	0.41249
642.21196	0.42934
640.28340	0.42053
638.35483	0.47853
636.42627	0.84202
634.49771	1.32753
632.56914	0.66985
630.64058	0.49094
628.71201	0.44020
626.78345	0.42963
624.85488	0.49626
622.92632	0.64183
620.99775	0.70151
619.06919	0.68636
617.14062	0.61075
615.21206	0.46770
613.28350	0.43140
611.35493	0.46119
609.42637	0.45699
607.49780	0.38332
605.56924	0.33268
603.64067	0.33988
601.71211	0.32807
599.78354	0.31003
597.85498	0.34891
595.92642	0.36784
593.99785	0.34711
592.06929	0.38464
590.14072	0.48105
588.21216	0.51641
586.28359	0.41690
584.35503	0.37559
582.42646	0.42948
580.49790	0.42910
578.56934	0.36746
576.64077	0.39452
574.71221	0.51423
572.78364	0.78699
570.85508	1.20269
568.92651	0.67132
566.99795	0.51357
565.06938	0.47042
563.14082	0.34953
561.21226	0.26408
559.28369	0.24747
557.35513	0.25318
555.42656	0.25372
553.49800	0.28627
551.56943	0.36112
549.64087	0.40372
547.71230	0.43414
545.78374	0.55598
543.85518	0.61783
541.92661	0.60277
539.99805	0.79384
538.06948	0.70964
536.14092	0.38566
534.21235	0.29078
532.28379	0.32382
530.35522	0.41465
528.42666	0.51206
526.49810	0.57578
524.56953	0.67737
522.64097	0.76575
520.71240	0.75685
518.78384	0.77800
516.85527	0.77507
514.92671	0.60870
512.99814	0.41725
511.06958	0.38023
509.14102	0.45941
507.21245	0.47088
505.28389	0.40199
503.35532	0.33801
501.42676	0.30260
499.49819	0.33410
