3997.91411	0.06202
3995.98555	0.06256
3994.05698	0.06311
3992.12842	0.06372
3990.19985	0.06397
3988.27129	0.06401
3986.34272	0.06435
3984.41416	0.06478
3982.48560	0.06495
3980.55703	0.06484
3978.62847	0.06473
3976.69990	0.06494
3974.77134	0.06534
3972.84277	0.06564
3970.91421	0.06570
3968.98564	0.06566
3967.05708	0.06586
3965.12852	0.06609
3963.19995	0.06612
3961.27139	0.06617
3959.34282	0.06623
3957.41426	0.06618
3955.48569	0.06634
3953.55713	0.06669
3951.62856	0.06691
3949.70000	0.06691
3947.77144	0.06681
3945.84287	0.06669
3943.91431	0.06663
3941.98574	0.06663
3940.05718	0.06643
3938.12861	0.06617
3936.20005	0.06611
3934.27148	0.06642
3932.34292	0.06710
3930.41436	0.06753
3928.48579	0.06718
3926.55723	0.06662
3924.62866	0.06663
3922.70010	0.06690
3920.77153	0.06698
3918.84297	0.06721
3916.91440	0.06735
3914.98584	0.06667
3913.05728	0.06579
3911.12871	0.06568
3909.20015	0.06604
3907.27158	0.06635
3905.34302	0.06662
3903.41445	0.06696
3901.48589	0.06738
3899.55732	0.06769
3897.62876	0.06754
3895.70020	0.06708
3893.77163	0.06688
3891.84307	0.06727
3889.91450	0.06752
3887.98594	0.06705
3886.05737	0.06703
3884.12881	0.06770
3882.20024	0.06786
3880.27168	0.06768
3878.34312	0.06743
3876.41455	0.06707
3874.48599	0.06737
3872.55742	0.06839
3870.62886	0.06937
3868.70029	0.06989
3866.77173	0.06974
3864.84316	0.06988
3862.91460	0.07058
3860.98604	0.07054
3859.05747	0.06998
3857.12891	0.07017
3855.20034	0.07148
3853.27178	0.07391
3851.34321	0.07548
3849.41465	0.07425
3847.48608	0.07289
3845.55752	0.07257
3843.62896	0.07311
3841.70039	0.07423
3839.77183	0.07576
3837.84326	0.07705
3835.91470	0.07741
3833.98613	0.07745
3832.05757	0.07803
3830.12900	0.07881
3828.20044	0.07913
3826.27187	0.07949
3824.34331	0.08026
3822.41475	0.08145
3820.48618	0.08355
3818.55762	0.08476
3816.62905	0.08470
3814.70049	0.08519
3812.77192	0.08563
3810.84336	0.08586
3808.91479	0.08661
3806.98623	0.08788
3805.05767	0.08903
3803.12910	0.09006
3801.20054	0.09186
3799.27197	0.09380
3797.34341	0.09493
3795.41484	0.09607
3793.48628	0.09694
3791.55771	0.09746
3789.62915	0.09823
3787.70059	0.09939
3785.77202	0.10096
3783.84346	0.10283
3781.91489	0.10454
3779.98633	0.10620
3778.05776	0.10815
3776.12920	0.10962
3774.20063	0.11071
3772.27207	0.11216
3770.34351	0.11405
3768.41494	0.11628
3766.48638	0.11853
3764.55781	0.12083
3762.62925	0.12287
3760.70068	0.12474
3758.77212	0.12728
3756.84355	0.13020
3754.91499	0.13259
3752.98643	0.13503
3751.05786	0.13871
3749.12930	0.14283
3747.20073	0.14468
3745.27217	0.14621
3743.34360	0.15004
3741.41504	0.15397
3739.48647	0.15637
3737.55791	0.15923
3735.62935	0.16403
3733.70078	0.17040
3731.77222	0.17590
3729.84365	0.17999
3727.91509	0.18384
3725.98652	0.18891
3724.05796	0.19555
3722.12939	0.20295
3720.20083	0.21069
3718.27227	0.21835
3716.34370	0.22569
3714.41514	0.23279
3712.48657	0.24169
3710.55801	0.25539
3708.62944	0.27035
3706.70088	0.28201
3704.77231	0.29306
3702.84375	0.30628
3700.91519	0.32354
3698.98662	0.34214
3697.05806	0.35934
3695.12949	0.37781
3693.20093	0.39792
3691.27236	0.41978
3689.34380	0.44824
3687.41523	0.48400
3685.48667	0.51544
3683.55811	0.54216
3681.62954	0.57027
3679.70098	0.60156
3677.77241	0.63436
3675.84385	0.67368
3673.91528	0.72809
3671.98672	0.77186
3670.05815	0.81049
3668.12959	0.86562
3666.20103	0.91577
3664.27246	0.95686
3662.34390	1.00056
3660.41533	1.04745
3658.48677	1.09361
3656.55820	1.14321
3654.62964	1.19893
3652.70107	1.24493
3650.77251	1.28422
3648.84395	1.34045
3646.91538	1.41207
3644.98682	1.46364
3643.05825	1.50255
3641.12969	1.54227
3639.20112	1.58616
3637.27256	1.63041
3635.34399	1.67346
3633.41543	1.71665
3631.48687	1.75725
3629.55830	1.79870
3627.62974	1.85386
3625.70117	1.90420
3623.77261	1.93689
3621.84404	1.96887
3619.91548	2.00662
3617.98691	2.05346
3616.05835	2.09858
3614.12979	2.13517
3612.20122	2.17334
3610.27266	2.21202
3608.34409	2.25234
3606.41553	2.29637
3604.48696	2.33521
3602.55840	2.36802
3600.62983	2.40479
3598.70127	2.44684
3596.77271	2.48807
3594.84414	2.52867
3592.91558	2.56984
3590.98701	2.60924
3589.05845	2.64611
3587.12988	2.68958
3585.20132	2.73836
3583.27275	2.77944
3581.34419	2.81627
3579.41562	2.85613
3577.48706	2.89920
3575.55850	2.94249
3573.62993	2.98537
3571.70137	3.02491
3569.77280	3.06204
3567.84424	3.10413
3565.91567	3.15914
3563.98711	3.21225
3562.05854	3.25359
3560.12998	3.29513
3558.20142	3.33999
3556.27285	3.38420
3554.34429	3.42700
3552.41572	3.47312
3550.48716	3.51988
3548.55859	3.56278
3546.63003	3.60625
3544.70146	3.65496
3542.77290	3.70551
3540.84434	3.75359
3538.91577	3.79999
3536.98721	3.84558
3535.05864	3.89295
3533.13008	3.94050
3531.20151	3.98642
3529.27295	4.03455
3527.34438	4.08767
3525.41582	4.13825
3523.48726	4.18277
3521.55869	4.22955
3519.63013	4.27894
3517.70156	4.32550
3515.77300	4.36926
3513.84443	4.41476
3511.91587	4.46364
3509.98730	4.51753
3508.05874	4.57380
3506.13018	4.62180
3504.20161	4.65961
3502.27305	4.69854
3500.34448	4.74932
3498.41592	4.80476
3496.48735	4.85200
3494.55879	4.89204
3492.63022	4.93750
3490.70166	4.99326
3488.77310	5.04948
3486.84453	5.09806
3484.91597	5.14598
3482.98740	5.19670
3481.05884	5.24552
3479.13027	5.29243
3477.20171	5.34114
3475.27314	5.39628
3473.34458	5.45018
3471.41602	5.49322
3469.48745	5.53736
3467.55889	5.58632
3465.63032	5.62605
3463.70176	5.66159
3461.77319	5.70208
3459.84463	5.74221
3457.91606	5.78913
3455.98750	5.85664
3454.05894	5.92974
3452.13037	5.98899
3450.20181	6.03661
3448.27324	6.07542
3446.34468	6.11251
3444.41611	6.15947
3442.48755	6.21989
3440.55898	6.27102
3438.63042	6.30372
3436.70186	6.33956
3434.77329	6.39260
3432.84473	6.46633
3430.91616	6.53975
3428.98760	6.59465
3427.05903	6.65122
3425.13047	6.71549
3423.20190	6.75072
3421.27334	6.77893
3419.34478	6.83637
3417.41621	6.88480
3415.48765	6.90335
3413.55908	6.91763
3411.63052	6.95949
3409.70195	7.02874
3407.77339	7.09563
3405.84482	7.15347
3403.91626	7.21184
3401.98770	7.24047
3400.05913	7.23983
3398.13057	7.24761
3396.20200	7.30263
3394.27344	7.39891
3392.34487	7.46246
3390.41631	7.48079
3388.48774	7.47716
3386.55918	7.52165
3384.63062	7.62215
3382.70205	7.69243
3380.77349	7.74034
3378.84492	7.78391
3376.91636	7.77336
3374.98779	7.71439
3373.05923	7.69488
3371.13066	7.72701
3369.20210	7.76183
3367.27354	7.75931
3365.34497	7.76388
3363.41641	7.81932
3361.48784	7.87831
3359.55928	7.94582
3357.63071	8.03832
3355.70215	8.06882
3353.77358	8.00228
3351.84502	7.98588
3349.91646	8.03260
3347.98789	8.05720
3346.05933	8.06065
3344.13076	8.03783
3342.20220	8.02472
3340.27363	8.08617
3338.34507	8.14747
3336.41650	8.11897
3334.48794	8.14005
3332.55937	8.24004
3330.63081	8.29269
3328.70225	8.22613
3326.77368	8.10446
3324.84512	8.04612
3322.91655	8.06183
3320.98799	8.13865
3319.05942	8.19907
3317.13086	8.19834
3315.20229	8.23878
3313.27373	8.28757
3311.34517	8.22838
3309.41660	8.18993
3307.48804	8.19237
3305.55947	8.13299
3303.63091	8.08496
3301.70234	8.05199
3299.77378	8.04378
3297.84521	8.16718
3295.91665	8.40237
3293.98809	8.49771
3292.05952	8.40559
3290.13096	8.26910
3288.20239	8.12113
3286.27383	8.08852
3284.34526	8.18950
3282.41670	8.25576
3280.48813	8.26407
3278.55957	8.26351
3276.63101	8.18369
3274.70244	8.16145
3272.77388	8.22833
3270.84531	8.18222
3268.91675	8.08221
3266.98818	8.04908
3265.05962	8.04431
3263.13105	8.01013
3261.20249	8.00969
3259.27393	8.09673
3257.34536	8.21811
3255.41680	8.24824
3253.48823	8.15988
3251.55967	8.10999
3249.63110	8.16580
3247.70254	8.24917
3245.77397	8.28921
3243.84541	8.33470
3241.91685	8.38898
3239.98828	8.37231
3238.05972	8.28168
3236.13115	8.20109
3234.20259	8.17613
3232.27402	8.16765
3230.34546	8.14976
3228.41689	8.12015
3226.48833	8.07298
3224.55977	8.05899
3222.63120	8.14925
3220.70264	8.21723
3218.77407	8.13551
3216.84551	8.03714
3214.91694	8.00833
3212.98838	8.04048
3211.05981	8.05818
3209.13125	7.99248
3207.20269	7.89391
3205.27412	7.78787
3203.34556	7.68211
3201.41699	7.66311
3199.48843	7.73544
3197.55986	7.76021
3195.63130	7.72027
3193.70273	7.68149
3191.77417	7.60024
3189.84561	7.51149
3187.91704	7.46022
3185.98848	7.39704
3184.05991	7.33528
3182.13135	7.30896
3180.20278	7.30266
3178.27422	7.27891
3176.34565	7.22205
3174.41709	7.17328
3172.48853	7.12666
3170.55996	7.04775
3168.63140	6.98173
3166.70283	6.94502
3164.77427	6.89930
3162.84570	6.84105
3160.91714	6.76901
3158.98857	6.69213
3157.06001	6.63301
3155.13145	6.58056
3153.20288	6.50720
3151.27432	6.42045
3149.34575	6.34174
3147.41719	6.26054
3145.48862	6.17220
3143.56006	6.08878
3141.63149	6.01277
3139.70293	5.94231
3137.77437	5.87591
3135.84580	5.81335
3133.91724	5.75998
3131.98867	5.71501
3130.06011	5.66259
3128.13154	5.58887
3126.20298	5.50174
3124.27441	5.42326
3122.34585	5.35506
3120.41729	5.28246
3118.48872	5.20632
3116.56016	5.13442
3114.63159	5.06236
3112.70303	4.98766
3110.77446	4.91524
3108.84590	4.84496
3106.91733	4.77934
3104.98877	4.71983
3103.06021	4.65664
3101.13164	4.58637
3099.20308	4.51728
3097.27451	4.45008
3095.34595	4.38256
3093.41738	4.31718
3091.48882	4.25123
3089.56025	4.18402
3087.63169	4.11942
3085.70312	4.05647
3083.77456	3.99460
3081.84600	3.93491
3079.91743	3.87426
3077.98887	3.81089
3076.06030	3.74770
3074.13174	3.68601
3072.20317	3.62666
3070.27461	3.57108
3068.34604	3.51631
3066.41748	3.45946
3064.48892	3.40288
3062.56035	3.34759
3060.63179	3.29165
3058.70322	3.23490
3056.77466	3.17874
3054.84609	3.12451
3052.91753	3.07288
3050.98896	3.02271
3049.06040	2.97183
3047.13184	2.92100
3045.20327	2.87250
3043.27471	2.82510
3041.34614	2.77671
3039.41758	2.72809
3037.48901	2.68010
3035.56045	2.63325
3033.63188	2.58814
3031.70332	2.54392
3029.77476	2.49975
3027.84619	2.45620
3025.91763	2.41346
3023.98906	2.37117
3022.06050	2.32977
3020.13193	2.28928
3018.20337	2.24963
3016.27480	2.21079
3014.34624	2.17190
3012.41768	2.13284
3010.48911	2.09446
3008.56055	2.05702
3006.63198	2.02014
3004.70342	1.98412
3002.77485	1.94926
3000.84629	1.91463
2998.91772	1.88000
2996.98916	1.84621
2995.06060	1.81326
2993.13203	1.78081
2991.20347	1.74887
2989.27490	1.71712
2987.34634	1.68553
2985.41777	1.65441
2983.48921	1.62349
2981.56064	1.59290
2979.63208	1.56344
2977.70352	1.53500
2975.77495	1.50625
2973.84639	1.47681
2971.91782	1.44784
2969.98926	1.41961
2968.06069	1.39154
2966.13213	1.36399
2964.20356	1.33694
2962.27500	1.30991
2960.34644	1.28352
2958.41787	1.25850
2956.48931	1.23449
2954.56074	1.21117
2952.63218	1.18853
2950.70361	1.16656
2948.77505	1.14506
2946.84648	1.12342
2944.91792	1.10128
2942.98936	1.07880
2941.06079	1.05642
2939.13223	1.03422
2937.20366	1.01181
2935.27510	0.98947
2933.34653	0.96780
2931.41797	0.94634
2929.48940	0.92460
2927.56084	0.90347
2925.63228	0.88376
2923.70371	0.86521
2921.77515	0.84822
2919.84658	0.83335
2917.91802	0.82005
2915.98945	0.80775
2914.06089	0.79614
2912.13232	0.78468
2910.20376	0.77332
2908.27520	0.76212
2906.34663	0.75099
2904.41807	0.74008
2902.48950	0.72924
2900.56094	0.71807
2898.63237	0.70652
2896.70381	0.69493
2894.77524	0.68372
2892.84668	0.67288
2890.91812	0.66218
2888.98955	0.65161
2887.06099	0.64097
2885.13242	0.63026
2883.20386	0.61937
2881.27529	0.60828
2879.34673	0.59733
2877.41816	0.58640
2875.48960	0.57532
2873.56104	0.56473
2871.63247	0.55489
2869.70391	0.54504
2867.77534	0.53467
2865.84678	0.52411
2863.91821	0.51352
2861.98965	0.50277
2860.06108	0.49193
2858.13252	0.48105
2856.20396	0.47001
2854.27539	0.45944
2852.34683	0.45013
2850.41826	0.44218
2848.48970	0.43591
2846.56113	0.43160
2844.63257	0.42849
2842.70400	0.42548
2840.77544	0.42206
2838.84687	0.41795
2836.91831	0.41333
2834.98975	0.40863
2833.06118	0.40385
2831.13262	0.39874
2829.20405	0.39331
2827.27549	0.38792
2825.34692	0.38279
2823.41836	0.37754
2821.48979	0.37187
2819.56123	0.36614
2817.63267	0.36063
2815.70410	0.35514
2813.77554	0.34981
2811.84697	0.34479
2809.91841	0.33979
2807.98984	0.33481
2806.06128	0.32985
2804.13271	0.32483
2802.20415	0.32002
2800.27559	0.31562
2798.34702	0.31121
2796.41846	0.30657
2794.48989	0.30213
2792.56133	0.29799
2790.63276	0.29378
2788.70420	0.28945
2786.77563	0.28527
2784.84707	0.28138
2782.91851	0.27759
2780.98994	0.27381
2779.06138	0.27008
2777.13281	0.26643
2775.20425	0.26287
2773.27568	0.25933
2771.34712	0.25582
2769.41855	0.25259
2767.48999	0.24951
2765.56143	0.24622
2763.63286	0.24276
2761.70430	0.23957
2759.77573	0.23674
2757.84717	0.23389
2755.91860	0.23088
2753.99004	0.22794
2752.06147	0.22507
2750.13291	0.22227
2748.20435	0.21973
2746.27578	0.21738
2744.34722	0.21490
2742.41865	0.21235
2740.49009	0.20989
2738.56152	0.20746
2736.63296	0.20507
2734.70439	0.20276
2732.77583	0.20053
2730.84727	0.19837
2728.91870	0.19630
2726.99014	0.19432
2725.06157	0.19236
2723.13301	0.19036
2721.20444	0.18840
2719.27588	0.18648
2717.34731	0.18461
2715.41875	0.18287
2713.49019	0.18123
2711.56162	0.17954
2709.63306	0.17790
2707.70449	0.17647
2705.77593	0.17514
2703.84736	0.17378
2701.91880	0.17231
2699.99023	0.17078
2698.06167	0.16929
2696.13311	0.16788
2694.20454	0.16644
2692.27598	0.16502
2690.34741	0.16376
2688.41885	0.16267
2686.49028	0.16163
2684.56172	0.16056
2682.63315	0.15944
2680.70459	0.15832
2678.77603	0.15723
2676.84746	0.15612
2674.91890	0.15509
2672.99033	0.15414
2671.06177	0.15319
2669.13320	0.15222
2667.20464	0.15130
2665.27607	0.15039
2663.34751	0.14948
2661.41895	0.14873
2659.49038	0.14823
2657.56182	0.14768
2655.63325	0.14684
2653.70469	0.14604
2651.77612	0.14556
2649.84756	0.14526
2647.91899	0.14482
2645.99043	0.14419
2644.06187	0.14361
2642.13330	0.14314
2640.20474	0.14261
2638.27617	0.14212
2636.34761	0.14186
2634.41904	0.14162
2632.49048	0.14125
2630.56191	0.14090
2628.63335	0.14066
2626.70479	0.14042
2624.77622	0.14014
2622.84766	0.13989
2620.91909	0.13971
2618.99053	0.13956
2617.06196	0.13939
2615.13340	0.13926
2613.20483	0.13921
2611.27627	0.13924
2609.34771	0.13930
2607.41914	0.13938
2605.49058	0.13947
2603.56201	0.13948
2601.63345	0.13945
2599.70488	0.13946
2597.77632	0.13955
2595.84775	0.13965
2593.91919	0.13971
2591.99062	0.13987
2590.06206	0.14009
2588.13350	0.14033
2586.20493	0.14071
2584.27637	0.14113
2582.34780	0.14146
2580.41924	0.14176
2578.49067	0.14206
2576.56211	0.14232
2574.63354	0.14265
2572.70498	0.14305
2570.77642	0.14339
2568.84785	0.14380
2566.91929	0.14443
2564.99072	0.14505
2563.06216	0.14557
2561.13359	0.14612
2559.20503	0.14669
2557.27646	0.14724
2555.34790	0.14783
2553.41934	0.14847
2551.49077	0.14894
2549.56221	0.14927
2547.63364	0.14975
2545.70508	0.15048
2543.77651	0.15125
2541.84795	0.15194
2539.91938	0.15266
2537.99082	0.15346
2536.06226	0.15420
2534.13369	0.15490
2532.20513	0.15565
2530.27656	0.15636
2528.34800	0.15700
2526.41943	0.15767
2524.49087	0.15841
2522.56230	0.15918
2520.63374	0.16000
2518.70518	0.16087
2516.77661	0.16175
2514.84805	0.16259
2512.91948	0.16343
2510.99092	0.16433
2509.06235	0.16525
2507.13379	0.16611
2505.20522	0.16689
2503.27666	0.16772
2501.34810	0.16864
2499.41953	0.16954
2497.49097	0.17044
2495.56240	0.17128
2493.63384	0.17201
2491.70527	0.17283
2489.77671	0.17388
2487.84814	0.17499
2485.91958	0.17601
2483.99102	0.17694
2482.06245	0.17778
2480.13389	0.17868
2478.20532	0.17972
2476.27676	0.18067
2474.34819	0.18157
2472.41963	0.18252
2470.49106	0.18348
2468.56250	0.18438
2466.63394	0.18527
2464.70537	0.18620
2462.77681	0.18714
2460.84824	0.18810
2458.91968	0.18914
2456.99111	0.19026
2455.06255	0.19142
2453.13398	0.19253
2451.20542	0.19353
2449.27686	0.19450
2447.34829	0.19548
2445.41973	0.19651
2443.49116	0.19764
2441.56260	0.19872
2439.63403	0.19971
2437.70547	0.20073
2435.77690	0.20180
2433.84834	0.20287
2431.91978	0.20401
2429.99121	0.20516
2428.06265	0.20622
2426.13408	0.20722
2424.20552	0.20830
2422.27695	0.20948
2420.34839	0.21068
2418.41982	0.21194
2416.49126	0.21319
2414.56270	0.21430
2412.63413	0.21544
2410.70557	0.21673
2408.77700	0.21804
2406.84844	0.21923
2404.91987	0.22033
2402.99131	0.22153
2401.06274	0.22283
2399.13418	0.22406
2397.20562	0.22535
2395.27705	0.22672
2393.34849	0.22797
2391.41992	0.22918
2389.49136	0.23040
2387.56279	0.23157
2385.63423	0.23294
2383.70566	0.23462
2381.77710	0.23632
2379.84854	0.23791
2377.91997	0.23962
2375.99141	0.24146
2374.06284	0.24335
2372.13428	0.24520
2370.20571	0.24715
2368.27715	0.24979
2366.34858	0.25318
2364.42002	0.25593
2362.49146	0.25741
2360.56289	0.25888
2358.63433	0.26131
2356.70576	0.26367
2354.77720	0.26434
2352.84863	0.26441
2350.92007	0.26463
2348.99150	0.26477
2347.06294	0.26537
2345.13437	0.26711
2343.20581	0.26963
2341.27725	0.27159
2339.34868	0.27316
2337.42012	0.27518
2335.49155	0.27740
2333.56299	0.27889
2331.63442	0.27989
2329.70586	0.28096
2327.77729	0.28262
2325.84873	0.28479
2323.92017	0.28682
2321.99160	0.28854
2320.06304	0.28992
2318.13447	0.29109
2316.20591	0.29246
2314.27734	0.29407
2312.34878	0.29567
2310.42021	0.29715
2308.49165	0.29865
2306.56309	0.30035
2304.63452	0.30212
2302.70596	0.30377
2300.77739	0.30543
2298.84883	0.30721
2296.92026	0.30905
2294.99170	0.31077
2293.06313	0.31250
2291.13457	0.31439
2289.20601	0.31633
2287.27744	0.31825
2285.34888	0.32022
2283.42031	0.32223
2281.49175	0.32416
2279.56318	0.32607
2277.63462	0.32811
2275.70605	0.33031
2273.77749	0.33250
2271.84893	0.33461
2269.92036	0.33675
2267.99180	0.33902
2266.06323	0.34129
2264.13467	0.34349
2262.20610	0.34567
2260.27754	0.34776
2258.34897	0.34985
2256.42041	0.35207
2254.49185	0.35431
2252.56328	0.35646
2250.63472	0.35859
2248.70615	0.36076
2246.77759	0.36296
2244.84902	0.36519
2242.92046	0.36749
2240.99189	0.36981
2239.06333	0.37211
2237.13477	0.37437
2235.20620	0.37662
2233.27764	0.37890
2231.34907	0.38116
2229.42051	0.38334
2227.49194	0.38553
2225.56338	0.38780
2223.63481	0.39011
2221.70625	0.39235
2219.77769	0.39449
2217.84912	0.39665
2215.92056	0.39891
2213.99199	0.40123
2212.06343	0.40348
2210.13486	0.40559
2208.20630	0.40767
2206.27773	0.40979
2204.34917	0.41191
2202.42061	0.41403
2200.49204	0.41611
2198.56348	0.41811
2196.63491	0.42012
2194.70635	0.42217
2192.77778	0.42417
2190.84922	0.42612
2188.92065	0.42811
2186.99209	0.43003
2185.06353	0.43177
2183.13496	0.43355
2181.20640	0.43549
2179.27783	0.43735
2177.34927	0.43898
2175.42070	0.44046
2173.49214	0.44190
2171.56357	0.44329
2169.63501	0.44467
2167.70645	0.44612
2165.77788	0.44755
2163.84932	0.44891
2161.92075	0.45017
2159.99219	0.45122
2158.06362	0.45211
2156.13506	0.45302
2154.20649	0.45396
2152.27793	0.45491
2150.34937	0.45577
2148.42080	0.45643
2146.49224	0.45697
2144.56367	0.45746
2142.63511	0.45792
2140.70654	0.45837
2138.77798	0.45877
2136.84941	0.45907
2134.92085	0.45922
2132.99229	0.45923
2131.06372	0.45907
2129.13516	0.45886
2127.20659	0.45872
2125.27803	0.45854
2123.34946	0.45826
2121.42090	0.45789
2119.49233	0.45734
2117.56377	0.45661
2115.63521	0.45580
2113.70664	0.45497
2111.77808	0.45405
2109.84951	0.45315
2107.92095	0.45225
2105.99238	0.45118
2104.06382	0.44997
2102.13525	0.44882
2100.20669	0.44773
2098.27812	0.44651
2096.34956	0.44499
2094.42100	0.44322
2092.49243	0.44150
2090.56387	0.43998
2088.63530	0.43847
2086.70674	0.43683
2084.77817	0.43504
2082.84961	0.43313
2080.92104	0.43113
2078.99248	0.42911
2077.06392	0.42707
2075.13535	0.42494
2073.20679	0.42282
2071.27822	0.42069
2069.34966	0.41849
2067.42109	0.41625
2065.49253	0.41392
2063.56396	0.41141
2061.63540	0.40890
2059.70684	0.40648
2057.77827	0.40400
2055.84971	0.40144
2053.92114	0.39885
2051.99258	0.39626
2050.06401	0.39365
2048.13545	0.39100
2046.20688	0.38833
2044.27832	0.38568
2042.34976	0.38296
2040.42119	0.38015
2038.49263	0.37736
2036.56406	0.37465
2034.63550	0.37201
2032.70693	0.36933
2030.77837	0.36657
2028.84980	0.36378
2026.92124	0.36100
2024.99268	0.35820
2023.06411	0.35534
2021.13555	0.35249
2019.20698	0.34976
2017.27842	0.34705
2015.34985	0.34422
2013.42129	0.34140
2011.49272	0.33859
2009.56416	0.33580
2007.63560	0.33308
2005.70703	0.33042
2003.77847	0.32777
2001.84990	0.32507
1999.92134	0.32231
1997.99277	0.31955
1996.06421	0.31687
1994.13564	0.31429
1992.20708	0.31178
1990.27852	0.30929
1988.34995	0.30684
1986.42139	0.30438
1984.49282	0.30196
1982.56426	0.29960
1980.63569	0.29719
1978.70713	0.29481
1976.77856	0.29250
1974.85000	0.29023
1972.92144	0.28798
1970.99287	0.28582
1969.06431	0.28379
1967.13574	0.28186
1965.20718	0.27986
1963.27861	0.27777
1961.35005	0.27566
1959.42148	0.27365
1957.49292	0.27182
1955.56436	0.27005
1953.63579	0.26823
1951.70723	0.26644
1949.77866	0.26476
1947.85010	0.26314
1945.92153	0.26151
1943.99297	0.25992
1942.06440	0.25840
1940.13584	0.25691
1938.20728	0.25546
1936.27871	0.25406
1934.35015	0.25270
1932.42158	0.25146
1930.49302	0.25030
1928.56445	0.24920
1926.63589	0.24808
1924.70732	0.24696
1922.77876	0.24592
1920.85020	0.24496
1918.92163	0.24409
1916.99307	0.24322
1915.06450	0.24223
1913.13594	0.24122
1911.20737	0.24044
1909.27881	0.23987
1907.35024	0.23927
1905.42168	0.23854
1903.49312	0.23782
1901.56455	0.23724
1899.63599	0.23670
1897.70742	0.23620
1895.77886	0.23580
1893.85029	0.23546
1891.92173	0.23516
1889.99316	0.23493
1888.06460	0.23455
1886.13604	0.23413
1884.20747	0.23396
1882.27891	0.23387
1880.35034	0.23370
1878.42178	0.23359
1876.49321	0.23363
1874.56465	0.23364
1872.63608	0.23365
1870.70752	0.23388
1868.77896	0.23452
1866.85039	0.23500
1864.92183	0.23493
1862.99326	0.23484
1861.06470	0.23500
1859.13613	0.23539
1857.20757	0.23574
1855.27900	0.23616
1853.35044	0.23662
1851.42187	0.23707
1849.49331	0.23758
1847.56475	0.23823
1845.63618	0.23909
1843.70762	0.24019
1841.77905	0.24103
1839.85049	0.24149
1837.92192	0.24226
1835.99336	0.24324
1834.06479	0.24422
1832.13623	0.24527
1830.20767	0.24670
1828.27910	0.24811
1826.35054	0.24908
1824.42197	0.25037
1822.49341	0.25179
1820.56484	0.25301
1818.63628	0.25422
1816.70771	0.25571
1814.77915	0.25740
1812.85059	0.25925
1810.92202	0.26136
1808.99346	0.26352
1807.06489	0.26552
1805.13633	0.26743
1803.20776	0.26957
1801.27920	0.27200
1799.35063	0.27479
1797.42207	0.27740
1795.49351	0.27983
1793.56494	0.28267
1791.63638	0.28646
1789.70781	0.29003
1787.77925	0.29258
1785.85068	0.29566
1783.92212	0.29943
1781.99355	0.30343
1780.06499	0.30772
1778.13643	0.31211
1776.20786	0.31615
1774.27930	0.32049
1772.35073	0.32644
1770.42217	0.33287
1768.49360	0.33812
1766.56504	0.34320
1764.63647	0.34842
1762.70791	0.35416
1760.77935	0.36154
1758.85078	0.36836
1756.92222	0.37506
1754.99365	0.38235
1753.06509	0.38876
1751.13652	0.39633
1749.20796	0.40626
1747.27939	0.41634
1745.35083	0.42529
1743.42227	0.43480
1741.49370	0.44538
1739.56514	0.45818
1737.63657	0.47110
1735.70801	0.48213
1733.77944	0.49906
1731.85088	0.51985
1729.92231	0.53584
1727.99375	0.55175
1726.06519	0.56867
1724.13662	0.58734
1722.20806	0.60763
1720.27949	0.62590
1718.35093	0.64701
1716.42236	0.67969
1714.49380	0.71131
1712.56523	0.73610
1710.63667	0.75972
1708.70811	0.78508
1706.77954	0.81391
1704.85098	0.84847
1702.92241	0.87913
1700.99385	0.90872
1699.06528	0.95323
1697.13672	0.99421
1695.20815	1.03608
1693.27959	1.07582
1691.35103	1.10634
1689.42246	1.14153
1687.49390	1.17912
1685.56533	1.21467
1683.63677	1.27001
1681.70820	1.32923
1679.77964	1.36682
1677.85107	1.40183
1675.92251	1.44092
1673.99395	1.48966
1672.06538	1.53255
1670.13682	1.57339
1668.20825	1.62795
1666.27969	1.67165
1664.35112	1.70724
1662.42256	1.75079
1660.49399	1.80069
1658.56543	1.83893
1656.63687	1.86921
1654.70830	1.89726
1652.77974	1.95006
1650.85117	2.00702
1648.92261	2.02874
1646.99404	2.05998
1645.06548	2.09623
1643.13691	2.11819
1641.20835	2.13182
1639.27979	2.14533
1637.35122	2.15549
1635.42266	2.16118
1633.49409	2.15966
1631.56553	2.15016
1629.63696	2.13781
1627.70840	2.11572
1625.77983	2.08977
1623.85127	2.05573
1621.92271	2.01186
1619.99414	1.97230
1618.06558	1.93302
1616.13701	1.87435
1614.20845	1.81485
1612.27988	1.77111
1610.35132	1.72501
1608.42275	1.67435
1606.49419	1.62379
1604.56562	1.57648
1602.63706	1.52998
1600.70850	1.48428
1598.77993	1.44201
1596.85137	1.40168
1594.92280	1.36184
1592.99424	1.32273
1591.06567	1.28690
1589.13711	1.25347
1587.20854	1.22189
1585.27998	1.19186
1583.35142	1.16314
1581.42285	1.13655
1579.49429	1.11361
1577.56572	1.09244
1575.63716	1.06505
1573.70859	1.04063
1571.78003	1.02483
1569.85146	1.00703
1567.92290	0.98587
1565.99434	0.96910
1564.06577	0.95468
1562.13721	0.94248
1560.20864	0.93224
1558.28008	0.91303
1556.35151	0.89453
1554.42295	0.88380
1552.49438	0.87349
1550.56582	0.86326
1548.63726	0.85271
1546.70869	0.84340
1544.78013	0.83489
1542.85156	0.82638
1540.92300	0.81700
1538.99443	0.80367
1537.06587	0.79418
1535.13730	0.78812
1533.20874	0.78062
1531.28018	0.77255
1529.35161	0.76659
1527.42305	0.76102
1525.49448	0.75513
1523.56592	0.74968
1521.63735	0.74385
1519.70879	0.73721
1517.78022	0.73174
1515.85166	0.72629
1513.92310	0.72101
1511.99453	0.71675
1510.06597	0.71294
1508.13740	0.70920
1506.20884	0.70363
1504.28027	0.69867
1502.35171	0.69531
1500.42314	0.69217
1498.49458	0.68907
1496.56602	0.68570
1494.63745	0.68224
1492.70889	0.67945
1490.78032	0.67721
1488.85176	0.67471
1486.92319	0.67177
1484.99463	0.66894
1483.06606	0.66642
1481.13750	0.66395
1479.20894	0.66140
1477.28037	0.65904
1475.35181	0.65689
1473.42324	0.65445
1471.49468	0.65058
1469.56611	0.64635
1467.63755	0.64293
1465.70898	0.64013
1463.78042	0.63787
1461.85186	0.63611
1459.92329	0.63469
1457.99473	0.63324
1456.06616	0.63071
1454.13760	0.62782
1452.20903	0.62562
1450.28047	0.62361
1448.35190	0.62165
1446.42334	0.61968
1444.49478	0.61774
1442.56621	0.61610
1440.63765	0.61501
1438.70908	0.61428
1436.78052	0.61331
1434.85195	0.61180
1432.92339	0.61020
1430.99482	0.60883
1429.06626	0.60757
1427.13770	0.60631
1425.20913	0.60500
1423.28057	0.60355
1421.35200	0.60213
1419.42344	0.60084
1417.49487	0.59937
1415.56631	0.59760
1413.63774	0.59588
1411.70918	0.59435
1409.78062	0.59303
1407.85205	0.59184
1405.92349	0.59056
1403.99492	0.58902
1402.06636	0.58742
1400.13779	0.58609
1398.20923	0.58493
1396.28066	0.58362
1394.35210	0.58213
1392.42354	0.58063
1390.49497	0.57921
1388.56641	0.57793
1386.63784	0.57663
1384.70928	0.57502
1382.78071	0.57351
1380.85215	0.57233
1378.92358	0.57132
1376.99502	0.57039
1375.06646	0.56970
1373.13789	0.56912
1371.20933	0.56840
1369.28076	0.56769
1367.35220	0.56694
1365.42363	0.56602
1363.49507	0.56517
1361.56650	0.56438
1359.63794	0.56329
1357.70937	0.56214
1355.78081	0.56116
1353.85225	0.56017
1351.92368	0.55913
1349.99512	0.55822
1348.06655	0.55734
1346.13799	0.55632
1344.20942	0.55529
1342.28086	0.55442
1340.35229	0.55368
1338.42373	0.55281
1336.49517	0.55179
1334.56660	0.55082
1332.63804	0.54997
1330.70947	0.54920
1328.78091	0.54852
1326.85234	0.54787
1324.92378	0.54714
1322.99521	0.54627
1321.06665	0.54540
1319.13809	0.54473
1317.20952	0.54405
1315.28096	0.54315
1313.35239	0.54224
1311.42383	0.54137
1309.49526	0.54045
1307.56670	0.53952
1305.63813	0.53854
1303.70957	0.53747
1301.78101	0.53648
1299.85244	0.53562
1297.92388	0.53484
1295.99531	0.53397
1294.06675	0.53300
1292.13818	0.53206
1290.20962	0.53132
1288.28105	0.53079
1286.35249	0.53027
1284.42393	0.52967
1282.49536	0.52909
1280.56680	0.52850
1278.63823	0.52791
1276.70967	0.52740
1274.78110	0.52691
1272.85254	0.52637
1270.92397	0.52587
1268.99541	0.52552
1267.06685	0.52530
1265.13828	0.52506
1263.20972	0.52477
1261.28115	0.52447
1259.35259	0.52424
1257.42402	0.52405
1255.49546	0.52377
1253.56689	0.52340
1251.63833	0.52308
1249.70977	0.52294
1247.78120	0.52293
1245.85264	0.52291
1243.92407	0.52272
1241.99551	0.52240
1240.06694	0.52198
1238.13838	0.52155
1236.20981	0.52108
1234.28125	0.52038
1232.35269	0.51958
1230.42412	0.51888
1228.49556	0.51832
1226.56699	0.51774
1224.63843	0.51703
1222.70986	0.51633
1220.78130	0.51570
1218.85273	0.51499
1216.92417	0.51420
1214.99561	0.51350
1213.06704	0.51293
1211.13848	0.51244
1209.20991	0.51195
1207.28135	0.51144
1205.35278	0.51085
1203.42422	0.51019
1201.49565	0.50958
1199.56709	0.50908
1197.63853	0.50863
1195.70996	0.50807
1193.78140	0.50729
1191.85283	0.50639
1189.92427	0.50559
1187.99570	0.50512
1186.06714	0.50493
1184.13857	0.50478
1182.21001	0.50460
1180.28145	0.50458
1178.35288	0.50478
1176.42432	0.50500
1174.49575	0.50536
1172.56719	0.50597
1170.63862	0.50656
1168.71006	0.50708
1166.78149	0.50770
1164.85293	0.50835
1162.92437	0.50891
1160.99580	0.50937
1159.06724	0.50956
1157.13867	0.50924
1155.21011	0.50838
1153.28154	0.50712
1151.35298	0.50548
1149.42441	0.50355
1147.49585	0.50152
1145.56729	0.49947
1143.63872	0.49721
1141.71016	0.49470
1139.78159	0.49229
1137.85303	0.49032
1135.92446	0.48866
1133.99590	0.48716
1132.06733	0.48579
1130.13877	0.48447
1128.21021	0.48318
1126.28164	0.48201
1124.35308	0.48115
1122.42451	0.48064
1120.49595	0.48041
1118.56738	0.48052
1116.63882	0.48088
1114.71025	0.48128
1112.78169	0.48180
1110.85312	0.48258
1108.92456	0.48355
1106.99600	0.48448
1105.06743	0.48544
1103.13887	0.48686
1101.21030	0.48878
1099.28174	0.49088
1097.35317	0.49315
1095.42461	0.49596
1093.49604	0.49956
1091.56748	0.50381
1089.63892	0.50886
1087.71035	0.51497
1085.78179	0.52200
1083.85322	0.52937
1081.92466	0.53624
1079.99609	0.54184
1078.06753	0.54544
1076.13896	0.54642
1074.21040	0.54466
1072.28184	0.54064
1070.35327	0.53517
1068.42471	0.52885
1066.49614	0.52217
1064.56758	0.51593
1062.63901	0.51065
1060.71045	0.50612
1058.78188	0.50193
1056.85332	0.49801
1054.92476	0.49447
1052.99619	0.49126
1051.06763	0.48851
1049.13906	0.48666
1047.21050	0.48563
1045.28193	0.48488
1043.35337	0.48409
1041.42480	0.48346
1039.49624	0.48318
1037.56768	0.48317
1035.63911	0.48317
1033.71055	0.48299
1031.78198	0.48267
1029.85342	0.48235
1027.92485	0.48210
1025.99629	0.48205
1024.06772	0.48237
1022.13916	0.48290
1020.21060	0.48322
1018.28203	0.48331
1016.35347	0.48354
1014.42490	0.48416
1012.49634	0.48489
1010.56777	0.48555
1008.63921	0.48643
1006.71064	0.48777
1004.78208	0.48954
1002.85352	0.49173
1000.92495	0.49448
998.99639	0.49786
997.06782	0.50158
995.13926	0.50535
993.21069	0.50890
991.28213	0.51182
989.35356	0.51399
987.42500	0.51537
985.49644	0.51612
983.56787	0.51687
981.63931	0.51794
979.71074	0.51920
977.78218	0.52081
975.85361	0.52299
973.92505	0.52579
971.99648	0.52895
970.06792	0.53212
968.13936	0.53558
966.21079	0.53964
964.28223	0.54405
962.35366	0.54879
960.42510	0.55380
958.49653	0.55889
956.56797	0.56428
954.63940	0.57023
952.71084	0.57660
950.78228	0.58314
948.85371	0.58963
946.92515	0.59587
944.99658	0.60189
943.06802	0.60771
941.13945	0.61331
939.21089	0.61893
937.28232	0.62478
935.35376	0.63072
933.42520	0.63645
931.49663	0.64199
929.56807	0.64728
927.63950	0.65234
925.71094	0.65783
923.78237	0.66418
921.85381	0.67106
919.92524	0.67840
917.99668	0.68620
916.06812	0.69401
914.13955	0.70181
912.21099	0.70961
910.28242	0.71729
908.35386	0.72561
906.42529	0.73484
904.49673	0.74411
902.56816	0.75311
900.63960	0.76187
898.71104	0.77020
896.78247	0.77862
894.85391	0.78776
892.92534	0.79829
890.99678	0.81025
889.06821	0.82139
887.13965	0.83083
885.21108	0.84074
883.28252	0.85178
881.35396	0.86314
879.42539	0.87484
877.49683	0.88687
875.56826	0.89898
873.63970	0.91147
871.71113	0.92446
869.78257	0.93599
867.85400	0.94548
865.92544	0.95608
863.99687	0.96851
862.06831	0.98092
860.13975	0.99241
858.21118	1.00288
856.28262	1.01345
854.35405	1.02597
852.42549	1.03950
850.49692	1.05090
848.56836	1.05971
846.63979	1.06881
844.71123	1.08007
842.78267	1.09235
840.85410	1.10509
838.92554	1.11770
836.99697	1.13027
835.06841	1.14380
833.13984	1.15435
831.21128	1.16023
829.28271	1.16814
827.35415	1.18423
825.42559	1.20666
823.49702	1.22309
821.56846	1.22471
819.63989	1.22339
817.71133	1.23221
815.78276	1.25012
813.85420	1.27027
811.92563	1.28751
809.99707	1.30153
808.06851	1.31438
806.13994	1.33169
804.21138	1.35567
802.28281	1.37691
800.35425	1.39389
798.42568	1.42122
796.49712	1.44493
794.56855	1.45424
792.63999	1.47140
790.71143	1.46279
788.78286	1.42227
786.85430	1.41723
784.92573	1.48211
782.99717	1.55450
781.06860	1.48692
779.14004	1.37327
777.21147	1.35695
775.28291	1.42712
773.35435	1.49382
771.42578	1.53660
769.49722	1.51346
767.56865	1.37447
765.64009	1.27551
763.71152	1.25050
761.78296	1.25008
759.85439	1.25391
757.92583	1.22622
755.99727	1.16379
754.06870	1.12264
752.14014	1.06457
750.21157	1.01983
748.28301	1.05608
746.35444	1.11882
744.42588	1.13264
742.49731	1.12385
740.56875	1.09196
738.64019	1.00802
736.71162	0.85535
734.78306	0.71962
732.85449	0.71762
730.92593	1.01178
728.99736	1.35394
727.06880	0.63595
725.14023	0.34019
723.21167	0.21662
721.28311	0.17051
719.35454	0.14527
717.42598	0.07299
715.49741	0.07215
713.56885	0.19454
711.64028	0.20607
709.71172	0.04863
707.78315	-0.07983
705.85459	-0.06948
703.92603	0.00610
701.99746	0.00040
700.06890	-0.01897
698.14033	0.03395
696.21177	0.23238
694.28320	0.44998
692.35464	0.56567
690.42607	0.45250
688.49751	0.26797
686.56895	0.19555
684.64038	0.33279
682.71182	0.50895
680.78325	0.51794
678.85469	0.43359
676.92612	0.33961
674.99756	0.25913
673.06899	0.22879
671.14043	0.21425
669.21187	0.19395
667.28330	0.16805
665.35474	0.14242
663.42617	0.15385
661.49761	0.17382
659.56904	0.16568
657.64048	0.17400
655.71191	0.23459
653.78335	0.31308
651.85479	0.36296
649.92622	0.31729
647.99766	0.21478
646.06909	0.15339
644.14053	0.13843
642.21196	0.14432
640.28340	0.15628
638.35483	0.14844
636.42627	0.10711
634.49771	0.08138
632.56914	0.13221
630.64058	0.26686
628.71201	0.32389
626.78345	0.28825
624.85488	0.27854
622.92632	0.22489
620.99775	0.12021
619.06919	0.09980
617.14062	0.16734
615.21206	0.19182
613.28350	0.23380
611.35493	0.30800
609.42637	0.29563
607.49780	0.19792
605.56924	0.09303
603.64067	0.03496
601.71211	0.05289
599.78354	0.12855
597.85498	0.24070
595.92642	0.29858
593.99785	0.28879
592.06929	0.31262
590.14072	0.34852
588.21216	0.32428
586.28359	0.26074
584.35503	0.22238
582.42646	0.22065
580.49790	0.28652
578.56934	0.42457
576.64077	0.44264
574.71221	0.32667
572.78364	0.19466
570.85508	0.10264
568.92651	0.06841
566.99795	0.06913
565.06938	0.05455
563.14082	0.02677
561.21226	0.05013
559.28369	0.14067
557.35513	0.26215
555.42656	0.27091
553.49800	0.18701
551.56943	0.15956
549.64087	0.16804
547.71230	0.14848
545.78374	0.09552
543.85518	0.10625
541.92661	0.20628
539.99805	0.31161
538.06948	0.37085
536.14092	0.35626
534.21235	0.35271
532.28379	0.33115
530.35522	0.21042
528.42666	0.10569
526.49810	0.09306
524.56953	0.11278
522.64097	0.12751
520.71240	0.14115
518.78384	0.16433
516.85527	0.25406
514.92671	0.61704
512.99814	3.07799
511.06958	0.40608
509.14102	0.11364
507.21245	0.07925
505.28389	0.14202
503.35532	0.23806
501.42676	0.32956
499.49819	0.30750
