3997.91411	0.06352
3995.98555	0.06427
3994.05698	0.06489
3992.12842	0.06517
3990.19985	0.06549
3988.27129	0.06595
3986.34272	0.06609
3984.41416	0.06605
3982.48560	0.06626
3980.55703	0.06655
3978.62847	0.06672
3976.69990	0.06704
3974.77134	0.06729
3972.84277	0.06731
3970.91421	0.06760
3968.98564	0.06807
3967.05708	0.06835
3965.12852	0.06840
3963.19995	0.06821
3961.27139	0.06784
3959.34282	0.06746
3957.41426	0.06735
3955.48569	0.06773
3953.55713	0.06829
3951.62856	0.06852
3949.70000	0.06840
3947.77144	0.06817
3945.84287	0.06812
3943.91431	0.06816
3941.98574	0.06803
3940.05718	0.06808
3938.12861	0.06864
3936.20005	0.06902
3934.27148	0.06881
3932.34292	0.06840
3930.41436	0.06807
3928.48579	0.06789
3926.55723	0.06811
3924.62866	0.06871
3922.70010	0.06894
3920.77153	0.06846
3918.84297	0.06788
3916.91440	0.06786
3914.98584	0.06812
3913.05728	0.06808
3911.12871	0.06785
3909.20015	0.06753
3907.27158	0.06715
3905.34302	0.06682
3903.41445	0.06673
3901.48589	0.06699
3899.55732	0.06727
3897.62876	0.06739
3895.70020	0.06752
3893.77163	0.06754
3891.84307	0.06741
3889.91450	0.06748
3887.98594	0.06758
3886.05737	0.06763
3884.12881	0.06790
3882.20024	0.06811
3880.27168	0.06790
3878.34312	0.06763
3876.41455	0.06759
3874.48599	0.06765
3872.55742	0.06798
3870.62886	0.06845
3868.70029	0.06873
3866.77173	0.06884
3864.84316	0.06921
3862.91460	0.07010
3860.98604	0.07076
3859.05747	0.07060
3857.12891	0.07007
3855.20034	0.06965
3853.27178	0.06988
3851.34321	0.07108
3849.41465	0.07203
3847.48608	0.07255
3845.55752	0.07289
3843.62896	0.07331
3841.70039	0.07411
3839.77183	0.07511
3837.84326	0.07597
3835.91470	0.07656
3833.98613	0.07727
3832.05757	0.07809
3830.12900	0.07851
3828.20044	0.07856
3826.27187	0.07878
3824.34331	0.07918
3822.41475	0.07954
3820.48618	0.08080
3818.55762	0.08261
3816.62905	0.08355
3814.70049	0.08461
3812.77192	0.08593
3810.84336	0.08687
3808.91479	0.08769
3806.98623	0.08874
3805.05767	0.08989
3803.12910	0.09060
3801.20054	0.09154
3799.27197	0.09295
3797.34341	0.09400
3795.41484	0.09546
3793.48628	0.09727
3791.55771	0.09868
3789.62915	0.09995
3787.70059	0.10112
3785.77202	0.10216
3783.84346	0.10340
3781.91489	0.10491
3779.98633	0.10647
3778.05776	0.10815
3776.12920	0.10983
3774.20063	0.11139
3772.27207	0.11282
3770.34351	0.11432
3768.41494	0.11614
3766.48638	0.11781
3764.55781	0.11969
3762.62925	0.12193
3760.70068	0.12405
3758.77212	0.12643
3756.84355	0.12897
3754.91499	0.13065
3752.98643	0.13205
3751.05786	0.13514
3749.12930	0.13996
3747.20073	0.14260
3745.27217	0.14411
3743.34360	0.14768
3741.41504	0.15177
3739.48647	0.15432
3737.55791	0.15658
3735.62935	0.15986
3733.70078	0.16517
3731.77222	0.17129
3729.84365	0.17633
3727.91509	0.18043
3725.98652	0.18528
3724.05796	0.19190
3722.12939	0.19927
3720.20083	0.20681
3718.27227	0.21468
3716.34370	0.22277
3714.41514	0.23042
3712.48657	0.23861
3710.55801	0.25072
3708.62944	0.26559
3706.70088	0.27833
3704.77231	0.28981
3702.84375	0.30267
3700.91519	0.31946
3698.98662	0.33816
3697.05806	0.35587
3695.12949	0.37448
3693.20093	0.39380
3691.27236	0.41408
3689.34380	0.44121
3687.41523	0.47709
3685.48667	0.50917
3683.55811	0.53613
3681.62954	0.56421
3679.70098	0.59527
3677.77241	0.62758
3675.84385	0.66605
3673.91528	0.71982
3671.98672	0.76362
3670.05815	0.80185
3668.12959	0.85636
3666.20103	0.90677
3664.27246	0.94800
3662.34390	0.99128
3660.41533	1.03780
3658.48677	1.08380
3656.55820	1.13323
3654.62964	1.18912
3652.70107	1.23511
3650.77251	1.27337
3648.84395	1.32776
3646.91538	1.39816
3644.98682	1.44989
3643.05825	1.48902
3641.12969	1.52846
3639.20112	1.57202
3637.27256	1.61661
3635.34399	1.66016
3633.41543	1.70313
3631.48687	1.74307
3629.55830	1.78317
3627.62974	1.83748
3625.70117	1.89043
3623.77261	1.92541
3621.84404	1.95744
3619.91548	1.99466
3617.98691	2.04143
3616.05835	2.08671
3614.12979	2.12466
3612.20122	2.16500
3610.27266	2.20433
3608.34409	2.24307
3606.41553	2.28542
3604.48696	2.32537
3602.55840	2.36077
3600.62983	2.39830
3598.70127	2.43873
3596.77271	2.47828
3594.84414	2.51918
3592.91558	2.56328
3590.98701	2.60481
3589.05845	2.64132
3587.12988	2.68444
3585.20132	2.73364
3583.27275	2.77636
3581.34419	2.81528
3579.41562	2.85485
3577.48706	2.89667
3575.55850	2.94030
3573.62993	2.98449
3571.70137	3.02586
3569.77280	3.06480
3567.84424	3.10822
3565.91567	3.16349
3563.98711	3.21452
3562.05854	3.25344
3560.12998	3.29471
3558.20142	3.34202
3556.27285	3.38997
3554.34429	3.43423
3552.41572	3.47684
3550.48716	3.51946
3548.55859	3.56293
3546.63003	3.60791
3544.70146	3.65581
3542.77290	3.70692
3540.84434	3.75802
3538.91577	3.80457
3536.98721	3.84726
3535.05864	3.89500
3533.13008	3.94544
3531.20151	3.99301
3529.27295	4.04105
3527.34438	4.09062
3525.41582	4.13891
3523.48726	4.18678
3521.55869	4.23658
3519.63013	4.28628
3517.70156	4.33490
3515.77300	4.38290
3513.84443	4.42996
3511.91587	4.47441
3509.98730	4.51815
3508.05874	4.56537
3506.13018	4.61560
3504.20161	4.66490
3502.27305	4.71352
3500.34448	4.76339
3498.41592	4.80998
3496.48735	4.85495
3494.55879	4.90590
3492.63022	4.95875
3490.70166	5.00543
3488.77310	5.05214
3486.84453	5.10594
3484.91597	5.15892
3482.98740	5.20058
3481.05884	5.23943
3479.13027	5.28897
3477.20171	5.34072
3475.27314	5.38660
3473.34458	5.43067
3471.41602	5.47439
3469.48745	5.52211
3467.55889	5.57710
3465.63032	5.63250
3463.70176	5.67722
3461.77319	5.71240
3459.84463	5.75667
3457.91606	5.81190
3455.98750	5.86508
3454.05894	5.90957
3452.13037	5.95375
3450.20181	6.00853
3448.27324	6.06396
3446.34468	6.11646
3444.41611	6.16721
3442.48755	6.21725
3440.55898	6.27100
3438.63042	6.33407
3436.70186	6.40252
3434.77329	6.45688
3432.84473	6.49170
3430.91616	6.53027
3428.98760	6.58709
3427.05903	6.63295
3425.13047	6.65847
3423.20190	6.69124
3421.27334	6.75647
3419.34478	6.83524
3417.41621	6.88195
3415.48765	6.89749
3413.55908	6.91959
3411.63052	6.96312
3409.70195	7.00748
3407.77339	7.06308
3405.84482	7.14114
3403.91626	7.22242
3401.98770	7.25527
3400.05913	7.24856
3398.13057	7.26054
3396.20200	7.30705
3394.27344	7.38695
3392.34487	7.44943
3390.41631	7.49822
3388.48774	7.54337
3386.55918	7.55314
3384.63062	7.55454
3382.70205	7.58449
3380.77349	7.64224
3378.84492	7.70233
3376.91636	7.71876
3374.98779	7.68673
3373.05923	7.65701
3371.13066	7.62277
3369.20210	7.62003
3367.27354	7.67598
3365.34497	7.76190
3363.41641	7.84788
3361.48784	7.88058
3359.55928	7.86285
3357.63071	7.84973
3355.70215	7.88471
3353.77358	7.93904
3351.84502	7.97161
3349.91646	7.98438
3347.98789	8.02130
3346.05933	8.03947
3344.13076	8.00624
3342.20220	7.98342
3340.27363	7.93414
3338.34507	7.88573
3336.41650	7.89937
3334.48794	7.96595
3332.55937	8.06164
3330.63081	8.12831
3328.70225	8.07737
3326.77368	8.01830
3324.84512	8.07812
3322.91655	8.15316
3320.98799	8.17387
3319.05942	8.14287
3317.13086	8.06630
3315.20229	8.00286
3313.27373	8.05670
3311.34517	8.19273
3309.41660	8.24260
3307.48804	8.21935
3305.55947	8.20418
3303.63091	8.17329
3301.70234	8.08654
3299.77378	7.99960
3297.84521	7.92250
3295.91665	7.86732
3293.98809	7.90387
3292.05952	8.03658
3290.13096	8.26099
3288.20239	8.53762
3286.27383	8.60687
3284.34526	8.38966
3282.41670	8.21648
3280.48813	8.14952
3278.55957	8.11411
3276.63101	8.15644
3274.70244	8.28698
3272.77388	8.43686
3270.84531	8.51477
3268.91675	8.41390
3266.98818	8.20777
3265.05962	8.10426
3263.13105	8.11184
3261.20249	8.12848
3259.27393	8.14489
3257.34536	8.22456
3255.41680	8.32640
3253.48823	8.32484
3251.55967	8.27170
3249.63110	8.28881
3247.70254	8.33781
3245.77397	8.30259
3243.84541	8.22787
3241.91685	8.17526
3239.98828	8.12922
3238.05972	8.12311
3236.13115	8.17446
3234.20259	8.22501
3232.27402	8.27794
3230.34546	8.36609
3228.41689	8.36147
3226.48833	8.27886
3224.55977	8.27732
3222.63120	8.31056
3220.70264	8.30823
3218.77407	8.25269
3216.84551	8.11767
3214.91694	8.00446
3212.98838	7.95212
3211.05981	7.87210
3209.13125	7.75371
3207.20269	7.66674
3205.27412	7.67916
3203.34556	7.75115
3201.41699	7.72494
3199.48843	7.61303
3197.55986	7.54371
3195.63130	7.52612
3193.70273	7.51962
3191.77417	7.49241
3189.84561	7.46785
3187.91704	7.46370
3185.98848	7.45360
3184.05991	7.42720
3182.13135	7.35623
3180.20278	7.27116
3178.27422	7.22157
3176.34565	7.17579
3174.41709	7.11478
3172.48853	7.05610
3170.55996	6.98558
3168.63140	6.89429
3166.70283	6.82414
3164.77427	6.79970
3162.84570	6.77831
3160.91714	6.71663
3158.98857	6.62783
3157.06001	6.54215
3155.13145	6.47045
3153.20288	6.39959
3151.27432	6.33010
3149.34575	6.27629
3147.41719	6.23397
3145.48862	6.19216
3143.56006	6.13870
3141.63149	6.06456
3139.70293	5.97833
3137.77437	5.89533
3135.84580	5.81744
3133.91724	5.74766
3131.98867	5.68295
3130.06011	5.61791
3128.13154	5.55871
3126.20298	5.49529
3124.27441	5.42048
3122.34585	5.34653
3120.41729	5.27833
3118.48872	5.21064
3116.56016	5.14261
3114.63159	5.07490
3112.70303	5.00585
3110.77446	4.93544
3108.84590	4.86366
3106.91733	4.79505
3104.98877	4.73034
3103.06021	4.66231
3101.13164	4.59212
3099.20308	4.52771
3097.27451	4.47015
3095.34595	4.41226
3093.41738	4.34676
3091.48882	4.27844
3089.56025	4.21513
3087.63169	4.15401
3085.70312	4.09234
3083.77456	4.03110
3081.84600	3.96969
3079.91743	3.90776
3077.98887	3.84699
3076.06030	3.78864
3074.13174	3.73318
3072.20317	3.67947
3070.27461	3.62336
3068.34604	3.56507
3066.41748	3.50943
3064.48892	3.45685
3062.56035	3.40404
3060.63179	3.35020
3058.70322	3.29598
3056.77466	3.24142
3054.84609	3.18743
3052.91753	3.13546
3050.98896	3.08488
3049.06040	3.03421
3047.13184	2.98460
3045.20327	2.93638
3043.27471	2.88797
3041.34614	2.83993
3039.41758	2.79282
3037.48901	2.74604
3035.56045	2.69979
3033.63188	2.65420
3031.70332	2.60875
3029.77476	2.56391
3027.84619	2.52049
3025.91763	2.47804
3023.98906	2.43612
3022.06050	2.39503
3020.13193	2.35448
3018.20337	2.31377
3016.27480	2.27339
3014.34624	2.23402
3012.41768	2.19578
3010.48911	2.15845
3008.56055	2.12140
3006.63198	2.08474
3004.70342	2.04896
3002.77485	2.01416
3000.84629	1.98015
2998.91772	1.94688
2996.98916	1.91453
2995.06060	1.88299
2993.13203	1.85193
2991.20347	1.82095
2989.27490	1.79045
2987.34634	1.76149
2985.41777	1.73344
2983.48921	1.70496
2981.56064	1.67694
2979.63208	1.65018
2977.70352	1.62383
2975.77495	1.59743
2973.84639	1.57151
2971.91782	1.54669
2969.98926	1.52247
2968.06069	1.49825
2966.13213	1.47447
2964.20356	1.45114
2962.27500	1.42763
2960.34644	1.40358
2958.41787	1.37902
2956.48931	1.35413
2954.56074	1.32972
2952.63218	1.30619
2950.70361	1.28311
2948.77505	1.26069
2946.84648	1.23891
2944.91792	1.21730
2942.98936	1.19590
2941.06079	1.17496
2939.13223	1.15440
2937.20366	1.13392
2935.27510	1.11333
2933.34653	1.09281
2931.41797	1.07267
2929.48940	1.05295
2927.56084	1.03362
2925.63228	1.01484
2923.70371	0.99695
2921.77515	0.97929
2919.84658	0.96112
2917.91802	0.94278
2915.98945	0.92477
2914.06089	0.90797
2912.13232	0.89270
2910.20376	0.87804
2908.27520	0.86331
2906.34663	0.84877
2904.41807	0.83442
2902.48950	0.82022
2900.56094	0.80654
2898.63237	0.79343
2896.70381	0.78068
2894.77524	0.76812
2892.84668	0.75563
2890.91812	0.74333
2888.98955	0.73175
2887.06099	0.72109
2885.13242	0.71106
2883.20386	0.70119
2881.27529	0.69128
2879.34673	0.68134
2877.41816	0.67134
2875.48960	0.66123
2873.56104	0.65087
2871.63247	0.64012
2869.70391	0.62877
2867.77534	0.61703
2865.84678	0.60532
2863.91821	0.59354
2861.98965	0.58152
2860.06108	0.56970
2858.13252	0.55853
2856.20396	0.54813
2854.27539	0.53840
2852.34683	0.52888
2850.41826	0.51937
2848.48970	0.51032
2846.56113	0.50213
2844.63257	0.49509
2842.70400	0.48883
2840.77544	0.48269
2838.84687	0.47662
2836.91831	0.47078
2834.98975	0.46505
2833.06118	0.45927
2831.13262	0.45341
2829.20405	0.44754
2827.27549	0.44161
2825.34692	0.43557
2823.41836	0.42955
2821.48979	0.42353
2819.56123	0.41742
2817.63267	0.41154
2815.70410	0.40589
2813.77554	0.40016
2811.84697	0.39436
2809.91841	0.38873
2807.98984	0.38327
2806.06128	0.37792
2804.13271	0.37261
2802.20415	0.36730
2800.27559	0.36212
2798.34702	0.35706
2796.41846	0.35202
2794.48989	0.34707
2792.56133	0.34230
2790.63276	0.33762
2788.70420	0.33292
2786.77563	0.32824
2784.84707	0.32383
2782.91851	0.31960
2780.98994	0.31522
2779.06138	0.31086
2777.13281	0.30687
2775.20425	0.30314
2773.27568	0.29938
2771.34712	0.29546
2769.41855	0.29146
2767.48999	0.28761
2765.56143	0.28393
2763.63286	0.28033
2761.70430	0.27678
2759.77573	0.27333
2757.84717	0.26998
2755.91860	0.26669
2753.99004	0.26343
2752.06147	0.26029
2750.13291	0.25738
2748.20435	0.25455
2746.27578	0.25153
2744.34722	0.24848
2742.41865	0.24564
2740.49009	0.24288
2738.56152	0.24018
2736.63296	0.23764
2734.70439	0.23505
2732.77583	0.23239
2730.84727	0.22988
2728.91870	0.22750
2726.99014	0.22514
2725.06157	0.22286
2723.13301	0.22059
2721.20444	0.21830
2719.27588	0.21614
2717.34731	0.21416
2715.41875	0.21217
2713.49019	0.21024
2711.56162	0.20849
2709.63306	0.20672
2707.70449	0.20488
2705.77593	0.20312
2703.84736	0.20139
2701.91880	0.19957
2699.99023	0.19779
2698.06167	0.19622
2696.13311	0.19490
2694.20454	0.19367
2692.27598	0.19230
2690.34741	0.19079
2688.41885	0.18938
2686.49028	0.18808
2684.56172	0.18680
2682.63315	0.18546
2680.70459	0.18400
2678.77603	0.18257
2676.84746	0.18142
2674.91890	0.18041
2672.99033	0.17938
2671.06177	0.17834
2669.13320	0.17726
2667.20464	0.17615
2665.27607	0.17511
2663.34751	0.17405
2661.41895	0.17296
2659.49038	0.17206
2657.56182	0.17135
2655.63325	0.17059
2653.70469	0.16969
2651.77612	0.16875
2649.84756	0.16796
2647.91899	0.16737
2645.99043	0.16691
2644.06187	0.16642
2642.13330	0.16573
2640.20474	0.16500
2638.27617	0.16444
2636.34761	0.16389
2634.41904	0.16325
2632.49048	0.16269
2630.56191	0.16226
2628.63335	0.16193
2626.70479	0.16163
2624.77622	0.16119
2622.84766	0.16068
2620.91909	0.16028
2618.99053	0.16004
2617.06196	0.15987
2615.13340	0.15960
2613.20483	0.15923
2611.27627	0.15892
2609.34771	0.15869
2607.41914	0.15859
2605.49058	0.15861
2603.56201	0.15864
2601.63345	0.15858
2599.70488	0.15844
2597.77632	0.15825
2595.84775	0.15810
2593.91919	0.15814
2591.99062	0.15835
2590.06206	0.15860
2588.13350	0.15876
2586.20493	0.15882
2584.27637	0.15899
2582.34780	0.15927
2580.41924	0.15942
2578.49067	0.15948
2576.56211	0.15965
2574.63354	0.15993
2572.70498	0.16015
2570.77642	0.16033
2568.84785	0.16063
2566.91929	0.16104
2564.99072	0.16149
2563.06216	0.16199
2561.13359	0.16251
2559.20503	0.16292
2557.27646	0.16322
2555.34790	0.16357
2553.41934	0.16400
2551.49077	0.16439
2549.56221	0.16477
2547.63364	0.16526
2545.70508	0.16588
2543.77651	0.16650
2541.84795	0.16705
2539.91938	0.16754
2537.99082	0.16811
2536.06226	0.16874
2534.13369	0.16936
2532.20513	0.17002
2530.27656	0.17069
2528.34800	0.17131
2526.41943	0.17189
2524.49087	0.17258
2522.56230	0.17339
2520.63374	0.17417
2518.70518	0.17486
2516.77661	0.17551
2514.84805	0.17617
2512.91948	0.17685
2510.99092	0.17765
2509.06235	0.17852
2507.13379	0.17932
2505.20522	0.18005
2503.27666	0.18075
2501.34810	0.18145
2499.41953	0.18224
2497.49097	0.18316
2495.56240	0.18404
2493.63384	0.18477
2491.70527	0.18545
2489.77671	0.18623
2487.84814	0.18705
2485.91958	0.18787
2483.99102	0.18876
2482.06245	0.18972
2480.13389	0.19064
2478.20532	0.19147
2476.27676	0.19216
2474.34819	0.19283
2472.41963	0.19370
2470.49106	0.19470
2468.56250	0.19572
2466.63394	0.19663
2464.70537	0.19739
2462.77681	0.19818
2460.84824	0.19909
2458.91968	0.20001
2456.99111	0.20091
2455.06255	0.20182
2453.13398	0.20278
2451.20542	0.20378
2449.27686	0.20476
2447.34829	0.20569
2445.41973	0.20647
2443.49116	0.20727
2441.56260	0.20829
2439.63403	0.20940
2437.70547	0.21045
2435.77690	0.21146
2433.84834	0.21248
2431.91978	0.21349
2429.99121	0.21451
2428.06265	0.21556
2426.13408	0.21659
2424.20552	0.21756
2422.27695	0.21866
2420.34839	0.21986
2418.41982	0.22100
2416.49126	0.22206
2414.56270	0.22305
2412.63413	0.22405
2410.70557	0.22520
2408.77700	0.22646
2406.84844	0.22770
2404.91987	0.22884
2402.99131	0.22996
2401.06274	0.23123
2399.13418	0.23256
2397.20562	0.23377
2395.27705	0.23487
2393.34849	0.23599
2391.41992	0.23716
2389.49136	0.23833
2387.56279	0.23943
2385.63423	0.24029
2383.70566	0.24088
2381.77710	0.24132
2379.84854	0.24166
2377.91997	0.24184
2375.99141	0.24176
2374.06284	0.24128
2372.13428	0.24045
2370.20571	0.24017
2368.27715	0.24041
2366.34858	0.24018
2364.42002	0.23983
2362.49146	0.23962
2360.56289	0.23952
2358.63433	0.24073
2356.70576	0.24339
2354.77720	0.24729
2352.84863	0.25225
2350.92007	0.25681
2348.99150	0.25959
2347.06294	0.26039
2345.13437	0.25955
2343.20581	0.25854
2341.27725	0.25971
2339.34868	0.26253
2337.42012	0.26491
2335.49155	0.26652
2333.56299	0.26777
2331.63442	0.26917
2329.70586	0.27136
2327.77729	0.27421
2325.84873	0.27712
2323.92017	0.27984
2321.99160	0.28264
2320.06304	0.28561
2318.13447	0.28826
2316.20591	0.29038
2314.27734	0.29234
2312.34878	0.29444
2310.42021	0.29679
2308.49165	0.29923
2306.56309	0.30156
2304.63452	0.30384
2302.70596	0.30606
2300.77739	0.30819
2298.84883	0.31024
2296.92026	0.31230
2294.99170	0.31446
2293.06313	0.31670
2291.13457	0.31886
2289.20601	0.32099
2287.27744	0.32321
2285.34888	0.32547
2283.42031	0.32759
2281.49175	0.32957
2279.56318	0.33153
2277.63462	0.33353
2275.70605	0.33551
2273.77749	0.33742
2271.84893	0.33941
2269.92036	0.34158
2267.99180	0.34378
2266.06323	0.34590
2264.13467	0.34809
2262.20610	0.35036
2260.27754	0.35260
2258.34897	0.35486
2256.42041	0.35718
2254.49185	0.35945
2252.56328	0.36165
2250.63472	0.36388
2248.70615	0.36600
2246.77759	0.36803
2244.84902	0.37025
2242.92046	0.37261
2240.99189	0.37484
2239.06333	0.37699
2237.13477	0.37924
2235.20620	0.38150
2233.27764	0.38371
2231.34907	0.38593
2229.42051	0.38814
2227.49194	0.39038
2225.56338	0.39266
2223.63481	0.39488
2221.70625	0.39703
2219.77769	0.39920
2217.84912	0.40140
2215.92056	0.40362
2213.99199	0.40592
2212.06343	0.40813
2210.13486	0.41015
2208.20630	0.41215
2206.27773	0.41424
2204.34917	0.41644
2202.42061	0.41865
2200.49204	0.42072
2198.56348	0.42265
2196.63491	0.42461
2194.70635	0.42669
2192.77778	0.42882
2190.84922	0.43079
2188.92065	0.43255
2186.99209	0.43424
2185.06353	0.43596
2183.13496	0.43769
2181.20640	0.43938
2179.27783	0.44102
2177.34927	0.44263
2175.42070	0.44423
2173.49214	0.44577
2171.56357	0.44719
2169.63501	0.44854
2167.70645	0.44987
2165.77788	0.45112
2163.84932	0.45237
2161.92075	0.45360
2159.99219	0.45473
2158.06362	0.45577
2156.13506	0.45680
2154.20649	0.45778
2152.27793	0.45855
2150.34937	0.45915
2148.42080	0.45975
2146.49224	0.46042
2144.56367	0.46102
2142.63511	0.46140
2140.70654	0.46172
2138.77798	0.46206
2136.84941	0.46231
2134.92085	0.46242
2132.99229	0.46237
2131.06372	0.46220
2129.13516	0.46208
2127.20659	0.46201
2125.27803	0.46178
2123.34946	0.46133
2121.42090	0.46081
2119.49233	0.46023
2117.56377	0.45956
2115.63521	0.45875
2113.70664	0.45794
2111.77808	0.45718
2109.84951	0.45633
2107.92095	0.45527
2105.99238	0.45406
2104.06382	0.45283
2102.13525	0.45162
2100.20669	0.45044
2098.27812	0.44915
2096.34956	0.44770
2094.42100	0.44614
2092.49243	0.44450
2090.56387	0.44277
2088.63530	0.44088
2086.70674	0.43899
2084.77817	0.43721
2082.84961	0.43534
2080.92104	0.43327
2078.99248	0.43116
2077.06392	0.42908
2075.13535	0.42703
2073.20679	0.42495
2071.27822	0.42273
2069.34966	0.42037
2067.42109	0.41803
2065.49253	0.41580
2063.56396	0.41351
2061.63540	0.41108
2059.70684	0.40862
2057.77827	0.40615
2055.84971	0.40354
2053.92114	0.40076
2051.99258	0.39803
2050.06401	0.39541
2048.13545	0.39287
2046.20688	0.39030
2044.27832	0.38756
2042.34976	0.38470
2040.42119	0.38188
2038.49263	0.37917
2036.56406	0.37649
2034.63550	0.37377
2032.70693	0.37095
2030.77837	0.36813
2028.84980	0.36530
2026.92124	0.36249
2024.99268	0.35976
2023.06411	0.35702
2021.13555	0.35420
2019.20698	0.35134
2017.27842	0.34850
2015.34985	0.34574
2013.42129	0.34306
2011.49272	0.34034
2009.56416	0.33759
2007.63560	0.33489
2005.70703	0.33223
2003.77847	0.32953
2001.84990	0.32680
1999.92134	0.32411
1997.99277	0.32146
1996.06421	0.31891
1994.13564	0.31636
1992.20708	0.31375
1990.27852	0.31122
1988.34995	0.30887
1986.42139	0.30649
1984.49282	0.30406
1982.56426	0.30164
1980.63569	0.29922
1978.70713	0.29689
1976.77856	0.29464
1974.85000	0.29246
1972.92144	0.29030
1970.99287	0.28813
1969.06431	0.28595
1967.13574	0.28386
1965.20718	0.28184
1963.27861	0.27988
1961.35005	0.27794
1959.42148	0.27599
1957.49292	0.27405
1955.56436	0.27223
1953.63579	0.27058
1951.70723	0.26897
1949.77866	0.26729
1947.85010	0.26560
1945.92153	0.26397
1943.99297	0.26244
1942.06440	0.26100
1940.13584	0.25955
1938.20728	0.25808
1936.27871	0.25664
1934.35015	0.25526
1932.42158	0.25400
1930.49302	0.25277
1928.56445	0.25162
1926.63589	0.25050
1924.70732	0.24931
1922.77876	0.24817
1920.85020	0.24725
1918.92163	0.24641
1916.99307	0.24554
1915.06450	0.24470
1913.13594	0.24388
1911.20737	0.24316
1909.27881	0.24247
1907.35024	0.24177
1905.42168	0.24111
1903.49312	0.24057
1901.56455	0.24008
1899.63599	0.23954
1897.70742	0.23901
1895.77886	0.23854
1893.85029	0.23817
1891.92173	0.23784
1889.99316	0.23765
1888.06460	0.23749
1886.13604	0.23725
1884.20747	0.23695
1882.27891	0.23662
1880.35034	0.23643
1878.42178	0.23639
1876.49321	0.23643
1874.56465	0.23641
1872.63608	0.23637
1870.70752	0.23636
1868.77896	0.23659
1866.85039	0.23689
1864.92183	0.23702
1862.99326	0.23720
1861.06470	0.23752
1859.13613	0.23796
1857.20757	0.23837
1855.27900	0.23877
1853.35044	0.23920
1851.42187	0.23970
1849.49331	0.24013
1847.56475	0.24053
1845.63618	0.24111
1843.70762	0.24214
1841.77905	0.24322
1839.85049	0.24383
1837.92192	0.24452
1835.99336	0.24547
1834.06479	0.24644
1832.13623	0.24726
1830.20767	0.24843
1828.27910	0.25004
1826.35054	0.25127
1824.42197	0.25255
1822.49341	0.25394
1820.56484	0.25527
1818.63628	0.25664
1816.70771	0.25827
1814.77915	0.25989
1812.85059	0.26146
1810.92202	0.26330
1808.99346	0.26538
1807.06489	0.26742
1805.13633	0.26931
1803.20776	0.27135
1801.27920	0.27372
1799.35063	0.27660
1797.42207	0.27931
1795.49351	0.28171
1793.56494	0.28427
1791.63638	0.28776
1789.70781	0.29150
1787.77925	0.29434
1785.85068	0.29742
1783.92212	0.30100
1781.99355	0.30477
1780.06499	0.30889
1778.13643	0.31331
1776.20786	0.31732
1774.27930	0.32125
1772.35073	0.32665
1770.42217	0.33314
1768.49360	0.33883
1766.56504	0.34418
1764.63647	0.34948
1762.70791	0.35516
1760.77935	0.36254
1758.85078	0.36956
1756.92222	0.37658
1754.99365	0.38438
1753.06509	0.39120
1751.13652	0.39883
1749.20796	0.40883
1747.27939	0.41939
1745.35083	0.42870
1743.42227	0.43817
1741.49370	0.44856
1739.56514	0.46094
1737.63657	0.47328
1735.70801	0.48372
1733.77944	0.49969
1731.85088	0.51956
1729.92231	0.53531
1727.99375	0.55129
1726.06519	0.56833
1724.13662	0.58686
1722.20806	0.60686
1720.27949	0.62487
1718.35093	0.64537
1716.42236	0.67711
1714.49380	0.70868
1712.56523	0.73407
1710.63667	0.75817
1708.70811	0.78362
1706.77954	0.81231
1704.85098	0.84718
1702.92241	0.87848
1700.99385	0.90875
1699.06528	0.95511
1697.13672	0.99927
1695.20815	1.04532
1693.27959	1.08954
1691.35103	1.12413
1689.42246	1.16423
1687.49390	1.20720
1685.56533	1.24830
1683.63677	1.31372
1681.70820	1.38398
1679.77964	1.42774
1677.85107	1.46879
1675.92251	1.51558
1673.99395	1.57446
1672.06538	1.62759
1670.13682	1.68020
1668.20825	1.75081
1666.27969	1.80766
1664.35112	1.85537
1662.42256	1.91763
1660.49399	1.99174
1658.56543	2.04878
1656.63687	2.09365
1654.70830	2.13334
1652.77974	2.19542
1650.85117	2.25682
1648.92261	2.27520
1646.99404	2.29776
1645.06548	2.32377
1643.13691	2.34206
1641.20835	2.35059
1639.27979	2.35776
1637.35122	2.36088
1635.42266	2.35864
1633.49409	2.35030
1631.56553	2.33543
1629.63696	2.31761
1627.70840	2.28771
1625.77983	2.25398
1623.85127	2.21056
1621.92271	2.15522
1619.99414	2.10643
1618.06558	2.06083
1616.13701	1.99501
1614.20845	1.92720
1612.27988	1.87645
1610.35132	1.82365
1608.42275	1.76648
1606.49419	1.71039
1604.56562	1.65920
1602.63706	1.60971
1600.70850	1.56114
1598.77993	1.51677
1596.85137	1.47580
1594.92280	1.43640
1592.99424	1.39847
1591.06567	1.36398
1589.13711	1.33185
1587.20854	1.30222
1585.27998	1.27517
1583.35142	1.25042
1581.42285	1.22859
1579.49429	1.21030
1577.56572	1.19356
1575.63716	1.17361
1573.70859	1.15775
1571.78003	1.14798
1569.85146	1.13790
1567.92290	1.12772
1565.99434	1.12129
1564.06577	1.11740
1562.13721	1.11501
1560.20864	1.11483
1558.28008	1.11966
1556.35151	1.12524
1554.42295	1.12787
1552.49438	1.13085
1550.56582	1.13273
1548.63726	1.13209
1546.70869	1.12777
1544.78013	1.11880
1542.85156	1.10565
1540.92300	1.08532
1538.99443	1.05271
1537.06587	1.03047
1535.13730	1.01558
1533.20874	0.99443
1531.28018	0.97164
1529.35161	0.95539
1527.42305	0.94000
1525.49448	0.92406
1523.56592	0.91072
1521.63735	0.89793
1519.70879	0.88514
1517.78022	0.87466
1515.85166	0.86230
1513.92310	0.84928
1511.99453	0.83746
1510.06597	0.82605
1508.13740	0.81451
1506.20884	0.79784
1504.28027	0.78524
1502.35171	0.77821
1500.42314	0.77155
1498.49458	0.76421
1496.56602	0.75574
1494.63745	0.74758
1492.70889	0.74121
1490.78032	0.73539
1488.85176	0.72893
1486.92319	0.72334
1484.99463	0.71918
1483.06606	0.71591
1481.13750	0.71318
1479.20894	0.71118
1477.28037	0.71011
1475.35181	0.70974
1473.42324	0.70993
1471.49468	0.70999
1469.56611	0.70884
1467.63755	0.70671
1465.70898	0.70458
1463.78042	0.70335
1461.85186	0.70291
1459.92329	0.70262
1457.99473	0.70257
1456.06616	0.70298
1454.13760	0.70224
1452.20903	0.70014
1450.28047	0.69733
1448.35190	0.69441
1446.42334	0.69159
1444.49478	0.68904
1442.56621	0.68654
1440.63765	0.68383
1438.70908	0.68091
1436.78052	0.67722
1434.85195	0.67328
1432.92339	0.67050
1430.99482	0.66880
1429.06626	0.66803
1427.13770	0.66802
1425.20913	0.66858
1423.28057	0.66972
1421.35200	0.67065
1419.42344	0.67112
1417.49487	0.67129
1415.56631	0.67079
1413.63774	0.67030
1411.70918	0.67057
1409.78062	0.67176
1407.85205	0.67337
1405.92349	0.67508
1403.99492	0.67670
1402.06636	0.67718
1400.13779	0.67628
1398.20923	0.67434
1396.28066	0.67144
1394.35210	0.66755
1392.42354	0.66323
1390.49497	0.65903
1388.56641	0.65451
1386.63784	0.64906
1384.70928	0.64338
1382.78071	0.63808
1380.85215	0.63302
1378.92358	0.62862
1376.99502	0.62539
1375.06646	0.62328
1373.13789	0.62201
1371.20933	0.62133
1369.28076	0.62080
1367.35220	0.61989
1365.42363	0.61834
1363.49507	0.61640
1361.56650	0.61454
1359.63794	0.61300
1357.70937	0.61167
1355.78081	0.61046
1353.85225	0.60936
1351.92368	0.60835
1349.99512	0.60751
1348.06655	0.60671
1346.13799	0.60588
1344.20942	0.60515
1342.28086	0.60444
1340.35229	0.60375
1338.42373	0.60309
1336.49517	0.60247
1334.56660	0.60202
1332.63804	0.60178
1330.70947	0.60187
1328.78091	0.60241
1326.85234	0.60327
1324.92378	0.60426
1322.99521	0.60529
1321.06665	0.60623
1319.13809	0.60703
1317.20952	0.60760
1315.28096	0.60776
1313.35239	0.60745
1311.42383	0.60684
1309.49526	0.60612
1307.56670	0.60535
1305.63813	0.60469
1303.70957	0.60420
1301.78101	0.60361
1299.85244	0.60263
1297.92388	0.60141
1295.99531	0.60013
1294.06675	0.59880
1292.13818	0.59734
1290.20962	0.59579
1288.28105	0.59434
1286.35249	0.59287
1284.42393	0.59117
1282.49536	0.58936
1280.56680	0.58782
1278.63823	0.58659
1276.70967	0.58544
1274.78110	0.58420
1272.85254	0.58297
1270.92397	0.58191
1268.99541	0.58104
1267.06685	0.58025
1265.13828	0.57954
1263.20972	0.57883
1261.28115	0.57801
1259.35259	0.57713
1257.42402	0.57648
1255.49546	0.57620
1253.56689	0.57621
1251.63833	0.57632
1249.70977	0.57643
1247.78120	0.57648
1245.85264	0.57641
1243.92407	0.57595
1241.99551	0.57497
1240.06694	0.57359
1238.13838	0.57173
1236.20981	0.56935
1234.28125	0.56674
1232.35269	0.56429
1230.42412	0.56201
1228.49556	0.55973
1226.56699	0.55762
1224.63843	0.55574
1222.70986	0.55382
1220.78130	0.55189
1218.85273	0.55021
1216.92417	0.54871
1214.99561	0.54738
1213.06704	0.54630
1211.13848	0.54556
1209.20991	0.54499
1207.28135	0.54431
1205.35278	0.54340
1203.42422	0.54233
1201.49565	0.54119
1199.56709	0.54011
1197.63853	0.53922
1195.70996	0.53855
1193.78140	0.53795
1191.85283	0.53724
1189.92427	0.53654
1187.99570	0.53602
1186.06714	0.53580
1184.13857	0.53595
1182.21001	0.53643
1180.28145	0.53726
1178.35288	0.53851
1176.42432	0.54011
1174.49575	0.54168
1172.56719	0.54278
1170.63862	0.54315
1168.71006	0.54305
1166.78149	0.54296
1164.85293	0.54305
1162.92437	0.54317
1160.99580	0.54326
1159.06724	0.54317
1157.13867	0.54269
1155.21011	0.54187
1153.28154	0.54083
1151.35298	0.53931
1149.42441	0.53697
1147.49585	0.53400
1145.56729	0.53094
1143.63872	0.52816
1141.71016	0.52567
1139.78159	0.52352
1137.85303	0.52208
1135.92446	0.52138
1133.99590	0.52121
1132.06733	0.52143
1130.13877	0.52181
1128.21021	0.52195
1126.28164	0.52153
1124.35308	0.52084
1122.42451	0.52056
1120.49595	0.52078
1118.56738	0.52108
1116.63882	0.52131
1114.71025	0.52170
1112.78169	0.52237
1110.85312	0.52312
1108.92456	0.52387
1106.99600	0.52489
1105.06743	0.52614
1103.13887	0.52739
1101.21030	0.52860
1099.28174	0.52998
1097.35317	0.53184
1095.42461	0.53441
1093.49604	0.53775
1091.56748	0.54212
1089.63892	0.54798
1087.71035	0.55530
1085.78179	0.56356
1083.85322	0.57204
1081.92466	0.57956
1079.99609	0.58481
1078.06753	0.58717
1076.13896	0.58660
1074.21040	0.58320
1072.28184	0.57748
1070.35327	0.57058
1068.42471	0.56361
1066.49614	0.55700
1064.56758	0.55091
1062.63901	0.54543
1060.71045	0.54055
1058.78188	0.53604
1056.85332	0.53191
1054.92476	0.52850
1052.99619	0.52567
1051.06763	0.52323
1049.13906	0.52146
1047.21050	0.52031
1045.28193	0.51956
1043.35337	0.51910
1041.42480	0.51879
1039.49624	0.51850
1037.56768	0.51813
1035.63911	0.51768
1033.71055	0.51718
1031.78198	0.51636
1029.85342	0.51496
1027.92485	0.51318
1025.99629	0.51153
1024.06772	0.51033
1022.13916	0.50958
1020.21060	0.50925
1018.28203	0.50911
1016.35347	0.50890
1014.42490	0.50846
1012.49634	0.50790
1010.56777	0.50757
1008.63921	0.50760
1006.71064	0.50813
1004.78208	0.50917
1002.85352	0.51079
1000.92495	0.51328
998.99639	0.51673
997.06782	0.52085
995.13926	0.52518
993.21069	0.52933
991.28213	0.53283
989.35356	0.53503
987.42500	0.53573
985.49644	0.53562
983.56787	0.53536
981.63931	0.53527
979.71074	0.53567
977.78218	0.53671
975.85361	0.53834
973.92505	0.54045
971.99648	0.54323
970.06792	0.54670
968.13936	0.55049
966.21079	0.55449
964.28223	0.55883
962.35366	0.56333
960.42510	0.56800
958.49653	0.57312
956.56797	0.57872
954.63940	0.58464
952.71084	0.59086
950.78228	0.59726
948.85371	0.60359
946.92515	0.60987
944.99658	0.61606
943.06802	0.62205
941.13945	0.62800
939.21089	0.63396
937.28232	0.63966
935.35376	0.64521
933.42520	0.65106
931.49663	0.65690
929.56807	0.66238
927.63950	0.66841
925.71094	0.67508
923.78237	0.68105
921.85381	0.68667
919.92524	0.69334
917.99668	0.70046
916.06812	0.70720
914.13955	0.71469
912.21099	0.72363
910.28242	0.73263
908.35386	0.74065
906.42529	0.74886
904.49673	0.75804
902.56816	0.76722
900.63960	0.77590
898.71104	0.78485
896.78247	0.79461
894.85391	0.80469
892.92534	0.81485
890.99678	0.82478
889.06821	0.83469
887.13965	0.84598
885.21108	0.85833
883.28252	0.87036
881.35396	0.88202
879.42539	0.89300
877.49683	0.90317
875.56826	0.91391
873.63970	0.92587
871.71113	0.93830
869.78257	0.95015
867.85400	0.96165
865.92544	0.97379
863.99687	0.98568
862.06831	0.99683
860.13975	1.00743
858.21118	1.01774
856.28262	1.02850
854.35405	1.04009
852.42549	1.05302
850.49692	1.06635
848.56836	1.07865
846.63979	1.08988
844.71123	1.10001
842.78267	1.11028
840.85410	1.12107
838.92554	1.13122
836.99697	1.14256
835.06841	1.15590
833.13984	1.16857
831.21128	1.18060
829.28271	1.19457
827.35415	1.20965
825.42559	1.22172
823.49702	1.23108
821.56846	1.24266
819.63989	1.25771
817.71133	1.26982
815.78276	1.27798
813.85420	1.28956
811.92563	1.30437
809.99707	1.32048
808.06851	1.34178
806.13994	1.36343
804.21138	1.36624
802.28281	1.35278
800.35425	1.35919
798.42568	1.39837
796.49712	1.42089
794.56855	1.40228
792.63999	1.40415
790.71143	1.45454
788.78286	1.51139
786.85430	1.51156
784.92573	1.47281
782.99717	1.48852
781.06860	1.58090
779.14004	1.63083
777.21147	1.64020
775.28291	1.69303
773.35435	1.63767
771.42578	1.54592
769.49722	1.61142
767.56865	1.87547
765.64009	1.74100
763.71152	1.35555
761.78296	1.18905
759.85439	1.16422
757.92583	1.19492
755.99727	1.19641
754.06870	1.17145
752.14014	1.19164
750.21157	1.28118
748.28301	1.32167
746.35444	1.28956
744.42588	1.39381
742.49731	1.71472
740.56875	1.31054
738.64019	0.97429
736.71162	0.87656
734.78306	0.88566
732.85449	1.04431
730.92593	2.30695
728.99736	1.30420
727.06880	0.74986
725.14023	0.56236
723.21167	0.42522
721.28311	0.20956
719.35454	0.09077
717.42598	0.23005
715.49741	0.57350
713.56885	4.28141
711.64028	4.26984
709.71172	4.25827
707.78315	4.24670
705.85459	4.23513
703.92603	0.70147
701.99746	0.47574
700.06890	0.31618
698.14033	0.23332
696.21177	0.26244
694.28320	0.34152
692.35464	0.36611
690.42607	0.34855
688.49751	0.33698
686.56895	0.32811
684.64038	0.35813
682.71182	0.47019
680.78325	0.48537
678.85469	0.34841
676.92612	0.29480
674.99756	0.33396
673.06899	0.42743
671.14043	0.47640
669.21187	0.49920
667.28330	0.54325
665.35474	0.51169
663.42617	0.54105
661.49761	0.85561
659.56904	0.73721
657.64048	0.36058
655.71191	0.25742
653.78335	0.30204
651.85479	0.34741
649.92622	0.34898
647.99766	0.34643
646.06909	0.37302
644.14053	0.44310
642.21196	0.52266
640.28340	0.53475
638.35483	0.41735
636.42627	0.28304
634.49771	0.24091
632.56914	0.28991
630.64058	0.36992
628.71201	0.35956
626.78345	0.32233
624.85488	0.38090
622.92632	0.49466
620.99775	0.51598
619.06919	0.54963
617.14062	0.61655
615.21206	0.48254
613.28350	0.30389
611.35493	0.19236
609.42637	0.15985
607.49780	0.26124
605.56924	0.40054
603.64067	0.34183
601.71211	0.27695
599.78354	0.31438
597.85498	0.42089
595.92642	0.52462
593.99785	0.45124
592.06929	0.35127
590.14072	0.30531
588.21216	0.26324
586.28359	0.27031
584.35503	0.33651
582.42646	0.35114
580.49790	0.32893
578.56934	0.37854
576.64077	0.44699
574.71221	0.47012
572.78364	0.53660
570.85508	0.61970
568.92651	0.54298
566.99795	0.38233
565.06938	0.31697
563.14082	0.40449
561.21226	0.54194
559.28369	0.52217
557.35513	0.43344
555.42656	0.31284
553.49800	0.21936
551.56943	0.21351
549.64087	0.25257
547.71230	0.28120
545.78374	0.32387
543.85518	0.40304
541.92661	0.49317
539.99805	0.53309
538.06948	0.45066
536.14092	0.32421
534.21235	0.25653
532.28379	0.24299
530.35522	0.23003
528.42666	0.21785
526.49810	0.23879
524.56953	0.27834
522.64097	0.30598
520.71240	0.32965
518.78384	0.34145
516.85527	0.34037
514.92671	0.37408
512.99814	0.36839
511.06958	0.32078
509.14102	0.29584
507.21245	0.26685
505.28389	0.24222
503.35532	0.27567
501.42676	0.38469
499.49819	0.49780
