3997.91411	0.07598
3995.98555	0.07628
3994.05698	0.07709
3992.12842	0.07792
3990.19985	0.07832
3988.27129	0.07827
3986.34272	0.07801
3984.41416	0.07809
3982.48560	0.07868
3980.55703	0.07932
3978.62847	0.07953
3976.69990	0.07957
3974.77134	0.07987
3972.84277	0.08018
3970.91421	0.08009
3968.98564	0.07995
3967.05708	0.08025
3965.12852	0.08076
3963.19995	0.08108
3961.27139	0.08103
3959.34282	0.08061
3957.41426	0.08031
3955.48569	0.08046
3953.55713	0.08070
3951.62856	0.08073
3949.70000	0.08079
3947.77144	0.08101
3945.84287	0.08094
3943.91431	0.08052
3941.98574	0.08021
3940.05718	0.08015
3938.12861	0.08047
3936.20005	0.08092
3934.27148	0.08108
3932.34292	0.08117
3930.41436	0.08143
3928.48579	0.08142
3926.55723	0.08104
3924.62866	0.08097
3922.70010	0.08123
3920.77153	0.08118
3918.84297	0.08081
3916.91440	0.08053
3914.98584	0.08064
3913.05728	0.08080
3911.12871	0.08057
3909.20015	0.08006
3907.27158	0.07988
3905.34302	0.08040
3903.41445	0.08122
3901.48589	0.08156
3899.55732	0.08113
3897.62876	0.08002
3895.70020	0.07901
3893.77163	0.07881
3891.84307	0.07939
3889.91450	0.08000
3887.98594	0.08008
3886.05737	0.08014
3884.12881	0.08040
3882.20024	0.08071
3880.27168	0.08105
3878.34312	0.08122
3876.41455	0.08082
3874.48599	0.08054
3872.55742	0.08126
3870.62886	0.08249
3868.70029	0.08316
3866.77173	0.08307
3864.84316	0.08306
3862.91460	0.08354
3860.98604	0.08385
3859.05747	0.08353
3857.12891	0.08318
3855.20034	0.08347
3853.27178	0.08487
3851.34321	0.08633
3849.41465	0.08591
3847.48608	0.08538
3845.55752	0.08559
3843.62896	0.08628
3841.70039	0.08715
3839.77183	0.08830
3837.84326	0.08961
3835.91470	0.08998
3833.98613	0.08978
3832.05757	0.08990
3830.12900	0.09026
3828.20044	0.09075
3826.27187	0.09149
3824.34331	0.09241
3822.41475	0.09362
3820.48618	0.09563
3818.55762	0.09719
3816.62905	0.09790
3814.70049	0.09872
3812.77192	0.09882
3810.84336	0.09843
3808.91479	0.09860
3806.98623	0.09997
3805.05767	0.10216
3803.12910	0.10384
3801.20054	0.10531
3799.27197	0.10667
3797.34341	0.10769
3795.41484	0.10896
3793.48628	0.10979
3791.55771	0.11013
3789.62915	0.11089
3787.70059	0.11216
3785.77202	0.11372
3783.84346	0.11541
3781.91489	0.11697
3779.98633	0.11841
3778.05776	0.11992
3776.12920	0.12128
3774.20063	0.12261
3772.27207	0.12422
3770.34351	0.12628
3768.41494	0.12861
3766.48638	0.13051
3764.55781	0.13222
3762.62925	0.13412
3760.70068	0.13636
3758.77212	0.13932
3756.84355	0.14238
3754.91499	0.14456
3752.98643	0.14639
3751.05786	0.14914
3749.12930	0.15282
3747.20073	0.15523
3745.27217	0.15736
3743.34360	0.16108
3741.41504	0.16434
3739.48647	0.16645
3737.55791	0.16938
3735.62935	0.17392
3733.70078	0.17904
3731.77222	0.18298
3729.84365	0.18615
3727.91509	0.18956
3725.98652	0.19443
3724.05796	0.20120
3722.12939	0.20892
3720.20083	0.21691
3718.27227	0.22494
3716.34370	0.23306
3714.41514	0.24099
3712.48657	0.24994
3710.55801	0.26246
3708.62944	0.27602
3706.70088	0.28718
3704.77231	0.29829
3702.84375	0.31167
3700.91519	0.32885
3698.98662	0.34729
3697.05806	0.36460
3695.12949	0.38325
3693.20093	0.40312
3691.27236	0.42436
3689.34380	0.45223
3687.41523	0.48788
3685.48667	0.51949
3683.55811	0.54643
3681.62954	0.57481
3679.70098	0.60629
3677.77241	0.63930
3675.84385	0.67914
3673.91528	0.73374
3671.98672	0.77655
3670.05815	0.81363
3668.12959	0.86734
3666.20103	0.91683
3664.27246	0.95733
3662.34390	1.00044
3660.41533	1.04727
3658.48677	1.09351
3656.55820	1.14291
3654.62964	1.19886
3652.70107	1.24531
3650.77251	1.28439
3648.84395	1.33933
3646.91538	1.40890
3644.98682	1.45935
3643.05825	1.49839
3641.12969	1.53861
3639.20112	1.58251
3637.27256	1.62668
3635.34399	1.67007
3633.41543	1.71323
3631.48687	1.75232
3629.55830	1.79105
3627.62974	1.84555
3625.70117	1.89910
3623.77261	1.93370
3621.84404	1.96480
3619.91548	2.00067
3617.98691	2.04634
3616.05835	2.09186
3614.12979	2.13018
3612.20122	2.16986
3610.27266	2.20834
3608.34409	2.24626
3606.41553	2.28821
3604.48696	2.32882
3602.55840	2.36442
3600.62983	2.40192
3598.70127	2.44364
3596.77271	2.48445
3594.84414	2.52486
3592.91558	2.56656
3590.98701	2.60553
3589.05845	2.64163
3587.12988	2.68582
3585.20132	2.73541
3583.27275	2.77692
3581.34419	2.81442
3579.41562	2.85435
3577.48706	2.89688
3575.55850	2.93994
3573.62993	2.98451
3571.70137	3.02734
3569.77280	3.06618
3567.84424	3.10679
3565.91567	3.15751
3563.98711	3.20763
3562.05854	3.25056
3560.12998	3.29469
3558.20142	3.34161
3556.27285	3.38836
3554.34429	3.43155
3552.41572	3.47601
3550.48716	3.52396
3548.55859	3.56947
3546.63003	3.61321
3544.70146	3.66212
3542.77290	3.71258
3540.84434	3.75860
3538.91577	3.80452
3536.98721	3.85090
3535.05864	3.89650
3533.13008	3.94114
3531.20151	3.98690
3529.27295	4.03554
3527.34438	4.08619
3525.41582	4.13613
3523.48726	4.18495
3521.55869	4.23299
3519.63013	4.27695
3517.70156	4.32088
3515.77300	4.36916
3513.84443	4.41897
3511.91587	4.46777
3509.98730	4.51916
3508.05874	4.57362
3506.13018	4.62120
3504.20161	4.65990
3502.27305	4.70079
3500.34448	4.74846
3498.41592	4.79794
3496.48735	4.85054
3494.55879	4.90728
3492.63022	4.95945
3490.70166	4.99839
3488.77310	5.02998
3486.84453	5.06871
3484.91597	5.12142
3482.98740	5.17840
3481.05884	5.22494
3479.13027	5.26270
3477.20171	5.30601
3475.27314	5.36425
3473.34458	5.42932
3471.41602	5.48308
3469.48745	5.52747
3467.55889	5.57158
3465.63032	5.61447
3463.70176	5.65795
3461.77319	5.70481
3459.84463	5.75610
3457.91606	5.81325
3455.98750	5.88095
3454.05894	5.94137
3452.13037	5.97812
3450.20181	6.01696
3448.27324	6.07080
3446.34468	6.11467
3444.41611	6.13774
3442.48755	6.17593
3440.55898	6.23519
3438.63042	6.28921
3436.70186	6.33795
3434.77329	6.39184
3432.84473	6.45108
3430.91616	6.51390
3428.98760	6.58272
3427.05903	6.64637
3425.13047	6.68222
3423.20190	6.68785
3421.27334	6.71923
3419.34478	6.78960
3417.41621	6.83978
3415.48765	6.86653
3413.55908	6.90696
3411.63052	6.96728
3409.70195	7.02358
3407.77339	7.06670
3405.84482	7.09766
3403.91626	7.14838
3401.98770	7.23657
3400.05913	7.32374
3398.13057	7.36492
3396.20200	7.36204
3394.27344	7.36753
3392.34487	7.39243
3390.41631	7.43071
3388.48774	7.49185
3386.55918	7.57465
3384.63062	7.62721
3382.70205	7.61903
3380.77349	7.59347
3378.84492	7.61105
3376.91636	7.65969
3374.98779	7.67200
3373.05923	7.66465
3371.13066	7.66714
3369.20210	7.68526
3367.27354	7.66355
3365.34497	7.63187
3363.41641	7.70512
3361.48784	7.84752
3359.55928	7.90841
3357.63071	7.86019
3355.70215	7.83969
3353.77358	7.85876
3351.84502	7.89388
3349.91646	7.94432
3347.98789	7.95051
3346.05933	7.90325
3344.13076	7.89226
3342.20220	7.96472
3340.27363	8.03061
3338.34507	8.01314
3336.41650	7.94477
3334.48794	7.92149
3332.55937	7.98105
3330.63081	8.08200
3328.70225	8.06885
3326.77368	7.93004
3324.84512	7.86472
3322.91655	7.93720
3320.98799	8.12659
3319.05942	8.30612
3317.13086	8.33571
3315.20229	8.29293
3313.27373	8.29180
3311.34517	8.23948
3309.41660	8.13481
3307.48804	8.16753
3305.55947	8.28784
3303.63091	8.28500
3301.70234	8.17002
3299.77378	8.08774
3297.84521	8.04616
3295.91665	8.07174
3293.98809	8.21720
3292.05952	8.42118
3290.13096	8.55019
3288.20239	8.48274
3286.27383	8.32797
3284.34526	8.24396
3282.41670	8.22342
3280.48813	8.26167
3278.55957	8.34977
3276.63101	8.33597
3274.70244	8.26778
3272.77388	8.26551
3270.84531	8.23270
3268.91675	8.15094
3266.98818	8.11345
3265.05962	8.09011
3263.13105	7.97815
3261.20249	7.89965
3259.27393	7.98579
3257.34536	8.14727
3255.41680	8.21815
3253.48823	8.21130
3251.55967	8.19986
3249.63110	8.16134
3247.70254	8.17034
3245.77397	8.23975
3243.84541	8.25148
3241.91685	8.22139
3239.98828	8.23419
3238.05972	8.26808
3236.13115	8.22387
3234.20259	8.09523
3232.27402	8.08217
3230.34546	8.26330
3228.41689	8.39183
3226.48833	8.31742
3224.55977	8.21987
3222.63120	8.17736
3220.70264	8.08091
3218.77407	7.94658
3216.84551	7.91447
3214.91694	7.93611
3212.98838	7.88084
3211.05981	7.81107
3209.13125	7.82429
3207.20269	7.84475
3205.27412	7.81214
3203.34556	7.79802
3201.41699	7.83578
3199.48843	7.87593
3197.55986	7.82957
3195.63130	7.72021
3193.70273	7.68094
3191.77417	7.70462
3189.84561	7.66234
3187.91704	7.54249
3185.98848	7.44802
3184.05991	7.41829
3182.13135	7.38080
3180.20278	7.28806
3178.27422	7.19975
3176.34565	7.14850
3174.41709	7.09739
3172.48853	7.02137
3170.55996	6.93560
3168.63140	6.86410
3166.70283	6.80646
3164.77427	6.75757
3162.84570	6.71885
3160.91714	6.67743
3158.98857	6.62626
3157.06001	6.55465
3155.13145	6.45889
3153.20288	6.37063
3151.27432	6.31604
3149.34575	6.29000
3147.41719	6.25253
3145.48862	6.17565
3143.56006	6.09461
3141.63149	6.02611
3139.70293	5.95129
3137.77437	5.87697
3135.84580	5.80386
3133.91724	5.73130
3131.98867	5.67265
3130.06011	5.61932
3128.13154	5.55455
3126.20298	5.48180
3124.27441	5.40862
3122.34585	5.33259
3120.41729	5.25779
3118.48872	5.18906
3116.56016	5.12087
3114.63159	5.04957
3112.70303	4.97875
3110.77446	4.91174
3108.84590	4.84586
3106.91733	4.77846
3104.98877	4.71207
3103.06021	4.64782
3101.13164	4.58202
3099.20308	4.51503
3097.27451	4.45066
3095.34595	4.38869
3093.41738	4.32611
3091.48882	4.26256
3089.56025	4.19992
3087.63169	4.13878
3085.70312	4.07964
3083.77456	4.02086
3081.84600	3.96081
3079.91743	3.89996
3077.98887	3.83833
3076.06030	3.77742
3074.13174	3.71934
3072.20317	3.66299
3070.27461	3.60671
3068.34604	3.55161
3066.41748	3.49753
3064.48892	3.44293
3062.56035	3.38818
3060.63179	3.33438
3058.70322	3.28192
3056.77466	3.23019
3054.84609	3.17819
3052.91753	3.12626
3050.98896	3.07563
3049.06040	3.02551
3047.13184	2.97493
3045.20327	2.92556
3043.27471	2.87844
3041.34614	2.83257
3039.41758	2.78615
3037.48901	2.73816
3035.56045	2.69039
3033.63188	2.64498
3031.70332	2.60172
3029.77476	2.55921
3027.84619	2.51614
3025.91763	2.47223
3023.98906	2.42897
3022.06050	2.38796
3020.13193	2.34867
3018.20337	2.30959
3016.27480	2.27054
3014.34624	2.23179
3012.41768	2.19328
3010.48911	2.15545
3008.56055	2.11881
3006.63198	2.08311
3004.70342	2.04772
3002.77485	2.01235
3000.84629	1.97734
2998.91772	1.94345
2996.98916	1.91143
2995.06060	1.88086
2993.13203	1.85025
2991.20347	1.81925
2989.27490	1.78888
2987.34634	1.75971
2985.41777	1.73137
2983.48921	1.70345
2981.56064	1.67612
2979.63208	1.64974
2977.70352	1.62382
2975.77495	1.59761
2973.84639	1.57152
2971.91782	1.54645
2969.98926	1.52223
2968.06069	1.49829
2966.13213	1.47448
2964.20356	1.45028
2962.27500	1.42542
2960.34644	1.40075
2958.41787	1.37732
2956.48931	1.35448
2954.56074	1.33063
2952.63218	1.30644
2950.70361	1.28325
2948.77505	1.26045
2946.84648	1.23771
2944.91792	1.21563
2942.98936	1.19421
2941.06079	1.17330
2939.13223	1.15293
2937.20366	1.13288
2935.27510	1.11274
2933.34653	1.09223
2931.41797	1.07176
2929.48940	1.05168
2927.56084	1.03189
2925.63228	1.01249
2923.70371	0.99385
2921.77515	0.97578
2919.84658	0.95825
2917.91802	0.94184
2915.98945	0.92601
2914.06089	0.90997
2912.13232	0.89436
2910.20376	0.87955
2908.27520	0.86505
2906.34663	0.85073
2904.41807	0.83677
2902.48950	0.82326
2900.56094	0.80998
2898.63237	0.79664
2896.70381	0.78349
2894.77524	0.77084
2892.84668	0.75881
2890.91812	0.74732
2888.98955	0.73613
2887.06099	0.72515
2885.13242	0.71447
2883.20386	0.70429
2881.27529	0.69462
2879.34673	0.68515
2877.41816	0.67546
2875.48960	0.66536
2873.56104	0.65492
2871.63247	0.64427
2869.70391	0.63323
2867.77534	0.62153
2865.84678	0.60931
2863.91821	0.59695
2861.98965	0.58487
2860.06108	0.57352
2858.13252	0.56278
2856.20396	0.55223
2854.27539	0.54191
2852.34683	0.53221
2850.41826	0.52331
2848.48970	0.51522
2846.56113	0.50785
2844.63257	0.50111
2842.70400	0.49470
2840.77544	0.48841
2838.84687	0.48251
2836.91831	0.47698
2834.98975	0.47131
2833.06118	0.46538
2831.13262	0.45940
2829.20405	0.45347
2827.27549	0.44758
2825.34692	0.44167
2823.41836	0.43574
2821.48979	0.42975
2819.56123	0.42383
2817.63267	0.41807
2815.70410	0.41232
2813.77554	0.40655
2811.84697	0.40086
2809.91841	0.39529
2807.98984	0.38977
2806.06128	0.38430
2804.13271	0.37902
2802.20415	0.37396
2800.27559	0.36891
2798.34702	0.36368
2796.41846	0.35854
2794.48989	0.35379
2792.56133	0.34933
2790.63276	0.34488
2788.70420	0.34017
2786.77563	0.33535
2784.84707	0.33070
2782.91851	0.32628
2780.98994	0.32214
2779.06138	0.31812
2777.13281	0.31397
2775.20425	0.30976
2773.27568	0.30574
2771.34712	0.30199
2769.41855	0.29827
2767.48999	0.29454
2765.56143	0.29089
2763.63286	0.28729
2761.70430	0.28384
2759.77573	0.28055
2757.84717	0.27727
2755.91860	0.27408
2753.99004	0.27098
2752.06147	0.26776
2750.13291	0.26442
2748.20435	0.26120
2746.27578	0.25829
2744.34722	0.25563
2742.41865	0.25291
2740.49009	0.25007
2738.56152	0.24730
2736.63296	0.24459
2734.70439	0.24192
2732.77583	0.23938
2730.84727	0.23696
2728.91870	0.23460
2726.99014	0.23223
2725.06157	0.22987
2723.13301	0.22763
2721.20444	0.22552
2719.27588	0.22334
2717.34731	0.22114
2715.41875	0.21912
2713.49019	0.21727
2711.56162	0.21543
2709.63306	0.21356
2707.70449	0.21185
2705.77593	0.21036
2703.84736	0.20879
2701.91880	0.20706
2699.99023	0.20540
2698.06167	0.20376
2696.13311	0.20204
2694.20454	0.20045
2692.27598	0.19910
2690.34741	0.19780
2688.41885	0.19643
2686.49028	0.19504
2684.56172	0.19376
2682.63315	0.19258
2680.70459	0.19141
2678.77603	0.19014
2676.84746	0.18884
2674.91890	0.18766
2672.99033	0.18650
2671.06177	0.18537
2669.13320	0.18434
2667.20464	0.18340
2665.27607	0.18243
2663.34751	0.18132
2661.41895	0.18027
2659.49038	0.17944
2657.56182	0.17875
2655.63325	0.17799
2653.70469	0.17696
2651.77612	0.17585
2649.84756	0.17512
2647.91899	0.17470
2645.99043	0.17420
2644.06187	0.17349
2642.13330	0.17281
2640.20474	0.17229
2638.27617	0.17169
2636.34761	0.17098
2634.41904	0.17039
2632.49048	0.16992
2630.56191	0.16941
2628.63335	0.16880
2626.70479	0.16826
2624.77622	0.16793
2622.84766	0.16774
2620.91909	0.16743
2618.99053	0.16695
2617.06196	0.16651
2615.13340	0.16630
2613.20483	0.16624
2611.27627	0.16612
2609.34771	0.16588
2607.41914	0.16564
2605.49058	0.16543
2603.56201	0.16535
2601.63345	0.16543
2599.70488	0.16538
2597.77632	0.16512
2595.84775	0.16496
2593.91919	0.16500
2591.99062	0.16508
2590.06206	0.16509
2588.13350	0.16514
2586.20493	0.16533
2584.27637	0.16559
2582.34780	0.16592
2580.41924	0.16624
2578.49067	0.16640
2576.56211	0.16651
2574.63354	0.16670
2572.70498	0.16701
2570.77642	0.16732
2568.84785	0.16759
2566.91929	0.16791
2564.99072	0.16828
2563.06216	0.16863
2561.13359	0.16884
2559.20503	0.16907
2557.27646	0.16953
2555.34790	0.17004
2553.41934	0.17043
2551.49077	0.17084
2549.56221	0.17136
2547.63364	0.17185
2545.70508	0.17234
2543.77651	0.17288
2541.84795	0.17347
2539.91938	0.17406
2537.99082	0.17460
2536.06226	0.17511
2534.13369	0.17569
2532.20513	0.17635
2530.27656	0.17699
2528.34800	0.17765
2526.41943	0.17842
2524.49087	0.17920
2522.56230	0.17995
2520.63374	0.18062
2518.70518	0.18119
2516.77661	0.18174
2514.84805	0.18242
2512.91948	0.18324
2510.99092	0.18409
2509.06235	0.18485
2507.13379	0.18558
2505.20522	0.18636
2503.27666	0.18711
2501.34810	0.18784
2499.41953	0.18863
2497.49097	0.18937
2495.56240	0.19010
2493.63384	0.19096
2491.70527	0.19186
2489.77671	0.19273
2487.84814	0.19355
2485.91958	0.19429
2483.99102	0.19506
2482.06245	0.19589
2480.13389	0.19662
2478.20532	0.19726
2476.27676	0.19803
2474.34819	0.19899
2472.41963	0.19991
2470.49106	0.20063
2468.56250	0.20139
2466.63394	0.20229
2464.70537	0.20317
2462.77681	0.20402
2460.84824	0.20500
2458.91968	0.20603
2456.99111	0.20700
2455.06255	0.20784
2453.13398	0.20859
2451.20542	0.20938
2449.27686	0.21036
2447.34829	0.21147
2445.41973	0.21255
2443.49116	0.21356
2441.56260	0.21450
2439.63403	0.21533
2437.70547	0.21621
2435.77690	0.21716
2433.84834	0.21808
2431.91978	0.21907
2429.99121	0.22024
2428.06265	0.22145
2426.13408	0.22253
2424.20552	0.22350
2422.27695	0.22450
2420.34839	0.22560
2418.41982	0.22669
2416.49126	0.22773
2414.56270	0.22881
2412.63413	0.23001
2410.70557	0.23115
2408.77700	0.23223
2406.84844	0.23332
2404.91987	0.23445
2402.99131	0.23562
2401.06274	0.23678
2399.13418	0.23787
2397.20562	0.23899
2395.27705	0.24023
2393.34849	0.24145
2391.41992	0.24263
2389.49136	0.24372
2387.56279	0.24455
2385.63423	0.24494
2383.70566	0.24482
2381.77710	0.24416
2379.84854	0.24291
2377.91997	0.24102
2375.99141	0.23866
2374.06284	0.23576
2372.13428	0.23201
2370.20571	0.22774
2368.27715	0.22335
2366.34858	0.21872
2364.42002	0.21448
2362.49146	0.21227
2360.56289	0.21275
2358.63433	0.21585
2356.70576	0.22103
2354.77720	0.22741
2352.84863	0.23573
2350.92007	0.24418
2348.99150	0.24905
2347.06294	0.24972
2345.13437	0.24731
2343.20581	0.24407
2341.27725	0.24296
2339.34868	0.24478
2337.42012	0.24806
2335.49155	0.25117
2333.56299	0.25344
2331.63442	0.25531
2329.70586	0.25766
2327.77729	0.26076
2325.84873	0.26460
2323.92017	0.26896
2321.99160	0.27318
2320.06304	0.27720
2318.13447	0.28138
2316.20591	0.28531
2314.27734	0.28844
2312.34878	0.29101
2310.42021	0.29374
2308.49165	0.29685
2306.56309	0.30012
2304.63452	0.30335
2302.70596	0.30630
2300.77739	0.30883
2298.84883	0.31127
2296.92026	0.31377
2294.99170	0.31615
2293.06313	0.31856
2291.13457	0.32123
2289.20601	0.32398
2287.27744	0.32658
2285.34888	0.32902
2283.42031	0.33137
2281.49175	0.33351
2279.56318	0.33537
2277.63462	0.33705
2275.70605	0.33882
2273.77749	0.34081
2271.84893	0.34299
2269.92036	0.34522
2267.99180	0.34742
2266.06323	0.34955
2264.13467	0.35160
2262.20610	0.35369
2260.27754	0.35588
2258.34897	0.35815
2256.42041	0.36048
2254.49185	0.36287
2252.56328	0.36518
2250.63472	0.36741
2248.70615	0.36969
2246.77759	0.37202
2244.84902	0.37430
2242.92046	0.37650
2240.99189	0.37871
2239.06333	0.38100
2237.13477	0.38330
2235.20620	0.38555
2233.27764	0.38773
2231.34907	0.38984
2229.42051	0.39195
2227.49194	0.39420
2225.56338	0.39650
2223.63481	0.39871
2221.70625	0.40090
2219.77769	0.40312
2217.84912	0.40532
2215.92056	0.40751
2213.99199	0.40971
2212.06343	0.41179
2210.13486	0.41380
2208.20630	0.41596
2206.27773	0.41821
2204.34917	0.42042
2202.42061	0.42255
2200.49204	0.42450
2198.56348	0.42631
2196.63491	0.42816
2194.70635	0.43016
2192.77778	0.43216
2190.84922	0.43400
2188.92065	0.43576
2186.99209	0.43756
2185.06353	0.43940
2183.13496	0.44125
2181.20640	0.44296
2179.27783	0.44456
2177.34927	0.44623
2175.42070	0.44791
2173.49214	0.44943
2171.56357	0.45073
2169.63501	0.45193
2167.70645	0.45316
2165.77788	0.45452
2163.84932	0.45589
2161.92075	0.45707
2159.99219	0.45806
2158.06362	0.45898
2156.13506	0.45990
2154.20649	0.46080
2152.27793	0.46170
2150.34937	0.46252
2148.42080	0.46315
2146.49224	0.46368
2144.56367	0.46427
2142.63511	0.46480
2140.70654	0.46512
2138.77798	0.46532
2136.84941	0.46542
2134.92085	0.46545
2132.99229	0.46556
2131.06372	0.46564
2129.13516	0.46551
2127.20659	0.46518
2125.27803	0.46482
2123.34946	0.46438
2121.42090	0.46385
2119.49233	0.46334
2117.56377	0.46282
2115.63521	0.46212
2113.70664	0.46124
2111.77808	0.46032
2109.84951	0.45935
2107.92095	0.45835
2105.99238	0.45726
2104.06382	0.45604
2102.13525	0.45478
2100.20669	0.45359
2098.27812	0.45233
2096.34956	0.45089
2094.42100	0.44934
2092.49243	0.44771
2090.56387	0.44601
2088.63530	0.44424
2086.70674	0.44246
2084.77817	0.44064
2082.84961	0.43869
2080.92104	0.43663
2078.99248	0.43461
2077.06392	0.43257
2075.13535	0.43041
2073.20679	0.42820
2071.27822	0.42599
2069.34966	0.42373
2067.42109	0.42141
2065.49253	0.41911
2063.56396	0.41678
2061.63540	0.41436
2059.70684	0.41180
2057.77827	0.40926
2055.84971	0.40681
2053.92114	0.40434
2051.99258	0.40172
2050.06401	0.39910
2048.13545	0.39659
2046.20688	0.39404
2044.27832	0.39133
2042.34976	0.38854
2040.42119	0.38580
2038.49263	0.38307
2036.56406	0.38028
2034.63550	0.37744
2032.70693	0.37454
2030.77837	0.37167
2028.84980	0.36889
2026.92124	0.36621
2024.99268	0.36351
2023.06411	0.36070
2021.13555	0.35785
2019.20698	0.35504
2017.27842	0.35223
2015.34985	0.34937
2013.42129	0.34655
2011.49272	0.34382
2009.56416	0.34114
2007.63560	0.33851
2005.70703	0.33590
2003.77847	0.33318
2001.84990	0.33040
1999.92134	0.32773
1997.99277	0.32510
1996.06421	0.32242
1994.13564	0.31986
1992.20708	0.31745
1990.27852	0.31502
1988.34995	0.31254
1986.42139	0.30995
1984.49282	0.30735
1982.56426	0.30494
1980.63569	0.30261
1978.70713	0.30028
1976.77856	0.29798
1974.85000	0.29574
1972.92144	0.29357
1970.99287	0.29145
1969.06431	0.28936
1967.13574	0.28736
1965.20718	0.28540
1963.27861	0.28346
1961.35005	0.28152
1959.42148	0.27957
1957.49292	0.27764
1955.56436	0.27579
1953.63579	0.27401
1951.70723	0.27229
1949.77866	0.27065
1947.85010	0.26908
1945.92153	0.26756
1943.99297	0.26609
1942.06440	0.26457
1940.13584	0.26294
1938.20728	0.26136
1936.27871	0.25994
1934.35015	0.25865
1932.42158	0.25742
1930.49302	0.25618
1928.56445	0.25498
1926.63589	0.25382
1924.70732	0.25280
1922.77876	0.25193
1920.85020	0.25100
1918.92163	0.24997
1916.99307	0.24897
1915.06450	0.24804
1913.13594	0.24722
1911.20737	0.24657
1909.27881	0.24588
1907.35024	0.24506
1905.42168	0.24425
1903.49312	0.24362
1901.56455	0.24310
1899.63599	0.24260
1897.70742	0.24212
1895.77886	0.24173
1893.85029	0.24142
1891.92173	0.24100
1889.99316	0.24070
1888.06460	0.24047
1886.13604	0.24017
1884.20747	0.23984
1882.27891	0.23962
1880.35034	0.23949
1878.42178	0.23937
1876.49321	0.23932
1874.56465	0.23934
1872.63608	0.23944
1870.70752	0.23967
1868.77896	0.24013
1866.85039	0.24040
1864.92183	0.24030
1862.99326	0.24029
1861.06470	0.24047
1859.13613	0.24082
1857.20757	0.24125
1855.27900	0.24171
1853.35044	0.24205
1851.42187	0.24245
1849.49331	0.24303
1847.56475	0.24367
1845.63618	0.24438
1843.70762	0.24530
1841.77905	0.24612
1839.85049	0.24660
1837.92192	0.24734
1835.99336	0.24834
1834.06479	0.24935
1832.13623	0.25032
1830.20767	0.25166
1828.27910	0.25317
1826.35054	0.25421
1824.42197	0.25540
1822.49341	0.25668
1820.56484	0.25791
1818.63628	0.25923
1816.70771	0.26080
1814.77915	0.26246
1812.85059	0.26428
1810.92202	0.26638
1808.99346	0.26842
1807.06489	0.27024
1805.13633	0.27206
1803.20776	0.27421
1801.27920	0.27666
1799.35063	0.27940
1797.42207	0.28194
1795.49351	0.28440
1793.56494	0.28719
1791.63638	0.29074
1789.70781	0.29419
1787.77925	0.29679
1785.85068	0.29979
1783.92212	0.30339
1781.99355	0.30729
1780.06499	0.31146
1778.13643	0.31582
1776.20786	0.31987
1774.27930	0.32405
1772.35073	0.32968
1770.42217	0.33597
1768.49360	0.34131
1766.56504	0.34649
1764.63647	0.35174
1762.70791	0.35741
1760.77935	0.36468
1758.85078	0.37160
1756.92222	0.37860
1754.99365	0.38624
1753.06509	0.39293
1751.13652	0.40076
1749.20796	0.41110
1747.27939	0.42147
1745.35083	0.43027
1743.42227	0.43953
1741.49370	0.44996
1739.56514	0.46243
1737.63657	0.47487
1735.70801	0.48549
1733.77944	0.50166
1731.85088	0.52146
1729.92231	0.53701
1727.99375	0.55267
1726.06519	0.56931
1724.13662	0.58754
1722.20806	0.60741
1720.27949	0.62566
1718.35093	0.64692
1716.42236	0.67944
1714.49380	0.71084
1712.56523	0.73553
1710.63667	0.75901
1708.70811	0.78417
1706.77954	0.81306
1704.85098	0.84841
1702.92241	0.88005
1700.99385	0.91035
1699.06528	0.95610
1697.13672	0.99947
1695.20815	1.04498
1693.27959	1.08891
1691.35103	1.12355
1689.42246	1.16377
1687.49390	1.20672
1685.56533	1.24768
1683.63677	1.31308
1681.70820	1.38312
1679.77964	1.42595
1677.85107	1.46587
1675.92251	1.51264
1673.99395	1.57255
1672.06538	1.62556
1670.13682	1.67691
1668.20825	1.74611
1666.27969	1.80182
1664.35112	1.84906
1662.42256	1.91050
1660.49399	1.98229
1658.56543	2.03795
1656.63687	2.08357
1654.70830	2.12651
1652.77974	2.19016
1650.85117	2.24481
1648.92261	2.26274
1646.99404	2.28871
1645.06548	2.31265
1643.13691	2.32905
1641.20835	2.33869
1639.27979	2.34633
1637.35122	2.34933
1635.42266	2.34758
1633.49409	2.33908
1631.56553	2.32356
1629.63696	2.30539
1627.70840	2.27493
1625.77983	2.23987
1623.85127	2.19502
1621.92271	2.14019
1619.99414	2.09400
1618.06558	2.05010
1616.13701	1.98425
1614.20845	1.91644
1612.27988	1.86618
1610.35132	1.81390
1608.42275	1.75629
1606.49419	1.69877
1604.56562	1.64648
1602.63706	1.59710
1600.70850	1.54964
1598.77993	1.50616
1596.85137	1.46542
1594.92280	1.42587
1592.99424	1.38754
1591.06567	1.35280
1589.13711	1.32071
1587.20854	1.29119
1585.27998	1.26424
1583.35142	1.23944
1581.42285	1.21746
1579.49429	1.19939
1577.56572	1.18365
1575.63716	1.16442
1573.70859	1.14743
1571.78003	1.13668
1569.85146	1.12646
1567.92290	1.11612
1565.99434	1.10944
1564.06577	1.10558
1562.13721	1.10325
1560.20864	1.10309
1558.28008	1.10803
1556.35151	1.11379
1554.42295	1.11647
1552.49438	1.11893
1550.56582	1.11964
1548.63726	1.11775
1546.70869	1.11325
1544.78013	1.10555
1542.85156	1.09440
1540.92300	1.07618
1538.99443	1.04478
1537.06587	1.02197
1535.13730	1.00683
1533.20874	0.98628
1531.28018	0.96424
1529.35161	0.94835
1527.42305	0.93325
1525.49448	0.91753
1523.56592	0.90414
1521.63735	0.89153
1519.70879	0.87945
1517.78022	0.86951
1515.85166	0.85721
1513.92310	0.84411
1511.99453	0.83260
1510.06597	0.82176
1508.13740	0.81069
1506.20884	0.79434
1504.28027	0.78173
1502.35171	0.77480
1500.42314	0.76846
1498.49458	0.76149
1496.56602	0.75304
1494.63745	0.74459
1492.70889	0.73826
1490.78032	0.73297
1488.85176	0.72684
1486.92319	0.72072
1484.99463	0.71593
1483.06606	0.71248
1481.13750	0.70981
1479.20894	0.70767
1477.28037	0.70638
1475.35181	0.70603
1473.42324	0.70629
1471.49468	0.70581
1469.56611	0.70396
1467.63755	0.70163
1465.70898	0.69963
1463.78042	0.69863
1461.85186	0.69842
1459.92329	0.69841
1457.99473	0.69869
1456.06616	0.69853
1454.13760	0.69686
1452.20903	0.69477
1450.28047	0.69255
1448.35190	0.69018
1446.42334	0.68760
1444.49478	0.68517
1442.56621	0.68288
1440.63765	0.68041
1438.70908	0.67762
1436.78052	0.67388
1434.85195	0.66968
1432.92339	0.66670
1430.99482	0.66491
1429.06626	0.66405
1427.13770	0.66395
1425.20913	0.66443
1423.28057	0.66535
1421.35200	0.66609
1419.42344	0.66659
1417.49487	0.66670
1415.56631	0.66598
1413.63774	0.66525
1411.70918	0.66528
1409.78062	0.66627
1407.85205	0.66781
1405.92349	0.66971
1403.99492	0.67164
1402.06636	0.67251
1400.13779	0.67212
1398.20923	0.67057
1396.28066	0.66792
1394.35210	0.66407
1392.42354	0.65945
1390.49497	0.65496
1388.56641	0.65042
1386.63784	0.64518
1384.70928	0.63971
1382.78071	0.63460
1380.85215	0.62974
1378.92358	0.62561
1376.99502	0.62265
1375.06646	0.62065
1373.13789	0.61923
1371.20933	0.61822
1369.28076	0.61741
1367.35220	0.61628
1365.42363	0.61469
1363.49507	0.61303
1361.56650	0.61151
1359.63794	0.60997
1357.70937	0.60843
1355.78081	0.60701
1353.85225	0.60575
1351.92368	0.60475
1349.99512	0.60410
1348.06655	0.60360
1346.13799	0.60289
1344.20942	0.60191
1342.28086	0.60099
1340.35229	0.60034
1338.42373	0.59979
1336.49517	0.59921
1334.56660	0.59875
1332.63804	0.59862
1330.70947	0.59882
1328.78091	0.59911
1326.85234	0.59951
1324.92378	0.60027
1322.99521	0.60133
1321.06665	0.60227
1319.13809	0.60295
1317.20952	0.60341
1315.28096	0.60364
1313.35239	0.60349
1311.42383	0.60289
1309.49526	0.60214
1307.56670	0.60150
1305.63813	0.60093
1303.70957	0.60038
1301.78101	0.59973
1299.85244	0.59883
1297.92388	0.59760
1295.99531	0.59608
1294.06675	0.59457
1292.13818	0.59323
1290.20962	0.59193
1288.28105	0.59057
1286.35249	0.58919
1284.42393	0.58769
1282.49536	0.58612
1280.56680	0.58479
1278.63823	0.58359
1276.70967	0.58218
1274.78110	0.58072
1272.85254	0.57958
1270.92397	0.57878
1268.99541	0.57819
1267.06685	0.57757
1265.13828	0.57676
1263.20972	0.57591
1261.28115	0.57512
1259.35259	0.57447
1257.42402	0.57389
1255.49546	0.57346
1253.56689	0.57335
1251.63833	0.57352
1249.70977	0.57370
1247.78120	0.57375
1245.85264	0.57365
1243.92407	0.57321
1241.99551	0.57227
1240.06694	0.57081
1238.13838	0.56890
1236.20981	0.56672
1234.28125	0.56443
1232.35269	0.56213
1230.42412	0.55980
1228.49556	0.55749
1226.56699	0.55540
1224.63843	0.55347
1222.70986	0.55154
1220.78130	0.54969
1218.85273	0.54804
1216.92417	0.54662
1214.99561	0.54542
1213.06704	0.54441
1211.13848	0.54365
1209.20991	0.54303
1207.28135	0.54238
1205.35278	0.54150
1203.42422	0.54037
1201.49565	0.53925
1199.56709	0.53838
1197.63853	0.53767
1195.70996	0.53697
1193.78140	0.53621
1191.85283	0.53540
1189.92427	0.53466
1187.99570	0.53399
1186.06714	0.53353
1184.13857	0.53342
1182.21001	0.53385
1180.28145	0.53484
1178.35288	0.53620
1176.42432	0.53764
1174.49575	0.53899
1172.56719	0.53998
1170.63862	0.54045
1168.71006	0.54062
1166.78149	0.54067
1164.85293	0.54069
1162.92437	0.54081
1160.99580	0.54092
1159.06724	0.54070
1157.13867	0.54007
1155.21011	0.53922
1153.28154	0.53803
1151.35298	0.53628
1149.42441	0.53401
1147.49585	0.53117
1145.56729	0.52798
1143.63872	0.52512
1141.71016	0.52291
1139.78159	0.52107
1137.85303	0.51950
1135.92446	0.51847
1133.99590	0.51818
1132.06733	0.51836
1130.13877	0.51849
1128.21021	0.51816
1126.28164	0.51745
1124.35308	0.51693
1122.42451	0.51677
1120.49595	0.51672
1118.56738	0.51691
1116.63882	0.51755
1114.71025	0.51836
1112.78169	0.51909
1110.85312	0.51979
1108.92456	0.52056
1106.99600	0.52147
1105.06743	0.52250
1103.13887	0.52369
1101.21030	0.52497
1099.28174	0.52623
1097.35317	0.52795
1095.42461	0.53072
1093.49604	0.53455
1091.56748	0.53929
1089.63892	0.54498
1087.71035	0.55190
1085.78179	0.55986
1083.85322	0.56790
1081.92466	0.57503
1079.99609	0.58031
1078.06753	0.58302
1076.13896	0.58298
1074.21040	0.58025
1072.28184	0.57532
1070.35327	0.56885
1068.42471	0.56147
1066.49614	0.55440
1064.56758	0.54831
1062.63901	0.54279
1060.71045	0.53771
1058.78188	0.53335
1056.85332	0.52962
1054.92476	0.52611
1052.99619	0.52290
1051.06763	0.52037
1049.13906	0.51841
1047.21050	0.51686
1045.28193	0.51590
1043.35337	0.51537
1041.42480	0.51486
1039.49624	0.51434
1037.56768	0.51396
1035.63911	0.51360
1033.71055	0.51313
1031.78198	0.51250
1029.85342	0.51145
1027.92485	0.50985
1025.99629	0.50824
1024.06772	0.50715
1022.13916	0.50649
1020.21060	0.50603
1018.28203	0.50572
1016.35347	0.50556
1014.42490	0.50556
1012.49634	0.50555
1010.56777	0.50548
1008.63921	0.50555
1006.71064	0.50602
1004.78208	0.50718
1002.85352	0.50910
1000.92495	0.51169
998.99639	0.51485
997.06782	0.51863
995.13926	0.52287
993.21069	0.52702
991.28213	0.53037
989.35356	0.53244
987.42500	0.53324
985.49644	0.53317
983.56787	0.53291
981.63931	0.53308
979.71074	0.53383
977.78218	0.53515
975.85361	0.53696
973.92505	0.53904
971.99648	0.54150
970.06792	0.54450
968.13936	0.54806
966.21079	0.55218
964.28223	0.55662
962.35366	0.56127
960.42510	0.56625
958.49653	0.57152
956.56797	0.57687
954.63940	0.58242
952.71084	0.58833
950.78228	0.59449
948.85371	0.60068
946.92515	0.60686
944.99658	0.61324
943.06802	0.61974
941.13945	0.62596
939.21089	0.63182
937.28232	0.63767
935.35376	0.64350
933.42520	0.64887
931.49663	0.65380
929.56807	0.65892
927.63950	0.66471
925.71094	0.67090
923.78237	0.67704
921.85381	0.68354
919.92524	0.69088
917.99668	0.69870
916.06812	0.70617
914.13955	0.71299
912.21099	0.72007
910.28242	0.72800
908.35386	0.73625
906.42529	0.74506
904.49673	0.75471
902.56816	0.76415
900.63960	0.77320
898.71104	0.78254
896.78247	0.79202
894.85391	0.80179
892.92534	0.81195
890.99678	0.82155
889.06821	0.83107
887.13965	0.84214
885.21108	0.85439
883.28252	0.86659
881.35396	0.87825
879.42539	0.88961
877.49683	0.90063
875.56826	0.91132
873.63970	0.92188
871.71113	0.93233
869.78257	0.94307
867.85400	0.95424
865.92544	0.96579
863.99687	0.97782
862.06831	0.99060
860.13975	1.00400
858.21118	1.01702
856.28262	1.02912
854.35405	1.04072
852.42549	1.05150
850.49692	1.06171
848.56836	1.07236
846.63979	1.08299
844.71123	1.09520
842.78267	1.11052
840.85410	1.12539
838.92554	1.13608
836.99697	1.14310
835.06841	1.15008
833.13984	1.16082
831.21128	1.17534
829.28271	1.19126
827.35415	1.20774
825.42559	1.22386
823.49702	1.23741
821.56846	1.24665
819.63989	1.25795
817.71133	1.27541
815.78276	1.28937
813.85420	1.29623
811.92563	1.29796
809.99707	1.29959
808.06851	1.31205
806.13994	1.33050
804.21138	1.34868
802.28281	1.36987
800.35425	1.37405
798.42568	1.36689
796.49712	1.38239
794.56855	1.39365
792.63999	1.37197
790.71143	1.36081
788.78286	1.39436
786.85430	1.46129
784.92573	1.53099
782.99717	1.59054
781.06860	1.60605
779.14004	1.55711
777.21147	1.50475
775.28291	1.51160
773.35435	1.59079
771.42578	1.60784
769.49722	1.42991
767.56865	1.34448
765.64009	1.38633
763.71152	1.41201
761.78296	1.39869
759.85439	1.45231
757.92583	1.54070
755.99727	1.71152
754.06870	1.96605
752.14014	1.57154
750.21157	1.30386
748.28301	1.20946
746.35444	1.17143
744.42588	1.13633
742.49731	1.10995
740.56875	1.01055
738.64019	0.84088
736.71162	0.75003
734.78306	0.77243
732.85449	0.85760
730.92593	0.95712
728.99736	0.96384
727.06880	0.68905
725.14023	0.46388
723.21167	0.36665
721.28311	0.30625
719.35454	0.30592
717.42598	0.36307
715.49741	0.15201
713.56885	-0.13633
711.64028	-0.19448
709.71172	-0.27904
707.78315	-0.27986
705.85459	-0.08932
703.92603	0.07541
701.99746	0.20183
700.06890	0.38350
698.14033	0.44633
696.21177	0.36973
694.28320	0.39809
692.35464	0.44473
690.42607	0.35984
688.49751	0.24501
686.56895	0.18486
684.64038	0.19596
682.71182	0.27622
680.78325	0.36324
678.85469	0.39915
676.92612	0.38974
674.99756	0.30340
673.06899	0.19248
671.14043	0.14454
669.21187	0.22322
667.28330	0.37277
665.35474	0.48928
663.42617	0.45082
661.49761	0.34034
659.56904	0.31136
657.64048	0.30302
655.71191	0.25508
653.78335	0.24269
651.85479	0.30103
649.92622	0.33505
647.99766	0.30148
646.06909	0.26270
644.14053	0.25048
642.21196	0.21814
640.28340	0.16760
638.35483	0.18023
636.42627	0.25697
634.49771	0.33766
632.56914	0.32917
630.64058	0.25712
628.71201	0.19881
626.78345	0.23272
624.85488	0.35711
622.92632	0.38742
620.99775	0.26653
619.06919	0.19862
617.14062	0.21864
615.21206	0.24425
613.28350	0.26634
611.35493	0.30195
609.42637	0.31564
607.49780	0.33342
605.56924	0.42032
603.64067	0.48406
601.71211	0.27498
599.78354	0.14665
597.85498	0.16253
595.92642	0.18294
593.99785	0.16396
592.06929	0.17440
590.14072	0.21855
588.21216	0.23099
586.28359	0.17741
584.35503	0.14182
582.42646	0.19946
580.49790	0.34884
578.56934	0.46844
576.64077	0.36018
574.71221	0.28900
572.78364	0.32460
570.85508	0.38878
568.92651	0.30636
566.99795	0.20656
565.06938	0.18020
563.14082	0.19813
561.21226	0.20246
559.28369	0.16924
557.35513	0.14601
555.42656	0.17997
553.49800	0.25679
551.56943	0.35437
549.64087	0.43622
547.71230	0.40852
545.78374	0.34013
543.85518	0.33182
541.92661	0.34913
539.99805	0.29567
538.06948	0.25358
536.14092	0.23022
534.21235	0.17706
532.28379	0.13190
530.35522	0.13149
528.42666	0.13693
526.49810	0.10380
524.56953	0.08827
522.64097	0.11900
520.71240	0.16968
518.78384	0.23734
516.85527	0.34264
514.92671	0.39646
512.99814	0.28843
511.06958	0.17777
509.14102	0.12400
507.21245	0.11632
505.28389	0.14720
503.35532	0.18278
501.42676	0.19502
499.49819	0.18049
