3997.91411	0.08840
3995.98555	0.08870
3994.05698	0.08926
3992.12842	0.08982
3990.19985	0.09030
3988.27129	0.09102
3986.34272	0.09155
3984.41416	0.09170
3982.48560	0.09165
3980.55703	0.09172
3978.62847	0.09205
3976.69990	0.09231
3974.77134	0.09242
3972.84277	0.09245
3970.91421	0.09248
3968.98564	0.09261
3967.05708	0.09298
3965.12852	0.09348
3963.19995	0.09396
3961.27139	0.09429
3959.34282	0.09411
3957.41426	0.09361
3955.48569	0.09351
3953.55713	0.09397
3951.62856	0.09460
3949.70000	0.09506
3947.77144	0.09520
3945.84287	0.09514
3943.91431	0.09528
3941.98574	0.09550
3940.05718	0.09523
3938.12861	0.09469
3936.20005	0.09443
3934.27148	0.09468
3932.34292	0.09558
3930.41436	0.09635
3928.48579	0.09588
3926.55723	0.09508
3924.62866	0.09528
3922.70010	0.09581
3920.77153	0.09572
3918.84297	0.09558
3916.91440	0.09551
3914.98584	0.09480
3913.05728	0.09372
3911.12871	0.09311
3909.20015	0.09314
3907.27158	0.09412
3905.34302	0.09639
3903.41445	0.09882
3901.48589	0.09929
3899.55732	0.09800
3897.62876	0.09630
3895.70020	0.09511
3893.77163	0.09514
3891.84307	0.09607
3889.91450	0.09643
3887.98594	0.09581
3886.05737	0.09561
3884.12881	0.09636
3882.20024	0.09722
3880.27168	0.09740
3878.34312	0.09646
3876.41455	0.09564
3874.48599	0.09631
3872.55742	0.09809
3870.62886	0.09993
3868.70029	0.10072
3866.77173	0.10018
3864.84316	0.10056
3862.91460	0.10180
3860.98604	0.10136
3859.05747	0.10002
3857.12891	0.10027
3855.20034	0.10281
3853.27178	0.10652
3851.34321	0.10706
3849.41465	0.10430
3847.48608	0.10231
3845.55752	0.10193
3843.62896	0.10318
3841.70039	0.10556
3839.77183	0.10818
3837.84326	0.11014
3835.91470	0.11041
3833.98613	0.10953
3832.05757	0.10859
3830.12900	0.10804
3828.20044	0.10824
3826.27187	0.10922
3824.34331	0.11043
3822.41475	0.11231
3820.48618	0.11558
3818.55762	0.11753
3816.62905	0.11725
3814.70049	0.11631
3812.77192	0.11513
3810.84336	0.11487
3808.91479	0.11620
3806.98623	0.11902
3805.05767	0.12186
3803.12910	0.12359
3801.20054	0.12518
3799.27197	0.12621
3797.34341	0.12632
3795.41484	0.12627
3793.48628	0.12609
3791.55771	0.12628
3789.62915	0.12708
3787.70059	0.12831
3785.77202	0.13030
3783.84346	0.13271
3781.91489	0.13470
3779.98633	0.13660
3778.05776	0.13828
3776.12920	0.13912
3774.20063	0.13997
3772.27207	0.14170
3770.34351	0.14459
3768.41494	0.14782
3766.48638	0.14995
3764.55781	0.15132
3762.62925	0.15254
3760.70068	0.15466
3758.77212	0.15836
3756.84355	0.16211
3754.91499	0.16487
3752.98643	0.16835
3751.05786	0.17382
3749.12930	0.17869
3747.20073	0.18030
3745.27217	0.18221
3743.34360	0.18611
3741.41504	0.19002
3739.48647	0.19362
3737.55791	0.19856
3735.62935	0.20603
3733.70078	0.21377
3731.77222	0.21742
3729.84365	0.21966
3727.91509	0.22367
3725.98652	0.23001
3724.05796	0.23719
3722.12939	0.24337
3720.20083	0.24874
3718.27227	0.25385
3716.34370	0.25947
3714.41514	0.26653
3712.48657	0.27694
3710.55801	0.29233
3708.62944	0.30735
3706.70088	0.31818
3704.77231	0.32884
3702.84375	0.34261
3700.91519	0.36084
3698.98662	0.37980
3697.05806	0.39693
3695.12949	0.41518
3693.20093	0.43516
3691.27236	0.45767
3689.34380	0.48718
3687.41523	0.52198
3685.48667	0.55076
3683.55811	0.57582
3681.62954	0.60387
3679.70098	0.63624
3677.77241	0.67057
3675.84385	0.71110
3673.91528	0.76553
3671.98672	0.80936
3670.05815	0.84861
3668.12959	0.90298
3666.20103	0.95139
3664.27246	0.99138
3662.34390	1.03495
3660.41533	1.08257
3658.48677	1.12961
3656.55820	1.17954
3654.62964	1.23514
3652.70107	1.28190
3650.77251	1.32333
3648.84395	1.38197
3646.91538	1.45328
3644.98682	1.50303
3643.05825	1.54119
3641.12969	1.58082
3639.20112	1.62459
3637.27256	1.66934
3635.34399	1.71350
3633.41543	1.75798
3631.48687	1.80013
3629.55830	1.84278
3627.62974	1.89879
3625.70117	1.95031
3623.77261	1.98383
3621.84404	2.01580
3619.91548	2.05317
3617.98691	2.09943
3616.05835	2.14380
3614.12979	2.18044
3612.20122	2.21927
3610.27266	2.25873
3608.34409	2.29968
3606.41553	2.34434
3604.48696	2.38519
3602.55840	2.42136
3600.62983	2.46103
3598.70127	2.50338
3596.77271	2.54303
3594.84414	2.58272
3592.91558	2.62298
3590.98701	2.65998
3589.05845	2.69515
3587.12988	2.74006
3585.20132	2.79218
3583.27275	2.83445
3581.34419	2.87051
3579.41562	2.90913
3577.48706	2.95127
3575.55850	2.99559
3573.62993	3.04207
3571.70137	3.08544
3569.77280	3.12498
3567.84424	3.16829
3565.91567	3.22353
3563.98711	3.27615
3562.05854	3.31612
3560.12998	3.35535
3558.20142	3.39833
3556.27285	3.44307
3554.34429	3.48788
3552.41572	3.53558
3550.48716	3.58440
3548.55859	3.62910
3546.63003	3.67307
3544.70146	3.72187
3542.77290	3.77201
3540.84434	3.81800
3538.91577	3.86153
3536.98721	3.90765
3535.05864	3.95779
3533.13008	4.00600
3531.20151	4.05245
3529.27295	4.10184
3527.34438	4.15418
3525.41582	4.20368
3523.48726	4.24894
3521.55869	4.29413
3519.63013	4.34032
3517.70156	4.38939
3515.77300	4.43890
3513.84443	4.48592
3511.91587	4.53332
3509.98730	4.58488
3508.05874	4.64080
3506.13018	4.69309
3504.20161	4.73658
3502.27305	4.77890
3500.34448	4.82714
3498.41592	4.87848
3496.48735	4.93005
3494.55879	4.98097
3492.63022	5.02932
3490.70166	5.07573
3488.77310	5.12311
3486.84453	5.17103
3484.91597	5.22042
3482.98740	5.27037
3481.05884	5.31646
3479.13027	5.36159
3477.20171	5.41300
3475.27314	5.46788
3473.34458	5.52000
3471.41602	5.56853
3469.48745	5.61411
3467.55889	5.65935
3465.63032	5.70309
3463.70176	5.74726
3461.77319	5.79973
3459.84463	5.86236
3457.91606	5.92251
3455.98750	5.97724
3454.05894	6.03795
3452.13037	6.09161
3450.20181	6.12326
3448.27324	6.14979
3446.34468	6.19358
3444.41611	6.25597
3442.48755	6.33041
3440.55898	6.40323
3438.63042	6.45651
3436.70186	6.48906
3434.77329	6.52245
3432.84473	6.57103
3430.91616	6.61563
3428.98760	6.64873
3427.05903	6.68080
3425.13047	6.72617
3423.20190	6.79539
3421.27334	6.87582
3419.34478	6.93690
3417.41621	6.97552
3415.48765	7.01363
3413.55908	7.04681
3411.63052	7.05947
3409.70195	7.07378
3407.77339	7.12450
3405.84482	7.18759
3403.91626	7.24348
3401.98770	7.29816
3400.05913	7.35672
3398.13057	7.39533
3396.20200	7.38988
3394.27344	7.40472
3392.34487	7.46702
3390.41631	7.53257
3388.48774	7.57333
3386.55918	7.60629
3384.63062	7.64373
3382.70205	7.68393
3380.77349	7.72399
3378.84492	7.77571
3376.91636	7.82206
3374.98779	7.81585
3373.05923	7.82062
3371.13066	7.84978
3369.20210	7.84544
3367.27354	7.83317
3365.34497	7.86178
3363.41641	7.88508
3361.48784	7.87037
3359.55928	7.88981
3357.63071	7.94473
3355.70215	8.01969
3353.77358	8.10721
3351.84502	8.13567
3349.91646	8.08023
3347.98789	8.04567
3346.05933	8.07958
3344.13076	8.11179
3342.20220	8.11563
3340.27363	8.15886
3338.34507	8.26669
3336.41650	8.29474
3334.48794	8.24413
3332.55937	8.23582
3330.63081	8.22908
3328.70225	8.21478
3326.77368	8.20857
3324.84512	8.14957
3322.91655	8.08719
3320.98799	8.12087
3319.05942	8.19791
3317.13086	8.22345
3315.20229	8.18820
3313.27373	8.17228
3311.34517	8.21762
3309.41660	8.28421
3307.48804	8.33728
3305.55947	8.37128
3303.63091	8.39941
3301.70234	8.41936
3299.77378	8.39892
3297.84521	8.32399
3295.91665	8.30821
3293.98809	8.37385
3292.05952	8.40741
3290.13096	8.43017
3288.20239	8.52495
3286.27383	8.61545
3284.34526	8.57217
3282.41670	8.50061
3280.48813	8.48052
3278.55957	8.38882
3276.63101	8.22970
3274.70244	8.17292
3272.77388	8.22247
3270.84531	8.28109
3268.91675	8.33458
3266.98818	8.35104
3265.05962	8.33111
3263.13105	8.32420
3261.20249	8.31674
3259.27393	8.25686
3257.34536	8.18068
3255.41680	8.19640
3253.48823	8.35344
3251.55967	8.52687
3249.63110	8.53806
3247.70254	8.49780
3245.77397	8.50103
3243.84541	8.45032
3241.91685	8.34682
3239.98828	8.26846
3238.05972	8.20594
3236.13115	8.16997
3234.20259	8.21725
3232.27402	8.29521
3230.34546	8.29300
3228.41689	8.26246
3226.48833	8.25928
3224.55977	8.19274
3222.63120	8.07715
3220.70264	8.04318
3218.77407	8.11475
3216.84551	8.18812
3214.91694	8.19229
3212.98838	8.13530
3211.05981	8.05721
3209.13125	8.02724
3207.20269	8.01290
3205.27412	7.93791
3203.34556	7.86638
3201.41699	7.86400
3199.48843	7.87885
3197.55986	7.86299
3195.63130	7.82979
3193.70273	7.79929
3191.77417	7.77227
3189.84561	7.73881
3187.91704	7.69110
3185.98848	7.62727
3184.05991	7.56600
3182.13135	7.50586
3180.20278	7.42331
3178.27422	7.33084
3176.34565	7.25435
3174.41709	7.19038
3172.48853	7.13349
3170.55996	7.08521
3168.63140	7.03748
3166.70283	6.98479
3164.77427	6.92995
3162.84570	6.87163
3160.91714	6.80173
3158.98857	6.73989
3157.06001	6.71182
3155.13145	6.68521
3153.20288	6.62143
3151.27432	6.54240
3149.34575	6.46838
3147.41719	6.39700
3145.48862	6.32081
3143.56006	6.23078
3141.63149	6.14467
3139.70293	6.07696
3137.77437	6.01228
3135.84580	5.93560
3133.91724	5.85145
3131.98867	5.77202
3130.06011	5.69956
3128.13154	5.62740
3126.20298	5.55974
3124.27441	5.50070
3122.34585	5.43363
3120.41729	5.35552
3118.48872	5.28310
3116.56016	5.22107
3114.63159	5.15900
3112.70303	5.08985
3110.77446	5.01924
3108.84590	4.94888
3106.91733	4.87541
3104.98877	4.80339
3103.06021	4.74013
3101.13164	4.67751
3099.20308	4.60321
3097.27451	4.52887
3095.34595	4.46527
3093.41738	4.40018
3091.48882	4.32917
3089.56025	4.26110
3087.63169	4.19531
3085.70312	4.12933
3083.77456	4.06812
3081.84600	4.01147
3079.91743	3.95176
3077.98887	3.88772
3076.06030	3.82459
3074.13174	3.76437
3072.20317	3.70604
3070.27461	3.64864
3068.34604	3.59170
3066.41748	3.53555
3064.48892	3.47966
3062.56035	3.42351
3060.63179	3.36924
3058.70322	3.31573
3056.77466	3.26002
3054.84609	3.20328
3052.91753	3.14840
3050.98896	3.09758
3049.06040	3.04947
3047.13184	3.00026
3045.20327	2.94851
3043.27471	2.89689
3041.34614	2.84843
3039.41758	2.80198
3037.48901	2.75560
3035.56045	2.70991
3033.63188	2.66488
3031.70332	2.61935
3029.77476	2.57398
3027.84619	2.52977
3025.91763	2.48643
3023.98906	2.44368
3022.06050	2.40114
3020.13193	2.35890
3018.20337	2.31775
3016.27480	2.27764
3014.34624	2.23849
3012.41768	2.20026
3010.48911	2.16210
3008.56055	2.12399
3006.63198	2.08705
3004.70342	2.05134
3002.77485	2.01581
3000.84629	1.98057
2998.91772	1.94643
2996.98916	1.91316
2995.06060	1.88033
2993.13203	1.84787
2991.20347	1.81545
2989.27490	1.78316
2987.34634	1.75214
2985.41777	1.72270
2983.48921	1.69365
2981.56064	1.66420
2979.63208	1.63442
2977.70352	1.60500
2975.77495	1.57653
2973.84639	1.54887
2971.91782	1.52176
2969.98926	1.49446
2968.06069	1.46670
2966.13213	1.43959
2964.20356	1.41295
2962.27500	1.38610
2960.34644	1.35998
2958.41787	1.33507
2956.48931	1.31084
2954.56074	1.28706
2952.63218	1.26379
2950.70361	1.24105
2948.77505	1.21885
2946.84648	1.19703
2944.91792	1.17512
2942.98936	1.15284
2941.06079	1.12992
2939.13223	1.10609
2937.20366	1.08176
2935.27510	1.05797
2933.34653	1.03482
2931.41797	1.01143
2929.48940	0.98777
2927.56084	0.96417
2925.63228	0.94096
2923.70371	0.91837
2921.77515	0.89660
2919.84658	0.87670
2917.91802	0.85960
2915.98945	0.84615
2914.06089	0.83705
2912.13232	0.83089
2910.20376	0.82485
2908.27520	0.81700
2906.34663	0.80712
2904.41807	0.79598
2902.48950	0.78445
2900.56094	0.77267
2898.63237	0.76068
2896.70381	0.74893
2894.77524	0.73777
2892.84668	0.72702
2890.91812	0.71645
2888.98955	0.70613
2887.06099	0.69597
2885.13242	0.68603
2883.20386	0.67627
2881.27529	0.66633
2879.34673	0.65606
2877.41816	0.64544
2875.48960	0.63471
2873.56104	0.62404
2871.63247	0.61311
2869.70391	0.60184
2867.77534	0.59061
2865.84678	0.57919
2863.91821	0.56714
2861.98965	0.55450
2860.06108	0.54146
2858.13252	0.52806
2856.20396	0.51410
2854.27539	0.49990
2852.34683	0.48646
2850.41826	0.47528
2848.48970	0.46862
2846.56113	0.46741
2844.63257	0.46897
2842.70400	0.46971
2840.77544	0.46828
2838.84687	0.46509
2836.91831	0.46090
2834.98975	0.45627
2833.06118	0.45139
2831.13262	0.44601
2829.20405	0.44017
2827.27549	0.43435
2825.34692	0.42874
2823.41836	0.42323
2821.48979	0.41763
2819.56123	0.41193
2817.63267	0.40635
2815.70410	0.40089
2813.77554	0.39555
2811.84697	0.39038
2809.91841	0.38531
2807.98984	0.38021
2806.06128	0.37508
2804.13271	0.36990
2802.20415	0.36466
2800.27559	0.35955
2798.34702	0.35471
2796.41846	0.35002
2794.48989	0.34524
2792.56133	0.34058
2790.63276	0.33624
2788.70420	0.33212
2786.77563	0.32802
2784.84707	0.32389
2782.91851	0.31981
2780.98994	0.31596
2779.06138	0.31232
2777.13281	0.30862
2775.20425	0.30475
2773.27568	0.30078
2771.34712	0.29689
2769.41855	0.29329
2767.48999	0.28991
2765.56143	0.28660
2763.63286	0.28339
2761.70430	0.28010
2759.77573	0.27659
2757.84717	0.27314
2755.91860	0.27002
2753.99004	0.26718
2752.06147	0.26438
2750.13291	0.26140
2748.20435	0.25851
2746.27578	0.25580
2744.34722	0.25303
2742.41865	0.25035
2740.49009	0.24786
2738.56152	0.24544
2736.63296	0.24305
2734.70439	0.24059
2732.77583	0.23802
2730.84727	0.23553
2728.91870	0.23324
2726.99014	0.23114
2725.06157	0.22911
2723.13301	0.22702
2721.20444	0.22501
2719.27588	0.22310
2717.34731	0.22112
2715.41875	0.21900
2713.49019	0.21704
2711.56162	0.21538
2709.63306	0.21377
2707.70449	0.21210
2705.77593	0.21047
2703.84736	0.20892
2701.91880	0.20746
2699.99023	0.20606
2698.06167	0.20470
2696.13311	0.20324
2694.20454	0.20170
2692.27598	0.20019
2690.34741	0.19870
2688.41885	0.19730
2686.49028	0.19601
2684.56172	0.19472
2682.63315	0.19358
2680.70459	0.19267
2678.77603	0.19153
2676.84746	0.19013
2674.91890	0.18891
2672.99033	0.18791
2671.06177	0.18692
2669.13320	0.18585
2667.20464	0.18487
2665.27607	0.18401
2663.34751	0.18312
2661.41895	0.18216
2659.49038	0.18130
2657.56182	0.18059
2655.63325	0.17988
2653.70469	0.17898
2651.77612	0.17809
2649.84756	0.17754
2647.91899	0.17713
2645.99043	0.17646
2644.06187	0.17573
2642.13330	0.17525
2640.20474	0.17490
2638.27617	0.17449
2636.34761	0.17400
2634.41904	0.17355
2632.49048	0.17325
2630.56191	0.17298
2628.63335	0.17255
2626.70479	0.17210
2624.77622	0.17179
2622.84766	0.17151
2620.91909	0.17128
2618.99053	0.17118
2617.06196	0.17102
2615.13340	0.17072
2613.20483	0.17043
2611.27627	0.17022
2609.34771	0.17015
2607.41914	0.17028
2605.49058	0.17035
2603.56201	0.17029
2601.63345	0.17038
2599.70488	0.17052
2597.77632	0.17047
2595.84775	0.17042
2593.91919	0.17050
2591.99062	0.17058
2590.06206	0.17064
2588.13350	0.17080
2586.20493	0.17103
2584.27637	0.17123
2582.34780	0.17144
2580.41924	0.17173
2578.49067	0.17215
2576.56211	0.17261
2574.63354	0.17297
2572.70498	0.17330
2570.77642	0.17368
2568.84785	0.17409
2566.91929	0.17451
2564.99072	0.17497
2563.06216	0.17542
2561.13359	0.17582
2559.20503	0.17626
2557.27646	0.17676
2555.34790	0.17737
2553.41934	0.17804
2551.49077	0.17865
2549.56221	0.17914
2547.63364	0.17967
2545.70508	0.18030
2543.77651	0.18093
2541.84795	0.18144
2539.91938	0.18190
2537.99082	0.18250
2536.06226	0.18323
2534.13369	0.18399
2532.20513	0.18489
2530.27656	0.18579
2528.34800	0.18643
2526.41943	0.18693
2524.49087	0.18767
2522.56230	0.18860
2520.63374	0.18940
2518.70518	0.19007
2516.77661	0.19069
2514.84805	0.19130
2512.91948	0.19205
2510.99092	0.19294
2509.06235	0.19382
2507.13379	0.19469
2505.20522	0.19552
2503.27666	0.19630
2501.34810	0.19720
2499.41953	0.19814
2497.49097	0.19893
2495.56240	0.19970
2493.63384	0.20063
2491.70527	0.20159
2489.77671	0.20248
2487.84814	0.20345
2485.91958	0.20447
2483.99102	0.20533
2482.06245	0.20610
2480.13389	0.20695
2478.20532	0.20784
2476.27676	0.20871
2474.34819	0.20960
2472.41963	0.21052
2470.49106	0.21152
2468.56250	0.21254
2466.63394	0.21348
2464.70537	0.21446
2462.77681	0.21547
2460.84824	0.21640
2458.91968	0.21731
2456.99111	0.21830
2455.06255	0.21929
2453.13398	0.22017
2451.20542	0.22095
2449.27686	0.22189
2447.34829	0.22309
2445.41973	0.22419
2443.49116	0.22513
2441.56260	0.22611
2439.63403	0.22713
2437.70547	0.22815
2435.77690	0.22930
2433.84834	0.23055
2431.91978	0.23164
2429.99121	0.23259
2428.06265	0.23359
2426.13408	0.23462
2424.20552	0.23568
2422.27695	0.23686
2420.34839	0.23805
2418.41982	0.23910
2416.49126	0.24012
2414.56270	0.24125
2412.63413	0.24254
2410.70557	0.24380
2408.77700	0.24493
2406.84844	0.24611
2404.91987	0.24735
2402.99131	0.24858
2401.06274	0.24982
2399.13418	0.25107
2397.20562	0.25234
2395.27705	0.25356
2393.34849	0.25474
2391.41992	0.25609
2389.49136	0.25764
2387.56279	0.25959
2385.63423	0.26233
2383.70566	0.26612
2381.77710	0.27098
2379.84854	0.27677
2377.91997	0.28337
2375.99141	0.29090
2374.06284	0.29974
2372.13428	0.31001
2370.20571	0.32088
2368.27715	0.33133
2366.34858	0.34096
2364.42002	0.34948
2362.49146	0.35636
2360.56289	0.36101
2358.63433	0.36264
2356.70576	0.36035
2354.77720	0.35438
2352.84863	0.34608
2350.92007	0.33678
2348.99150	0.33060
2347.06294	0.33102
2345.13437	0.33867
2343.20581	0.34925
2341.27725	0.35541
2339.34868	0.35662
2337.42012	0.35638
2335.49155	0.35651
2333.56299	0.35669
2331.63442	0.35674
2329.70586	0.35652
2327.77729	0.35610
2325.84873	0.35530
2323.92017	0.35385
2321.99160	0.35171
2320.06304	0.34891
2318.13447	0.34600
2316.20591	0.34402
2314.27734	0.34338
2312.34878	0.34353
2310.42021	0.34354
2308.49165	0.34287
2306.56309	0.34176
2304.63452	0.34089
2302.70596	0.34070
2300.77739	0.34098
2298.84883	0.34153
2296.92026	0.34241
2294.99170	0.34345
2293.06313	0.34438
2291.13457	0.34520
2289.20601	0.34606
2287.27744	0.34695
2285.34888	0.34787
2283.42031	0.34916
2281.49175	0.35092
2279.56318	0.35302
2277.63462	0.35533
2275.70605	0.35775
2273.77749	0.36005
2271.84893	0.36216
2269.92036	0.36417
2267.99180	0.36616
2266.06323	0.36826
2264.13467	0.37044
2262.20610	0.37248
2260.27754	0.37434
2258.34897	0.37619
2256.42041	0.37815
2254.49185	0.38023
2252.56328	0.38234
2250.63472	0.38442
2248.70615	0.38645
2246.77759	0.38853
2244.84902	0.39076
2242.92046	0.39307
2240.99189	0.39534
2239.06333	0.39740
2237.13477	0.39935
2235.20620	0.40139
2233.27764	0.40361
2231.34907	0.40592
2229.42051	0.40818
2227.49194	0.41036
2225.56338	0.41262
2223.63481	0.41491
2221.70625	0.41711
2219.77769	0.41926
2217.84912	0.42140
2215.92056	0.42352
2213.99199	0.42563
2212.06343	0.42782
2210.13486	0.43005
2208.20630	0.43221
2206.27773	0.43434
2204.34917	0.43648
2202.42061	0.43858
2200.49204	0.44069
2198.56348	0.44280
2196.63491	0.44479
2194.70635	0.44667
2192.77778	0.44862
2190.84922	0.45062
2188.92065	0.45245
2186.99209	0.45413
2185.06353	0.45586
2183.13496	0.45770
2181.20640	0.45955
2179.27783	0.46119
2177.34927	0.46262
2175.42070	0.46404
2173.49214	0.46555
2171.56357	0.46710
2169.63501	0.46860
2167.70645	0.46997
2165.77788	0.47129
2163.84932	0.47257
2161.92075	0.47368
2159.99219	0.47462
2158.06362	0.47561
2156.13506	0.47674
2154.20649	0.47781
2152.27793	0.47862
2150.34937	0.47926
2148.42080	0.47991
2146.49224	0.48054
2144.56367	0.48099
2142.63511	0.48126
2140.70654	0.48152
2138.77798	0.48188
2136.84941	0.48214
2134.92085	0.48218
2132.99229	0.48211
2131.06372	0.48205
2129.13516	0.48199
2127.20659	0.48186
2125.27803	0.48158
2123.34946	0.48109
2121.42090	0.48049
2119.49233	0.47986
2117.56377	0.47918
2115.63521	0.47844
2113.70664	0.47766
2111.77808	0.47686
2109.84951	0.47603
2107.92095	0.47513
2105.99238	0.47407
2104.06382	0.47283
2102.13525	0.47148
2100.20669	0.47010
2098.27812	0.46870
2096.34956	0.46727
2094.42100	0.46572
2092.49243	0.46408
2090.56387	0.46245
2088.63530	0.46076
2086.70674	0.45890
2084.77817	0.45685
2082.84961	0.45483
2080.92104	0.45293
2078.99248	0.45096
2077.06392	0.44888
2075.13535	0.44681
2073.20679	0.44465
2071.27822	0.44239
2069.34966	0.44012
2067.42109	0.43789
2065.49253	0.43562
2063.56396	0.43314
2061.63540	0.43059
2059.70684	0.42805
2057.77827	0.42540
2055.84971	0.42270
2053.92114	0.42012
2051.99258	0.41763
2050.06401	0.41505
2048.13545	0.41242
2046.20688	0.40986
2044.27832	0.40735
2042.34976	0.40472
2040.42119	0.40192
2038.49263	0.39899
2036.56406	0.39602
2034.63550	0.39309
2032.70693	0.39025
2030.77837	0.38752
2028.84980	0.38479
2026.92124	0.38199
2024.99268	0.37915
2023.06411	0.37633
2021.13555	0.37358
2019.20698	0.37091
2017.27842	0.36813
2015.34985	0.36514
2013.42129	0.36212
2011.49272	0.35918
2009.56416	0.35639
2007.63560	0.35366
2005.70703	0.35095
2003.77847	0.34826
2001.84990	0.34555
1999.92134	0.34282
1997.99277	0.34015
1996.06421	0.33762
1994.13564	0.33519
1992.20708	0.33271
1990.27852	0.33005
1988.34995	0.32740
1986.42139	0.32479
1984.49282	0.32221
1982.56426	0.31976
1980.63569	0.31733
1978.70713	0.31493
1976.77856	0.31259
1974.85000	0.31034
1972.92144	0.30814
1970.99287	0.30606
1969.06431	0.30418
1967.13574	0.30224
1965.20718	0.29996
1963.27861	0.29766
1961.35005	0.29556
1959.42148	0.29355
1957.49292	0.29174
1955.56436	0.29003
1953.63579	0.28821
1951.70723	0.28638
1949.77866	0.28463
1947.85010	0.28296
1945.92153	0.28152
1943.99297	0.28027
1942.06440	0.27877
1940.13584	0.27691
1938.20728	0.27517
1936.27871	0.27376
1934.35015	0.27249
1932.42158	0.27124
1930.49302	0.26990
1928.56445	0.26858
1926.63589	0.26747
1924.70732	0.26672
1922.77876	0.26598
1920.85020	0.26493
1918.92163	0.26397
1916.99307	0.26312
1915.06450	0.26201
1913.13594	0.26084
1911.20737	0.26000
1909.27881	0.25934
1907.35024	0.25865
1905.42168	0.25797
1903.49312	0.25729
1901.56455	0.25650
1899.63599	0.25583
1897.70742	0.25548
1895.77886	0.25524
1893.85029	0.25479
1891.92173	0.25433
1889.99316	0.25421
1888.06460	0.25400
1886.13604	0.25353
1884.20747	0.25316
1882.27891	0.25290
1880.35034	0.25272
1878.42178	0.25256
1876.49321	0.25244
1874.56465	0.25236
1872.63608	0.25248
1870.70752	0.25305
1868.77896	0.25413
1866.85039	0.25452
1864.92183	0.25391
1862.99326	0.25349
1861.06470	0.25357
1859.13613	0.25388
1857.20757	0.25421
1855.27900	0.25461
1853.35044	0.25502
1851.42187	0.25552
1849.49331	0.25621
1847.56475	0.25719
1845.63618	0.25847
1843.70762	0.25966
1841.77905	0.26003
1839.85049	0.26005
1837.92192	0.26069
1835.99336	0.26171
1834.06479	0.26273
1832.13623	0.26390
1830.20767	0.26561
1828.27910	0.26716
1826.35054	0.26805
1824.42197	0.26906
1822.49341	0.26996
1820.56484	0.27087
1818.63628	0.27215
1816.70771	0.27380
1814.77915	0.27550
1812.85059	0.27740
1810.92202	0.27964
1808.99346	0.28173
1807.06489	0.28346
1805.13633	0.28522
1803.20776	0.28761
1801.27920	0.29053
1799.35063	0.29349
1797.42207	0.29593
1795.49351	0.29839
1793.56494	0.30150
1791.63638	0.30523
1789.70781	0.30816
1787.77925	0.31022
1785.85068	0.31314
1783.92212	0.31695
1781.99355	0.32118
1780.06499	0.32558
1778.13643	0.32976
1776.20786	0.33367
1774.27930	0.33817
1772.35073	0.34431
1770.42217	0.35060
1768.49360	0.35548
1766.56504	0.36014
1764.63647	0.36509
1762.70791	0.37080
1760.77935	0.37799
1758.85078	0.38454
1756.92222	0.39106
1754.99365	0.39808
1753.06509	0.40433
1751.13652	0.41205
1749.20796	0.42227
1747.27939	0.43235
1745.35083	0.44101
1743.42227	0.45027
1741.49370	0.46067
1739.56514	0.47334
1737.63657	0.48639
1735.70801	0.49804
1733.77944	0.51591
1731.85088	0.53693
1729.92231	0.55267
1727.99375	0.56845
1726.06519	0.58556
1724.13662	0.60454
1722.20806	0.62512
1720.27949	0.64403
1718.35093	0.66633
1716.42236	0.69956
1714.49380	0.73030
1712.56523	0.75450
1710.63667	0.77823
1708.70811	0.80407
1706.77954	0.83375
1704.85098	0.86964
1702.92241	0.90133
1700.99385	0.93190
1699.06528	0.97829
1697.13672	1.02170
1695.20815	1.06589
1693.27959	1.10775
1691.35103	1.14103
1689.42246	1.18012
1687.49390	1.22156
1685.56533	1.26100
1683.63677	1.32312
1681.70820	1.38798
1679.77964	1.42800
1677.85107	1.46610
1675.92251	1.51022
1673.99395	1.56558
1672.06538	1.61489
1670.13682	1.66339
1668.20825	1.72669
1666.27969	1.77652
1664.35112	1.81820
1662.42256	1.87023
1660.49399	1.92920
1658.56543	1.97554
1656.63687	2.01337
1654.70830	2.04731
1652.77974	2.10220
1650.85117	2.15714
1648.92261	2.17747
1646.99404	2.20488
1645.06548	2.23559
1643.13691	2.25688
1641.20835	2.26972
1639.27979	2.28016
1637.35122	2.28627
1635.42266	2.28680
1633.49409	2.28133
1631.56553	2.27066
1629.63696	2.25710
1627.70840	2.23127
1625.77983	2.20027
1623.85127	2.16112
1621.92271	2.11100
1619.99414	2.06619
1618.06558	2.02405
1616.13701	1.96218
1614.20845	1.89805
1612.27988	1.85072
1610.35132	1.80144
1608.42275	1.74711
1606.49419	1.69322
1604.56562	1.64394
1602.63706	1.59637
1600.70850	1.54939
1598.77993	1.50566
1596.85137	1.46427
1594.92280	1.42385
1592.99424	1.38490
1591.06567	1.34963
1589.13711	1.31668
1587.20854	1.28546
1585.27998	1.25588
1583.35142	1.22813
1581.42285	1.20324
1579.49429	1.18232
1577.56572	1.16342
1575.63716	1.13930
1573.70859	1.11750
1571.78003	1.10364
1569.85146	1.08919
1567.92290	1.07199
1565.99434	1.05833
1564.06577	1.04756
1562.13721	1.03922
1560.20864	1.03369
1558.28008	1.02572
1556.35151	1.01722
1554.42295	1.01147
1552.49438	1.00570
1550.56582	0.99917
1548.63726	0.99152
1546.70869	0.98388
1544.78013	0.97589
1542.85156	0.96657
1540.92300	0.95310
1538.99443	0.93165
1537.06587	0.91666
1535.13730	0.90691
1533.20874	0.89369
1531.28018	0.87927
1529.35161	0.86895
1527.42305	0.85940
1525.49448	0.84935
1523.56592	0.84074
1521.63735	0.83258
1519.70879	0.82366
1517.78022	0.81569
1515.85166	0.80666
1513.92310	0.79755
1511.99453	0.79027
1510.06597	0.78444
1508.13740	0.77913
1506.20884	0.76834
1504.28027	0.75770
1502.35171	0.75209
1500.42314	0.74765
1498.49458	0.74312
1496.56602	0.73747
1494.63745	0.73147
1492.70889	0.72708
1490.78032	0.72381
1488.85176	0.71976
1486.92319	0.71493
1484.99463	0.71068
1483.06606	0.70736
1481.13750	0.70462
1479.20894	0.70224
1477.28037	0.70044
1475.35181	0.69927
1473.42324	0.69814
1471.49468	0.69495
1469.56611	0.69055
1467.63755	0.68729
1465.70898	0.68537
1463.78042	0.68401
1461.85186	0.68283
1459.92329	0.68244
1457.99473	0.68270
1456.06616	0.68161
1454.13760	0.67873
1452.20903	0.67609
1450.28047	0.67367
1448.35190	0.67139
1446.42334	0.66901
1444.49478	0.66664
1442.56621	0.66456
1440.63765	0.66269
1438.70908	0.66094
1436.78052	0.65878
1434.85195	0.65597
1432.92339	0.65360
1430.99482	0.65212
1429.06626	0.65105
1427.13770	0.65004
1425.20913	0.64938
1423.28057	0.64911
1421.35200	0.64888
1419.42344	0.64858
1417.49487	0.64758
1415.56631	0.64571
1413.63774	0.64407
1411.70918	0.64292
1409.78062	0.64218
1407.85205	0.64201
1405.92349	0.64235
1403.99492	0.64234
1402.06636	0.64152
1400.13779	0.64055
1398.20923	0.63956
1396.28066	0.63812
1394.35210	0.63565
1392.42354	0.63241
1390.49497	0.62947
1388.56641	0.62694
1386.63784	0.62405
1384.70928	0.62066
1382.78071	0.61747
1380.85215	0.61468
1378.92358	0.61236
1376.99502	0.61077
1375.06646	0.60988
1373.13789	0.60904
1371.20933	0.60795
1369.28076	0.60704
1367.35220	0.60618
1365.42363	0.60523
1363.49507	0.60433
1361.56650	0.60321
1359.63794	0.60178
1357.70937	0.60037
1355.78081	0.59910
1353.85225	0.59800
1351.92368	0.59703
1349.99512	0.59623
1348.06655	0.59538
1346.13799	0.59429
1344.20942	0.59321
1342.28086	0.59241
1340.35229	0.59190
1338.42373	0.59120
1336.49517	0.59011
1334.56660	0.58921
1332.63804	0.58868
1330.70947	0.58826
1328.78091	0.58781
1326.85234	0.58751
1324.92378	0.58739
1322.99521	0.58731
1321.06665	0.58730
1319.13809	0.58732
1317.20952	0.58706
1315.28096	0.58651
1313.35239	0.58584
1311.42383	0.58496
1309.49526	0.58400
1307.56670	0.58312
1305.63813	0.58225
1303.70957	0.58139
1301.78101	0.58057
1299.85244	0.57964
1297.92388	0.57859
1295.99531	0.57756
1294.06675	0.57657
1292.13818	0.57553
1290.20962	0.57455
1288.28105	0.57364
1286.35249	0.57267
1284.42393	0.57167
1282.49536	0.57061
1280.56680	0.56955
1278.63823	0.56857
1276.70967	0.56758
1274.78110	0.56656
1272.85254	0.56562
1270.92397	0.56492
1268.99541	0.56442
1267.06685	0.56387
1265.13828	0.56312
1263.20972	0.56227
1261.28115	0.56156
1259.35259	0.56106
1257.42402	0.56064
1255.49546	0.56036
1253.56689	0.56027
1251.63833	0.56028
1249.70977	0.56030
1247.78120	0.56023
1245.85264	0.56006
1243.92407	0.55971
1241.99551	0.55898
1240.06694	0.55791
1238.13838	0.55673
1236.20981	0.55552
1234.28125	0.55428
1232.35269	0.55296
1230.42412	0.55155
1228.49556	0.55015
1226.56699	0.54876
1224.63843	0.54728
1222.70986	0.54582
1220.78130	0.54459
1218.85273	0.54351
1216.92417	0.54247
1214.99561	0.54161
1213.06704	0.54089
1211.13848	0.54006
1209.20991	0.53916
1207.28135	0.53844
1205.35278	0.53787
1203.42422	0.53730
1201.49565	0.53666
1199.56709	0.53586
1197.63853	0.53492
1195.70996	0.53400
1193.78140	0.53315
1191.85283	0.53248
1189.92427	0.53192
1187.99570	0.53121
1186.06714	0.53062
1184.13857	0.53052
1182.21001	0.53077
1180.28145	0.53117
1178.35288	0.53177
1176.42432	0.53261
1174.49575	0.53352
1172.56719	0.53427
1170.63862	0.53481
1168.71006	0.53537
1166.78149	0.53601
1164.85293	0.53657
1162.92437	0.53700
1160.99580	0.53733
1159.06724	0.53738
1157.13867	0.53705
1155.21011	0.53643
1153.28154	0.53546
1151.35298	0.53401
1149.42441	0.53201
1147.49585	0.52949
1145.56729	0.52669
1143.63872	0.52399
1141.71016	0.52153
1139.78159	0.51942
1137.85303	0.51779
1135.92446	0.51655
1133.99590	0.51543
1132.06733	0.51438
1130.13877	0.51357
1128.21021	0.51296
1126.28164	0.51238
1124.35308	0.51171
1122.42451	0.51106
1120.49595	0.51080
1118.56738	0.51072
1116.63882	0.51062
1114.71025	0.51095
1112.78169	0.51171
1110.85312	0.51251
1108.92456	0.51326
1106.99600	0.51406
1105.06743	0.51488
1103.13887	0.51593
1101.21030	0.51730
1099.28174	0.51894
1097.35317	0.52101
1095.42461	0.52382
1093.49604	0.52750
1091.56748	0.53198
1089.63892	0.53729
1087.71035	0.54376
1085.78179	0.55152
1083.85322	0.55980
1081.92466	0.56728
1079.99609	0.57288
1078.06753	0.57579
1076.13896	0.57587
1074.21040	0.57336
1072.28184	0.56863
1070.35327	0.56247
1068.42471	0.55569
1066.49614	0.54890
1064.56758	0.54276
1062.63901	0.53753
1060.71045	0.53288
1058.78188	0.52869
1056.85332	0.52485
1054.92476	0.52132
1052.99619	0.51834
1051.06763	0.51598
1049.13906	0.51416
1047.21050	0.51297
1045.28193	0.51238
1043.35337	0.51218
1041.42480	0.51222
1039.49624	0.51228
1037.56768	0.51207
1035.63911	0.51152
1033.71055	0.51086
1031.78198	0.51021
1029.85342	0.50937
1027.92485	0.50823
1025.99629	0.50708
1024.06772	0.50632
1022.13916	0.50602
1020.21060	0.50608
1018.28203	0.50619
1016.35347	0.50616
1014.42490	0.50626
1012.49634	0.50659
1010.56777	0.50698
1008.63921	0.50743
1006.71064	0.50821
1004.78208	0.50954
1002.85352	0.51146
1000.92495	0.51400
998.99639	0.51715
997.06782	0.52088
995.13926	0.52506
993.21069	0.52914
991.28213	0.53250
989.35356	0.53486
987.42500	0.53599
985.49644	0.53610
983.56787	0.53607
981.63931	0.53652
979.71074	0.53748
977.78218	0.53895
975.85361	0.54103
973.92505	0.54359
971.99648	0.54658
970.06792	0.55001
968.13936	0.55365
966.21079	0.55738
964.28223	0.56141
962.35366	0.56595
960.42510	0.57110
958.49653	0.57675
956.56797	0.58259
954.63940	0.58841
952.71084	0.59434
950.78228	0.60052
948.85371	0.60694
946.92515	0.61323
944.99658	0.61917
943.06802	0.62510
941.13945	0.63121
939.21089	0.63728
937.28232	0.64321
935.35376	0.64877
933.42520	0.65394
931.49663	0.65918
929.56807	0.66469
927.63950	0.67070
925.71094	0.67740
923.78237	0.68422
921.85381	0.69050
919.92524	0.69633
917.99668	0.70251
916.06812	0.70948
914.13955	0.71718
912.21099	0.72519
910.28242	0.73307
908.35386	0.74107
906.42529	0.74987
904.49673	0.75981
902.56816	0.76956
900.63960	0.77778
898.71104	0.78566
896.78247	0.79468
894.85391	0.80461
892.92534	0.81472
890.99678	0.82545
889.06821	0.83757
887.13965	0.84953
885.21108	0.85941
883.28252	0.86859
881.35396	0.87930
879.42539	0.89178
877.49683	0.90501
875.56826	0.91729
873.63970	0.92819
871.71113	0.93908
869.78257	0.95082
867.85400	0.96305
865.92544	0.97510
863.99687	0.98593
862.06831	0.99551
860.13975	1.00573
858.21118	1.01778
856.28262	1.03060
854.35405	1.04287
852.42549	1.05422
850.49692	1.06567
848.56836	1.07745
846.63979	1.08807
844.71123	1.09751
842.78267	1.10783
840.85410	1.11961
838.92554	1.13073
836.99697	1.14197
835.06841	1.15652
833.13984	1.17344
831.21128	1.18785
829.28271	1.19459
827.35415	1.19517
825.42559	1.19762
823.49702	1.20428
821.56846	1.21154
819.63989	1.22304
817.71133	1.24144
815.78276	1.26021
813.85420	1.27537
811.92563	1.28867
809.99707	1.29911
808.06851	1.30257
806.13994	1.30644
804.21138	1.32125
802.28281	1.33809
800.35425	1.34154
798.42568	1.34099
796.49712	1.34572
794.56855	1.35723
792.63999	1.38198
790.71143	1.39818
788.78286	1.39590
786.85430	1.39119
784.92573	1.37186
782.99717	1.35002
781.06860	1.38483
779.14004	1.44984
777.21147	1.43276
775.28291	1.40516
773.35435	1.42061
771.42578	1.41774
769.49722	1.37575
767.56865	1.35164
765.64009	1.44175
763.71152	1.63190
761.78296	1.59360
759.85439	1.42859
757.92583	1.32898
755.99727	1.30421
754.06870	1.38954
752.14014	1.54648
750.21157	1.43959
748.28301	1.16449
746.35444	1.03652
744.42588	1.03560
742.49731	1.05277
740.56875	1.04248
738.64019	0.98915
736.71162	0.88278
734.78306	0.78766
732.85449	0.72323
730.92593	0.67729
728.99736	0.64805
727.06880	0.58202
725.14023	0.39538
723.21167	0.22633
721.28311	0.18732
719.35454	0.06906
717.42598	-0.29665
715.49741	-0.32981
713.56885	-0.24154
711.64028	-0.23179
709.71172	-0.34230
707.78315	-0.18066
705.85459	0.15390
703.92603	0.40176
701.99746	0.41468
700.06890	0.39856
698.14033	0.40877
696.21177	0.43141
694.28320	0.51751
692.35464	0.78222
690.42607	1.14082
688.49751	0.68841
686.56895	0.49069
684.64038	0.47912
682.71182	0.56510
680.78325	0.63312
678.85469	0.54729
676.92612	0.42702
674.99756	0.33868
673.06899	0.30754
671.14043	0.34603
669.21187	0.37801
667.28330	0.35956
665.35474	0.33936
663.42617	0.35424
661.49761	0.35924
659.56904	0.35119
657.64048	0.36638
655.71191	0.35306
653.78335	0.31326
651.85479	0.33189
649.92622	0.38927
647.99766	0.50547
646.06909	0.60846
644.14053	0.46235
642.21196	0.37356
640.28340	0.34647
638.35483	0.26988
636.42627	0.26729
634.49771	0.38496
632.56914	0.45746
630.64058	0.34962
628.71201	0.27509
626.78345	0.36839
624.85488	0.49756
622.92632	0.49963
620.99775	0.49272
619.06919	0.52049
617.14062	0.47836
615.21206	0.40516
613.28350	0.38995
611.35493	0.41725
609.42637	0.46049
607.49780	0.43464
605.56924	0.35246
603.64067	0.31401
601.71211	0.30899
599.78354	0.33504
597.85498	0.38504
595.92642	0.40021
593.99785	0.38139
592.06929	0.36357
590.14072	0.38792
588.21216	0.45607
586.28359	0.45576
584.35503	0.41837
582.42646	0.38613
580.49790	0.30857
578.56934	0.27011
576.64077	0.28373
574.71221	0.28917
572.78364	0.31453
570.85508	0.40085
568.92651	0.50041
566.99795	0.49407
565.06938	0.41085
563.14082	0.38673
561.21226	0.42006
559.28369	0.47569
557.35513	0.43665
555.42656	0.30116
553.49800	0.18967
551.56943	0.13490
549.64087	0.12236
547.71230	0.16593
545.78374	0.23870
543.85518	0.25935
541.92661	0.25408
539.99805	0.29050
538.06948	0.34489
536.14092	0.32622
534.21235	0.31354
532.28379	0.36064
530.35522	0.33398
528.42666	0.27710
526.49810	0.29666
524.56953	0.32174
522.64097	0.33477
520.71240	0.38308
518.78384	0.44615
516.85527	0.47993
514.92671	0.53066
512.99814	0.66277
511.06958	0.87106
509.14102	0.80945
507.21245	0.54812
505.28389	0.47669
503.35532	0.60963
501.42676	0.58345
499.49819	0.31515
