3997.91411	0.07606
3995.98555	0.07688
3994.05698	0.07746
3992.12842	0.07765
3990.19985	0.07810
3988.27129	0.07842
3986.34272	0.07822
3984.41416	0.07815
3982.48560	0.07853
3980.55703	0.07905
3978.62847	0.07942
3976.69990	0.07976
3974.77134	0.08035
3972.84277	0.08089
3970.91421	0.08104
3968.98564	0.08085
3967.05708	0.08048
3965.12852	0.08025
3963.19995	0.08050
3961.27139	0.08117
3959.34282	0.08196
3957.41426	0.08256
3955.48569	0.08261
3953.55713	0.08216
3951.62856	0.08218
3949.70000	0.08325
3947.77144	0.08423
3945.84287	0.08405
3943.91431	0.08413
3941.98574	0.08482
3940.05718	0.08398
3938.12861	0.08230
3936.20005	0.08189
3934.27148	0.08291
3932.34292	0.08444
3930.41436	0.08496
3928.48579	0.08388
3926.55723	0.08318
3924.62866	0.08416
3922.70010	0.08494
3920.77153	0.08416
3918.84297	0.08356
3916.91440	0.08390
3914.98584	0.08351
3913.05728	0.08184
3911.12871	0.08049
3909.20015	0.08031
3907.27158	0.08138
3905.34302	0.08431
3903.41445	0.08868
3901.48589	0.09121
3899.55732	0.09033
3897.62876	0.08736
3895.70020	0.08441
3893.77163	0.08375
3891.84307	0.08554
3889.91450	0.08649
3887.98594	0.08522
3886.05737	0.08527
3884.12881	0.08701
3882.20024	0.08789
3880.27168	0.08793
3878.34312	0.08646
3876.41455	0.08452
3874.48599	0.08528
3872.55742	0.08850
3870.62886	0.09164
3868.70029	0.09261
3866.77173	0.09132
3864.84316	0.09132
3862.91460	0.09216
3860.98604	0.09050
3859.05747	0.08849
3857.12891	0.08903
3855.20034	0.09259
3853.27178	0.09880
3851.34321	0.10071
3849.41465	0.09538
3847.48608	0.09088
3845.55752	0.08980
3843.62896	0.09190
3841.70039	0.09564
3839.77183	0.09987
3837.84326	0.10347
3835.91470	0.10357
3833.98613	0.10132
3832.05757	0.09935
3830.12900	0.09788
3828.20044	0.09761
3826.27187	0.09900
3824.34331	0.10080
3822.41475	0.10349
3820.48618	0.10814
3818.55762	0.10980
3816.62905	0.10803
3814.70049	0.10602
3812.77192	0.10333
3810.84336	0.10170
3808.91479	0.10299
3806.98623	0.10700
3805.05767	0.11075
3803.12910	0.11321
3801.20054	0.11628
3799.27197	0.11721
3797.34341	0.11587
3795.41484	0.11475
3793.48628	0.11306
3791.55771	0.11163
3789.62915	0.11153
3787.70059	0.11283
3785.77202	0.11561
3783.84346	0.11858
3781.91489	0.12059
3779.98633	0.12295
3778.05776	0.12515
3776.12920	0.12522
3774.20063	0.12527
3772.27207	0.12734
3770.34351	0.13132
3768.41494	0.13528
3766.48638	0.13730
3764.55781	0.13833
3762.62925	0.13915
3760.70068	0.14141
3758.77212	0.14585
3756.84355	0.14951
3754.91499	0.15177
3752.98643	0.15637
3751.05786	0.16525
3749.12930	0.17287
3747.20073	0.17352
3745.27217	0.17346
3743.34360	0.17555
3741.41504	0.17734
3739.48647	0.17928
3737.55791	0.18404
3735.62935	0.19250
3733.70078	0.20049
3731.77222	0.20285
3729.84365	0.20297
3727.91509	0.20505
3725.98652	0.21060
3724.05796	0.21813
3722.12939	0.22495
3720.20083	0.23026
3718.27227	0.23465
3716.34370	0.24024
3714.41514	0.24844
3712.48657	0.26102
3710.55801	0.27826
3708.62944	0.29181
3706.70088	0.29963
3704.77231	0.30844
3702.84375	0.32134
3700.91519	0.33886
3698.98662	0.35690
3697.05806	0.37362
3695.12949	0.39233
3693.20093	0.41333
3691.27236	0.43765
3689.34380	0.46897
3687.41523	0.50318
3685.48667	0.52998
3683.55811	0.55334
3681.62954	0.58038
3679.70098	0.61305
3677.77241	0.64900
3675.84385	0.69201
3673.91528	0.74705
3671.98672	0.78861
3670.05815	0.82614
3668.12959	0.87861
3666.20103	0.92421
3664.27246	0.96197
3662.34390	1.00425
3660.41533	1.05168
3658.48677	1.09962
3656.55820	1.15086
3654.62964	1.20672
3652.70107	1.25283
3650.77251	1.29507
3648.84395	1.35628
3646.91538	1.42740
3644.98682	1.47367
3643.05825	1.50880
3641.12969	1.54688
3639.20112	1.58989
3637.27256	1.63384
3635.34399	1.67790
3633.41543	1.72263
3631.48687	1.76460
3629.55830	1.80881
3627.62974	1.86668
3625.70117	1.91500
3623.77261	1.94466
3621.84404	1.97574
3619.91548	2.01437
3617.98691	2.06104
3616.05835	2.10420
3614.12979	2.14065
3612.20122	2.18072
3610.27266	2.22054
3608.34409	2.25957
3606.41553	2.30102
3604.48696	2.33888
3602.55840	2.37290
3600.62983	2.41160
3598.70127	2.45451
3596.77271	2.49533
3594.84414	2.53560
3592.91558	2.57612
3590.98701	2.61351
3589.05845	2.64964
3587.12988	2.69455
3585.20132	2.74269
3583.27275	2.78177
3581.34419	2.81830
3579.41562	2.85843
3577.48706	2.90093
3575.55850	2.94322
3573.62993	2.98593
3571.70137	3.02764
3569.77280	3.06864
3567.84424	3.11235
3565.91567	3.16341
3563.98711	3.21089
3562.05854	3.25029
3560.12998	3.29220
3558.20142	3.33815
3556.27285	3.38429
3554.34429	3.42800
3552.41572	3.47326
3550.48716	3.52113
3548.55859	3.56787
3546.63003	3.61500
3544.70146	3.66508
3542.77290	3.71330
3540.84434	3.75740
3538.91577	3.80110
3536.98721	3.84769
3535.05864	3.89876
3533.13008	3.94768
3531.20151	3.99329
3529.27295	4.03866
3527.34438	4.08510
3525.41582	4.13385
3523.48726	4.18386
3521.55869	4.23561
3519.63013	4.28616
3517.70156	4.33270
3515.77300	4.37523
3513.84443	4.41677
3511.91587	4.46178
3509.98730	4.51307
3508.05874	4.56572
3506.13018	4.61187
3504.20161	4.65588
3502.27305	4.70456
3500.34448	4.75767
3498.41592	4.81029
3496.48735	4.85851
3494.55879	4.90063
3492.63022	4.94069
3490.70166	4.98833
3488.77310	5.04130
3486.84453	5.08884
3484.91597	5.13257
3482.98740	5.17933
3481.05884	5.22795
3479.13027	5.27608
3477.20171	5.32459
3475.27314	5.36970
3473.34458	5.41389
3471.41602	5.46310
3469.48745	5.51124
3467.55889	5.55640
3465.63032	5.60413
3463.70176	5.65042
3461.77319	5.68904
3459.84463	5.73560
3457.91606	5.80374
3455.98750	5.88117
3454.05894	5.93804
3452.13037	5.96539
3450.20181	5.98699
3448.27324	6.01927
3446.34468	6.06732
3444.41611	6.12805
3442.48755	6.20170
3440.55898	6.26846
3438.63042	6.30227
3436.70186	6.32217
3434.77329	6.36977
3432.84473	6.44647
3430.91616	6.50248
3428.98760	6.53564
3427.05903	6.58786
3425.13047	6.65798
3423.20190	6.70127
3421.27334	6.71981
3419.34478	6.76142
3417.41621	6.82786
3415.48765	6.86545
3413.55908	6.86659
3411.63052	6.89272
3409.70195	6.96024
3407.77339	7.05536
3405.84482	7.12556
3403.91626	7.11920
3401.98770	7.08595
3400.05913	7.10675
3398.13057	7.19002
3396.20200	7.27732
3394.27344	7.32248
3392.34487	7.32624
3390.41631	7.35502
3388.48774	7.43773
3386.55918	7.51413
3384.63062	7.50852
3382.70205	7.46645
3380.77349	7.48551
3378.84492	7.55587
3376.91636	7.59012
3374.98779	7.57759
3373.05923	7.63081
3371.13066	7.72130
3369.20210	7.75154
3367.27354	7.76589
3365.34497	7.83102
3363.41641	7.89085
3361.48784	7.87242
3359.55928	7.84209
3357.63071	7.85074
3355.70215	7.85526
3353.77358	7.82400
3351.84502	7.83872
3349.91646	7.88465
3347.98789	7.89763
3346.05933	7.93718
3344.13076	8.01406
3342.20220	8.03964
3340.27363	7.98737
3338.34507	7.92524
3336.41650	7.88028
3334.48794	7.91640
3332.55937	8.03285
3330.63081	8.13804
3328.70225	8.17390
3326.77368	8.10169
3324.84512	7.97450
3322.91655	7.89013
3320.98799	7.87508
3319.05942	7.91433
3317.13086	7.99444
3315.20229	8.03294
3313.27373	8.04821
3311.34517	8.11214
3309.41660	8.15097
3307.48804	8.08080
3305.55947	7.97974
3303.63091	7.98540
3301.70234	8.05017
3299.77378	8.04231
3297.84521	7.97197
3295.91665	7.92430
3293.98809	7.89020
3292.05952	7.88395
3290.13096	7.96744
3288.20239	8.10407
3286.27383	8.18205
3284.34526	8.16469
3282.41670	8.17337
3280.48813	8.22904
3278.55957	8.21560
3276.63101	8.09899
3274.70244	8.02662
3272.77388	8.02667
3270.84531	7.99951
3268.91675	8.04653
3266.98818	8.16490
3265.05962	8.18353
3263.13105	8.12183
3261.20249	8.02285
3259.27393	7.88093
3257.34536	7.77456
3255.41680	7.76213
3253.48823	7.85551
3251.55967	7.98316
3249.63110	8.05019
3247.70254	8.08551
3245.77397	8.04965
3243.84541	7.96832
3241.91685	8.02094
3239.98828	8.13633
3238.05972	8.09047
3236.13115	8.01612
3234.20259	8.08319
3232.27402	8.17225
3230.34546	8.14933
3228.41689	8.09394
3226.48833	8.03733
3224.55977	7.92791
3222.63120	7.83380
3220.70264	7.77299
3218.77407	7.74750
3216.84551	7.82597
3214.91694	7.91285
3212.98838	7.87884
3211.05981	7.85642
3209.13125	7.90874
3207.20269	7.90338
3205.27412	7.84843
3203.34556	7.81219
3201.41699	7.75349
3199.48843	7.67982
3197.55986	7.61804
3195.63130	7.56786
3193.70273	7.53500
3191.77417	7.48905
3189.84561	7.43872
3187.91704	7.42623
3185.98848	7.44223
3184.05991	7.44414
3182.13135	7.39914
3180.20278	7.33151
3178.27422	7.26144
3176.34565	7.21239
3174.41709	7.20608
3172.48853	7.18354
3170.55996	7.08230
3168.63140	6.93710
3166.70283	6.82625
3164.77427	6.77311
3162.84570	6.72926
3160.91714	6.65690
3158.98857	6.59659
3157.06001	6.56804
3155.13145	6.52726
3153.20288	6.46418
3151.27432	6.38694
3149.34575	6.28616
3147.41719	6.18505
3145.48862	6.11487
3143.56006	6.07485
3141.63149	6.03552
3139.70293	5.96339
3137.77437	5.87363
3135.84580	5.80127
3133.91724	5.74513
3131.98867	5.68407
3130.06011	5.61161
3128.13154	5.53870
3126.20298	5.47240
3124.27441	5.41027
3122.34585	5.34507
3120.41729	5.27580
3118.48872	5.20568
3116.56016	5.13125
3114.63159	5.05330
3112.70303	4.98405
3110.77446	4.92403
3108.84590	4.85779
3106.91733	4.78332
3104.98877	4.70975
3103.06021	4.64064
3101.13164	4.57901
3099.20308	4.52262
3097.27451	4.46196
3095.34595	4.39558
3093.41738	4.32715
3091.48882	4.26042
3089.56025	4.19995
3087.63169	4.14264
3085.70312	4.08309
3083.77456	4.02158
3081.84600	3.95944
3079.91743	3.89618
3077.98887	3.83191
3076.06030	3.76931
3074.13174	3.71129
3072.20317	3.65620
3070.27461	3.60058
3068.34604	3.54371
3066.41748	3.48665
3064.48892	3.43250
3062.56035	3.38057
3060.63179	3.32702
3058.70322	3.27284
3056.77466	3.21987
3054.84609	3.16798
3052.91753	3.11694
3050.98896	3.06655
3049.06040	3.01699
3047.13184	2.96770
3045.20327	2.91788
3043.27471	2.86835
3041.34614	2.82027
3039.41758	2.77443
3037.48901	2.72966
3035.56045	2.68364
3033.63188	2.63752
3031.70332	2.59337
3029.77476	2.55049
3027.84619	2.50726
3025.91763	2.46363
3023.98906	2.42112
3022.06050	2.38017
3020.13193	2.33973
3018.20337	2.29934
3016.27480	2.25945
3014.34624	2.22037
3012.41768	2.18218
3010.48911	2.14520
3008.56055	2.10911
3006.63198	2.07332
3004.70342	2.03753
3002.77485	2.00170
3000.84629	1.96656
2998.91772	1.93267
2996.98916	1.89999
2995.06060	1.86822
2993.13203	1.83698
2991.20347	1.80653
2989.27490	1.77680
2987.34634	1.74740
2985.41777	1.71867
2983.48921	1.69052
2981.56064	1.66251
2979.63208	1.63483
2977.70352	1.60804
2975.77495	1.58241
2973.84639	1.55725
2971.91782	1.53214
2969.98926	1.50770
2968.06069	1.48394
2966.13213	1.46046
2964.20356	1.43732
2962.27500	1.41433
2960.34644	1.39091
2958.41787	1.36715
2956.48931	1.34366
2954.56074	1.32028
2952.63218	1.29692
2950.70361	1.27373
2948.77505	1.25062
2946.84648	1.22795
2944.91792	1.20630
2942.98936	1.18573
2941.06079	1.16615
2939.13223	1.14718
2937.20366	1.12858
2935.27510	1.11068
2933.34653	1.09339
2931.41797	1.07601
2929.48940	1.05878
2927.56084	1.04188
2925.63228	1.02466
2923.70371	1.00714
2921.77515	0.98944
2919.84658	0.97124
2917.91802	0.95237
2915.98945	0.93316
2914.06089	0.91428
2912.13232	0.89593
2910.20376	0.87815
2908.27520	0.86127
2906.34663	0.84554
2904.41807	0.83050
2902.48950	0.81566
2900.56094	0.80146
2898.63237	0.78798
2896.70381	0.77444
2894.77524	0.76081
2892.84668	0.74767
2890.91812	0.73521
2888.98955	0.72333
2887.06099	0.71161
2885.13242	0.70025
2883.20386	0.68971
2881.27529	0.67950
2879.34673	0.66944
2877.41816	0.65979
2875.48960	0.65014
2873.56104	0.64021
2871.63247	0.63002
2869.70391	0.61941
2867.77534	0.60852
2865.84678	0.59757
2863.91821	0.58675
2861.98965	0.57661
2860.06108	0.56752
2858.13252	0.55928
2856.20396	0.55167
2854.27539	0.54427
2852.34683	0.53621
2850.41826	0.52702
2848.48970	0.51678
2846.56113	0.50606
2844.63257	0.49595
2842.70400	0.48729
2840.77544	0.47974
2838.84687	0.47251
2836.91831	0.46557
2834.98975	0.45910
2833.06118	0.45299
2831.13262	0.44701
2829.20405	0.44082
2827.27549	0.43441
2825.34692	0.42815
2823.41836	0.42214
2821.48979	0.41618
2819.56123	0.41029
2817.63267	0.40455
2815.70410	0.39876
2813.77554	0.39290
2811.84697	0.38718
2809.91841	0.38168
2807.98984	0.37624
2806.06128	0.37086
2804.13271	0.36575
2802.20415	0.36074
2800.27559	0.35557
2798.34702	0.35058
2796.41846	0.34593
2794.48989	0.34123
2792.56133	0.33639
2790.63276	0.33173
2788.70420	0.32734
2786.77563	0.32312
2784.84707	0.31898
2782.91851	0.31476
2780.98994	0.31056
2779.06138	0.30650
2777.13281	0.30249
2775.20425	0.29860
2773.27568	0.29485
2771.34712	0.29114
2769.41855	0.28746
2767.48999	0.28385
2765.56143	0.28036
2763.63286	0.27696
2761.70430	0.27347
2759.77573	0.27004
2757.84717	0.26690
2755.91860	0.26377
2753.99004	0.26053
2752.06147	0.25746
2750.13291	0.25456
2748.20435	0.25157
2746.27578	0.24856
2744.34722	0.24568
2742.41865	0.24295
2740.49009	0.24043
2738.56152	0.23795
2736.63296	0.23534
2734.70439	0.23271
2732.77583	0.23031
2730.84727	0.22812
2728.91870	0.22579
2726.99014	0.22325
2725.06157	0.22087
2723.13301	0.21871
2721.20444	0.21650
2719.27588	0.21442
2717.34731	0.21265
2715.41875	0.21093
2713.49019	0.20906
2711.56162	0.20721
2709.63306	0.20550
2707.70449	0.20372
2705.77593	0.20186
2703.84736	0.20015
2701.91880	0.19863
2699.99023	0.19721
2698.06167	0.19577
2696.13311	0.19421
2694.20454	0.19263
2692.27598	0.19118
2690.34741	0.18990
2688.41885	0.18879
2686.49028	0.18763
2684.56172	0.18636
2682.63315	0.18526
2680.70459	0.18428
2678.77603	0.18323
2676.84746	0.18216
2674.91890	0.18106
2672.99033	0.17987
2671.06177	0.17875
2669.13320	0.17776
2667.20464	0.17683
2665.27607	0.17588
2663.34751	0.17481
2661.41895	0.17373
2659.49038	0.17292
2657.56182	0.17236
2655.63325	0.17180
2653.70469	0.17112
2651.77612	0.17032
2649.84756	0.16953
2647.91899	0.16895
2645.99043	0.16851
2644.06187	0.16800
2642.13330	0.16743
2640.20474	0.16687
2638.27617	0.16626
2636.34761	0.16576
2634.41904	0.16541
2632.49048	0.16500
2630.56191	0.16448
2628.63335	0.16397
2626.70479	0.16361
2624.77622	0.16337
2622.84766	0.16304
2620.91909	0.16263
2618.99053	0.16235
2617.06196	0.16226
2615.13340	0.16221
2613.20483	0.16199
2611.27627	0.16160
2609.34771	0.16134
2607.41914	0.16133
2605.49058	0.16136
2603.56201	0.16131
2601.63345	0.16125
2599.70488	0.16125
2597.77632	0.16124
2595.84775	0.16120
2593.91919	0.16116
2591.99062	0.16115
2590.06206	0.16131
2588.13350	0.16163
2586.20493	0.16181
2584.27637	0.16184
2582.34780	0.16201
2580.41924	0.16226
2578.49067	0.16243
2576.56211	0.16257
2574.63354	0.16282
2572.70498	0.16319
2570.77642	0.16367
2568.84785	0.16412
2566.91929	0.16446
2564.99072	0.16477
2563.06216	0.16509
2561.13359	0.16539
2559.20503	0.16569
2557.27646	0.16609
2555.34790	0.16663
2553.41934	0.16725
2551.49077	0.16790
2549.56221	0.16848
2547.63364	0.16903
2545.70508	0.16968
2543.77651	0.17029
2541.84795	0.17079
2539.91938	0.17137
2537.99082	0.17198
2536.06226	0.17250
2534.13369	0.17304
2532.20513	0.17366
2530.27656	0.17428
2528.34800	0.17489
2526.41943	0.17554
2524.49087	0.17620
2522.56230	0.17693
2520.63374	0.17779
2518.70518	0.17865
2516.77661	0.17952
2514.84805	0.18041
2512.91948	0.18118
2510.99092	0.18186
2509.06235	0.18258
2507.13379	0.18328
2505.20522	0.18396
2503.27666	0.18477
2501.34810	0.18561
2499.41953	0.18631
2497.49097	0.18703
2495.56240	0.18794
2493.63384	0.18891
2491.70527	0.18978
2489.77671	0.19058
2487.84814	0.19140
2485.91958	0.19222
2483.99102	0.19305
2482.06245	0.19398
2480.13389	0.19495
2478.20532	0.19583
2476.27676	0.19659
2474.34819	0.19737
2472.41963	0.19834
2470.49106	0.19933
2468.56250	0.20017
2466.63394	0.20094
2464.70537	0.20176
2462.77681	0.20272
2460.84824	0.20381
2458.91968	0.20490
2456.99111	0.20589
2455.06255	0.20675
2453.13398	0.20752
2451.20542	0.20838
2449.27686	0.20936
2447.34829	0.21035
2445.41973	0.21138
2443.49116	0.21251
2441.56260	0.21360
2439.63403	0.21465
2437.70547	0.21571
2435.77690	0.21677
2433.84834	0.21781
2431.91978	0.21885
2429.99121	0.21986
2428.06265	0.22081
2426.13408	0.22182
2424.20552	0.22293
2422.27695	0.22395
2420.34839	0.22497
2418.41982	0.22613
2416.49126	0.22728
2414.56270	0.22834
2412.63413	0.22942
2410.70557	0.23049
2408.77700	0.23152
2406.84844	0.23266
2404.91987	0.23395
2402.99131	0.23525
2401.06274	0.23655
2399.13418	0.23787
2397.20562	0.23911
2395.27705	0.24030
2393.34849	0.24152
2391.41992	0.24281
2389.49136	0.24422
2387.56279	0.24585
2385.63423	0.24782
2383.70566	0.25036
2381.77710	0.25354
2379.84854	0.25720
2377.91997	0.26122
2375.99141	0.26560
2374.06284	0.27061
2372.13428	0.27650
2370.20571	0.28312
2368.27715	0.29029
2366.34858	0.29739
2364.42002	0.30357
2362.49146	0.30826
2360.56289	0.31093
2358.63433	0.31183
2356.70576	0.31099
2354.77720	0.30847
2352.84863	0.30469
2350.92007	0.30023
2348.99150	0.29738
2347.06294	0.29776
2345.13437	0.30208
2343.20581	0.30871
2341.27725	0.31289
2339.34868	0.31384
2337.42012	0.31421
2335.49155	0.31483
2333.56299	0.31534
2331.63442	0.31632
2329.70586	0.31774
2327.77729	0.31866
2325.84873	0.31863
2323.92017	0.31820
2321.99160	0.31782
2320.06304	0.31743
2318.13447	0.31697
2316.20591	0.31669
2314.27734	0.31710
2312.34878	0.31804
2310.42021	0.31897
2308.49165	0.31960
2306.56309	0.31995
2304.63452	0.32035
2302.70596	0.32108
2300.77739	0.32212
2298.84883	0.32320
2296.92026	0.32429
2294.99170	0.32553
2293.06313	0.32694
2291.13457	0.32833
2289.20601	0.32971
2287.27744	0.33107
2285.34888	0.33238
2283.42031	0.33392
2281.49175	0.33591
2279.56318	0.33814
2277.63462	0.34037
2275.70605	0.34253
2273.77749	0.34462
2271.84893	0.34672
2269.92036	0.34877
2267.99180	0.35083
2266.06323	0.35297
2264.13467	0.35509
2262.20610	0.35713
2260.27754	0.35917
2258.34897	0.36120
2256.42041	0.36319
2254.49185	0.36524
2252.56328	0.36740
2250.63472	0.36962
2248.70615	0.37174
2246.77759	0.37369
2244.84902	0.37573
2242.92046	0.37798
2240.99189	0.38025
2239.06333	0.38244
2237.13477	0.38464
2235.20620	0.38692
2233.27764	0.38911
2231.34907	0.39115
2229.42051	0.39337
2227.49194	0.39576
2225.56338	0.39798
2223.63481	0.40009
2221.70625	0.40222
2219.77769	0.40433
2217.84912	0.40646
2215.92056	0.40865
2213.99199	0.41094
2212.06343	0.41321
2210.13486	0.41533
2208.20630	0.41744
2206.27773	0.41968
2204.34917	0.42187
2202.42061	0.42389
2200.49204	0.42580
2198.56348	0.42773
2196.63491	0.42974
2194.70635	0.43171
2192.77778	0.43359
2190.84922	0.43551
2188.92065	0.43739
2186.99209	0.43917
2185.06353	0.44089
2183.13496	0.44266
2181.20640	0.44445
2179.27783	0.44614
2177.34927	0.44767
2175.42070	0.44917
2173.49214	0.45075
2171.56357	0.45233
2169.63501	0.45370
2167.70645	0.45490
2165.77788	0.45617
2163.84932	0.45749
2161.92075	0.45866
2159.99219	0.45969
2158.06362	0.46073
2156.13506	0.46174
2154.20649	0.46260
2152.27793	0.46338
2150.34937	0.46405
2148.42080	0.46462
2146.49224	0.46524
2144.56367	0.46584
2142.63511	0.46628
2140.70654	0.46657
2138.77798	0.46686
2136.84941	0.46713
2134.92085	0.46724
2132.99229	0.46719
2131.06372	0.46707
2129.13516	0.46696
2127.20659	0.46680
2125.27803	0.46648
2123.34946	0.46602
2121.42090	0.46551
2119.49233	0.46494
2117.56377	0.46430
2115.63521	0.46356
2113.70664	0.46278
2111.77808	0.46196
2109.84951	0.46105
2107.92095	0.46002
2105.99238	0.45885
2104.06382	0.45769
2102.13525	0.45662
2100.20669	0.45543
2098.27812	0.45394
2096.34956	0.45231
2094.42100	0.45076
2092.49243	0.44915
2090.56387	0.44737
2088.63530	0.44557
2086.70674	0.44381
2084.77817	0.44198
2082.84961	0.44009
2080.92104	0.43811
2078.99248	0.43605
2077.06392	0.43401
2075.13535	0.43199
2073.20679	0.42980
2071.27822	0.42739
2069.34966	0.42506
2067.42109	0.42293
2065.49253	0.42084
2063.56396	0.41854
2061.63540	0.41595
2059.70684	0.41329
2057.77827	0.41073
2055.84971	0.40822
2053.92114	0.40564
2051.99258	0.40301
2050.06401	0.40031
2048.13545	0.39756
2046.20688	0.39485
2044.27832	0.39232
2042.34976	0.38977
2040.42119	0.38698
2038.49263	0.38408
2036.56406	0.38129
2034.63550	0.37852
2032.70693	0.37569
2030.77837	0.37294
2028.84980	0.37023
2026.92124	0.36753
2024.99268	0.36471
2023.06411	0.36181
2021.13555	0.35907
2019.20698	0.35658
2017.27842	0.35399
2015.34985	0.35094
2013.42129	0.34786
2011.49272	0.34506
2009.56416	0.34234
2007.63560	0.33961
2005.70703	0.33687
2003.77847	0.33406
2001.84990	0.33128
1999.92134	0.32863
1997.99277	0.32605
1996.06421	0.32354
1994.13564	0.32135
1992.20708	0.31930
1990.27852	0.31674
1988.34995	0.31378
1986.42139	0.31094
1984.49282	0.30832
1982.56426	0.30592
1980.63569	0.30364
1978.70713	0.30139
1976.77856	0.29913
1974.85000	0.29685
1972.92144	0.29461
1970.99287	0.29257
1969.06431	0.29077
1967.13574	0.28891
1965.20718	0.28662
1963.27861	0.28427
1961.35005	0.28229
1959.42148	0.28043
1957.49292	0.27851
1955.56436	0.27663
1953.63579	0.27480
1951.70723	0.27298
1949.77866	0.27130
1947.85010	0.26984
1945.92153	0.26858
1943.99297	0.26750
1942.06440	0.26623
1940.13584	0.26436
1938.20728	0.26243
1936.27871	0.26081
1934.35015	0.25939
1932.42158	0.25813
1930.49302	0.25692
1928.56445	0.25580
1926.63589	0.25481
1924.70732	0.25419
1922.77876	0.25377
1920.85020	0.25300
1918.92163	0.25208
1916.99307	0.25099
1915.06450	0.24946
1913.13594	0.24819
1911.20737	0.24762
1909.27881	0.24730
1907.35024	0.24657
1905.42168	0.24547
1903.49312	0.24454
1901.56455	0.24395
1899.63599	0.24353
1897.70742	0.24327
1895.77886	0.24312
1893.85029	0.24274
1891.92173	0.24228
1889.99316	0.24233
1888.06460	0.24219
1886.13604	0.24151
1884.20747	0.24090
1882.27891	0.24044
1880.35034	0.24014
1878.42178	0.24000
1876.49321	0.23995
1874.56465	0.24003
1872.63608	0.24047
1870.70752	0.24166
1868.77896	0.24338
1866.85039	0.24361
1864.92183	0.24224
1862.99326	0.24133
1861.06470	0.24137
1859.13613	0.24179
1857.20757	0.24208
1855.27900	0.24239
1853.35044	0.24282
1851.42187	0.24342
1849.49331	0.24430
1847.56475	0.24556
1845.63618	0.24719
1843.70762	0.24862
1841.77905	0.24877
1839.85049	0.24844
1837.92192	0.24891
1835.99336	0.24976
1834.06479	0.25057
1832.13623	0.25197
1830.20767	0.25444
1828.27910	0.25640
1826.35054	0.25706
1824.42197	0.25782
1822.49341	0.25849
1820.56484	0.25913
1818.63628	0.26028
1816.70771	0.26189
1814.77915	0.26360
1812.85059	0.26567
1810.92202	0.26815
1808.99346	0.27025
1807.06489	0.27187
1805.13633	0.27354
1803.20776	0.27594
1801.27920	0.27910
1799.35063	0.28230
1797.42207	0.28474
1795.49351	0.28727
1793.56494	0.29087
1791.63638	0.29507
1789.70781	0.29752
1787.77925	0.29887
1785.85068	0.30158
1783.92212	0.30545
1781.99355	0.30969
1780.06499	0.31410
1778.13643	0.31835
1776.20786	0.32263
1774.27930	0.32806
1772.35073	0.33533
1770.42217	0.34156
1768.49360	0.34549
1766.56504	0.34951
1764.63647	0.35445
1762.70791	0.36084
1760.77935	0.36897
1758.85078	0.37617
1756.92222	0.38349
1754.99365	0.39155
1753.06509	0.39915
1751.13652	0.40905
1749.20796	0.42162
1747.27939	0.43263
1745.35083	0.44123
1743.42227	0.45026
1741.49370	0.46043
1739.56514	0.47234
1737.63657	0.48405
1735.70801	0.49470
1733.77944	0.51153
1731.85088	0.53064
1729.92231	0.54455
1727.99375	0.55885
1726.06519	0.57489
1724.13662	0.59320
1722.20806	0.61329
1720.27949	0.63221
1718.35093	0.65547
1716.42236	0.68988
1714.49380	0.72005
1712.56523	0.74263
1710.63667	0.76511
1708.70811	0.79058
1706.77954	0.82067
1704.85098	0.85673
1702.92241	0.88804
1700.99385	0.91864
1699.06528	0.96563
1697.13672	1.00902
1695.20815	1.05182
1693.27959	1.09236
1691.35103	1.12556
1689.42246	1.16555
1687.49390	1.20807
1685.56533	1.24868
1683.63677	1.31298
1681.70820	1.38018
1679.77964	1.42117
1677.85107	1.46003
1675.92251	1.50561
1673.99395	1.56327
1672.06538	1.61441
1670.13682	1.66480
1668.20825	1.73144
1666.27969	1.78416
1664.35112	1.82927
1662.42256	1.88810
1660.49399	1.95604
1658.56543	2.00835
1656.63687	2.05146
1654.70830	2.09219
1652.77974	2.15267
1650.85117	2.20769
1648.92261	2.22806
1646.99404	2.25570
1645.06548	2.28157
1643.13691	2.29807
1641.20835	2.30812
1639.27979	2.31914
1637.35122	2.32613
1635.42266	2.32256
1633.49409	2.31330
1631.56553	2.30112
1629.63696	2.28520
1627.70840	2.25717
1625.77983	2.22535
1623.85127	2.18498
1621.92271	2.13385
1619.99414	2.08703
1618.06558	2.04119
1616.13701	1.97567
1614.20845	1.90997
1612.27988	1.86163
1610.35132	1.81172
1608.42275	1.75705
1606.49419	1.70182
1604.56562	1.65108
1602.63706	1.60310
1600.70850	1.55637
1598.77993	1.51332
1596.85137	1.47313
1594.92280	1.43347
1592.99424	1.39429
1591.06567	1.35877
1589.13711	1.32617
1587.20854	1.29609
1585.27998	1.26830
1583.35142	1.24213
1581.42285	1.21805
1579.49429	1.19806
1577.56572	1.18159
1575.63716	1.16176
1573.70859	1.14297
1571.78003	1.13087
1569.85146	1.11979
1567.92290	1.10729
1565.99434	1.09755
1564.06577	1.09090
1562.13721	1.08670
1560.20864	1.08623
1558.28008	1.08908
1556.35151	1.08854
1554.42295	1.08635
1552.49438	1.08503
1550.56582	1.08297
1548.63726	1.07887
1546.70869	1.07340
1544.78013	1.06637
1542.85156	1.05648
1540.92300	1.04005
1538.99443	1.01083
1537.06587	0.98830
1535.13730	0.97389
1533.20874	0.95540
1531.28018	0.93517
1529.35161	0.92081
1527.42305	0.90804
1525.49448	0.89484
1523.56592	0.88374
1521.63735	0.87334
1519.70879	0.86173
1517.78022	0.85142
1515.85166	0.83945
1513.92310	0.82683
1511.99453	0.81668
1510.06597	0.80889
1508.13740	0.80240
1506.20884	0.78868
1504.28027	0.77363
1502.35171	0.76551
1500.42314	0.75981
1498.49458	0.75431
1496.56602	0.74714
1494.63745	0.73913
1492.70889	0.73341
1490.78032	0.72988
1488.85176	0.72584
1486.92319	0.71995
1484.99463	0.71437
1483.06606	0.71046
1481.13750	0.70794
1479.20894	0.70636
1477.28037	0.70605
1475.35181	0.70711
1473.42324	0.70847
1471.49468	0.70726
1469.56611	0.70368
1467.63755	0.70081
1465.70898	0.69917
1463.78042	0.69761
1461.85186	0.69630
1459.92329	0.69671
1457.99473	0.69872
1456.06616	0.69769
1454.13760	0.69257
1452.20903	0.68831
1450.28047	0.68509
1448.35190	0.68218
1446.42334	0.67884
1444.49478	0.67546
1442.56621	0.67252
1440.63765	0.66993
1438.70908	0.66791
1436.78052	0.66565
1434.85195	0.66193
1432.92339	0.65849
1430.99482	0.65658
1429.06626	0.65560
1427.13770	0.65494
1425.20913	0.65499
1423.28057	0.65578
1421.35200	0.65666
1419.42344	0.65782
1417.49487	0.65788
1415.56631	0.65586
1413.63774	0.65418
1411.70918	0.65378
1409.78062	0.65423
1407.85205	0.65510
1405.92349	0.65647
1403.99492	0.65766
1402.06636	0.65773
1400.13779	0.65724
1398.20923	0.65640
1396.28066	0.65446
1394.35210	0.65058
1392.42354	0.64545
1390.49497	0.64110
1388.56641	0.63754
1386.63784	0.63336
1384.70928	0.62834
1382.78071	0.62356
1380.85215	0.61922
1378.92358	0.61548
1376.99502	0.61288
1375.06646	0.61133
1373.13789	0.60978
1371.20933	0.60823
1369.28076	0.60721
1367.35220	0.60603
1365.42363	0.60457
1363.49507	0.60341
1361.56650	0.60206
1359.63794	0.60004
1357.70937	0.59819
1355.78081	0.59696
1353.85225	0.59613
1351.92368	0.59539
1349.99512	0.59466
1348.06655	0.59395
1346.13799	0.59322
1344.20942	0.59251
1342.28086	0.59210
1340.35229	0.59205
1338.42373	0.59157
1336.49517	0.59037
1334.56660	0.58927
1332.63804	0.58873
1330.70947	0.58876
1328.78091	0.58920
1326.85234	0.58981
1324.92378	0.59039
1322.99521	0.59100
1321.06665	0.59189
1319.13809	0.59281
1317.20952	0.59307
1315.28096	0.59271
1313.35239	0.59216
1311.42383	0.59151
1309.49526	0.59077
1307.56670	0.59012
1305.63813	0.58962
1303.70957	0.58903
1301.78101	0.58819
1299.85244	0.58722
1297.92388	0.58612
1295.99531	0.58486
1294.06675	0.58357
1292.13818	0.58230
1290.20962	0.58103
1288.28105	0.57974
1286.35249	0.57833
1284.42393	0.57692
1282.49536	0.57575
1280.56680	0.57478
1278.63823	0.57362
1276.70967	0.57230
1274.78110	0.57121
1272.85254	0.57045
1270.92397	0.56980
1268.99541	0.56907
1267.06685	0.56833
1265.13828	0.56763
1263.20972	0.56695
1261.28115	0.56628
1259.35259	0.56563
1257.42402	0.56503
1255.49546	0.56458
1253.56689	0.56442
1251.63833	0.56457
1249.70977	0.56482
1247.78120	0.56489
1245.85264	0.56470
1243.92407	0.56420
1241.99551	0.56337
1240.06694	0.56221
1238.13838	0.56066
1236.20981	0.55871
1234.28125	0.55658
1232.35269	0.55454
1230.42412	0.55271
1228.49556	0.55106
1226.56699	0.54935
1224.63843	0.54761
1222.70986	0.54610
1220.78130	0.54487
1218.85273	0.54375
1216.92417	0.54258
1214.99561	0.54140
1213.06704	0.54044
1211.13848	0.53977
1209.20991	0.53909
1207.28135	0.53821
1205.35278	0.53727
1203.42422	0.53638
1201.49565	0.53566
1199.56709	0.53503
1197.63853	0.53428
1195.70996	0.53346
1193.78140	0.53281
1191.85283	0.53242
1189.92427	0.53221
1187.99570	0.53206
1186.06714	0.53200
1184.13857	0.53204
1182.21001	0.53227
1180.28145	0.53298
1178.35288	0.53426
1176.42432	0.53574
1174.49575	0.53698
1172.56719	0.53768
1170.63862	0.53782
1168.71006	0.53768
1166.78149	0.53747
1164.85293	0.53716
1162.92437	0.53673
1160.99580	0.53624
1159.06724	0.53560
1157.13867	0.53475
1155.21011	0.53364
1153.28154	0.53214
1151.35298	0.53025
1149.42441	0.52803
1147.49585	0.52557
1145.56729	0.52298
1143.63872	0.52029
1141.71016	0.51760
1139.78159	0.51522
1137.85303	0.51335
1135.92446	0.51200
1133.99590	0.51102
1132.06733	0.51028
1130.13877	0.50964
1128.21021	0.50889
1126.28164	0.50796
1124.35308	0.50691
1122.42451	0.50581
1120.49595	0.50479
1118.56738	0.50414
1116.63882	0.50402
1114.71025	0.50416
1112.78169	0.50426
1110.85312	0.50447
1108.92456	0.50507
1106.99600	0.50602
1105.06743	0.50706
1103.13887	0.50828
1101.21030	0.50999
1099.28174	0.51220
1097.35317	0.51476
1095.42461	0.51764
1093.49604	0.52090
1091.56748	0.52485
1089.63892	0.52970
1087.71035	0.53535
1085.78179	0.54150
1083.85322	0.54776
1081.92466	0.55379
1079.99609	0.55903
1078.06753	0.56237
1076.13896	0.56288
1074.21040	0.56061
1072.28184	0.55622
1070.35327	0.55037
1068.42471	0.54376
1066.49614	0.53726
1064.56758	0.53135
1062.63901	0.52574
1060.71045	0.52021
1058.78188	0.51519
1056.85332	0.51093
1054.92476	0.50728
1052.99619	0.50416
1051.06763	0.50141
1049.13906	0.49900
1047.21050	0.49701
1045.28193	0.49517
1043.35337	0.49323
1041.42480	0.49155
1039.49624	0.49046
1037.56768	0.48975
1035.63911	0.48916
1033.71055	0.48875
1031.78198	0.48861
1029.85342	0.48848
1027.92485	0.48809
1025.99629	0.48775
1024.06772	0.48782
1022.13916	0.48834
1020.21060	0.48902
1018.28203	0.48975
1016.35347	0.49043
1014.42490	0.49113
1012.49634	0.49206
1010.56777	0.49315
1008.63921	0.49434
1006.71064	0.49592
1004.78208	0.49805
1002.85352	0.50046
1000.92495	0.50306
998.99639	0.50609
997.06782	0.50973
995.13926	0.51380
993.21069	0.51774
991.28213	0.52116
989.35356	0.52393
987.42500	0.52588
985.49644	0.52694
983.56787	0.52748
981.63931	0.52812
979.71074	0.52923
977.78218	0.53086
975.85361	0.53309
973.92505	0.53591
971.99648	0.53900
970.06792	0.54226
968.13936	0.54583
966.21079	0.54981
964.28223	0.55425
962.35366	0.55921
960.42510	0.56449
958.49653	0.56998
956.56797	0.57577
954.63940	0.58176
952.71084	0.58782
950.78228	0.59392
948.85371	0.59991
946.92515	0.60592
944.99658	0.61225
943.06802	0.61851
941.13945	0.62420
939.21089	0.62976
937.28232	0.63575
935.35376	0.64196
933.42520	0.64788
931.49663	0.65339
929.56807	0.65890
927.63950	0.66457
925.71094	0.67051
923.78237	0.67704
921.85381	0.68357
919.92524	0.68961
917.99668	0.69599
916.06812	0.70337
914.13955	0.71119
912.21099	0.71881
910.28242	0.72638
908.35386	0.73437
906.42529	0.74316
904.49673	0.75262
902.56816	0.76200
900.63960	0.77117
898.71104	0.78064
896.78247	0.79012
894.85391	0.79933
892.92534	0.80930
890.99678	0.82020
889.06821	0.83122
887.13965	0.84219
885.21108	0.85240
883.28252	0.86162
881.35396	0.87100
879.42539	0.88150
877.49683	0.89352
875.56826	0.90646
873.63970	0.91959
871.71113	0.93313
869.78257	0.94579
867.85400	0.95627
865.92544	0.96662
863.99687	0.97912
862.06831	0.99280
860.13975	1.00515
858.21118	1.01552
856.28262	1.02578
854.35405	1.03800
852.42549	1.05130
850.49692	1.06251
848.56836	1.07175
846.63979	1.08179
844.71123	1.09283
842.78267	1.10424
840.85410	1.11654
838.92554	1.12846
836.99697	1.13858
835.06841	1.15050
833.13984	1.16602
831.21128	1.17857
829.28271	1.18825
827.35415	1.20264
825.42559	1.21836
823.49702	1.22663
821.56846	1.22851
819.63989	1.23515
817.71133	1.25139
815.78276	1.27106
813.85420	1.28349
811.92563	1.28490
809.99707	1.29131
808.06851	1.31426
806.13994	1.34396
804.21138	1.35584
802.28281	1.34486
800.35425	1.33511
798.42568	1.33151
796.49712	1.33132
794.56855	1.34968
792.63999	1.39086
790.71143	1.44078
788.78286	1.48293
786.85430	1.48363
784.92573	1.44324
782.99717	1.42056
781.06860	1.41577
779.14004	1.40510
777.21147	1.41194
775.28291	1.43544
773.35435	1.47783
771.42578	1.56719
769.49722	1.61243
767.56865	1.55491
765.64009	1.47470
763.71152	1.31882
761.78296	1.16220
759.85439	1.12722
757.92583	1.21361
755.99727	1.29602
754.06870	1.26490
752.14014	1.22012
750.21157	1.17830
748.28301	1.10132
746.35444	1.07755
744.42588	1.13911
742.49731	1.15587
740.56875	1.06001
738.64019	1.00739
736.71162	1.02225
734.78306	0.91771
732.85449	0.72804
730.92593	0.60479
728.99736	0.55503
727.06880	0.51808
725.14023	0.46822
723.21167	0.44335
721.28311	0.38516
719.35454	0.31564
717.42598	0.30455
715.49741	0.28759
713.56885	0.16752
711.64028	-0.03309
709.71172	-0.27934
707.78315	-0.67836
705.85459	-0.71704
703.92603	-0.21401
701.99746	0.00571
700.06890	0.12743
698.14033	0.19439
696.21177	0.32083
694.28320	0.48922
692.35464	0.43883
690.42607	0.31772
688.49751	0.26255
686.56895	0.26895
684.64038	0.33693
682.71182	0.48646
680.78325	0.66132
678.85469	0.54566
676.92612	0.39146
674.99756	0.31966
673.06899	0.25214
671.14043	0.23697
669.21187	0.29051
667.28330	0.34031
665.35474	0.37582
663.42617	0.35561
661.49761	0.29646
659.56904	0.23463
657.64048	0.17596
655.71191	0.17036
653.78335	0.18579
651.85479	0.20074
649.92622	0.27422
647.99766	0.36450
646.06909	0.39033
644.14053	0.35406
642.21196	0.25470
640.28340	0.18822
638.35483	0.20405
636.42627	0.26722
634.49771	0.31928
632.56914	0.30989
630.64058	0.34106
628.71201	0.94097
626.78345	3.76070
624.85488	3.74913
622.92632	0.55097
620.99775	0.29510
619.06919	0.20308
617.14062	0.25387
615.21206	0.34674
613.28350	0.31480
611.35493	0.27407
609.42637	0.29437
607.49780	0.32577
605.56924	0.32238
603.64067	0.32223
601.71211	0.30979
599.78354	0.30346
597.85498	0.35108
595.92642	0.36357
593.99785	0.31414
592.06929	0.33657
590.14072	0.41527
588.21216	0.38991
586.28359	0.30366
584.35503	0.26018
582.42646	0.25340
580.49790	0.27371
578.56934	0.31255
576.64077	0.32062
574.71221	0.31101
572.78364	0.32466
570.85508	0.32988
568.92651	0.31058
566.99795	0.31489
565.06938	0.31429
563.14082	0.25318
561.21226	0.21231
559.28369	0.20217
557.35513	0.19335
555.42656	0.20511
553.49800	0.27712
551.56943	0.37388
549.64087	0.38463
547.71230	0.36971
545.78374	0.42836
543.85518	0.54285
541.92661	0.52829
539.99805	0.41308
538.06948	0.31621
536.14092	0.25769
534.21235	0.28571
532.28379	0.37453
530.35522	0.40073
528.42666	0.34620
526.49810	0.26935
524.56953	0.23845
522.64097	0.26936
520.71240	0.28868
518.78384	0.26820
516.85527	0.27874
514.92671	0.32236
512.99814	0.30301
511.06958	0.26701
509.14102	0.29692
507.21245	0.32344
505.28389	0.31880
503.35532	0.33593
501.42676	0.36138
499.49819	0.36841
