3997.91411	0.06919
3995.98555	0.06975
3994.05698	0.07006
3992.12842	0.07030
3990.19985	0.07058
3988.27129	0.07075
3986.34272	0.07113
3984.41416	0.07185
3982.48560	0.07249
3980.55703	0.07292
3978.62847	0.07300
3976.69990	0.07270
3974.77134	0.07255
3972.84277	0.07272
3970.91421	0.07292
3968.98564	0.07323
3967.05708	0.07370
3965.12852	0.07397
3963.19995	0.07393
3961.27139	0.07407
3959.34282	0.07459
3957.41426	0.07507
3955.48569	0.07514
3953.55713	0.07477
3951.62856	0.07458
3949.70000	0.07511
3947.77144	0.07577
3945.84287	0.07574
3943.91431	0.07546
3941.98574	0.07541
3940.05718	0.07506
3938.12861	0.07457
3936.20005	0.07453
3934.27148	0.07496
3932.34292	0.07555
3930.41436	0.07568
3928.48579	0.07518
3926.55723	0.07491
3924.62866	0.07530
3922.70010	0.07559
3920.77153	0.07534
3918.84297	0.07505
3916.91440	0.07480
3914.98584	0.07422
3913.05728	0.07342
3911.12871	0.07308
3909.20015	0.07330
3907.27158	0.07385
3905.34302	0.07474
3903.41445	0.07565
3901.48589	0.07597
3899.55732	0.07603
3897.62876	0.07556
3895.70020	0.07448
3893.77163	0.07390
3891.84307	0.07443
3889.91450	0.07506
3887.98594	0.07455
3886.05737	0.07426
3884.12881	0.07502
3882.20024	0.07556
3880.27168	0.07567
3878.34312	0.07538
3876.41455	0.07475
3874.48599	0.07475
3872.55742	0.07552
3870.62886	0.07654
3868.70029	0.07727
3866.77173	0.07706
3864.84316	0.07693
3862.91460	0.07746
3860.98604	0.07766
3859.05747	0.07739
3857.12891	0.07750
3855.20034	0.07857
3853.27178	0.08110
3851.34321	0.08273
3849.41465	0.08145
3847.48608	0.08036
3845.55752	0.08044
3843.62896	0.08152
3841.70039	0.08299
3839.77183	0.08436
3837.84326	0.08595
3835.91470	0.08700
3833.98613	0.08677
3832.05757	0.08602
3830.12900	0.08541
3828.20044	0.08563
3826.27187	0.08699
3824.34331	0.08852
3822.41475	0.08969
3820.48618	0.09134
3818.55762	0.09251
3816.62905	0.09268
3814.70049	0.09300
3812.77192	0.09311
3810.84336	0.09308
3808.91479	0.09388
3806.98623	0.09573
3805.05767	0.09723
3803.12910	0.09797
3801.20054	0.09961
3799.27197	0.10148
3797.34341	0.10248
3795.41484	0.10373
3793.48628	0.10446
3791.55771	0.10439
3789.62915	0.10457
3787.70059	0.10539
3785.77202	0.10703
3783.84346	0.10919
3781.91489	0.11105
3779.98633	0.11259
3778.05776	0.11412
3776.12920	0.11544
3774.20063	0.11688
3772.27207	0.11864
3770.34351	0.12090
3768.41494	0.12361
3766.48638	0.12588
3764.55781	0.12773
3762.62925	0.12909
3760.70068	0.13044
3758.77212	0.13291
3756.84355	0.13580
3754.91499	0.13797
3752.98643	0.14042
3751.05786	0.14441
3749.12930	0.14913
3747.20073	0.15191
3745.27217	0.15405
3743.34360	0.15746
3741.41504	0.16052
3739.48647	0.16275
3737.55791	0.16595
3735.62935	0.17115
3733.70078	0.17703
3731.77222	0.18108
3729.84365	0.18439
3727.91509	0.18826
3725.98652	0.19352
3724.05796	0.20031
3722.12939	0.20772
3720.20083	0.21482
3718.27227	0.22152
3716.34370	0.22879
3714.41514	0.23681
3712.48657	0.24650
3710.55801	0.25977
3708.62944	0.27388
3706.70088	0.28503
3704.77231	0.29537
3702.84375	0.30809
3700.91519	0.32530
3698.98662	0.34413
3697.05806	0.36171
3695.12949	0.37998
3693.20093	0.39933
3691.27236	0.42082
3689.34380	0.44934
3687.41523	0.48472
3685.48667	0.51529
3683.55811	0.54106
3681.62954	0.56878
3679.70098	0.60060
3677.77241	0.63446
3675.84385	0.67471
3673.91528	0.72901
3671.98672	0.77192
3670.05815	0.80943
3668.12959	0.86281
3666.20103	0.91171
3664.27246	0.95225
3662.34390	0.99575
3660.41533	1.04290
3658.48677	1.08960
3656.55820	1.13932
3654.62964	1.19442
3652.70107	1.23983
3650.77251	1.27951
3648.84395	1.33723
3646.91538	1.40838
3644.98682	1.45743
3643.05825	1.49456
3641.12969	1.53411
3639.20112	1.57866
3637.27256	1.62326
3635.34399	1.66630
3633.41543	1.70961
3631.48687	1.75065
3629.55830	1.79281
3627.62974	1.84802
3625.70117	1.89788
3623.77261	1.93067
3621.84404	1.96254
3619.91548	1.99941
3617.98691	2.04451
3616.05835	2.08803
3614.12979	2.12471
3612.20122	2.16460
3610.27266	2.20573
3608.34409	2.24717
3606.41553	2.28996
3604.48696	2.32784
3602.55840	2.36136
3600.62983	2.39908
3598.70127	2.44063
3596.77271	2.48063
3594.84414	2.52137
3592.91558	2.56333
3590.98701	2.60198
3589.05845	2.63769
3587.12988	2.68224
3585.20132	2.73341
3583.27275	2.77517
3581.34419	2.81224
3579.41562	2.85250
3577.48706	2.89519
3575.55850	2.93794
3573.62993	2.98137
3571.70137	3.02345
3569.77280	3.06280
3567.84424	3.10302
3565.91567	3.15413
3563.98711	3.20639
3562.05854	3.24872
3560.12998	3.29084
3558.20142	3.33553
3556.27285	3.38024
3554.34429	3.42450
3552.41572	3.47186
3550.48716	3.52119
3548.55859	3.56767
3546.63003	3.61149
3544.70146	3.65606
3542.77290	3.70210
3540.84434	3.74872
3538.91577	3.79511
3536.98721	3.84204
3535.05864	3.89265
3533.13008	3.94095
3531.20151	3.98596
3529.27295	4.03446
3527.34438	4.08503
3525.41582	4.13265
3523.48726	4.18130
3521.55869	4.23413
3519.63013	4.28477
3517.70156	4.33161
3515.77300	4.37547
3513.84443	4.41938
3511.91587	4.46851
3509.98730	4.51840
3508.05874	4.56205
3506.13018	4.60559
3504.20161	4.65398
3502.27305	4.70371
3500.34448	4.75299
3498.41592	4.79892
3496.48735	4.84090
3494.55879	4.88597
3492.63022	4.93894
3490.70166	4.99450
3488.77310	5.04804
3486.84453	5.10133
3484.91597	5.15181
3482.98740	5.19422
3481.05884	5.23732
3479.13027	5.28800
3477.20171	5.34100
3475.27314	5.39381
3473.34458	5.44103
3471.41602	5.47982
3469.48745	5.51919
3467.55889	5.56420
3465.63032	5.61164
3463.70176	5.67074
3461.77319	5.74092
3459.84463	5.79519
3457.91606	5.82945
3455.98750	5.86775
3454.05894	5.91826
3452.13037	5.97296
3450.20181	6.02397
3448.27324	6.07469
3446.34468	6.13624
3444.41611	6.19968
3442.48755	6.24974
3440.55898	6.28575
3438.63042	6.32528
3436.70186	6.37741
3434.77329	6.43765
3432.84473	6.50120
3430.91616	6.55647
3428.98760	6.59833
3427.05903	6.61731
3425.13047	6.62827
3423.20190	6.67107
3421.27334	6.76233
3419.34478	6.85638
3417.41621	6.90335
3415.48765	6.91803
3413.55908	6.92556
3411.63052	6.94493
3409.70195	6.99159
3407.77339	7.07586
3405.84482	7.16278
3403.91626	7.22024
3401.98770	7.25191
3400.05913	7.27341
3398.13057	7.29702
3396.20200	7.33042
3394.27344	7.38689
3392.34487	7.44035
3390.41631	7.47365
3388.48774	7.49357
3386.55918	7.52519
3384.63062	7.53927
3382.70205	7.51207
3380.77349	7.50331
3378.84492	7.55352
3376.91636	7.63171
3374.98779	7.66145
3373.05923	7.67566
3371.13066	7.72040
3369.20210	7.77927
3367.27354	7.82665
3365.34497	7.86998
3363.41641	7.90994
3361.48784	7.91680
3359.55928	7.94128
3357.63071	8.02068
3355.70215	8.10399
3353.77358	8.10936
3351.84502	8.07262
3349.91646	8.05525
3347.98789	8.04941
3346.05933	7.99115
3344.13076	7.90127
3342.20220	7.88107
3340.27363	7.89810
3338.34507	7.93788
3336.41650	8.03384
3334.48794	8.12073
3332.55937	8.12470
3330.63081	8.11813
3328.70225	8.14758
3326.77368	8.16592
3324.84512	8.15408
3322.91655	8.17210
3320.98799	8.25054
3319.05942	8.26847
3317.13086	8.20459
3315.20229	8.09965
3313.27373	8.01916
3311.34517	8.04747
3309.41660	8.13244
3307.48804	8.18770
3305.55947	8.21680
3303.63091	8.19765
3301.70234	8.10256
3299.77378	8.08504
3297.84521	8.14738
3295.91665	8.17542
3293.98809	8.22119
3292.05952	8.20501
3290.13096	8.06285
3288.20239	8.01892
3286.27383	8.11562
3284.34526	8.18558
3282.41670	8.24917
3280.48813	8.32517
3278.55957	8.28266
3276.63101	8.14144
3274.70244	8.09243
3272.77388	8.18483
3270.84531	8.25255
3268.91675	8.24291
3266.98818	8.27615
3265.05962	8.35312
3263.13105	8.31952
3261.20249	8.21151
3259.27393	8.18858
3257.34536	8.23944
3255.41680	8.32965
3253.48823	8.42480
3251.55967	8.38283
3249.63110	8.31168
3247.70254	8.34486
3245.77397	8.31622
3243.84541	8.24882
3241.91685	8.24983
3239.98828	8.20180
3238.05972	8.09730
3236.13115	8.05342
3234.20259	8.08990
3232.27402	8.15956
3230.34546	8.21452
3228.41689	8.22027
3226.48833	8.20362
3224.55977	8.21850
3222.63120	8.22950
3220.70264	8.20459
3218.77407	8.20003
3216.84551	8.15444
3214.91694	8.00320
3212.98838	7.86878
3211.05981	7.83062
3209.13125	7.83646
3207.20269	7.86091
3205.27412	7.89212
3203.34556	7.80119
3201.41699	7.60076
3199.48843	7.48847
3197.55986	7.52643
3195.63130	7.63352
3193.70273	7.71341
3191.77417	7.69856
3189.84561	7.62281
3187.91704	7.55846
3185.98848	7.49994
3184.05991	7.42566
3182.13135	7.33838
3180.20278	7.25716
3178.27422	7.20109
3176.34565	7.19804
3174.41709	7.21039
3172.48853	7.13922
3170.55996	7.00838
3168.63140	6.92942
3166.70283	6.90479
3164.77427	6.84783
3162.84570	6.75941
3160.91714	6.66849
3158.98857	6.57498
3157.06001	6.51975
3155.13145	6.50527
3153.20288	6.46235
3151.27432	6.37501
3149.34575	6.29574
3147.41719	6.24161
3145.48862	6.18176
3143.56006	6.10080
3141.63149	6.02744
3139.70293	5.96631
3137.77437	5.89468
3135.84580	5.82128
3133.91724	5.75331
3131.98867	5.68381
3130.06011	5.62279
3128.13154	5.56903
3126.20298	5.50672
3124.27441	5.43541
3122.34585	5.36047
3120.41729	5.28773
3118.48872	5.21404
3116.56016	5.13047
3114.63159	5.05091
3112.70303	4.99236
3110.77446	4.94061
3108.84590	4.87570
3106.91733	4.80306
3104.98877	4.73223
3103.06021	4.66214
3101.13164	4.59093
3099.20308	4.52133
3097.27451	4.45696
3095.34595	4.39583
3093.41738	4.33334
3091.48882	4.27003
3089.56025	4.20891
3087.63169	4.14890
3085.70312	4.08797
3083.77456	4.02615
3081.84600	3.96589
3079.91743	3.90781
3077.98887	3.84822
3076.06030	3.78691
3074.13174	3.72770
3072.20317	3.67225
3070.27461	3.62002
3068.34604	3.56892
3066.41748	3.51496
3064.48892	3.45720
3062.56035	3.39980
3060.63179	3.34540
3058.70322	3.29272
3056.77466	3.24111
3054.84609	3.18991
3052.91753	3.13738
3050.98896	3.08486
3049.06040	3.03514
3047.13184	2.98754
3045.20327	2.93921
3043.27471	2.89029
3041.34614	2.84235
3039.41758	2.79556
3037.48901	2.74990
3035.56045	2.70482
3033.63188	2.65978
3031.70332	2.61511
3029.77476	2.57144
3027.84619	2.52847
3025.91763	2.48555
3023.98906	2.44315
3022.06050	2.40138
3020.13193	2.36002
3018.20337	2.31924
3016.27480	2.27920
3014.34624	2.23971
3012.41768	2.20065
3010.48911	2.16250
3008.56055	2.12521
3006.63198	2.08851
3004.70342	2.05278
3002.77485	2.01797
3000.84629	1.98388
2998.91772	1.95077
2996.98916	1.91875
2995.06060	1.88711
2993.13203	1.85525
2991.20347	1.82421
2989.27490	1.79495
2987.34634	1.76675
2985.41777	1.73871
2983.48921	1.71057
2981.56064	1.68256
2979.63208	1.65521
2977.70352	1.62895
2975.77495	1.60338
2973.84639	1.57801
2971.91782	1.55310
2969.98926	1.52889
2968.06069	1.50564
2966.13213	1.48283
2964.20356	1.45923
2962.27500	1.43510
2960.34644	1.41122
2958.41787	1.38723
2956.48931	1.36289
2954.56074	1.33871
2952.63218	1.31495
2950.70361	1.29133
2948.77505	1.26771
2946.84648	1.24445
2944.91792	1.22200
2942.98936	1.20063
2941.06079	1.18042
2939.13223	1.16052
2937.20366	1.13999
2935.27510	1.11952
2933.34653	1.09975
2931.41797	1.08006
2929.48940	1.06061
2927.56084	1.04183
2925.63228	1.02275
2923.70371	1.00322
2921.77515	0.98440
2919.84658	0.96638
2917.91802	0.94865
2915.98945	0.93118
2914.06089	0.91414
2912.13232	0.89801
2910.20376	0.88277
2908.27520	0.86764
2906.34663	0.85242
2904.41807	0.83759
2902.48950	0.82332
2900.56094	0.80941
2898.63237	0.79589
2896.70381	0.78279
2894.77524	0.76988
2892.84668	0.75722
2890.91812	0.74512
2888.98955	0.73366
2887.06099	0.72250
2885.13242	0.71169
2883.20386	0.70147
2881.27529	0.69157
2879.34673	0.68208
2877.41816	0.67295
2875.48960	0.66341
2873.56104	0.65316
2871.63247	0.64228
2869.70391	0.63070
2867.77534	0.61871
2865.84678	0.60665
2863.91821	0.59437
2861.98965	0.58220
2860.06108	0.57082
2858.13252	0.56045
2856.20396	0.55090
2854.27539	0.54172
2852.34683	0.53258
2850.41826	0.52351
2848.48970	0.51471
2846.56113	0.50636
2844.63257	0.49847
2842.70400	0.49131
2840.77544	0.48491
2838.84687	0.47872
2836.91831	0.47265
2834.98975	0.46683
2833.06118	0.46104
2831.13262	0.45510
2829.20405	0.44906
2827.27549	0.44311
2825.34692	0.43722
2823.41836	0.43133
2821.48979	0.42548
2819.56123	0.41958
2817.63267	0.41358
2815.70410	0.40764
2813.77554	0.40187
2811.84697	0.39635
2809.91841	0.39101
2807.98984	0.38566
2806.06128	0.38020
2804.13271	0.37477
2802.20415	0.36950
2800.27559	0.36423
2798.34702	0.35894
2796.41846	0.35385
2794.48989	0.34899
2792.56133	0.34430
2790.63276	0.33978
2788.70420	0.33536
2786.77563	0.33096
2784.84707	0.32651
2782.91851	0.32205
2780.98994	0.31769
2779.06138	0.31344
2777.13281	0.30933
2775.20425	0.30539
2773.27568	0.30150
2771.34712	0.29761
2769.41855	0.29383
2767.48999	0.29021
2765.56143	0.28659
2763.63286	0.28289
2761.70430	0.27916
2759.77573	0.27561
2757.84717	0.27226
2755.91860	0.26895
2753.99004	0.26584
2752.06147	0.26301
2750.13291	0.26006
2748.20435	0.25681
2746.27578	0.25352
2744.34722	0.25052
2742.41865	0.24783
2740.49009	0.24513
2738.56152	0.24225
2736.63296	0.23942
2734.70439	0.23680
2732.77583	0.23435
2730.84727	0.23208
2728.91870	0.22981
2726.99014	0.22751
2725.06157	0.22527
2723.13301	0.22297
2721.20444	0.22060
2719.27588	0.21843
2717.34731	0.21650
2715.41875	0.21458
2713.49019	0.21265
2711.56162	0.21077
2709.63306	0.20895
2707.70449	0.20711
2705.77593	0.20524
2703.84736	0.20339
2701.91880	0.20171
2699.99023	0.20027
2698.06167	0.19884
2696.13311	0.19725
2694.20454	0.19565
2692.27598	0.19420
2690.34741	0.19289
2688.41885	0.19164
2686.49028	0.19036
2684.56172	0.18909
2682.63315	0.18793
2680.70459	0.18683
2678.77603	0.18570
2676.84746	0.18454
2674.91890	0.18340
2672.99033	0.18232
2671.06177	0.18129
2669.13320	0.18024
2667.20464	0.17916
2665.27607	0.17810
2663.34751	0.17698
2661.41895	0.17581
2659.49038	0.17492
2657.56182	0.17432
2655.63325	0.17371
2653.70469	0.17295
2651.77612	0.17210
2649.84756	0.17133
2647.91899	0.17073
2645.99043	0.17018
2644.06187	0.16955
2642.13330	0.16896
2640.20474	0.16849
2638.27617	0.16799
2636.34761	0.16744
2634.41904	0.16689
2632.49048	0.16628
2630.56191	0.16566
2628.63335	0.16518
2626.70479	0.16479
2624.77622	0.16441
2622.84766	0.16402
2620.91909	0.16374
2618.99053	0.16361
2617.06196	0.16346
2615.13340	0.16322
2613.20483	0.16293
2611.27627	0.16265
2609.34771	0.16230
2607.41914	0.16200
2605.49058	0.16190
2603.56201	0.16184
2601.63345	0.16173
2599.70488	0.16173
2597.77632	0.16177
2595.84775	0.16176
2593.91919	0.16173
2591.99062	0.16169
2590.06206	0.16175
2588.13350	0.16201
2586.20493	0.16227
2584.27637	0.16240
2582.34780	0.16251
2580.41924	0.16263
2578.49067	0.16273
2576.56211	0.16285
2574.63354	0.16303
2572.70498	0.16331
2570.77642	0.16377
2568.84785	0.16431
2566.91929	0.16468
2564.99072	0.16486
2563.06216	0.16508
2561.13359	0.16550
2559.20503	0.16600
2557.27646	0.16630
2555.34790	0.16653
2553.41934	0.16702
2551.49077	0.16768
2549.56221	0.16819
2547.63364	0.16854
2545.70508	0.16896
2543.77651	0.16951
2541.84795	0.17017
2539.91938	0.17084
2537.99082	0.17141
2536.06226	0.17191
2534.13369	0.17248
2532.20513	0.17306
2530.27656	0.17362
2528.34800	0.17429
2526.41943	0.17505
2524.49087	0.17574
2522.56230	0.17641
2520.63374	0.17721
2518.70518	0.17804
2516.77661	0.17879
2514.84805	0.17949
2512.91948	0.18017
2510.99092	0.18094
2509.06235	0.18179
2507.13379	0.18255
2505.20522	0.18322
2503.27666	0.18392
2501.34810	0.18462
2499.41953	0.18530
2497.49097	0.18604
2495.56240	0.18692
2493.63384	0.18790
2491.70527	0.18878
2489.77671	0.18952
2487.84814	0.19023
2485.91958	0.19099
2483.99102	0.19186
2482.06245	0.19281
2480.13389	0.19368
2478.20532	0.19445
2476.27676	0.19523
2474.34819	0.19606
2472.41963	0.19700
2470.49106	0.19805
2468.56250	0.19900
2466.63394	0.19982
2464.70537	0.20066
2462.77681	0.20152
2460.84824	0.20231
2458.91968	0.20312
2456.99111	0.20402
2455.06255	0.20490
2453.13398	0.20577
2451.20542	0.20676
2449.27686	0.20779
2447.34829	0.20873
2445.41973	0.20965
2443.49116	0.21061
2441.56260	0.21170
2439.63403	0.21287
2437.70547	0.21396
2435.77690	0.21491
2433.84834	0.21581
2431.91978	0.21678
2429.99121	0.21785
2428.06265	0.21890
2426.13408	0.21994
2424.20552	0.22096
2422.27695	0.22190
2420.34839	0.22282
2418.41982	0.22385
2416.49126	0.22498
2414.56270	0.22620
2412.63413	0.22747
2410.70557	0.22862
2408.77700	0.22956
2406.84844	0.23061
2404.91987	0.23192
2402.99131	0.23313
2401.06274	0.23414
2399.13418	0.23524
2397.20562	0.23645
2395.27705	0.23763
2393.34849	0.23885
2391.41992	0.24024
2389.49136	0.24172
2387.56279	0.24309
2385.63423	0.24425
2383.70566	0.24530
2381.77710	0.24631
2379.84854	0.24724
2377.91997	0.24814
2375.99141	0.24893
2374.06284	0.24962
2372.13428	0.25058
2370.20571	0.25194
2368.27715	0.25336
2366.34858	0.25454
2364.42002	0.25523
2362.49146	0.25535
2360.56289	0.25576
2358.63433	0.25752
2356.70576	0.26007
2354.77720	0.26287
2352.84863	0.26584
2350.92007	0.26790
2348.99150	0.26889
2347.06294	0.26955
2345.13437	0.27061
2343.20581	0.27236
2341.27725	0.27413
2339.34868	0.27563
2337.42012	0.27705
2335.49155	0.27828
2333.56299	0.27967
2331.63442	0.28165
2329.70586	0.28386
2327.77729	0.28595
2325.84873	0.28782
2323.92017	0.28956
2321.99160	0.29154
2320.06304	0.29384
2318.13447	0.29605
2316.20591	0.29789
2314.27734	0.29968
2312.34878	0.30164
2310.42021	0.30368
2308.49165	0.30574
2306.56309	0.30767
2304.63452	0.30942
2302.70596	0.31115
2300.77739	0.31300
2298.84883	0.31501
2296.92026	0.31710
2294.99170	0.31906
2293.06313	0.32092
2291.13457	0.32281
2289.20601	0.32470
2287.27744	0.32656
2285.34888	0.32846
2283.42031	0.33040
2281.49175	0.33232
2279.56318	0.33425
2277.63462	0.33626
2275.70605	0.33841
2273.77749	0.34057
2271.84893	0.34262
2269.92036	0.34463
2267.99180	0.34667
2266.06323	0.34874
2264.13467	0.35089
2262.20610	0.35313
2260.27754	0.35535
2258.34897	0.35747
2256.42041	0.35958
2254.49185	0.36181
2252.56328	0.36406
2250.63472	0.36619
2248.70615	0.36828
2246.77759	0.37052
2244.84902	0.37287
2242.92046	0.37520
2240.99189	0.37744
2239.06333	0.37947
2237.13477	0.38146
2235.20620	0.38372
2233.27764	0.38612
2231.34907	0.38843
2229.42051	0.39068
2227.49194	0.39289
2225.56338	0.39510
2223.63481	0.39738
2221.70625	0.39959
2219.77769	0.40172
2217.84912	0.40381
2215.92056	0.40583
2213.99199	0.40796
2212.06343	0.41030
2210.13486	0.41259
2208.20630	0.41472
2206.27773	0.41682
2204.34917	0.41894
2202.42061	0.42102
2200.49204	0.42299
2198.56348	0.42493
2196.63491	0.42694
2194.70635	0.42897
2192.77778	0.43087
2190.84922	0.43265
2188.92065	0.43450
2186.99209	0.43637
2185.06353	0.43815
2183.13496	0.43993
2181.20640	0.44166
2179.27783	0.44327
2177.34927	0.44482
2175.42070	0.44636
2173.49214	0.44789
2171.56357	0.44935
2169.63501	0.45076
2167.70645	0.45215
2165.77788	0.45348
2163.84932	0.45475
2161.92075	0.45586
2159.99219	0.45687
2158.06362	0.45794
2156.13506	0.45894
2154.20649	0.45977
2152.27793	0.46064
2150.34937	0.46145
2148.42080	0.46200
2146.49224	0.46248
2144.56367	0.46293
2142.63511	0.46335
2140.70654	0.46377
2138.77798	0.46413
2136.84941	0.46430
2134.92085	0.46427
2132.99229	0.46410
2131.06372	0.46396
2129.13516	0.46395
2127.20659	0.46390
2125.27803	0.46365
2123.34946	0.46321
2121.42090	0.46272
2119.49233	0.46213
2117.56377	0.46132
2115.63521	0.46040
2113.70664	0.45965
2111.77808	0.45898
2109.84951	0.45819
2107.92095	0.45720
2105.99238	0.45602
2104.06382	0.45477
2102.13525	0.45349
2100.20669	0.45219
2098.27812	0.45082
2096.34956	0.44933
2094.42100	0.44778
2092.49243	0.44620
2090.56387	0.44456
2088.63530	0.44273
2086.70674	0.44077
2084.77817	0.43887
2082.84961	0.43704
2080.92104	0.43513
2078.99248	0.43307
2077.06392	0.43097
2075.13535	0.42894
2073.20679	0.42679
2071.27822	0.42447
2069.34966	0.42215
2067.42109	0.41985
2065.49253	0.41754
2063.56396	0.41511
2061.63540	0.41255
2059.70684	0.41000
2057.77827	0.40757
2055.84971	0.40517
2053.92114	0.40259
2051.99258	0.39985
2050.06401	0.39715
2048.13545	0.39450
2046.20688	0.39177
2044.27832	0.38908
2042.34976	0.38653
2040.42119	0.38389
2038.49263	0.38106
2036.56406	0.37822
2034.63550	0.37543
2032.70693	0.37260
2030.77837	0.36974
2028.84980	0.36684
2026.92124	0.36399
2024.99268	0.36124
2023.06411	0.35856
2021.13555	0.35590
2019.20698	0.35321
2017.27842	0.35043
2015.34985	0.34758
2013.42129	0.34477
2011.49272	0.34199
2009.56416	0.33919
2007.63560	0.33638
2005.70703	0.33358
2003.77847	0.33080
2001.84990	0.32808
1999.92134	0.32547
1997.99277	0.32288
1996.06421	0.32030
1994.13564	0.31787
1992.20708	0.31554
1990.27852	0.31307
1988.34995	0.31042
1986.42139	0.30776
1984.49282	0.30521
1982.56426	0.30274
1980.63569	0.30037
1978.70713	0.29810
1976.77856	0.29589
1974.85000	0.29368
1972.92144	0.29149
1970.99287	0.28941
1969.06431	0.28747
1967.13574	0.28550
1965.20718	0.28334
1963.27861	0.28121
1961.35005	0.27927
1959.42148	0.27739
1957.49292	0.27549
1955.56436	0.27362
1953.63579	0.27181
1951.70723	0.27000
1949.77866	0.26826
1947.85010	0.26669
1945.92153	0.26523
1943.99297	0.26375
1942.06440	0.26226
1940.13584	0.26073
1938.20728	0.25922
1936.27871	0.25775
1934.35015	0.25638
1932.42158	0.25516
1930.49302	0.25399
1928.56445	0.25282
1926.63589	0.25166
1924.70732	0.25067
1922.77876	0.24982
1920.85020	0.24891
1918.92163	0.24804
1916.99307	0.24720
1915.06450	0.24613
1913.13594	0.24504
1911.20737	0.24426
1909.27881	0.24362
1907.35024	0.24294
1905.42168	0.24219
1903.49312	0.24155
1901.56455	0.24110
1899.63599	0.24066
1897.70742	0.24011
1895.77886	0.23961
1893.85029	0.23925
1891.92173	0.23896
1889.99316	0.23883
1888.06460	0.23869
1886.13604	0.23839
1884.20747	0.23805
1882.27891	0.23770
1880.35034	0.23743
1878.42178	0.23730
1876.49321	0.23731
1874.56465	0.23731
1872.63608	0.23736
1870.70752	0.23769
1868.77896	0.23835
1866.85039	0.23861
1864.92183	0.23835
1862.99326	0.23824
1861.06470	0.23844
1859.13613	0.23880
1857.20757	0.23912
1855.27900	0.23950
1853.35044	0.23994
1851.42187	0.24048
1849.49331	0.24108
1847.56475	0.24177
1845.63618	0.24259
1843.70762	0.24355
1841.77905	0.24428
1839.85049	0.24476
1837.92192	0.24555
1835.99336	0.24645
1834.06479	0.24732
1832.13623	0.24836
1830.20767	0.24995
1828.27910	0.25158
1826.35054	0.25264
1824.42197	0.25380
1822.49341	0.25496
1820.56484	0.25607
1818.63628	0.25741
1816.70771	0.25900
1814.77915	0.26058
1812.85059	0.26229
1810.92202	0.26435
1808.99346	0.26648
1807.06489	0.26840
1805.13633	0.27018
1803.20776	0.27226
1801.27920	0.27481
1799.35063	0.27774
1797.42207	0.28034
1795.49351	0.28273
1793.56494	0.28557
1791.63638	0.28928
1789.70781	0.29267
1787.77925	0.29512
1785.85068	0.29815
1783.92212	0.30181
1781.99355	0.30570
1780.06499	0.30988
1778.13643	0.31420
1776.20786	0.31826
1774.27930	0.32264
1772.35073	0.32855
1770.42217	0.33483
1768.49360	0.33990
1766.56504	0.34483
1764.63647	0.34997
1762.70791	0.35572
1760.77935	0.36320
1758.85078	0.37032
1756.92222	0.37745
1754.99365	0.38514
1753.06509	0.39205
1751.13652	0.40035
1749.20796	0.41093
1747.27939	0.42118
1745.35083	0.43008
1743.42227	0.43951
1741.49370	0.44991
1739.56514	0.46233
1737.63657	0.47490
1735.70801	0.48577
1733.77944	0.50206
1731.85088	0.52150
1729.92231	0.53654
1727.99375	0.55196
1726.06519	0.56878
1724.13662	0.58729
1722.20806	0.60718
1720.27949	0.62533
1718.35093	0.64680
1716.42236	0.67944
1714.49380	0.71034
1712.56523	0.73473
1710.63667	0.75852
1708.70811	0.78430
1706.77954	0.81354
1704.85098	0.84875
1702.92241	0.88030
1700.99385	0.91117
1699.06528	0.95800
1697.13672	1.00173
1695.20815	1.04663
1693.27959	1.09023
1691.35103	1.12516
1689.42246	1.16617
1687.49390	1.21043
1685.56533	1.25324
1683.63677	1.31994
1681.70820	1.38990
1679.77964	1.43349
1677.85107	1.47471
1675.92251	1.52222
1673.99395	1.58283
1672.06538	1.63771
1670.13682	1.69114
1668.20825	1.76170
1666.27969	1.81881
1664.35112	1.86780
1662.42256	1.93168
1660.49399	2.00713
1658.56543	2.06650
1656.63687	2.11450
1654.70830	2.15725
1652.77974	2.21941
1650.85117	2.27821
1648.92261	2.29827
1646.99404	2.32208
1645.06548	2.34514
1643.13691	2.36320
1641.20835	2.37360
1639.27979	2.38185
1637.35122	2.38437
1635.42266	2.37834
1633.49409	2.36652
1631.56553	2.35107
1629.63696	2.33294
1627.70840	2.30196
1625.77983	2.26653
1623.85127	2.22216
1621.92271	2.16845
1619.99414	2.12068
1618.06558	2.07257
1616.13701	2.00388
1614.20845	1.93652
1612.27988	1.88665
1610.35132	1.83404
1608.42275	1.77596
1606.49419	1.71843
1604.56562	1.66649
1602.63706	1.61707
1600.70850	1.56896
1598.77993	1.52462
1596.85137	1.48315
1594.92280	1.44324
1592.99424	1.40489
1591.06567	1.37009
1589.13711	1.33797
1587.20854	1.30863
1585.27998	1.28191
1583.35142	1.25729
1581.42285	1.23506
1579.49429	1.21622
1577.56572	1.19988
1575.63716	1.18121
1573.70859	1.16573
1571.78003	1.15644
1569.85146	1.14795
1567.92290	1.13926
1565.99434	1.13347
1564.06577	1.13031
1562.13721	1.12866
1560.20864	1.12991
1558.28008	1.13922
1556.35151	1.14857
1554.42295	1.15298
1552.49438	1.15771
1550.56582	1.16065
1548.63726	1.16016
1546.70869	1.15596
1544.78013	1.14786
1542.85156	1.13576
1540.92300	1.11582
1538.99443	1.08237
1537.06587	1.05782
1535.13730	1.04092
1533.20874	1.01793
1531.28018	0.99362
1529.35161	0.97625
1527.42305	0.95961
1525.49448	0.94214
1523.56592	0.92778
1521.63735	0.91483
1519.70879	0.90177
1517.78022	0.89063
1515.85166	0.87726
1513.92310	0.86288
1511.99453	0.85026
1510.06597	0.83896
1508.13740	0.82801
1506.20884	0.81023
1504.28027	0.79481
1502.35171	0.78644
1500.42314	0.77940
1498.49458	0.77198
1496.56602	0.76303
1494.63745	0.75412
1492.70889	0.74747
1490.78032	0.74162
1488.85176	0.73472
1486.92319	0.72829
1484.99463	0.72345
1483.06606	0.71988
1481.13750	0.71706
1479.20894	0.71490
1477.28037	0.71381
1475.35181	0.71378
1473.42324	0.71443
1471.49468	0.71431
1469.56611	0.71247
1467.63755	0.71025
1465.70898	0.70852
1463.78042	0.70733
1461.85186	0.70691
1459.92329	0.70732
1457.99473	0.70807
1456.06616	0.70751
1454.13760	0.70519
1452.20903	0.70266
1450.28047	0.70010
1448.35190	0.69748
1446.42334	0.69464
1444.49478	0.69179
1442.56621	0.68897
1440.63765	0.68606
1438.70908	0.68309
1436.78052	0.67927
1434.85195	0.67487
1432.92339	0.67177
1430.99482	0.66994
1429.06626	0.66911
1427.13770	0.66918
1425.20913	0.66985
1423.28057	0.67089
1421.35200	0.67193
1419.42344	0.67308
1417.49487	0.67375
1415.56631	0.67313
1413.63774	0.67243
1411.70918	0.67264
1409.78062	0.67401
1407.85205	0.67612
1405.92349	0.67874
1403.99492	0.68125
1402.06636	0.68237
1400.13779	0.68199
1398.20923	0.68037
1396.28066	0.67765
1394.35210	0.67349
1392.42354	0.66829
1390.49497	0.66338
1388.56641	0.65845
1386.63784	0.65241
1384.70928	0.64591
1382.78071	0.63991
1380.85215	0.63430
1378.92358	0.62940
1376.99502	0.62577
1375.06646	0.62348
1373.13789	0.62184
1371.20933	0.62051
1369.28076	0.61954
1367.35220	0.61843
1365.42363	0.61691
1363.49507	0.61525
1361.56650	0.61351
1359.63794	0.61174
1357.70937	0.61019
1355.78081	0.60893
1353.85225	0.60783
1351.92368	0.60684
1349.99512	0.60613
1348.06655	0.60573
1346.13799	0.60528
1344.20942	0.60461
1342.28086	0.60388
1340.35229	0.60328
1338.42373	0.60282
1336.49517	0.60237
1334.56660	0.60203
1332.63804	0.60201
1330.70947	0.60236
1328.78091	0.60298
1326.85234	0.60380
1324.92378	0.60480
1322.99521	0.60599
1321.06665	0.60722
1319.13809	0.60822
1317.20952	0.60891
1315.28096	0.60924
1313.35239	0.60910
1311.42383	0.60852
1309.49526	0.60787
1307.56670	0.60745
1305.63813	0.60718
1303.70957	0.60676
1301.78101	0.60609
1299.85244	0.60513
1297.92388	0.60388
1295.99531	0.60238
1294.06675	0.60086
1292.13818	0.59948
1290.20962	0.59811
1288.28105	0.59663
1286.35249	0.59506
1284.42393	0.59352
1282.49536	0.59210
1280.56680	0.59071
1278.63823	0.58910
1276.70967	0.58741
1274.78110	0.58600
1272.85254	0.58497
1270.92397	0.58417
1268.99541	0.58331
1267.06685	0.58233
1265.13828	0.58131
1263.20972	0.58033
1261.28115	0.57954
1259.35259	0.57891
1257.42402	0.57826
1255.49546	0.57774
1253.56689	0.57767
1251.63833	0.57804
1249.70977	0.57841
1247.78120	0.57859
1245.85264	0.57860
1243.92407	0.57814
1241.99551	0.57711
1240.06694	0.57560
1238.13838	0.57354
1236.20981	0.57108
1234.28125	0.56842
1232.35269	0.56571
1230.42412	0.56311
1228.49556	0.56080
1226.56699	0.55876
1224.63843	0.55677
1222.70986	0.55472
1220.78130	0.55277
1218.85273	0.55114
1216.92417	0.54981
1214.99561	0.54865
1213.06704	0.54763
1211.13848	0.54673
1209.20991	0.54588
1207.28135	0.54515
1205.35278	0.54438
1203.42422	0.54334
1201.49565	0.54209
1199.56709	0.54102
1197.63853	0.54019
1195.70996	0.53941
1193.78140	0.53875
1191.85283	0.53830
1189.92427	0.53795
1187.99570	0.53769
1186.06714	0.53754
1184.13857	0.53765
1182.21001	0.53819
1180.28145	0.53918
1178.35288	0.54057
1176.42432	0.54216
1174.49575	0.54350
1172.56719	0.54421
1170.63862	0.54420
1168.71006	0.54389
1166.78149	0.54359
1164.85293	0.54309
1162.92437	0.54227
1160.99580	0.54135
1159.06724	0.54047
1157.13867	0.53956
1155.21011	0.53859
1153.28154	0.53732
1151.35298	0.53554
1149.42441	0.53326
1147.49585	0.53063
1145.56729	0.52780
1143.63872	0.52505
1141.71016	0.52264
1139.78159	0.52070
1137.85303	0.51929
1135.92446	0.51835
1133.99590	0.51777
1132.06733	0.51750
1130.13877	0.51726
1128.21021	0.51673
1126.28164	0.51605
1124.35308	0.51535
1122.42451	0.51455
1120.49595	0.51386
1118.56738	0.51367
1116.63882	0.51384
1114.71025	0.51387
1112.78169	0.51363
1110.85312	0.51359
1108.92456	0.51419
1106.99600	0.51534
1105.06743	0.51667
1103.13887	0.51794
1101.21030	0.51922
1099.28174	0.52099
1097.35317	0.52362
1095.42461	0.52672
1093.49604	0.53005
1091.56748	0.53396
1089.63892	0.53878
1087.71035	0.54457
1085.78179	0.55112
1083.85322	0.55790
1081.92466	0.56417
1079.99609	0.56897
1078.06753	0.57153
1076.13896	0.57160
1074.21040	0.56923
1072.28184	0.56472
1070.35327	0.55862
1068.42471	0.55182
1066.49614	0.54517
1064.56758	0.53893
1062.63901	0.53315
1060.71045	0.52811
1058.78188	0.52375
1056.85332	0.51989
1054.92476	0.51648
1052.99619	0.51335
1051.06763	0.51048
1049.13906	0.50806
1047.21050	0.50610
1045.28193	0.50447
1043.35337	0.50290
1041.42480	0.50131
1039.49624	0.49997
1037.56768	0.49900
1035.63911	0.49829
1033.71055	0.49780
1031.78198	0.49736
1029.85342	0.49689
1027.92485	0.49633
1025.99629	0.49577
1024.06772	0.49551
1022.13916	0.49544
1020.21060	0.49546
1018.28203	0.49597
1016.35347	0.49678
1014.42490	0.49740
1012.49634	0.49786
1010.56777	0.49838
1008.63921	0.49916
1006.71064	0.50046
1004.78208	0.50234
1002.85352	0.50460
1000.92495	0.50722
998.99639	0.51046
997.06782	0.51453
995.13926	0.51898
993.21069	0.52303
991.28213	0.52633
989.35356	0.52891
987.42500	0.53061
985.49644	0.53128
983.56787	0.53139
981.63931	0.53183
979.71074	0.53299
977.78218	0.53461
975.85361	0.53641
973.92505	0.53852
971.99648	0.54129
970.06792	0.54480
968.13936	0.54871
966.21079	0.55268
964.28223	0.55687
962.35366	0.56155
960.42510	0.56659
958.49653	0.57181
956.56797	0.57715
954.63940	0.58275
952.71084	0.58881
950.78228	0.59516
948.85371	0.60159
946.92515	0.60810
944.99658	0.61470
943.06802	0.62118
941.13945	0.62741
939.21089	0.63341
937.28232	0.63937
935.35376	0.64519
933.42520	0.65051
931.49663	0.65567
929.56807	0.66143
927.63950	0.66756
925.71094	0.67372
923.78237	0.68025
921.85381	0.68692
919.92524	0.69355
917.99668	0.70069
916.06812	0.70804
914.13955	0.71536
912.21099	0.72309
910.28242	0.73080
908.35386	0.73818
906.42529	0.74622
904.49673	0.75549
902.56816	0.76533
900.63960	0.77554
898.71104	0.78581
896.78247	0.79508
894.85391	0.80337
892.92534	0.81233
890.99678	0.82303
889.06821	0.83416
887.13965	0.84519
885.21108	0.85743
883.28252	0.87020
881.35396	0.88219
879.42539	0.89412
877.49683	0.90540
875.56826	0.91558
873.63970	0.92699
871.71113	0.93938
869.78257	0.94995
867.85400	0.96006
865.92544	0.97210
863.99687	0.98455
862.06831	0.99585
860.13975	1.00660
858.21118	1.01766
856.28262	1.02971
854.35405	1.04345
852.42549	1.05747
850.49692	1.06860
848.56836	1.07744
846.63979	1.08791
844.71123	1.10151
842.78267	1.11763
840.85410	1.13364
838.92554	1.14335
836.99697	1.14771
835.06841	1.15473
833.13984	1.16517
831.21128	1.17775
829.28271	1.19300
827.35415	1.20725
825.42559	1.21798
823.49702	1.22832
821.56846	1.24051
819.63989	1.25307
817.71133	1.26479
815.78276	1.27875
813.85420	1.29473
811.92563	1.30576
809.99707	1.31409
808.06851	1.32895
806.13994	1.34586
804.21138	1.34709
802.28281	1.33783
800.35425	1.34542
798.42568	1.38320
796.49712	1.42794
794.56855	1.45075
792.63999	1.50985
790.71143	1.62714
788.78286	1.63050
786.85430	1.54479
784.92573	1.50154
782.99717	1.44306
781.06860	1.39233
779.14004	1.42991
777.21147	1.54821
775.28291	1.65604
773.35435	1.61754
771.42578	1.53518
769.49722	1.55869
767.56865	1.68543
765.64009	1.86854
763.71152	1.89262
761.78296	1.66447
759.85439	1.55795
757.92583	1.57192
755.99727	1.48560
754.06870	1.41638
752.14014	1.58098
750.21157	1.75419
748.28301	1.50145
746.35444	1.46329
744.42588	1.47215
742.49731	1.34057
740.56875	1.28249
738.64019	1.20565
736.71162	1.03443
734.78306	0.89855
732.85449	0.87085
730.92593	0.92725
728.99736	0.84668
727.06880	0.88085
725.14023	4.35084
723.21167	4.33927
721.28311	4.32770
719.35454	4.31613
717.42598	0.48303
715.49741	0.01654
713.56885	-0.19678
711.64028	-0.16328
709.71172	-0.12566
707.78315	-0.42969
705.85459	-0.53994
703.92603	-0.02811
701.99746	0.30551
700.06890	0.76682
698.14033	0.84270
696.21177	0.79700
694.28320	0.91186
692.35464	0.56447
690.42607	0.36562
688.49751	0.31965
686.56895	0.31472
684.64038	0.31374
682.71182	0.39472
680.78325	0.61917
678.85469	0.81970
676.92612	0.54737
674.99756	0.31007
673.06899	0.19406
671.14043	0.21650
669.21187	0.30173
667.28330	0.36910
665.35474	0.41047
663.42617	0.39383
661.49761	0.35187
659.56904	0.25459
657.64048	0.18108
655.71191	0.27570
653.78335	0.51162
651.85479	0.57148
649.92622	0.42531
647.99766	0.33001
646.06909	0.25826
644.14053	0.20158
642.21196	0.22116
640.28340	0.36716
638.35483	0.52089
636.42627	0.56097
634.49771	0.54214
632.56914	0.43683
630.64058	0.28055
628.71201	0.19033
626.78345	0.22701
624.85488	0.34977
622.92632	0.38574
620.99775	0.29182
619.06919	0.22347
617.14062	0.27282
615.21206	0.47048
613.28350	1.92235
611.35493	3.66813
609.42637	0.94640
607.49780	0.41227
605.56924	0.29698
603.64067	0.31277
601.71211	0.40244
599.78354	0.63256
597.85498	0.72819
595.92642	0.38768
593.99785	0.25495
592.06929	0.27147
590.14072	0.34628
588.21216	0.35852
586.28359	0.31508
584.35503	0.27255
582.42646	0.28339
580.49790	0.41673
578.56934	0.58476
576.64077	0.58572
574.71221	0.67289
572.78364	0.73036
570.85508	0.41993
568.92651	0.27337
566.99795	0.22024
565.06938	0.18909
563.14082	0.20080
561.21226	0.25105
559.28369	0.27579
557.35513	0.27674
555.42656	0.26956
553.49800	0.25619
551.56943	0.23842
549.64087	0.21017
547.71230	0.21211
545.78374	0.26056
543.85518	0.27153
541.92661	0.24523
539.99805	0.23696
538.06948	0.26772
536.14092	0.31438
534.21235	0.30306
532.28379	0.24745
530.35522	0.23394
528.42666	0.24708
526.49810	0.23569
524.56953	0.22070
522.64097	0.23131
520.71240	0.26333
518.78384	0.31623
516.85527	0.30275
514.92671	0.22013
512.99814	0.16130
511.06958	0.12343
509.14102	0.11561
507.21245	0.17512
505.28389	0.23595
503.35532	0.20264
501.42676	0.15022
499.49819	0.17797
