3997.91411	0.07381
3995.98555	0.07434
3994.05698	0.07474
3992.12842	0.07501
3990.19985	0.07547
3988.27129	0.07584
3986.34272	0.07571
3984.41416	0.07562
3982.48560	0.07591
3980.55703	0.07618
3978.62847	0.07638
3976.69990	0.07695
3974.77134	0.07759
3972.84277	0.07756
3970.91421	0.07711
3968.98564	0.07707
3967.05708	0.07745
3965.12852	0.07779
3963.19995	0.07805
3961.27139	0.07809
3959.34282	0.07765
3957.41426	0.07721
3955.48569	0.07733
3953.55713	0.07770
3951.62856	0.07803
3949.70000	0.07865
3947.77144	0.07936
3945.84287	0.07949
3943.91431	0.07919
3941.98574	0.07876
3940.05718	0.07817
3938.12861	0.07784
3936.20005	0.07786
3934.27148	0.07797
3932.34292	0.07830
3930.41436	0.07885
3928.48579	0.07901
3926.55723	0.07891
3924.62866	0.07920
3922.70010	0.07944
3920.77153	0.07922
3918.84297	0.07908
3916.91440	0.07909
3914.98584	0.07883
3913.05728	0.07819
3911.12871	0.07768
3909.20015	0.07752
3907.27158	0.07780
3905.34302	0.07888
3903.41445	0.08022
3901.48589	0.08040
3899.55732	0.07950
3897.62876	0.07814
3895.70020	0.07712
3893.77163	0.07725
3891.84307	0.07847
3889.91450	0.07929
3887.98594	0.07892
3886.05737	0.07880
3884.12881	0.07917
3882.20024	0.07931
3880.27168	0.07950
3878.34312	0.07950
3876.41455	0.07910
3874.48599	0.07915
3872.55742	0.07994
3870.62886	0.08106
3868.70029	0.08209
3866.77173	0.08235
3864.84316	0.08247
3862.91460	0.08284
3860.98604	0.08240
3859.05747	0.08140
3857.12891	0.08126
3855.20034	0.08253
3853.27178	0.08517
3851.34321	0.08701
3849.41465	0.08572
3847.48608	0.08405
3845.55752	0.08355
3843.62896	0.08435
3841.70039	0.08600
3839.77183	0.08802
3837.84326	0.09000
3835.91470	0.09054
3833.98613	0.08959
3832.05757	0.08883
3830.12900	0.08906
3828.20044	0.08988
3826.27187	0.09088
3824.34331	0.09172
3822.41475	0.09251
3820.48618	0.09436
3818.55762	0.09627
3816.62905	0.09720
3814.70049	0.09762
3812.77192	0.09685
3810.84336	0.09619
3808.91479	0.09682
3806.98623	0.09879
3805.05767	0.10110
3803.12910	0.10285
3801.20054	0.10496
3799.27197	0.10668
3797.34341	0.10711
3795.41484	0.10754
3793.48628	0.10785
3791.55771	0.10816
3789.62915	0.10905
3787.70059	0.11046
3785.77202	0.11221
3783.84346	0.11391
3781.91489	0.11531
3779.98633	0.11700
3778.05776	0.11894
3776.12920	0.12000
3774.20063	0.12080
3772.27207	0.12242
3770.34351	0.12490
3768.41494	0.12747
3766.48638	0.12945
3764.55781	0.13122
3762.62925	0.13285
3760.70068	0.13498
3758.77212	0.13835
3756.84355	0.14159
3754.91499	0.14363
3752.98643	0.14581
3751.05786	0.14959
3749.12930	0.15408
3747.20073	0.15599
3745.27217	0.15744
3743.34360	0.16132
3741.41504	0.16495
3739.48647	0.16683
3737.55791	0.16905
3735.62935	0.17273
3733.70078	0.17822
3731.77222	0.18345
3729.84365	0.18676
3727.91509	0.18973
3725.98652	0.19445
3724.05796	0.20117
3722.12939	0.20880
3720.20083	0.21683
3718.27227	0.22479
3716.34370	0.23259
3714.41514	0.24037
3712.48657	0.24983
3710.55801	0.26321
3708.62944	0.27685
3706.70088	0.28754
3704.77231	0.29809
3702.84375	0.31119
3700.91519	0.32867
3698.98662	0.34738
3697.05806	0.36454
3695.12949	0.38287
3693.20093	0.40276
3691.27236	0.42507
3689.34380	0.45475
3687.41523	0.49053
3685.48667	0.52066
3683.55811	0.54681
3681.62954	0.57483
3679.70098	0.60587
3677.77241	0.63887
3675.84385	0.67931
3673.91528	0.73438
3671.98672	0.77758
3670.05815	0.81565
3668.12959	0.86995
3666.20103	0.91922
3664.27246	0.95987
3662.34390	1.00332
3660.41533	1.05015
3658.48677	1.09634
3656.55820	1.14583
3654.62964	1.20171
3652.70107	1.24810
3650.77251	1.28770
3648.84395	1.34447
3646.91538	1.41668
3644.98682	1.46849
3643.05825	1.50736
3641.12969	1.54653
3639.20112	1.58956
3637.27256	1.63330
3635.34399	1.67659
3633.41543	1.72047
3631.48687	1.76077
3629.55830	1.80010
3627.62974	1.85420
3625.70117	1.90655
3623.77261	1.94079
3621.84404	1.97383
3619.91548	2.01296
3617.98691	2.05984
3616.05835	2.10365
3614.12979	2.14068
3612.20122	2.18097
3610.27266	2.22144
3608.34409	2.26155
3606.41553	2.30410
3604.48696	2.34351
3602.55840	2.37836
3600.62983	2.41628
3598.70127	2.45839
3596.77271	2.49898
3594.84414	2.53952
3592.91558	2.58236
3590.98701	2.62177
3589.05845	2.65610
3587.12988	2.69827
3585.20132	2.74855
3583.27275	2.79203
3581.34419	2.83014
3579.41562	2.86906
3577.48706	2.91138
3575.55850	2.95665
3573.62993	3.00347
3571.70137	3.04704
3569.77280	3.08612
3567.84424	3.12640
3565.91567	3.17741
3563.98711	3.22947
3562.05854	3.27179
3560.12998	3.31262
3558.20142	3.35624
3556.27285	3.40030
3554.34429	3.44200
3552.41572	3.48732
3550.48716	3.53740
3548.55859	3.58460
3546.63003	3.62946
3544.70146	3.67884
3542.77290	3.73098
3540.84434	3.77854
3538.91577	3.82153
3536.98721	3.86488
3535.05864	3.91329
3533.13008	3.96401
3531.20151	4.01406
3529.27295	4.06411
3527.34438	4.11484
3525.41582	4.16166
3523.48726	4.20290
3521.55869	4.24715
3519.63013	4.29707
3517.70156	4.34649
3515.77300	4.39080
3513.84443	4.43348
3511.91587	4.48002
3509.98730	4.53304
3508.05874	4.58829
3506.13018	4.63728
3504.20161	4.68068
3502.27305	4.72514
3500.34448	4.77220
3498.41592	4.82040
3496.48735	4.87113
3494.55879	4.92172
3492.63022	4.97137
3490.70166	5.02387
3488.77310	5.07556
3486.84453	5.11876
3484.91597	5.15536
3482.98740	5.19736
3481.05884	5.25303
3479.13027	5.31057
3477.20171	5.35874
3475.27314	5.40512
3473.34458	5.45521
3471.41602	5.50522
3469.48745	5.54672
3467.55889	5.58503
3465.63032	5.63578
3463.70176	5.69468
3461.77319	5.73953
3459.84463	5.77065
3457.91606	5.80916
3455.98750	5.86101
3454.05894	5.92665
3452.13037	6.00287
3450.20181	6.06330
3448.27324	6.09808
3446.34468	6.13931
3444.41611	6.19459
3442.48755	6.24728
3440.55898	6.30359
3438.63042	6.36837
3436.70186	6.41925
3434.77329	6.44702
3432.84473	6.47435
3430.91616	6.51313
3428.98760	6.56714
3427.05903	6.63468
3425.13047	6.69796
3423.20190	6.73486
3421.27334	6.75849
3419.34478	6.79936
3417.41621	6.85275
3415.48765	6.88354
3413.55908	6.88978
3411.63052	6.92050
3409.70195	7.00734
3407.77339	7.12238
3405.84482	7.17858
3403.91626	7.15530
3401.98770	7.12102
3400.05913	7.13329
3398.13057	7.19700
3396.20200	7.27214
3394.27344	7.32107
3392.34487	7.35004
3390.41631	7.42161
3388.48774	7.53798
3386.55918	7.64173
3384.63062	7.69341
3382.70205	7.68028
3380.77349	7.63510
3378.84492	7.62913
3376.91636	7.66077
3374.98779	7.67258
3373.05923	7.67910
3371.13066	7.68106
3369.20210	7.70831
3367.27354	7.80360
3365.34497	7.90274
3363.41641	7.91937
3361.48784	7.91349
3359.55928	7.94065
3357.63071	7.94873
3355.70215	7.90802
3353.77358	7.84338
3351.84502	7.85402
3349.91646	7.93270
3347.98789	7.98156
3346.05933	7.98040
3344.13076	7.99135
3342.20220	8.03979
3340.27363	8.09157
3338.34507	8.13425
3336.41650	8.10492
3334.48794	8.06401
3332.55937	8.08018
3330.63081	8.07376
3328.70225	8.01270
3326.77368	7.95977
3324.84512	7.97814
3322.91655	8.08713
3320.98799	8.18809
3319.05942	8.18728
3317.13086	8.17894
3315.20229	8.17169
3313.27373	8.16338
3311.34517	8.14432
3309.41660	8.07411
3307.48804	8.01956
3305.55947	8.03263
3303.63091	8.13078
3301.70234	8.25383
3299.77378	8.31236
3297.84521	8.29093
3295.91665	8.26902
3293.98809	8.25635
3292.05952	8.20729
3290.13096	8.19619
3288.20239	8.22384
3286.27383	8.18706
3284.34526	8.16836
3282.41670	8.24409
3280.48813	8.26500
3278.55957	8.23282
3276.63101	8.24419
3274.70244	8.30582
3272.77388	8.40982
3270.84531	8.49600
3268.91675	8.56482
3266.98818	8.59544
3265.05962	8.44484
3263.13105	8.24175
3261.20249	8.22802
3259.27393	8.29051
3257.34536	8.27072
3255.41680	8.22173
3253.48823	8.18566
3251.55967	8.19877
3249.63110	8.27922
3247.70254	8.39139
3245.77397	8.42880
3243.84541	8.35644
3241.91685	8.26777
3239.98828	8.21981
3238.05972	8.21216
3236.13115	8.25277
3234.20259	8.30936
3232.27402	8.31361
3230.34546	8.26433
3228.41689	8.18408
3226.48833	8.09566
3224.55977	8.07596
3222.63120	8.16988
3220.70264	8.18965
3218.77407	8.00273
3216.84551	7.84408
3214.91694	7.86388
3212.98838	7.98338
3211.05981	8.10122
3209.13125	8.16125
3207.20269	8.10085
3205.27412	8.03124
3203.34556	8.05997
3201.41699	8.08305
3199.48843	7.98280
3197.55986	7.83507
3195.63130	7.74680
3193.70273	7.71863
3191.77417	7.69699
3189.84561	7.62811
3187.91704	7.53973
3185.98848	7.48580
3184.05991	7.42681
3182.13135	7.34221
3180.20278	7.30392
3178.27422	7.30097
3176.34565	7.23540
3174.41709	7.12001
3172.48853	7.04371
3170.55996	7.01366
3168.63140	6.96987
3166.70283	6.88913
3164.77427	6.81415
3162.84570	6.77618
3160.91714	6.73816
3158.98857	6.67151
3157.06001	6.60463
3155.13145	6.54260
3153.20288	6.47012
3151.27432	6.39871
3149.34575	6.33255
3147.41719	6.26466
3145.48862	6.19941
3143.56006	6.13297
3141.63149	6.05865
3139.70293	5.98516
3137.77437	5.91948
3135.84580	5.85037
3133.91724	5.77498
3131.98867	5.70697
3130.06011	5.64714
3128.13154	5.58372
3126.20298	5.51142
3124.27441	5.43260
3122.34585	5.35427
3120.41729	5.28418
3118.48872	5.21771
3116.56016	5.15307
3114.63159	5.09273
3112.70303	5.02406
3110.77446	4.94553
3108.84590	4.87321
3106.91733	4.80853
3104.98877	4.74409
3103.06021	4.68019
3101.13164	4.61406
3099.20308	4.54295
3097.27451	4.47103
3095.34595	4.40327
3093.41738	4.33902
3091.48882	4.27397
3089.56025	4.21043
3087.63169	4.15061
3085.70312	4.09233
3083.77456	4.03503
3081.84600	3.97667
3079.91743	3.91474
3077.98887	3.85254
3076.06030	3.79413
3074.13174	3.73659
3072.20317	3.67778
3070.27461	3.62177
3068.34604	3.56879
3066.41748	3.51446
3064.48892	3.45905
3062.56035	3.40509
3060.63179	3.35160
3058.70322	3.29717
3056.77466	3.24302
3054.84609	3.19067
3052.91753	3.13977
3050.98896	3.08950
3049.06040	3.03983
3047.13184	2.99045
3045.20327	2.94049
3043.27471	2.89071
3041.34614	2.84355
3039.41758	2.79812
3037.48901	2.75062
3035.56045	2.70214
3033.63188	2.65698
3031.70332	2.61422
3029.77476	2.57069
3027.84619	2.52732
3025.91763	2.48519
3023.98906	2.44286
3022.06050	2.40063
3020.13193	2.35945
3018.20337	2.31879
3016.27480	2.27859
3014.34624	2.23954
3012.41768	2.20125
3010.48911	2.16299
3008.56055	2.12568
3006.63198	2.08962
3004.70342	2.05371
3002.77485	2.01839
3000.84629	1.98444
2998.91772	1.95113
2996.98916	1.91836
2995.06060	1.88660
2993.13203	1.85533
2991.20347	1.82445
2989.27490	1.79446
2987.34634	1.76538
2985.41777	1.73677
2983.48921	1.70818
2981.56064	1.67985
2979.63208	1.65235
2977.70352	1.62601
2975.77495	1.60076
2973.84639	1.57587
2971.91782	1.55057
2969.98926	1.52489
2968.06069	1.49938
2966.13213	1.47451
2964.20356	1.44992
2962.27500	1.42525
2960.34644	1.40095
2958.41787	1.37738
2956.48931	1.35380
2954.56074	1.32932
2952.63218	1.30487
2950.70361	1.28159
2948.77505	1.25888
2946.84648	1.23637
2944.91792	1.21429
2942.98936	1.19252
2941.06079	1.17166
2939.13223	1.15183
2937.20366	1.13167
2935.27510	1.11049
2933.34653	1.08888
2931.41797	1.06723
2929.48940	1.04586
2927.56084	1.02536
2925.63228	1.00576
2923.70371	0.98692
2921.77515	0.96934
2919.84658	0.95289
2917.91802	0.93648
2915.98945	0.92004
2914.06089	0.90477
2912.13232	0.89082
2910.20376	0.87697
2908.27520	0.86268
2906.34663	0.84848
2904.41807	0.83465
2902.48950	0.82094
2900.56094	0.80746
2898.63237	0.79455
2896.70381	0.78209
2894.77524	0.76996
2892.84668	0.75815
2890.91812	0.74647
2888.98955	0.73495
2887.06099	0.72387
2885.13242	0.71344
2883.20386	0.70358
2881.27529	0.69391
2879.34673	0.68413
2877.41816	0.67415
2875.48960	0.66401
2873.56104	0.65357
2871.63247	0.64260
2869.70391	0.63120
2867.77534	0.61957
2865.84678	0.60760
2863.91821	0.59523
2861.98965	0.58291
2860.06108	0.57099
2858.13252	0.55946
2856.20396	0.54844
2854.27539	0.53800
2852.34683	0.52830
2850.41826	0.51970
2848.48970	0.51217
2846.56113	0.50542
2844.63257	0.49916
2842.70400	0.49306
2840.77544	0.48721
2838.84687	0.48175
2836.91831	0.47626
2834.98975	0.47058
2833.06118	0.46494
2831.13262	0.45929
2829.20405	0.45343
2827.27549	0.44742
2825.34692	0.44151
2823.41836	0.43566
2821.48979	0.42964
2819.56123	0.42362
2817.63267	0.41768
2815.70410	0.41182
2813.77554	0.40613
2811.84697	0.40045
2809.91841	0.39480
2807.98984	0.38939
2806.06128	0.38417
2804.13271	0.37898
2802.20415	0.37376
2800.27559	0.36853
2798.34702	0.36325
2796.41846	0.35821
2794.48989	0.35358
2792.56133	0.34903
2790.63276	0.34446
2788.70420	0.33989
2786.77563	0.33526
2784.84707	0.33067
2782.91851	0.32631
2780.98994	0.32218
2779.06138	0.31803
2777.13281	0.31368
2775.20425	0.30940
2773.27568	0.30538
2771.34712	0.30147
2769.41855	0.29779
2767.48999	0.29439
2765.56143	0.29092
2763.63286	0.28723
2761.70430	0.28354
2759.77573	0.27998
2757.84717	0.27662
2755.91860	0.27349
2753.99004	0.27037
2752.06147	0.26721
2750.13291	0.26409
2748.20435	0.26107
2746.27578	0.25822
2744.34722	0.25543
2742.41865	0.25255
2740.49009	0.24967
2738.56152	0.24692
2736.63296	0.24422
2734.70439	0.24158
2732.77583	0.23907
2730.84727	0.23658
2728.91870	0.23403
2726.99014	0.23155
2725.06157	0.22923
2723.13301	0.22708
2721.20444	0.22504
2719.27588	0.22296
2717.34731	0.22093
2715.41875	0.21897
2713.49019	0.21699
2711.56162	0.21499
2709.63306	0.21297
2707.70449	0.21109
2705.77593	0.20950
2703.84736	0.20799
2701.91880	0.20635
2699.99023	0.20467
2698.06167	0.20302
2696.13311	0.20143
2694.20454	0.20000
2692.27598	0.19874
2690.34741	0.19740
2688.41885	0.19593
2686.49028	0.19456
2684.56172	0.19332
2682.63315	0.19195
2680.70459	0.19049
2678.77603	0.18915
2676.84746	0.18795
2674.91890	0.18685
2672.99033	0.18574
2671.06177	0.18471
2669.13320	0.18374
2667.20464	0.18276
2665.27607	0.18172
2663.34751	0.18058
2661.41895	0.17951
2659.49038	0.17871
2657.56182	0.17803
2655.63325	0.17716
2653.70469	0.17610
2651.77612	0.17506
2649.84756	0.17434
2647.91899	0.17388
2645.99043	0.17329
2644.06187	0.17249
2642.13330	0.17178
2640.20474	0.17130
2638.27617	0.17084
2636.34761	0.17025
2634.41904	0.16964
2632.49048	0.16908
2630.56191	0.16857
2628.63335	0.16807
2626.70479	0.16755
2624.77622	0.16707
2622.84766	0.16669
2620.91909	0.16634
2618.99053	0.16602
2617.06196	0.16573
2615.13340	0.16547
2613.20483	0.16532
2611.27627	0.16521
2609.34771	0.16499
2607.41914	0.16469
2605.49058	0.16457
2603.56201	0.16465
2601.63345	0.16465
2599.70488	0.16449
2597.77632	0.16431
2595.84775	0.16422
2593.91919	0.16430
2591.99062	0.16437
2590.06206	0.16426
2588.13350	0.16426
2586.20493	0.16454
2584.27637	0.16481
2582.34780	0.16496
2580.41924	0.16511
2578.49067	0.16527
2576.56211	0.16546
2574.63354	0.16579
2572.70498	0.16620
2570.77642	0.16648
2568.84785	0.16667
2566.91929	0.16693
2564.99072	0.16717
2563.06216	0.16747
2561.13359	0.16790
2559.20503	0.16841
2557.27646	0.16896
2555.34790	0.16942
2553.41934	0.16966
2551.49077	0.16995
2549.56221	0.17049
2547.63364	0.17107
2545.70508	0.17163
2543.77651	0.17222
2541.84795	0.17278
2539.91938	0.17336
2537.99082	0.17397
2536.06226	0.17461
2534.13369	0.17533
2532.20513	0.17602
2530.27656	0.17661
2528.34800	0.17718
2526.41943	0.17778
2524.49087	0.17838
2522.56230	0.17909
2520.63374	0.17989
2518.70518	0.18067
2516.77661	0.18134
2514.84805	0.18192
2512.91948	0.18262
2510.99092	0.18348
2509.06235	0.18431
2507.13379	0.18505
2505.20522	0.18578
2503.27666	0.18654
2501.34810	0.18730
2499.41953	0.18805
2497.49097	0.18874
2495.56240	0.18940
2493.63384	0.19016
2491.70527	0.19102
2489.77671	0.19193
2487.84814	0.19281
2485.91958	0.19367
2483.99102	0.19454
2482.06245	0.19542
2480.13389	0.19614
2478.20532	0.19677
2476.27676	0.19754
2474.34819	0.19846
2472.41963	0.19935
2470.49106	0.20012
2468.56250	0.20089
2466.63394	0.20179
2464.70537	0.20276
2462.77681	0.20372
2460.84824	0.20471
2458.91968	0.20567
2456.99111	0.20656
2455.06255	0.20738
2453.13398	0.20825
2451.20542	0.20924
2449.27686	0.21021
2447.34829	0.21116
2445.41973	0.21217
2443.49116	0.21315
2441.56260	0.21399
2439.63403	0.21479
2437.70547	0.21571
2435.77690	0.21678
2433.84834	0.21786
2431.91978	0.21886
2429.99121	0.21986
2428.06265	0.22097
2426.13408	0.22216
2424.20552	0.22328
2422.27695	0.22432
2420.34839	0.22544
2418.41982	0.22661
2416.49126	0.22771
2414.56270	0.22872
2412.63413	0.22972
2410.70557	0.23077
2408.77700	0.23189
2406.84844	0.23298
2404.91987	0.23406
2402.99131	0.23516
2401.06274	0.23631
2399.13418	0.23746
2397.20562	0.23865
2395.27705	0.23988
2393.34849	0.24115
2391.41992	0.24241
2389.49136	0.24360
2387.56279	0.24456
2385.63423	0.24513
2383.70566	0.24524
2381.77710	0.24495
2379.84854	0.24423
2377.91997	0.24295
2375.99141	0.24119
2374.06284	0.23913
2372.13428	0.23660
2370.20571	0.23354
2368.27715	0.23049
2366.34858	0.22763
2364.42002	0.22481
2362.49146	0.22276
2360.56289	0.22195
2358.63433	0.22287
2356.70576	0.22693
2354.77720	0.23402
2352.84863	0.24270
2350.92007	0.25042
2348.99150	0.25451
2347.06294	0.25483
2345.13437	0.25243
2343.20581	0.24970
2341.27725	0.24969
2339.34868	0.25181
2337.42012	0.25397
2335.49155	0.25623
2333.56299	0.25883
2331.63442	0.26149
2329.70586	0.26439
2327.77729	0.26775
2325.84873	0.27099
2323.92017	0.27381
2321.99160	0.27688
2320.06304	0.28072
2318.13447	0.28497
2316.20591	0.28888
2314.27734	0.29200
2312.34878	0.29451
2310.42021	0.29699
2308.49165	0.29965
2306.56309	0.30240
2304.63452	0.30524
2302.70596	0.30799
2300.77739	0.31049
2298.84883	0.31285
2296.92026	0.31522
2294.99170	0.31755
2293.06313	0.31983
2291.13457	0.32219
2289.20601	0.32467
2287.27744	0.32728
2285.34888	0.32985
2283.42031	0.33210
2281.49175	0.33397
2279.56318	0.33573
2277.63462	0.33756
2275.70605	0.33947
2273.77749	0.34146
2271.84893	0.34361
2269.92036	0.34585
2267.99180	0.34802
2266.06323	0.35001
2264.13467	0.35205
2262.20610	0.35435
2260.27754	0.35672
2258.34897	0.35899
2256.42041	0.36123
2254.49185	0.36353
2252.56328	0.36576
2250.63472	0.36791
2248.70615	0.37009
2246.77759	0.37240
2244.84902	0.37481
2242.92046	0.37717
2240.99189	0.37947
2239.06333	0.38162
2237.13477	0.38362
2235.20620	0.38575
2233.27764	0.38803
2231.34907	0.39030
2229.42051	0.39260
2227.49194	0.39496
2225.56338	0.39731
2223.63481	0.39961
2221.70625	0.40181
2219.77769	0.40394
2217.84912	0.40609
2215.92056	0.40824
2213.99199	0.41039
2212.06343	0.41254
2210.13486	0.41472
2208.20630	0.41691
2206.27773	0.41906
2204.34917	0.42123
2202.42061	0.42338
2200.49204	0.42536
2198.56348	0.42723
2196.63491	0.42913
2194.70635	0.43107
2192.77778	0.43300
2190.84922	0.43491
2188.92065	0.43682
2186.99209	0.43873
2185.06353	0.44057
2183.13496	0.44233
2181.20640	0.44402
2179.27783	0.44562
2177.34927	0.44726
2175.42070	0.44895
2173.49214	0.45045
2171.56357	0.45170
2169.63501	0.45293
2167.70645	0.45431
2165.77788	0.45577
2163.84932	0.45720
2161.92075	0.45843
2159.99219	0.45937
2158.06362	0.46023
2156.13506	0.46123
2154.20649	0.46222
2152.27793	0.46296
2150.34937	0.46349
2148.42080	0.46410
2146.49224	0.46486
2144.56367	0.46555
2142.63511	0.46602
2140.70654	0.46634
2138.77798	0.46657
2136.84941	0.46665
2134.92085	0.46661
2132.99229	0.46655
2131.06372	0.46648
2129.13516	0.46638
2127.20659	0.46620
2125.27803	0.46597
2123.34946	0.46562
2121.42090	0.46504
2119.49233	0.46437
2117.56377	0.46376
2115.63521	0.46320
2113.70664	0.46259
2111.77808	0.46171
2109.84951	0.46061
2107.92095	0.45951
2105.99238	0.45841
2104.06382	0.45721
2102.13525	0.45601
2100.20669	0.45479
2098.27812	0.45339
2096.34956	0.45187
2094.42100	0.45036
2092.49243	0.44885
2090.56387	0.44727
2088.63530	0.44555
2086.70674	0.44373
2084.77817	0.44182
2082.84961	0.43980
2080.92104	0.43771
2078.99248	0.43564
2077.06392	0.43357
2075.13535	0.43144
2073.20679	0.42927
2071.27822	0.42706
2069.34966	0.42481
2067.42109	0.42257
2065.49253	0.42036
2063.56396	0.41799
2061.63540	0.41546
2059.70684	0.41292
2057.77827	0.41040
2055.84971	0.40788
2053.92114	0.40528
2051.99258	0.40265
2050.06401	0.40006
2048.13545	0.39754
2046.20688	0.39494
2044.27832	0.39222
2042.34976	0.38942
2040.42119	0.38654
2038.49263	0.38363
2036.56406	0.38086
2034.63550	0.37819
2032.70693	0.37542
2030.77837	0.37259
2028.84980	0.36984
2026.92124	0.36718
2024.99268	0.36441
2023.06411	0.36154
2021.13555	0.35872
2019.20698	0.35598
2017.27842	0.35321
2015.34985	0.35032
2013.42129	0.34744
2011.49272	0.34468
2009.56416	0.34195
2007.63560	0.33916
2005.70703	0.33640
2003.77847	0.33363
2001.84990	0.33088
1999.92134	0.32831
1997.99277	0.32583
1996.06421	0.32325
1994.13564	0.32069
1992.20708	0.31824
1990.27852	0.31573
1988.34995	0.31313
1986.42139	0.31048
1984.49282	0.30795
1982.56426	0.30559
1980.63569	0.30327
1978.70713	0.30096
1976.77856	0.29871
1974.85000	0.29646
1972.92144	0.29418
1970.99287	0.29197
1969.06431	0.28992
1967.13574	0.28799
1965.20718	0.28600
1963.27861	0.28393
1961.35005	0.28185
1959.42148	0.27987
1957.49292	0.27806
1955.56436	0.27624
1953.63579	0.27439
1951.70723	0.27263
1949.77866	0.27095
1947.85010	0.26928
1945.92153	0.26773
1943.99297	0.26640
1942.06440	0.26506
1940.13584	0.26344
1938.20728	0.26179
1936.27871	0.26033
1934.35015	0.25897
1932.42158	0.25762
1930.49302	0.25635
1928.56445	0.25519
1926.63589	0.25403
1924.70732	0.25304
1922.77876	0.25217
1920.85020	0.25123
1918.92163	0.25031
1916.99307	0.24943
1915.06450	0.24850
1913.13594	0.24764
1911.20737	0.24697
1909.27881	0.24631
1907.35024	0.24551
1905.42168	0.24463
1903.49312	0.24387
1901.56455	0.24326
1899.63599	0.24271
1897.70742	0.24228
1895.77886	0.24200
1893.85029	0.24172
1891.92173	0.24133
1889.99316	0.24109
1888.06460	0.24088
1886.13604	0.24051
1884.20747	0.24015
1882.27891	0.23992
1880.35034	0.23978
1878.42178	0.23966
1876.49321	0.23966
1874.56465	0.23973
1872.63608	0.23991
1870.70752	0.24025
1868.77896	0.24081
1866.85039	0.24101
1864.92183	0.24073
1862.99326	0.24059
1861.06470	0.24071
1859.13613	0.24100
1857.20757	0.24138
1855.27900	0.24181
1853.35044	0.24220
1851.42187	0.24269
1849.49331	0.24337
1847.56475	0.24418
1845.63618	0.24513
1843.70762	0.24619
1841.77905	0.24691
1839.85049	0.24725
1837.92192	0.24790
1835.99336	0.24875
1834.06479	0.24960
1832.13623	0.25059
1830.20767	0.25218
1828.27910	0.25387
1826.35054	0.25491
1824.42197	0.25601
1822.49341	0.25715
1820.56484	0.25826
1818.63628	0.25953
1816.70771	0.26109
1814.77915	0.26274
1812.85059	0.26458
1810.92202	0.26674
1808.99346	0.26883
1807.06489	0.27065
1805.13633	0.27244
1803.20776	0.27458
1801.27920	0.27719
1799.35063	0.28013
1797.42207	0.28269
1795.49351	0.28507
1793.56494	0.28793
1791.63638	0.29170
1789.70781	0.29514
1787.77925	0.29750
1785.85068	0.30034
1783.92212	0.30398
1781.99355	0.30802
1780.06499	0.31224
1778.13643	0.31645
1776.20786	0.32037
1774.27930	0.32466
1772.35073	0.33067
1770.42217	0.33719
1768.49360	0.34237
1766.56504	0.34729
1764.63647	0.35238
1762.70791	0.35813
1760.77935	0.36553
1758.85078	0.37240
1756.92222	0.37934
1754.99365	0.38697
1753.06509	0.39359
1751.13652	0.40137
1749.20796	0.41172
1747.27939	0.42206
1745.35083	0.43083
1743.42227	0.43999
1741.49370	0.45021
1739.56514	0.46259
1737.63657	0.47520
1735.70801	0.48621
1733.77944	0.50291
1731.85088	0.52289
1729.92231	0.53834
1727.99375	0.55404
1726.06519	0.57079
1724.13662	0.58914
1722.20806	0.60908
1720.27949	0.62735
1718.35093	0.64906
1716.42236	0.68247
1714.49380	0.71389
1712.56523	0.73823
1710.63667	0.76171
1708.70811	0.78710
1706.77954	0.81635
1704.85098	0.85225
1702.92241	0.88418
1700.99385	0.91456
1699.06528	0.96066
1697.13672	1.00432
1695.20815	1.04978
1693.27959	1.09335
1691.35103	1.12762
1689.42246	1.16771
1687.49390	1.21072
1685.56533	1.25211
1683.63677	1.31773
1681.70820	1.38677
1679.77964	1.42953
1677.85107	1.47047
1675.92251	1.51790
1673.99395	1.57769
1672.06538	1.63062
1670.13682	1.68163
1668.20825	1.75005
1666.27969	1.80537
1664.35112	1.85203
1662.42256	1.91305
1660.49399	1.98565
1658.56543	2.04108
1656.63687	2.08391
1654.70830	2.12170
1652.77974	2.18172
1650.85117	2.24071
1648.92261	2.26179
1646.99404	2.29142
1645.06548	2.32062
1643.13691	2.33742
1641.20835	2.34477
1639.27979	2.35165
1637.35122	2.35577
1635.42266	2.35498
1633.49409	2.34762
1631.56553	2.33253
1629.63696	2.31404
1627.70840	2.28358
1625.77983	2.24946
1623.85127	2.20622
1621.92271	2.15237
1619.99414	2.10590
1618.06558	2.06168
1616.13701	1.99619
1614.20845	1.92882
1612.27988	1.87817
1610.35132	1.82474
1608.42275	1.76699
1606.49419	1.71142
1604.56562	1.66111
1602.63706	1.61227
1600.70850	1.56443
1598.77993	1.52054
1596.85137	1.47952
1594.92280	1.43986
1592.99424	1.40165
1591.06567	1.36686
1589.13711	1.33413
1587.20854	1.30368
1585.27998	1.27598
1583.35142	1.25059
1581.42285	1.22761
1579.49429	1.20829
1577.56572	1.19145
1575.63716	1.17090
1573.70859	1.15314
1571.78003	1.14245
1569.85146	1.13228
1567.92290	1.12120
1565.99434	1.11329
1564.06577	1.10799
1562.13721	1.10403
1560.20864	1.10221
1558.28008	1.10549
1556.35151	1.11045
1554.42295	1.11197
1552.49438	1.11305
1550.56582	1.11294
1548.63726	1.11036
1546.70869	1.10519
1544.78013	1.09735
1542.85156	1.08638
1540.92300	1.06778
1538.99443	1.03622
1537.06587	1.01435
1535.13730	0.99996
1533.20874	0.97986
1531.28018	0.95808
1529.35161	0.94267
1527.42305	0.92843
1525.49448	0.91353
1523.56592	0.90064
1521.63735	0.88841
1519.70879	0.87655
1517.78022	0.86681
1515.85166	0.85470
1513.92310	0.84169
1511.99453	0.83052
1510.06597	0.82055
1508.13740	0.81087
1506.20884	0.79530
1504.28027	0.78217
1502.35171	0.77494
1500.42314	0.76859
1498.49458	0.76204
1496.56602	0.75444
1494.63745	0.74658
1492.70889	0.74061
1490.78032	0.73577
1488.85176	0.73020
1486.92319	0.72455
1484.99463	0.72002
1483.06606	0.71662
1481.13750	0.71401
1479.20894	0.71211
1477.28037	0.71130
1475.35181	0.71157
1473.42324	0.71214
1471.49468	0.71135
1469.56611	0.70925
1467.63755	0.70707
1465.70898	0.70514
1463.78042	0.70359
1461.85186	0.70285
1459.92329	0.70284
1457.99473	0.70348
1456.06616	0.70334
1454.13760	0.70087
1452.20903	0.69815
1450.28047	0.69562
1448.35190	0.69290
1446.42334	0.68986
1444.49478	0.68716
1442.56621	0.68470
1440.63765	0.68213
1438.70908	0.67959
1436.78052	0.67634
1434.85195	0.67235
1432.92339	0.66944
1430.99482	0.66773
1429.06626	0.66664
1427.13770	0.66604
1425.20913	0.66628
1423.28057	0.66724
1421.35200	0.66804
1419.42344	0.66876
1417.49487	0.66904
1415.56631	0.66801
1413.63774	0.66686
1411.70918	0.66652
1409.78062	0.66721
1407.85205	0.66851
1405.92349	0.67010
1403.99492	0.67158
1402.06636	0.67212
1400.13779	0.67161
1398.20923	0.67010
1396.28066	0.66745
1394.35210	0.66352
1392.42354	0.65894
1390.49497	0.65467
1388.56641	0.65048
1386.63784	0.64563
1384.70928	0.64021
1382.78071	0.63505
1380.85215	0.63040
1378.92358	0.62652
1376.99502	0.62369
1375.06646	0.62176
1373.13789	0.62032
1371.20933	0.61942
1369.28076	0.61903
1367.35220	0.61830
1365.42363	0.61680
1363.49507	0.61519
1361.56650	0.61378
1359.63794	0.61226
1357.70937	0.61069
1355.78081	0.60922
1353.85225	0.60804
1351.92368	0.60718
1349.99512	0.60641
1348.06655	0.60560
1346.13799	0.60470
1344.20942	0.60368
1342.28086	0.60276
1340.35229	0.60215
1338.42373	0.60159
1336.49517	0.60086
1334.56660	0.60023
1332.63804	0.59995
1330.70947	0.60000
1328.78091	0.60026
1326.85234	0.60076
1324.92378	0.60150
1322.99521	0.60237
1321.06665	0.60323
1319.13809	0.60392
1317.20952	0.60423
1315.28096	0.60424
1313.35239	0.60404
1311.42383	0.60346
1309.49526	0.60256
1307.56670	0.60168
1305.63813	0.60090
1303.70957	0.60013
1301.78101	0.59927
1299.85244	0.59827
1297.92388	0.59716
1295.99531	0.59587
1294.06675	0.59447
1292.13818	0.59318
1290.20962	0.59195
1288.28105	0.59068
1286.35249	0.58940
1284.42393	0.58810
1282.49536	0.58665
1280.56680	0.58507
1278.63823	0.58343
1276.70967	0.58195
1274.78110	0.58067
1272.85254	0.57965
1270.92397	0.57894
1268.99541	0.57830
1267.06685	0.57750
1265.13828	0.57663
1263.20972	0.57588
1261.28115	0.57523
1259.35259	0.57464
1257.42402	0.57408
1255.49546	0.57363
1253.56689	0.57344
1251.63833	0.57348
1249.70977	0.57356
1247.78120	0.57359
1245.85264	0.57358
1243.92407	0.57330
1241.99551	0.57249
1240.06694	0.57114
1238.13838	0.56937
1236.20981	0.56724
1234.28125	0.56488
1232.35269	0.56249
1230.42412	0.56018
1228.49556	0.55807
1226.56699	0.55618
1224.63843	0.55431
1222.70986	0.55232
1220.78130	0.55055
1218.85273	0.54910
1216.92417	0.54767
1214.99561	0.54625
1213.06704	0.54500
1211.13848	0.54410
1209.20991	0.54358
1207.28135	0.54313
1205.35278	0.54242
1203.42422	0.54153
1201.49565	0.54062
1199.56709	0.53963
1197.63853	0.53849
1195.70996	0.53746
1193.78140	0.53678
1191.85283	0.53617
1189.92427	0.53552
1187.99570	0.53503
1186.06714	0.53474
1184.13857	0.53466
1182.21001	0.53495
1180.28145	0.53574
1178.35288	0.53700
1176.42432	0.53855
1174.49575	0.54001
1172.56719	0.54107
1170.63862	0.54168
1168.71006	0.54178
1166.78149	0.54175
1164.85293	0.54221
1162.92437	0.54290
1160.99580	0.54320
1159.06724	0.54305
1157.13867	0.54264
1155.21011	0.54197
1153.28154	0.54082
1151.35298	0.53900
1149.42441	0.53659
1147.49585	0.53376
1145.56729	0.53077
1143.63872	0.52797
1141.71016	0.52545
1139.78159	0.52333
1137.85303	0.52201
1135.92446	0.52157
1133.99590	0.52152
1132.06733	0.52140
1130.13877	0.52121
1128.21021	0.52100
1126.28164	0.52066
1124.35308	0.52036
1122.42451	0.52016
1120.49595	0.51998
1118.56738	0.52014
1116.63882	0.52086
1114.71025	0.52189
1112.78169	0.52285
1110.85312	0.52356
1108.92456	0.52411
1106.99600	0.52469
1105.06743	0.52548
1103.13887	0.52648
1101.21030	0.52766
1099.28174	0.52907
1097.35317	0.53087
1095.42461	0.53339
1093.49604	0.53692
1091.56748	0.54161
1089.63892	0.54757
1087.71035	0.55500
1085.78179	0.56347
1083.85322	0.57194
1081.92466	0.57943
1079.99609	0.58489
1078.06753	0.58740
1076.13896	0.58683
1074.21040	0.58352
1072.28184	0.57797
1070.35327	0.57111
1068.42471	0.56416
1066.49614	0.55765
1064.56758	0.55148
1062.63901	0.54575
1060.71045	0.54084
1058.78188	0.53699
1056.85332	0.53357
1054.92476	0.52992
1052.99619	0.52655
1051.06763	0.52417
1049.13906	0.52272
1047.21050	0.52186
1045.28193	0.52135
1043.35337	0.52106
1041.42480	0.52100
1039.49624	0.52100
1037.56768	0.52093
1035.63911	0.52078
1033.71055	0.52022
1031.78198	0.51909
1029.85342	0.51761
1027.92485	0.51586
1025.99629	0.51393
1024.06772	0.51228
1022.13916	0.51123
1020.21060	0.51064
1018.28203	0.51039
1016.35347	0.51021
1014.42490	0.50987
1012.49634	0.50941
1010.56777	0.50900
1008.63921	0.50888
1006.71064	0.50929
1004.78208	0.51032
1002.85352	0.51203
1000.92495	0.51436
998.99639	0.51733
997.06782	0.52110
995.13926	0.52558
993.21069	0.53016
991.28213	0.53381
989.35356	0.53581
987.42500	0.53635
985.49644	0.53611
983.56787	0.53569
981.63931	0.53561
979.71074	0.53622
977.78218	0.53747
975.85361	0.53920
973.92505	0.54130
971.99648	0.54389
970.06792	0.54695
968.13936	0.55034
966.21079	0.55418
964.28223	0.55848
962.35366	0.56317
960.42510	0.56815
958.49653	0.57344
956.56797	0.57915
954.63940	0.58510
952.71084	0.59119
950.78228	0.59728
948.85371	0.60328
946.92515	0.60959
944.99658	0.61592
943.06802	0.62159
941.13945	0.62705
939.21089	0.63300
937.28232	0.63911
935.35376	0.64499
933.42520	0.65094
931.49663	0.65691
929.56807	0.66254
927.63950	0.66783
925.71094	0.67338
923.78237	0.67970
921.85381	0.68643
919.92524	0.69317
917.99668	0.69987
916.06812	0.70671
914.13955	0.71438
912.21099	0.72246
910.28242	0.72978
908.35386	0.73720
906.42529	0.74594
904.49673	0.75519
902.56816	0.76419
900.63960	0.77349
898.71104	0.78349
896.78247	0.79401
894.85391	0.80469
892.92534	0.81502
890.99678	0.82502
889.06821	0.83609
887.13965	0.84817
885.21108	0.85946
883.28252	0.86932
881.35396	0.87813
879.42539	0.88783
877.49683	0.89987
875.56826	0.91318
873.63970	0.92574
871.71113	0.93679
869.78257	0.94798
867.85400	0.95949
865.92544	0.96959
863.99687	0.97967
862.06831	0.99226
860.13975	1.00605
858.21118	1.01859
856.28262	1.03062
854.35405	1.04296
852.42549	1.05488
850.49692	1.06708
848.56836	1.07989
846.63979	1.09298
844.71123	1.10552
842.78267	1.11616
840.85410	1.12495
838.92554	1.13211
836.99697	1.14216
835.06841	1.15825
833.13984	1.17510
831.21128	1.18838
829.28271	1.19683
827.35415	1.20335
825.42559	1.21382
823.49702	1.22894
821.56846	1.24493
819.63989	1.25673
817.71133	1.26282
815.78276	1.27059
813.85420	1.28566
811.92563	1.30526
809.99707	1.32749
808.06851	1.35157
806.13994	1.37417
804.21138	1.39000
802.28281	1.39627
800.35425	1.39281
798.42568	1.38870
796.49712	1.39118
794.56855	1.39509
792.63999	1.38815
790.71143	1.36901
788.78286	1.38132
786.85430	1.43649
784.92573	1.49320
782.99717	1.55780
781.06860	1.62555
779.14004	1.63603
777.21147	1.61010
775.28291	1.56021
773.35435	1.49397
771.42578	1.51957
769.49722	1.68449
767.56865	1.70613
765.64009	1.54111
763.71152	1.52496
761.78296	1.60713
759.85439	1.51886
757.92583	1.37998
755.99727	1.31913
754.06870	1.29489
752.14014	1.32713
750.21157	1.37646
748.28301	1.39631
746.35444	1.42440
744.42588	1.31277
742.49731	1.18391
740.56875	1.20571
738.64019	1.23468
736.71162	1.09059
734.78306	1.03444
732.85449	0.91810
730.92593	0.64917
728.99736	0.47163
727.06880	0.44138
725.14023	0.55738
723.21167	0.66873
721.28311	0.52073
719.35454	0.39627
717.42598	0.26842
715.49741	-0.00791
713.56885	-0.12103
711.64028	0.13325
709.71172	0.12492
707.78315	-0.09077
705.85459	-0.00130
703.92603	0.24629
701.99746	0.42756
700.06890	0.54999
698.14033	0.70924
696.21177	0.88896
694.28320	1.44052
692.35464	1.16264
690.42607	0.59039
688.49751	0.36576
686.56895	0.30917
684.64038	0.32164
682.71182	0.32843
680.78325	0.35763
678.85469	0.41564
676.92612	0.52650
674.99756	0.68291
673.06899	0.69952
671.14043	0.57033
669.21187	0.46392
667.28330	0.57736
665.35474	1.16756
663.42617	1.01090
661.49761	0.41596
659.56904	0.25817
657.64048	0.25270
655.71191	0.28815
653.78335	0.36263
651.85479	0.54812
649.92622	0.76018
647.99766	0.67673
646.06909	0.46442
644.14053	0.39571
642.21196	0.49662
640.28340	0.65133
638.35483	0.59365
636.42627	0.50237
634.49771	0.41004
632.56914	0.34238
630.64058	0.26801
628.71201	0.15623
626.78345	0.15999
624.85488	0.33759
622.92632	0.87429
620.99775	3.72599
619.06919	0.92042
617.14062	0.37251
615.21206	0.30631
613.28350	0.37756
611.35493	0.42748
609.42637	0.47087
607.49780	0.61667
605.56924	0.51584
603.64067	0.24686
601.71211	0.11587
599.78354	0.12607
597.85498	0.19866
595.92642	0.31960
593.99785	0.57185
592.06929	0.75983
590.14072	0.55199
588.21216	0.39626
586.28359	0.32395
584.35503	0.33708
582.42646	0.42355
580.49790	0.51457
578.56934	0.53749
576.64077	0.48690
574.71221	0.38503
572.78364	0.28894
570.85508	0.23673
568.92651	0.23833
566.99795	0.28687
565.06938	0.33720
563.14082	0.31542
561.21226	0.29058
559.28369	0.36143
557.35513	0.48722
555.42656	0.59245
553.49800	0.72573
551.56943	0.52673
549.64087	0.47195
547.71230	0.78329
545.78374	3.27470
543.85518	0.65309
541.92661	0.33959
539.99805	0.24005
538.06948	0.21842
536.14092	0.21525
534.21235	0.25161
532.28379	0.35819
530.35522	0.49635
528.42666	0.55711
526.49810	0.56089
524.56953	0.45854
522.64097	0.30778
520.71240	0.21815
518.78384	0.17914
516.85527	0.17405
514.92671	0.22785
512.99814	0.30556
511.06958	0.29160
509.14102	0.24644
507.21245	0.24817
505.28389	0.23252
503.35532	0.19548
501.42676	0.16910
499.49819	0.15947
