3997.91411	0.07585
3995.98555	0.07628
3994.05698	0.07650
3992.12842	0.07674
3990.19985	0.07711
3988.27129	0.07737
3986.34272	0.07741
3984.41416	0.07753
3982.48560	0.07777
3980.55703	0.07804
3978.62847	0.07847
3976.69990	0.07893
3974.77134	0.07922
3972.84277	0.07942
3970.91421	0.07958
3968.98564	0.07976
3967.05708	0.07994
3965.12852	0.07986
3963.19995	0.07965
3961.27139	0.07985
3959.34282	0.08062
3957.41426	0.08124
3955.48569	0.08111
3953.55713	0.08061
3951.62856	0.08059
3949.70000	0.08127
3947.77144	0.08190
3945.84287	0.08192
3943.91431	0.08217
3941.98574	0.08260
3940.05718	0.08185
3938.12861	0.08066
3936.20005	0.08051
3934.27148	0.08139
3932.34292	0.08263
3930.41436	0.08315
3928.48579	0.08230
3926.55723	0.08156
3924.62866	0.08209
3922.70010	0.08248
3920.77153	0.08182
3918.84297	0.08131
3916.91440	0.08127
3914.98584	0.08088
3913.05728	0.07992
3911.12871	0.07918
3909.20015	0.07921
3907.27158	0.08016
3905.34302	0.08239
3903.41445	0.08530
3901.48589	0.08648
3899.55732	0.08554
3897.62876	0.08353
3895.70020	0.08157
3893.77163	0.08128
3891.84307	0.08276
3889.91450	0.08362
3887.98594	0.08299
3886.05737	0.08328
3884.12881	0.08436
3882.20024	0.08465
3880.27168	0.08468
3878.34312	0.08355
3876.41455	0.08203
3874.48599	0.08274
3872.55742	0.08533
3870.62886	0.08794
3868.70029	0.08893
3866.77173	0.08792
3864.84316	0.08795
3862.91460	0.08901
3860.98604	0.08809
3859.05747	0.08635
3857.12891	0.08637
3855.20034	0.08897
3853.27178	0.09398
3851.34321	0.09572
3849.41465	0.09182
3847.48608	0.08883
3845.55752	0.08838
3843.62896	0.09011
3841.70039	0.09313
3839.77183	0.09650
3837.84326	0.09906
3835.91470	0.09897
3833.98613	0.09741
3832.05757	0.09613
3830.12900	0.09529
3828.20044	0.09538
3826.27187	0.09669
3824.34331	0.09844
3822.41475	0.10092
3820.48618	0.10461
3818.55762	0.10562
3816.62905	0.10418
3814.70049	0.10301
3812.77192	0.10156
3810.84336	0.10072
3808.91479	0.10184
3806.98623	0.10483
3805.05767	0.10749
3803.12910	0.10954
3801.20054	0.11256
3799.27197	0.11375
3797.34341	0.11283
3795.41484	0.11241
3793.48628	0.11161
3791.55771	0.11072
3789.62915	0.11097
3787.70059	0.11251
3785.77202	0.11509
3783.84346	0.11780
3781.91489	0.11967
3779.98633	0.12139
3778.05776	0.12313
3776.12920	0.12395
3774.20063	0.12472
3772.27207	0.12650
3770.34351	0.12950
3768.41494	0.13264
3766.48638	0.13458
3764.55781	0.13603
3762.62925	0.13744
3760.70068	0.13975
3758.77212	0.14364
3756.84355	0.14710
3754.91499	0.14948
3752.98643	0.15328
3751.05786	0.16003
3749.12930	0.16601
3747.20073	0.16709
3745.27217	0.16775
3743.34360	0.17030
3741.41504	0.17300
3739.48647	0.17581
3737.55791	0.18047
3735.62935	0.18784
3733.70078	0.19490
3731.77222	0.19723
3729.84365	0.19816
3727.91509	0.20120
3725.98652	0.20711
3724.05796	0.21476
3722.12939	0.22211
3720.20083	0.22845
3718.27227	0.23383
3716.34370	0.23953
3714.41514	0.24693
3712.48657	0.25794
3710.55801	0.27383
3708.62944	0.28855
3706.70088	0.29836
3704.77231	0.30783
3702.84375	0.32047
3700.91519	0.33777
3698.98662	0.35606
3697.05806	0.37299
3695.12949	0.39160
3693.20093	0.41225
3691.27236	0.43599
3689.34380	0.46689
3687.41523	0.50156
3685.48667	0.52924
3683.55811	0.55335
3681.62954	0.58100
3679.70098	0.61370
3677.77241	0.64851
3675.84385	0.68945
3673.91528	0.74380
3671.98672	0.78699
3670.05815	0.82549
3668.12959	0.87801
3666.20103	0.92380
3664.27246	0.96194
3662.34390	1.00450
3660.41533	1.05146
3658.48677	1.09823
3656.55820	1.14844
3654.62964	1.20416
3652.70107	1.25064
3650.77251	1.29205
3648.84395	1.35008
3646.91538	1.41823
3644.98682	1.46445
3643.05825	1.50041
3641.12969	1.53905
3639.20112	1.58220
3637.27256	1.62556
3635.34399	1.66774
3633.41543	1.71017
3631.48687	1.75026
3629.55830	1.79156
3627.62974	1.84655
3625.70117	1.89681
3623.77261	1.92965
3621.84404	1.96162
3619.91548	1.99904
3617.98691	2.04480
3616.05835	2.08859
3614.12979	2.12395
3612.20122	2.16062
3610.27266	2.19914
3608.34409	2.23960
3606.41553	2.28081
3604.48696	2.31699
3602.55840	2.35024
3600.62983	2.38784
3598.70127	2.42910
3596.77271	2.46880
3594.84414	2.50840
3592.91558	2.54913
3590.98701	2.58696
3589.05845	2.62295
3587.12988	2.66798
3585.20132	2.71577
3583.27275	2.75278
3581.34419	2.78707
3579.41562	2.82601
3577.48706	2.86830
3575.55850	2.91043
3573.62993	2.95386
3571.70137	2.99649
3569.77280	3.03541
3567.84424	3.07527
3565.91567	3.12547
3563.98711	3.17764
3562.05854	3.22200
3560.12998	3.26346
3558.20142	3.30511
3556.27285	3.34798
3554.34429	3.39027
3552.41572	3.43457
3550.48716	3.48144
3548.55859	3.52717
3546.63003	3.57235
3544.70146	3.61870
3542.77290	3.66410
3540.84434	3.70950
3538.91577	3.75608
3536.98721	3.80174
3535.05864	3.84916
3533.13008	3.89744
3531.20151	3.94390
3529.27295	3.98891
3527.34438	4.03497
3525.41582	4.08507
3523.48726	4.13833
3521.55869	4.19000
3519.63013	4.23612
3517.70156	4.28057
3515.77300	4.32442
3513.84443	4.36788
3511.91587	4.41417
3509.98730	4.46379
3508.05874	4.51391
3506.13018	4.55910
3504.20161	4.59959
3502.27305	4.64215
3500.34448	4.69016
3498.41592	4.74068
3496.48735	4.78802
3494.55879	4.83150
3492.63022	4.87865
3490.70166	4.93056
3488.77310	4.98138
3486.84453	5.02852
3484.91597	5.07597
3482.98740	5.12874
3481.05884	5.18160
3479.13027	5.22529
3477.20171	5.26417
3475.27314	5.30929
3473.34458	5.36579
3471.41602	5.42462
3469.48745	5.47352
3467.55889	5.51389
3465.63032	5.54954
3463.70176	5.59340
3461.77319	5.65161
3459.84463	5.70638
3457.91606	5.74911
3455.98750	5.79491
3454.05894	5.85106
3452.13037	5.90307
3450.20181	5.94364
3448.27324	5.99258
3446.34468	6.06241
3444.41611	6.12135
3442.48755	6.15553
3440.55898	6.18664
3438.63042	6.22737
3436.70186	6.28033
3434.77329	6.34327
3432.84473	6.40197
3430.91616	6.44241
3428.98760	6.47919
3427.05903	6.52109
3425.13047	6.56465
3423.20190	6.61339
3421.27334	6.68324
3419.34478	6.76031
3417.41621	6.81043
3415.48765	6.85891
3413.55908	6.93819
3411.63052	7.00681
3409.70195	7.00874
3407.77339	6.98626
3405.84482	6.99144
3403.91626	7.03388
3401.98770	7.09074
3400.05913	7.15231
3398.13057	7.23358
3396.20200	7.29825
3394.27344	7.33863
3392.34487	7.39822
3390.41631	7.45425
3388.48774	7.43756
3386.55918	7.39739
3384.63062	7.42026
3382.70205	7.51928
3380.77349	7.63572
3378.84492	7.70802
3376.91636	7.72377
3374.98779	7.70460
3373.05923	7.71999
3371.13066	7.74500
3369.20210	7.73504
3367.27354	7.71361
3365.34497	7.70871
3363.41641	7.72307
3361.48784	7.75797
3359.55928	7.81378
3357.63071	7.84809
3355.70215	7.87455
3353.77358	7.92153
3351.84502	7.97837
3349.91646	7.99975
3347.98789	8.00270
3346.05933	8.00155
3344.13076	7.97120
3342.20220	7.95324
3340.27363	7.97069
3338.34507	7.98908
3336.41650	7.93344
3334.48794	7.87495
3332.55937	7.89637
3330.63081	7.93585
3328.70225	7.95133
3326.77368	7.98101
3324.84512	8.02143
3322.91655	8.06872
3320.98799	8.15049
3319.05942	8.16084
3317.13086	8.08012
3315.20229	7.98689
3313.27373	7.91349
3311.34517	7.88969
3309.41660	7.92383
3307.48804	8.00246
3305.55947	8.05688
3303.63091	8.07085
3301.70234	8.08917
3299.77378	8.08381
3297.84521	8.08235
3295.91665	8.16322
3293.98809	8.20935
3292.05952	8.20393
3290.13096	8.24991
3288.20239	8.20146
3286.27383	8.03571
3284.34526	7.92961
3282.41670	7.89604
3280.48813	7.91404
3278.55957	8.05861
3276.63101	8.19619
3274.70244	8.14484
3272.77388	8.05105
3270.84531	8.07573
3268.91675	8.19144
3266.98818	8.23648
3265.05962	8.22913
3263.13105	8.24593
3261.20249	8.23455
3259.27393	8.16352
3257.34536	8.09540
3255.41680	8.06999
3253.48823	8.05184
3251.55967	8.06629
3249.63110	8.10458
3247.70254	8.14415
3245.77397	8.17290
3243.84541	8.13620
3241.91685	8.13949
3239.98828	8.27221
3238.05972	8.39556
3236.13115	8.39499
3234.20259	8.34888
3232.27402	8.30793
3230.34546	8.24628
3228.41689	8.19833
3226.48833	8.18117
3224.55977	8.17105
3222.63120	8.19803
3220.70264	8.24874
3218.77407	8.21678
3216.84551	8.08748
3214.91694	8.02150
3212.98838	8.05675
3211.05981	8.09391
3209.13125	8.09526
3207.20269	8.02809
3205.27412	7.87860
3203.34556	7.73814
3201.41699	7.71481
3199.48843	7.77164
3197.55986	7.78114
3195.63130	7.69439
3193.70273	7.53732
3191.77417	7.43152
3189.84561	7.45857
3187.91704	7.48894
3185.98848	7.41579
3184.05991	7.35008
3182.13135	7.31687
3180.20278	7.25740
3178.27422	7.21186
3176.34565	7.18215
3174.41709	7.09960
3172.48853	6.99305
3170.55996	6.91885
3168.63140	6.86651
3166.70283	6.81536
3164.77427	6.76698
3162.84570	6.71918
3160.91714	6.65399
3158.98857	6.57385
3157.06001	6.50092
3155.13145	6.44931
3153.20288	6.40308
3151.27432	6.32828
3149.34575	6.22840
3147.41719	6.14625
3145.48862	6.09324
3143.56006	6.04566
3141.63149	5.98923
3139.70293	5.91269
3137.77437	5.82801
3135.84580	5.75283
3133.91724	5.68663
3131.98867	5.62651
3130.06011	5.55763
3128.13154	5.47635
3126.20298	5.39869
3124.27441	5.33382
3122.34585	5.26740
3120.41729	5.18384
3118.48872	5.09886
3116.56016	5.02813
3114.63159	4.96627
3112.70303	4.90814
3110.77446	4.84561
3108.84590	4.77154
3106.91733	4.69549
3104.98877	4.62637
3103.06021	4.56163
3101.13164	4.49548
3099.20308	4.42752
3097.27451	4.35976
3095.34595	4.29047
3093.41738	4.22109
3091.48882	4.15481
3089.56025	4.09059
3087.63169	4.02577
3085.70312	3.96072
3083.77456	3.89797
3081.84600	3.83665
3079.91743	3.77348
3077.98887	3.70930
3076.06030	3.64793
3074.13174	3.58924
3072.20317	3.53007
3070.27461	3.47037
3068.34604	3.41279
3066.41748	3.35695
3064.48892	3.30059
3062.56035	3.24447
3060.63179	3.19029
3058.70322	3.13724
3056.77466	3.08375
3054.84609	3.02956
3052.91753	2.97655
3050.98896	2.92592
3049.06040	2.87543
3047.13184	2.82381
3045.20327	2.77343
3043.27471	2.72617
3041.34614	2.68038
3039.41758	2.63318
3037.48901	2.58461
3035.56045	2.53740
3033.63188	2.49299
3031.70332	2.44990
3029.77476	2.40711
3027.84619	2.36549
3025.91763	2.32455
3023.98906	2.28328
3022.06050	2.24200
3020.13193	2.20116
3018.20337	2.16105
3016.27480	2.12121
3014.34624	2.08128
3012.41768	2.04272
3010.48911	2.00646
3008.56055	1.97090
3006.63198	1.93507
3004.70342	1.89944
3002.77485	1.86386
3000.84629	1.82905
2998.91772	1.79587
2996.98916	1.76354
2995.06060	1.73119
2993.13203	1.69860
2991.20347	1.66603
2989.27490	1.63406
2987.34634	1.60336
2985.41777	1.57393
2983.48921	1.54484
2981.56064	1.51544
2979.63208	1.48600
2977.70352	1.45721
2975.77495	1.42929
2973.84639	1.40181
2971.91782	1.37468
2969.98926	1.34789
2968.06069	1.32111
2966.13213	1.29492
2964.20356	1.26986
2962.27500	1.24531
2960.34644	1.22083
2958.41787	1.19692
2956.48931	1.17417
2954.56074	1.15232
2952.63218	1.13058
2950.70361	1.10873
2948.77505	1.08723
2946.84648	1.06613
2944.91792	1.04500
2942.98936	1.02411
2941.06079	1.00409
2939.13223	0.98461
2937.20366	0.96479
2935.27510	0.94531
2933.34653	0.92721
2931.41797	0.90948
2929.48940	0.89177
2927.56084	0.87492
2925.63228	0.85822
2923.70371	0.84172
2921.77515	0.82636
2919.84658	0.81155
2917.91802	0.79648
2915.98945	0.78119
2914.06089	0.76609
2912.13232	0.75183
2910.20376	0.73835
2908.27520	0.72502
2906.34663	0.71180
2904.41807	0.69913
2902.48950	0.68707
2900.56094	0.67518
2898.63237	0.66324
2896.70381	0.65153
2894.77524	0.64024
2892.84668	0.62919
2890.91812	0.61813
2888.98955	0.60702
2887.06099	0.59580
2885.13242	0.58485
2883.20386	0.57457
2881.27529	0.56444
2879.34673	0.55416
2877.41816	0.54423
2875.48960	0.53468
2873.56104	0.52507
2871.63247	0.51537
2869.70391	0.50592
2867.77534	0.49686
2865.84678	0.48792
2863.91821	0.47909
2861.98965	0.47066
2860.06108	0.46260
2858.13252	0.45467
2856.20396	0.44692
2854.27539	0.43942
2852.34683	0.43200
2850.41826	0.42468
2848.48970	0.41739
2846.56113	0.41019
2844.63257	0.40357
2842.70400	0.39778
2840.77544	0.39238
2838.84687	0.38682
2836.91831	0.38107
2834.98975	0.37557
2833.06118	0.37050
2831.13262	0.36557
2829.20405	0.36053
2827.27549	0.35537
2825.34692	0.35014
2823.41836	0.34489
2821.48979	0.33961
2819.56123	0.33427
2817.63267	0.32901
2815.70410	0.32396
2813.77554	0.31910
2811.84697	0.31443
2809.91841	0.30988
2807.98984	0.30534
2806.06128	0.30078
2804.13271	0.29628
2802.20415	0.29187
2800.27559	0.28746
2798.34702	0.28317
2796.41846	0.27918
2794.48989	0.27541
2792.56133	0.27162
2790.63276	0.26780
2788.70420	0.26414
2786.77563	0.26072
2784.84707	0.25725
2782.91851	0.25369
2780.98994	0.25033
2779.06138	0.24707
2777.13281	0.24367
2775.20425	0.24049
2773.27568	0.23757
2771.34712	0.23454
2769.41855	0.23140
2767.48999	0.22833
2765.56143	0.22533
2763.63286	0.22240
2761.70430	0.21963
2759.77573	0.21713
2757.84717	0.21473
2755.91860	0.21213
2753.99004	0.20948
2752.06147	0.20710
2750.13291	0.20487
2748.20435	0.20257
2746.27578	0.20023
2744.34722	0.19801
2742.41865	0.19593
2740.49009	0.19382
2738.56152	0.19159
2736.63296	0.18946
2734.70439	0.18753
2732.77583	0.18569
2730.84727	0.18388
2728.91870	0.18203
2726.99014	0.18022
2725.06157	0.17855
2723.13301	0.17682
2721.20444	0.17497
2719.27588	0.17333
2717.34731	0.17191
2715.41875	0.17056
2713.49019	0.16923
2711.56162	0.16785
2709.63306	0.16637
2707.70449	0.16482
2705.77593	0.16334
2703.84736	0.16207
2701.91880	0.16096
2699.99023	0.15990
2698.06167	0.15871
2696.13311	0.15739
2694.20454	0.15613
2692.27598	0.15497
2690.34741	0.15393
2688.41885	0.15310
2686.49028	0.15233
2684.56172	0.15150
2682.63315	0.15063
2680.70459	0.14972
2678.77603	0.14883
2676.84746	0.14802
2674.91890	0.14725
2672.99033	0.14646
2671.06177	0.14563
2669.13320	0.14472
2667.20464	0.14394
2665.27607	0.14339
2663.34751	0.14280
2661.41895	0.14206
2659.49038	0.14153
2657.56182	0.14127
2655.63325	0.14093
2653.70469	0.14041
2651.77612	0.13979
2649.84756	0.13924
2647.91899	0.13884
2645.99043	0.13846
2644.06187	0.13807
2642.13330	0.13779
2640.20474	0.13758
2638.27617	0.13730
2636.34761	0.13707
2634.41904	0.13696
2632.49048	0.13680
2630.56191	0.13657
2628.63335	0.13640
2626.70479	0.13622
2624.77622	0.13599
2622.84766	0.13577
2620.91909	0.13566
2618.99053	0.13571
2617.06196	0.13586
2615.13340	0.13604
2613.20483	0.13611
2611.27627	0.13600
2609.34771	0.13585
2607.41914	0.13587
2605.49058	0.13597
2603.56201	0.13600
2601.63345	0.13616
2599.70488	0.13655
2597.77632	0.13688
2595.84775	0.13692
2593.91919	0.13693
2591.99062	0.13710
2590.06206	0.13750
2588.13350	0.13805
2586.20493	0.13847
2584.27637	0.13873
2582.34780	0.13903
2580.41924	0.13939
2578.49067	0.13966
2576.56211	0.13983
2574.63354	0.14015
2572.70498	0.14074
2570.77642	0.14143
2568.84785	0.14201
2566.91929	0.14248
2564.99072	0.14283
2563.06216	0.14320
2561.13359	0.14372
2559.20503	0.14437
2557.27646	0.14502
2555.34790	0.14564
2553.41934	0.14624
2551.49077	0.14684
2549.56221	0.14746
2547.63364	0.14803
2545.70508	0.14860
2543.77651	0.14933
2541.84795	0.15017
2539.91938	0.15095
2537.99082	0.15160
2536.06226	0.15224
2534.13369	0.15302
2532.20513	0.15379
2530.27656	0.15445
2528.34800	0.15518
2526.41943	0.15607
2524.49087	0.15698
2522.56230	0.15782
2520.63374	0.15859
2518.70518	0.15931
2516.77661	0.16005
2514.84805	0.16083
2512.91948	0.16165
2510.99092	0.16257
2509.06235	0.16352
2507.13379	0.16438
2505.20522	0.16513
2503.27666	0.16592
2501.34810	0.16681
2499.41953	0.16768
2497.49097	0.16856
2495.56240	0.16949
2493.63384	0.17042
2491.70527	0.17131
2489.77671	0.17216
2487.84814	0.17305
2485.91958	0.17401
2483.99102	0.17499
2482.06245	0.17598
2480.13389	0.17697
2478.20532	0.17792
2476.27676	0.17891
2474.34819	0.17986
2472.41963	0.18073
2470.49106	0.18170
2468.56250	0.18271
2466.63394	0.18365
2464.70537	0.18464
2462.77681	0.18578
2460.84824	0.18692
2458.91968	0.18790
2456.99111	0.18882
2455.06255	0.18976
2453.13398	0.19076
2451.20542	0.19190
2449.27686	0.19304
2447.34829	0.19402
2445.41973	0.19493
2443.49116	0.19599
2441.56260	0.19724
2439.63403	0.19855
2437.70547	0.19974
2435.77690	0.20071
2433.84834	0.20168
2431.91978	0.20282
2429.99121	0.20400
2428.06265	0.20507
2426.13408	0.20617
2424.20552	0.20736
2422.27695	0.20852
2420.34839	0.20962
2418.41982	0.21077
2416.49126	0.21205
2414.56270	0.21330
2412.63413	0.21441
2410.70557	0.21552
2408.77700	0.21675
2406.84844	0.21807
2404.91987	0.21938
2402.99131	0.22060
2401.06274	0.22177
2399.13418	0.22305
2397.20562	0.22438
2395.27705	0.22562
2393.34849	0.22684
2391.41992	0.22827
2389.49136	0.22996
2387.56279	0.23175
2385.63423	0.23362
2383.70566	0.23586
2381.77710	0.23868
2379.84854	0.24203
2377.91997	0.24584
2375.99141	0.25008
2374.06284	0.25482
2372.13428	0.25994
2370.20571	0.26526
2368.27715	0.27135
2366.34858	0.27833
2364.42002	0.28422
2362.49146	0.28745
2360.56289	0.28902
2358.63433	0.29006
2356.70576	0.28982
2354.77720	0.28821
2352.84863	0.28599
2350.92007	0.28303
2348.99150	0.28086
2347.06294	0.28127
2345.13437	0.28539
2343.20581	0.29192
2341.27725	0.29577
2339.34868	0.29604
2337.42012	0.29586
2335.49155	0.29670
2333.56299	0.29793
2331.63442	0.29902
2329.70586	0.30025
2327.77729	0.30169
2325.84873	0.30269
2323.92017	0.30296
2321.99160	0.30286
2320.06304	0.30267
2318.13447	0.30245
2316.20591	0.30232
2314.27734	0.30268
2312.34878	0.30366
2310.42021	0.30487
2308.49165	0.30600
2306.56309	0.30694
2304.63452	0.30774
2302.70596	0.30864
2300.77739	0.30975
2298.84883	0.31100
2296.92026	0.31234
2294.99170	0.31385
2293.06313	0.31543
2291.13457	0.31688
2289.20601	0.31832
2287.27744	0.31986
2285.34888	0.32140
2283.42031	0.32306
2281.49175	0.32503
2279.56318	0.32722
2277.63462	0.32944
2275.70605	0.33163
2273.77749	0.33378
2271.84893	0.33587
2269.92036	0.33786
2267.99180	0.33986
2266.06323	0.34201
2264.13467	0.34428
2262.20610	0.34649
2260.27754	0.34852
2258.34897	0.35054
2256.42041	0.35265
2254.49185	0.35483
2252.56328	0.35706
2250.63472	0.35928
2248.70615	0.36140
2246.77759	0.36344
2244.84902	0.36549
2242.92046	0.36764
2240.99189	0.36988
2239.06333	0.37212
2237.13477	0.37435
2235.20620	0.37664
2233.27764	0.37889
2231.34907	0.38108
2229.42051	0.38335
2227.49194	0.38576
2225.56338	0.38815
2223.63481	0.39040
2221.70625	0.39251
2219.77769	0.39462
2217.84912	0.39676
2215.92056	0.39899
2213.99199	0.40126
2212.06343	0.40347
2210.13486	0.40567
2208.20630	0.40785
2206.27773	0.40994
2204.34917	0.41201
2202.42061	0.41409
2200.49204	0.41612
2198.56348	0.41810
2196.63491	0.42009
2194.70635	0.42214
2192.77778	0.42422
2190.84922	0.42626
2188.92065	0.42820
2186.99209	0.43000
2185.06353	0.43170
2183.13496	0.43344
2181.20640	0.43532
2179.27783	0.43714
2177.34927	0.43870
2175.42070	0.44021
2173.49214	0.44182
2171.56357	0.44341
2169.63501	0.44487
2167.70645	0.44623
2165.77788	0.44754
2163.84932	0.44885
2161.92075	0.45008
2159.99219	0.45126
2158.06362	0.45243
2156.13506	0.45346
2154.20649	0.45430
2152.27793	0.45507
2150.34937	0.45579
2148.42080	0.45644
2146.49224	0.45706
2144.56367	0.45760
2142.63511	0.45807
2140.70654	0.45848
2138.77798	0.45886
2136.84941	0.45913
2134.92085	0.45927
2132.99229	0.45928
2131.06372	0.45925
2129.13516	0.45918
2127.20659	0.45900
2125.27803	0.45874
2123.34946	0.45841
2121.42090	0.45798
2119.49233	0.45744
2117.56377	0.45680
2115.63521	0.45609
2113.70664	0.45533
2111.77808	0.45453
2109.84951	0.45378
2107.92095	0.45293
2105.99238	0.45183
2104.06382	0.45063
2102.13525	0.44938
2100.20669	0.44807
2098.27812	0.44670
2096.34956	0.44527
2094.42100	0.44382
2092.49243	0.44239
2090.56387	0.44088
2088.63530	0.43911
2086.70674	0.43717
2084.77817	0.43528
2082.84961	0.43345
2080.92104	0.43151
2078.99248	0.42945
2077.06392	0.42742
2075.13535	0.42548
2073.20679	0.42343
2071.27822	0.42113
2069.34966	0.41871
2067.42109	0.41645
2065.49253	0.41434
2063.56396	0.41201
2061.63540	0.40948
2059.70684	0.40701
2057.77827	0.40460
2055.84971	0.40213
2053.92114	0.39955
2051.99258	0.39699
2050.06401	0.39445
2048.13545	0.39178
2046.20688	0.38907
2044.27832	0.38655
2042.34976	0.38410
2040.42119	0.38146
2038.49263	0.37865
2036.56406	0.37586
2034.63550	0.37311
2032.70693	0.37032
2030.77837	0.36755
2028.84980	0.36480
2026.92124	0.36210
2024.99268	0.35938
2023.06411	0.35659
2021.13555	0.35388
2019.20698	0.35137
2017.27842	0.34883
2015.34985	0.34601
2013.42129	0.34300
2011.49272	0.34002
2009.56416	0.33727
2007.63560	0.33469
2005.70703	0.33204
2003.77847	0.32924
2001.84990	0.32654
1999.92134	0.32405
1997.99277	0.32154
1996.06421	0.31898
1994.13564	0.31661
1992.20708	0.31431
1990.27852	0.31168
1988.34995	0.30893
1986.42139	0.30633
1984.49282	0.30384
1982.56426	0.30139
1980.63569	0.29896
1978.70713	0.29664
1976.77856	0.29443
1974.85000	0.29221
1972.92144	0.28994
1970.99287	0.28782
1969.06431	0.28598
1967.13574	0.28417
1965.20718	0.28204
1963.27861	0.27984
1961.35005	0.27780
1959.42148	0.27585
1957.49292	0.27395
1955.56436	0.27216
1953.63579	0.27042
1951.70723	0.26862
1949.77866	0.26682
1947.85010	0.26524
1945.92153	0.26395
1943.99297	0.26280
1942.06440	0.26146
1940.13584	0.25976
1938.20728	0.25804
1936.27871	0.25653
1934.35015	0.25515
1932.42158	0.25394
1930.49302	0.25282
1928.56445	0.25169
1926.63589	0.25059
1924.70732	0.24981
1922.77876	0.24923
1920.85020	0.24839
1918.92163	0.24750
1916.99307	0.24645
1915.06450	0.24500
1913.13594	0.24376
1911.20737	0.24317
1909.27881	0.24279
1907.35024	0.24210
1905.42168	0.24117
1903.49312	0.24035
1901.56455	0.23976
1899.63599	0.23927
1897.70742	0.23885
1895.77886	0.23856
1893.85029	0.23829
1891.92173	0.23795
1889.99316	0.23778
1888.06460	0.23744
1886.13604	0.23688
1884.20747	0.23646
1882.27891	0.23619
1880.35034	0.23603
1878.42178	0.23595
1876.49321	0.23591
1874.56465	0.23589
1872.63608	0.23613
1870.70752	0.23703
1868.77896	0.23837
1866.85039	0.23860
1864.92183	0.23772
1862.99326	0.23721
1861.06470	0.23734
1859.13613	0.23768
1857.20757	0.23790
1855.27900	0.23821
1853.35044	0.23874
1851.42187	0.23943
1849.49331	0.24022
1847.56475	0.24124
1845.63618	0.24256
1843.70762	0.24375
1841.77905	0.24395
1839.85049	0.24388
1837.92192	0.24457
1835.99336	0.24556
1834.06479	0.24642
1832.13623	0.24762
1830.20767	0.24968
1828.27910	0.25143
1826.35054	0.25220
1824.42197	0.25312
1822.49341	0.25396
1820.56484	0.25480
1818.63628	0.25604
1816.70771	0.25761
1814.77915	0.25921
1812.85059	0.26112
1810.92202	0.26346
1808.99346	0.26556
1807.06489	0.26724
1805.13633	0.26902
1803.20776	0.27148
1801.27920	0.27450
1799.35063	0.27748
1797.42207	0.27989
1795.49351	0.28242
1793.56494	0.28576
1791.63638	0.28968
1789.70781	0.29239
1787.77925	0.29412
1785.85068	0.29693
1783.92212	0.30076
1781.99355	0.30495
1780.06499	0.30933
1778.13643	0.31360
1776.20786	0.31777
1774.27930	0.32279
1772.35073	0.32952
1770.42217	0.33569
1768.49360	0.34008
1766.56504	0.34460
1764.63647	0.34967
1762.70791	0.35568
1760.77935	0.36334
1758.85078	0.37034
1756.92222	0.37738
1754.99365	0.38502
1753.06509	0.39203
1751.13652	0.40092
1749.20796	0.41236
1747.27939	0.42284
1745.35083	0.43148
1743.42227	0.44077
1741.49370	0.45131
1739.56514	0.46378
1737.63657	0.47616
1735.70801	0.48719
1733.77944	0.50412
1731.85088	0.52359
1729.92231	0.53799
1727.99375	0.55273
1726.06519	0.56909
1724.13662	0.58750
1722.20806	0.60741
1720.27949	0.62595
1718.35093	0.64850
1716.42236	0.68189
1714.49380	0.71178
1712.56523	0.73455
1710.63667	0.75691
1708.70811	0.78179
1706.77954	0.81081
1704.85098	0.84535
1702.92241	0.87534
1700.99385	0.90436
1699.06528	0.94832
1697.13672	0.98819
1695.20815	1.02726
1693.27959	1.06438
1691.35103	1.09409
1689.42246	1.12894
1687.49390	1.16577
1685.56533	1.20085
1683.63677	1.25514
1681.70820	1.31069
1679.77964	1.34494
1677.85107	1.37815
1675.92251	1.41616
1673.99395	1.46251
1672.06538	1.50332
1670.13682	1.54370
1668.20825	1.59705
1666.27969	1.63866
1664.35112	1.67213
1662.42256	1.71318
1660.49399	1.75962
1658.56543	1.79539
1656.63687	1.82547
1654.70830	1.85582
1652.77974	1.90956
1650.85117	1.96208
1648.92261	1.98113
1646.99404	2.00779
1645.06548	2.04080
1643.13691	2.06481
1641.20835	2.07994
1639.27979	2.09300
1637.35122	2.10262
1635.42266	2.10834
1633.49409	2.10777
1631.56553	2.09973
1629.63696	2.08869
1627.70840	2.06772
1625.77983	2.04199
1623.85127	2.00836
1621.92271	1.96674
1619.99414	1.93036
1618.06558	1.89442
1616.13701	1.83879
1614.20845	1.77915
1612.27988	1.73413
1610.35132	1.68845
1608.42275	1.63912
1606.49419	1.58906
1604.56562	1.54197
1602.63706	1.49633
1600.70850	1.45124
1598.77993	1.40930
1596.85137	1.36987
1594.92280	1.33148
1592.99424	1.29405
1591.06567	1.25934
1589.13711	1.22605
1587.20854	1.19435
1585.27998	1.16478
1583.35142	1.13708
1581.42285	1.11169
1579.49429	1.08995
1577.56572	1.06999
1575.63716	1.04365
1573.70859	1.01944
1571.78003	1.00382
1569.85146	0.98661
1567.92290	0.96579
1565.99434	0.94917
1564.06577	0.93523
1562.13721	0.92372
1560.20864	0.91468
1558.28008	0.89688
1556.35151	0.87771
1554.42295	0.86590
1552.49438	0.85474
1550.56582	0.84399
1548.63726	0.83322
1546.70869	0.82419
1544.78013	0.81699
1542.85156	0.81049
1540.92300	0.80277
1538.99443	0.78923
1537.06587	0.77885
1535.13730	0.77322
1533.20874	0.76668
1531.28018	0.75869
1529.35161	0.75266
1527.42305	0.74775
1525.49448	0.74297
1523.56592	0.73886
1521.63735	0.73439
1519.70879	0.72784
1517.78022	0.72153
1515.85166	0.71525
1513.92310	0.70936
1511.99453	0.70520
1510.06597	0.70250
1508.13740	0.70090
1506.20884	0.69632
1504.28027	0.68946
1502.35171	0.68531
1500.42314	0.68265
1498.49458	0.68049
1496.56602	0.67752
1494.63745	0.67362
1492.70889	0.67067
1490.78032	0.66905
1488.85176	0.66688
1486.92319	0.66292
1484.99463	0.65895
1483.06606	0.65601
1481.13750	0.65350
1479.20894	0.65093
1477.28037	0.64877
1475.35181	0.64719
1473.42324	0.64538
1471.49468	0.64131
1469.56611	0.63646
1467.63755	0.63325
1465.70898	0.63121
1463.78042	0.62902
1461.85186	0.62687
1459.92329	0.62594
1457.99473	0.62565
1456.06616	0.62273
1454.13760	0.61843
1452.20903	0.61574
1450.28047	0.61400
1448.35190	0.61256
1446.42334	0.61072
1444.49478	0.60865
1442.56621	0.60706
1440.63765	0.60590
1438.70908	0.60502
1436.78052	0.60423
1434.85195	0.60302
1432.92339	0.60156
1430.99482	0.60033
1429.06626	0.59897
1427.13770	0.59734
1425.20913	0.59591
1423.28057	0.59464
1421.35200	0.59346
1419.42344	0.59250
1417.49487	0.59086
1415.56631	0.58835
1413.63774	0.58617
1411.70918	0.58455
1409.78062	0.58316
1407.85205	0.58188
1405.92349	0.58093
1403.99492	0.57990
1402.06636	0.57845
1400.13779	0.57728
1398.20923	0.57646
1396.28066	0.57537
1394.35210	0.57369
1392.42354	0.57172
1390.49497	0.57023
1388.56641	0.56935
1386.63784	0.56837
1384.70928	0.56681
1382.78071	0.56522
1380.85215	0.56404
1378.92358	0.56321
1376.99502	0.56272
1375.06646	0.56248
1373.13789	0.56174
1371.20933	0.56037
1369.28076	0.55907
1367.35220	0.55800
1365.42363	0.55723
1363.49507	0.55683
1361.56650	0.55612
1359.63794	0.55474
1357.70937	0.55347
1355.78081	0.55260
1353.85225	0.55183
1351.92368	0.55097
1349.99512	0.55018
1348.06655	0.54936
1346.13799	0.54838
1344.20942	0.54745
1342.28086	0.54688
1340.35229	0.54667
1338.42373	0.54609
1336.49517	0.54468
1334.56660	0.54306
1332.63804	0.54186
1330.70947	0.54100
1328.78091	0.54015
1326.85234	0.53927
1324.92378	0.53844
1322.99521	0.53767
1321.06665	0.53698
1319.13809	0.53638
1317.20952	0.53556
1315.28096	0.53441
1313.35239	0.53322
1311.42383	0.53221
1309.49526	0.53126
1307.56670	0.53036
1305.63813	0.52955
1303.70957	0.52866
1301.78101	0.52761
1299.85244	0.52662
1297.92388	0.52576
1295.99531	0.52486
1294.06675	0.52392
1292.13818	0.52301
1290.20962	0.52209
1288.28105	0.52114
1286.35249	0.52028
1284.42393	0.51972
1282.49536	0.51927
1280.56680	0.51858
1278.63823	0.51768
1276.70967	0.51684
1274.78110	0.51614
1272.85254	0.51555
1270.92397	0.51500
1268.99541	0.51427
1267.06685	0.51330
1265.13828	0.51242
1263.20972	0.51187
1261.28115	0.51137
1259.35259	0.51071
1257.42402	0.51004
1255.49546	0.50944
1253.56689	0.50889
1251.63833	0.50836
1249.70977	0.50784
1247.78120	0.50725
1245.85264	0.50660
1243.92407	0.50601
1241.99551	0.50549
1240.06694	0.50487
1238.13838	0.50403
1236.20981	0.50304
1234.28125	0.50208
1232.35269	0.50127
1230.42412	0.50053
1228.49556	0.49985
1226.56699	0.49928
1224.63843	0.49858
1222.70986	0.49764
1220.78130	0.49674
1218.85273	0.49601
1216.92417	0.49524
1214.99561	0.49435
1213.06704	0.49349
1211.13848	0.49262
1209.20991	0.49169
1207.28135	0.49080
1205.35278	0.48995
1203.42422	0.48912
1201.49565	0.48830
1199.56709	0.48736
1197.63853	0.48631
1195.70996	0.48536
1193.78140	0.48449
1191.85283	0.48352
1189.92427	0.48248
1187.99570	0.48145
1186.06714	0.48037
1184.13857	0.47918
1182.21001	0.47812
1180.28145	0.47731
1178.35288	0.47654
1176.42432	0.47566
1174.49575	0.47469
1172.56719	0.47372
1170.63862	0.47286
1168.71006	0.47212
1166.78149	0.47131
1164.85293	0.47038
1162.92437	0.46951
1160.99580	0.46884
1159.06724	0.46816
1157.13867	0.46732
1155.21011	0.46643
1153.28154	0.46551
1151.35298	0.46457
1149.42441	0.46377
1147.49585	0.46309
1145.56729	0.46230
1143.63872	0.46133
1141.71016	0.46029
1139.78159	0.45933
1137.85303	0.45847
1135.92446	0.45758
1133.99590	0.45673
1132.06733	0.45598
1130.13877	0.45512
1128.21021	0.45410
1126.28164	0.45325
1124.35308	0.45260
1122.42451	0.45203
1120.49595	0.45156
1118.56738	0.45113
1116.63882	0.45063
1114.71025	0.45025
1112.78169	0.45001
1110.85312	0.44971
1108.92456	0.44940
1106.99600	0.44909
1105.06743	0.44871
1103.13887	0.44832
1101.21030	0.44797
1099.28174	0.44769
1097.35317	0.44755
1095.42461	0.44744
1093.49604	0.44731
1091.56748	0.44722
1089.63892	0.44701
1087.71035	0.44657
1085.78179	0.44610
1083.85322	0.44580
1081.92466	0.44550
1079.99609	0.44504
1078.06753	0.44475
1076.13896	0.44479
1074.21040	0.44495
1072.28184	0.44506
1070.35327	0.44504
1068.42471	0.44497
1066.49614	0.44507
1064.56758	0.44534
1062.63901	0.44576
1060.71045	0.44628
1058.78188	0.44666
1056.85332	0.44678
1054.92476	0.44693
1052.99619	0.44720
1051.06763	0.44736
1049.13906	0.44750
1047.21050	0.44786
1045.28193	0.44830
1043.35337	0.44856
1041.42480	0.44886
1039.49624	0.44950
1037.56768	0.45027
1035.63911	0.45088
1033.71055	0.45153
1031.78198	0.45242
1029.85342	0.45345
1027.92485	0.45452
1025.99629	0.45565
1024.06772	0.45680
1022.13916	0.45797
1020.21060	0.45920
1018.28203	0.46037
1016.35347	0.46146
1014.42490	0.46259
1012.49634	0.46393
1010.56777	0.46557
1008.63921	0.46727
1006.71064	0.46883
1004.78208	0.47042
1002.85352	0.47215
1000.92495	0.47396
998.99639	0.47585
997.06782	0.47783
995.13926	0.47995
993.21069	0.48214
991.28213	0.48429
989.35356	0.48667
987.42500	0.48930
985.49644	0.49202
983.56787	0.49483
981.63931	0.49753
979.71074	0.50003
977.78218	0.50274
975.85361	0.50583
973.92505	0.50911
971.99648	0.51250
970.06792	0.51607
968.13936	0.51979
966.21079	0.52344
964.28223	0.52696
962.35366	0.53075
960.42510	0.53502
958.49653	0.53934
956.56797	0.54359
954.63940	0.54807
952.71084	0.55274
950.78228	0.55741
948.85371	0.56210
946.92515	0.56702
944.99658	0.57234
943.06802	0.57793
941.13945	0.58366
939.21089	0.58958
937.28232	0.59561
935.35376	0.60160
933.42520	0.60780
931.49663	0.61462
929.56807	0.62171
927.63950	0.62846
925.71094	0.63502
923.78237	0.64210
921.85381	0.64982
919.92524	0.65749
917.99668	0.66485
916.06812	0.67278
914.13955	0.68171
912.21099	0.69082
910.28242	0.69929
908.35386	0.70744
906.42529	0.71615
904.49673	0.72541
902.56816	0.73466
900.63960	0.74399
898.71104	0.75371
896.78247	0.76314
894.85391	0.77199
892.92534	0.78148
890.99678	0.79260
889.06821	0.80457
887.13965	0.81524
885.21108	0.82421
883.28252	0.83392
881.35396	0.84531
879.42539	0.85644
877.49683	0.86624
875.56826	0.87632
873.63970	0.88874
871.71113	0.90203
869.78257	0.91280
867.85400	0.92275
865.92544	0.93447
863.99687	0.94610
862.06831	0.95727
860.13975	0.96917
858.21118	0.98092
856.28262	0.99166
854.35405	1.00208
852.42549	1.01296
850.49692	1.02484
848.56836	1.03747
846.63979	1.05072
844.71123	1.06479
842.78267	1.07771
840.85410	1.08961
838.92554	1.10164
836.99697	1.11207
835.06841	1.12194
833.13984	1.13326
831.21128	1.14421
829.28271	1.15480
827.35415	1.16790
825.42559	1.18315
823.49702	1.19655
821.56846	1.20422
819.63989	1.21014
817.71133	1.22189
815.78276	1.23600
813.85420	1.24178
811.92563	1.24550
809.99707	1.26291
808.06851	1.29032
806.13994	1.31393
804.21138	1.32513
802.28281	1.32411
800.35425	1.32209
798.42568	1.33038
796.49712	1.33198
794.56855	1.31422
792.63999	1.31225
790.71143	1.33777
788.78286	1.36977
786.85430	1.40493
784.92573	1.47171
782.99717	1.57176
781.06860	1.60590
779.14004	1.54465
777.21147	1.49627
775.28291	1.52633
773.35435	1.63514
771.42578	1.67068
769.49722	1.60102
767.56865	1.60469
765.64009	1.57893
763.71152	1.48955
761.78296	1.42200
759.85439	1.33531
757.92583	1.30349
755.99727	1.37513
754.06870	1.46267
752.14014	1.48105
750.21157	1.49609
748.28301	1.40127
746.35444	1.19238
744.42588	1.13010
742.49731	1.29009
740.56875	1.34522
738.64019	1.01329
736.71162	0.79064
734.78306	0.68162
732.85449	0.62970
730.92593	0.60248
728.99736	0.62902
727.06880	0.70100
725.14023	0.56895
723.21167	0.36583
721.28311	0.22490
719.35454	0.09820
717.42598	0.02275
715.49741	-0.00591
713.56885	-0.00890
711.64028	-0.05358
709.71172	-0.30463
707.78315	-0.75243
705.85459	-0.76277
703.92603	-0.22549
701.99746	-0.06303
700.06890	-0.00290
698.14033	0.05738
696.21177	0.13441
694.28320	0.29919
692.35464	0.65116
690.42607	1.04546
688.49751	0.61420
686.56895	0.54004
684.64038	0.59600
682.71182	0.45081
680.78325	0.48148
678.85469	1.22556
676.92612	0.96397
674.99756	0.35521
673.06899	0.25725
671.14043	0.38652
669.21187	0.53305
667.28330	0.63656
665.35474	0.68857
663.42617	0.57399
661.49761	0.44528
659.56904	0.35682
657.64048	0.36657
655.71191	0.36692
653.78335	0.26823
651.85479	0.21720
649.92622	0.21098
647.99766	0.26169
646.06909	0.46576
644.14053	0.61943
642.21196	0.31441
640.28340	0.25364
638.35483	0.46733
636.42627	1.06514
634.49771	0.85132
632.56914	0.45173
630.64058	0.29050
628.71201	0.24929
626.78345	0.18140
624.85488	0.08471
622.92632	0.08975
620.99775	0.20430
619.06919	0.31343
617.14062	0.34732
615.21206	0.44523
613.28350	0.59583
611.35493	0.53571
609.42637	0.36552
607.49780	0.27067
605.56924	0.24272
603.64067	0.27009
601.71211	0.33071
599.78354	0.34013
597.85498	0.26231
595.92642	0.23617
593.99785	0.31412
592.06929	0.37458
590.14072	0.44920
588.21216	0.73572
586.28359	0.59653
584.35503	0.30517
582.42646	0.21369
580.49790	0.25156
578.56934	0.31083
576.64077	0.31083
574.71221	0.23465
572.78364	0.12709
570.85508	0.09177
568.92651	0.15299
566.99795	0.28753
565.06938	0.37631
563.14082	0.31294
561.21226	0.27620
559.28369	0.28707
557.35513	0.31017
555.42656	0.29923
553.49800	0.24681
551.56943	0.24378
549.64087	0.27786
547.71230	0.24288
545.78374	0.18991
543.85518	0.22033
541.92661	0.28595
539.99805	0.29433
538.06948	0.31870
536.14092	0.37111
534.21235	0.33615
532.28379	0.26929
530.35522	0.21849
528.42666	0.16536
526.49810	0.15840
524.56953	0.20241
522.64097	0.21931
520.71240	0.22938
518.78384	0.24058
516.85527	0.21527
514.92671	0.15093
512.99814	0.08249
511.06958	0.03518
509.14102	0.01275
507.21245	0.06736
505.28389	0.18392
503.35532	0.26516
501.42676	0.28569
499.49819	0.27218
