3997.91411	0.07045
3995.98555	0.07117
3994.05698	0.07170
3992.12842	0.07171
3990.19985	0.07152
3988.27129	0.07165
3986.34272	0.07195
3984.41416	0.07208
3982.48560	0.07214
3980.55703	0.07228
3978.62847	0.07249
3976.69990	0.07307
3974.77134	0.07391
3972.84277	0.07435
3970.91421	0.07438
3968.98564	0.07450
3967.05708	0.07472
3965.12852	0.07469
3963.19995	0.07463
3961.27139	0.07494
3959.34282	0.07530
3957.41426	0.07533
3955.48569	0.07544
3953.55713	0.07584
3951.62856	0.07621
3949.70000	0.07635
3947.77144	0.07632
3945.84287	0.07627
3943.91431	0.07619
3941.98574	0.07598
3940.05718	0.07580
3938.12861	0.07582
3936.20005	0.07584
3934.27148	0.07587
3932.34292	0.07623
3930.41436	0.07675
3928.48579	0.07666
3926.55723	0.07611
3924.62866	0.07609
3922.70010	0.07632
3920.77153	0.07606
3918.84297	0.07585
3916.91440	0.07610
3914.98584	0.07608
3913.05728	0.07539
3911.12871	0.07452
3909.20015	0.07385
3907.27158	0.07400
3905.34302	0.07542
3903.41445	0.07747
3901.48589	0.07873
3899.55732	0.07880
3897.62876	0.07796
3895.70020	0.07660
3893.77163	0.07583
3891.84307	0.07612
3889.91450	0.07640
3887.98594	0.07604
3886.05737	0.07633
3884.12881	0.07732
3882.20024	0.07781
3880.27168	0.07788
3878.34312	0.07749
3876.41455	0.07707
3874.48599	0.07796
3872.55742	0.07974
3870.62886	0.08085
3868.70029	0.08119
3866.77173	0.08105
3864.84316	0.08099
3862.91460	0.08108
3860.98604	0.08057
3859.05747	0.08009
3857.12891	0.08041
3855.20034	0.08130
3853.27178	0.08315
3851.34321	0.08508
3849.41465	0.08409
3847.48608	0.08249
3845.55752	0.08185
3843.62896	0.08221
3841.70039	0.08391
3839.77183	0.08714
3837.84326	0.09025
3835.91470	0.09040
3833.98613	0.08875
3832.05757	0.08814
3830.12900	0.08851
3828.20044	0.08880
3826.27187	0.08927
3824.34331	0.09027
3822.41475	0.09215
3820.48618	0.09517
3818.55762	0.09681
3816.62905	0.09680
3814.70049	0.09644
3812.77192	0.09521
3810.84336	0.09457
3808.91479	0.09563
3806.98623	0.09807
3805.05767	0.10045
3803.12910	0.10224
3801.20054	0.10452
3799.27197	0.10586
3797.34341	0.10601
3795.41484	0.10656
3793.48628	0.10670
3791.55771	0.10669
3789.62915	0.10748
3787.70059	0.10887
3785.77202	0.11064
3783.84346	0.11245
3781.91489	0.11383
3779.98633	0.11570
3778.05776	0.11811
3776.12920	0.11917
3774.20063	0.11968
3772.27207	0.12128
3770.34351	0.12393
3768.41494	0.12670
3766.48638	0.12882
3764.55781	0.13050
3762.62925	0.13166
3760.70068	0.13345
3758.77212	0.13706
3756.84355	0.14081
3754.91499	0.14321
3752.98643	0.14591
3751.05786	0.15087
3749.12930	0.15642
3747.20073	0.15846
3745.27217	0.16006
3743.34360	0.16359
3741.41504	0.16641
3739.48647	0.16846
3737.55791	0.17214
3735.62935	0.17846
3733.70078	0.18554
3731.77222	0.19004
3729.84365	0.19288
3727.91509	0.19607
3725.98652	0.20121
3724.05796	0.20801
3722.12939	0.21486
3720.20083	0.22174
3718.27227	0.22871
3716.34370	0.23577
3714.41514	0.24319
3712.48657	0.25285
3710.55801	0.26725
3708.62944	0.28210
3706.70088	0.29306
3704.77231	0.30363
3702.84375	0.31701
3700.91519	0.33474
3698.98662	0.35343
3697.05806	0.37080
3695.12949	0.38974
3693.20093	0.41008
3691.27236	0.43232
3689.34380	0.46209
3687.41523	0.49851
3685.48667	0.52855
3683.55811	0.55380
3681.62954	0.58153
3679.70098	0.61362
3677.77241	0.64788
3675.84385	0.68874
3673.91528	0.74449
3671.98672	0.78897
3670.05815	0.82767
3668.12959	0.88156
3666.20103	0.92977
3664.27246	0.96993
3662.34390	1.01394
3660.41533	1.06160
3658.48677	1.10798
3656.55820	1.15737
3654.62964	1.21333
3652.70107	1.26019
3650.77251	1.30080
3648.84395	1.35889
3646.91538	1.43108
3644.98682	1.48092
3643.05825	1.51805
3641.12969	1.55729
3639.20112	1.60179
3637.27256	1.64655
3635.34399	1.68979
3633.41543	1.73328
3631.48687	1.77409
3629.55830	1.81533
3627.62974	1.87041
3625.70117	1.92164
3623.77261	1.95519
3621.84404	1.98706
3619.91548	2.02429
3617.98691	2.07107
3616.05835	2.11574
3614.12979	2.15154
3612.20122	2.18992
3610.27266	2.22945
3608.34409	2.26898
3606.41553	2.31141
3604.48696	2.35145
3602.55840	2.38696
3600.62983	2.42447
3598.70127	2.46406
3596.77271	2.50277
3594.84414	2.54426
3592.91558	2.58808
3590.98701	2.62824
3589.05845	2.66444
3587.12988	2.70746
3585.20132	2.75590
3583.27275	2.79720
3581.34419	2.83563
3579.41562	2.87634
3577.48706	2.91765
3575.55850	2.95935
3573.62993	3.00257
3571.70137	3.04321
3569.77280	3.08154
3567.84424	3.12409
3565.91567	3.17838
3563.98711	3.23048
3562.05854	3.27160
3560.12998	3.31152
3558.20142	3.35203
3556.27285	3.39426
3554.34429	3.43796
3552.41572	3.48442
3550.48716	3.53530
3548.55859	3.58476
3546.63003	3.62949
3544.70146	3.67529
3542.77290	3.72267
3540.84434	3.76890
3538.91577	3.81496
3536.98721	3.86025
3535.05864	3.90848
3533.13008	3.95857
3531.20151	4.00671
3529.27295	4.05488
3527.34438	4.10483
3525.41582	4.15465
3523.48726	4.20224
3521.55869	4.24736
3519.63013	4.29150
3517.70156	4.33797
3515.77300	4.38654
3513.84443	4.43567
3511.91587	4.48461
3509.98730	4.53270
3508.05874	4.57722
3506.13018	4.61687
3504.20161	4.65809
3502.27305	4.70942
3500.34448	4.76629
3498.41592	4.81655
3496.48735	4.86213
3494.55879	4.90855
3492.63022	4.95563
3490.70166	5.00332
3488.77310	5.05044
3486.84453	5.09629
3484.91597	5.14498
3482.98740	5.19332
3481.05884	5.23836
3479.13027	5.28740
3477.20171	5.33872
3475.27314	5.38433
3473.34458	5.42855
3471.41602	5.47916
3469.48745	5.52998
3467.55889	5.57479
3465.63032	5.62190
3463.70176	5.67451
3461.77319	5.72597
3459.84463	5.78038
3457.91606	5.83933
3455.98750	5.89613
3454.05894	5.94593
3452.13037	5.99825
3450.20181	6.05365
3448.27324	6.08760
3446.34468	6.11598
3444.41611	6.16957
3442.48755	6.22719
3440.55898	6.26492
3438.63042	6.30559
3436.70186	6.35849
3434.77329	6.41496
3432.84473	6.47517
3430.91616	6.51890
3428.98760	6.55114
3427.05903	6.59637
3425.13047	6.65647
3423.20190	6.71141
3421.27334	6.77298
3419.34478	6.85356
3417.41621	6.91103
3415.48765	6.94022
3413.55908	6.97891
3411.63052	7.04310
3409.70195	7.09782
3407.77339	7.12449
3405.84482	7.14444
3403.91626	7.17211
3401.98770	7.20745
3400.05913	7.25320
3398.13057	7.28440
3396.20200	7.28299
3394.27344	7.30250
3392.34487	7.35107
3390.41631	7.42263
3388.48774	7.51001
3386.55918	7.54773
3384.63062	7.54352
3382.70205	7.59423
3380.77349	7.66255
3378.84492	7.64398
3376.91636	7.63003
3374.98779	7.71359
3373.05923	7.80645
3371.13066	7.81975
3369.20210	7.86055
3367.27354	7.96988
3365.34497	8.03175
3363.41641	8.00880
3361.48784	7.95042
3359.55928	7.88991
3357.63071	7.89714
3355.70215	8.02922
3353.77358	8.15516
3351.84502	8.14207
3349.91646	8.04412
3347.98789	7.96677
3346.05933	7.93340
3344.13076	7.91194
3342.20220	7.92816
3340.27363	7.97323
3338.34507	7.98959
3336.41650	7.95330
3334.48794	7.92428
3332.55937	7.97320
3330.63081	8.05977
3328.70225	8.06906
3326.77368	8.02456
3324.84512	8.01259
3322.91655	8.03576
3320.98799	8.07196
3319.05942	8.09216
3317.13086	8.09079
3315.20229	8.05252
3313.27373	8.03584
3311.34517	8.07309
3309.41660	8.07922
3307.48804	8.02468
3305.55947	8.00151
3303.63091	8.08802
3301.70234	8.21326
3299.77378	8.24134
3297.84521	8.17184
3295.91665	8.20085
3293.98809	8.37172
3292.05952	8.43105
3290.13096	8.29044
3288.20239	8.16442
3286.27383	8.13021
3284.34526	8.14137
3282.41670	8.18151
3280.48813	8.20487
3278.55957	8.22301
3276.63101	8.22387
3274.70244	8.18099
3272.77388	8.17113
3270.84531	8.20548
3268.91675	8.22750
3266.98818	8.23407
3265.05962	8.30578
3263.13105	8.41958
3261.20249	8.45275
3259.27393	8.39159
3257.34536	8.31961
3255.41680	8.30253
3253.48823	8.26922
3251.55967	8.13281
3249.63110	8.01623
3247.70254	7.99723
3245.77397	8.00181
3243.84541	8.00709
3241.91685	8.04007
3239.98828	8.09236
3238.05972	8.09784
3236.13115	8.05346
3234.20259	8.03841
3232.27402	8.01682
3230.34546	7.92153
3228.41689	7.86154
3226.48833	7.94603
3224.55977	8.04764
3222.63120	8.04567
3220.70264	8.01608
3218.77407	7.95656
3216.84551	7.88942
3214.91694	7.89330
3212.98838	7.91069
3211.05981	7.89145
3209.13125	7.86863
3207.20269	7.84709
3205.27412	7.83636
3203.34556	7.83413
3201.41699	7.80960
3199.48843	7.76979
3197.55986	7.75517
3195.63130	7.74707
3193.70273	7.70215
3191.77417	7.61262
3189.84561	7.49697
3187.91704	7.41266
3185.98848	7.37948
3184.05991	7.36575
3182.13135	7.33353
3180.20278	7.25203
3178.27422	7.15820
3176.34565	7.11324
3174.41709	7.09880
3172.48853	7.08156
3170.55996	7.05691
3168.63140	7.00894
3166.70283	6.94513
3164.77427	6.89009
3162.84570	6.84817
3160.91714	6.80446
3158.98857	6.73023
3157.06001	6.62455
3155.13145	6.53716
3153.20288	6.48504
3151.27432	6.43654
3149.34575	6.37574
3147.41719	6.29830
3145.48862	6.20753
3143.56006	6.12216
3141.63149	6.05628
3139.70293	6.00327
3137.77437	5.94104
3135.84580	5.85997
3133.91724	5.77507
3131.98867	5.70053
3130.06011	5.63646
3128.13154	5.57809
3126.20298	5.51662
3124.27441	5.44494
3122.34585	5.37156
3120.41729	5.30594
3118.48872	5.23935
3116.56016	5.16453
3114.63159	5.08507
3112.70303	5.00539
3110.77446	4.93052
3108.84590	4.86497
3106.91733	4.80525
3104.98877	4.74020
3103.06021	4.66678
3101.13164	4.59383
3099.20308	4.52845
3097.27451	4.46624
3095.34595	4.40134
3093.41738	4.33463
3091.48882	4.26845
3089.56025	4.20329
3087.63169	4.13858
3085.70312	4.07531
3083.77456	4.01274
3081.84600	3.94944
3079.91743	3.88709
3077.98887	3.82602
3076.06030	3.76498
3074.13174	3.70564
3072.20317	3.64845
3070.27461	3.59038
3068.34604	3.53177
3066.41748	3.47415
3064.48892	3.41644
3062.56035	3.35896
3060.63179	3.30382
3058.70322	3.25098
3056.77466	3.19788
3054.84609	3.14309
3052.91753	3.08911
3050.98896	3.03781
3049.06040	2.98694
3047.13184	2.93574
3045.20327	2.88589
3043.27471	2.83802
3041.34614	2.79126
3039.41758	2.74465
3037.48901	2.69856
3035.56045	2.65288
3033.63188	2.60703
3031.70332	2.56089
3029.77476	2.51485
3027.84619	2.46999
3025.91763	2.42636
3023.98906	2.38420
3022.06050	2.34396
3020.13193	2.30443
3018.20337	2.26474
3016.27480	2.22520
3014.34624	2.18589
3012.41768	2.14706
3010.48911	2.10901
3008.56055	2.07163
3006.63198	2.03514
3004.70342	1.99953
3002.77485	1.96401
3000.84629	1.92860
2998.91772	1.89406
2996.98916	1.86058
2995.06060	1.82759
2993.13203	1.79436
2991.20347	1.76112
2989.27490	1.72873
2987.34634	1.69777
2985.41777	1.66774
2983.48921	1.63754
2981.56064	1.60727
2979.63208	1.57756
2977.70352	1.54837
2975.77495	1.51960
2973.84639	1.49106
2971.91782	1.46262
2969.98926	1.43499
2968.06069	1.40836
2966.13213	1.38214
2964.20356	1.35643
2962.27500	1.33129
2960.34644	1.30646
2958.41787	1.28210
2956.48931	1.25820
2954.56074	1.23462
2952.63218	1.21147
2950.70361	1.18915
2948.77505	1.16777
2946.84648	1.14679
2944.91792	1.12576
2942.98936	1.10477
2941.06079	1.08387
2939.13223	1.06292
2937.20366	1.04231
2935.27510	1.02234
2933.34653	1.00288
2931.41797	0.98425
2929.48940	0.96635
2927.56084	0.94856
2925.63228	0.93104
2923.70371	0.91413
2921.77515	0.89756
2919.84658	0.88108
2917.91802	0.86524
2915.98945	0.85046
2914.06089	0.83577
2912.13232	0.82100
2910.20376	0.80683
2908.27520	0.79308
2906.34663	0.77946
2904.41807	0.76604
2902.48950	0.75307
2900.56094	0.74043
2898.63237	0.72793
2896.70381	0.71567
2894.77524	0.70363
2892.84668	0.69176
2890.91812	0.68008
2888.98955	0.66844
2887.06099	0.65677
2885.13242	0.64530
2883.20386	0.63415
2881.27529	0.62320
2879.34673	0.61239
2877.41816	0.60193
2875.48960	0.59185
2873.56104	0.58147
2871.63247	0.57081
2869.70391	0.56088
2867.77534	0.55164
2865.84678	0.54206
2863.91821	0.53215
2861.98965	0.52266
2860.06108	0.51370
2858.13252	0.50492
2856.20396	0.49624
2854.27539	0.48785
2852.34683	0.47978
2850.41826	0.47204
2848.48970	0.46451
2846.56113	0.45716
2844.63257	0.45045
2842.70400	0.44439
2840.77544	0.43857
2838.84687	0.43271
2836.91831	0.42679
2834.98975	0.42086
2833.06118	0.41502
2831.13262	0.40933
2829.20405	0.40369
2827.27549	0.39804
2825.34692	0.39232
2823.41836	0.38657
2821.48979	0.38084
2819.56123	0.37504
2817.63267	0.36925
2815.70410	0.36370
2813.77554	0.35855
2811.84697	0.35349
2809.91841	0.34826
2807.98984	0.34308
2806.06128	0.33817
2804.13271	0.33343
2802.20415	0.32872
2800.27559	0.32385
2798.34702	0.31893
2796.41846	0.31432
2794.48989	0.31012
2792.56133	0.30605
2790.63276	0.30196
2788.70420	0.29781
2786.77563	0.29358
2784.84707	0.28955
2782.91851	0.28585
2780.98994	0.28211
2779.06138	0.27826
2777.13281	0.27463
2775.20425	0.27118
2773.27568	0.26767
2771.34712	0.26408
2769.41855	0.26056
2767.48999	0.25722
2765.56143	0.25401
2763.63286	0.25087
2761.70430	0.24783
2759.77573	0.24480
2757.84717	0.24178
2755.91860	0.23894
2753.99004	0.23628
2752.06147	0.23353
2750.13291	0.23068
2748.20435	0.22795
2746.27578	0.22528
2744.34722	0.22260
2742.41865	0.22005
2740.49009	0.21773
2738.56152	0.21553
2736.63296	0.21340
2734.70439	0.21129
2732.77583	0.20912
2730.84727	0.20685
2728.91870	0.20452
2726.99014	0.20235
2725.06157	0.20037
2723.13301	0.19847
2721.20444	0.19660
2719.27588	0.19473
2717.34731	0.19289
2715.41875	0.19114
2713.49019	0.18938
2711.56162	0.18762
2709.63306	0.18601
2707.70449	0.18443
2705.77593	0.18281
2703.84736	0.18136
2701.91880	0.18000
2699.99023	0.17853
2698.06167	0.17708
2696.13311	0.17576
2694.20454	0.17439
2692.27598	0.17291
2690.34741	0.17163
2688.41885	0.17050
2686.49028	0.16932
2684.56172	0.16827
2682.63315	0.16725
2680.70459	0.16614
2678.77603	0.16503
2676.84746	0.16398
2674.91890	0.16295
2672.99033	0.16200
2671.06177	0.16120
2669.13320	0.16026
2667.20464	0.15913
2665.27607	0.15815
2663.34751	0.15732
2661.41895	0.15648
2659.49038	0.15567
2657.56182	0.15496
2655.63325	0.15434
2653.70469	0.15369
2651.77612	0.15300
2649.84756	0.15248
2647.91899	0.15221
2645.99043	0.15181
2644.06187	0.15106
2642.13330	0.15027
2640.20474	0.14982
2638.27617	0.14963
2636.34761	0.14939
2634.41904	0.14905
2632.49048	0.14872
2630.56191	0.14848
2628.63335	0.14834
2626.70479	0.14814
2624.77622	0.14778
2622.84766	0.14736
2620.91909	0.14706
2618.99053	0.14704
2617.06196	0.14719
2615.13340	0.14717
2613.20483	0.14697
2611.27627	0.14684
2609.34771	0.14686
2607.41914	0.14693
2605.49058	0.14698
2603.56201	0.14698
2601.63345	0.14706
2599.70488	0.14726
2597.77632	0.14746
2595.84775	0.14755
2593.91919	0.14761
2591.99062	0.14766
2590.06206	0.14773
2588.13350	0.14790
2586.20493	0.14816
2584.27637	0.14850
2582.34780	0.14893
2580.41924	0.14939
2578.49067	0.14972
2576.56211	0.14998
2574.63354	0.15034
2572.70498	0.15077
2570.77642	0.15119
2568.84785	0.15153
2566.91929	0.15195
2564.99072	0.15256
2563.06216	0.15310
2561.13359	0.15349
2559.20503	0.15395
2557.27646	0.15446
2555.34790	0.15503
2553.41934	0.15575
2551.49077	0.15651
2549.56221	0.15718
2547.63364	0.15778
2545.70508	0.15835
2543.77651	0.15891
2541.84795	0.15952
2539.91938	0.16027
2537.99082	0.16106
2536.06226	0.16180
2534.13369	0.16254
2532.20513	0.16332
2530.27656	0.16416
2528.34800	0.16507
2526.41943	0.16588
2524.49087	0.16652
2522.56230	0.16727
2520.63374	0.16821
2518.70518	0.16908
2516.77661	0.16978
2514.84805	0.17053
2512.91948	0.17139
2510.99092	0.17218
2509.06235	0.17291
2507.13379	0.17375
2505.20522	0.17466
2503.27666	0.17558
2501.34810	0.17655
2499.41953	0.17756
2497.49097	0.17851
2495.56240	0.17938
2493.63384	0.18028
2491.70527	0.18122
2489.77671	0.18208
2487.84814	0.18289
2485.91958	0.18376
2483.99102	0.18474
2482.06245	0.18570
2480.13389	0.18661
2478.20532	0.18760
2476.27676	0.18863
2474.34819	0.18962
2472.41963	0.19054
2470.49106	0.19141
2468.56250	0.19235
2466.63394	0.19348
2464.70537	0.19458
2462.77681	0.19554
2460.84824	0.19652
2458.91968	0.19754
2456.99111	0.19854
2455.06255	0.19959
2453.13398	0.20075
2451.20542	0.20189
2449.27686	0.20292
2447.34829	0.20388
2445.41973	0.20486
2443.49116	0.20594
2441.56260	0.20705
2439.63403	0.20809
2437.70547	0.20911
2435.77690	0.21019
2433.84834	0.21135
2431.91978	0.21254
2429.99121	0.21368
2428.06265	0.21471
2426.13408	0.21572
2424.20552	0.21686
2422.27695	0.21808
2420.34839	0.21919
2418.41982	0.22022
2416.49126	0.22131
2414.56270	0.22249
2412.63413	0.22378
2410.70557	0.22517
2408.77700	0.22651
2406.84844	0.22767
2404.91987	0.22881
2402.99131	0.23001
2401.06274	0.23121
2399.13418	0.23242
2397.20562	0.23371
2395.27705	0.23501
2393.34849	0.23619
2391.41992	0.23740
2389.49136	0.23883
2387.56279	0.24044
2385.63423	0.24212
2383.70566	0.24399
2381.77710	0.24622
2379.84854	0.24869
2377.91997	0.25110
2375.99141	0.25353
2374.06284	0.25662
2372.13428	0.26037
2370.20571	0.26391
2368.27715	0.26730
2366.34858	0.27080
2364.42002	0.27394
2362.49146	0.27693
2360.56289	0.27897
2358.63433	0.27943
2356.70576	0.28018
2354.77720	0.28125
2352.84863	0.28126
2350.92007	0.28024
2348.99150	0.27945
2347.06294	0.28001
2345.13437	0.28241
2343.20581	0.28593
2341.27725	0.28897
2339.34868	0.29089
2337.42012	0.29197
2335.49155	0.29286
2333.56299	0.29396
2331.63442	0.29579
2329.70586	0.29801
2327.77729	0.29964
2325.84873	0.30078
2323.92017	0.30159
2321.99160	0.30189
2320.06304	0.30242
2318.13447	0.30353
2316.20591	0.30452
2314.27734	0.30540
2312.34878	0.30664
2310.42021	0.30806
2308.49165	0.30936
2306.56309	0.31065
2304.63452	0.31197
2302.70596	0.31336
2300.77739	0.31507
2298.84883	0.31695
2296.92026	0.31873
2294.99170	0.32038
2293.06313	0.32197
2291.13457	0.32346
2289.20601	0.32503
2287.27744	0.32687
2285.34888	0.32888
2283.42031	0.33079
2281.49175	0.33257
2279.56318	0.33448
2277.63462	0.33664
2275.70605	0.33890
2273.77749	0.34107
2271.84893	0.34315
2269.92036	0.34527
2267.99180	0.34740
2266.06323	0.34949
2264.13467	0.35159
2262.20610	0.35374
2260.27754	0.35590
2258.34897	0.35804
2256.42041	0.36019
2254.49185	0.36231
2252.56328	0.36441
2250.63472	0.36653
2248.70615	0.36867
2246.77759	0.37085
2244.84902	0.37305
2242.92046	0.37523
2240.99189	0.37745
2239.06333	0.37977
2237.13477	0.38216
2235.20620	0.38448
2233.27764	0.38676
2231.34907	0.38903
2229.42051	0.39119
2227.49194	0.39322
2225.56338	0.39542
2223.63481	0.39789
2221.70625	0.40029
2219.77769	0.40249
2217.84912	0.40462
2215.92056	0.40676
2213.99199	0.40897
2212.06343	0.41133
2210.13486	0.41359
2208.20630	0.41564
2206.27773	0.41770
2204.34917	0.41983
2202.42061	0.42200
2200.49204	0.42418
2198.56348	0.42628
2196.63491	0.42820
2194.70635	0.43009
2192.77778	0.43200
2190.84922	0.43381
2188.92065	0.43561
2186.99209	0.43749
2185.06353	0.43942
2183.13496	0.44140
2181.20640	0.44330
2179.27783	0.44502
2177.34927	0.44661
2175.42070	0.44809
2173.49214	0.44955
2171.56357	0.45108
2169.63501	0.45269
2167.70645	0.45412
2165.77788	0.45529
2163.84932	0.45645
2161.92075	0.45761
2159.99219	0.45870
2158.06362	0.45982
2156.13506	0.46097
2154.20649	0.46201
2152.27793	0.46287
2150.34937	0.46356
2148.42080	0.46412
2146.49224	0.46462
2144.56367	0.46511
2142.63511	0.46560
2140.70654	0.46597
2138.77798	0.46624
2136.84941	0.46645
2134.92085	0.46664
2132.99229	0.46675
2131.06372	0.46676
2129.13516	0.46677
2127.20659	0.46665
2125.27803	0.46627
2123.34946	0.46584
2121.42090	0.46538
2119.49233	0.46477
2117.56377	0.46412
2115.63521	0.46344
2113.70664	0.46268
2111.77808	0.46180
2109.84951	0.46083
2107.92095	0.45987
2105.99238	0.45884
2104.06382	0.45767
2102.13525	0.45646
2100.20669	0.45525
2098.27812	0.45383
2096.34956	0.45223
2094.42100	0.45063
2092.49243	0.44894
2090.56387	0.44713
2088.63530	0.44538
2086.70674	0.44372
2084.77817	0.44199
2082.84961	0.44016
2080.92104	0.43830
2078.99248	0.43633
2077.06392	0.43415
2075.13535	0.43197
2073.20679	0.42985
2071.27822	0.42761
2069.34966	0.42524
2067.42109	0.42295
2065.49253	0.42075
2063.56396	0.41845
2061.63540	0.41602
2059.70684	0.41358
2057.77827	0.41110
2055.84971	0.40850
2053.92114	0.40581
2051.99258	0.40320
2050.06401	0.40067
2048.13545	0.39806
2046.20688	0.39541
2044.27832	0.39282
2042.34976	0.39015
2040.42119	0.38731
2038.49263	0.38444
2036.56406	0.38164
2034.63550	0.37886
2032.70693	0.37607
2030.77837	0.37326
2028.84980	0.37039
2026.92124	0.36750
2024.99268	0.36468
2023.06411	0.36197
2021.13555	0.35927
2019.20698	0.35656
2017.27842	0.35389
2015.34985	0.35112
2013.42129	0.34824
2011.49272	0.34531
2009.56416	0.34245
2007.63560	0.33963
2005.70703	0.33687
2003.77847	0.33421
2001.84990	0.33155
1999.92134	0.32886
1997.99277	0.32623
1996.06421	0.32372
1994.13564	0.32128
1992.20708	0.31878
1990.27852	0.31613
1988.34995	0.31350
1986.42139	0.31094
1984.49282	0.30841
1982.56426	0.30593
1980.63569	0.30351
1978.70713	0.30121
1976.77856	0.29891
1974.85000	0.29653
1972.92144	0.29412
1970.99287	0.29186
1969.06431	0.28989
1967.13574	0.28806
1965.20718	0.28607
1963.27861	0.28391
1961.35005	0.28183
1959.42148	0.27991
1957.49292	0.27804
1955.56436	0.27616
1953.63579	0.27431
1951.70723	0.27248
1949.77866	0.27079
1947.85010	0.26925
1945.92153	0.26775
1943.99297	0.26639
1942.06440	0.26508
1940.13584	0.26349
1938.20728	0.26174
1936.27871	0.26014
1934.35015	0.25872
1932.42158	0.25744
1930.49302	0.25627
1928.56445	0.25518
1926.63589	0.25411
1924.70732	0.25319
1922.77876	0.25233
1920.85020	0.25133
1918.92163	0.25037
1916.99307	0.24945
1915.06450	0.24832
1913.13594	0.24723
1911.20737	0.24654
1909.27881	0.24599
1907.35024	0.24527
1905.42168	0.24446
1903.49312	0.24377
1901.56455	0.24318
1899.63599	0.24265
1897.70742	0.24225
1895.77886	0.24192
1893.85029	0.24149
1891.92173	0.24098
1889.99316	0.24073
1888.06460	0.24058
1886.13604	0.24026
1884.20747	0.23994
1882.27891	0.23964
1880.35034	0.23936
1878.42178	0.23921
1876.49321	0.23923
1874.56465	0.23927
1872.63608	0.23940
1870.70752	0.23993
1868.77896	0.24095
1866.85039	0.24137
1864.92183	0.24082
1862.99326	0.24041
1861.06470	0.24049
1859.13613	0.24085
1857.20757	0.24121
1855.27900	0.24156
1853.35044	0.24192
1851.42187	0.24247
1849.49331	0.24323
1847.56475	0.24414
1845.63618	0.24524
1843.70762	0.24642
1841.77905	0.24707
1839.85049	0.24727
1837.92192	0.24784
1835.99336	0.24868
1834.06479	0.24952
1832.13623	0.25053
1830.20767	0.25215
1828.27910	0.25383
1826.35054	0.25492
1824.42197	0.25615
1822.49341	0.25729
1820.56484	0.25830
1818.63628	0.25956
1816.70771	0.26115
1814.77915	0.26277
1812.85059	0.26460
1810.92202	0.26689
1808.99346	0.26908
1807.06489	0.27087
1805.13633	0.27263
1803.20776	0.27492
1801.27920	0.27772
1799.35063	0.28070
1797.42207	0.28324
1795.49351	0.28578
1793.56494	0.28887
1791.63638	0.29261
1789.70781	0.29579
1787.77925	0.29810
1785.85068	0.30113
1783.92212	0.30491
1781.99355	0.30899
1780.06499	0.31336
1778.13643	0.31770
1776.20786	0.32164
1774.27930	0.32604
1772.35073	0.33235
1770.42217	0.33915
1768.49360	0.34436
1766.56504	0.34919
1764.63647	0.35430
1762.70791	0.36030
1760.77935	0.36806
1758.85078	0.37517
1756.92222	0.38220
1754.99365	0.38988
1753.06509	0.39681
1751.13652	0.40534
1749.20796	0.41655
1747.27939	0.42732
1745.35083	0.43631
1743.42227	0.44580
1741.49370	0.45641
1739.56514	0.46896
1737.63657	0.48144
1735.70801	0.49232
1733.77944	0.50922
1731.85088	0.52963
1729.92231	0.54510
1727.99375	0.56054
1726.06519	0.57720
1724.13662	0.59579
1722.20806	0.61602
1720.27949	0.63452
1718.35093	0.65633
1716.42236	0.68966
1714.49380	0.72104
1712.56523	0.74522
1710.63667	0.76839
1708.70811	0.79357
1706.77954	0.82256
1704.85098	0.85731
1702.92241	0.88759
1700.99385	0.91670
1699.06528	0.96156
1697.13672	1.00304
1695.20815	1.04406
1693.27959	1.08264
1691.35103	1.11294
1689.42246	1.14849
1687.49390	1.18629
1685.56533	1.22189
1683.63677	1.27727
1681.70820	1.33510
1679.77964	1.37087
1677.85107	1.40535
1675.92251	1.44520
1673.99395	1.49479
1672.06538	1.53822
1670.13682	1.57995
1668.20825	1.63447
1666.27969	1.67593
1664.35112	1.70941
1662.42256	1.75243
1660.49399	1.80181
1658.56543	1.83899
1656.63687	1.86986
1654.70830	1.90036
1652.77974	1.95389
1650.85117	2.00818
1648.92261	2.02912
1646.99404	2.05891
1645.06548	2.09388
1643.13691	2.11814
1641.20835	2.13404
1639.27979	2.14813
1637.35122	2.15741
1635.42266	2.16097
1633.49409	2.15846
1631.56553	2.14958
1629.63696	2.13753
1627.70840	2.11535
1625.77983	2.09013
1623.85127	2.05763
1621.92271	2.01525
1619.99414	1.97600
1618.06558	1.93740
1616.13701	1.88132
1614.20845	1.82286
1612.27988	1.77850
1610.35132	1.73209
1608.42275	1.68103
1606.49419	1.62958
1604.56562	1.58176
1602.63706	1.53527
1600.70850	1.48927
1598.77993	1.44646
1596.85137	1.40616
1594.92280	1.36696
1592.99424	1.32835
1591.06567	1.29222
1589.13711	1.25793
1587.20854	1.22580
1585.27998	1.19575
1583.35142	1.16703
1581.42285	1.14015
1579.49429	1.11706
1577.56572	1.09612
1575.63716	1.06872
1573.70859	1.04375
1571.78003	1.02770
1569.85146	1.00987
1567.92290	0.98850
1565.99434	0.97160
1564.06577	0.95726
1562.13721	0.94521
1560.20864	0.93517
1558.28008	0.91564
1556.35151	0.89628
1554.42295	0.88463
1552.49438	0.87324
1550.56582	0.86233
1548.63726	0.85145
1546.70869	0.84209
1544.78013	0.83411
1542.85156	0.82655
1540.92300	0.81773
1538.99443	0.80429
1537.06587	0.79490
1535.13730	0.78927
1533.20874	0.78207
1531.28018	0.77396
1529.35161	0.76807
1527.42305	0.76276
1525.49448	0.75715
1523.56592	0.75183
1521.63735	0.74614
1519.70879	0.73986
1517.78022	0.73465
1515.85166	0.72909
1513.92310	0.72345
1511.99453	0.71910
1510.06597	0.71592
1508.13740	0.71355
1506.20884	0.70850
1504.28027	0.70247
1502.35171	0.69888
1500.42314	0.69620
1498.49458	0.69364
1496.56602	0.69044
1494.63745	0.68689
1492.70889	0.68424
1490.78032	0.68253
1488.85176	0.68026
1486.92319	0.67671
1484.99463	0.67331
1483.06606	0.67060
1481.13750	0.66819
1479.20894	0.66586
1477.28037	0.66383
1475.35181	0.66203
1473.42324	0.66002
1471.49468	0.65678
1469.56611	0.65319
1467.63755	0.65042
1465.70898	0.64810
1463.78042	0.64556
1461.85186	0.64321
1459.92329	0.64159
1457.99473	0.64019
1456.06616	0.63744
1454.13760	0.63390
1452.20903	0.63131
1450.28047	0.62940
1448.35190	0.62757
1446.42334	0.62539
1444.49478	0.62328
1442.56621	0.62155
1440.63765	0.62012
1438.70908	0.61909
1436.78052	0.61825
1434.85195	0.61682
1432.92339	0.61506
1430.99482	0.61362
1429.06626	0.61220
1427.13770	0.61060
1425.20913	0.60920
1423.28057	0.60794
1421.35200	0.60658
1419.42344	0.60516
1417.49487	0.60335
1415.56631	0.60126
1413.63774	0.59951
1411.70918	0.59803
1409.78062	0.59645
1407.85205	0.59476
1405.92349	0.59330
1403.99492	0.59185
1402.06636	0.59029
1400.13779	0.58906
1398.20923	0.58804
1396.28066	0.58693
1394.35210	0.58553
1392.42354	0.58379
1390.49497	0.58237
1388.56641	0.58151
1386.63784	0.58053
1384.70928	0.57906
1382.78071	0.57772
1380.85215	0.57670
1378.92358	0.57592
1376.99502	0.57534
1375.06646	0.57480
1373.13789	0.57390
1371.20933	0.57277
1369.28076	0.57185
1367.35220	0.57093
1365.42363	0.56990
1363.49507	0.56902
1361.56650	0.56820
1359.63794	0.56713
1357.70937	0.56607
1355.78081	0.56511
1353.85225	0.56422
1351.92368	0.56334
1349.99512	0.56242
1348.06655	0.56150
1346.13799	0.56061
1344.20942	0.55964
1342.28086	0.55862
1340.35229	0.55788
1338.42373	0.55723
1336.49517	0.55622
1334.56660	0.55504
1332.63804	0.55389
1330.70947	0.55280
1328.78091	0.55191
1326.85234	0.55116
1324.92378	0.55033
1322.99521	0.54954
1321.06665	0.54892
1319.13809	0.54829
1317.20952	0.54741
1315.28096	0.54643
1313.35239	0.54548
1311.42383	0.54449
1309.49526	0.54358
1307.56670	0.54280
1305.63813	0.54197
1303.70957	0.54111
1301.78101	0.54033
1299.85244	0.53964
1297.92388	0.53899
1295.99531	0.53827
1294.06675	0.53745
1292.13818	0.53661
1290.20962	0.53591
1288.28105	0.53542
1286.35249	0.53501
1284.42393	0.53455
1282.49536	0.53403
1280.56680	0.53345
1278.63823	0.53283
1276.70967	0.53229
1274.78110	0.53196
1272.85254	0.53164
1270.92397	0.53113
1268.99541	0.53055
1267.06685	0.53024
1265.13828	0.53004
1263.20972	0.52974
1261.28115	0.52943
1259.35259	0.52911
1257.42402	0.52871
1255.49546	0.52835
1253.56689	0.52809
1251.63833	0.52790
1249.70977	0.52780
1247.78120	0.52763
1245.85264	0.52734
1243.92407	0.52707
1241.99551	0.52680
1240.06694	0.52639
1238.13838	0.52581
1236.20981	0.52514
1234.28125	0.52453
1232.35269	0.52408
1230.42412	0.52372
1228.49556	0.52314
1226.56699	0.52244
1224.63843	0.52187
1222.70986	0.52121
1220.78130	0.52042
1218.85273	0.51983
1216.92417	0.51938
1214.99561	0.51877
1213.06704	0.51803
1211.13848	0.51733
1209.20991	0.51673
1207.28135	0.51616
1205.35278	0.51557
1203.42422	0.51505
1201.49565	0.51456
1199.56709	0.51398
1197.63853	0.51345
1195.70996	0.51308
1193.78140	0.51265
1191.85283	0.51215
1189.92427	0.51178
1187.99570	0.51150
1186.06714	0.51117
1184.13857	0.51087
1182.21001	0.51073
1180.28145	0.51078
1178.35288	0.51097
1176.42432	0.51134
1174.49575	0.51183
1172.56719	0.51221
1170.63862	0.51261
1168.71006	0.51327
1166.78149	0.51396
1164.85293	0.51435
1162.92437	0.51463
1160.99580	0.51495
1159.06724	0.51495
1157.13867	0.51454
1155.21011	0.51386
1153.28154	0.51294
1151.35298	0.51156
1149.42441	0.50956
1147.49585	0.50717
1145.56729	0.50471
1143.63872	0.50229
1141.71016	0.49998
1139.78159	0.49779
1137.85303	0.49554
1135.92446	0.49329
1133.99590	0.49139
1132.06733	0.48986
1130.13877	0.48853
1128.21021	0.48722
1126.28164	0.48584
1124.35308	0.48456
1122.42451	0.48357
1120.49595	0.48305
1118.56738	0.48295
1116.63882	0.48304
1114.71025	0.48310
1112.78169	0.48320
1110.85312	0.48376
1108.92456	0.48472
1106.99600	0.48557
1105.06743	0.48646
1103.13887	0.48776
1101.21030	0.48939
1099.28174	0.49130
1097.35317	0.49362
1095.42461	0.49655
1093.49604	0.50021
1091.56748	0.50467
1089.63892	0.51010
1087.71035	0.51638
1085.78179	0.52314
1083.85322	0.53013
1081.92466	0.53700
1079.99609	0.54279
1078.06753	0.54642
1076.13896	0.54741
1074.21040	0.54560
1072.28184	0.54108
1070.35327	0.53479
1068.42471	0.52808
1066.49614	0.52168
1064.56758	0.51566
1062.63901	0.51012
1060.71045	0.50530
1058.78188	0.50118
1056.85332	0.49747
1054.92476	0.49403
1052.99619	0.49107
1051.06763	0.48886
1049.13906	0.48721
1047.21050	0.48593
1045.28193	0.48500
1043.35337	0.48415
1041.42480	0.48353
1039.49624	0.48335
1037.56768	0.48331
1035.63911	0.48324
1033.71055	0.48322
1031.78198	0.48301
1029.85342	0.48253
1027.92485	0.48217
1025.99629	0.48200
1024.06772	0.48209
1022.13916	0.48247
1020.21060	0.48280
1018.28203	0.48312
1016.35347	0.48382
1014.42490	0.48478
1012.49634	0.48565
1010.56777	0.48653
1008.63921	0.48766
1006.71064	0.48906
1004.78208	0.49075
1002.85352	0.49285
1000.92495	0.49551
998.99639	0.49874
997.06782	0.50238
995.13926	0.50623
993.21069	0.50991
991.28213	0.51293
989.35356	0.51510
987.42500	0.51658
985.49644	0.51749
983.56787	0.51797
981.63931	0.51858
979.71074	0.51991
977.78218	0.52201
975.85361	0.52457
973.92505	0.52735
971.99648	0.53038
970.06792	0.53381
968.13936	0.53766
966.21079	0.54168
964.28223	0.54590
962.35366	0.55073
960.42510	0.55600
958.49653	0.56126
956.56797	0.56658
954.63940	0.57241
952.71084	0.57876
950.78228	0.58527
948.85371	0.59199
946.92515	0.59877
944.99658	0.60514
943.06802	0.61104
941.13945	0.61654
939.21089	0.62182
937.28232	0.62714
935.35376	0.63258
933.42520	0.63810
931.49663	0.64357
929.56807	0.64915
927.63950	0.65515
925.71094	0.66152
923.78237	0.66814
921.85381	0.67486
919.92524	0.68183
917.99668	0.68911
916.06812	0.69593
914.13955	0.70241
912.21099	0.70967
910.28242	0.71772
908.35386	0.72606
906.42529	0.73455
904.49673	0.74295
902.56816	0.75163
900.63960	0.76110
898.71104	0.77064
896.78247	0.78011
894.85391	0.79024
892.92534	0.80076
890.99678	0.81079
889.06821	0.82041
887.13965	0.83081
885.21108	0.84229
883.28252	0.85372
881.35396	0.86496
879.42539	0.87727
877.49683	0.88997
875.56826	0.90160
873.63970	0.91229
871.71113	0.92185
869.78257	0.93087
867.85400	0.94143
865.92544	0.95314
863.99687	0.96474
862.06831	0.97708
860.13975	0.98950
858.21118	1.00033
856.28262	1.01097
854.35405	1.02302
852.42549	1.03508
850.49692	1.04639
848.56836	1.05835
846.63979	1.07059
844.71123	1.08208
842.78267	1.09305
840.85410	1.10362
838.92554	1.11515
836.99697	1.12836
835.06841	1.13966
833.13984	1.14802
831.21128	1.15596
829.28271	1.16482
827.35415	1.17498
825.42559	1.18213
823.49702	1.18827
821.56846	1.20188
819.63989	1.21876
817.71133	1.23218
815.78276	1.24518
813.85420	1.25542
811.92563	1.26534
809.99707	1.28644
808.06851	1.30543
806.13994	1.30270
804.21138	1.28988
802.28281	1.29094
800.35425	1.31044
798.42568	1.32680
796.49712	1.33416
794.56855	1.35235
792.63999	1.37334
790.71143	1.36592
788.78286	1.35018
786.85430	1.34462
784.92573	1.32685
782.99717	1.32192
781.06860	1.37159
779.14004	1.46441
777.21147	1.48448
775.28291	1.40180
773.35435	1.38844
771.42578	1.48043
769.49722	1.57579
767.56865	1.56417
765.64009	1.44307
763.71152	1.32235
761.78296	1.24522
759.85439	1.23802
757.92583	1.29011
755.99727	1.24977
754.06870	1.15335
752.14014	1.15607
750.21157	1.20588
748.28301	1.16541
746.35444	1.09338
744.42588	1.05731
742.49731	1.05523
740.56875	1.07348
738.64019	1.07352
736.71162	1.04250
734.78306	1.02708
732.85449	1.12534
730.92593	2.44596
728.99736	4.37398
727.06880	4.36241
725.14023	0.82601
723.21167	0.48256
721.28311	0.28800
719.35454	0.19376
717.42598	0.14959
715.49741	0.10007
713.56885	-0.00872
711.64028	-0.23653
709.71172	-0.32585
707.78315	-0.10310
705.85459	0.09515
703.92603	0.22458
701.99746	0.19358
700.06890	0.05886
698.14033	0.00025
696.21177	0.02626
694.28320	0.10410
692.35464	0.16079
690.42607	0.20946
688.49751	0.19748
686.56895	0.09014
684.64038	0.07256
682.71182	0.16231
680.78325	0.22119
678.85469	0.25683
676.92612	0.34656
674.99756	0.29581
673.06899	0.12044
671.14043	0.04884
669.21187	0.07967
667.28330	0.08373
665.35474	0.07202
663.42617	0.12463
661.49761	0.21435
659.56904	0.22781
657.64048	0.16428
655.71191	0.07221
653.78335	0.01887
651.85479	0.03437
649.92622	0.07985
647.99766	0.10277
646.06909	0.12037
644.14053	0.18075
642.21196	0.20554
640.28340	0.15344
638.35483	0.16209
636.42627	0.23778
634.49771	0.21028
632.56914	0.13445
630.64058	0.18609
628.71201	0.25333
626.78345	0.24993
624.85488	0.26723
622.92632	0.29016
620.99775	0.23812
619.06919	0.14985
617.14062	0.17394
615.21206	0.21291
613.28350	0.16442
611.35493	0.10247
609.42637	0.10347
607.49780	0.20058
605.56924	0.40533
603.64067	0.50572
601.71211	0.43586
599.78354	0.47176
597.85498	0.53827
595.92642	0.36678
593.99785	0.24718
592.06929	0.23091
590.14072	0.19140
588.21216	0.12327
586.28359	0.16394
584.35503	0.36306
582.42646	0.76774
580.49790	0.64545
578.56934	0.42064
576.64077	0.33225
574.71221	0.30214
572.78364	0.33156
570.85508	0.45139
568.92651	0.57907
566.99795	0.51613
565.06938	0.40954
563.14082	0.34450
561.21226	0.29917
559.28369	0.15891
557.35513	0.01140
555.42656	0.00800
553.49800	0.18119
551.56943	0.34718
549.64087	0.34680
547.71230	0.32556
545.78374	0.31307
543.85518	0.29281
541.92661	0.24184
539.99805	0.19101
538.06948	0.15396
536.14092	0.11729
534.21235	0.10529
532.28379	0.14969
530.35522	0.20519
528.42666	0.22695
526.49810	0.24873
524.56953	0.26819
522.64097	0.20067
520.71240	0.11168
518.78384	0.08545
516.85527	0.09422
514.92671	0.11180
512.99814	0.17027
511.06958	0.30418
509.14102	0.43974
507.21245	0.31299
505.28389	0.19457
503.35532	0.13179
501.42676	0.10982
499.49819	0.14821
