3997.91411	0.06741
3995.98555	0.06785
3994.05698	0.06836
3992.12842	0.06856
3990.19985	0.06854
3988.27129	0.06865
3986.34272	0.06889
3984.41416	0.06926
3982.48560	0.06969
3980.55703	0.06975
3978.62847	0.06950
3976.69990	0.06969
3974.77134	0.07036
3972.84277	0.07080
3970.91421	0.07079
3968.98564	0.07074
3967.05708	0.07090
3965.12852	0.07109
3963.19995	0.07122
3961.27139	0.07136
3959.34282	0.07150
3957.41426	0.07143
3955.48569	0.07143
3953.55713	0.07177
3951.62856	0.07212
3949.70000	0.07227
3947.77144	0.07238
3945.84287	0.07236
3943.91431	0.07210
3941.98574	0.07188
3940.05718	0.07166
3938.12861	0.07140
3936.20005	0.07130
3934.27148	0.07156
3932.34292	0.07230
3930.41436	0.07279
3928.48579	0.07250
3926.55723	0.07225
3924.62866	0.07245
3922.70010	0.07275
3920.77153	0.07279
3918.84297	0.07244
3916.91440	0.07170
3914.98584	0.07098
3913.05728	0.07078
3911.12871	0.07099
3909.20015	0.07095
3907.27158	0.07055
3905.34302	0.07043
3903.41445	0.07102
3901.48589	0.07154
3899.55732	0.07135
3897.62876	0.07100
3895.70020	0.07073
3893.77163	0.07065
3891.84307	0.07122
3889.91450	0.07202
3887.98594	0.07190
3886.05737	0.07147
3884.12881	0.07146
3882.20024	0.07149
3880.27168	0.07158
3878.34312	0.07195
3876.41455	0.07216
3874.48599	0.07249
3872.55742	0.07317
3870.62886	0.07375
3868.70029	0.07425
3866.77173	0.07459
3864.84316	0.07489
3862.91460	0.07543
3860.98604	0.07574
3859.05747	0.07546
3857.12891	0.07490
3855.20034	0.07497
3853.27178	0.07701
3851.34321	0.07968
3849.41465	0.07943
3847.48608	0.07842
3845.55752	0.07815
3843.62896	0.07865
3841.70039	0.07959
3839.77183	0.08047
3837.84326	0.08136
3835.91470	0.08241
3833.98613	0.08305
3832.05757	0.08319
3830.12900	0.08333
3828.20044	0.08372
3826.27187	0.08465
3824.34331	0.08583
3822.41475	0.08697
3820.48618	0.08899
3818.55762	0.09045
3816.62905	0.09033
3814.70049	0.09034
3812.77192	0.09047
3810.84336	0.09056
3808.91479	0.09119
3806.98623	0.09263
3805.05767	0.09405
3803.12910	0.09491
3801.20054	0.09688
3799.27197	0.09943
3797.34341	0.10025
3795.41484	0.10071
3793.48628	0.10137
3791.55771	0.10207
3789.62915	0.10322
3787.70059	0.10471
3785.77202	0.10635
3783.84346	0.10803
3781.91489	0.10945
3779.98633	0.11090
3778.05776	0.11265
3776.12920	0.11402
3774.20063	0.11510
3772.27207	0.11664
3770.34351	0.11902
3768.41494	0.12196
3766.48638	0.12420
3764.55781	0.12561
3762.62925	0.12682
3760.70068	0.12848
3758.77212	0.13125
3756.84355	0.13425
3754.91499	0.13629
3752.98643	0.13843
3751.05786	0.14202
3749.12930	0.14647
3747.20073	0.14923
3745.27217	0.15113
3743.34360	0.15425
3741.41504	0.15776
3739.48647	0.16025
3737.55791	0.16282
3735.62935	0.16706
3733.70078	0.17327
3731.77222	0.17875
3729.84365	0.18231
3727.91509	0.18528
3725.98652	0.18980
3724.05796	0.19653
3722.12939	0.20402
3720.20083	0.21190
3718.27227	0.22019
3716.34370	0.22813
3714.41514	0.23544
3712.48657	0.24403
3710.55801	0.25711
3708.62944	0.27211
3706.70088	0.28418
3704.77231	0.29519
3702.84375	0.30805
3700.91519	0.32504
3698.98662	0.34372
3697.05806	0.36148
3695.12949	0.38050
3693.20093	0.40054
3691.27236	0.42200
3689.34380	0.45049
3687.41523	0.48668
3685.48667	0.51818
3683.55811	0.54473
3681.62954	0.57272
3679.70098	0.60411
3677.77241	0.63695
3675.84385	0.67574
3673.91528	0.73007
3671.98672	0.77495
3670.05815	0.81465
3668.12959	0.87039
3666.20103	0.92024
3664.27246	0.96043
3662.34390	1.00364
3660.41533	1.05083
3658.48677	1.09709
3656.55820	1.14603
3654.62964	1.20135
3652.70107	1.24761
3650.77251	1.28702
3648.84395	1.34341
3646.91538	1.41567
3644.98682	1.46713
3643.05825	1.50581
3641.12969	1.54562
3639.20112	1.58936
3637.27256	1.63328
3635.34399	1.67606
3633.41543	1.71884
3631.48687	1.75847
3629.55830	1.79835
3627.62974	1.85359
3625.70117	1.90622
3623.77261	1.93994
3621.84404	1.97157
3619.91548	2.00907
3617.98691	2.05636
3616.05835	2.10185
3614.12979	2.13894
3612.20122	2.17726
3610.27266	2.21509
3608.34409	2.25492
3606.41553	2.30034
3604.48696	2.34184
3602.55840	2.37616
3600.62983	2.41252
3598.70127	2.45383
3596.77271	2.49478
3594.84414	2.53583
3592.91558	2.57849
3590.98701	2.61790
3589.05845	2.65333
3587.12988	2.69654
3585.20132	2.74645
3583.27275	2.78916
3581.34419	2.82754
3579.41562	2.86797
3577.48706	2.91150
3575.55850	2.95476
3573.62993	2.99697
3571.70137	3.03770
3569.77280	3.07715
3567.84424	3.12034
3565.91567	3.17546
3563.98711	3.22859
3562.05854	3.26918
3560.12998	3.30854
3558.20142	3.35063
3556.27285	3.39300
3554.34429	3.43533
3552.41572	3.48222
3550.48716	3.53230
3548.55859	3.57910
3546.63003	3.62247
3544.70146	3.66881
3542.77290	3.71908
3540.84434	3.76819
3538.91577	3.81493
3536.98721	3.86010
3535.05864	3.90755
3533.13008	3.95612
3531.20151	4.00283
3529.27295	4.04980
3527.34438	4.10031
3525.41582	4.15168
3523.48726	4.20124
3521.55869	4.24989
3519.63013	4.29591
3517.70156	4.34259
3515.77300	4.39153
3513.84443	4.44073
3511.91587	4.49192
3509.98730	4.54674
3508.05874	4.60195
3506.13018	4.64951
3504.20161	4.68707
3502.27305	4.72586
3500.34448	4.77457
3498.41592	4.82538
3496.48735	4.87198
3494.55879	4.91794
3492.63022	4.96691
3490.70166	5.01587
3488.77310	5.06486
3486.84453	5.11656
3484.91597	5.16462
3482.98740	5.20564
3481.05884	5.24882
3479.13027	5.29841
3477.20171	5.35183
3475.27314	5.40901
3473.34458	5.46273
3471.41602	5.50000
3469.48745	5.52773
3467.55889	5.56721
3465.63032	5.62220
3463.70176	5.68334
3461.77319	5.74960
3459.84463	5.82421
3457.91606	5.89101
3455.98750	5.93769
3454.05894	5.97046
3452.13037	5.99732
3450.20181	6.02577
3448.27324	6.06182
3446.34468	6.11716
3444.41611	6.18523
3442.48755	6.24861
3440.55898	6.30040
3438.63042	6.34775
3436.70186	6.40022
3434.77329	6.45517
3432.84473	6.51434
3430.91616	6.57508
3428.98760	6.62279
3427.05903	6.65114
3425.13047	6.68479
3423.20190	6.73431
3421.27334	6.79186
3419.34478	6.84921
3417.41621	6.91018
3415.48765	6.97342
3413.55908	7.01062
3411.63052	7.02930
3409.70195	7.04897
3407.77339	7.08597
3405.84482	7.14202
3403.91626	7.18819
3401.98770	7.19851
3400.05913	7.21026
3398.13057	7.26679
3396.20200	7.33626
3394.27344	7.38148
3392.34487	7.40066
3390.41631	7.42961
3388.48774	7.49002
3386.55918	7.54501
3384.63062	7.52413
3382.70205	7.47917
3380.77349	7.51221
3378.84492	7.60262
3376.91636	7.67345
3374.98779	7.67542
3373.05923	7.65646
3371.13066	7.65977
3369.20210	7.67865
3367.27354	7.67028
3365.34497	7.63321
3363.41641	7.65832
3361.48784	7.78787
3359.55928	7.93791
3357.63071	8.01865
3355.70215	8.08234
3353.77358	8.09852
3351.84502	7.96936
3349.91646	7.78482
3347.98789	7.71060
3346.05933	7.75647
3344.13076	7.83743
3342.20220	7.91835
3340.27363	7.96913
3338.34507	7.96834
3336.41650	7.93581
3334.48794	7.98009
3332.55937	8.13037
3330.63081	8.28207
3328.70225	8.34511
3326.77368	8.26690
3324.84512	8.09189
3322.91655	7.96804
3320.98799	7.95298
3319.05942	7.95476
3317.13086	7.99764
3315.20229	8.12024
3313.27373	8.19916
3311.34517	8.20343
3309.41660	8.17193
3307.48804	8.14240
3305.55947	8.22700
3303.63091	8.34320
3301.70234	8.30295
3299.77378	8.20156
3297.84521	8.10202
3295.91665	8.01069
3293.98809	7.96376
3292.05952	7.94616
3290.13096	7.93255
3288.20239	7.96884
3286.27383	8.07294
3284.34526	8.07968
3282.41670	7.99666
3280.48813	8.03296
3278.55957	8.14533
3276.63101	8.13426
3274.70244	8.08946
3272.77388	8.13883
3270.84531	8.21357
3268.91675	8.22389
3266.98818	8.17358
3265.05962	8.16864
3263.13105	8.18791
3261.20249	8.15101
3259.27393	8.10237
3257.34536	8.09420
3255.41680	8.09253
3253.48823	8.08969
3251.55967	8.13108
3249.63110	8.19321
3247.70254	8.22985
3245.77397	8.16960
3243.84541	8.03893
3241.91685	8.00095
3239.98828	8.07422
3238.05972	8.13585
3236.13115	8.15478
3234.20259	8.14134
3232.27402	8.10649
3230.34546	8.08123
3228.41689	8.01666
3226.48833	7.96570
3224.55977	7.98485
3222.63120	7.99842
3220.70264	8.00269
3218.77407	8.03320
3216.84551	8.08426
3214.91694	8.09397
3212.98838	7.96361
3211.05981	7.80304
3209.13125	7.79670
3207.20269	7.90695
3205.27412	7.91533
3203.34556	7.78439
3201.41699	7.67675
3199.48843	7.65867
3197.55986	7.68749
3195.63130	7.68001
3193.70273	7.61286
3191.77417	7.55592
3189.84561	7.55864
3187.91704	7.56070
3185.98848	7.50413
3184.05991	7.44085
3182.13135	7.39672
3180.20278	7.34462
3178.27422	7.27298
3176.34565	7.19735
3174.41709	7.13360
3172.48853	7.11335
3170.55996	7.12677
3168.63140	7.07086
3166.70283	6.94624
3164.77427	6.84937
3162.84570	6.78475
3160.91714	6.71606
3158.98857	6.64827
3157.06001	6.58546
3155.13145	6.51375
3153.20288	6.45071
3151.27432	6.40958
3149.34575	6.35398
3147.41719	6.27731
3145.48862	6.20994
3143.56006	6.14573
3141.63149	6.07337
3139.70293	5.99418
3137.77437	5.91552
3135.84580	5.85537
3133.91724	5.80182
3131.98867	5.73143
3130.06011	5.65821
3128.13154	5.59109
3126.20298	5.52017
3124.27441	5.44769
3122.34585	5.37425
3120.41729	5.29749
3118.48872	5.22564
3116.56016	5.16411
3114.63159	5.10296
3112.70303	5.03454
3110.77446	4.96329
3108.84590	4.89132
3106.91733	4.81715
3104.98877	4.74747
3103.06021	4.68622
3101.13164	4.62092
3099.20308	4.55078
3097.27451	4.48536
3095.34595	4.41980
3093.41738	4.35268
3091.48882	4.29017
3089.56025	4.23071
3087.63169	4.17148
3085.70312	4.11140
3083.77456	4.04753
3081.84600	3.98261
3079.91743	3.92032
3077.98887	3.85895
3076.06030	3.79777
3074.13174	3.73809
3072.20317	3.67966
3070.27461	3.62144
3068.34604	3.56508
3066.41748	3.51131
3064.48892	3.45789
3062.56035	3.40416
3060.63179	3.35113
3058.70322	3.29732
3056.77466	3.24208
3054.84609	3.18742
3052.91753	3.13427
3050.98896	3.08345
3049.06040	3.03365
3047.13184	2.98280
3045.20327	2.93246
3043.27471	2.88410
3041.34614	2.83679
3039.41758	2.79015
3037.48901	2.74405
3035.56045	2.69723
3033.63188	2.65034
3031.70332	2.60464
3029.77476	2.56008
3027.84619	2.51659
3025.91763	2.47313
3023.98906	2.42971
3022.06050	2.38783
3020.13193	2.34718
3018.20337	2.30673
3016.27480	2.26687
3014.34624	2.22802
3012.41768	2.18974
3010.48911	2.15204
3008.56055	2.11480
3006.63198	2.07750
3004.70342	2.04062
3002.77485	2.00475
3000.84629	1.96954
2998.91772	1.93532
2996.98916	1.90257
2995.06060	1.87049
2993.13203	1.83862
2991.20347	1.80711
2989.27490	1.77560
2987.34634	1.74453
2985.41777	1.71470
2983.48921	1.68556
2981.56064	1.65674
2979.63208	1.62863
2977.70352	1.60111
2975.77495	1.57380
2973.84639	1.54694
2971.91782	1.52069
2969.98926	1.49479
2968.06069	1.46904
2966.13213	1.44359
2964.20356	1.41841
2962.27500	1.39351
2960.34644	1.36933
2958.41787	1.34561
2956.48931	1.32150
2954.56074	1.29715
2952.63218	1.27323
2950.70361	1.25005
2948.77505	1.22733
2946.84648	1.20464
2944.91792	1.18210
2942.98936	1.16029
2941.06079	1.13932
2939.13223	1.11833
2937.20366	1.09706
2935.27510	1.07593
2933.34653	1.05515
2931.41797	1.03473
2929.48940	1.01459
2927.56084	0.99489
2925.63228	0.97633
2923.70371	0.95894
2921.77515	0.94145
2919.84658	0.92370
2917.91802	0.90698
2915.98945	0.89145
2914.06089	0.87620
2912.13232	0.86093
2910.20376	0.84585
2908.27520	0.83110
2906.34663	0.81689
2904.41807	0.80323
2902.48950	0.78971
2900.56094	0.77634
2898.63237	0.76367
2896.70381	0.75126
2894.77524	0.73877
2892.84668	0.72667
2890.91812	0.71482
2888.98955	0.70300
2887.06099	0.69154
2885.13242	0.68056
2883.20386	0.67014
2881.27529	0.66021
2879.34673	0.65028
2877.41816	0.64019
2875.48960	0.63004
2873.56104	0.61956
2871.63247	0.60883
2869.70391	0.59818
2867.77534	0.58735
2865.84678	0.57608
2863.91821	0.56475
2861.98965	0.55382
2860.06108	0.54329
2858.13252	0.53300
2856.20396	0.52307
2854.27539	0.51376
2852.34683	0.50507
2850.41826	0.49687
2848.48970	0.48900
2846.56113	0.48140
2844.63257	0.47422
2842.70400	0.46767
2840.77544	0.46177
2838.84687	0.45621
2836.91831	0.45075
2834.98975	0.44529
2833.06118	0.43974
2831.13262	0.43395
2829.20405	0.42802
2827.27549	0.42204
2825.34692	0.41594
2823.41836	0.40987
2821.48979	0.40414
2819.56123	0.39864
2817.63267	0.39304
2815.70410	0.38721
2813.77554	0.38151
2811.84697	0.37614
2809.91841	0.37099
2807.98984	0.36599
2806.06128	0.36091
2804.13271	0.35570
2802.20415	0.35063
2800.27559	0.34568
2798.34702	0.34067
2796.41846	0.33582
2794.48989	0.33129
2792.56133	0.32681
2790.63276	0.32223
2788.70420	0.31777
2786.77563	0.31359
2784.84707	0.30946
2782.91851	0.30523
2780.98994	0.30108
2779.06138	0.29710
2777.13281	0.29316
2775.20425	0.28925
2773.27568	0.28556
2771.34712	0.28208
2769.41855	0.27852
2767.48999	0.27478
2765.56143	0.27118
2763.63286	0.26789
2761.70430	0.26468
2759.77573	0.26141
2757.84717	0.25812
2755.91860	0.25485
2753.99004	0.25163
2752.06147	0.24859
2750.13291	0.24578
2748.20435	0.24316
2746.27578	0.24051
2744.34722	0.23774
2742.41865	0.23498
2740.49009	0.23223
2738.56152	0.22952
2736.63296	0.22695
2734.70439	0.22443
2732.77583	0.22198
2730.84727	0.21970
2728.91870	0.21744
2726.99014	0.21508
2725.06157	0.21276
2723.13301	0.21054
2721.20444	0.20847
2719.27588	0.20657
2717.34731	0.20462
2715.41875	0.20255
2713.49019	0.20066
2711.56162	0.19904
2709.63306	0.19742
2707.70449	0.19572
2705.77593	0.19409
2703.84736	0.19256
2701.91880	0.19096
2699.99023	0.18930
2698.06167	0.18785
2696.13311	0.18651
2694.20454	0.18506
2692.27598	0.18360
2690.34741	0.18231
2688.41885	0.18119
2686.49028	0.18006
2684.56172	0.17888
2682.63315	0.17769
2680.70459	0.17650
2678.77603	0.17530
2676.84746	0.17417
2674.91890	0.17317
2672.99033	0.17219
2671.06177	0.17116
2669.13320	0.17018
2667.20464	0.16927
2665.27607	0.16835
2663.34751	0.16745
2661.41895	0.16656
2659.49038	0.16567
2657.56182	0.16485
2655.63325	0.16399
2653.70469	0.16317
2651.77612	0.16256
2649.84756	0.16203
2647.91899	0.16148
2645.99043	0.16099
2644.06187	0.16058
2642.13330	0.16013
2640.20474	0.15959
2638.27617	0.15904
2636.34761	0.15849
2634.41904	0.15798
2632.49048	0.15762
2630.56191	0.15733
2628.63335	0.15694
2626.70479	0.15652
2624.77622	0.15614
2622.84766	0.15590
2620.91909	0.15567
2618.99053	0.15532
2617.06196	0.15509
2615.13340	0.15511
2613.20483	0.15515
2611.27627	0.15505
2609.34771	0.15481
2607.41914	0.15460
2605.49058	0.15464
2603.56201	0.15481
2601.63345	0.15488
2599.70488	0.15485
2597.77632	0.15481
2595.84775	0.15482
2593.91919	0.15482
2591.99062	0.15475
2590.06206	0.15469
2588.13350	0.15481
2586.20493	0.15508
2584.27637	0.15545
2582.34780	0.15580
2580.41924	0.15610
2578.49067	0.15643
2576.56211	0.15672
2574.63354	0.15690
2572.70498	0.15713
2570.77642	0.15742
2568.84785	0.15773
2566.91929	0.15811
2564.99072	0.15854
2563.06216	0.15895
2561.13359	0.15939
2559.20503	0.15987
2557.27646	0.16033
2555.34790	0.16087
2553.41934	0.16143
2551.49077	0.16192
2549.56221	0.16250
2547.63364	0.16318
2545.70508	0.16379
2543.77651	0.16443
2541.84795	0.16518
2539.91938	0.16582
2537.99082	0.16634
2536.06226	0.16699
2534.13369	0.16775
2532.20513	0.16845
2530.27656	0.16910
2528.34800	0.16974
2526.41943	0.17044
2524.49087	0.17117
2522.56230	0.17188
2520.63374	0.17259
2518.70518	0.17332
2516.77661	0.17413
2514.84805	0.17493
2512.91948	0.17571
2510.99092	0.17649
2509.06235	0.17728
2507.13379	0.17814
2505.20522	0.17908
2503.27666	0.18000
2501.34810	0.18089
2499.41953	0.18169
2497.49097	0.18239
2495.56240	0.18310
2493.63384	0.18394
2491.70527	0.18490
2489.77671	0.18589
2487.84814	0.18682
2485.91958	0.18761
2483.99102	0.18835
2482.06245	0.18923
2480.13389	0.19022
2478.20532	0.19120
2476.27676	0.19211
2474.34819	0.19298
2472.41963	0.19394
2470.49106	0.19499
2468.56250	0.19602
2466.63394	0.19687
2464.70537	0.19757
2462.77681	0.19840
2460.84824	0.19945
2458.91968	0.20052
2456.99111	0.20149
2455.06255	0.20246
2453.13398	0.20350
2451.20542	0.20454
2449.27686	0.20544
2447.34829	0.20624
2445.41973	0.20714
2443.49116	0.20820
2441.56260	0.20936
2439.63403	0.21055
2437.70547	0.21158
2435.77690	0.21252
2433.84834	0.21363
2431.91978	0.21481
2429.99121	0.21592
2428.06265	0.21702
2426.13408	0.21811
2424.20552	0.21917
2422.27695	0.22027
2420.34839	0.22143
2418.41982	0.22264
2416.49126	0.22380
2414.56270	0.22490
2412.63413	0.22598
2410.70557	0.22712
2408.77700	0.22834
2406.84844	0.22950
2404.91987	0.23056
2402.99131	0.23168
2401.06274	0.23289
2399.13418	0.23414
2397.20562	0.23541
2395.27705	0.23665
2393.34849	0.23785
2391.41992	0.23918
2389.49136	0.24058
2387.56279	0.24175
2385.63423	0.24251
2383.70566	0.24292
2381.77710	0.24309
2379.84854	0.24309
2377.91997	0.24286
2375.99141	0.24219
2374.06284	0.24116
2372.13428	0.23979
2370.20571	0.23790
2368.27715	0.23587
2366.34858	0.23479
2364.42002	0.23374
2362.49146	0.23180
2360.56289	0.23163
2358.63433	0.23403
2356.70576	0.23791
2354.77720	0.24330
2352.84863	0.24997
2350.92007	0.25610
2348.99150	0.25935
2347.06294	0.25966
2345.13437	0.25820
2343.20581	0.25669
2341.27725	0.25714
2339.34868	0.25956
2337.42012	0.26216
2335.49155	0.26458
2333.56299	0.26677
2331.63442	0.26829
2329.70586	0.26999
2327.77729	0.27279
2325.84873	0.27616
2323.92017	0.27937
2321.99160	0.28218
2320.06304	0.28509
2318.13447	0.28817
2316.20591	0.29076
2314.27734	0.29309
2312.34878	0.29560
2310.42021	0.29813
2308.49165	0.30064
2306.56309	0.30325
2304.63452	0.30578
2302.70596	0.30805
2300.77739	0.31024
2298.84883	0.31254
2296.92026	0.31485
2294.99170	0.31703
2293.06313	0.31918
2291.13457	0.32139
2289.20601	0.32358
2287.27744	0.32572
2285.34888	0.32793
2283.42031	0.33019
2281.49175	0.33232
2279.56318	0.33429
2277.63462	0.33615
2275.70605	0.33799
2273.77749	0.33995
2271.84893	0.34205
2269.92036	0.34412
2267.99180	0.34618
2266.06323	0.34832
2264.13467	0.35053
2262.20610	0.35281
2260.27754	0.35503
2258.34897	0.35715
2256.42041	0.35937
2254.49185	0.36181
2252.56328	0.36426
2250.63472	0.36657
2248.70615	0.36881
2246.77759	0.37107
2244.84902	0.37334
2242.92046	0.37554
2240.99189	0.37764
2239.06333	0.37977
2237.13477	0.38201
2235.20620	0.38425
2233.27764	0.38649
2231.34907	0.38886
2229.42051	0.39124
2227.49194	0.39350
2225.56338	0.39568
2223.63481	0.39778
2221.70625	0.39993
2219.77769	0.40233
2217.84912	0.40480
2215.92056	0.40705
2213.99199	0.40909
2212.06343	0.41118
2210.13486	0.41337
2208.20630	0.41554
2206.27773	0.41768
2204.34917	0.41976
2202.42061	0.42176
2200.49204	0.42382
2198.56348	0.42596
2196.63491	0.42803
2194.70635	0.42996
2192.77778	0.43178
2190.84922	0.43360
2188.92065	0.43542
2186.99209	0.43727
2185.06353	0.43912
2183.13496	0.44091
2181.20640	0.44266
2179.27783	0.44440
2177.34927	0.44606
2175.42070	0.44763
2173.49214	0.44914
2171.56357	0.45067
2169.63501	0.45222
2167.70645	0.45363
2165.77788	0.45491
2163.84932	0.45612
2161.92075	0.45722
2159.99219	0.45820
2158.06362	0.45915
2156.13506	0.46012
2154.20649	0.46106
2152.27793	0.46189
2150.34937	0.46261
2148.42080	0.46327
2146.49224	0.46380
2144.56367	0.46420
2142.63511	0.46464
2140.70654	0.46517
2138.77798	0.46565
2136.84941	0.46590
2134.92085	0.46591
2132.99229	0.46583
2131.06372	0.46570
2129.13516	0.46547
2127.20659	0.46524
2125.27803	0.46503
2123.34946	0.46469
2121.42090	0.46424
2119.49233	0.46373
2117.56377	0.46305
2115.63521	0.46223
2113.70664	0.46145
2111.77808	0.46072
2109.84951	0.45990
2107.92095	0.45885
2105.99238	0.45763
2104.06382	0.45635
2102.13525	0.45502
2100.20669	0.45373
2098.27812	0.45240
2096.34956	0.45096
2094.42100	0.44945
2092.49243	0.44785
2090.56387	0.44618
2088.63530	0.44446
2086.70674	0.44270
2084.77817	0.44091
2082.84961	0.43901
2080.92104	0.43694
2078.99248	0.43479
2077.06392	0.43271
2075.13535	0.43068
2073.20679	0.42853
2071.27822	0.42620
2069.34966	0.42384
2067.42109	0.42150
2065.49253	0.41916
2063.56396	0.41680
2061.63540	0.41433
2059.70684	0.41176
2057.77827	0.40927
2055.84971	0.40683
2053.92114	0.40430
2051.99258	0.40172
2050.06401	0.39906
2048.13545	0.39632
2046.20688	0.39352
2044.27832	0.39079
2042.34976	0.38820
2040.42119	0.38557
2038.49263	0.38282
2036.56406	0.38001
2034.63550	0.37716
2032.70693	0.37423
2030.77837	0.37139
2028.84980	0.36870
2026.92124	0.36602
2024.99268	0.36315
2023.06411	0.36023
2021.13555	0.35750
2019.20698	0.35489
2017.27842	0.35215
2015.34985	0.34922
2013.42129	0.34630
2011.49272	0.34350
2009.56416	0.34076
2007.63560	0.33803
2005.70703	0.33531
2003.77847	0.33261
2001.84990	0.32993
1999.92134	0.32725
1997.99277	0.32450
1996.06421	0.32186
1994.13564	0.31941
1992.20708	0.31700
1990.27852	0.31446
1988.34995	0.31189
1986.42139	0.30932
1984.49282	0.30683
1982.56426	0.30444
1980.63569	0.30203
1978.70713	0.29963
1976.77856	0.29729
1974.85000	0.29499
1972.92144	0.29275
1970.99287	0.29061
1969.06431	0.28854
1967.13574	0.28650
1965.20718	0.28441
1963.27861	0.28230
1961.35005	0.28032
1959.42148	0.27842
1957.49292	0.27650
1955.56436	0.27459
1953.63579	0.27280
1951.70723	0.27112
1949.77866	0.26947
1947.85010	0.26777
1945.92153	0.26614
1943.99297	0.26469
1942.06440	0.26324
1940.13584	0.26163
1938.20728	0.26005
1936.27871	0.25867
1934.35015	0.25740
1932.42158	0.25613
1930.49302	0.25486
1928.56445	0.25364
1926.63589	0.25250
1924.70732	0.25147
1922.77876	0.25048
1920.85020	0.24949
1918.92163	0.24857
1916.99307	0.24763
1915.06450	0.24660
1913.13594	0.24565
1911.20737	0.24490
1909.27881	0.24422
1907.35024	0.24362
1905.42168	0.24306
1903.49312	0.24244
1901.56455	0.24176
1899.63599	0.24116
1897.70742	0.24073
1895.77886	0.24037
1893.85029	0.23991
1891.92173	0.23942
1889.99316	0.23922
1888.06460	0.23907
1886.13604	0.23876
1884.20747	0.23844
1882.27891	0.23823
1880.35034	0.23815
1878.42178	0.23804
1876.49321	0.23790
1874.56465	0.23783
1872.63608	0.23790
1870.70752	0.23812
1868.77896	0.23861
1866.85039	0.23893
1864.92183	0.23881
1862.99326	0.23874
1861.06470	0.23893
1859.13613	0.23937
1857.20757	0.23980
1855.27900	0.24015
1853.35044	0.24048
1851.42187	0.24100
1849.49331	0.24165
1847.56475	0.24234
1845.63618	0.24315
1843.70762	0.24421
1841.77905	0.24509
1839.85049	0.24555
1837.92192	0.24622
1835.99336	0.24704
1834.06479	0.24788
1832.13623	0.24880
1830.20767	0.25022
1828.27910	0.25190
1826.35054	0.25308
1824.42197	0.25430
1822.49341	0.25554
1820.56484	0.25671
1818.63628	0.25803
1816.70771	0.25957
1814.77915	0.26112
1812.85059	0.26285
1810.92202	0.26493
1808.99346	0.26713
1807.06489	0.26915
1805.13633	0.27098
1803.20776	0.27299
1801.27920	0.27544
1799.35063	0.27833
1797.42207	0.28090
1795.49351	0.28325
1793.56494	0.28599
1791.63638	0.28967
1789.70781	0.29324
1787.77925	0.29588
1785.85068	0.29901
1783.92212	0.30279
1781.99355	0.30681
1780.06499	0.31109
1778.13643	0.31549
1776.20786	0.31952
1774.27930	0.32372
1772.35073	0.32952
1770.42217	0.33602
1768.49360	0.34134
1766.56504	0.34641
1764.63647	0.35166
1762.70791	0.35754
1760.77935	0.36513
1758.85078	0.37216
1756.92222	0.37911
1754.99365	0.38681
1753.06509	0.39375
1751.13652	0.40203
1749.20796	0.41271
1747.27939	0.42320
1745.35083	0.43220
1743.42227	0.44167
1741.49370	0.45214
1739.56514	0.46467
1737.63657	0.47723
1735.70801	0.48798
1733.77944	0.50451
1731.85088	0.52482
1729.92231	0.54057
1727.99375	0.55631
1726.06519	0.57303
1724.13662	0.59134
1722.20806	0.61127
1720.27949	0.62947
1718.35093	0.65084
1716.42236	0.68394
1714.49380	0.71569
1712.56523	0.74053
1710.63667	0.76434
1708.70811	0.78980
1706.77954	0.81874
1704.85098	0.85416
1702.92241	0.88575
1700.99385	0.91566
1699.06528	0.96133
1697.13672	1.00504
1695.20815	1.05035
1693.27959	1.09345
1691.35103	1.12728
1689.42246	1.16658
1687.49390	1.20840
1685.56533	1.24815
1683.63677	1.31169
1681.70820	1.37944
1679.77964	1.42116
1677.85107	1.46016
1675.92251	1.50474
1673.99395	1.56128
1672.06538	1.61190
1670.13682	1.66088
1668.20825	1.72675
1666.27969	1.78052
1664.35112	1.82564
1662.42256	1.88234
1660.49399	1.94630
1658.56543	1.99461
1656.63687	2.03299
1654.70830	2.06732
1652.77974	2.12555
1650.85117	2.18511
1648.92261	2.20490
1646.99404	2.23023
1645.06548	2.26010
1643.13691	2.28137
1641.20835	2.29246
1639.27979	2.30142
1637.35122	2.30685
1635.42266	2.30710
1633.49409	2.30158
1631.56553	2.28861
1629.63696	2.27221
1627.70840	2.24607
1625.77983	2.21553
1623.85127	2.17448
1621.92271	2.12350
1619.99414	2.07861
1618.06558	2.03426
1616.13701	1.96975
1614.20845	1.90514
1612.27988	1.85724
1610.35132	1.80716
1608.42275	1.75279
1606.49419	1.69856
1604.56562	1.64828
1602.63706	1.59972
1600.70850	1.55234
1598.77993	1.50866
1596.85137	1.46729
1594.92280	1.42677
1592.99424	1.38743
1591.06567	1.35138
1589.13711	1.31754
1587.20854	1.28607
1585.27998	1.25697
1583.35142	1.22949
1581.42285	1.20424
1579.49429	1.18284
1577.56572	1.16401
1575.63716	1.14127
1573.70859	1.12121
1571.78003	1.10814
1569.85146	1.09432
1567.92290	1.07899
1565.99434	1.06806
1564.06577	1.05996
1562.13721	1.05358
1560.20864	1.04918
1558.28008	1.04495
1556.35151	1.04252
1554.42295	1.04070
1552.49438	1.03819
1550.56582	1.03443
1548.63726	1.02914
1546.70869	1.02263
1544.78013	1.01395
1542.85156	1.00226
1540.92300	0.98538
1538.99443	0.96086
1537.06587	0.94429
1535.13730	0.93298
1533.20874	0.91733
1531.28018	0.90034
1529.35161	0.88790
1527.42305	0.87589
1525.49448	0.86329
1523.56592	0.85266
1521.63735	0.84251
1519.70879	0.83232
1517.78022	0.82402
1515.85166	0.81445
1513.92310	0.80438
1511.99453	0.79543
1510.06597	0.78706
1508.13740	0.77866
1506.20884	0.76607
1504.28027	0.75626
1502.35171	0.75076
1500.42314	0.74562
1498.49458	0.74007
1496.56602	0.73365
1494.63745	0.72737
1492.70889	0.72242
1490.78032	0.71801
1488.85176	0.71313
1486.92319	0.70864
1484.99463	0.70504
1483.06606	0.70211
1481.13750	0.69951
1479.20894	0.69735
1477.28037	0.69595
1475.35181	0.69513
1473.42324	0.69426
1471.49468	0.69250
1469.56611	0.69024
1467.63755	0.68793
1465.70898	0.68571
1463.78042	0.68377
1461.85186	0.68238
1459.92329	0.68146
1457.99473	0.68050
1456.06616	0.67857
1454.13760	0.67587
1452.20903	0.67313
1450.28047	0.67035
1448.35190	0.66777
1446.42334	0.66525
1444.49478	0.66272
1442.56621	0.66027
1440.63765	0.65789
1438.70908	0.65552
1436.78052	0.65258
1434.85195	0.64921
1432.92339	0.64659
1430.99482	0.64482
1429.06626	0.64362
1427.13770	0.64274
1425.20913	0.64219
1423.28057	0.64201
1421.35200	0.64193
1419.42344	0.64185
1417.49487	0.64145
1415.56631	0.64033
1413.63774	0.63927
1411.70918	0.63870
1409.78062	0.63871
1407.85205	0.63920
1405.92349	0.63996
1403.99492	0.64048
1402.06636	0.64026
1400.13779	0.63953
1398.20923	0.63825
1396.28066	0.63617
1394.35210	0.63324
1392.42354	0.62995
1390.49497	0.62677
1388.56641	0.62344
1386.63784	0.61944
1384.70928	0.61507
1382.78071	0.61105
1380.85215	0.60749
1378.92358	0.60435
1376.99502	0.60176
1375.06646	0.59995
1373.13789	0.59872
1371.20933	0.59773
1369.28076	0.59683
1367.35220	0.59568
1365.42363	0.59416
1363.49507	0.59261
1361.56650	0.59128
1359.63794	0.59014
1357.70937	0.58914
1355.78081	0.58813
1353.85225	0.58711
1351.92368	0.58623
1349.99512	0.58547
1348.06655	0.58479
1346.13799	0.58408
1344.20942	0.58317
1342.28086	0.58220
1340.35229	0.58147
1338.42373	0.58092
1336.49517	0.58038
1334.56660	0.57996
1332.63804	0.57968
1330.70947	0.57944
1328.78091	0.57935
1326.85234	0.57946
1324.92378	0.57966
1322.99521	0.57989
1321.06665	0.58009
1319.13809	0.58025
1317.20952	0.58024
1315.28096	0.58000
1313.35239	0.57954
1311.42383	0.57886
1309.49526	0.57808
1307.56670	0.57736
1305.63813	0.57689
1303.70957	0.57658
1301.78101	0.57606
1299.85244	0.57516
1297.92388	0.57412
1295.99531	0.57318
1294.06675	0.57223
1292.13818	0.57113
1290.20962	0.57001
1288.28105	0.56897
1286.35249	0.56787
1284.42393	0.56666
1282.49536	0.56556
1280.56680	0.56477
1278.63823	0.56399
1276.70967	0.56295
1274.78110	0.56171
1272.85254	0.56058
1270.92397	0.55990
1268.99541	0.55950
1267.06685	0.55888
1265.13828	0.55810
1263.20972	0.55745
1261.28115	0.55688
1259.35259	0.55632
1257.42402	0.55590
1255.49546	0.55575
1253.56689	0.55576
1251.63833	0.55581
1249.70977	0.55593
1247.78120	0.55607
1245.85264	0.55599
1243.92407	0.55555
1241.99551	0.55482
1240.06694	0.55381
1238.13838	0.55257
1236.20981	0.55102
1234.28125	0.54918
1232.35269	0.54746
1230.42412	0.54599
1228.49556	0.54452
1226.56699	0.54297
1224.63843	0.54148
1222.70986	0.54016
1220.78130	0.53904
1218.85273	0.53800
1216.92417	0.53700
1214.99561	0.53611
1213.06704	0.53530
1211.13848	0.53453
1209.20991	0.53375
1207.28135	0.53303
1205.35278	0.53238
1203.42422	0.53170
1201.49565	0.53091
1199.56709	0.53009
1197.63853	0.52942
1195.70996	0.52895
1193.78140	0.52857
1191.85283	0.52815
1189.92427	0.52773
1187.99570	0.52746
1186.06714	0.52735
1184.13857	0.52736
1182.21001	0.52769
1180.28145	0.52834
1178.35288	0.52924
1176.42432	0.53042
1174.49575	0.53159
1172.56719	0.53239
1170.63862	0.53282
1168.71006	0.53290
1166.78149	0.53274
1164.85293	0.53259
1162.92437	0.53253
1160.99580	0.53229
1159.06724	0.53167
1157.13867	0.53077
1155.21011	0.52970
1153.28154	0.52825
1151.35298	0.52641
1149.42441	0.52425
1147.49585	0.52171
1145.56729	0.51908
1143.63872	0.51670
1141.71016	0.51451
1139.78159	0.51224
1137.85303	0.50986
1135.92446	0.50775
1133.99590	0.50612
1132.06733	0.50470
1130.13877	0.50346
1128.21021	0.50236
1126.28164	0.50118
1124.35308	0.49990
1122.42451	0.49881
1120.49595	0.49805
1118.56738	0.49751
1116.63882	0.49740
1114.71025	0.49768
1112.78169	0.49802
1110.85312	0.49841
1108.92456	0.49898
1106.99600	0.49982
1105.06743	0.50102
1103.13887	0.50249
1101.21030	0.50430
1099.28174	0.50664
1097.35317	0.50945
1095.42461	0.51256
1093.49604	0.51609
1091.56748	0.52013
1089.63892	0.52464
1087.71035	0.52978
1085.78179	0.53578
1083.85322	0.54231
1081.92466	0.54846
1079.99609	0.55349
1078.06753	0.55689
1076.13896	0.55814
1074.21040	0.55671
1072.28184	0.55253
1070.35327	0.54643
1068.42471	0.53962
1066.49614	0.53293
1064.56758	0.52653
1062.63901	0.52050
1060.71045	0.51524
1058.78188	0.51084
1056.85332	0.50682
1054.92476	0.50308
1052.99619	0.49989
1051.06763	0.49709
1049.13906	0.49443
1047.21050	0.49219
1045.28193	0.49044
1043.35337	0.48884
1041.42480	0.48725
1039.49624	0.48587
1037.56768	0.48489
1035.63911	0.48434
1033.71055	0.48403
1031.78198	0.48392
1029.85342	0.48400
1027.92485	0.48417
1025.99629	0.48432
1024.06772	0.48461
1022.13916	0.48527
1020.21060	0.48613
1018.28203	0.48687
1016.35347	0.48762
1014.42490	0.48853
1012.49634	0.48958
1010.56777	0.49094
1008.63921	0.49255
1006.71064	0.49427
1004.78208	0.49623
1002.85352	0.49849
1000.92495	0.50113
998.99639	0.50435
997.06782	0.50807
995.13926	0.51203
993.21069	0.51593
991.28213	0.51931
989.35356	0.52188
987.42500	0.52359
985.49644	0.52458
983.56787	0.52529
981.63931	0.52608
979.71074	0.52714
977.78218	0.52884
975.85361	0.53126
973.92505	0.53409
971.99648	0.53709
970.06792	0.54030
968.13936	0.54394
966.21079	0.54803
964.28223	0.55249
962.35366	0.55744
960.42510	0.56265
958.49653	0.56787
956.56797	0.57336
954.63940	0.57932
952.71084	0.58545
950.78228	0.59163
948.85371	0.59810
946.92515	0.60467
944.99658	0.61074
943.06802	0.61622
941.13945	0.62167
939.21089	0.62756
937.28232	0.63358
935.35376	0.63965
933.42520	0.64570
931.49663	0.65113
929.56807	0.65645
927.63950	0.66241
925.71094	0.66857
923.78237	0.67451
921.85381	0.68057
919.92524	0.68718
917.99668	0.69431
916.06812	0.70123
914.13955	0.70783
912.21099	0.71501
910.28242	0.72301
908.35386	0.73133
906.42529	0.73976
904.49673	0.74816
902.56816	0.75696
900.63960	0.76675
898.71104	0.77684
896.78247	0.78682
894.85391	0.79704
892.92534	0.80698
890.99678	0.81627
889.06821	0.82627
887.13965	0.83760
885.21108	0.84923
883.28252	0.86074
881.35396	0.87190
879.42539	0.88288
877.49683	0.89445
875.56826	0.90621
873.63970	0.91771
871.71113	0.92928
869.78257	0.94059
867.85400	0.95195
865.92544	0.96377
863.99687	0.97494
862.06831	0.98526
860.13975	0.99518
858.21118	1.00571
856.28262	1.01848
854.35405	1.03254
852.42549	1.04507
850.49692	1.05480
848.56836	1.06397
846.63979	1.07494
844.71123	1.08784
842.78267	1.10171
840.85410	1.11402
838.92554	1.12371
836.99697	1.13311
835.06841	1.14356
833.13984	1.15588
831.21128	1.16886
829.28271	1.17880
827.35415	1.18755
825.42559	1.19901
823.49702	1.21300
821.56846	1.22577
819.63989	1.23401
817.71133	1.23832
815.78276	1.24276
813.85420	1.25396
811.92563	1.26931
809.99707	1.27978
808.06851	1.28875
806.13994	1.30419
804.21138	1.32451
802.28281	1.33663
800.35425	1.32887
798.42568	1.31069
796.49712	1.30215
794.56855	1.33102
792.63999	1.39988
790.71143	1.44186
788.78286	1.42706
786.85430	1.40452
784.92573	1.38478
782.99717	1.37664
781.06860	1.39326
779.14004	1.39624
777.21147	1.38149
775.28291	1.38151
773.35435	1.36644
771.42578	1.32780
769.49722	1.29678
767.56865	1.28133
765.64009	1.24079
763.71152	1.17550
761.78296	1.14564
759.85439	1.17055
757.92583	1.23381
755.99727	1.29860
754.06870	1.29868
752.14014	1.21131
750.21157	1.13098
748.28301	1.12060
746.35444	1.17113
744.42588	1.18034
742.49731	1.02236
740.56875	0.87711
738.64019	0.87206
736.71162	0.96421
734.78306	0.98350
732.85449	0.95463
730.92593	0.85800
728.99736	0.61574
727.06880	0.39232
725.14023	0.23544
723.21167	0.21973
721.28311	0.27615
719.35454	0.11319
717.42598	-0.01475
715.49741	-0.03933
713.56885	-0.10559
711.64028	-0.27085
709.71172	-0.13941
707.78315	0.14645
705.85459	0.30927
703.92603	0.36320
701.99746	0.41800
700.06890	0.57077
698.14033	0.80982
696.21177	0.64440
694.28320	0.41783
692.35464	0.34680
690.42607	0.29593
688.49751	0.26353
686.56895	0.31370
684.64038	0.39528
682.71182	0.46078
680.78325	0.61541
678.85469	0.62765
676.92612	0.44604
674.99756	0.40605
673.06899	0.47241
671.14043	0.50358
669.21187	0.61974
667.28330	1.55683
665.35474	1.41612
663.42617	0.66161
661.49761	0.52016
659.56904	0.45072
657.64048	0.40029
655.71191	0.39864
653.78335	0.39623
651.85479	0.38414
649.92622	0.39629
647.99766	0.42086
646.06909	0.53699
644.14053	0.99974
642.21196	3.85327
640.28340	3.84170
638.35483	0.70574
636.42627	0.42498
634.49771	0.38826
632.56914	0.40829
630.64058	0.38931
628.71201	0.44197
626.78345	0.56228
624.85488	0.50689
622.92632	0.44201
620.99775	0.55572
619.06919	0.87636
617.14062	1.01331
615.21206	0.58795
613.28350	0.36531
611.35493	0.32061
609.42637	0.35471
607.49780	0.38115
605.56924	0.40387
603.64067	0.43656
601.71211	0.42701
599.78354	0.37440
597.85498	0.33653
595.92642	0.33455
593.99785	0.37016
592.06929	0.40308
590.14072	0.36361
588.21216	0.34111
586.28359	0.36933
584.35503	0.36239
582.42646	0.28913
580.49790	0.23375
578.56934	0.22466
576.64077	0.25036
574.71221	0.28378
572.78364	0.30369
570.85508	0.36087
568.92651	0.54571
566.99795	0.95541
565.06938	0.98469
563.14082	0.78867
561.21226	0.74890
559.28369	0.72167
557.35513	0.63003
555.42656	0.54932
553.49800	0.50690
551.56943	0.44831
549.64087	0.41152
547.71230	0.40775
545.78374	0.36053
543.85518	0.29949
541.92661	0.29297
539.99805	0.31648
538.06948	0.33803
536.14092	0.35239
534.21235	0.33359
532.28379	0.32165
530.35522	0.37159
528.42666	0.44471
526.49810	0.40910
524.56953	0.34341
522.64097	0.36336
520.71240	0.37760
518.78384	0.30294
516.85527	0.24575
514.92671	0.25505
512.99814	0.31391
511.06958	0.37353
509.14102	0.37154
507.21245	0.31316
505.28389	0.28078
503.35532	0.30688
501.42676	0.33741
499.49819	0.31801
