3997.91411	0.06998
3995.98555	0.07033
3994.05698	0.07075
3992.12842	0.07105
3990.19985	0.07123
3988.27129	0.07151
3986.34272	0.07197
3984.41416	0.07240
3982.48560	0.07261
3980.55703	0.07262
3978.62847	0.07279
3976.69990	0.07319
3974.77134	0.07316
3972.84277	0.07261
3970.91421	0.07241
3968.98564	0.07297
3967.05708	0.07368
3965.12852	0.07375
3963.19995	0.07328
3961.27139	0.07302
3959.34282	0.07327
3957.41426	0.07363
3955.48569	0.07402
3953.55713	0.07426
3951.62856	0.07406
3949.70000	0.07395
3947.77144	0.07443
3945.84287	0.07475
3943.91431	0.07422
3941.98574	0.07373
3940.05718	0.07389
3938.12861	0.07399
3936.20005	0.07369
3934.27148	0.07332
3932.34292	0.07316
3930.41436	0.07321
3928.48579	0.07331
3926.55723	0.07320
3924.62866	0.07289
3922.70010	0.07277
3920.77153	0.07275
3918.84297	0.07236
3916.91440	0.07206
3914.98584	0.07231
3913.05728	0.07268
3911.12871	0.07308
3909.20015	0.07332
3907.27158	0.07290
3905.34302	0.07153
3903.41445	0.07011
3901.48589	0.07017
3899.55732	0.07103
3897.62876	0.07168
3895.70020	0.07214
3893.77163	0.07231
3891.84307	0.07238
3889.91450	0.07265
3887.98594	0.07254
3886.05737	0.07188
3884.12881	0.07126
3882.20024	0.07110
3880.27168	0.07156
3878.34312	0.07252
3876.41455	0.07292
3874.48599	0.07269
3872.55742	0.07243
3870.62886	0.07221
3868.70029	0.07246
3866.77173	0.07287
3864.84316	0.07282
3862.91460	0.07336
3860.98604	0.07472
3859.05747	0.07522
3857.12891	0.07441
3855.20034	0.07310
3853.27178	0.07262
3851.34321	0.07437
3849.41465	0.07657
3847.48608	0.07790
3845.55752	0.07831
3843.62896	0.07802
3841.70039	0.07755
3839.77183	0.07698
3837.84326	0.07695
3835.91470	0.07854
3833.98613	0.08022
3832.05757	0.08121
3830.12900	0.08235
3828.20044	0.08338
3826.27187	0.08405
3824.34331	0.08461
3822.41475	0.08485
3820.48618	0.08553
3818.55762	0.08673
3816.62905	0.08743
3814.70049	0.08876
3812.77192	0.09068
3810.84336	0.09189
3808.91479	0.09238
3806.98623	0.09276
3805.05767	0.09325
3803.12910	0.09319
3801.20054	0.09367
3799.27197	0.09606
3797.34341	0.09836
3795.41484	0.10018
3793.48628	0.10190
3791.55771	0.10334
3789.62915	0.10494
3787.70059	0.10649
3785.77202	0.10749
3783.84346	0.10853
3781.91489	0.11012
3779.98633	0.11165
3778.05776	0.11310
3776.12920	0.11474
3774.20063	0.11631
3772.27207	0.11760
3770.34351	0.11900
3768.41494	0.12123
3766.48638	0.12340
3764.55781	0.12518
3762.62925	0.12700
3760.70068	0.12837
3758.77212	0.12988
3756.84355	0.13247
3754.91499	0.13482
3752.98643	0.13592
3751.05786	0.13688
3749.12930	0.14010
3747.20073	0.14392
3745.27217	0.14648
3743.34360	0.15023
3741.41504	0.15470
3739.48647	0.15755
3737.55791	0.15962
3735.62935	0.16237
3733.70078	0.16747
3731.77222	0.17420
3729.84365	0.18002
3727.91509	0.18425
3725.98652	0.18866
3724.05796	0.19477
3722.12939	0.20205
3720.20083	0.21034
3718.27227	0.21924
3716.34370	0.22767
3714.41514	0.23482
3712.48657	0.24181
3710.55801	0.25262
3708.62944	0.26762
3706.70088	0.28110
3704.77231	0.29276
3702.84375	0.30553
3700.91519	0.32250
3698.98662	0.34187
3697.05806	0.36018
3695.12949	0.37878
3693.20093	0.39763
3691.27236	0.41752
3689.34380	0.44493
3687.41523	0.48185
3685.48667	0.51475
3683.55811	0.54205
3681.62954	0.56986
3679.70098	0.59995
3677.77241	0.63099
3675.84385	0.66827
3673.91528	0.72195
3671.98672	0.76688
3670.05815	0.80571
3668.12959	0.86065
3666.20103	0.91170
3664.27246	0.95345
3662.34390	0.99727
3660.41533	1.04398
3658.48677	1.08917
3656.55820	1.13700
3654.62964	1.19174
3652.70107	1.23753
3650.77251	1.27492
3648.84395	1.32757
3646.91538	1.39897
3644.98682	1.45322
3643.05825	1.49386
3641.12969	1.53465
3639.20112	1.57937
3637.27256	1.62403
3635.34399	1.66655
3633.41543	1.70810
3631.48687	1.74694
3629.55830	1.78731
3627.62974	1.84229
3625.70117	1.89402
3623.77261	1.92858
3621.84404	1.96134
3619.91548	1.99826
3617.98691	2.04282
3616.05835	2.08625
3614.12979	2.12371
3612.20122	2.16446
3610.27266	2.20524
3608.34409	2.24484
3606.41553	2.28692
3604.48696	2.32653
3602.55840	2.36111
3600.62983	2.39764
3598.70127	2.43843
3596.77271	2.47979
3594.84414	2.52218
3592.91558	2.56543
3590.98701	2.60466
3589.05845	2.63918
3587.12988	2.68147
3585.20132	2.73216
3583.27275	2.77527
3581.34419	2.81294
3579.41562	2.85281
3577.48706	2.89507
3575.55850	2.93732
3573.62993	2.98113
3571.70137	3.02399
3569.77280	3.06258
3567.84424	3.10235
3565.91567	3.15520
3563.98711	3.20953
3562.05854	3.25323
3560.12998	3.29551
3558.20142	3.33845
3556.27285	3.38076
3554.34429	3.42306
3552.41572	3.46918
3550.48716	3.51891
3548.55859	3.56648
3546.63003	3.61075
3544.70146	3.65721
3542.77290	3.70709
3540.84434	3.75679
3538.91577	3.80493
3536.98721	3.84998
3535.05864	3.89409
3533.13008	3.93894
3531.20151	3.98478
3529.27295	4.03279
3527.34438	4.08215
3525.41582	4.12896
3523.48726	4.17763
3521.55869	4.23245
3519.63013	4.28527
3517.70156	4.33257
3515.77300	4.37524
3513.84443	4.41619
3511.91587	4.46250
3509.98730	4.51583
3508.05874	4.56745
3506.13018	4.61366
3504.20161	4.66054
3502.27305	4.70994
3500.34448	4.75830
3498.41592	4.80602
3496.48735	4.85693
3494.55879	4.90704
3492.63022	4.95319
3490.70166	4.99952
3488.77310	5.04972
3486.84453	5.10250
3484.91597	5.14989
3482.98740	5.19056
3481.05884	5.23392
3479.13027	5.28186
3477.20171	5.33058
3475.27314	5.38621
3473.34458	5.44915
3471.41602	5.50135
3469.48745	5.53446
3467.55889	5.56300
3465.63032	5.60203
3463.70176	5.65019
3461.77319	5.69888
3459.84463	5.75106
3457.91606	5.80740
3455.98750	5.86966
3454.05894	5.93435
3452.13037	5.98380
3450.20181	6.01789
3448.27324	6.05531
3446.34468	6.11100
3444.41611	6.17313
3442.48755	6.22609
3440.55898	6.27415
3438.63042	6.32596
3436.70186	6.37388
3434.77329	6.41435
3432.84473	6.46355
3430.91616	6.52265
3428.98760	6.57762
3427.05903	6.61904
3425.13047	6.64913
3423.20190	6.66759
3421.27334	6.70568
3419.34478	6.77517
3417.41621	6.84075
3415.48765	6.89787
3413.55908	6.93926
3411.63052	6.94708
3409.70195	6.93606
3407.77339	6.96026
3405.84482	7.03744
3403.91626	7.13371
3401.98770	7.19563
3400.05913	7.21138
3398.13057	7.22991
3396.20200	7.26118
3394.27344	7.28667
3392.34487	7.31574
3390.41631	7.38567
3388.48774	7.46268
3386.55918	7.47315
3384.63062	7.44566
3382.70205	7.48169
3380.77349	7.58653
3378.84492	7.67082
3376.91636	7.70782
3374.98779	7.69962
3373.05923	7.66687
3371.13066	7.64970
3369.20210	7.67376
3367.27354	7.72730
3365.34497	7.79377
3363.41641	7.86022
3361.48784	7.88387
3359.55928	7.86336
3357.63071	7.85546
3355.70215	7.89285
3353.77358	7.91809
3351.84502	7.89056
3349.91646	7.86141
3347.98789	7.88474
3346.05933	7.89848
3344.13076	7.85689
3342.20220	7.83593
3340.27363	7.87080
3338.34507	7.93599
3336.41650	8.00916
3334.48794	8.11043
3332.55937	8.17256
3330.63081	8.15256
3328.70225	8.12992
3326.77368	8.12596
3324.84512	8.11733
3322.91655	8.09097
3320.98799	8.09174
3319.05942	8.16196
3317.13086	8.24606
3315.20229	8.24995
3313.27373	8.20879
3311.34517	8.15849
3309.41660	8.08783
3307.48804	8.01788
3305.55947	7.98105
3303.63091	7.98553
3301.70234	8.01084
3299.77378	8.04989
3297.84521	8.06057
3295.91665	8.08046
3293.98809	8.13346
3292.05952	8.17138
3290.13096	8.23628
3288.20239	8.28306
3286.27383	8.19932
3284.34526	8.11698
3282.41670	8.24215
3280.48813	8.46020
3278.55957	8.41789
3276.63101	8.22225
3274.70244	8.15921
3272.77388	8.16169
3270.84531	8.15763
3268.91675	8.23555
3266.98818	8.31724
3265.05962	8.30394
3263.13105	8.31024
3261.20249	8.37907
3259.27393	8.36296
3257.34536	8.24694
3255.41680	8.14044
3253.48823	8.12659
3251.55967	8.21889
3249.63110	8.28411
3247.70254	8.27874
3245.77397	8.27170
3243.84541	8.26448
3241.91685	8.24672
3239.98828	8.19642
3238.05972	8.15186
3236.13115	8.20032
3234.20259	8.23169
3232.27402	8.13935
3230.34546	8.07068
3228.41689	8.04026
3226.48833	7.96815
3224.55977	7.92073
3222.63120	7.93147
3220.70264	7.94077
3218.77407	7.92832
3216.84551	7.89523
3214.91694	7.85570
3212.98838	7.84799
3211.05981	7.84977
3209.13125	7.82713
3207.20269	7.80569
3205.27412	7.77826
3203.34556	7.76678
3201.41699	7.80440
3199.48843	7.78786
3197.55986	7.71519
3195.63130	7.68332
3193.70273	7.64234
3191.77417	7.56313
3189.84561	7.54045
3187.91704	7.58697
3185.98848	7.54779
3184.05991	7.36810
3182.13135	7.19504
3180.20278	7.11873
3178.27422	7.10887
3176.34565	7.09032
3174.41709	7.03510
3172.48853	6.99197
3170.55996	6.97091
3168.63140	6.93027
3166.70283	6.88493
3164.77427	6.84023
3162.84570	6.76879
3160.91714	6.70156
3158.98857	6.66035
3157.06001	6.60439
3155.13145	6.51125
3153.20288	6.41520
3151.27432	6.34709
3149.34575	6.29138
3147.41719	6.22671
3145.48862	6.15331
3143.56006	6.08036
3141.63149	6.01412
3139.70293	5.94314
3137.77437	5.87046
3135.84580	5.81224
3133.91724	5.75779
3131.98867	5.68801
3130.06011	5.60998
3128.13154	5.54102
3126.20298	5.48636
3124.27441	5.43347
3122.34585	5.35991
3120.41729	5.27485
3118.48872	5.19720
3116.56016	5.12101
3114.63159	5.04824
3112.70303	4.98678
3110.77446	4.92696
3108.84590	4.86073
3106.91733	4.79229
3104.98877	4.72594
3103.06021	4.66371
3101.13164	4.60153
3099.20308	4.53517
3097.27451	4.46761
3095.34595	4.40113
3093.41738	4.33669
3091.48882	4.27602
3089.56025	4.21811
3087.63169	4.15897
3085.70312	4.09693
3083.77456	4.03405
3081.84600	3.97201
3079.91743	3.90985
3077.98887	3.84761
3076.06030	3.78742
3074.13174	3.73034
3072.20317	3.67442
3070.27461	3.61791
3068.34604	3.56233
3066.41748	3.50822
3064.48892	3.45534
3062.56035	3.40336
3060.63179	3.35119
3058.70322	3.29845
3056.77466	3.24543
3054.84609	3.19336
3052.91753	3.14240
3050.98896	3.09188
3049.06040	3.04125
3047.13184	2.99019
3045.20327	2.94007
3043.27471	2.89190
3041.34614	2.84496
3039.41758	2.79842
3037.48901	2.75250
3035.56045	2.70705
3033.63188	2.66174
3031.70332	2.61719
3029.77476	2.57372
3027.84619	2.53108
3025.91763	2.48835
3023.98906	2.44531
3022.06050	2.40339
3020.13193	2.36294
3018.20337	2.32260
3016.27480	2.28189
3014.34624	2.24215
3012.41768	2.20374
3010.48911	2.16569
3008.56055	2.12839
3006.63198	2.09237
3004.70342	2.05707
3002.77485	2.02198
3000.84629	1.98728
2998.91772	1.95391
2996.98916	1.92194
2995.06060	1.89039
2993.13203	1.85932
2991.20347	1.82925
2989.27490	1.79993
2987.34634	1.77102
2985.41777	1.74261
2983.48921	1.71492
2981.56064	1.68770
2979.63208	1.66076
2977.70352	1.63431
2975.77495	1.60855
2973.84639	1.58364
2971.91782	1.55940
2969.98926	1.53567
2968.06069	1.51206
2966.13213	1.48780
2964.20356	1.46316
2962.27500	1.43906
2960.34644	1.41588
2958.41787	1.39278
2956.48931	1.36865
2954.56074	1.34409
2952.63218	1.31974
2950.70361	1.29545
2948.77505	1.27196
2946.84648	1.25003
2944.91792	1.22855
2942.98936	1.20636
2941.06079	1.18477
2939.13223	1.16438
2937.20366	1.14369
2935.27510	1.12267
2933.34653	1.10205
2931.41797	1.08205
2929.48940	1.06284
2927.56084	1.04380
2925.63228	1.02451
2923.70371	1.00530
2921.77515	0.98639
2919.84658	0.96834
2917.91802	0.95146
2915.98945	0.93477
2914.06089	0.91768
2912.13232	0.90097
2910.20376	0.88506
2908.27520	0.86952
2906.34663	0.85413
2904.41807	0.83928
2902.48950	0.82519
2900.56094	0.81144
2898.63237	0.79788
2896.70381	0.78474
2894.77524	0.77202
2892.84668	0.75972
2890.91812	0.74783
2888.98955	0.73620
2887.06099	0.72487
2885.13242	0.71415
2883.20386	0.70410
2881.27529	0.69440
2879.34673	0.68474
2877.41816	0.67502
2875.48960	0.66529
2873.56104	0.65542
2871.63247	0.64489
2869.70391	0.63336
2867.77534	0.62101
2865.84678	0.60853
2863.91821	0.59629
2861.98965	0.58424
2860.06108	0.57248
2858.13252	0.56147
2856.20396	0.55122
2854.27539	0.54162
2852.34683	0.53267
2850.41826	0.52393
2848.48970	0.51527
2846.56113	0.50711
2844.63257	0.49970
2842.70400	0.49290
2840.77544	0.48638
2838.84687	0.48003
2836.91831	0.47405
2834.98975	0.46840
2833.06118	0.46276
2831.13262	0.45695
2829.20405	0.45104
2827.27549	0.44504
2825.34692	0.43888
2823.41836	0.43258
2821.48979	0.42645
2819.56123	0.42064
2817.63267	0.41505
2815.70410	0.40940
2813.77554	0.40349
2811.84697	0.39755
2809.91841	0.39198
2807.98984	0.38669
2806.06128	0.38135
2804.13271	0.37589
2802.20415	0.37053
2800.27559	0.36545
2798.34702	0.36050
2796.41846	0.35557
2794.48989	0.35078
2792.56133	0.34608
2790.63276	0.34137
2788.70420	0.33673
2786.77563	0.33227
2784.84707	0.32791
2782.91851	0.32349
2780.98994	0.31912
2779.06138	0.31500
2777.13281	0.31101
2775.20425	0.30696
2773.27568	0.30300
2771.34712	0.29916
2769.41855	0.29537
2767.48999	0.29155
2765.56143	0.28779
2763.63286	0.28426
2761.70430	0.28079
2759.77573	0.27732
2757.84717	0.27396
2755.91860	0.27068
2753.99004	0.26738
2752.06147	0.26416
2750.13291	0.26115
2748.20435	0.25823
2746.27578	0.25518
2744.34722	0.25210
2742.41865	0.24916
2740.49009	0.24640
2738.56152	0.24374
2736.63296	0.24108
2734.70439	0.23840
2732.77583	0.23578
2730.84727	0.23335
2728.91870	0.23100
2726.99014	0.22865
2725.06157	0.22624
2723.13301	0.22380
2721.20444	0.22153
2719.27588	0.21946
2717.34731	0.21742
2715.41875	0.21533
2713.49019	0.21330
2711.56162	0.21146
2709.63306	0.20980
2707.70449	0.20800
2705.77593	0.20616
2703.84736	0.20453
2701.91880	0.20293
2699.99023	0.20129
2698.06167	0.19975
2696.13311	0.19830
2694.20454	0.19681
2692.27598	0.19526
2690.34741	0.19382
2688.41885	0.19260
2686.49028	0.19155
2684.56172	0.19049
2682.63315	0.18925
2680.70459	0.18795
2678.77603	0.18677
2676.84746	0.18560
2674.91890	0.18440
2672.99033	0.18322
2671.06177	0.18202
2669.13320	0.18084
2667.20464	0.17985
2665.27607	0.17905
2663.34751	0.17827
2661.41895	0.17741
2659.49038	0.17651
2657.56182	0.17553
2655.63325	0.17457
2653.70469	0.17382
2651.77612	0.17320
2649.84756	0.17245
2647.91899	0.17167
2645.99043	0.17110
2644.06187	0.17066
2642.13330	0.17016
2640.20474	0.16958
2638.27617	0.16904
2636.34761	0.16847
2634.41904	0.16781
2632.49048	0.16727
2630.56191	0.16690
2628.63335	0.16654
2626.70479	0.16614
2624.77622	0.16574
2622.84766	0.16539
2620.91909	0.16510
2618.99053	0.16482
2617.06196	0.16456
2615.13340	0.16434
2613.20483	0.16418
2611.27627	0.16403
2609.34771	0.16378
2607.41914	0.16342
2605.49058	0.16309
2603.56201	0.16291
2601.63345	0.16293
2599.70488	0.16311
2597.77632	0.16327
2595.84775	0.16330
2593.91919	0.16317
2591.99062	0.16291
2590.06206	0.16271
2588.13350	0.16275
2586.20493	0.16297
2584.27637	0.16326
2582.34780	0.16357
2580.41924	0.16388
2578.49067	0.16419
2576.56211	0.16438
2574.63354	0.16440
2572.70498	0.16450
2570.77642	0.16474
2568.84785	0.16498
2566.91929	0.16523
2564.99072	0.16557
2563.06216	0.16598
2561.13359	0.16644
2559.20503	0.16693
2557.27646	0.16740
2555.34790	0.16792
2553.41934	0.16838
2551.49077	0.16865
2549.56221	0.16892
2547.63364	0.16941
2545.70508	0.17008
2543.77651	0.17081
2541.84795	0.17153
2539.91938	0.17208
2537.99082	0.17252
2536.06226	0.17308
2534.13369	0.17378
2532.20513	0.17442
2530.27656	0.17501
2528.34800	0.17560
2526.41943	0.17618
2524.49087	0.17685
2522.56230	0.17761
2520.63374	0.17836
2518.70518	0.17911
2516.77661	0.17985
2514.84805	0.18055
2512.91948	0.18123
2510.99092	0.18193
2509.06235	0.18262
2507.13379	0.18333
2505.20522	0.18406
2503.27666	0.18481
2501.34810	0.18569
2499.41953	0.18658
2497.49097	0.18732
2495.56240	0.18802
2493.63384	0.18881
2491.70527	0.18970
2489.77671	0.19064
2487.84814	0.19150
2485.91958	0.19221
2483.99102	0.19301
2482.06245	0.19394
2480.13389	0.19481
2478.20532	0.19564
2476.27676	0.19649
2474.34819	0.19730
2472.41963	0.19811
2470.49106	0.19896
2468.56250	0.19986
2466.63394	0.20074
2464.70537	0.20162
2462.77681	0.20254
2460.84824	0.20348
2458.91968	0.20434
2456.99111	0.20513
2455.06255	0.20591
2453.13398	0.20672
2451.20542	0.20764
2449.27686	0.20864
2447.34829	0.20964
2445.41973	0.21062
2443.49116	0.21153
2441.56260	0.21237
2439.63403	0.21328
2437.70547	0.21427
2435.77690	0.21532
2433.84834	0.21647
2431.91978	0.21762
2429.99121	0.21869
2428.06265	0.21976
2426.13408	0.22086
2424.20552	0.22193
2422.27695	0.22295
2420.34839	0.22406
2418.41982	0.22522
2416.49126	0.22631
2414.56270	0.22737
2412.63413	0.22842
2410.70557	0.22944
2408.77700	0.23054
2406.84844	0.23173
2404.91987	0.23292
2402.99131	0.23404
2401.06274	0.23515
2399.13418	0.23639
2397.20562	0.23774
2395.27705	0.23906
2393.34849	0.24021
2391.41992	0.24136
2389.49136	0.24263
2387.56279	0.24378
2385.63423	0.24459
2383.70566	0.24512
2381.77710	0.24534
2379.84854	0.24532
2377.91997	0.24505
2375.99141	0.24441
2374.06284	0.24346
2372.13428	0.24219
2370.20571	0.24050
2368.27715	0.23883
2366.34858	0.23775
2364.42002	0.23615
2362.49146	0.23408
2360.56289	0.23423
2358.63433	0.23689
2356.70576	0.24125
2354.77720	0.24678
2352.84863	0.25286
2350.92007	0.25833
2348.99150	0.26132
2347.06294	0.26166
2345.13437	0.26036
2343.20581	0.25928
2341.27725	0.26009
2339.34868	0.26207
2337.42012	0.26402
2335.49155	0.26629
2333.56299	0.26872
2331.63442	0.27061
2329.70586	0.27253
2327.77729	0.27532
2325.84873	0.27839
2323.92017	0.28102
2321.99160	0.28349
2320.06304	0.28638
2318.13447	0.28950
2316.20591	0.29234
2314.27734	0.29482
2312.34878	0.29717
2310.42021	0.29950
2308.49165	0.30179
2306.56309	0.30416
2304.63452	0.30661
2302.70596	0.30895
2300.77739	0.31119
2298.84883	0.31340
2296.92026	0.31548
2294.99170	0.31753
2293.06313	0.31971
2291.13457	0.32201
2289.20601	0.32432
2287.27744	0.32647
2285.34888	0.32855
2283.42031	0.33068
2281.49175	0.33274
2279.56318	0.33466
2277.63462	0.33657
2275.70605	0.33852
2273.77749	0.34055
2271.84893	0.34266
2269.92036	0.34474
2267.99180	0.34686
2266.06323	0.34906
2264.13467	0.35117
2262.20610	0.35325
2260.27754	0.35538
2258.34897	0.35746
2256.42041	0.35960
2254.49185	0.36186
2252.56328	0.36418
2250.63472	0.36649
2248.70615	0.36874
2246.77759	0.37089
2244.84902	0.37301
2242.92046	0.37516
2240.99189	0.37735
2239.06333	0.37966
2237.13477	0.38208
2235.20620	0.38441
2233.27764	0.38660
2231.34907	0.38879
2229.42051	0.39100
2227.49194	0.39321
2225.56338	0.39552
2223.63481	0.39781
2221.70625	0.39999
2219.77769	0.40218
2217.84912	0.40439
2215.92056	0.40648
2213.99199	0.40853
2212.06343	0.41073
2210.13486	0.41296
2208.20630	0.41493
2206.27773	0.41675
2204.34917	0.41878
2202.42061	0.42097
2200.49204	0.42309
2198.56348	0.42517
2196.63491	0.42718
2194.70635	0.42907
2192.77778	0.43099
2190.84922	0.43296
2188.92065	0.43479
2186.99209	0.43647
2185.06353	0.43814
2183.13496	0.43986
2181.20640	0.44161
2179.27783	0.44337
2177.34927	0.44510
2175.42070	0.44667
2173.49214	0.44805
2171.56357	0.44940
2169.63501	0.45083
2167.70645	0.45219
2165.77788	0.45349
2163.84932	0.45483
2161.92075	0.45603
2159.99219	0.45701
2158.06362	0.45795
2156.13506	0.45892
2154.20649	0.45990
2152.27793	0.46077
2150.34937	0.46146
2148.42080	0.46211
2146.49224	0.46274
2144.56367	0.46318
2142.63511	0.46346
2140.70654	0.46370
2138.77798	0.46394
2136.84941	0.46414
2134.92085	0.46426
2132.99229	0.46427
2131.06372	0.46420
2129.13516	0.46406
2127.20659	0.46374
2125.27803	0.46332
2123.34946	0.46298
2121.42090	0.46263
2119.49233	0.46208
2117.56377	0.46141
2115.63521	0.46068
2113.70664	0.45984
2111.77808	0.45890
2109.84951	0.45798
2107.92095	0.45705
2105.99238	0.45601
2104.06382	0.45489
2102.13525	0.45373
2100.20669	0.45246
2098.27812	0.45098
2096.34956	0.44946
2094.42100	0.44798
2092.49243	0.44644
2090.56387	0.44484
2088.63530	0.44311
2086.70674	0.44121
2084.77817	0.43924
2082.84961	0.43719
2080.92104	0.43511
2078.99248	0.43315
2077.06392	0.43119
2075.13535	0.42907
2073.20679	0.42682
2071.27822	0.42456
2069.34966	0.42233
2067.42109	0.42001
2065.49253	0.41758
2063.56396	0.41518
2061.63540	0.41280
2059.70684	0.41034
2057.77827	0.40785
2055.84971	0.40536
2053.92114	0.40280
2051.99258	0.40023
2050.06401	0.39765
2048.13545	0.39496
2046.20688	0.39214
2044.27832	0.38940
2042.34976	0.38678
2040.42119	0.38415
2038.49263	0.38149
2036.56406	0.37880
2034.63550	0.37602
2032.70693	0.37312
2030.77837	0.37022
2028.84980	0.36754
2026.92124	0.36488
2024.99268	0.36195
2023.06411	0.35894
2021.13555	0.35613
2019.20698	0.35340
2017.27842	0.35064
2015.34985	0.34785
2013.42129	0.34515
2011.49272	0.34249
2009.56416	0.33972
2007.63560	0.33693
2005.70703	0.33421
2003.77847	0.33148
2001.84990	0.32881
1999.92134	0.32621
1997.99277	0.32354
1996.06421	0.32089
1994.13564	0.31835
1992.20708	0.31580
1990.27852	0.31325
1988.34995	0.31080
1986.42139	0.30840
1984.49282	0.30598
1982.56426	0.30358
1980.63569	0.30122
1978.70713	0.29885
1976.77856	0.29649
1974.85000	0.29425
1972.92144	0.29212
1970.99287	0.29000
1969.06431	0.28781
1967.13574	0.28563
1965.20718	0.28359
1963.27861	0.28163
1961.35005	0.27966
1959.42148	0.27777
1957.49292	0.27602
1955.56436	0.27422
1953.63579	0.27237
1951.70723	0.27063
1949.77866	0.26899
1947.85010	0.26727
1945.92153	0.26551
1943.99297	0.26380
1942.06440	0.26224
1940.13584	0.26086
1938.20728	0.25953
1936.27871	0.25820
1934.35015	0.25691
1932.42158	0.25573
1930.49302	0.25459
1928.56445	0.25344
1926.63589	0.25221
1924.70732	0.25096
1922.77876	0.24974
1920.85020	0.24869
1918.92163	0.24779
1916.99307	0.24697
1915.06450	0.24625
1913.13594	0.24543
1911.20737	0.24454
1909.27881	0.24378
1907.35024	0.24325
1905.42168	0.24276
1903.49312	0.24221
1901.56455	0.24163
1899.63599	0.24104
1897.70742	0.24048
1895.77886	0.23995
1893.85029	0.23945
1891.92173	0.23894
1889.99316	0.23859
1888.06460	0.23843
1886.13604	0.23829
1884.20747	0.23809
1882.27891	0.23795
1880.35034	0.23788
1878.42178	0.23778
1876.49321	0.23773
1874.56465	0.23770
1872.63608	0.23760
1870.70752	0.23729
1868.77896	0.23722
1866.85039	0.23766
1864.92183	0.23814
1862.99326	0.23847
1861.06470	0.23878
1859.13613	0.23916
1857.20757	0.23957
1855.27900	0.24002
1853.35044	0.24046
1851.42187	0.24090
1849.49331	0.24123
1847.56475	0.24144
1845.63618	0.24179
1843.70762	0.24272
1841.77905	0.24395
1839.85049	0.24478
1837.92192	0.24561
1835.99336	0.24652
1834.06479	0.24742
1832.13623	0.24814
1830.20767	0.24912
1828.27910	0.25058
1826.35054	0.25184
1824.42197	0.25317
1822.49341	0.25465
1820.56484	0.25614
1818.63628	0.25763
1816.70771	0.25925
1814.77915	0.26074
1812.85059	0.26216
1810.92202	0.26388
1808.99346	0.26592
1807.06489	0.26798
1805.13633	0.26991
1803.20776	0.27184
1801.27920	0.27391
1799.35063	0.27661
1797.42207	0.27929
1795.49351	0.28155
1793.56494	0.28392
1791.63638	0.28738
1789.70781	0.29144
1787.77925	0.29457
1785.85068	0.29766
1783.92212	0.30112
1781.99355	0.30487
1780.06499	0.30901
1778.13643	0.31346
1776.20786	0.31739
1774.27930	0.32103
1772.35073	0.32600
1770.42217	0.33243
1768.49360	0.33848
1766.56504	0.34417
1764.63647	0.34955
1762.70791	0.35511
1760.77935	0.36243
1758.85078	0.36943
1756.92222	0.37637
1754.99365	0.38405
1753.06509	0.39074
1751.13652	0.39823
1749.20796	0.40811
1747.27939	0.41861
1745.35083	0.42798
1743.42227	0.43766
1741.49370	0.44808
1739.56514	0.46040
1737.63657	0.47288
1735.70801	0.48327
1733.77944	0.49885
1731.85088	0.51878
1729.92231	0.53494
1727.99375	0.55118
1726.06519	0.56819
1724.13662	0.58633
1722.20806	0.60576
1720.27949	0.62320
1718.35093	0.64320
1716.42236	0.67498
1714.49380	0.70719
1712.56523	0.73283
1710.63667	0.75665
1708.70811	0.78173
1706.77954	0.81025
1704.85098	0.84542
1702.92241	0.87723
1700.99385	0.90784
1699.06528	0.95424
1697.13672	0.99857
1695.20815	1.04563
1693.27959	1.09083
1691.35103	1.12611
1689.42246	1.16728
1687.49390	1.21153
1685.56533	1.25355
1683.63677	1.32061
1681.70820	1.39287
1679.77964	1.43812
1677.85107	1.48057
1675.92251	1.52874
1673.99395	1.58925
1672.06538	1.64351
1670.13682	1.69754
1668.20825	1.77153
1666.27969	1.83245
1664.35112	1.88413
1662.42256	1.95045
1660.49399	2.02747
1658.56543	2.08645
1656.63687	2.13241
1654.70830	2.17296
1652.77974	2.23718
1650.85117	2.29684
1648.92261	2.31318
1646.99404	2.33528
1645.06548	2.35976
1643.13691	2.37684
1641.20835	2.38593
1639.27979	2.39483
1637.35122	2.39745
1635.42266	2.38907
1633.49409	2.37828
1631.56553	2.36520
1629.63696	2.34741
1627.70840	2.31511
1625.77983	2.27674
1623.85127	2.22877
1621.92271	2.17232
1619.99414	2.12443
1618.06558	2.07814
1616.13701	2.00954
1614.20845	1.93956
1612.27988	1.88761
1610.35132	1.83367
1608.42275	1.77580
1606.49419	1.71950
1604.56562	1.66743
1602.63706	1.61688
1600.70850	1.56845
1598.77993	1.52493
1596.85137	1.48429
1594.92280	1.44439
1592.99424	1.40569
1591.06567	1.37064
1589.13711	1.33838
1587.20854	1.30932
1585.27998	1.28324
1583.35142	1.25917
1581.42285	1.23752
1579.49429	1.21951
1577.56572	1.20382
1575.63716	1.18553
1573.70859	1.17052
1571.78003	1.16122
1569.85146	1.15244
1567.92290	1.14422
1565.99434	1.13924
1564.06577	1.13678
1562.13721	1.13575
1560.20864	1.13666
1558.28008	1.14469
1556.35151	1.15492
1554.42295	1.16111
1552.49438	1.16738
1550.56582	1.17128
1548.63726	1.17181
1546.70869	1.16864
1544.78013	1.16018
1542.85156	1.14614
1540.92300	1.12444
1538.99443	1.09110
1537.06587	1.06781
1535.13730	1.05118
1533.20874	1.02733
1531.28018	1.00229
1529.35161	0.98467
1527.42305	0.96737
1525.49448	0.94867
1523.56592	0.93273
1521.63735	0.91845
1519.70879	0.90558
1517.78022	0.89489
1515.85166	0.88145
1513.92310	0.86729
1511.99453	0.85451
1510.06597	0.84189
1508.13740	0.82842
1506.20884	0.80904
1504.28027	0.79554
1502.35171	0.78822
1500.42314	0.78084
1498.49458	0.77258
1496.56602	0.76329
1494.63745	0.75458
1492.70889	0.74768
1490.78032	0.74088
1488.85176	0.73309
1486.92319	0.72682
1484.99463	0.72249
1483.06606	0.71903
1481.13750	0.71603
1479.20894	0.71378
1477.28037	0.71247
1475.35181	0.71179
1473.42324	0.71153
1471.49468	0.71132
1469.56611	0.71055
1467.63755	0.70899
1465.70898	0.70720
1463.78042	0.70602
1461.85186	0.70553
1459.92329	0.70505
1457.99473	0.70481
1456.06616	0.70535
1454.13760	0.70468
1452.20903	0.70277
1450.28047	0.70022
1448.35190	0.69729
1446.42334	0.69438
1444.49478	0.69173
1442.56621	0.68903
1440.63765	0.68618
1438.70908	0.68314
1436.78052	0.67897
1434.85195	0.67422
1432.92339	0.67087
1430.99482	0.66886
1429.06626	0.66806
1427.13770	0.66825
1425.20913	0.66898
1423.28057	0.67026
1421.35200	0.67144
1419.42344	0.67228
1417.49487	0.67298
1415.56631	0.67306
1413.63774	0.67304
1411.70918	0.67364
1409.78062	0.67529
1407.85205	0.67761
1405.92349	0.68010
1403.99492	0.68244
1402.06636	0.68372
1400.13779	0.68350
1398.20923	0.68183
1396.28066	0.67891
1394.35210	0.67478
1392.42354	0.66996
1390.49497	0.66492
1388.56641	0.65924
1386.63784	0.65271
1384.70928	0.64629
1382.78071	0.64031
1380.85215	0.63448
1378.92358	0.62932
1376.99502	0.62530
1375.06646	0.62245
1373.13789	0.62081
1371.20933	0.61999
1369.28076	0.61919
1367.35220	0.61790
1365.42363	0.61603
1363.49507	0.61392
1361.56650	0.61212
1359.63794	0.61085
1357.70937	0.60981
1355.78081	0.60872
1353.85225	0.60769
1351.92368	0.60695
1349.99512	0.60648
1348.06655	0.60599
1346.13799	0.60526
1344.20942	0.60437
1342.28086	0.60346
1340.35229	0.60273
1338.42373	0.60220
1336.49517	0.60189
1334.56660	0.60185
1332.63804	0.60206
1330.70947	0.60257
1328.78091	0.60342
1326.85234	0.60447
1324.92378	0.60560
1322.99521	0.60675
1321.06665	0.60788
1319.13809	0.60890
1317.20952	0.60962
1315.28096	0.60989
1313.35239	0.60983
1311.42383	0.60958
1309.49526	0.60921
1307.56670	0.60881
1305.63813	0.60849
1303.70957	0.60817
1301.78101	0.60758
1299.85244	0.60666
1297.92388	0.60551
1295.99531	0.60413
1294.06675	0.60252
1292.13818	0.60090
1290.20962	0.59943
1288.28105	0.59813
1286.35249	0.59680
1284.42393	0.59516
1282.49536	0.59332
1280.56680	0.59168
1278.63823	0.59034
1276.70967	0.58915
1274.78110	0.58787
1272.85254	0.58653
1270.92397	0.58544
1268.99541	0.58452
1267.06685	0.58363
1265.13828	0.58278
1263.20972	0.58178
1261.28115	0.58064
1259.35259	0.57967
1257.42402	0.57896
1255.49546	0.57860
1253.56689	0.57861
1251.63833	0.57887
1249.70977	0.57921
1247.78120	0.57943
1245.85264	0.57939
1243.92407	0.57901
1241.99551	0.57816
1240.06694	0.57671
1238.13838	0.57461
1236.20981	0.57197
1234.28125	0.56908
1232.35269	0.56631
1230.42412	0.56371
1228.49556	0.56127
1226.56699	0.55898
1224.63843	0.55676
1222.70986	0.55471
1220.78130	0.55295
1218.85273	0.55137
1216.92417	0.54994
1214.99561	0.54871
1213.06704	0.54773
1211.13848	0.54689
1209.20991	0.54603
1207.28135	0.54515
1205.35278	0.54432
1203.42422	0.54343
1201.49565	0.54239
1199.56709	0.54134
1197.63853	0.54039
1195.70996	0.53963
1193.78140	0.53906
1191.85283	0.53859
1189.92427	0.53821
1187.99570	0.53794
1186.06714	0.53782
1184.13857	0.53798
1182.21001	0.53858
1180.28145	0.53967
1178.35288	0.54108
1176.42432	0.54268
1174.49575	0.54424
1172.56719	0.54513
1170.63862	0.54503
1168.71006	0.54444
1166.78149	0.54382
1164.85293	0.54319
1162.92437	0.54242
1160.99580	0.54158
1159.06724	0.54065
1157.13867	0.53955
1155.21011	0.53829
1153.28154	0.53667
1151.35298	0.53449
1149.42441	0.53203
1147.49585	0.52969
1145.56729	0.52754
1143.63872	0.52540
1141.71016	0.52314
1139.78159	0.52098
1137.85303	0.51934
1135.92446	0.51835
1133.99590	0.51794
1132.06733	0.51787
1130.13877	0.51760
1128.21021	0.51700
1126.28164	0.51632
1124.35308	0.51561
1122.42451	0.51483
1120.49595	0.51417
1118.56738	0.51373
1116.63882	0.51336
1114.71025	0.51304
1112.78169	0.51288
1110.85312	0.51300
1108.92456	0.51349
1106.99600	0.51430
1105.06743	0.51531
1103.13887	0.51669
1101.21030	0.51850
1099.28174	0.52060
1097.35317	0.52318
1095.42461	0.52629
1093.49604	0.52965
1091.56748	0.53343
1089.63892	0.53800
1087.71035	0.54340
1085.78179	0.54934
1083.85322	0.55536
1081.92466	0.56103
1079.99609	0.56579
1078.06753	0.56884
1076.13896	0.56943
1074.21040	0.56738
1072.28184	0.56305
1070.35327	0.55714
1068.42471	0.55041
1066.49614	0.54360
1064.56758	0.53725
1062.63901	0.53156
1060.71045	0.52637
1058.78188	0.52154
1056.85332	0.51721
1054.92476	0.51355
1052.99619	0.51040
1051.06763	0.50748
1049.13906	0.50463
1047.21050	0.50208
1045.28193	0.50009
1043.35337	0.49844
1041.42480	0.49672
1039.49624	0.49495
1037.56768	0.49344
1035.63911	0.49242
1033.71055	0.49192
1031.78198	0.49184
1029.85342	0.49190
1027.92485	0.49175
1025.99629	0.49142
1024.06772	0.49130
1022.13916	0.49162
1020.21060	0.49220
1018.28203	0.49285
1016.35347	0.49359
1014.42490	0.49434
1012.49634	0.49511
1010.56777	0.49610
1008.63921	0.49732
1006.71064	0.49888
1004.78208	0.50089
1002.85352	0.50318
1000.92495	0.50571
998.99639	0.50880
997.06782	0.51248
995.13926	0.51650
993.21069	0.52062
991.28213	0.52416
989.35356	0.52661
987.42500	0.52816
985.49644	0.52916
983.56787	0.52986
981.63931	0.53052
979.71074	0.53134
977.78218	0.53268
975.85361	0.53479
973.92505	0.53755
971.99648	0.54055
970.06792	0.54365
968.13936	0.54713
966.21079	0.55115
964.28223	0.55556
962.35366	0.56032
960.42510	0.56548
958.49653	0.57089
956.56797	0.57648
954.63940	0.58229
952.71084	0.58820
950.78228	0.59419
948.85371	0.60029
946.92515	0.60646
944.99658	0.61265
943.06802	0.61882
941.13945	0.62484
939.21089	0.63066
937.28232	0.63654
935.35376	0.64270
933.42520	0.64840
931.49663	0.65309
929.56807	0.65796
927.63950	0.66388
925.71094	0.67056
923.78237	0.67754
921.85381	0.68422
919.92524	0.69060
917.99668	0.69718
916.06812	0.70399
914.13955	0.71106
912.21099	0.71838
910.28242	0.72611
908.35386	0.73443
906.42529	0.74270
904.49673	0.75064
902.56816	0.75884
900.63960	0.76772
898.71104	0.77702
896.78247	0.78633
894.85391	0.79614
892.92534	0.80705
890.99678	0.81882
889.06821	0.83081
887.13965	0.84271
885.21108	0.85420
883.28252	0.86464
881.35396	0.87461
879.42539	0.88604
877.49683	0.89857
875.56826	0.90998
873.63970	0.92037
871.71113	0.93158
869.78257	0.94429
867.85400	0.95665
865.92544	0.96686
863.99687	0.97716
862.06831	0.99013
860.13975	1.00389
858.21118	1.01567
856.28262	1.02528
854.35405	1.03491
852.42549	1.04668
850.49692	1.05998
848.56836	1.07182
846.63979	1.08123
844.71123	1.09157
842.78267	1.10491
840.85410	1.11882
838.92554	1.13042
836.99697	1.14220
835.06841	1.15579
833.13984	1.16737
831.21128	1.17838
829.28271	1.19144
827.35415	1.20355
825.42559	1.21639
823.49702	1.23270
821.56846	1.24937
819.63989	1.26315
817.71133	1.27204
815.78276	1.28261
813.85420	1.29636
811.92563	1.29431
809.99707	1.27654
808.06851	1.27324
806.13994	1.29515
804.21138	1.31991
802.28281	1.33235
800.35425	1.34071
798.42568	1.36227
796.49712	1.39459
794.56855	1.39444
792.63999	1.34946
790.71143	1.31583
788.78286	1.34730
786.85430	1.42753
784.92573	1.47715
782.99717	1.50356
781.06860	1.56431
779.14004	1.60548
777.21147	1.58070
775.28291	1.51357
773.35435	1.44549
771.42578	1.46541
769.49722	1.54111
767.56865	1.54284
765.64009	1.43620
763.71152	1.35873
761.78296	1.36488
759.85439	1.35303
757.92583	1.26810
755.99727	1.23901
754.06870	1.38258
752.14014	1.88137
750.21157	4.50127
748.28301	1.80327
746.35444	1.44842
744.42588	1.18341
742.49731	1.02600
740.56875	1.01711
738.64019	1.09805
736.71162	1.08617
734.78306	1.02299
732.85449	0.99587
730.92593	0.82454
728.99736	0.64106
727.06880	0.54945
725.14023	0.40122
723.21167	0.20773
721.28311	0.11994
719.35454	0.16816
717.42598	0.25019
715.49741	0.23707
713.56885	0.14210
711.64028	0.18427
709.71172	0.77119
707.78315	0.59496
705.85459	0.35863
703.92603	0.32663
701.99746	0.37331
700.06890	0.43511
698.14033	0.51125
696.21177	0.56291
694.28320	0.58795
692.35464	0.56638
690.42607	0.56140
688.49751	0.69551
686.56895	0.84350
684.64038	0.67548
682.71182	0.49731
680.78325	0.44084
678.85469	0.56478
676.92612	1.29173
674.99756	4.04999
673.06899	0.62017
671.14043	0.42950
669.21187	0.40201
667.28330	0.45724
665.35474	0.56557
663.42617	0.60621
661.49761	0.56712
659.56904	0.52835
657.64048	0.52370
655.71191	0.57449
653.78335	0.57616
651.85479	0.40826
649.92622	0.28081
647.99766	0.29542
646.06909	0.41811
644.14053	0.53597
642.21196	0.52778
640.28340	0.42184
638.35483	0.39703
636.42627	0.44523
634.49771	0.41742
632.56914	0.35920
630.64058	0.36078
628.71201	0.40128
626.78345	0.46331
624.85488	0.67622
622.92632	0.92806
620.99775	0.57910
619.06919	0.46199
617.14062	0.48802
615.21206	0.54555
613.28350	0.66436
611.35493	0.82291
609.42637	0.79595
607.49780	0.64099
605.56924	0.53392
603.64067	0.51628
601.71211	0.48445
599.78354	0.38563
597.85498	0.28013
595.92642	0.24413
593.99785	0.30752
592.06929	0.42105
590.14072	0.46928
588.21216	0.49132
586.28359	0.52027
584.35503	0.47021
582.42646	0.41016
580.49790	0.41371
578.56934	0.37648
576.64077	0.27905
574.71221	0.22595
572.78364	0.25211
570.85508	0.31992
568.92651	0.38846
566.99795	0.40924
565.06938	0.44437
563.14082	0.49635
561.21226	0.41431
559.28369	0.32925
557.35513	0.32670
555.42656	0.36270
553.49800	0.46391
551.56943	0.62658
549.64087	0.58612
547.71230	0.47366
545.78374	0.38830
543.85518	0.32254
541.92661	0.31291
539.99805	0.34145
538.06948	0.37881
536.14092	0.42133
534.21235	0.38912
532.28379	0.31056
530.35522	0.27994
528.42666	0.26687
526.49810	0.24377
524.56953	0.24400
522.64097	0.28291
520.71240	0.32677
518.78384	0.31623
516.85527	0.29334
514.92671	0.32975
512.99814	0.40418
511.06958	0.43511
509.14102	0.34391
507.21245	0.22595
505.28389	0.21439
503.35532	0.33755
501.42676	0.43460
499.49819	0.37621
