3997.91411	0.07040
3995.98555	0.07101
3994.05698	0.07177
3992.12842	0.07257
3990.19985	0.07318
3988.27129	0.07330
3986.34272	0.07286
3984.41416	0.07266
3982.48560	0.07294
3980.55703	0.07337
3978.62847	0.07387
3976.69990	0.07423
3974.77134	0.07440
3972.84277	0.07456
3970.91421	0.07480
3968.98564	0.07509
3967.05708	0.07516
3965.12852	0.07495
3963.19995	0.07497
3961.27139	0.07552
3959.34282	0.07619
3957.41426	0.07644
3955.48569	0.07610
3953.55713	0.07550
3951.62856	0.07504
3949.70000	0.07512
3947.77144	0.07574
3945.84287	0.07605
3943.91431	0.07587
3941.98574	0.07590
3940.05718	0.07611
3938.12861	0.07611
3936.20005	0.07588
3934.27148	0.07588
3932.34292	0.07654
3930.41436	0.07720
3928.48579	0.07717
3926.55723	0.07690
3924.62866	0.07671
3922.70010	0.07642
3920.77153	0.07607
3918.84297	0.07606
3916.91440	0.07630
3914.98584	0.07600
3913.05728	0.07515
3911.12871	0.07453
3909.20015	0.07427
3907.27158	0.07409
3905.34302	0.07409
3903.41445	0.07467
3901.48589	0.07524
3899.55732	0.07521
3897.62876	0.07513
3895.70020	0.07500
3893.77163	0.07491
3891.84307	0.07543
3889.91450	0.07628
3887.98594	0.07635
3886.05737	0.07598
3884.12881	0.07610
3882.20024	0.07647
3880.27168	0.07660
3878.34312	0.07632
3876.41455	0.07581
3874.48599	0.07577
3872.55742	0.07603
3870.62886	0.07625
3868.70029	0.07692
3866.77173	0.07775
3864.84316	0.07871
3862.91460	0.07972
3860.98604	0.07951
3859.05747	0.07860
3857.12891	0.07810
3855.20034	0.07824
3853.27178	0.07949
3851.34321	0.08107
3849.41465	0.08106
3847.48608	0.08068
3845.55752	0.08063
3843.62896	0.08142
3841.70039	0.08286
3839.77183	0.08392
3837.84326	0.08466
3835.91470	0.08536
3833.98613	0.08610
3832.05757	0.08680
3830.12900	0.08697
3828.20044	0.08686
3826.27187	0.08738
3824.34331	0.08837
3822.41475	0.08898
3820.48618	0.09014
3818.55762	0.09210
3816.62905	0.09330
3814.70049	0.09386
3812.77192	0.09397
3810.84336	0.09422
3808.91479	0.09526
3806.98623	0.09714
3805.05767	0.09877
3803.12910	0.09914
3801.20054	0.09996
3799.27197	0.10197
3797.34341	0.10339
3795.41484	0.10453
3793.48628	0.10545
3791.55771	0.10597
3789.62915	0.10667
3787.70059	0.10771
3785.77202	0.10904
3783.84346	0.11077
3781.91489	0.11259
3779.98633	0.11442
3778.05776	0.11639
3776.12920	0.11752
3774.20063	0.11809
3772.27207	0.11933
3770.34351	0.12168
3768.41494	0.12482
3766.48638	0.12736
3764.55781	0.12904
3762.62925	0.13039
3760.70068	0.13210
3758.77212	0.13481
3756.84355	0.13750
3754.91499	0.13893
3752.98643	0.14029
3751.05786	0.14353
3749.12930	0.14879
3747.20073	0.15236
3745.27217	0.15489
3743.34360	0.15945
3741.41504	0.16360
3739.48647	0.16589
3737.55791	0.16897
3735.62935	0.17410
3733.70078	0.18000
3731.77222	0.18472
3729.84365	0.18857
3727.91509	0.19229
3725.98652	0.19723
3724.05796	0.20369
3722.12939	0.21058
3720.20083	0.21780
3718.27227	0.22535
3716.34370	0.23300
3714.41514	0.24034
3712.48657	0.24884
3710.55801	0.26197
3708.62944	0.27731
3706.70088	0.28964
3704.77231	0.30082
3702.84375	0.31388
3700.91519	0.33091
3698.98662	0.34924
3697.05806	0.36643
3695.12949	0.38486
3693.20093	0.40433
3691.27236	0.42525
3689.34380	0.45345
3687.41523	0.48979
3685.48667	0.52130
3683.55811	0.54742
3681.62954	0.57495
3679.70098	0.60581
3677.77241	0.63809
3675.84385	0.67709
3673.91528	0.73194
3671.98672	0.77596
3670.05815	0.81443
3668.12959	0.86991
3666.20103	0.92014
3664.27246	0.96029
3662.34390	1.00296
3660.41533	1.04970
3658.48677	1.09633
3656.55820	1.14611
3654.62964	1.20166
3652.70107	1.24724
3650.77251	1.28525
3648.84395	1.34009
3646.91538	1.41228
3644.98682	1.46461
3643.05825	1.50395
3641.12969	1.54487
3639.20112	1.58994
3637.27256	1.63442
3635.34399	1.67698
3633.41543	1.71972
3631.48687	1.76005
3629.55830	1.80037
3627.62974	1.85485
3625.70117	1.90742
3623.77261	1.94211
3621.84404	1.97460
3619.91548	2.01214
3617.98691	2.05805
3616.05835	2.10208
3614.12979	2.13900
3612.20122	2.17898
3610.27266	2.21958
3608.34409	2.25967
3606.41553	2.30170
3604.48696	2.34081
3602.55840	2.37630
3600.62983	2.41473
3598.70127	2.45597
3596.77271	2.49567
3594.84414	2.53631
3592.91558	2.57896
3590.98701	2.61822
3589.05845	2.65438
3587.12988	2.69940
3585.20132	2.74861
3583.27275	2.78848
3581.34419	2.82602
3579.41562	2.86695
3577.48706	2.91005
3575.55850	2.95311
3573.62993	2.99743
3571.70137	3.04086
3569.77280	3.08112
3567.84424	3.12316
3565.91567	3.17511
3563.98711	3.22563
3562.05854	3.26725
3560.12998	3.30916
3558.20142	3.35323
3556.27285	3.39677
3554.34429	3.43942
3552.41572	3.48676
3550.48716	3.53674
3548.55859	3.58188
3546.63003	3.62566
3544.70146	3.67489
3542.77290	3.72404
3540.84434	3.76625
3538.91577	3.80862
3536.98721	3.85718
3535.05864	3.90850
3533.13008	3.95752
3531.20151	4.00592
3529.27295	4.05480
3527.34438	4.10463
3525.41582	4.15339
3523.48726	4.19978
3521.55869	4.24925
3519.63013	4.30043
3517.70156	4.34932
3515.77300	4.39576
3513.84443	4.43895
3511.91587	4.48022
3509.98730	4.52835
3508.05874	4.58611
3506.13018	4.63719
3504.20161	4.67477
3502.27305	4.71456
3500.34448	4.76141
3498.41592	4.80598
3496.48735	4.85096
3494.55879	4.90217
3492.63022	4.95621
3490.70166	5.00683
3488.77310	5.05484
3486.84453	5.10246
3484.91597	5.15111
3482.98740	5.20183
3481.05884	5.24926
3479.13027	5.29182
3477.20171	5.34078
3475.27314	5.39972
3473.34458	5.45395
3471.41602	5.49002
3469.48745	5.52003
3467.55889	5.56456
3465.63032	5.62086
3463.70176	5.67650
3461.77319	5.72755
3459.84463	5.77841
3457.91606	5.83017
3455.98750	5.87818
3454.05894	5.92247
3452.13037	5.97163
3450.20181	6.02750
3448.27324	6.08035
3446.34468	6.12884
3444.41611	6.17544
3442.48755	6.22842
3440.55898	6.28336
3438.63042	6.32765
3436.70186	6.35799
3434.77329	6.39020
3432.84473	6.44784
3430.91616	6.51622
3428.98760	6.57005
3427.05903	6.61095
3425.13047	6.66443
3423.20190	6.72718
3421.27334	6.78126
3419.34478	6.84011
3417.41621	6.89949
3415.48765	6.93042
3413.55908	6.95307
3411.63052	7.00479
3409.70195	7.05903
3407.77339	7.10798
3405.84482	7.17212
3403.91626	7.21903
3401.98770	7.20430
3400.05913	7.19474
3398.13057	7.26552
3396.20200	7.37346
3394.27344	7.44113
3392.34487	7.46305
3390.41631	7.50665
3388.48774	7.56680
3386.55918	7.59430
3384.63062	7.57291
3382.70205	7.54682
3380.77349	7.55531
3378.84492	7.57423
3376.91636	7.61305
3374.98779	7.68909
3373.05923	7.78784
3371.13066	7.84003
3369.20210	7.85000
3367.27354	7.88242
3365.34497	7.91522
3363.41641	7.90636
3361.48784	7.87407
3359.55928	7.85890
3357.63071	7.88178
3355.70215	7.95809
3353.77358	8.04571
3351.84502	8.13456
3349.91646	8.17947
3347.98789	8.09913
3346.05933	8.00528
3344.13076	8.02036
3342.20220	8.06886
3340.27363	8.03218
3338.34507	7.98219
3336.41650	7.98995
3334.48794	8.04609
3332.55937	8.17203
3330.63081	8.39056
3328.70225	8.52284
3326.77368	8.42048
3324.84512	8.25010
3322.91655	8.13399
3320.98799	8.12370
3319.05942	8.19742
3317.13086	8.24696
3315.20229	8.22954
3313.27373	8.24770
3311.34517	8.27364
3309.41660	8.21619
3307.48804	8.14058
3305.55947	8.08102
3303.63091	8.06709
3301.70234	8.11757
3299.77378	8.15357
3297.84521	8.15095
3295.91665	8.22546
3293.98809	8.31401
3292.05952	8.26264
3290.13096	8.18946
3288.20239	8.24514
3286.27383	8.37960
3284.34526	8.41426
3282.41670	8.33953
3280.48813	8.30111
3278.55957	8.36959
3276.63101	8.47874
3274.70244	8.58639
3272.77388	8.62322
3270.84531	8.45409
3268.91675	8.20548
3266.98818	8.06960
3265.05962	8.10384
3263.13105	8.24884
3261.20249	8.40916
3259.27393	8.49483
3257.34536	8.48002
3255.41680	8.38483
3253.48823	8.26907
3251.55967	8.26973
3249.63110	8.43025
3247.70254	8.57743
3245.77397	8.50655
3243.84541	8.34720
3241.91685	8.30053
3239.98828	8.40403
3238.05972	8.52293
3236.13115	8.53099
3234.20259	8.43760
3232.27402	8.25269
3230.34546	8.12270
3228.41689	8.11238
3226.48833	8.05452
3224.55977	7.91994
3222.63120	7.89317
3220.70264	7.99905
3218.77407	8.09838
3216.84551	8.12720
3214.91694	8.09626
3212.98838	8.01049
3211.05981	7.94551
3209.13125	7.96957
3207.20269	7.97938
3205.27412	7.86810
3203.34556	7.77630
3201.41699	7.81219
3199.48843	7.83743
3197.55986	7.73117
3195.63130	7.61973
3193.70273	7.59432
3191.77417	7.60840
3189.84561	7.62836
3187.91704	7.62101
3185.98848	7.54013
3184.05991	7.44513
3182.13135	7.39110
3180.20278	7.35936
3178.27422	7.32111
3176.34565	7.25700
3174.41709	7.19813
3172.48853	7.15763
3170.55996	7.07868
3168.63140	6.96896
3166.70283	6.89276
3164.77427	6.83865
3162.84570	6.75818
3160.91714	6.67051
3158.98857	6.61067
3157.06001	6.55430
3155.13145	6.49107
3153.20288	6.43759
3151.27432	6.37824
3149.34575	6.29897
3147.41719	6.21870
3145.48862	6.15385
3143.56006	6.09051
3141.63149	6.01696
3139.70293	5.94463
3137.77437	5.88587
3135.84580	5.83818
3133.91724	5.78205
3131.98867	5.70614
3130.06011	5.62807
3128.13154	5.55687
3126.20298	5.48604
3124.27441	5.41939
3122.34585	5.35022
3120.41729	5.27335
3118.48872	5.20118
3116.56016	5.13367
3114.63159	5.06309
3112.70303	4.98871
3110.77446	4.91171
3108.84590	4.83624
3106.91733	4.76701
3104.98877	4.70503
3103.06021	4.64576
3101.13164	4.58343
3099.20308	4.52042
3097.27451	4.45878
3095.34595	4.39518
3093.41738	4.32886
3091.48882	4.26446
3089.56025	4.20583
3087.63169	4.14719
3085.70312	4.08337
3083.77456	4.01916
3081.84600	3.95879
3079.91743	3.90060
3077.98887	3.84317
3076.06030	3.78678
3074.13174	3.73057
3072.20317	3.67349
3070.27461	3.61619
3068.34604	3.56048
3066.41748	3.50657
3064.48892	3.45235
3062.56035	3.39686
3060.63179	3.34181
3058.70322	3.28831
3056.77466	3.23555
3054.84609	3.18267
3052.91753	3.13152
3050.98896	3.08304
3049.06040	3.03318
3047.13184	2.98162
3045.20327	2.93223
3043.27471	2.88426
3041.34614	2.83591
3039.41758	2.78850
3037.48901	2.74309
3035.56045	2.69913
3033.63188	2.65547
3031.70332	2.61099
3029.77476	2.56599
3027.84619	2.52206
3025.91763	2.47984
3023.98906	2.43859
3022.06050	2.39770
3020.13193	2.35724
3018.20337	2.31680
3016.27480	2.27610
3014.34624	2.23624
3012.41768	2.19779
3010.48911	2.15989
3008.56055	2.12257
3006.63198	2.08661
3004.70342	2.05151
3002.77485	2.01661
3000.84629	1.98215
2998.91772	1.94833
2996.98916	1.91581
2995.06060	1.88476
2993.13203	1.85424
2991.20347	1.82413
2989.27490	1.79473
2987.34634	1.76629
2985.41777	1.73867
2983.48921	1.71112
2981.56064	1.68378
2979.63208	1.65692
2977.70352	1.63032
2975.77495	1.60464
2973.84639	1.58054
2971.91782	1.55696
2969.98926	1.53276
2968.06069	1.50865
2966.13213	1.48560
2964.20356	1.46310
2962.27500	1.44052
2960.34644	1.41799
2958.41787	1.39513
2956.48931	1.37133
2954.56074	1.34717
2952.63218	1.32341
2950.70361	1.30009
2948.77505	1.27730
2946.84648	1.25516
2944.91792	1.23365
2942.98936	1.21315
2941.06079	1.19358
2939.13223	1.17398
2937.20366	1.15431
2935.27510	1.13522
2933.34653	1.11669
2931.41797	1.09849
2929.48940	1.08042
2927.56084	1.06237
2925.63228	1.04430
2923.70371	1.02611
2921.77515	1.00768
2919.84658	0.98936
2917.91802	0.97119
2915.98945	0.95266
2914.06089	0.93422
2912.13232	0.91663
2910.20376	0.89991
2908.27520	0.88390
2906.34663	0.86811
2904.41807	0.85217
2902.48950	0.83712
2900.56094	0.82362
2898.63237	0.81057
2896.70381	0.79713
2894.77524	0.78357
2892.84668	0.77025
2890.91812	0.75742
2888.98955	0.74525
2887.06099	0.73382
2885.13242	0.72321
2883.20386	0.71313
2881.27529	0.70316
2879.34673	0.69321
2877.41816	0.68333
2875.48960	0.67354
2873.56104	0.66370
2871.63247	0.65349
2869.70391	0.64263
2867.77534	0.63093
2865.84678	0.61862
2863.91821	0.60662
2861.98965	0.59542
2860.06108	0.58482
2858.13252	0.57472
2856.20396	0.56523
2854.27539	0.55617
2852.34683	0.54718
2850.41826	0.53821
2848.48970	0.52925
2846.56113	0.51996
2844.63257	0.51065
2842.70400	0.50216
2840.77544	0.49466
2838.84687	0.48764
2836.91831	0.48075
2834.98975	0.47410
2833.06118	0.46786
2831.13262	0.46179
2829.20405	0.45564
2827.27549	0.44956
2825.34692	0.44370
2823.41836	0.43782
2821.48979	0.43167
2819.56123	0.42535
2817.63267	0.41908
2815.70410	0.41302
2813.77554	0.40726
2811.84697	0.40172
2809.91841	0.39617
2807.98984	0.39058
2806.06128	0.38511
2804.13271	0.37991
2802.20415	0.37483
2800.27559	0.36981
2798.34702	0.36492
2796.41846	0.35990
2794.48989	0.35462
2792.56133	0.34953
2790.63276	0.34485
2788.70420	0.34019
2786.77563	0.33553
2784.84707	0.33111
2782.91851	0.32678
2780.98994	0.32249
2779.06138	0.31836
2777.13281	0.31442
2775.20425	0.31059
2773.27568	0.30671
2771.34712	0.30270
2769.41855	0.29873
2767.48999	0.29501
2765.56143	0.29145
2763.63286	0.28784
2761.70430	0.28422
2759.77573	0.28077
2757.84717	0.27751
2755.91860	0.27425
2753.99004	0.27093
2752.06147	0.26772
2750.13291	0.26460
2748.20435	0.26138
2746.27578	0.25830
2744.34722	0.25560
2742.41865	0.25293
2740.49009	0.25014
2738.56152	0.24746
2736.63296	0.24492
2734.70439	0.24237
2732.77583	0.23968
2730.84727	0.23693
2728.91870	0.23440
2726.99014	0.23213
2725.06157	0.22993
2723.13301	0.22767
2721.20444	0.22531
2719.27588	0.22303
2717.34731	0.22098
2715.41875	0.21908
2713.49019	0.21723
2711.56162	0.21530
2709.63306	0.21325
2707.70449	0.21129
2705.77593	0.20964
2703.84736	0.20810
2701.91880	0.20643
2699.99023	0.20478
2698.06167	0.20329
2696.13311	0.20184
2694.20454	0.20035
2692.27598	0.19884
2690.34741	0.19733
2688.41885	0.19587
2686.49028	0.19457
2684.56172	0.19331
2682.63315	0.19198
2680.70459	0.19066
2678.77603	0.18946
2676.84746	0.18845
2674.91890	0.18752
2672.99033	0.18650
2671.06177	0.18535
2669.13320	0.18414
2667.20464	0.18287
2665.27607	0.18177
2663.34751	0.18095
2661.41895	0.18012
2659.49038	0.17912
2657.56182	0.17803
2655.63325	0.17699
2653.70469	0.17607
2651.77612	0.17534
2649.84756	0.17483
2647.91899	0.17435
2645.99043	0.17370
2644.06187	0.17293
2642.13330	0.17227
2640.20474	0.17180
2638.27617	0.17133
2636.34761	0.17069
2634.41904	0.16993
2632.49048	0.16929
2630.56191	0.16885
2628.63335	0.16851
2626.70479	0.16818
2624.77622	0.16775
2622.84766	0.16721
2620.91909	0.16670
2618.99053	0.16630
2617.06196	0.16600
2615.13340	0.16585
2613.20483	0.16578
2611.27627	0.16563
2609.34771	0.16538
2607.41914	0.16518
2605.49058	0.16499
2603.56201	0.16472
2601.63345	0.16453
2599.70488	0.16448
2597.77632	0.16453
2595.84775	0.16456
2593.91919	0.16452
2591.99062	0.16454
2590.06206	0.16457
2588.13350	0.16460
2586.20493	0.16474
2584.27637	0.16498
2582.34780	0.16521
2580.41924	0.16548
2578.49067	0.16574
2576.56211	0.16593
2574.63354	0.16614
2572.70498	0.16636
2570.77642	0.16659
2568.84785	0.16680
2566.91929	0.16703
2564.99072	0.16737
2563.06216	0.16776
2561.13359	0.16815
2559.20503	0.16857
2557.27646	0.16908
2555.34790	0.16953
2553.41934	0.16991
2551.49077	0.17035
2549.56221	0.17082
2547.63364	0.17125
2545.70508	0.17170
2543.77651	0.17222
2541.84795	0.17280
2539.91938	0.17337
2537.99082	0.17388
2536.06226	0.17434
2534.13369	0.17481
2532.20513	0.17544
2530.27656	0.17616
2528.34800	0.17686
2526.41943	0.17754
2524.49087	0.17825
2522.56230	0.17889
2520.63374	0.17954
2518.70518	0.18029
2516.77661	0.18112
2514.84805	0.18190
2512.91948	0.18259
2510.99092	0.18327
2509.06235	0.18406
2507.13379	0.18498
2505.20522	0.18586
2503.27666	0.18654
2501.34810	0.18704
2499.41953	0.18759
2497.49097	0.18834
2495.56240	0.18911
2493.63384	0.18988
2491.70527	0.19080
2489.77671	0.19184
2487.84814	0.19276
2485.91958	0.19347
2483.99102	0.19427
2482.06245	0.19519
2480.13389	0.19606
2478.20532	0.19686
2476.27676	0.19758
2474.34819	0.19833
2472.41963	0.19925
2470.49106	0.20025
2468.56250	0.20119
2466.63394	0.20203
2464.70537	0.20289
2462.77681	0.20383
2460.84824	0.20468
2458.91968	0.20537
2456.99111	0.20608
2455.06255	0.20690
2453.13398	0.20778
2451.20542	0.20870
2449.27686	0.20974
2447.34829	0.21088
2445.41973	0.21194
2443.49116	0.21282
2441.56260	0.21357
2439.63403	0.21436
2437.70547	0.21534
2435.77690	0.21645
2433.84834	0.21742
2431.91978	0.21831
2429.99121	0.21934
2428.06265	0.22048
2426.13408	0.22162
2424.20552	0.22277
2422.27695	0.22387
2420.34839	0.22496
2418.41982	0.22608
2416.49126	0.22718
2414.56270	0.22831
2412.63413	0.22950
2410.70557	0.23061
2408.77700	0.23167
2406.84844	0.23282
2404.91987	0.23405
2402.99131	0.23517
2401.06274	0.23616
2399.13418	0.23724
2397.20562	0.23843
2395.27705	0.23965
2393.34849	0.24088
2391.41992	0.24221
2389.49136	0.24362
2387.56279	0.24506
2385.63423	0.24649
2383.70566	0.24795
2381.77710	0.24957
2379.84854	0.25143
2377.91997	0.25351
2375.99141	0.25591
2374.06284	0.25887
2372.13428	0.26250
2370.20571	0.26620
2368.27715	0.26876
2366.34858	0.27027
2364.42002	0.27232
2362.49146	0.27526
2360.56289	0.27793
2358.63433	0.27992
2356.70576	0.28073
2354.77720	0.28042
2352.84863	0.28082
2350.92007	0.28131
2348.99150	0.28106
2347.06294	0.28125
2345.13437	0.28311
2343.20581	0.28605
2341.27725	0.28812
2339.34868	0.28969
2337.42012	0.29181
2335.49155	0.29449
2333.56299	0.29666
2331.63442	0.29777
2329.70586	0.29863
2327.77729	0.29975
2325.84873	0.30057
2323.92017	0.30117
2321.99160	0.30230
2320.06304	0.30377
2318.13447	0.30505
2316.20591	0.30625
2314.27734	0.30756
2312.34878	0.30895
2310.42021	0.31027
2308.49165	0.31141
2306.56309	0.31265
2304.63452	0.31408
2302.70596	0.31545
2300.77739	0.31687
2298.84883	0.31849
2296.92026	0.32026
2294.99170	0.32198
2293.06313	0.32358
2291.13457	0.32525
2289.20601	0.32701
2287.27744	0.32875
2285.34888	0.33047
2283.42031	0.33232
2281.49175	0.33430
2279.56318	0.33632
2277.63462	0.33837
2275.70605	0.34050
2273.77749	0.34265
2271.84893	0.34470
2269.92036	0.34669
2267.99180	0.34870
2266.06323	0.35078
2264.13467	0.35297
2262.20610	0.35523
2260.27754	0.35736
2258.34897	0.35947
2256.42041	0.36166
2254.49185	0.36379
2252.56328	0.36587
2250.63472	0.36797
2248.70615	0.37002
2246.77759	0.37213
2244.84902	0.37439
2242.92046	0.37665
2240.99189	0.37881
2239.06333	0.38097
2237.13477	0.38314
2235.20620	0.38526
2233.27764	0.38741
2231.34907	0.38961
2229.42051	0.39192
2227.49194	0.39426
2225.56338	0.39649
2223.63481	0.39877
2221.70625	0.40111
2219.77769	0.40337
2217.84912	0.40559
2215.92056	0.40782
2213.99199	0.40994
2212.06343	0.41201
2210.13486	0.41416
2208.20630	0.41631
2206.27773	0.41824
2204.34917	0.42009
2202.42061	0.42206
2200.49204	0.42414
2198.56348	0.42626
2196.63491	0.42835
2194.70635	0.43038
2192.77778	0.43223
2190.84922	0.43393
2188.92065	0.43576
2186.99209	0.43780
2185.06353	0.43974
2183.13496	0.44148
2181.20640	0.44314
2179.27783	0.44475
2177.34927	0.44631
2175.42070	0.44778
2173.49214	0.44926
2171.56357	0.45083
2169.63501	0.45225
2167.70645	0.45337
2165.77788	0.45447
2163.84932	0.45569
2161.92075	0.45685
2159.99219	0.45793
2158.06362	0.45906
2156.13506	0.46018
2154.20649	0.46114
2152.27793	0.46192
2150.34937	0.46265
2148.42080	0.46336
2146.49224	0.46391
2144.56367	0.46431
2142.63511	0.46472
2140.70654	0.46516
2138.77798	0.46555
2136.84941	0.46580
2134.92085	0.46591
2132.99229	0.46587
2131.06372	0.46574
2129.13516	0.46554
2127.20659	0.46524
2125.27803	0.46496
2123.34946	0.46472
2121.42090	0.46435
2119.49233	0.46375
2117.56377	0.46308
2115.63521	0.46244
2113.70664	0.46171
2111.77808	0.46082
2109.84951	0.45989
2107.92095	0.45894
2105.99238	0.45785
2104.06382	0.45671
2102.13525	0.45551
2100.20669	0.45420
2098.27812	0.45281
2096.34956	0.45131
2094.42100	0.44975
2092.49243	0.44816
2090.56387	0.44648
2088.63530	0.44468
2086.70674	0.44288
2084.77817	0.44108
2082.84961	0.43920
2080.92104	0.43719
2078.99248	0.43515
2077.06392	0.43318
2075.13535	0.43118
2073.20679	0.42901
2071.27822	0.42671
2069.34966	0.42437
2067.42109	0.42205
2065.49253	0.41978
2063.56396	0.41742
2061.63540	0.41491
2059.70684	0.41236
2057.77827	0.40983
2055.84971	0.40727
2053.92114	0.40470
2051.99258	0.40213
2050.06401	0.39952
2048.13545	0.39684
2046.20688	0.39416
2044.27832	0.39157
2042.34976	0.38899
2040.42119	0.38624
2038.49263	0.38334
2036.56406	0.38055
2034.63550	0.37787
2032.70693	0.37513
2030.77837	0.37237
2028.84980	0.36965
2026.92124	0.36688
2024.99268	0.36406
2023.06411	0.36123
2021.13555	0.35837
2019.20698	0.35555
2017.27842	0.35278
2015.34985	0.34997
2013.42129	0.34727
2011.49272	0.34464
2009.56416	0.34192
2007.63560	0.33911
2005.70703	0.33640
2003.77847	0.33369
2001.84990	0.33089
1999.92134	0.32820
1997.99277	0.32566
1996.06421	0.32311
1994.13564	0.32058
1992.20708	0.31809
1990.27852	0.31559
1988.34995	0.31315
1986.42139	0.31066
1984.49282	0.30808
1982.56426	0.30557
1980.63569	0.30318
1978.70713	0.30090
1976.77856	0.29869
1974.85000	0.29648
1972.92144	0.29431
1970.99287	0.29219
1969.06431	0.29001
1967.13574	0.28790
1965.20718	0.28591
1963.27861	0.28391
1961.35005	0.28186
1959.42148	0.27980
1957.49292	0.27789
1955.56436	0.27609
1953.63579	0.27428
1951.70723	0.27247
1949.77866	0.27077
1947.85010	0.26922
1945.92153	0.26781
1943.99297	0.26640
1942.06440	0.26486
1940.13584	0.26318
1938.20728	0.26159
1936.27871	0.26020
1934.35015	0.25891
1932.42158	0.25765
1930.49302	0.25637
1928.56445	0.25521
1926.63589	0.25414
1924.70732	0.25318
1922.77876	0.25230
1920.85020	0.25134
1918.92163	0.25033
1916.99307	0.24933
1915.06450	0.24832
1913.13594	0.24745
1911.20737	0.24682
1909.27881	0.24617
1907.35024	0.24543
1905.42168	0.24469
1903.49312	0.24398
1901.56455	0.24331
1899.63599	0.24277
1897.70742	0.24237
1895.77886	0.24200
1893.85029	0.24164
1891.92173	0.24120
1889.99316	0.24082
1888.06460	0.24051
1886.13604	0.24020
1884.20747	0.23992
1882.27891	0.23978
1880.35034	0.23976
1878.42178	0.23973
1876.49321	0.23973
1874.56465	0.23969
1872.63608	0.23962
1870.70752	0.23967
1868.77896	0.24003
1866.85039	0.24029
1864.92183	0.24024
1862.99326	0.24028
1861.06470	0.24052
1859.13613	0.24093
1857.20757	0.24136
1855.27900	0.24176
1853.35044	0.24206
1851.42187	0.24244
1849.49331	0.24298
1847.56475	0.24369
1845.63618	0.24452
1843.70762	0.24552
1841.77905	0.24643
1839.85049	0.24692
1837.92192	0.24758
1835.99336	0.24850
1834.06479	0.24946
1832.13623	0.25042
1830.20767	0.25176
1828.27910	0.25325
1826.35054	0.25433
1824.42197	0.25557
1822.49341	0.25684
1820.56484	0.25801
1818.63628	0.25931
1816.70771	0.26085
1814.77915	0.26246
1812.85059	0.26425
1810.92202	0.26634
1808.99346	0.26845
1807.06489	0.27034
1805.13633	0.27211
1803.20776	0.27419
1801.27920	0.27670
1799.35063	0.27959
1797.42207	0.28216
1795.49351	0.28448
1793.56494	0.28712
1791.63638	0.29070
1789.70781	0.29424
1787.77925	0.29687
1785.85068	0.29995
1783.92212	0.30361
1781.99355	0.30749
1780.06499	0.31163
1778.13643	0.31590
1776.20786	0.31984
1774.27930	0.32403
1772.35073	0.32986
1770.42217	0.33634
1768.49360	0.34167
1766.56504	0.34676
1764.63647	0.35198
1762.70791	0.35781
1760.77935	0.36541
1758.85078	0.37256
1756.92222	0.37977
1754.99365	0.38770
1753.06509	0.39474
1751.13652	0.40299
1749.20796	0.41373
1747.27939	0.42443
1745.35083	0.43361
1743.42227	0.44314
1741.49370	0.45353
1739.56514	0.46562
1737.63657	0.47768
1735.70801	0.48804
1733.77944	0.50395
1731.85088	0.52360
1729.92231	0.53903
1727.99375	0.55470
1726.06519	0.57145
1724.13662	0.58962
1722.20806	0.60926
1720.27949	0.62730
1718.35093	0.64841
1716.42236	0.68081
1714.49380	0.71205
1712.56523	0.73671
1710.63667	0.76026
1708.70811	0.78548
1706.77954	0.81443
1704.85098	0.84979
1702.92241	0.88126
1700.99385	0.91169
1699.06528	0.95854
1697.13672	1.00293
1695.20815	1.04862
1693.27959	1.09226
1691.35103	1.12682
1689.42246	1.16745
1687.49390	1.21091
1685.56533	1.25245
1683.63677	1.31899
1681.70820	1.39005
1679.77964	1.43366
1677.85107	1.47460
1675.92251	1.52181
1673.99395	1.58185
1672.06538	1.63603
1670.13682	1.68841
1668.20825	1.75839
1666.27969	1.81625
1664.35112	1.86530
1662.42256	1.92815
1660.49399	2.00410
1658.56543	2.06450
1656.63687	2.11223
1654.70830	2.15545
1652.77974	2.22113
1650.85117	2.27944
1648.92261	2.29663
1646.99404	2.31952
1645.06548	2.34317
1643.13691	2.36202
1641.20835	2.37238
1639.27979	2.38012
1637.35122	2.38177
1635.42266	2.37407
1633.49409	2.36097
1631.56553	2.34618
1629.63696	2.33000
1627.70840	2.30044
1625.77983	2.26515
1623.85127	2.21974
1621.92271	2.16385
1619.99414	2.11573
1618.06558	2.06953
1616.13701	2.00179
1614.20845	1.93335
1612.27988	1.88261
1610.35132	1.82968
1608.42275	1.77178
1606.49419	1.71455
1604.56562	1.66269
1602.63706	1.61275
1600.70850	1.56351
1598.77993	1.51844
1596.85137	1.47683
1594.92280	1.43673
1592.99424	1.39838
1591.06567	1.36402
1589.13711	1.33236
1587.20854	1.30352
1585.27998	1.27739
1583.35142	1.25308
1581.42285	1.23108
1579.49429	1.21290
1577.56572	1.19746
1575.63716	1.17925
1573.70859	1.16347
1571.78003	1.15360
1569.85146	1.14441
1567.92290	1.13530
1565.99434	1.12961
1564.06577	1.12641
1562.13721	1.12448
1560.20864	1.12509
1558.28008	1.13305
1556.35151	1.14217
1554.42295	1.14669
1552.49438	1.15074
1550.56582	1.15229
1548.63726	1.15070
1546.70869	1.14657
1544.78013	1.13900
1542.85156	1.12723
1540.92300	1.10765
1538.99443	1.07467
1537.06587	1.05053
1535.13730	1.03376
1533.20874	1.01093
1531.28018	0.98720
1529.35161	0.97064
1527.42305	0.95497
1525.49448	0.93837
1523.56592	0.92430
1521.63735	0.91103
1519.70879	0.89738
1517.78022	0.88567
1515.85166	0.87188
1513.92310	0.85803
1511.99453	0.84650
1510.06597	0.83593
1508.13740	0.82486
1506.20884	0.80659
1504.28027	0.79197
1502.35171	0.78418
1500.42314	0.77711
1498.49458	0.76964
1496.56602	0.76094
1494.63745	0.75204
1492.70889	0.74515
1490.78032	0.73920
1488.85176	0.73246
1486.92319	0.72624
1484.99463	0.72155
1483.06606	0.71793
1481.13750	0.71490
1479.20894	0.71268
1477.28037	0.71170
1475.35181	0.71171
1473.42324	0.71227
1471.49468	0.71243
1469.56611	0.71141
1467.63755	0.70972
1465.70898	0.70811
1463.78042	0.70705
1461.85186	0.70676
1459.92329	0.70706
1457.99473	0.70804
1456.06616	0.70855
1454.13760	0.70690
1452.20903	0.70455
1450.28047	0.70197
1448.35190	0.69924
1446.42334	0.69638
1444.49478	0.69371
1442.56621	0.69112
1440.63765	0.68827
1438.70908	0.68524
1436.78052	0.68150
1434.85195	0.67728
1432.92339	0.67418
1430.99482	0.67234
1429.06626	0.67154
1427.13770	0.67156
1425.20913	0.67227
1423.28057	0.67362
1421.35200	0.67478
1419.42344	0.67553
1417.49487	0.67597
1415.56631	0.67568
1413.63774	0.67535
1411.70918	0.67566
1409.78062	0.67677
1407.85205	0.67836
1405.92349	0.68034
1403.99492	0.68231
1402.06636	0.68321
1400.13779	0.68287
1398.20923	0.68145
1396.28066	0.67886
1394.35210	0.67481
1392.42354	0.66989
1390.49497	0.66516
1388.56641	0.66032
1386.63784	0.65468
1384.70928	0.64876
1382.78071	0.64313
1380.85215	0.63785
1378.92358	0.63339
1376.99502	0.63001
1375.06646	0.62763
1373.13789	0.62603
1371.20933	0.62503
1369.28076	0.62430
1367.35220	0.62326
1365.42363	0.62168
1363.49507	0.61991
1361.56650	0.61818
1359.63794	0.61653
1357.70937	0.61503
1355.78081	0.61371
1353.85225	0.61262
1351.92368	0.61180
1349.99512	0.61116
1348.06655	0.61045
1346.13799	0.60949
1344.20942	0.60841
1342.28086	0.60761
1340.35229	0.60717
1338.42373	0.60662
1336.49517	0.60595
1334.56660	0.60560
1332.63804	0.60564
1330.70947	0.60594
1328.78091	0.60648
1326.85234	0.60734
1324.92378	0.60846
1322.99521	0.60963
1321.06665	0.61064
1319.13809	0.61155
1317.20952	0.61239
1315.28096	0.61279
1313.35239	0.61255
1311.42383	0.61202
1309.49526	0.61142
1307.56670	0.61076
1305.63813	0.61019
1303.70957	0.60967
1301.78101	0.60891
1299.85244	0.60783
1297.92388	0.60659
1295.99531	0.60523
1294.06675	0.60382
1292.13818	0.60246
1290.20962	0.60106
1288.28105	0.59963
1286.35249	0.59817
1284.42393	0.59673
1282.49536	0.59526
1280.56680	0.59361
1278.63823	0.59191
1276.70967	0.59050
1274.78110	0.58935
1272.85254	0.58830
1270.92397	0.58734
1268.99541	0.58643
1267.06685	0.58553
1265.13828	0.58469
1263.20972	0.58387
1261.28115	0.58302
1259.35259	0.58213
1257.42402	0.58130
1255.49546	0.58082
1253.56689	0.58081
1251.63833	0.58111
1249.70977	0.58141
1247.78120	0.58146
1245.85264	0.58125
1243.92407	0.58068
1241.99551	0.57963
1240.06694	0.57822
1238.13838	0.57649
1236.20981	0.57427
1234.28125	0.57161
1232.35269	0.56890
1230.42412	0.56628
1228.49556	0.56373
1226.56699	0.56144
1224.63843	0.55942
1222.70986	0.55745
1220.78130	0.55553
1218.85273	0.55377
1216.92417	0.55219
1214.99561	0.55082
1213.06704	0.54975
1211.13848	0.54884
1209.20991	0.54811
1207.28135	0.54753
1205.35278	0.54675
1203.42422	0.54576
1201.49565	0.54477
1199.56709	0.54380
1197.63853	0.54283
1195.70996	0.54195
1193.78140	0.54116
1191.85283	0.54043
1189.92427	0.53989
1187.99570	0.53956
1186.06714	0.53936
1184.13857	0.53938
1182.21001	0.53976
1180.28145	0.54067
1178.35288	0.54209
1176.42432	0.54372
1174.49575	0.54518
1172.56719	0.54608
1170.63862	0.54629
1168.71006	0.54614
1166.78149	0.54593
1164.85293	0.54574
1162.92437	0.54554
1160.99580	0.54524
1159.06724	0.54471
1157.13867	0.54399
1155.21011	0.54303
1153.28154	0.54176
1151.35298	0.54017
1149.42441	0.53809
1147.49585	0.53541
1145.56729	0.53240
1143.63872	0.52958
1141.71016	0.52731
1139.78159	0.52559
1137.85303	0.52442
1135.92446	0.52384
1133.99590	0.52373
1132.06733	0.52400
1130.13877	0.52422
1128.21021	0.52411
1126.28164	0.52389
1124.35308	0.52358
1122.42451	0.52321
1120.49595	0.52297
1118.56738	0.52295
1116.63882	0.52309
1114.71025	0.52337
1112.78169	0.52374
1110.85312	0.52413
1108.92456	0.52478
1106.99600	0.52600
1105.06743	0.52730
1103.13887	0.52820
1101.21030	0.52923
1099.28174	0.53089
1097.35317	0.53304
1095.42461	0.53553
1093.49604	0.53869
1091.56748	0.54305
1089.63892	0.54877
1087.71035	0.55572
1085.78179	0.56357
1083.85322	0.57142
1081.92466	0.57818
1079.99609	0.58322
1078.06753	0.58592
1076.13896	0.58551
1074.21040	0.58224
1072.28184	0.57703
1070.35327	0.57067
1068.42471	0.56378
1066.49614	0.55672
1064.56758	0.55018
1062.63901	0.54464
1060.71045	0.53985
1058.78188	0.53562
1056.85332	0.53178
1054.92476	0.52813
1052.99619	0.52501
1051.06763	0.52271
1049.13906	0.52096
1047.21050	0.51965
1045.28193	0.51884
1043.35337	0.51818
1041.42480	0.51751
1039.49624	0.51704
1037.56768	0.51666
1035.63911	0.51617
1033.71055	0.51552
1031.78198	0.51460
1029.85342	0.51343
1027.92485	0.51207
1025.99629	0.51062
1024.06772	0.50947
1022.13916	0.50877
1020.21060	0.50845
1018.28203	0.50846
1016.35347	0.50845
1014.42490	0.50812
1012.49634	0.50769
1010.56777	0.50770
1008.63921	0.50820
1006.71064	0.50882
1004.78208	0.50976
1002.85352	0.51145
1000.92495	0.51388
998.99639	0.51714
997.06782	0.52121
995.13926	0.52557
993.21069	0.52961
991.28213	0.53295
989.35356	0.53517
987.42500	0.53605
985.49644	0.53608
983.56787	0.53598
981.63931	0.53619
979.71074	0.53682
977.78218	0.53783
975.85361	0.53935
973.92505	0.54150
971.99648	0.54424
970.06792	0.54747
968.13936	0.55112
966.21079	0.55533
964.28223	0.55991
962.35366	0.56441
960.42510	0.56906
958.49653	0.57427
956.56797	0.57987
954.63940	0.58577
952.71084	0.59197
950.78228	0.59830
948.85371	0.60455
946.92515	0.61074
944.99658	0.61704
943.06802	0.62329
941.13945	0.62927
939.21089	0.63530
937.28232	0.64141
935.35376	0.64701
933.42520	0.65218
931.49663	0.65765
929.56807	0.66322
927.63950	0.66869
925.71094	0.67472
923.78237	0.68119
921.85381	0.68791
919.92524	0.69530
917.99668	0.70294
916.06812	0.70976
914.13955	0.71589
912.21099	0.72285
910.28242	0.73131
908.35386	0.74021
906.42529	0.74875
904.49673	0.75704
902.56816	0.76529
900.63960	0.77431
898.71104	0.78473
896.78247	0.79560
894.85391	0.80600
892.92534	0.81572
890.99678	0.82554
889.06821	0.83625
887.13965	0.84715
885.21108	0.85782
883.28252	0.86892
881.35396	0.88113
879.42539	0.89379
877.49683	0.90579
875.56826	0.91736
873.63970	0.92908
871.71113	0.94109
869.78257	0.95256
867.85400	0.96307
865.92544	0.97393
863.99687	0.98552
862.06831	0.99659
860.13975	1.00761
858.21118	1.02057
856.28262	1.03411
854.35405	1.04613
852.42549	1.05830
850.49692	1.07180
848.56836	1.08387
846.63979	1.09380
844.71123	1.10490
842.78267	1.11611
840.85410	1.12528
838.92554	1.13507
836.99697	1.14615
835.06841	1.15796
833.13984	1.17196
831.21128	1.18737
829.28271	1.20511
827.35415	1.22170
825.42559	1.22733
823.49702	1.23149
821.56846	1.24423
819.63989	1.25484
817.71133	1.26473
815.78276	1.28555
813.85420	1.30142
811.92563	1.29965
809.99707	1.30505
808.06851	1.32786
806.13994	1.35301
804.21138	1.37318
802.28281	1.39083
800.35425	1.40193
798.42568	1.39976
796.49712	1.39121
794.56855	1.39983
792.63999	1.44202
790.71143	1.49295
788.78286	1.50435
786.85430	1.48883
784.92573	1.55047
782.99717	1.74055
781.06860	1.88192
779.14004	1.76407
777.21147	1.62259
775.28291	1.59194
773.35435	1.66469
771.42578	1.68810
769.49722	1.62773
767.56865	1.58070
765.64009	1.52199
763.71152	1.49966
761.78296	1.56278
759.85439	1.69784
757.92583	1.51336
755.99727	1.28610
754.06870	1.27970
752.14014	1.42162
750.21157	1.45450
748.28301	1.27075
746.35444	1.13490
744.42588	1.11026
742.49731	1.12760
740.56875	1.06664
738.64019	1.00636
736.71162	1.00732
734.78306	0.96231
732.85449	0.77552
730.92593	0.58003
728.99736	0.45705
727.06880	0.40059
725.14023	0.30435
723.21167	0.08943
721.28311	-0.20533
719.35454	-0.02516
717.42598	0.29998
715.49741	0.43477
713.56885	0.36092
711.64028	0.31461
709.71172	0.31034
707.78315	0.34456
705.85459	0.43989
703.92603	0.49801
701.99746	0.46194
700.06890	0.45218
698.14033	0.60182
696.21177	0.78947
694.28320	0.59854
692.35464	0.45663
690.42607	0.42216
688.49751	0.39289
686.56895	0.34582
684.64038	0.33418
682.71182	0.39238
680.78325	0.50868
678.85469	0.67777
676.92612	0.86922
674.99756	0.80737
673.06899	0.59559
671.14043	0.48069
669.21187	0.46311
667.28330	0.48506
665.35474	0.49674
663.42617	0.46183
661.49761	0.40214
659.56904	0.33001
657.64048	0.26976
655.71191	0.27964
653.78335	0.36256
651.85479	0.42685
649.92622	0.47506
647.99766	0.53601
646.06909	0.53116
644.14053	0.50688
642.21196	0.60728
640.28340	0.75619
638.35483	0.55764
636.42627	0.36834
634.49771	0.28287
632.56914	0.25295
630.64058	0.27343
628.71201	0.33019
626.78345	0.35967
624.85488	0.35778
622.92632	0.37978
620.99775	0.42062
619.06919	0.40947
617.14062	0.37198
615.21206	0.39698
613.28350	0.44154
611.35493	0.43198
609.42637	0.42115
607.49780	0.44257
605.56924	0.44693
603.64067	0.45492
601.71211	0.53246
599.78354	0.56609
597.85498	0.52543
595.92642	0.53361
593.99785	0.50234
592.06929	0.41771
590.14072	0.40865
588.21216	0.51501
586.28359	0.58371
584.35503	0.45523
582.42646	0.34225
580.49790	0.28141
578.56934	0.27409
576.64077	0.32216
574.71221	0.40834
572.78364	0.49015
570.85508	0.44116
568.92651	0.33349
566.99795	0.31956
565.06938	0.38491
563.14082	0.39271
561.21226	0.30122
559.28369	0.23629
557.35513	0.24374
555.42656	0.31080
553.49800	0.36143
551.56943	0.33946
549.64087	0.27484
547.71230	0.23794
545.78374	0.27091
543.85518	0.35602
541.92661	0.41570
539.99805	0.44576
538.06948	0.47767
536.14092	0.39373
534.21235	0.29040
532.28379	0.26682
530.35522	0.28703
528.42666	0.31527
526.49810	0.35965
524.56953	0.39323
522.64097	0.39289
520.71240	0.40519
518.78384	0.39591
516.85527	0.35115
514.92671	0.34320
512.99814	0.31583
511.06958	0.26318
509.14102	0.29391
507.21245	0.42013
505.28389	0.45992
503.35532	0.38506
501.42676	0.33852
499.49819	0.33940
