3997.91411	0.05967
3995.98555	0.06060
3994.05698	0.06146
3992.12842	0.06201
3990.19985	0.06240
3988.27129	0.06275
3986.34272	0.06285
3984.41416	0.06288
3982.48560	0.06311
3980.55703	0.06347
3978.62847	0.06371
3976.69990	0.06381
3974.77134	0.06372
3972.84277	0.06374
3970.91421	0.06430
3968.98564	0.06491
3967.05708	0.06510
3965.12852	0.06485
3963.19995	0.06441
3961.27139	0.06429
3959.34282	0.06444
3957.41426	0.06446
3955.48569	0.06436
3953.55713	0.06425
3951.62856	0.06432
3949.70000	0.06468
3947.77144	0.06505
3945.84287	0.06493
3943.91431	0.06452
3941.98574	0.06430
3940.05718	0.06436
3938.12861	0.06455
3936.20005	0.06459
3934.27148	0.06434
3932.34292	0.06411
3930.41436	0.06410
3928.48579	0.06409
3926.55723	0.06428
3924.62866	0.06481
3922.70010	0.06516
3920.77153	0.06498
3918.84297	0.06456
3916.91440	0.06447
3914.98584	0.06467
3913.05728	0.06460
3911.12871	0.06439
3909.20015	0.06411
3907.27158	0.06350
3905.34302	0.06280
3903.41445	0.06247
3901.48589	0.06265
3899.55732	0.06327
3897.62876	0.06398
3895.70020	0.06415
3893.77163	0.06380
3891.84307	0.06351
3889.91450	0.06378
3887.98594	0.06404
3886.05737	0.06410
3884.12881	0.06426
3882.20024	0.06439
3880.27168	0.06449
3878.34312	0.06456
3876.41455	0.06454
3874.48599	0.06457
3872.55742	0.06461
3870.62886	0.06455
3868.70029	0.06464
3866.77173	0.06494
3864.84316	0.06539
3862.91460	0.06615
3860.98604	0.06661
3859.05747	0.06639
3857.12891	0.06592
3855.20034	0.06570
3853.27178	0.06642
3851.34321	0.06821
3849.41465	0.06903
3847.48608	0.06918
3845.55752	0.06958
3843.62896	0.07043
3841.70039	0.07102
3839.77183	0.07089
3837.84326	0.07115
3835.91470	0.07230
3833.98613	0.07341
3832.05757	0.07441
3830.12900	0.07540
3828.20044	0.07608
3826.27187	0.07656
3824.34331	0.07664
3822.41475	0.07637
3820.48618	0.07730
3818.55762	0.07923
3816.62905	0.08018
3814.70049	0.08120
3812.77192	0.08250
3810.84336	0.08331
3808.91479	0.08390
3806.98623	0.08496
3805.05767	0.08643
3803.12910	0.08743
3801.20054	0.08863
3799.27197	0.09010
3797.34341	0.09100
3795.41484	0.09242
3793.48628	0.09398
3791.55771	0.09502
3789.62915	0.09622
3787.70059	0.09766
3785.77202	0.09898
3783.84346	0.10030
3781.91489	0.10173
3779.98633	0.10334
3778.05776	0.10518
3776.12920	0.10682
3774.20063	0.10816
3772.27207	0.10940
3770.34351	0.11086
3768.41494	0.11284
3766.48638	0.11481
3764.55781	0.11674
3762.62925	0.11872
3760.70068	0.12056
3758.77212	0.12280
3756.84355	0.12554
3754.91499	0.12764
3752.98643	0.12933
3751.05786	0.13230
3749.12930	0.13655
3747.20073	0.13892
3745.27217	0.14044
3743.34360	0.14405
3741.41504	0.14823
3739.48647	0.15089
3737.55791	0.15309
3735.62935	0.15606
3733.70078	0.16125
3731.77222	0.16754
3729.84365	0.17289
3727.91509	0.17716
3725.98652	0.18176
3724.05796	0.18806
3722.12939	0.19562
3720.20083	0.20363
3718.27227	0.21184
3716.34370	0.22013
3714.41514	0.22778
3712.48657	0.23581
3710.55801	0.24768
3708.62944	0.26260
3706.70088	0.27568
3704.77231	0.28728
3702.84375	0.30002
3700.91519	0.31667
3698.98662	0.33544
3697.05806	0.35335
3695.12949	0.37209
3693.20093	0.39147
3691.27236	0.41175
3689.34380	0.43879
3687.41523	0.47499
3685.48667	0.50768
3683.55811	0.53498
3681.62954	0.56326
3679.70098	0.59431
3677.77241	0.62625
3675.84385	0.66464
3673.91528	0.71957
3671.98672	0.76416
3670.05815	0.80249
3668.12959	0.85771
3666.20103	0.90846
3664.27246	0.94950
3662.34390	0.99318
3660.41533	1.04055
3658.48677	1.08691
3656.55820	1.13595
3654.62964	1.19123
3652.70107	1.23663
3650.77251	1.27396
3648.84395	1.32790
3646.91538	1.40039
3644.98682	1.45424
3643.05825	1.49404
3641.12969	1.53408
3639.20112	1.57833
3637.27256	1.62250
3635.34399	1.66479
3633.41543	1.70670
3631.48687	1.74563
3629.55830	1.78512
3627.62974	1.83961
3625.70117	1.89244
3623.77261	1.92738
3621.84404	1.95945
3619.91548	1.99605
3617.98691	2.04245
3616.05835	2.08845
3614.12979	2.12592
3612.20122	2.16458
3610.27266	2.20372
3608.34409	2.24365
3606.41553	2.28691
3604.48696	2.32663
3602.55840	2.36099
3600.62983	2.39885
3598.70127	2.44133
3596.77271	2.48138
3594.84414	2.52124
3592.91558	2.56519
3590.98701	2.60676
3589.05845	2.64233
3587.12988	2.68376
3585.20132	2.73175
3583.27275	2.77331
3581.34419	2.81112
3579.41562	2.85105
3577.48706	2.89346
3575.55850	2.93690
3573.62993	2.98188
3571.70137	3.02503
3569.77280	3.06324
3567.84424	3.10191
3565.91567	3.15365
3563.98711	3.20787
3562.05854	3.25218
3560.12998	3.29439
3558.20142	3.33733
3556.27285	3.38171
3554.34429	3.42578
3552.41572	3.47151
3550.48716	3.52046
3548.55859	3.56800
3546.63003	3.61347
3544.70146	3.66034
3542.77290	3.70661
3540.84434	3.75090
3538.91577	3.79475
3536.98721	3.83869
3535.05864	3.88733
3533.13008	3.94127
3531.20151	3.99545
3529.27295	4.04465
3527.34438	4.09032
3525.41582	4.13722
3523.48726	4.18728
3521.55869	4.23977
3519.63013	4.28817
3517.70156	4.33172
3515.77300	4.37496
3513.84443	4.41981
3511.91587	4.46565
3509.98730	4.51557
3508.05874	4.56998
3506.13018	4.61875
3504.20161	4.66041
3502.27305	4.70593
3500.34448	4.75468
3498.41592	4.80009
3496.48735	4.84979
3494.55879	4.90588
3492.63022	4.95899
3490.70166	5.00435
3488.77310	5.04322
3486.84453	5.08410
3484.91597	5.13485
3482.98740	5.18584
3481.05884	5.23061
3479.13027	5.27661
3477.20171	5.32756
3475.27314	5.38010
3473.34458	5.42557
3471.41602	5.46422
3469.48745	5.50805
3467.55889	5.55788
3465.63032	5.61174
3463.70176	5.67625
3461.77319	5.73494
3459.84463	5.76979
3457.91606	5.80357
3455.98750	5.86297
3454.05894	5.93440
3452.13037	5.99001
3450.20181	6.03320
3448.27324	6.07888
3446.34468	6.12568
3444.41611	6.16906
3442.48755	6.21805
3440.55898	6.26852
3438.63042	6.30935
3436.70186	6.33600
3434.77329	6.36323
3432.84473	6.40945
3430.91616	6.47007
3428.98760	6.54709
3427.05903	6.61395
3425.13047	6.64607
3423.20190	6.67412
3421.27334	6.72504
3419.34478	6.78721
3417.41621	6.84272
3415.48765	6.87601
3413.55908	6.89914
3411.63052	6.94029
3409.70195	6.97332
3407.77339	7.01153
3405.84482	7.08782
3403.91626	7.16489
3401.98770	7.19989
3400.05913	7.23244
3398.13057	7.30466
3396.20200	7.38431
3394.27344	7.42468
3392.34487	7.40881
3390.41631	7.40424
3388.48774	7.43362
3386.55918	7.45393
3384.63062	7.46769
3382.70205	7.50554
3380.77349	7.55766
3378.84492	7.61013
3376.91636	7.67742
3374.98779	7.71469
3373.05923	7.71587
3371.13066	7.72471
3369.20210	7.72800
3367.27354	7.67457
3365.34497	7.63508
3363.41641	7.69858
3361.48784	7.79135
3359.55928	7.81430
3357.63071	7.78801
3355.70215	7.77426
3353.77358	7.75453
3351.84502	7.75480
3349.91646	7.80826
3347.98789	7.89404
3346.05933	7.99178
3344.13076	8.02835
3342.20220	7.98487
3340.27363	7.97967
3338.34507	8.05200
3336.41650	8.06206
3334.48794	7.97980
3332.55937	7.90506
3330.63081	7.89964
3328.70225	7.95561
3326.77368	8.03590
3324.84512	8.12528
3322.91655	8.16604
3320.98799	8.11623
3319.05942	8.04269
3317.13086	8.05859
3315.20229	8.13699
3313.27373	8.12089
3311.34517	7.97249
3309.41660	7.89876
3307.48804	8.00854
3305.55947	8.14855
3303.63091	8.15715
3301.70234	8.08227
3299.77378	8.08475
3297.84521	8.18186
3295.91665	8.26548
3293.98809	8.27856
3292.05952	8.20747
3290.13096	8.08473
3288.20239	8.06824
3286.27383	8.23730
3284.34526	8.41702
3282.41670	8.41942
3280.48813	8.29926
3278.55957	8.18462
3276.63101	8.11878
3274.70244	8.15969
3272.77388	8.23404
3270.84531	8.21157
3268.91675	8.18715
3266.98818	8.15524
3265.05962	8.13649
3263.13105	8.24028
3261.20249	8.27877
3259.27393	8.09902
3257.34536	8.00586
3255.41680	8.15663
3253.48823	8.34597
3251.55967	8.34519
3249.63110	8.27239
3247.70254	8.25564
3245.77397	8.28275
3243.84541	8.28966
3241.91685	8.17663
3239.98828	8.08219
3238.05972	8.09652
3236.13115	8.07785
3234.20259	7.99576
3232.27402	7.94144
3230.34546	7.93460
3228.41689	7.93913
3226.48833	7.96492
3224.55977	8.05783
3222.63120	8.17832
3220.70264	8.20028
3218.77407	8.11959
3216.84551	8.03417
3214.91694	7.94875
3212.98838	7.84701
3211.05981	7.79902
3209.13125	7.79356
3207.20269	7.75810
3205.27412	7.74255
3203.34556	7.75998
3201.41699	7.77831
3199.48843	7.78641
3197.55986	7.77102
3195.63130	7.76431
3193.70273	7.75377
3191.77417	7.68583
3189.84561	7.59086
3187.91704	7.53339
3185.98848	7.48977
3184.05991	7.41705
3182.13135	7.34284
3180.20278	7.28207
3178.27422	7.20938
3176.34565	7.14563
3174.41709	7.10816
3172.48853	7.04765
3170.55996	6.96437
3168.63140	6.90774
3166.70283	6.87508
3164.77427	6.82787
3162.84570	6.74328
3160.91714	6.64845
3158.98857	6.58395
3157.06001	6.53656
3155.13145	6.47670
3153.20288	6.41215
3151.27432	6.35962
3149.34575	6.31068
3147.41719	6.24873
3145.48862	6.17008
3143.56006	6.07982
3141.63149	5.99671
3139.70293	5.93252
3137.77437	5.87835
3135.84580	5.82203
3133.91724	5.75585
3131.98867	5.68418
3130.06011	5.61753
3128.13154	5.55108
3126.20298	5.47903
3124.27441	5.40825
3122.34585	5.33723
3120.41729	5.26203
3118.48872	5.18651
3116.56016	5.11344
3114.63159	5.04448
3112.70303	4.97964
3110.77446	4.91581
3108.84590	4.85022
3106.91733	4.78347
3104.98877	4.71542
3103.06021	4.64404
3101.13164	4.57298
3099.20308	4.50904
3097.27451	4.44986
3095.34595	4.39048
3093.41738	4.32958
3091.48882	4.26408
3089.56025	4.19608
3087.63169	4.13209
3085.70312	4.07149
3083.77456	4.01065
3081.84600	3.95159
3079.91743	3.89401
3077.98887	3.83388
3076.06030	3.77373
3074.13174	3.71657
3072.20317	3.65964
3070.27461	3.60179
3068.34604	3.54535
3066.41748	3.48973
3064.48892	3.43215
3062.56035	3.37433
3060.63179	3.32011
3058.70322	3.26959
3056.77466	3.21897
3054.84609	3.16510
3052.91753	3.11066
3050.98896	3.05922
3049.06040	3.00985
3047.13184	2.96071
3045.20327	2.91180
3043.27471	2.86330
3041.34614	2.81549
3039.41758	2.76879
3037.48901	2.72232
3035.56045	2.67645
3033.63188	2.63220
3031.70332	2.58887
3029.77476	2.54584
3027.84619	2.50269
3025.91763	2.45926
3023.98906	2.41642
3022.06050	2.37461
3020.13193	2.33316
3018.20337	2.29243
3016.27480	2.25306
3014.34624	2.21425
3012.41768	2.17530
3010.48911	2.13642
3008.56055	2.09857
3006.63198	2.06253
3004.70342	2.02766
3002.77485	1.99304
3000.84629	1.95884
2998.91772	1.92494
2996.98916	1.89150
2995.06060	1.85962
2993.13203	1.82902
2991.20347	1.79852
2989.27490	1.76802
2987.34634	1.73771
2985.41777	1.70818
2983.48921	1.67977
2981.56064	1.65191
2979.63208	1.62439
2977.70352	1.59732
2975.77495	1.57043
2973.84639	1.54403
2971.91782	1.51866
2969.98926	1.49360
2968.06069	1.46786
2966.13213	1.44221
2964.20356	1.41799
2962.27500	1.39455
2960.34644	1.37033
2958.41787	1.34554
2956.48931	1.32117
2954.56074	1.29765
2952.63218	1.27481
2950.70361	1.25199
2948.77505	1.22909
2946.84648	1.20603
2944.91792	1.18315
2942.98936	1.16147
2941.06079	1.14072
2939.13223	1.11956
2937.20366	1.09778
2935.27510	1.07629
2933.34653	1.05583
2931.41797	1.03658
2929.48940	1.01773
2927.56084	0.99851
2925.63228	0.97963
2923.70371	0.96177
2921.77515	0.94430
2919.84658	0.92637
2917.91802	0.90816
2915.98945	0.89074
2914.06089	0.87492
2912.13232	0.86041
2910.20376	0.84638
2908.27520	0.83226
2906.34663	0.81819
2904.41807	0.80451
2902.48950	0.79102
2900.56094	0.77773
2898.63237	0.76483
2896.70381	0.75197
2894.77524	0.73927
2892.84668	0.72720
2890.91812	0.71537
2888.98955	0.70375
2887.06099	0.69276
2885.13242	0.68234
2883.20386	0.67233
2881.27529	0.66244
2879.34673	0.65247
2877.41816	0.64255
2875.48960	0.63263
2873.56104	0.62239
2871.63247	0.61163
2869.70391	0.60043
2867.77534	0.58920
2865.84678	0.57800
2863.91821	0.56652
2861.98965	0.55498
2860.06108	0.54394
2858.13252	0.53349
2856.20396	0.52344
2854.27539	0.51373
2852.34683	0.50442
2850.41826	0.49553
2848.48970	0.48688
2846.56113	0.47884
2844.63257	0.47219
2842.70400	0.46664
2840.77544	0.46138
2838.84687	0.45608
2836.91831	0.45065
2834.98975	0.44488
2833.06118	0.43898
2831.13262	0.43326
2829.20405	0.42763
2827.27549	0.42193
2825.34692	0.41614
2823.41836	0.41020
2821.48979	0.40420
2819.56123	0.39833
2817.63267	0.39267
2815.70410	0.38710
2813.77554	0.38151
2811.84697	0.37594
2809.91841	0.37050
2807.98984	0.36518
2806.06128	0.35992
2804.13271	0.35490
2802.20415	0.35011
2800.27559	0.34523
2798.34702	0.34029
2796.41846	0.33539
2794.48989	0.33049
2792.56133	0.32572
2790.63276	0.32126
2788.70420	0.31697
2786.77563	0.31267
2784.84707	0.30840
2782.91851	0.30407
2780.98994	0.29962
2779.06138	0.29536
2777.13281	0.29160
2775.20425	0.28813
2773.27568	0.28453
2771.34712	0.28075
2769.41855	0.27702
2767.48999	0.27344
2765.56143	0.26999
2763.63286	0.26652
2761.70430	0.26312
2759.77573	0.25980
2757.84717	0.25644
2755.91860	0.25311
2753.99004	0.25002
2752.06147	0.24713
2750.13291	0.24426
2748.20435	0.24132
2746.27578	0.23838
2744.34722	0.23555
2742.41865	0.23279
2740.49009	0.23010
2738.56152	0.22754
2736.63296	0.22502
2734.70439	0.22246
2732.77583	0.21992
2730.84727	0.21750
2728.91870	0.21518
2726.99014	0.21297
2725.06157	0.21084
2723.13301	0.20866
2721.20444	0.20639
2719.27588	0.20425
2717.34731	0.20241
2715.41875	0.20062
2713.49019	0.19874
2711.56162	0.19683
2709.63306	0.19496
2707.70449	0.19316
2705.77593	0.19150
2703.84736	0.18992
2701.91880	0.18833
2699.99023	0.18679
2698.06167	0.18528
2696.13311	0.18391
2694.20454	0.18274
2692.27598	0.18146
2690.34741	0.18003
2688.41885	0.17876
2686.49028	0.17767
2684.56172	0.17659
2682.63315	0.17540
2680.70459	0.17411
2678.77603	0.17287
2676.84746	0.17180
2674.91890	0.17074
2672.99033	0.16957
2671.06177	0.16846
2669.13320	0.16743
2667.20464	0.16641
2665.27607	0.16543
2663.34751	0.16450
2661.41895	0.16362
2659.49038	0.16285
2657.56182	0.16218
2655.63325	0.16149
2653.70469	0.16079
2651.77612	0.16019
2649.84756	0.15964
2647.91899	0.15906
2645.99043	0.15840
2644.06187	0.15772
2642.13330	0.15710
2640.20474	0.15661
2638.27617	0.15616
2636.34761	0.15567
2634.41904	0.15516
2632.49048	0.15471
2630.56191	0.15429
2628.63335	0.15397
2626.70479	0.15380
2624.77622	0.15354
2622.84766	0.15317
2620.91909	0.15287
2618.99053	0.15269
2617.06196	0.15251
2615.13340	0.15215
2613.20483	0.15179
2611.27627	0.15170
2609.34771	0.15168
2607.41914	0.15153
2605.49058	0.15144
2603.56201	0.15147
2601.63345	0.15145
2599.70488	0.15131
2597.77632	0.15113
2595.84775	0.15101
2593.91919	0.15112
2591.99062	0.15144
2590.06206	0.15182
2588.13350	0.15207
2586.20493	0.15212
2584.27637	0.15228
2582.34780	0.15258
2580.41924	0.15283
2578.49067	0.15313
2576.56211	0.15341
2574.63354	0.15355
2572.70498	0.15373
2570.77642	0.15399
2568.84785	0.15431
2566.91929	0.15473
2564.99072	0.15520
2563.06216	0.15573
2561.13359	0.15621
2559.20503	0.15655
2557.27646	0.15687
2555.34790	0.15737
2553.41934	0.15799
2551.49077	0.15850
2549.56221	0.15889
2547.63364	0.15936
2545.70508	0.15996
2543.77651	0.16063
2541.84795	0.16134
2539.91938	0.16206
2537.99082	0.16275
2536.06226	0.16329
2534.13369	0.16370
2532.20513	0.16417
2530.27656	0.16485
2528.34800	0.16564
2526.41943	0.16637
2524.49087	0.16719
2522.56230	0.16810
2520.63374	0.16888
2518.70518	0.16959
2516.77661	0.17036
2514.84805	0.17107
2512.91948	0.17178
2510.99092	0.17257
2509.06235	0.17343
2507.13379	0.17427
2505.20522	0.17515
2503.27666	0.17603
2501.34810	0.17681
2499.41953	0.17750
2497.49097	0.17820
2495.56240	0.17900
2493.63384	0.17982
2491.70527	0.18062
2489.77671	0.18152
2487.84814	0.18248
2485.91958	0.18337
2483.99102	0.18425
2482.06245	0.18519
2480.13389	0.18616
2478.20532	0.18712
2476.27676	0.18798
2474.34819	0.18873
2472.41963	0.18951
2470.49106	0.19042
2468.56250	0.19144
2466.63394	0.19245
2464.70537	0.19327
2462.77681	0.19401
2460.84824	0.19491
2458.91968	0.19595
2456.99111	0.19694
2455.06255	0.19781
2453.13398	0.19868
2451.20542	0.19968
2449.27686	0.20082
2447.34829	0.20200
2445.41973	0.20296
2443.49116	0.20381
2441.56260	0.20476
2439.63403	0.20580
2437.70547	0.20679
2435.77690	0.20774
2433.84834	0.20871
2431.91978	0.20978
2429.99121	0.21088
2428.06265	0.21201
2426.13408	0.21321
2424.20552	0.21434
2422.27695	0.21533
2420.34839	0.21632
2418.41982	0.21744
2416.49126	0.21869
2414.56270	0.21994
2412.63413	0.22103
2410.70557	0.22207
2408.77700	0.22319
2406.84844	0.22431
2404.91987	0.22544
2402.99131	0.22669
2401.06274	0.22804
2399.13418	0.22930
2397.20562	0.23044
2395.27705	0.23161
2393.34849	0.23285
2391.41992	0.23405
2389.49136	0.23516
2387.56279	0.23615
2385.63423	0.23694
2383.70566	0.23751
2381.77710	0.23777
2379.84854	0.23764
2377.91997	0.23711
2375.99141	0.23622
2374.06284	0.23493
2372.13428	0.23324
2370.20571	0.23163
2368.27715	0.23033
2366.34858	0.22927
2364.42002	0.22874
2362.49146	0.22865
2360.56289	0.22892
2358.63433	0.23091
2356.70576	0.23459
2354.77720	0.23918
2352.84863	0.24504
2350.92007	0.25044
2348.99150	0.25327
2347.06294	0.25365
2345.13437	0.25238
2343.20581	0.25080
2341.27725	0.25093
2339.34868	0.25293
2337.42012	0.25552
2335.49155	0.25814
2333.56299	0.26045
2331.63442	0.26254
2329.70586	0.26482
2327.77729	0.26719
2325.84873	0.26957
2323.92017	0.27232
2321.99160	0.27569
2320.06304	0.27935
2318.13447	0.28268
2316.20591	0.28535
2314.27734	0.28754
2312.34878	0.28958
2310.42021	0.29200
2308.49165	0.29485
2306.56309	0.29768
2304.63452	0.30027
2302.70596	0.30254
2300.77739	0.30460
2298.84883	0.30678
2296.92026	0.30910
2294.99170	0.31134
2293.06313	0.31348
2291.13457	0.31567
2289.20601	0.31808
2287.27744	0.32055
2285.34888	0.32289
2283.42031	0.32505
2281.49175	0.32707
2279.56318	0.32904
2277.63462	0.33101
2275.70605	0.33301
2273.77749	0.33503
2271.84893	0.33698
2269.92036	0.33890
2267.99180	0.34092
2266.06323	0.34309
2264.13467	0.34541
2262.20610	0.34789
2260.27754	0.35030
2258.34897	0.35257
2256.42041	0.35474
2254.49185	0.35692
2252.56328	0.35913
2250.63472	0.36134
2248.70615	0.36356
2246.77759	0.36573
2244.84902	0.36777
2242.92046	0.36989
2240.99189	0.37226
2239.06333	0.37471
2237.13477	0.37704
2235.20620	0.37928
2233.27764	0.38150
2231.34907	0.38363
2229.42051	0.38576
2227.49194	0.38806
2225.56338	0.39046
2223.63481	0.39277
2221.70625	0.39498
2219.77769	0.39719
2217.84912	0.39938
2215.92056	0.40154
2213.99199	0.40371
2212.06343	0.40580
2210.13486	0.40780
2208.20630	0.40982
2206.27773	0.41193
2204.34917	0.41418
2202.42061	0.41652
2200.49204	0.41865
2198.56348	0.42044
2196.63491	0.42230
2194.70635	0.42445
2192.77778	0.42662
2190.84922	0.42851
2188.92065	0.43028
2186.99209	0.43218
2185.06353	0.43409
2183.13496	0.43575
2181.20640	0.43725
2179.27783	0.43885
2177.34927	0.44054
2175.42070	0.44212
2173.49214	0.44360
2171.56357	0.44510
2169.63501	0.44665
2167.70645	0.44809
2165.77788	0.44932
2163.84932	0.45044
2161.92075	0.45155
2159.99219	0.45276
2158.06362	0.45393
2156.13506	0.45484
2154.20649	0.45562
2152.27793	0.45648
2150.34937	0.45730
2148.42080	0.45800
2146.49224	0.45865
2144.56367	0.45920
2142.63511	0.45962
2140.70654	0.45990
2138.77798	0.46014
2136.84941	0.46040
2134.92085	0.46050
2132.99229	0.46040
2131.06372	0.46035
2129.13516	0.46030
2127.20659	0.46004
2125.27803	0.45967
2123.34946	0.45940
2121.42090	0.45913
2119.49233	0.45860
2117.56377	0.45781
2115.63521	0.45698
2113.70664	0.45621
2111.77808	0.45543
2109.84951	0.45455
2107.92095	0.45363
2105.99238	0.45264
2104.06382	0.45150
2102.13525	0.45016
2100.20669	0.44870
2098.27812	0.44720
2096.34956	0.44574
2094.42100	0.44430
2092.49243	0.44273
2090.56387	0.44097
2088.63530	0.43915
2086.70674	0.43742
2084.77817	0.43574
2082.84961	0.43392
2080.92104	0.43186
2078.99248	0.42970
2077.06392	0.42764
2075.13535	0.42559
2073.20679	0.42334
2071.27822	0.42101
2069.34966	0.41877
2067.42109	0.41651
2065.49253	0.41419
2063.56396	0.41185
2061.63540	0.40950
2059.70684	0.40714
2057.77827	0.40465
2055.84971	0.40199
2053.92114	0.39935
2051.99258	0.39678
2050.06401	0.39407
2048.13545	0.39133
2046.20688	0.38870
2044.27832	0.38605
2042.34976	0.38332
2040.42119	0.38060
2038.49263	0.37793
2036.56406	0.37525
2034.63550	0.37242
2032.70693	0.36953
2030.77837	0.36680
2028.84980	0.36410
2026.92124	0.36132
2024.99268	0.35848
2023.06411	0.35564
2021.13555	0.35278
2019.20698	0.34994
2017.27842	0.34717
2015.34985	0.34445
2013.42129	0.34174
2011.49272	0.33897
2009.56416	0.33617
2007.63560	0.33344
2005.70703	0.33075
2003.77847	0.32799
2001.84990	0.32519
1999.92134	0.32247
1997.99277	0.31986
1996.06421	0.31734
1994.13564	0.31482
1992.20708	0.31224
1990.27852	0.30969
1988.34995	0.30727
1986.42139	0.30492
1984.49282	0.30256
1982.56426	0.30017
1980.63569	0.29774
1978.70713	0.29537
1976.77856	0.29312
1974.85000	0.29086
1972.92144	0.28858
1970.99287	0.28640
1969.06431	0.28430
1967.13574	0.28218
1965.20718	0.28009
1963.27861	0.27814
1961.35005	0.27625
1959.42148	0.27436
1957.49292	0.27248
1955.56436	0.27066
1953.63579	0.26897
1951.70723	0.26731
1949.77866	0.26564
1947.85010	0.26396
1945.92153	0.26232
1943.99297	0.26076
1942.06440	0.25930
1940.13584	0.25787
1938.20728	0.25647
1936.27871	0.25501
1934.35015	0.25361
1932.42158	0.25242
1930.49302	0.25125
1928.56445	0.24998
1926.63589	0.24866
1924.70732	0.24746
1922.77876	0.24644
1920.85020	0.24554
1918.92163	0.24467
1916.99307	0.24383
1915.06450	0.24298
1913.13594	0.24210
1911.20737	0.24131
1909.27881	0.24058
1907.35024	0.23991
1905.42168	0.23929
1903.49312	0.23869
1901.56455	0.23818
1899.63599	0.23774
1897.70742	0.23731
1895.77886	0.23684
1893.85029	0.23637
1891.92173	0.23592
1889.99316	0.23563
1888.06460	0.23545
1886.13604	0.23523
1884.20747	0.23493
1882.27891	0.23467
1880.35034	0.23456
1878.42178	0.23454
1876.49321	0.23456
1874.56465	0.23457
1872.63608	0.23457
1870.70752	0.23452
1868.77896	0.23466
1866.85039	0.23499
1864.92183	0.23520
1862.99326	0.23540
1861.06470	0.23572
1859.13613	0.23611
1857.20757	0.23647
1855.27900	0.23688
1853.35044	0.23733
1851.42187	0.23785
1849.49331	0.23837
1847.56475	0.23885
1845.63618	0.23946
1843.70762	0.24045
1841.77905	0.24145
1839.85049	0.24203
1837.92192	0.24276
1835.99336	0.24371
1834.06479	0.24462
1832.13623	0.24539
1830.20767	0.24654
1828.27910	0.24812
1826.35054	0.24936
1824.42197	0.25069
1822.49341	0.25216
1820.56484	0.25353
1818.63628	0.25487
1816.70771	0.25642
1814.77915	0.25799
1812.85059	0.25958
1810.92202	0.26142
1808.99346	0.26351
1807.06489	0.26561
1805.13633	0.26758
1803.20776	0.26965
1801.27920	0.27204
1799.35063	0.27486
1797.42207	0.27744
1795.49351	0.27973
1793.56494	0.28232
1791.63638	0.28599
1789.70781	0.28987
1787.77925	0.29268
1785.85068	0.29570
1783.92212	0.29933
1781.99355	0.30322
1780.06499	0.30735
1778.13643	0.31168
1776.20786	0.31562
1774.27930	0.31956
1772.35073	0.32504
1770.42217	0.33159
1768.49360	0.33731
1766.56504	0.34275
1764.63647	0.34805
1762.70791	0.35362
1760.77935	0.36087
1758.85078	0.36791
1756.92222	0.37500
1754.99365	0.38280
1753.06509	0.38960
1751.13652	0.39719
1749.20796	0.40707
1747.27939	0.41758
1745.35083	0.42700
1743.42227	0.43657
1741.49370	0.44689
1739.56514	0.45921
1737.63657	0.47166
1735.70801	0.48223
1733.77944	0.49827
1731.85088	0.51832
1729.92231	0.53425
1727.99375	0.55035
1726.06519	0.56737
1724.13662	0.58586
1722.20806	0.60598
1720.27949	0.62411
1718.35093	0.64456
1716.42236	0.67622
1714.49380	0.70780
1712.56523	0.73322
1710.63667	0.75739
1708.70811	0.78297
1706.77954	0.81191
1704.85098	0.84695
1702.92241	0.87794
1700.99385	0.90734
1699.06528	0.95220
1697.13672	0.99500
1695.20815	1.04002
1693.27959	1.08358
1691.35103	1.11773
1689.42246	1.15706
1687.49390	1.19867
1685.56533	1.23783
1683.63677	1.30054
1681.70820	1.36813
1679.77964	1.41020
1677.85107	1.44998
1675.92251	1.49530
1673.99395	1.55196
1672.06538	1.60295
1670.13682	1.65323
1668.20825	1.72093
1666.27969	1.77589
1664.35112	1.82206
1662.42256	1.88108
1660.49399	1.94915
1658.56543	2.00023
1656.63687	2.04018
1654.70830	2.07607
1652.77974	2.13533
1650.85117	2.19462
1648.92261	2.21285
1646.99404	2.23693
1645.06548	2.26682
1643.13691	2.28837
1641.20835	2.29953
1639.27979	2.30856
1637.35122	2.31257
1635.42266	2.31095
1633.49409	2.30481
1631.56553	2.29181
1629.63696	2.27505
1627.70840	2.24633
1625.77983	2.21262
1623.85127	2.16959
1621.92271	2.11732
1619.99414	2.07143
1618.06558	2.02690
1616.13701	1.96294
1614.20845	1.89796
1612.27988	1.84842
1610.35132	1.79616
1608.42275	1.73994
1606.49419	1.68477
1604.56562	1.63358
1602.63706	1.58383
1600.70850	1.53592
1598.77993	1.49251
1596.85137	1.45138
1594.92280	1.41080
1592.99424	1.37207
1591.06567	1.33756
1589.13711	1.30535
1587.20854	1.27522
1585.27998	1.24755
1583.35142	1.22194
1581.42285	1.19853
1579.49429	1.17845
1577.56572	1.16091
1575.63716	1.14058
1573.70859	1.12329
1571.78003	1.11216
1569.85146	1.10072
1567.92290	1.08868
1565.99434	1.08051
1564.06577	1.07478
1562.13721	1.07031
1560.20864	1.06751
1558.28008	1.06759
1556.35151	1.06989
1554.42295	1.07072
1552.49438	1.07140
1550.56582	1.07080
1548.63726	1.06781
1546.70869	1.06246
1544.78013	1.05408
1542.85156	1.04211
1540.92300	1.02346
1538.99443	0.99472
1537.06587	0.97556
1535.13730	0.96280
1533.20874	0.94496
1531.28018	0.92567
1529.35161	0.91169
1527.42305	0.89810
1525.49448	0.88347
1523.56592	0.87100
1521.63735	0.85981
1519.70879	0.84917
1517.78022	0.83996
1515.85166	0.82889
1513.92310	0.81765
1511.99453	0.80776
1510.06597	0.79802
1508.13740	0.78782
1506.20884	0.77318
1504.28027	0.76235
1502.35171	0.75634
1500.42314	0.75050
1498.49458	0.74393
1496.56602	0.73643
1494.63745	0.72937
1492.70889	0.72376
1490.78032	0.71830
1488.85176	0.71208
1486.92319	0.70700
1484.99463	0.70328
1483.06606	0.70007
1481.13750	0.69717
1479.20894	0.69485
1477.28037	0.69320
1475.35181	0.69190
1473.42324	0.69089
1471.49468	0.68973
1469.56611	0.68778
1467.63755	0.68529
1465.70898	0.68306
1463.78042	0.68174
1461.85186	0.68082
1459.92329	0.67977
1457.99473	0.67886
1456.06616	0.67827
1454.13760	0.67687
1452.20903	0.67486
1450.28047	0.67267
1448.35190	0.67056
1446.42334	0.66843
1444.49478	0.66630
1442.56621	0.66415
1440.63765	0.66169
1438.70908	0.65885
1436.78052	0.65546
1434.85195	0.65205
1432.92339	0.64950
1430.99482	0.64776
1429.06626	0.64684
1427.13770	0.64656
1425.20913	0.64661
1423.28057	0.64700
1421.35200	0.64731
1419.42344	0.64735
1417.49487	0.64713
1415.56631	0.64630
1413.63774	0.64555
1411.70918	0.64550
1409.78062	0.64626
1407.85205	0.64748
1405.92349	0.64898
1403.99492	0.65047
1402.06636	0.65098
1400.13779	0.65025
1398.20923	0.64856
1396.28066	0.64609
1394.35210	0.64270
1392.42354	0.63880
1390.49497	0.63504
1388.56641	0.63116
1386.63784	0.62663
1384.70928	0.62176
1382.78071	0.61711
1380.85215	0.61273
1378.92358	0.60891
1376.99502	0.60595
1375.06646	0.60387
1373.13789	0.60254
1371.20933	0.60162
1369.28076	0.60067
1367.35220	0.59938
1365.42363	0.59773
1363.49507	0.59614
1361.56650	0.59491
1359.63794	0.59374
1357.70937	0.59243
1355.78081	0.59119
1353.85225	0.59017
1351.92368	0.58938
1349.99512	0.58878
1348.06655	0.58825
1346.13799	0.58761
1344.20942	0.58685
1342.28086	0.58599
1340.35229	0.58514
1338.42373	0.58446
1336.49517	0.58401
1334.56660	0.58372
1332.63804	0.58362
1330.70947	0.58373
1328.78091	0.58398
1326.85234	0.58442
1324.92378	0.58501
1322.99521	0.58552
1321.06665	0.58585
1319.13809	0.58615
1317.20952	0.58636
1315.28096	0.58638
1313.35239	0.58627
1311.42383	0.58592
1309.49526	0.58528
1307.56670	0.58461
1305.63813	0.58410
1303.70957	0.58361
1301.78101	0.58305
1299.85244	0.58228
1297.92388	0.58119
1295.99531	0.57995
1294.06675	0.57885
1292.13818	0.57778
1290.20962	0.57651
1288.28105	0.57516
1286.35249	0.57384
1284.42393	0.57259
1282.49536	0.57133
1280.56680	0.57001
1278.63823	0.56868
1276.70967	0.56751
1274.78110	0.56657
1272.85254	0.56572
1270.92397	0.56492
1268.99541	0.56415
1267.06685	0.56337
1265.13828	0.56264
1263.20972	0.56197
1261.28115	0.56138
1259.35259	0.56090
1257.42402	0.56050
1255.49546	0.56018
1253.56689	0.55999
1251.63833	0.55999
1249.70977	0.56023
1247.78120	0.56051
1245.85264	0.56052
1243.92407	0.56018
1241.99551	0.55951
1240.06694	0.55838
1238.13838	0.55671
1236.20981	0.55469
1234.28125	0.55259
1232.35269	0.55059
1230.42412	0.54875
1228.49556	0.54700
1226.56699	0.54523
1224.63843	0.54347
1222.70986	0.54182
1220.78130	0.54029
1218.85273	0.53895
1216.92417	0.53785
1214.99561	0.53693
1213.06704	0.53606
1211.13848	0.53524
1209.20991	0.53457
1207.28135	0.53390
1205.35278	0.53306
1203.42422	0.53206
1201.49565	0.53108
1199.56709	0.53019
1197.63853	0.52936
1195.70996	0.52878
1193.78140	0.52842
1191.85283	0.52801
1189.92427	0.52752
1187.99570	0.52712
1186.06714	0.52699
1184.13857	0.52708
1182.21001	0.52729
1180.28145	0.52779
1178.35288	0.52878
1176.42432	0.53015
1174.49575	0.53144
1172.56719	0.53209
1170.63862	0.53210
1168.71006	0.53189
1166.78149	0.53158
1164.85293	0.53126
1162.92437	0.53099
1160.99580	0.53049
1159.06724	0.52968
1157.13867	0.52875
1155.21011	0.52775
1153.28154	0.52650
1151.35298	0.52478
1149.42441	0.52256
1147.49585	0.52010
1145.56729	0.51762
1143.63872	0.51520
1141.71016	0.51289
1139.78159	0.51085
1137.85303	0.50920
1135.92446	0.50774
1133.99590	0.50640
1132.06733	0.50527
1130.13877	0.50436
1128.21021	0.50349
1126.28164	0.50258
1124.35308	0.50162
1122.42451	0.50068
1120.49595	0.49997
1118.56738	0.49964
1116.63882	0.49964
1114.71025	0.49988
1112.78169	0.50024
1110.85312	0.50067
1108.92456	0.50150
1106.99600	0.50272
1105.06743	0.50395
1103.13887	0.50533
1101.21030	0.50711
1099.28174	0.50917
1097.35317	0.51160
1095.42461	0.51459
1093.49604	0.51827
1091.56748	0.52257
1089.63892	0.52735
1087.71035	0.53272
1085.78179	0.53876
1083.85322	0.54517
1081.92466	0.55138
1079.99609	0.55659
1078.06753	0.55987
1076.13896	0.56044
1074.21040	0.55822
1072.28184	0.55383
1070.35327	0.54798
1068.42471	0.54139
1066.49614	0.53482
1064.56758	0.52859
1062.63901	0.52282
1060.71045	0.51762
1058.78188	0.51309
1056.85332	0.50910
1054.92476	0.50548
1052.99619	0.50217
1051.06763	0.49924
1049.13906	0.49679
1047.21050	0.49471
1045.28193	0.49295
1043.35337	0.49142
1041.42480	0.48996
1039.49624	0.48872
1037.56768	0.48798
1035.63911	0.48758
1033.71055	0.48726
1031.78198	0.48694
1029.85342	0.48669
1027.92485	0.48651
1025.99629	0.48645
1024.06772	0.48666
1022.13916	0.48703
1020.21060	0.48736
1018.28203	0.48784
1016.35347	0.48863
1014.42490	0.48957
1012.49634	0.49043
1010.56777	0.49132
1008.63921	0.49231
1006.71064	0.49360
1004.78208	0.49551
1002.85352	0.49795
1000.92495	0.50073
998.99639	0.50399
997.06782	0.50772
995.13926	0.51168
993.21069	0.51566
991.28213	0.51930
989.35356	0.52197
987.42500	0.52343
985.49644	0.52414
983.56787	0.52471
981.63931	0.52560
979.71074	0.52692
977.78218	0.52871
975.85361	0.53092
973.92505	0.53349
971.99648	0.53634
970.06792	0.53950
968.13936	0.54300
966.21079	0.54684
964.28223	0.55105
962.35366	0.55560
960.42510	0.56049
958.49653	0.56590
956.56797	0.57189
954.63940	0.57816
952.71084	0.58443
950.78228	0.59081
948.85371	0.59726
946.92515	0.60348
944.99658	0.60951
943.06802	0.61559
941.13945	0.62168
939.21089	0.62759
937.28232	0.63321
935.35376	0.63862
933.42520	0.64403
931.49663	0.64934
929.56807	0.65461
927.63950	0.66047
925.71094	0.66695
923.78237	0.67316
921.85381	0.67930
919.92524	0.68591
917.99668	0.69275
916.06812	0.69997
914.13955	0.70794
912.21099	0.71638
910.28242	0.72493
908.35386	0.73360
906.42529	0.74216
904.49673	0.75026
902.56816	0.75852
900.63960	0.76711
898.71104	0.77542
896.78247	0.78448
894.85391	0.79538
892.92534	0.80673
890.99678	0.81718
889.06821	0.82724
887.13965	0.83798
885.21108	0.84942
883.28252	0.86054
881.35396	0.87152
879.42539	0.88315
877.49683	0.89494
875.56826	0.90738
873.63970	0.92021
871.71113	0.93140
869.78257	0.94179
867.85400	0.95302
865.92544	0.96439
863.99687	0.97616
862.06831	0.98794
860.13975	0.99819
858.21118	1.00906
856.28262	1.02120
854.35405	1.03186
852.42549	1.04222
850.49692	1.05409
848.56836	1.06674
846.63979	1.08036
844.71123	1.09296
842.78267	1.10271
840.85410	1.11371
838.92554	1.12772
836.99697	1.14094
835.06841	1.15201
833.13984	1.16321
831.21128	1.17571
829.28271	1.18820
827.35415	1.20003
825.42559	1.20997
823.49702	1.21989
821.56846	1.23545
819.63989	1.25302
817.71133	1.26470
815.78276	1.27049
813.85420	1.27689
811.92563	1.29353
809.99707	1.30951
808.06851	1.30685
806.13994	1.30869
804.21138	1.33160
802.28281	1.34671
800.35425	1.33777
798.42568	1.33243
796.49712	1.35011
794.56855	1.37413
792.63999	1.36737
790.71143	1.34163
788.78286	1.33869
786.85430	1.36480
784.92573	1.41680
782.99717	1.44796
781.06860	1.40861
779.14004	1.36732
777.21147	1.39389
775.28291	1.49026
773.35435	1.59648
771.42578	1.56578
769.49722	1.45487
767.56865	1.44716
765.64009	1.46954
763.71152	1.43085
761.78296	1.43461
759.85439	1.50263
757.92583	1.53291
755.99727	1.46006
754.06870	1.44744
752.14014	1.60619
750.21157	1.68902
748.28301	1.64503
746.35444	2.01347
744.42588	1.98923
742.49731	1.42526
740.56875	1.20885
738.64019	1.13906
736.71162	1.17354
734.78306	1.28301
732.85449	4.39713
730.92593	1.61455
728.99736	0.70371
727.06880	0.44772
725.14023	0.38955
723.21167	0.42873
721.28311	0.57446
719.35454	0.45454
717.42598	0.15264
715.49741	0.09890
713.56885	0.21397
711.64028	0.37253
709.71172	0.51619
707.78315	0.71680
705.85459	4.23513
703.92603	4.22356
701.99746	4.21198
700.06890	0.93069
698.14033	0.53663
696.21177	0.36521
694.28320	0.29250
692.35464	0.30340
690.42607	0.38135
688.49751	0.38875
686.56895	0.34093
684.64038	0.41359
682.71182	0.59566
680.78325	0.61123
678.85469	0.46820
676.92612	0.38073
674.99756	0.41266
673.06899	0.55766
671.14043	0.46633
669.21187	0.35451
667.28330	0.42851
665.35474	0.52099
663.42617	0.43512
661.49761	0.43897
659.56904	0.50482
657.64048	0.39198
655.71191	0.30943
653.78335	0.39972
651.85479	0.78876
649.92622	3.89956
647.99766	0.63732
646.06909	0.27695
644.14053	0.20514
642.21196	0.21198
640.28340	0.24409
638.35483	0.26503
636.42627	0.24964
634.49771	0.26244
632.56914	0.29762
630.64058	0.29982
628.71201	0.29934
626.78345	0.37340
624.85488	0.54529
622.92632	0.66269
620.99775	0.56806
619.06919	0.42650
617.14062	0.31926
615.21206	0.23455
613.28350	0.18670
611.35493	0.19725
609.42637	0.25225
607.49780	0.30488
605.56924	0.31789
603.64067	0.36386
601.71211	0.50054
599.78354	0.59941
597.85498	0.54980
595.92642	0.46628
593.99785	0.41480
592.06929	0.41069
590.14072	0.42441
588.21216	0.47782
586.28359	0.60856
584.35503	0.65718
582.42646	0.52746
580.49790	0.46798
578.56934	0.45365
576.64077	0.39776
574.71221	0.35143
572.78364	0.34517
570.85508	0.36020
568.92651	0.33451
566.99795	0.23616
565.06938	0.19913
563.14082	0.26665
561.21226	0.34437
559.28369	0.34825
557.35513	0.30288
555.42656	0.27923
553.49800	0.26797
551.56943	0.24161
549.64087	0.23970
547.71230	0.30788
545.78374	0.42831
543.85518	0.49707
541.92661	0.53501
539.99805	0.56108
538.06948	0.47606
536.14092	0.41921
534.21235	0.46242
532.28379	0.51907
530.35522	0.43762
528.42666	0.33577
526.49810	0.25994
524.56953	0.22418
522.64097	0.26277
520.71240	0.35787
518.78384	0.47635
516.85527	0.53519
514.92671	0.38844
512.99814	0.26685
511.06958	0.25220
509.14102	0.33126
507.21245	0.43486
505.28389	0.36722
503.35532	0.24063
501.42676	0.23902
499.49819	0.37454
