3997.91411	0.06727
3995.98555	0.06741
3994.05698	0.06775
3992.12842	0.06788
3990.19985	0.06810
3988.27129	0.06878
3986.34272	0.06953
3984.41416	0.06996
3982.48560	0.07013
3980.55703	0.07011
3978.62847	0.07004
3976.69990	0.07026
3974.77134	0.07052
3972.84277	0.07053
3970.91421	0.07048
3968.98564	0.07066
3967.05708	0.07104
3965.12852	0.07116
3963.19995	0.07103
3961.27139	0.07113
3959.34282	0.07138
3957.41426	0.07133
3955.48569	0.07121
3953.55713	0.07126
3951.62856	0.07125
3949.70000	0.07131
3947.77144	0.07185
3945.84287	0.07217
3943.91431	0.07194
3941.98574	0.07199
3940.05718	0.07212
3938.12861	0.07196
3936.20005	0.07193
3934.27148	0.07188
3932.34292	0.07178
3930.41436	0.07167
3928.48579	0.07154
3926.55723	0.07159
3924.62866	0.07176
3922.70010	0.07184
3920.77153	0.07174
3918.84297	0.07164
3916.91440	0.07152
3914.98584	0.07136
3913.05728	0.07145
3911.12871	0.07159
3909.20015	0.07117
3907.27158	0.07025
3905.34302	0.06962
3903.41445	0.07005
3901.48589	0.07107
3899.55732	0.07142
3897.62876	0.07119
3895.70020	0.07096
3893.77163	0.07109
3891.84307	0.07162
3889.91450	0.07161
3887.98594	0.07059
3886.05737	0.07014
3884.12881	0.07100
3882.20024	0.07197
3880.27168	0.07254
3878.34312	0.07270
3876.41455	0.07235
3874.48599	0.07224
3872.55742	0.07247
3870.62886	0.07262
3868.70029	0.07311
3866.77173	0.07375
3864.84316	0.07424
3862.91460	0.07466
3860.98604	0.07439
3859.05747	0.07386
3857.12891	0.07376
3855.20034	0.07429
3853.27178	0.07604
3851.34321	0.07794
3849.41465	0.07767
3847.48608	0.07702
3845.55752	0.07691
3843.62896	0.07737
3841.70039	0.07826
3839.77183	0.07922
3837.84326	0.08039
3835.91470	0.08152
3833.98613	0.08194
3832.05757	0.08214
3830.12900	0.08260
3828.20044	0.08314
3826.27187	0.08397
3824.34331	0.08502
3822.41475	0.08587
3820.48618	0.08730
3818.55762	0.08871
3816.62905	0.08935
3814.70049	0.09026
3812.77192	0.09092
3810.84336	0.09120
3808.91479	0.09169
3806.98623	0.09282
3805.05767	0.09416
3803.12910	0.09483
3801.20054	0.09611
3799.27197	0.09817
3797.34341	0.09901
3795.41484	0.09975
3793.48628	0.10095
3791.55771	0.10185
3789.62915	0.10270
3787.70059	0.10390
3785.77202	0.10543
3783.84346	0.10721
3781.91489	0.10894
3779.98633	0.11065
3778.05776	0.11255
3776.12920	0.11391
3774.20063	0.11490
3772.27207	0.11627
3770.34351	0.11829
3768.41494	0.12073
3766.48638	0.12278
3764.55781	0.12471
3762.62925	0.12656
3760.70068	0.12822
3758.77212	0.13068
3756.84355	0.13375
3754.91499	0.13596
3752.98643	0.13768
3751.05786	0.14034
3749.12930	0.14443
3747.20073	0.14719
3745.27217	0.14879
3743.34360	0.15195
3741.41504	0.15592
3739.48647	0.15873
3737.55791	0.16138
3735.62935	0.16539
3733.70078	0.17133
3731.77222	0.17685
3729.84365	0.18041
3727.91509	0.18326
3725.98652	0.18780
3724.05796	0.19461
3722.12939	0.20223
3720.20083	0.21037
3718.27227	0.21862
3716.34370	0.22641
3714.41514	0.23368
3712.48657	0.24207
3710.55801	0.25490
3708.62944	0.26991
3706.70088	0.28201
3704.77231	0.29294
3702.84375	0.30572
3700.91519	0.32294
3698.98662	0.34216
3697.05806	0.36011
3695.12949	0.37876
3693.20093	0.39807
3691.27236	0.41880
3689.34380	0.44721
3687.41523	0.48394
3685.48667	0.51582
3683.55811	0.54277
3681.62954	0.57095
3679.70098	0.60190
3677.77241	0.63417
3675.84385	0.67318
3673.91528	0.72844
3671.98672	0.77371
3670.05815	0.81290
3668.12959	0.86745
3666.20103	0.91678
3664.27246	0.95743
3662.34390	1.00104
3660.41533	1.04812
3658.48677	1.09426
3656.55820	1.14336
3654.62964	1.19862
3652.70107	1.24428
3650.77251	1.28273
3648.84395	1.33854
3646.91538	1.41158
3644.98682	1.46395
3643.05825	1.50320
3641.12969	1.54323
3639.20112	1.58724
3637.27256	1.63231
3635.34399	1.67612
3633.41543	1.71848
3631.48687	1.75748
3629.55830	1.79750
3627.62974	1.85288
3625.70117	1.90602
3623.77261	1.94101
3621.84404	1.97361
3619.91548	2.01080
3617.98691	2.05709
3616.05835	2.10219
3614.12979	2.13948
3612.20122	2.17939
3610.27266	2.21972
3608.34409	2.25982
3606.41553	2.30311
3604.48696	2.34384
3602.55840	2.37954
3600.62983	2.41652
3598.70127	2.45558
3596.77271	2.49444
3594.84414	2.53625
3592.91558	2.58113
3590.98701	2.62296
3589.05845	2.66007
3587.12988	2.70348
3585.20132	2.75197
3583.27275	2.79274
3581.34419	2.83068
3579.41562	2.87196
3577.48706	2.91552
3575.55850	2.95897
3573.62993	3.00316
3571.70137	3.04583
3569.77280	3.08581
3567.84424	3.12869
3565.91567	3.18388
3563.98711	3.23710
3562.05854	3.27729
3560.12998	3.31688
3558.20142	3.36088
3556.27285	3.40696
3554.34429	3.45128
3552.41572	3.49709
3550.48716	3.54558
3548.55859	3.59184
3546.63003	3.63825
3544.70146	3.68857
3542.77290	3.73662
3540.84434	3.78171
3538.91577	3.82894
3536.98721	3.87731
3535.05864	3.92725
3533.13008	3.97568
3531.20151	4.02086
3529.27295	4.06792
3527.34438	4.12098
3525.41582	4.17382
3523.48726	4.22085
3521.55869	4.26947
3519.63013	4.31828
3517.70156	4.36311
3515.77300	4.40890
3513.84443	4.45876
3511.91587	4.51095
3509.98730	4.56037
3508.05874	4.60579
3506.13018	4.65270
3504.20161	4.70311
3502.27305	4.75570
3500.34448	4.80692
3498.41592	4.85167
3496.48735	4.88991
3494.55879	4.93097
3492.63022	4.98263
3490.70166	5.03530
3488.77310	5.08154
3486.84453	5.12983
3484.91597	5.18454
3482.98740	5.23751
3481.05884	5.28266
3479.13027	5.32236
3477.20171	5.36756
3475.27314	5.42409
3473.34458	5.47979
3471.41602	5.52638
3469.48745	5.57427
3467.55889	5.62520
3465.63032	5.67260
3463.70176	5.71943
3461.77319	5.76256
3459.84463	5.79800
3457.91606	5.83294
3455.98750	5.87940
3454.05894	5.93582
3452.13037	6.00385
3450.20181	6.08610
3448.27324	6.15069
3446.34468	6.18594
3444.41611	6.22183
3442.48755	6.27454
3440.55898	6.32602
3438.63042	6.37228
3436.70186	6.42639
3434.77329	6.48425
3432.84473	6.54334
3430.91616	6.58827
3428.98760	6.60255
3427.05903	6.62425
3425.13047	6.70144
3423.20190	6.79181
3421.27334	6.84871
3419.34478	6.89635
3417.41621	6.94020
3415.48765	6.96881
3413.55908	6.99505
3411.63052	7.03914
3409.70195	7.08943
3407.77339	7.12989
3405.84482	7.18292
3403.91626	7.27748
3401.98770	7.36005
3400.05913	7.38450
3398.13057	7.39991
3396.20200	7.44931
3394.27344	7.51269
3392.34487	7.55026
3390.41631	7.56498
3388.48774	7.54727
3386.55918	7.55944
3384.63062	7.61777
3382.70205	7.64550
3380.77349	7.66583
3378.84492	7.72115
3376.91636	7.77740
3374.98779	7.79782
3373.05923	7.82861
3371.13066	7.84232
3369.20210	7.79915
3367.27354	7.76671
3365.34497	7.78181
3363.41641	7.81801
3361.48784	7.84257
3359.55928	7.86543
3357.63071	7.94084
3355.70215	8.09198
3353.77358	8.18674
3351.84502	8.15390
3349.91646	8.11614
3347.98789	8.14702
3346.05933	8.16383
3344.13076	8.13581
3342.20220	8.17086
3340.27363	8.24216
3338.34507	8.24596
3336.41650	8.21119
3334.48794	8.26874
3332.55937	8.38292
3330.63081	8.36627
3328.70225	8.24533
3326.77368	8.19157
3324.84512	8.20582
3322.91655	8.20232
3320.98799	8.23815
3319.05942	8.33400
3317.13086	8.35955
3315.20229	8.27723
3313.27373	8.24028
3311.34517	8.28200
3309.41660	8.28639
3307.48804	8.20832
3305.55947	8.13661
3303.63091	8.14543
3301.70234	8.18964
3299.77378	8.21699
3297.84521	8.22416
3295.91665	8.27835
3293.98809	8.34238
3292.05952	8.29698
3290.13096	8.19941
3288.20239	8.14768
3286.27383	8.18372
3284.34526	8.32367
3282.41670	8.43454
3280.48813	8.32251
3278.55957	8.19712
3276.63101	8.20018
3274.70244	8.24001
3272.77388	8.35690
3270.84531	8.51251
3268.91675	8.49728
3266.98818	8.32111
3265.05962	8.16331
3263.13105	8.14295
3261.20249	8.30763
3259.27393	8.52358
3257.34536	8.51178
3255.41680	8.33540
3253.48823	8.27899
3251.55967	8.31432
3249.63110	8.23580
3247.70254	8.13936
3245.77397	8.20437
3243.84541	8.34657
3241.91685	8.38102
3239.98828	8.30173
3238.05972	8.14401
3236.13115	8.02358
3234.20259	8.06515
3232.27402	8.15898
3230.34546	8.18670
3228.41689	8.25653
3226.48833	8.39878
3224.55977	8.42917
3222.63120	8.31630
3220.70264	8.25360
3218.77407	8.27181
3216.84551	8.24744
3214.91694	8.15179
3212.98838	8.02579
3211.05981	7.93543
3209.13125	7.93721
3207.20269	7.97084
3205.27412	7.95083
3203.34556	7.90471
3201.41699	7.92440
3199.48843	7.99724
3197.55986	7.95230
3195.63130	7.79192
3193.70273	7.70455
3191.77417	7.68183
3189.84561	7.62908
3187.91704	7.55009
3185.98848	7.46472
3184.05991	7.40290
3182.13135	7.37422
3180.20278	7.33062
3178.27422	7.26255
3176.34565	7.21297
3174.41709	7.18239
3172.48853	7.15738
3170.55996	7.11317
3168.63140	7.01513
3166.70283	6.91741
3164.77427	6.86319
3162.84570	6.81150
3160.91714	6.74454
3158.98857	6.69325
3157.06001	6.66000
3155.13145	6.60487
3153.20288	6.51700
3151.27432	6.43529
3149.34575	6.37152
3147.41719	6.30762
3145.48862	6.24853
3143.56006	6.19345
3141.63149	6.12152
3139.70293	6.03780
3137.77437	5.95625
3135.84580	5.87188
3133.91724	5.79240
3131.98867	5.72324
3130.06011	5.65543
3128.13154	5.59042
3126.20298	5.53106
3124.27441	5.47003
3122.34585	5.40112
3120.41729	5.33068
3118.48872	5.25940
3116.56016	5.18360
3114.63159	5.11044
3112.70303	5.04467
3110.77446	4.98044
3108.84590	4.91217
3106.91733	4.84252
3104.98877	4.77253
3103.06021	4.69996
3101.13164	4.62747
3099.20308	4.56079
3097.27451	4.49861
3095.34595	4.43354
3093.41738	4.36554
3091.48882	4.30265
3089.56025	4.24500
3087.63169	4.18378
3085.70312	4.11958
3083.77456	4.05849
3081.84600	3.99968
3079.91743	3.94032
3077.98887	3.88052
3076.06030	3.82151
3074.13174	3.76292
3072.20317	3.70352
3070.27461	3.64411
3068.34604	3.58698
3066.41748	3.53165
3064.48892	3.47686
3062.56035	3.42272
3060.63179	3.36929
3058.70322	3.31703
3056.77466	3.26476
3054.84609	3.21160
3052.91753	3.15852
3050.98896	3.10614
3049.06040	3.05581
3047.13184	3.00755
3045.20327	2.95845
3043.27471	2.90789
3041.34614	2.85809
3039.41758	2.80993
3037.48901	2.76358
3035.56045	2.71902
3033.63188	2.67467
3031.70332	2.62956
3029.77476	2.58497
3027.84619	2.54181
3025.91763	2.49954
3023.98906	2.45728
3022.06050	2.41476
3020.13193	2.37222
3018.20337	2.33033
3016.27480	2.29008
3014.34624	2.25134
3012.41768	2.21293
3010.48911	2.17454
3008.56055	2.13726
3006.63198	2.10126
3004.70342	2.06569
3002.77485	2.03070
3000.84629	1.99618
2998.91772	1.96158
2996.98916	1.92770
2995.06060	1.89537
2993.13203	1.86417
2991.20347	1.83351
2989.27490	1.80320
2987.34634	1.77343
2985.41777	1.74453
2983.48921	1.71629
2981.56064	1.68816
2979.63208	1.66042
2977.70352	1.63353
2975.77495	1.60726
2973.84639	1.58143
2971.91782	1.55599
2969.98926	1.53097
2968.06069	1.50657
2966.13213	1.48258
2964.20356	1.45857
2962.27500	1.43431
2960.34644	1.40990
2958.41787	1.38575
2956.48931	1.36182
2954.56074	1.33783
2952.63218	1.31393
2950.70361	1.29057
2948.77505	1.26783
2946.84648	1.24514
2944.91792	1.22244
2942.98936	1.20062
2941.06079	1.18020
2939.13223	1.16025
2937.20366	1.13970
2935.27510	1.11920
2933.34653	1.09942
2931.41797	1.07937
2929.48940	1.05872
2927.56084	1.03877
2925.63228	1.01995
2923.70371	1.00158
2921.77515	0.98341
2919.84658	0.96554
2917.91802	0.94794
2915.98945	0.93068
2914.06089	0.91408
2912.13232	0.89795
2910.20376	0.88209
2908.27520	0.86681
2906.34663	0.85205
2904.41807	0.83787
2902.48950	0.82418
2900.56094	0.81051
2898.63237	0.79711
2896.70381	0.78409
2894.77524	0.77118
2892.84668	0.75847
2890.91812	0.74620
2888.98955	0.73454
2887.06099	0.72323
2885.13242	0.71237
2883.20386	0.70221
2881.27529	0.69227
2879.34673	0.68218
2877.41816	0.67217
2875.48960	0.66243
2873.56104	0.65256
2871.63247	0.64202
2869.70391	0.63071
2867.77534	0.61890
2865.84678	0.60689
2863.91821	0.59484
2861.98965	0.58297
2860.06108	0.57157
2858.13252	0.56087
2856.20396	0.55091
2854.27539	0.54140
2852.34683	0.53214
2850.41826	0.52318
2848.48970	0.51442
2846.56113	0.50591
2844.63257	0.49812
2842.70400	0.49118
2840.77544	0.48476
2838.84687	0.47880
2836.91831	0.47332
2834.98975	0.46785
2833.06118	0.46201
2831.13262	0.45590
2829.20405	0.44975
2827.27549	0.44359
2825.34692	0.43739
2823.41836	0.43121
2821.48979	0.42517
2819.56123	0.41943
2817.63267	0.41375
2815.70410	0.40782
2813.77554	0.40183
2811.84697	0.39602
2809.91841	0.39040
2807.98984	0.38501
2806.06128	0.37967
2804.13271	0.37425
2802.20415	0.36896
2800.27559	0.36386
2798.34702	0.35887
2796.41846	0.35410
2794.48989	0.34951
2792.56133	0.34487
2790.63276	0.34016
2788.70420	0.33555
2786.77563	0.33112
2784.84707	0.32687
2782.91851	0.32259
2780.98994	0.31817
2779.06138	0.31384
2777.13281	0.30971
2775.20425	0.30563
2773.27568	0.30161
2771.34712	0.29775
2769.41855	0.29399
2767.48999	0.29025
2765.56143	0.28661
2763.63286	0.28308
2761.70430	0.27958
2759.77573	0.27612
2757.84717	0.27276
2755.91860	0.26947
2753.99004	0.26625
2752.06147	0.26313
2750.13291	0.26022
2748.20435	0.25736
2746.27578	0.25424
2744.34722	0.25110
2742.41865	0.24818
2740.49009	0.24537
2738.56152	0.24256
2736.63296	0.23989
2734.70439	0.23741
2732.77583	0.23496
2730.84727	0.23243
2728.91870	0.22992
2726.99014	0.22757
2725.06157	0.22533
2723.13301	0.22312
2721.20444	0.22090
2719.27588	0.21865
2717.34731	0.21644
2715.41875	0.21428
2713.49019	0.21224
2711.56162	0.21043
2709.63306	0.20874
2707.70449	0.20703
2705.77593	0.20541
2703.84736	0.20382
2701.91880	0.20212
2699.99023	0.20041
2698.06167	0.19886
2696.13311	0.19741
2694.20454	0.19596
2692.27598	0.19452
2690.34741	0.19308
2688.41885	0.19175
2686.49028	0.19057
2684.56172	0.18939
2682.63315	0.18804
2680.70459	0.18659
2678.77603	0.18526
2676.84746	0.18410
2674.91890	0.18305
2672.99033	0.18200
2671.06177	0.18091
2669.13320	0.17984
2667.20464	0.17886
2665.27607	0.17793
2663.34751	0.17697
2661.41895	0.17599
2659.49038	0.17507
2657.56182	0.17417
2655.63325	0.17323
2653.70469	0.17229
2651.77612	0.17145
2649.84756	0.17080
2647.91899	0.17022
2645.99043	0.16959
2644.06187	0.16902
2642.13330	0.16849
2640.20474	0.16797
2638.27617	0.16750
2636.34761	0.16697
2634.41904	0.16630
2632.49048	0.16575
2630.56191	0.16532
2628.63335	0.16479
2626.70479	0.16427
2624.77622	0.16391
2622.84766	0.16368
2620.91909	0.16345
2618.99053	0.16311
2617.06196	0.16277
2615.13340	0.16259
2613.20483	0.16251
2611.27627	0.16243
2609.34771	0.16222
2607.41914	0.16193
2605.49058	0.16170
2603.56201	0.16157
2601.63345	0.16146
2599.70488	0.16136
2597.77632	0.16135
2595.84775	0.16141
2593.91919	0.16143
2591.99062	0.16130
2590.06206	0.16117
2588.13350	0.16127
2586.20493	0.16155
2584.27637	0.16181
2582.34780	0.16197
2580.41924	0.16211
2578.49067	0.16236
2576.56211	0.16265
2574.63354	0.16291
2572.70498	0.16322
2570.77642	0.16356
2568.84785	0.16387
2566.91929	0.16410
2564.99072	0.16436
2563.06216	0.16474
2561.13359	0.16528
2559.20503	0.16586
2557.27646	0.16628
2555.34790	0.16660
2553.41934	0.16701
2551.49077	0.16748
2549.56221	0.16796
2547.63364	0.16847
2545.70508	0.16902
2543.77651	0.16965
2541.84795	0.17036
2539.91938	0.17106
2537.99082	0.17168
2536.06226	0.17222
2534.13369	0.17272
2532.20513	0.17326
2530.27656	0.17390
2528.34800	0.17457
2526.41943	0.17522
2524.49087	0.17589
2522.56230	0.17661
2520.63374	0.17738
2518.70518	0.17815
2516.77661	0.17890
2514.84805	0.17960
2512.91948	0.18027
2510.99092	0.18097
2509.06235	0.18178
2507.13379	0.18265
2505.20522	0.18345
2503.27666	0.18418
2501.34810	0.18496
2499.41953	0.18582
2497.49097	0.18668
2495.56240	0.18748
2493.63384	0.18828
2491.70527	0.18912
2489.77671	0.19000
2487.84814	0.19083
2485.91958	0.19159
2483.99102	0.19240
2482.06245	0.19332
2480.13389	0.19431
2478.20532	0.19526
2476.27676	0.19608
2474.34819	0.19686
2472.41963	0.19769
2470.49106	0.19859
2468.56250	0.19947
2466.63394	0.20032
2464.70537	0.20117
2462.77681	0.20204
2460.84824	0.20296
2458.91968	0.20388
2456.99111	0.20477
2455.06255	0.20572
2453.13398	0.20669
2451.20542	0.20762
2449.27686	0.20854
2447.34829	0.20953
2445.41973	0.21055
2443.49116	0.21154
2441.56260	0.21252
2439.63403	0.21352
2437.70547	0.21453
2435.77690	0.21546
2433.84834	0.21640
2431.91978	0.21747
2429.99121	0.21867
2428.06265	0.21983
2426.13408	0.22090
2424.20552	0.22198
2422.27695	0.22311
2420.34839	0.22426
2418.41982	0.22538
2416.49126	0.22651
2414.56270	0.22765
2412.63413	0.22875
2410.70557	0.22977
2408.77700	0.23078
2406.84844	0.23183
2404.91987	0.23287
2402.99131	0.23393
2401.06274	0.23518
2399.13418	0.23656
2397.20562	0.23792
2395.27705	0.23922
2393.34849	0.24048
2391.41992	0.24174
2389.49136	0.24295
2387.56279	0.24396
2385.63423	0.24457
2383.70566	0.24465
2381.77710	0.24422
2379.84854	0.24360
2377.91997	0.24277
2375.99141	0.24133
2374.06284	0.23935
2372.13428	0.23704
2370.20571	0.23423
2368.27715	0.23108
2366.34858	0.22865
2364.42002	0.22657
2362.49146	0.22427
2360.56289	0.22382
2358.63433	0.22612
2356.70576	0.23071
2354.77720	0.23693
2352.84863	0.24426
2350.92007	0.25133
2348.99150	0.25543
2347.06294	0.25594
2345.13437	0.25401
2343.20581	0.25194
2341.27725	0.25198
2339.34868	0.25394
2337.42012	0.25609
2335.49155	0.25802
2333.56299	0.26025
2331.63442	0.26267
2329.70586	0.26520
2327.77729	0.26809
2325.84873	0.27140
2323.92017	0.27498
2321.99160	0.27877
2320.06304	0.28267
2318.13447	0.28634
2316.20591	0.28937
2314.27734	0.29195
2312.34878	0.29451
2310.42021	0.29720
2308.49165	0.29992
2306.56309	0.30273
2304.63452	0.30550
2302.70596	0.30800
2300.77739	0.31038
2298.84883	0.31278
2296.92026	0.31507
2294.99170	0.31728
2293.06313	0.31958
2291.13457	0.32203
2289.20601	0.32457
2287.27744	0.32698
2285.34888	0.32925
2283.42031	0.33142
2281.49175	0.33338
2279.56318	0.33517
2277.63462	0.33701
2275.70605	0.33898
2273.77749	0.34111
2271.84893	0.34327
2269.92036	0.34534
2267.99180	0.34741
2266.06323	0.34954
2264.13467	0.35164
2262.20610	0.35379
2260.27754	0.35605
2258.34897	0.35828
2256.42041	0.36057
2254.49185	0.36299
2252.56328	0.36536
2250.63472	0.36767
2248.70615	0.36997
2246.77759	0.37219
2244.84902	0.37434
2242.92046	0.37646
2240.99189	0.37859
2239.06333	0.38083
2237.13477	0.38321
2235.20620	0.38556
2233.27764	0.38786
2231.34907	0.39011
2229.42051	0.39223
2227.49194	0.39435
2225.56338	0.39663
2223.63481	0.39896
2221.70625	0.40124
2219.77769	0.40349
2217.84912	0.40563
2215.92056	0.40763
2213.99199	0.40968
2212.06343	0.41189
2210.13486	0.41415
2208.20630	0.41629
2206.27773	0.41840
2204.34917	0.42060
2202.42061	0.42272
2200.49204	0.42474
2198.56348	0.42684
2196.63491	0.42895
2194.70635	0.43088
2192.77778	0.43269
2190.84922	0.43456
2188.92065	0.43653
2186.99209	0.43837
2185.06353	0.44001
2183.13496	0.44168
2181.20640	0.44342
2179.27783	0.44515
2177.34927	0.44682
2175.42070	0.44834
2173.49214	0.44979
2171.56357	0.45128
2169.63501	0.45277
2167.70645	0.45414
2165.77788	0.45535
2163.84932	0.45652
2161.92075	0.45770
2159.99219	0.45877
2158.06362	0.45971
2156.13506	0.46061
2154.20649	0.46157
2152.27793	0.46249
2150.34937	0.46324
2148.42080	0.46388
2146.49224	0.46444
2144.56367	0.46487
2142.63511	0.46527
2140.70654	0.46574
2138.77798	0.46621
2136.84941	0.46645
2134.92085	0.46647
2132.99229	0.46639
2131.06372	0.46629
2129.13516	0.46619
2127.20659	0.46598
2125.27803	0.46557
2123.34946	0.46506
2121.42090	0.46465
2119.49233	0.46423
2117.56377	0.46359
2115.63521	0.46276
2113.70664	0.46190
2111.77808	0.46101
2109.84951	0.46000
2107.92095	0.45889
2105.99238	0.45780
2104.06382	0.45674
2102.13525	0.45559
2100.20669	0.45421
2098.27812	0.45266
2096.34956	0.45116
2094.42100	0.44975
2092.49243	0.44820
2090.56387	0.44648
2088.63530	0.44468
2086.70674	0.44286
2084.77817	0.44099
2082.84961	0.43899
2080.92104	0.43696
2078.99248	0.43505
2077.06392	0.43305
2075.13535	0.43084
2073.20679	0.42860
2071.27822	0.42641
2069.34966	0.42415
2067.42109	0.42178
2065.49253	0.41942
2063.56396	0.41706
2061.63540	0.41462
2059.70684	0.41212
2057.77827	0.40965
2055.84971	0.40712
2053.92114	0.40447
2051.99258	0.40181
2050.06401	0.39916
2048.13545	0.39651
2046.20688	0.39383
2044.27832	0.39113
2042.34976	0.38844
2040.42119	0.38571
2038.49263	0.38293
2036.56406	0.38018
2034.63550	0.37743
2032.70693	0.37462
2030.77837	0.37187
2028.84980	0.36916
2026.92124	0.36637
2024.99268	0.36341
2023.06411	0.36047
2021.13555	0.35763
2019.20698	0.35485
2017.27842	0.35213
2015.34985	0.34943
2013.42129	0.34670
2011.49272	0.34390
2009.56416	0.34109
2007.63560	0.33827
2005.70703	0.33550
2003.77847	0.33286
2001.84990	0.33026
1999.92134	0.32760
1997.99277	0.32491
1996.06421	0.32229
1994.13564	0.31973
1992.20708	0.31716
1990.27852	0.31456
1988.34995	0.31205
1986.42139	0.30958
1984.49282	0.30718
1982.56426	0.30480
1980.63569	0.30239
1978.70713	0.30005
1976.77856	0.29777
1974.85000	0.29549
1972.92144	0.29327
1970.99287	0.29114
1969.06431	0.28899
1967.13574	0.28686
1965.20718	0.28474
1963.27861	0.28269
1961.35005	0.28079
1959.42148	0.27892
1957.49292	0.27702
1955.56436	0.27514
1953.63579	0.27334
1951.70723	0.27161
1949.77866	0.26992
1947.85010	0.26820
1945.92153	0.26651
1943.99297	0.26492
1942.06440	0.26338
1940.13584	0.26182
1938.20728	0.26037
1936.27871	0.25904
1934.35015	0.25776
1932.42158	0.25651
1930.49302	0.25532
1928.56445	0.25419
1926.63589	0.25307
1924.70732	0.25196
1922.77876	0.25091
1920.85020	0.24989
1918.92163	0.24891
1916.99307	0.24802
1915.06450	0.24717
1913.13594	0.24627
1911.20737	0.24541
1909.27881	0.24465
1907.35024	0.24399
1905.42168	0.24336
1903.49312	0.24274
1901.56455	0.24217
1899.63599	0.24166
1897.70742	0.24117
1895.77886	0.24073
1893.85029	0.24030
1891.92173	0.23982
1889.99316	0.23955
1888.06460	0.23943
1886.13604	0.23923
1884.20747	0.23901
1882.27891	0.23883
1880.35034	0.23872
1878.42178	0.23862
1876.49321	0.23854
1874.56465	0.23843
1872.63608	0.23838
1870.70752	0.23850
1868.77896	0.23899
1866.85039	0.23943
1864.92183	0.23942
1862.99326	0.23937
1861.06470	0.23954
1859.13613	0.23993
1857.20757	0.24034
1855.27900	0.24078
1853.35044	0.24125
1851.42187	0.24175
1849.49331	0.24225
1847.56475	0.24277
1845.63618	0.24351
1843.70762	0.24465
1841.77905	0.24564
1839.85049	0.24617
1837.92192	0.24693
1835.99336	0.24782
1834.06479	0.24863
1832.13623	0.24950
1830.20767	0.25096
1828.27910	0.25263
1826.35054	0.25370
1824.42197	0.25487
1822.49341	0.25619
1820.56484	0.25745
1818.63628	0.25879
1816.70771	0.26035
1814.77915	0.26191
1812.85059	0.26362
1810.92202	0.26568
1808.99346	0.26777
1807.06489	0.26963
1805.13633	0.27140
1803.20776	0.27346
1801.27920	0.27594
1799.35063	0.27883
1797.42207	0.28135
1795.49351	0.28362
1793.56494	0.28634
1791.63638	0.29020
1789.70781	0.29402
1787.77925	0.29668
1785.85068	0.29966
1783.92212	0.30331
1781.99355	0.30732
1780.06499	0.31161
1778.13643	0.31595
1776.20786	0.31985
1774.27930	0.32387
1772.35073	0.32946
1770.42217	0.33585
1768.49360	0.34133
1766.56504	0.34665
1764.63647	0.35200
1762.70791	0.35776
1760.77935	0.36527
1758.85078	0.37238
1756.92222	0.37952
1754.99365	0.38736
1753.06509	0.39421
1751.13652	0.40214
1749.20796	0.41258
1747.27939	0.42321
1745.35083	0.43245
1743.42227	0.44202
1741.49370	0.45248
1739.56514	0.46485
1737.63657	0.47716
1735.70801	0.48759
1733.77944	0.50380
1731.85088	0.52413
1729.92231	0.53998
1727.99375	0.55575
1726.06519	0.57249
1724.13662	0.59083
1722.20806	0.61084
1720.27949	0.62907
1718.35093	0.65038
1716.42236	0.68346
1714.49380	0.71537
1712.56523	0.74038
1710.63667	0.76419
1708.70811	0.78965
1706.77954	0.81868
1704.85098	0.85419
1702.92241	0.88609
1700.99385	0.91687
1699.06528	0.96397
1697.13672	1.00878
1695.20815	1.05542
1693.27959	1.10012
1691.35103	1.13521
1689.42246	1.17600
1687.49390	1.21968
1685.56533	1.26136
1683.63677	1.32797
1681.70820	1.39907
1679.77964	1.44356
1677.85107	1.48626
1675.92251	1.53504
1673.99395	1.59530
1672.06538	1.64807
1670.13682	1.69940
1668.20825	1.77101
1666.27969	1.83103
1664.35112	1.88072
1662.42256	1.94321
1660.49399	2.01632
1658.56543	2.07258
1656.63687	2.11711
1654.70830	2.15779
1652.77974	2.22051
1650.85117	2.27576
1648.92261	2.29143
1646.99404	2.31607
1645.06548	2.34340
1643.13691	2.36058
1641.20835	2.36896
1639.27979	2.37656
1637.35122	2.38079
1635.42266	2.38034
1633.49409	2.37217
1631.56553	2.35518
1629.63696	2.33468
1627.70840	2.30244
1625.77983	2.26585
1623.85127	2.22065
1621.92271	2.16681
1619.99414	2.11999
1618.06558	2.07394
1616.13701	2.00694
1614.20845	1.94005
1612.27988	1.89025
1610.35132	1.83739
1608.42275	1.77949
1606.49419	1.72252
1604.56562	1.67063
1602.63706	1.62099
1600.70850	1.57334
1598.77993	1.53005
1596.85137	1.48898
1594.92280	1.44857
1592.99424	1.40945
1591.06567	1.37363
1589.13711	1.34025
1587.20854	1.30984
1585.27998	1.28221
1583.35142	1.25669
1581.42285	1.23373
1579.49429	1.21429
1577.56572	1.19709
1575.63716	1.17695
1573.70859	1.15982
1571.78003	1.14895
1569.85146	1.13852
1567.92290	1.12763
1565.99434	1.11989
1564.06577	1.11480
1562.13721	1.11148
1560.20864	1.11067
1558.28008	1.11526
1556.35151	1.12071
1554.42295	1.12286
1552.49438	1.12504
1550.56582	1.12598
1548.63726	1.12460
1546.70869	1.12019
1544.78013	1.11143
1542.85156	1.09767
1540.92300	1.07678
1538.99443	1.04606
1537.06587	1.02502
1535.13730	1.01037
1533.20874	0.98965
1531.28018	0.96753
1529.35161	0.95190
1527.42305	0.93693
1525.49448	0.92109
1523.56592	0.90777
1521.63735	0.89541
1519.70879	0.88288
1517.78022	0.87214
1515.85166	0.85961
1513.92310	0.84674
1511.99453	0.83557
1510.06597	0.82536
1508.13740	0.81521
1506.20884	0.79873
1504.28027	0.78517
1502.35171	0.77785
1500.42314	0.77125
1498.49458	0.76418
1496.56602	0.75613
1494.63745	0.74832
1492.70889	0.74221
1490.78032	0.73663
1488.85176	0.73025
1486.92319	0.72459
1484.99463	0.72043
1483.06606	0.71719
1481.13750	0.71446
1479.20894	0.71239
1477.28037	0.71132
1475.35181	0.71114
1473.42324	0.71141
1471.49468	0.71106
1469.56611	0.70962
1467.63755	0.70768
1465.70898	0.70577
1463.78042	0.70423
1461.85186	0.70329
1459.92329	0.70282
1457.99473	0.70260
1456.06616	0.70234
1454.13760	0.70084
1452.20903	0.69856
1450.28047	0.69594
1448.35190	0.69299
1446.42334	0.68983
1444.49478	0.68709
1442.56621	0.68460
1440.63765	0.68185
1438.70908	0.67889
1436.78052	0.67529
1434.85195	0.67143
1432.92339	0.66855
1430.99482	0.66647
1429.06626	0.66516
1427.13770	0.66481
1425.20913	0.66518
1423.28057	0.66603
1421.35200	0.66682
1419.42344	0.66738
1417.49487	0.66746
1415.56631	0.66677
1413.63774	0.66618
1411.70918	0.66623
1409.78062	0.66702
1407.85205	0.66826
1405.92349	0.66978
1403.99492	0.67141
1402.06636	0.67215
1400.13779	0.67165
1398.20923	0.67006
1396.28066	0.66749
1394.35210	0.66387
1392.42354	0.65955
1390.49497	0.65524
1388.56641	0.65073
1386.63784	0.64557
1384.70928	0.64015
1382.78071	0.63487
1380.85215	0.62983
1378.92358	0.62556
1376.99502	0.62240
1375.06646	0.62027
1373.13789	0.61893
1371.20933	0.61800
1369.28076	0.61711
1367.35220	0.61586
1365.42363	0.61422
1363.49507	0.61246
1361.56650	0.61078
1359.63794	0.60931
1357.70937	0.60806
1355.78081	0.60695
1353.85225	0.60594
1351.92368	0.60496
1349.99512	0.60411
1348.06655	0.60347
1346.13799	0.60286
1344.20942	0.60212
1342.28086	0.60134
1340.35229	0.60056
1338.42373	0.59979
1336.49517	0.59919
1334.56660	0.59889
1332.63804	0.59894
1330.70947	0.59928
1328.78091	0.59980
1326.85234	0.60043
1324.92378	0.60118
1322.99521	0.60197
1321.06665	0.60271
1319.13809	0.60338
1317.20952	0.60381
1315.28096	0.60385
1313.35239	0.60354
1311.42383	0.60303
1309.49526	0.60246
1307.56670	0.60194
1305.63813	0.60147
1303.70957	0.60082
1301.78101	0.59992
1299.85244	0.59888
1297.92388	0.59783
1295.99531	0.59672
1294.06675	0.59548
1292.13818	0.59421
1290.20962	0.59282
1288.28105	0.59130
1286.35249	0.58986
1284.42393	0.58852
1282.49536	0.58707
1280.56680	0.58574
1278.63823	0.58461
1276.70967	0.58332
1274.78110	0.58191
1272.85254	0.58084
1270.92397	0.58022
1268.99541	0.57969
1267.06685	0.57891
1265.13828	0.57791
1263.20972	0.57694
1261.28115	0.57613
1259.35259	0.57541
1257.42402	0.57487
1255.49546	0.57461
1253.56689	0.57447
1251.63833	0.57448
1249.70977	0.57474
1247.78120	0.57497
1245.85264	0.57482
1243.92407	0.57426
1241.99551	0.57332
1240.06694	0.57194
1238.13838	0.57018
1236.20981	0.56815
1234.28125	0.56587
1232.35269	0.56353
1230.42412	0.56126
1228.49556	0.55911
1226.56699	0.55714
1224.63843	0.55523
1222.70986	0.55333
1220.78130	0.55167
1218.85273	0.55026
1216.92417	0.54895
1214.99561	0.54776
1213.06704	0.54671
1211.13848	0.54583
1209.20991	0.54514
1207.28135	0.54452
1205.35278	0.54382
1203.42422	0.54296
1201.49565	0.54201
1199.56709	0.54115
1197.63853	0.54046
1195.70996	0.53980
1193.78140	0.53909
1191.85283	0.53848
1189.92427	0.53808
1187.99570	0.53776
1186.06714	0.53760
1184.13857	0.53774
1182.21001	0.53823
1180.28145	0.53919
1178.35288	0.54060
1176.42432	0.54215
1174.49575	0.54362
1172.56719	0.54482
1170.63862	0.54541
1168.71006	0.54533
1166.78149	0.54494
1164.85293	0.54476
1162.92437	0.54492
1160.99580	0.54490
1159.06724	0.54425
1157.13867	0.54321
1155.21011	0.54215
1153.28154	0.54091
1151.35298	0.53929
1149.42441	0.53714
1147.49585	0.53452
1145.56729	0.53186
1143.63872	0.52937
1141.71016	0.52703
1139.78159	0.52502
1137.85303	0.52342
1135.92446	0.52225
1133.99590	0.52157
1132.06733	0.52118
1130.13877	0.52072
1128.21021	0.52010
1126.28164	0.51932
1124.35308	0.51847
1122.42451	0.51794
1120.49595	0.51776
1118.56738	0.51762
1116.63882	0.51756
1114.71025	0.51786
1112.78169	0.51844
1110.85312	0.51904
1108.92456	0.51965
1106.99600	0.52044
1105.06743	0.52140
1103.13887	0.52267
1101.21030	0.52438
1099.28174	0.52635
1097.35317	0.52863
1095.42461	0.53131
1093.49604	0.53463
1091.56748	0.53902
1089.63892	0.54460
1087.71035	0.55100
1085.78179	0.55786
1083.85322	0.56506
1081.92466	0.57188
1079.99609	0.57708
1078.06753	0.58006
1076.13896	0.58072
1074.21040	0.57878
1072.28184	0.57411
1070.35327	0.56753
1068.42471	0.56036
1066.49614	0.55339
1064.56758	0.54686
1062.63901	0.54100
1060.71045	0.53601
1058.78188	0.53153
1056.85332	0.52722
1054.92476	0.52347
1052.99619	0.52039
1051.06763	0.51763
1049.13906	0.51513
1047.21050	0.51315
1045.28193	0.51165
1043.35337	0.51038
1041.42480	0.50937
1039.49624	0.50864
1037.56768	0.50799
1035.63911	0.50746
1033.71055	0.50702
1031.78198	0.50652
1029.85342	0.50587
1027.92485	0.50494
1025.99629	0.50384
1024.06772	0.50306
1022.13916	0.50279
1020.21060	0.50286
1018.28203	0.50297
1016.35347	0.50300
1014.42490	0.50319
1012.49634	0.50367
1010.56777	0.50418
1008.63921	0.50460
1006.71064	0.50525
1004.78208	0.50661
1002.85352	0.50888
1000.92495	0.51184
998.99639	0.51516
997.06782	0.51882
995.13926	0.52273
993.21069	0.52656
991.28213	0.52991
989.35356	0.53237
987.42500	0.53365
985.49644	0.53390
983.56787	0.53386
981.63931	0.53431
979.71074	0.53540
977.78218	0.53683
975.85361	0.53854
973.92505	0.54076
971.99648	0.54363
970.06792	0.54710
968.13936	0.55106
966.21079	0.55523
964.28223	0.55951
962.35366	0.56398
960.42510	0.56869
958.49653	0.57382
956.56797	0.57943
954.63940	0.58530
952.71084	0.59122
950.78228	0.59733
948.85371	0.60390
946.92515	0.61068
944.99658	0.61713
943.06802	0.62327
941.13945	0.62927
939.21089	0.63511
937.28232	0.64105
935.35376	0.64688
933.42520	0.65264
931.49663	0.65868
929.56807	0.66448
927.63950	0.66997
925.71094	0.67556
923.78237	0.68138
921.85381	0.68806
919.92524	0.69562
917.99668	0.70312
916.06812	0.71019
914.13955	0.71734
912.21099	0.72509
910.28242	0.73308
908.35386	0.74129
906.42529	0.74983
904.49673	0.75776
902.56816	0.76548
900.63960	0.77464
898.71104	0.78493
896.78247	0.79505
894.85391	0.80496
892.92534	0.81544
890.99678	0.82630
889.06821	0.83650
887.13965	0.84591
885.21108	0.85579
883.28252	0.86708
881.35396	0.87938
879.42539	0.89141
877.49683	0.90303
875.56826	0.91560
873.63970	0.92799
871.71113	0.93823
869.78257	0.94798
867.85400	0.95958
865.92544	0.97295
863.99687	0.98604
862.06831	0.99835
860.13975	1.01089
858.21118	1.02293
856.28262	1.03368
854.35405	1.04410
852.42549	1.05499
850.49692	1.06652
848.56836	1.07881
846.63979	1.09213
844.71123	1.10592
842.78267	1.11808
840.85410	1.12845
838.92554	1.13862
836.99697	1.14852
835.06841	1.15883
833.13984	1.17275
831.21128	1.18921
829.28271	1.20401
827.35415	1.21995
825.42559	1.23560
823.49702	1.24149
821.56846	1.24635
819.63989	1.26208
817.71133	1.27536
815.78276	1.28480
813.85420	1.30439
811.92563	1.32313
809.99707	1.33094
808.06851	1.33351
806.13994	1.33851
804.21138	1.35585
802.28281	1.37321
800.35425	1.36983
798.42568	1.36318
796.49712	1.37687
794.56855	1.40074
792.63999	1.39399
790.71143	1.37634
788.78286	1.41290
786.85430	1.46930
784.92573	1.49171
782.99717	1.52954
781.06860	1.56851
779.14004	1.51645
777.21147	1.47743
775.28291	1.57114
773.35435	1.71211
771.42578	1.66746
769.49722	1.53374
767.56865	1.47295
765.64009	1.47003
763.71152	1.52634
761.78296	1.69941
759.85439	1.93081
757.92583	1.84290
755.99727	1.69811
754.06870	1.65503
752.14014	1.53852
750.21157	1.32893
748.28301	1.21701
746.35444	1.19132
744.42588	1.19738
742.49731	1.31797
740.56875	1.56101
738.64019	1.54505
736.71162	1.35875
734.78306	1.09080
732.85449	0.77585
730.92593	0.57096
728.99736	0.49511
727.06880	0.52533
725.14023	0.65192
723.21167	0.63419
721.28311	0.35516
719.35454	0.22536
717.42598	0.20446
715.49741	0.12446
713.56885	-0.07089
711.64028	-0.20093
709.71172	0.01140
707.78315	0.35122
705.85459	0.58505
703.92603	0.66253
701.99746	0.50696
700.06890	0.38318
698.14033	0.35244
696.21177	0.38637
694.28320	0.49199
692.35464	0.53919
690.42607	0.49120
688.49751	0.45986
686.56895	0.45002
684.64038	0.45490
682.71182	0.48441
680.78325	0.62963
678.85469	0.93700
676.92612	0.94500
674.99756	0.94129
673.06899	1.18820
671.14043	0.70035
669.21187	0.38747
667.28330	0.30789
665.35474	0.39990
663.42617	0.52446
661.49761	0.59953
659.56904	0.63455
657.64048	0.63481
655.71191	0.65591
653.78335	0.69026
651.85479	0.63214
649.92622	0.48047
647.99766	0.36299
646.06909	0.36937
644.14053	0.52917
642.21196	0.88418
640.28340	0.87094
638.35483	0.53338
636.42627	0.43084
634.49771	0.44653
632.56914	0.40616
630.64058	0.31072
628.71201	0.29948
626.78345	0.38955
624.85488	0.53701
622.92632	0.78347
620.99775	3.72599
619.06919	3.71442
617.14062	0.80351
615.21206	0.53233
613.28350	0.42845
611.35493	0.41295
609.42637	0.43767
607.49780	0.45533
605.56924	0.45228
603.64067	0.43335
601.71211	0.39622
599.78354	0.35540
597.85498	0.36748
595.92642	0.50809
593.99785	0.71324
592.06929	0.55606
590.14072	0.44591
588.21216	0.41461
586.28359	0.39068
584.35503	0.41054
582.42646	0.48191
580.49790	0.54375
578.56934	0.63975
576.64077	0.76871
574.71221	0.61059
572.78364	0.38767
570.85508	0.29696
568.92651	0.32652
566.99795	0.43046
565.06938	0.47244
563.14082	0.41612
561.21226	0.40289
559.28369	0.38805
557.35513	0.34297
555.42656	0.33666
553.49800	0.34913
551.56943	0.36678
549.64087	0.39311
547.71230	0.37318
545.78374	0.30974
543.85518	0.27725
541.92661	0.33048
539.99805	0.47825
538.06948	0.61373
536.14092	0.52832
534.21235	0.41491
532.28379	0.39543
530.35522	0.43848
528.42666	0.44146
526.49810	0.41504
524.56953	0.39909
522.64097	0.36001
520.71240	0.31221
518.78384	0.26983
516.85527	0.22873
514.92671	0.23691
512.99814	0.32701
511.06958	0.42515
509.14102	0.39453
507.21245	0.32163
505.28389	0.26553
503.35532	0.26338
501.42676	0.32436
499.49819	0.38545
