3997.91411	0.05706
3995.98555	0.05772
3994.05698	0.05853
3992.12842	0.05897
3990.19985	0.05925
3988.27129	0.05956
3986.34272	0.05952
3984.41416	0.05929
3982.48560	0.05918
3980.55703	0.05935
3978.62847	0.05994
3976.69990	0.06090
3974.77134	0.06174
3972.84277	0.06209
3970.91421	0.06190
3968.98564	0.06152
3967.05708	0.06140
3965.12852	0.06155
3963.19995	0.06192
3961.27139	0.06220
3959.34282	0.06193
3957.41426	0.06160
3955.48569	0.06185
3953.55713	0.06240
3951.62856	0.06300
3949.70000	0.06386
3947.77144	0.06429
3945.84287	0.06358
3943.91431	0.06285
3941.98574	0.06280
3940.05718	0.06246
3938.12861	0.06189
3936.20005	0.06171
3934.27148	0.06198
3932.34292	0.06283
3930.41436	0.06387
3928.48579	0.06419
3926.55723	0.06404
3924.62866	0.06432
3922.70010	0.06449
3920.77153	0.06401
3918.84297	0.06376
3916.91440	0.06379
3914.98584	0.06327
3913.05728	0.06212
3911.12871	0.06115
3909.20015	0.06092
3907.27158	0.06170
3905.34302	0.06375
3903.41445	0.06625
3901.48589	0.06726
3899.55732	0.06646
3897.62876	0.06448
3895.70020	0.06241
3893.77163	0.06194
3891.84307	0.06343
3889.91450	0.06462
3887.98594	0.06406
3886.05737	0.06389
3884.12881	0.06456
3882.20024	0.06486
3880.27168	0.06500
3878.34312	0.06470
3876.41455	0.06418
3874.48599	0.06480
3872.55742	0.06636
3870.62886	0.06794
3868.70029	0.06913
3866.77173	0.06892
3864.84316	0.06847
3862.91460	0.06858
3860.98604	0.06812
3859.05747	0.06731
3857.12891	0.06736
3855.20034	0.06880
3853.27178	0.07203
3851.34321	0.07421
3849.41465	0.07224
3847.48608	0.07004
3845.55752	0.06947
3843.62896	0.07067
3841.70039	0.07299
3839.77183	0.07551
3837.84326	0.07748
3835.91470	0.07769
3833.98613	0.07655
3832.05757	0.07530
3830.12900	0.07455
3828.20044	0.07481
3826.27187	0.07598
3824.34331	0.07738
3822.41475	0.07950
3820.48618	0.08301
3818.55762	0.08458
3816.62905	0.08420
3814.70049	0.08400
3812.77192	0.08285
3810.84336	0.08179
3808.91479	0.08242
3806.98623	0.08478
3805.05767	0.08745
3803.12910	0.08974
3801.20054	0.09261
3799.27197	0.09428
3797.34341	0.09415
3795.41484	0.09399
3793.48628	0.09340
3791.55771	0.09303
3789.62915	0.09385
3787.70059	0.09542
3785.77202	0.09734
3783.84346	0.09940
3781.91489	0.10108
3779.98633	0.10286
3778.05776	0.10476
3776.12920	0.10550
3774.20063	0.10601
3772.27207	0.10764
3770.34351	0.11050
3768.41494	0.11361
3766.48638	0.11556
3764.55781	0.11704
3762.62925	0.11858
3760.70068	0.12067
3758.77212	0.12417
3756.84355	0.12785
3754.91499	0.13033
3752.98643	0.13302
3751.05786	0.13793
3749.12930	0.14373
3747.20073	0.14617
3745.27217	0.14792
3743.34360	0.15198
3741.41504	0.15541
3739.48647	0.15752
3737.55791	0.16105
3735.62935	0.16718
3733.70078	0.17417
3731.77222	0.17845
3729.84365	0.18106
3727.91509	0.18449
3725.98652	0.18995
3724.05796	0.19674
3722.12939	0.20349
3720.20083	0.21005
3718.27227	0.21603
3716.34370	0.22201
3714.41514	0.22926
3712.48657	0.23980
3710.55801	0.25496
3708.62944	0.26921
3706.70088	0.27943
3704.77231	0.28971
3702.84375	0.30271
3700.91519	0.32019
3698.98662	0.33904
3697.05806	0.35600
3695.12949	0.37400
3693.20093	0.39414
3691.27236	0.41693
3689.34380	0.44617
3687.41523	0.48066
3685.48667	0.50990
3683.55811	0.53518
3681.62954	0.56277
3679.70098	0.59445
3677.77241	0.62827
3675.84385	0.66902
3673.91528	0.72389
3671.98672	0.76642
3670.05815	0.80368
3668.12959	0.85688
3666.20103	0.90488
3664.27246	0.94439
3662.34390	0.98720
3660.41533	1.03430
3658.48677	1.08110
3656.55820	1.13082
3654.62964	1.18647
3652.70107	1.23276
3650.77251	1.27312
3648.84395	1.33116
3646.91538	1.40279
3644.98682	1.45220
3643.05825	1.48948
3641.12969	1.52864
3639.20112	1.57212
3637.27256	1.61600
3635.34399	1.65977
3633.41543	1.70470
3631.48687	1.74646
3629.55830	1.78791
3627.62974	1.84299
3625.70117	1.89367
3623.77261	1.92626
3621.84404	1.95762
3619.91548	1.99482
3617.98691	2.04141
3616.05835	2.08625
3614.12979	2.12333
3612.20122	2.16257
3610.27266	2.20146
3608.34409	2.24106
3606.41553	2.28467
3604.48696	2.32447
3602.55840	2.35892
3600.62983	2.39650
3598.70127	2.43796
3596.77271	2.47770
3594.84414	2.51777
3592.91558	2.56040
3590.98701	2.60047
3589.05845	2.63713
3587.12988	2.68170
3585.20132	2.73028
3583.27275	2.76950
3581.34419	2.80572
3579.41562	2.84536
3577.48706	2.88876
3575.55850	2.93388
3573.62993	2.97837
3571.70137	3.01863
3569.77280	3.05629
3567.84424	3.09833
3565.91567	3.15163
3563.98711	3.20242
3562.05854	3.24278
3560.12998	3.28376
3558.20142	3.32937
3556.27285	3.37685
3554.34429	3.42242
3552.41572	3.46806
3550.48716	3.51349
3548.55859	3.55613
3546.63003	3.59790
3544.70146	3.64470
3542.77290	3.69458
3540.84434	3.74059
3538.91577	3.78550
3536.98721	3.83279
3535.05864	3.88262
3533.13008	3.93044
3531.20151	3.97556
3529.27295	4.02193
3527.34438	4.07005
3525.41582	4.11721
3523.48726	4.16627
3521.55869	4.21982
3519.63013	4.27102
3517.70156	4.31706
3515.77300	4.35947
3513.84443	4.40199
3511.91587	4.44928
3509.98730	4.49968
3508.05874	4.54708
3506.13018	4.59295
3504.20161	4.64088
3502.27305	4.68843
3500.34448	4.73488
3498.41592	4.78091
3496.48735	4.82841
3494.55879	4.87843
3492.63022	4.92893
3490.70166	4.97808
3488.77310	5.02413
3486.84453	5.06971
3484.91597	5.12097
3482.98740	5.17612
3481.05884	5.23299
3479.13027	5.28823
3477.20171	5.33113
3475.27314	5.36507
3473.34458	5.40380
3471.41602	5.44847
3469.48745	5.49413
3467.55889	5.54016
3465.63032	5.58403
3463.70176	5.62739
3461.77319	5.67946
3459.84463	5.73630
3457.91606	5.78147
3455.98750	5.82769
3454.05894	5.88539
3452.13037	5.93884
3450.20181	5.98680
3448.27324	6.02823
3446.34468	6.06505
3444.41611	6.11744
3442.48755	6.19292
3440.55898	6.25904
3438.63042	6.28370
3436.70186	6.29410
3434.77329	6.33886
3432.84473	6.40565
3430.91616	6.45453
3428.98760	6.50533
3427.05903	6.57638
3425.13047	6.63879
3423.20190	6.67437
3421.27334	6.73108
3419.34478	6.82918
3417.41621	6.90432
3415.48765	6.92847
3413.55908	6.93726
3411.63052	6.95969
3409.70195	6.99035
3407.77339	7.02927
3405.84482	7.06525
3403.91626	7.09205
3401.98770	7.12255
3400.05913	7.16166
3398.13057	7.21465
3396.20200	7.27851
3394.27344	7.33327
3392.34487	7.35504
3390.41631	7.35686
3388.48774	7.36541
3386.55918	7.40210
3384.63062	7.44592
3382.70205	7.48950
3380.77349	7.54040
3378.84492	7.58394
3376.91636	7.63191
3374.98779	7.66112
3373.05923	7.65960
3371.13066	7.65449
3369.20210	7.66676
3367.27354	7.66804
3365.34497	7.65838
3363.41641	7.68978
3361.48784	7.75436
3359.55928	7.80396
3357.63071	7.83419
3355.70215	7.87602
3353.77358	7.90591
3351.84502	7.89722
3349.91646	7.85324
3347.98789	7.84294
3346.05933	7.88217
3344.13076	7.93009
3342.20220	8.03185
3340.27363	8.17643
3338.34507	8.21484
3336.41650	8.07545
3334.48794	7.94293
3332.55937	7.92786
3330.63081	7.95665
3328.70225	7.91507
3326.77368	7.84831
3324.84512	7.87681
3322.91655	7.92498
3320.98799	7.91532
3319.05942	7.94011
3317.13086	8.02674
3315.20229	8.09476
3313.27373	8.08008
3311.34517	7.95442
3309.41660	7.86984
3307.48804	7.92549
3305.55947	7.98184
3303.63091	7.94796
3301.70234	7.93340
3299.77378	8.03519
3297.84521	8.13145
3295.91665	8.08074
3293.98809	7.97606
3292.05952	7.97158
3290.13096	8.02188
3288.20239	8.01379
3286.27383	7.98113
3284.34526	7.92519
3282.41670	7.89084
3280.48813	7.94169
3278.55957	8.07306
3276.63101	8.19913
3274.70244	8.19106
3272.77388	8.09057
3270.84531	8.08107
3268.91675	8.18076
3266.98818	8.19165
3265.05962	8.14044
3263.13105	8.16977
3261.20249	8.20947
3259.27393	8.20673
3257.34536	8.22609
3255.41680	8.25068
3253.48823	8.23237
3251.55967	8.13284
3249.63110	7.97163
3247.70254	7.89769
3245.77397	7.92528
3243.84541	7.94498
3241.91685	7.97047
3239.98828	8.04216
3238.05972	8.11120
3236.13115	8.18416
3234.20259	8.21332
3232.27402	8.12415
3230.34546	8.08551
3228.41689	8.13969
3226.48833	8.08465
3224.55977	7.92858
3222.63120	7.85102
3220.70264	7.87552
3218.77407	7.90500
3216.84551	7.88466
3214.91694	7.87144
3212.98838	7.89228
3211.05981	7.86858
3209.13125	7.76844
3207.20269	7.69434
3205.27412	7.70294
3203.34556	7.71894
3201.41699	7.68768
3199.48843	7.64394
3197.55986	7.63879
3195.63130	7.65170
3193.70273	7.59998
3191.77417	7.49041
3189.84561	7.42327
3187.91704	7.46082
3185.98848	7.52235
3184.05991	7.46301
3182.13135	7.31749
3180.20278	7.20403
3178.27422	7.16253
3176.34565	7.16903
3174.41709	7.13825
3172.48853	7.04777
3170.55996	6.95577
3168.63140	6.86362
3166.70283	6.77509
3164.77427	6.72974
3162.84570	6.71458
3160.91714	6.69403
3158.98857	6.65731
3157.06001	6.59916
3155.13145	6.54200
3153.20288	6.47925
3151.27432	6.38199
3149.34575	6.28948
3147.41719	6.22853
3145.48862	6.16629
3143.56006	6.09376
3141.63149	6.03318
3139.70293	5.97444
3137.77437	5.89908
3135.84580	5.81904
3133.91724	5.74226
3131.98867	5.66797
3130.06011	5.60669
3128.13154	5.55256
3126.20298	5.48925
3124.27441	5.42126
3122.34585	5.35408
3120.41729	5.28632
3118.48872	5.21700
3116.56016	5.14364
3114.63159	5.06555
3112.70303	4.99210
3110.77446	4.92932
3108.84590	4.86379
3106.91733	4.79057
3104.98877	4.71976
3103.06021	4.65154
3101.13164	4.58184
3099.20308	4.51375
3097.27451	4.44922
3095.34595	4.38569
3093.41738	4.32085
3091.48882	4.25491
3089.56025	4.18915
3087.63169	4.12451
3085.70312	4.06323
3083.77456	4.00494
3081.84600	3.94620
3079.91743	3.88529
3077.98887	3.82353
3076.06030	3.76281
3074.13174	3.70443
3072.20317	3.64858
3070.27461	3.59309
3068.34604	3.53612
3066.41748	3.47836
3064.48892	3.42290
3062.56035	3.37007
3060.63179	3.31606
3058.70322	3.26021
3056.77466	3.20483
3054.84609	3.15239
3052.91753	3.10298
3050.98896	3.05298
3049.06040	3.00143
3047.13184	2.95088
3045.20327	2.90138
3043.27471	2.85206
3041.34614	2.80454
3039.41758	2.75882
3037.48901	2.71251
3035.56045	2.66584
3033.63188	2.62007
3031.70332	2.57512
3029.77476	2.53136
3027.84619	2.48864
3025.91763	2.44607
3023.98906	2.40370
3022.06050	2.36170
3020.13193	2.32037
3018.20337	2.28013
3016.27480	2.24043
3014.34624	2.20102
3012.41768	2.16264
3010.48911	2.12521
3008.56055	2.08814
3006.63198	2.05139
3004.70342	2.01520
3002.77485	1.97982
3000.84629	1.94587
2998.91772	1.91336
2996.98916	1.88069
2995.06060	1.84717
2993.13203	1.81421
2991.20347	1.78273
2989.27490	1.75246
2987.34634	1.72270
2985.41777	1.69302
2983.48921	1.66376
2981.56064	1.63512
2979.63208	1.60689
2977.70352	1.57887
2975.77495	1.55116
2973.84639	1.52419
2971.91782	1.49810
2969.98926	1.47231
2968.06069	1.44622
2966.13213	1.42018
2964.20356	1.39468
2962.27500	1.36973
2960.34644	1.34516
2958.41787	1.32107
2956.48931	1.29762
2954.56074	1.27422
2952.63218	1.25066
2950.70361	1.22782
2948.77505	1.20592
2946.84648	1.18419
2944.91792	1.16237
2942.98936	1.14088
2941.06079	1.12005
2939.13223	1.09949
2937.20366	1.07868
2935.27510	1.05783
2933.34653	1.03754
2931.41797	1.01773
2929.48940	0.99798
2927.56084	0.97821
2925.63228	0.95866
2923.70371	0.93997
2921.77515	0.92197
2919.84658	0.90428
2917.91802	0.88756
2915.98945	0.87208
2914.06089	0.85791
2912.13232	0.84487
2910.20376	0.83206
2908.27520	0.81926
2906.34663	0.80640
2904.41807	0.79283
2902.48950	0.77909
2900.56094	0.76638
2898.63237	0.75431
2896.70381	0.74194
2894.77524	0.72954
2892.84668	0.71792
2890.91812	0.70695
2888.98955	0.69592
2887.06099	0.68499
2885.13242	0.67452
2883.20386	0.66415
2881.27529	0.65391
2879.34673	0.64398
2877.41816	0.63375
2875.48960	0.62285
2873.56104	0.61192
2871.63247	0.60151
2869.70391	0.59094
2867.77534	0.57990
2865.84678	0.56883
2863.91821	0.55773
2861.98965	0.54651
2860.06108	0.53541
2858.13252	0.52482
2856.20396	0.51488
2854.27539	0.50522
2852.34683	0.49547
2850.41826	0.48591
2848.48970	0.47735
2846.56113	0.47053
2844.63257	0.46525
2842.70400	0.46032
2840.77544	0.45505
2838.84687	0.44972
2836.91831	0.44432
2834.98975	0.43866
2833.06118	0.43306
2831.13262	0.42754
2829.20405	0.42182
2827.27549	0.41601
2825.34692	0.41038
2823.41836	0.40474
2821.48979	0.39880
2819.56123	0.39282
2817.63267	0.38716
2815.70410	0.38177
2813.77554	0.37629
2811.84697	0.37053
2809.91841	0.36484
2807.98984	0.35944
2806.06128	0.35422
2804.13271	0.34916
2802.20415	0.34441
2800.27559	0.33966
2798.34702	0.33452
2796.41846	0.32929
2794.48989	0.32456
2792.56133	0.32045
2790.63276	0.31650
2788.70420	0.31220
2786.77563	0.30766
2784.84707	0.30318
2782.91851	0.29890
2780.98994	0.29494
2779.06138	0.29102
2777.13281	0.28676
2775.20425	0.28254
2773.27568	0.27879
2771.34712	0.27524
2769.41855	0.27172
2767.48999	0.26832
2765.56143	0.26492
2763.63286	0.26145
2761.70430	0.25806
2759.77573	0.25492
2757.84717	0.25196
2755.91860	0.24890
2753.99004	0.24569
2752.06147	0.24262
2750.13291	0.23976
2748.20435	0.23685
2746.27578	0.23393
2744.34722	0.23119
2742.41865	0.22861
2740.49009	0.22608
2738.56152	0.22354
2736.63296	0.22090
2734.70439	0.21834
2732.77583	0.21608
2730.84727	0.21385
2728.91870	0.21149
2726.99014	0.20917
2725.06157	0.20700
2723.13301	0.20502
2721.20444	0.20307
2719.27588	0.20101
2717.34731	0.19895
2715.41875	0.19696
2713.49019	0.19503
2711.56162	0.19316
2709.63306	0.19139
2707.70449	0.18985
2705.77593	0.18850
2703.84736	0.18697
2701.91880	0.18521
2699.99023	0.18365
2698.06167	0.18227
2696.13311	0.18077
2694.20454	0.17923
2692.27598	0.17783
2690.34741	0.17645
2688.41885	0.17507
2686.49028	0.17379
2684.56172	0.17259
2682.63315	0.17140
2680.70459	0.17013
2678.77603	0.16881
2676.84746	0.16760
2674.91890	0.16646
2672.99033	0.16526
2671.06177	0.16412
2669.13320	0.16315
2667.20464	0.16233
2665.27607	0.16155
2663.34751	0.16062
2661.41895	0.15963
2659.49038	0.15886
2657.56182	0.15813
2655.63325	0.15722
2653.70469	0.15625
2651.77612	0.15540
2649.84756	0.15474
2647.91899	0.15424
2645.99043	0.15372
2644.06187	0.15314
2642.13330	0.15258
2640.20474	0.15210
2638.27617	0.15169
2636.34761	0.15116
2634.41904	0.15052
2632.49048	0.14995
2630.56191	0.14946
2628.63335	0.14898
2626.70479	0.14853
2624.77622	0.14819
2622.84766	0.14799
2620.91909	0.14779
2618.99053	0.14751
2617.06196	0.14729
2615.13340	0.14711
2613.20483	0.14694
2611.27627	0.14687
2609.34771	0.14677
2607.41914	0.14662
2605.49058	0.14655
2603.56201	0.14660
2601.63345	0.14665
2599.70488	0.14661
2597.77632	0.14657
2595.84775	0.14666
2593.91919	0.14683
2591.99062	0.14688
2590.06206	0.14681
2588.13350	0.14687
2586.20493	0.14712
2584.27637	0.14747
2582.34780	0.14787
2580.41924	0.14821
2578.49067	0.14841
2576.56211	0.14862
2574.63354	0.14891
2572.70498	0.14933
2570.77642	0.14980
2568.84785	0.15015
2566.91929	0.15049
2564.99072	0.15092
2563.06216	0.15134
2561.13359	0.15168
2559.20503	0.15205
2557.27646	0.15253
2555.34790	0.15307
2553.41934	0.15357
2551.49077	0.15408
2549.56221	0.15476
2547.63364	0.15548
2545.70508	0.15611
2543.77651	0.15664
2541.84795	0.15711
2539.91938	0.15763
2537.99082	0.15827
2536.06226	0.15891
2534.13369	0.15957
2532.20513	0.16026
2530.27656	0.16091
2528.34800	0.16157
2526.41943	0.16236
2524.49087	0.16322
2522.56230	0.16396
2520.63374	0.16462
2518.70518	0.16529
2516.77661	0.16601
2514.84805	0.16676
2512.91948	0.16754
2510.99092	0.16839
2509.06235	0.16922
2507.13379	0.17005
2505.20522	0.17092
2503.27666	0.17174
2501.34810	0.17252
2499.41953	0.17335
2497.49097	0.17418
2495.56240	0.17503
2493.63384	0.17595
2491.70527	0.17685
2489.77671	0.17768
2487.84814	0.17848
2485.91958	0.17930
2483.99102	0.18014
2482.06245	0.18097
2480.13389	0.18179
2478.20532	0.18260
2476.27676	0.18349
2474.34819	0.18452
2472.41963	0.18554
2470.49106	0.18642
2468.56250	0.18726
2466.63394	0.18816
2464.70537	0.18908
2462.77681	0.18998
2460.84824	0.19091
2458.91968	0.19192
2456.99111	0.19304
2455.06255	0.19413
2453.13398	0.19502
2451.20542	0.19577
2449.27686	0.19665
2447.34829	0.19775
2445.41973	0.19886
2443.49116	0.19990
2441.56260	0.20088
2439.63403	0.20185
2437.70547	0.20288
2435.77690	0.20398
2433.84834	0.20507
2431.91978	0.20615
2429.99121	0.20714
2428.06265	0.20810
2426.13408	0.20916
2424.20552	0.21025
2422.27695	0.21133
2420.34839	0.21243
2418.41982	0.21362
2416.49126	0.21486
2414.56270	0.21606
2412.63413	0.21728
2410.70557	0.21846
2408.77700	0.21953
2406.84844	0.22064
2404.91987	0.22181
2402.99131	0.22298
2401.06274	0.22422
2399.13418	0.22543
2397.20562	0.22658
2395.27705	0.22780
2393.34849	0.22902
2391.41992	0.23027
2389.49136	0.23158
2387.56279	0.23304
2385.63423	0.23494
2383.70566	0.23756
2381.77710	0.24095
2379.84854	0.24492
2377.91997	0.24917
2375.99141	0.25381
2374.06284	0.25922
2372.13428	0.26506
2370.20571	0.27084
2368.27715	0.27682
2366.34858	0.28281
2364.42002	0.28747
2362.49146	0.29061
2360.56289	0.29220
2358.63433	0.29263
2356.70576	0.29340
2354.77720	0.29323
2352.84863	0.29110
2350.92007	0.28809
2348.99150	0.28628
2347.06294	0.28706
2345.13437	0.29087
2343.20581	0.29612
2341.27725	0.29993
2339.34868	0.30217
2337.42012	0.30341
2335.49155	0.30398
2333.56299	0.30436
2331.63442	0.30499
2329.70586	0.30583
2327.77729	0.30666
2325.84873	0.30704
2323.92017	0.30671
2321.99160	0.30614
2320.06304	0.30593
2318.13447	0.30600
2316.20591	0.30587
2314.27734	0.30566
2312.34878	0.30591
2310.42021	0.30668
2308.49165	0.30735
2306.56309	0.30769
2304.63452	0.30823
2302.70596	0.30914
2300.77739	0.31018
2298.84883	0.31137
2296.92026	0.31279
2294.99170	0.31420
2293.06313	0.31548
2291.13457	0.31681
2289.20601	0.31832
2287.27744	0.31980
2285.34888	0.32117
2283.42031	0.32265
2281.49175	0.32446
2279.56318	0.32662
2277.63462	0.32883
2275.70605	0.33096
2273.77749	0.33311
2271.84893	0.33532
2269.92036	0.33754
2267.99180	0.33973
2266.06323	0.34190
2264.13467	0.34407
2262.20610	0.34615
2260.27754	0.34806
2258.34897	0.34997
2256.42041	0.35202
2254.49185	0.35412
2252.56328	0.35620
2250.63472	0.35834
2248.70615	0.36052
2246.77759	0.36264
2244.84902	0.36477
2242.92046	0.36702
2240.99189	0.36929
2239.06333	0.37136
2237.13477	0.37336
2235.20620	0.37558
2233.27764	0.37797
2231.34907	0.38032
2229.42051	0.38249
2227.49194	0.38462
2225.56338	0.38697
2223.63481	0.38936
2221.70625	0.39162
2219.77769	0.39379
2217.84912	0.39590
2215.92056	0.39798
2213.99199	0.40019
2212.06343	0.40248
2210.13486	0.40468
2208.20630	0.40681
2206.27773	0.40895
2204.34917	0.41112
2202.42061	0.41319
2200.49204	0.41514
2198.56348	0.41714
2196.63491	0.41922
2194.70635	0.42128
2192.77778	0.42318
2190.84922	0.42500
2188.92065	0.42696
2186.99209	0.42894
2185.06353	0.43075
2183.13496	0.43243
2181.20640	0.43398
2179.27783	0.43552
2177.34927	0.43725
2175.42070	0.43907
2173.49214	0.44066
2171.56357	0.44199
2169.63501	0.44325
2167.70645	0.44460
2165.77788	0.44603
2163.84932	0.44741
2161.92075	0.44868
2159.99219	0.44983
2158.06362	0.45081
2156.13506	0.45177
2154.20649	0.45278
2152.27793	0.45365
2150.34937	0.45433
2148.42080	0.45504
2146.49224	0.45571
2144.56367	0.45618
2142.63511	0.45646
2140.70654	0.45665
2138.77798	0.45686
2136.84941	0.45716
2134.92085	0.45747
2132.99229	0.45756
2131.06372	0.45743
2129.13516	0.45719
2127.20659	0.45698
2125.27803	0.45676
2123.34946	0.45644
2121.42090	0.45594
2119.49233	0.45529
2117.56377	0.45465
2115.63521	0.45404
2113.70664	0.45335
2111.77808	0.45252
2109.84951	0.45167
2107.92095	0.45079
2105.99238	0.44967
2104.06382	0.44834
2102.13525	0.44706
2100.20669	0.44586
2098.27812	0.44452
2096.34956	0.44301
2094.42100	0.44147
2092.49243	0.43996
2090.56387	0.43833
2088.63530	0.43647
2086.70674	0.43455
2084.77817	0.43271
2082.84961	0.43095
2080.92104	0.42915
2078.99248	0.42726
2077.06392	0.42521
2075.13535	0.42303
2073.20679	0.42078
2071.27822	0.41852
2069.34966	0.41629
2067.42109	0.41408
2065.49253	0.41189
2063.56396	0.40961
2061.63540	0.40722
2059.70684	0.40477
2057.77827	0.40223
2055.84971	0.39958
2053.92114	0.39689
2051.99258	0.39421
2050.06401	0.39156
2048.13545	0.38900
2046.20688	0.38652
2044.27832	0.38403
2042.34976	0.38139
2040.42119	0.37857
2038.49263	0.37570
2036.56406	0.37294
2034.63550	0.37024
2032.70693	0.36741
2030.77837	0.36449
2028.84980	0.36166
2026.92124	0.35897
2024.99268	0.35628
2023.06411	0.35346
2021.13555	0.35064
2019.20698	0.34800
2017.27842	0.34541
2015.34985	0.34262
2013.42129	0.33971
2011.49272	0.33686
2009.56416	0.33414
2007.63560	0.33149
2005.70703	0.32881
2003.77847	0.32608
2001.84990	0.32337
1999.92134	0.32069
1997.99277	0.31801
1996.06421	0.31545
1994.13564	0.31313
1992.20708	0.31079
1990.27852	0.30815
1988.34995	0.30550
1986.42139	0.30292
1984.49282	0.30035
1982.56426	0.29791
1980.63569	0.29559
1978.70713	0.29332
1976.77856	0.29107
1974.85000	0.28890
1972.92144	0.28681
1970.99287	0.28475
1969.06431	0.28269
1967.13574	0.28065
1965.20718	0.27854
1963.27861	0.27642
1961.35005	0.27440
1959.42148	0.27242
1957.49292	0.27053
1955.56436	0.26875
1953.63579	0.26697
1951.70723	0.26515
1949.77866	0.26346
1947.85010	0.26200
1945.92153	0.26067
1943.99297	0.25946
1942.06440	0.25817
1940.13584	0.25649
1938.20728	0.25472
1936.27871	0.25317
1934.35015	0.25182
1932.42158	0.25058
1930.49302	0.24933
1928.56445	0.24818
1926.63589	0.24717
1924.70732	0.24639
1922.77876	0.24572
1920.85020	0.24480
1918.92163	0.24382
1916.99307	0.24286
1915.06450	0.24174
1913.13594	0.24070
1911.20737	0.24005
1909.27881	0.23953
1907.35024	0.23881
1905.42168	0.23792
1903.49312	0.23716
1901.56455	0.23659
1899.63599	0.23609
1897.70742	0.23574
1895.77886	0.23556
1893.85029	0.23523
1891.92173	0.23472
1889.99316	0.23447
1888.06460	0.23427
1886.13604	0.23390
1884.20747	0.23359
1882.27891	0.23342
1880.35034	0.23327
1878.42178	0.23314
1876.49321	0.23309
1874.56465	0.23308
1872.63608	0.23327
1870.70752	0.23388
1868.77896	0.23492
1866.85039	0.23529
1864.92183	0.23471
1862.99326	0.23425
1861.06470	0.23426
1859.13613	0.23460
1857.20757	0.23500
1855.27900	0.23539
1853.35044	0.23576
1851.42187	0.23638
1849.49331	0.23725
1847.56475	0.23821
1845.63618	0.23930
1843.70762	0.24042
1841.77905	0.24096
1839.85049	0.24108
1837.92192	0.24170
1835.99336	0.24267
1834.06479	0.24367
1832.13623	0.24485
1830.20767	0.24671
1828.27910	0.24851
1826.35054	0.24946
1824.42197	0.25042
1822.49341	0.25131
1820.56484	0.25228
1818.63628	0.25366
1816.70771	0.25536
1814.77915	0.25704
1812.85059	0.25888
1810.92202	0.26109
1808.99346	0.26323
1807.06489	0.26511
1805.13633	0.26692
1803.20776	0.26914
1801.27920	0.27188
1799.35063	0.27489
1797.42207	0.27751
1795.49351	0.28005
1793.56494	0.28315
1791.63638	0.28699
1789.70781	0.29010
1787.77925	0.29223
1785.85068	0.29519
1783.92212	0.29894
1781.99355	0.30300
1780.06499	0.30734
1778.13643	0.31168
1776.20786	0.31573
1774.27930	0.32033
1772.35073	0.32668
1770.42217	0.33308
1768.49360	0.33782
1766.56504	0.34241
1764.63647	0.34751
1762.70791	0.35357
1760.77935	0.36131
1758.85078	0.36835
1756.92222	0.37542
1754.99365	0.38317
1753.06509	0.39008
1751.13652	0.39849
1749.20796	0.40944
1747.27939	0.41984
1745.35083	0.42837
1743.42227	0.43734
1741.49370	0.44750
1739.56514	0.45972
1737.63657	0.47196
1735.70801	0.48273
1733.77944	0.49965
1731.85088	0.51991
1729.92231	0.53514
1727.99375	0.55052
1726.06519	0.56718
1724.13662	0.58567
1722.20806	0.60586
1720.27949	0.62450
1718.35093	0.64659
1716.42236	0.68004
1714.49380	0.71108
1712.56523	0.73510
1710.63667	0.75841
1708.70811	0.78374
1706.77954	0.81301
1704.85098	0.84850
1702.92241	0.87955
1700.99385	0.90922
1699.06528	0.95477
1697.13672	0.99713
1695.20815	1.03976
1693.27959	1.08058
1691.35103	1.11318
1689.42246	1.15145
1687.49390	1.19207
1685.56533	1.23062
1683.63677	1.29169
1681.70820	1.35553
1679.77964	1.39432
1677.85107	1.43169
1675.92251	1.47553
1673.99395	1.53029
1672.06538	1.57818
1670.13682	1.62516
1668.20825	1.68772
1666.27969	1.73630
1664.35112	1.77655
1662.42256	1.82852
1660.49399	1.88876
1658.56543	1.93473
1656.63687	1.97136
1654.70830	2.00525
1652.77974	2.06348
1650.85117	2.12049
1648.92261	2.13830
1646.99404	2.16283
1645.06548	2.19129
1643.13691	2.21122
1641.20835	2.22306
1639.27979	2.23354
1637.35122	2.24002
1635.42266	2.24244
1633.49409	2.23873
1631.56553	2.22723
1629.63696	2.21282
1627.70840	2.18695
1625.77983	2.15600
1623.85127	2.11592
1621.92271	2.06725
1619.99414	2.02546
1618.06558	1.98335
1616.13701	1.92042
1614.20845	1.85791
1612.27988	1.81176
1610.35132	1.76280
1608.42275	1.70933
1606.49419	1.65614
1604.56562	1.60690
1602.63706	1.55929
1600.70850	1.51232
1598.77993	1.46886
1596.85137	1.42815
1594.92280	1.38861
1592.99424	1.35045
1591.06567	1.31566
1589.13711	1.28310
1587.20854	1.25276
1585.27998	1.22450
1583.35142	1.19806
1581.42285	1.17400
1579.49429	1.15343
1577.56572	1.13512
1575.63716	1.11241
1573.70859	1.09206
1571.78003	1.07896
1569.85146	1.06523
1567.92290	1.04970
1565.99434	1.03826
1564.06577	1.02940
1562.13721	1.02203
1560.20864	1.01667
1558.28008	1.00937
1556.35151	1.00252
1554.42295	0.99777
1552.49438	0.99262
1550.56582	0.98670
1548.63726	0.97968
1546.70869	0.97245
1544.78013	0.96433
1542.85156	0.95430
1540.92300	0.94025
1538.99443	0.91749
1537.06587	0.90078
1535.13730	0.89027
1533.20874	0.87709
1531.28018	0.86285
1529.35161	0.85227
1527.42305	0.84208
1525.49448	0.83151
1523.56592	0.82283
1521.63735	0.81439
1519.70879	0.80489
1517.78022	0.79655
1515.85166	0.78710
1513.92310	0.77751
1511.99453	0.76977
1510.06597	0.76343
1508.13740	0.75792
1506.20884	0.74760
1504.28027	0.73707
1502.35171	0.73130
1500.42314	0.72694
1498.49458	0.72249
1496.56602	0.71673
1494.63745	0.71056
1492.70889	0.70601
1490.78032	0.70273
1488.85176	0.69898
1486.92319	0.69433
1484.99463	0.69009
1483.06606	0.68680
1481.13750	0.68425
1479.20894	0.68215
1477.28037	0.68069
1475.35181	0.67998
1473.42324	0.67936
1471.49468	0.67712
1469.56611	0.67383
1467.63755	0.67114
1465.70898	0.66918
1463.78042	0.66757
1461.85186	0.66647
1459.92329	0.66623
1457.99473	0.66644
1456.06616	0.66522
1454.13760	0.66234
1452.20903	0.65968
1450.28047	0.65739
1448.35190	0.65538
1446.42334	0.65309
1444.49478	0.65073
1442.56621	0.64883
1440.63765	0.64722
1438.70908	0.64572
1436.78052	0.64377
1434.85195	0.64110
1432.92339	0.63880
1430.99482	0.63729
1429.06626	0.63623
1427.13770	0.63547
1425.20913	0.63520
1423.28057	0.63524
1421.35200	0.63512
1419.42344	0.63496
1417.49487	0.63415
1415.56631	0.63223
1413.63774	0.63047
1411.70918	0.62947
1409.78062	0.62907
1407.85205	0.62897
1405.92349	0.62922
1403.99492	0.62925
1402.06636	0.62851
1400.13779	0.62757
1398.20923	0.62645
1396.28066	0.62455
1394.35210	0.62163
1392.42354	0.61830
1390.49497	0.61548
1388.56641	0.61301
1386.63784	0.61018
1384.70928	0.60685
1382.78071	0.60364
1380.85215	0.60086
1378.92358	0.59865
1376.99502	0.59713
1375.06646	0.59618
1373.13789	0.59530
1371.20933	0.59431
1369.28076	0.59343
1367.35220	0.59242
1365.42363	0.59122
1363.49507	0.59024
1361.56650	0.58921
1359.63794	0.58777
1357.70937	0.58635
1355.78081	0.58508
1353.85225	0.58391
1351.92368	0.58284
1349.99512	0.58188
1348.06655	0.58096
1346.13799	0.57991
1344.20942	0.57884
1342.28086	0.57812
1340.35229	0.57777
1338.42373	0.57724
1336.49517	0.57622
1334.56660	0.57516
1332.63804	0.57443
1330.70947	0.57401
1328.78091	0.57380
1326.85234	0.57378
1324.92378	0.57388
1322.99521	0.57391
1321.06665	0.57389
1319.13809	0.57389
1317.20952	0.57364
1315.28096	0.57311
1313.35239	0.57249
1311.42383	0.57162
1309.49526	0.57053
1307.56670	0.56952
1305.63813	0.56860
1303.70957	0.56772
1301.78101	0.56685
1299.85244	0.56586
1297.92388	0.56470
1295.99531	0.56351
1294.06675	0.56230
1292.13818	0.56100
1290.20962	0.55987
1288.28105	0.55909
1286.35249	0.55845
1284.42393	0.55766
1282.49536	0.55667
1280.56680	0.55564
1278.63823	0.55470
1276.70967	0.55383
1274.78110	0.55296
1272.85254	0.55212
1270.92397	0.55150
1268.99541	0.55102
1267.06685	0.55049
1265.13828	0.54991
1263.20972	0.54939
1261.28115	0.54893
1259.35259	0.54846
1257.42402	0.54796
1255.49546	0.54763
1253.56689	0.54757
1251.63833	0.54761
1249.70977	0.54744
1247.78120	0.54706
1245.85264	0.54686
1243.92407	0.54673
1241.99551	0.54619
1240.06694	0.54525
1238.13838	0.54423
1236.20981	0.54314
1234.28125	0.54176
1232.35269	0.54015
1230.42412	0.53856
1228.49556	0.53718
1226.56699	0.53588
1224.63843	0.53449
1222.70986	0.53306
1220.78130	0.53175
1218.85273	0.53060
1216.92417	0.52955
1214.99561	0.52867
1213.06704	0.52794
1211.13848	0.52723
1209.20991	0.52659
1207.28135	0.52605
1205.35278	0.52546
1203.42422	0.52472
1201.49565	0.52393
1199.56709	0.52312
1197.63853	0.52228
1195.70996	0.52153
1193.78140	0.52086
1191.85283	0.52012
1189.92427	0.51953
1187.99570	0.51926
1186.06714	0.51902
1184.13857	0.51864
1182.21001	0.51858
1180.28145	0.51902
1178.35288	0.51975
1176.42432	0.52075
1174.49575	0.52187
1172.56719	0.52271
1170.63862	0.52324
1168.71006	0.52380
1166.78149	0.52457
1164.85293	0.52555
1162.92437	0.52651
1160.99580	0.52703
1159.06724	0.52709
1157.13867	0.52691
1155.21011	0.52637
1153.28154	0.52522
1151.35298	0.52344
1149.42441	0.52127
1147.49585	0.51883
1145.56729	0.51610
1143.63872	0.51326
1141.71016	0.51066
1139.78159	0.50856
1137.85303	0.50705
1135.92446	0.50603
1133.99590	0.50527
1132.06733	0.50469
1130.13877	0.50429
1128.21021	0.50387
1126.28164	0.50331
1124.35308	0.50273
1122.42451	0.50232
1120.49595	0.50235
1118.56738	0.50298
1116.63882	0.50386
1114.71025	0.50472
1112.78169	0.50568
1110.85312	0.50668
1108.92456	0.50761
1106.99600	0.50859
1105.06743	0.50958
1103.13887	0.51065
1101.21030	0.51200
1099.28174	0.51353
1097.35317	0.51531
1095.42461	0.51797
1093.49604	0.52171
1091.56748	0.52645
1089.63892	0.53266
1087.71035	0.54040
1085.78179	0.54893
1083.85322	0.55756
1081.92466	0.56541
1079.99609	0.57131
1078.06753	0.57444
1076.13896	0.57444
1074.21040	0.57148
1072.28184	0.56618
1070.35327	0.55949
1068.42471	0.55239
1066.49614	0.54555
1064.56758	0.53935
1062.63901	0.53392
1060.71045	0.52918
1058.78188	0.52506
1056.85332	0.52146
1054.92476	0.51817
1052.99619	0.51506
1051.06763	0.51242
1049.13906	0.51077
1047.21050	0.51006
1045.28193	0.50976
1043.35337	0.50964
1041.42480	0.50978
1039.49624	0.50990
1037.56768	0.50979
1035.63911	0.50974
1033.71055	0.50966
1031.78198	0.50909
1029.85342	0.50788
1027.92485	0.50621
1025.99629	0.50440
1024.06772	0.50298
1022.13916	0.50221
1020.21060	0.50179
1018.28203	0.50147
1016.35347	0.50123
1014.42490	0.50095
1012.49634	0.50061
1010.56777	0.50041
1008.63921	0.50060
1006.71064	0.50121
1004.78208	0.50210
1002.85352	0.50344
1000.92495	0.50559
998.99639	0.50877
997.06782	0.51285
995.13926	0.51732
993.21069	0.52143
991.28213	0.52450
989.35356	0.52615
987.42500	0.52658
985.49644	0.52639
983.56787	0.52615
981.63931	0.52617
979.71074	0.52668
977.78218	0.52788
975.85361	0.52975
973.92505	0.53210
971.99648	0.53493
970.06792	0.53818
968.13936	0.54174
966.21079	0.54558
964.28223	0.54991
962.35366	0.55493
960.42510	0.56018
958.49653	0.56532
956.56797	0.57061
954.63940	0.57634
952.71084	0.58256
950.78228	0.58911
948.85371	0.59560
946.92515	0.60170
944.99658	0.60756
943.06802	0.61334
941.13945	0.61895
939.21089	0.62474
937.28232	0.63092
935.35376	0.63685
933.42520	0.64250
931.49663	0.64834
929.56807	0.65398
927.63950	0.65934
925.71094	0.66493
923.78237	0.67084
921.85381	0.67725
919.92524	0.68428
917.99668	0.69149
916.06812	0.69851
914.13955	0.70546
912.21099	0.71269
910.28242	0.72049
908.35386	0.72896
906.42529	0.73817
904.49673	0.74776
902.56816	0.75725
900.63960	0.76677
898.71104	0.77628
896.78247	0.78598
894.85391	0.79600
892.92534	0.80593
890.99678	0.81603
889.06821	0.82650
887.13965	0.83751
885.21108	0.84948
883.28252	0.86089
881.35396	0.87082
879.42539	0.88101
877.49683	0.89229
875.56826	0.90445
873.63970	0.91664
871.71113	0.92777
869.78257	0.93795
867.85400	0.94783
865.92544	0.95794
863.99687	0.96910
862.06831	0.98240
860.13975	0.99637
858.21118	1.00906
856.28262	1.02140
854.35405	1.03411
852.42549	1.04644
850.49692	1.05721
848.56836	1.06632
846.63979	1.07585
844.71123	1.08734
842.78267	1.09972
840.85410	1.11168
838.92554	1.12341
836.99697	1.13383
835.06841	1.14160
833.13984	1.15076
831.21128	1.16510
829.28271	1.18230
827.35415	1.20086
825.42559	1.21848
823.49702	1.23075
821.56846	1.23866
819.63989	1.24497
817.71133	1.24648
815.78276	1.24193
813.85420	1.24602
811.92563	1.27092
809.99707	1.29896
808.06851	1.30987
806.13994	1.31736
804.21138	1.32793
802.28281	1.33002
800.35425	1.33110
798.42568	1.34676
796.49712	1.37162
794.56855	1.39744
792.63999	1.42776
790.71143	1.43074
788.78286	1.39134
786.85430	1.37296
784.92573	1.38312
782.99717	1.37102
781.06860	1.37192
779.14004	1.42138
777.21147	1.46080
775.28291	1.43768
773.35435	1.40303
771.42578	1.43544
769.49722	1.50737
767.56865	1.50268
765.64009	1.45141
763.71152	1.39065
761.78296	1.39565
759.85439	1.57164
757.92583	1.67233
755.99727	1.41599
754.06870	1.28989
752.14014	1.27733
750.21157	1.24489
748.28301	1.17307
746.35444	1.09230
744.42588	0.99313
742.49731	0.93639
740.56875	0.95175
738.64019	0.94094
736.71162	0.84371
734.78306	0.77934
732.85449	0.81776
730.92593	0.97036
728.99736	0.90610
727.06880	0.57932
725.14023	0.37852
723.21167	0.30736
721.28311	0.44381
719.35454	4.31613
717.42598	4.30456
715.49741	0.17154
713.56885	-0.01162
711.64028	0.17030
709.71172	0.01432
707.78315	-0.19672
705.85459	-0.10627
703.92603	0.08808
701.99746	0.20724
700.06890	0.28263
698.14033	0.34577
696.21177	0.45774
694.28320	0.51305
692.35464	0.42545
690.42607	0.40066
688.49751	0.43571
686.56895	0.44574
684.64038	0.38528
682.71182	0.29933
680.78325	0.29597
678.85469	0.37676
676.92612	0.41795
674.99756	0.41251
673.06899	0.50466
671.14043	0.65034
669.21187	0.50674
667.28330	0.44012
665.35474	0.40195
663.42617	0.30937
661.49761	0.26200
659.56904	0.27566
657.64048	0.26072
655.71191	0.25242
653.78335	0.33523
651.85479	0.42169
649.92622	0.36079
647.99766	0.25633
646.06909	0.19512
644.14053	0.16524
642.21196	0.13495
640.28340	0.15949
638.35483	0.25970
636.42627	0.33074
634.49771	0.28547
632.56914	0.19789
630.64058	0.18202
628.71201	0.25669
626.78345	0.39599
624.85488	0.47019
622.92632	0.46603
620.99775	0.49342
619.06919	0.39786
617.14062	0.28192
615.21206	0.33453
613.28350	0.31802
611.35493	0.16906
609.42637	0.09968
607.49780	0.11737
605.56924	0.18120
603.64067	0.23898
601.71211	0.27903
599.78354	0.34403
597.85498	0.33242
595.92642	0.25507
593.99785	0.21204
592.06929	0.19120
590.14072	0.17506
588.21216	0.18319
586.28359	0.23028
584.35503	0.31112
582.42646	0.36477
580.49790	0.33630
578.56934	0.32646
576.64077	0.39564
574.71221	0.42139
572.78364	0.31730
570.85508	0.21258
568.92651	0.20725
566.99795	0.24904
565.06938	0.23426
563.14082	0.18928
561.21226	0.15710
559.28369	0.12641
557.35513	0.08983
555.42656	0.07850
553.49800	0.09091
551.56943	0.09906
549.64087	0.12888
547.71230	0.18453
545.78374	0.24702
543.85518	0.28679
541.92661	0.26018
539.99805	0.23665
538.06948	0.24406
536.14092	0.25931
534.21235	0.25857
532.28379	0.22226
530.35522	0.16393
528.42666	0.10200
526.49810	0.08555
524.56953	0.14163
522.64097	0.24133
520.71240	0.30817
518.78384	0.26673
516.85527	0.22966
514.92671	0.27627
512.99814	0.32479
511.06958	0.30055
509.14102	0.22942
507.21245	0.18540
505.28389	0.22392
503.35532	0.26038
501.42676	0.23081
499.49819	0.21603
