3997.91411	0.07128
3995.98555	0.07147
3994.05698	0.07209
3992.12842	0.07258
3990.19985	0.07263
3988.27129	0.07267
3986.34272	0.07303
3984.41416	0.07358
3982.48560	0.07413
3980.55703	0.07434
3978.62847	0.07427
3976.69990	0.07432
3974.77134	0.07435
3972.84277	0.07422
3970.91421	0.07424
3968.98564	0.07458
3967.05708	0.07492
3965.12852	0.07497
3963.19995	0.07491
3961.27139	0.07504
3959.34282	0.07545
3957.41426	0.07578
3955.48569	0.07589
3953.55713	0.07595
3951.62856	0.07592
3949.70000	0.07584
3947.77144	0.07592
3945.84287	0.07602
3943.91431	0.07594
3941.98574	0.07600
3940.05718	0.07601
3938.12861	0.07574
3936.20005	0.07557
3934.27148	0.07564
3932.34292	0.07580
3930.41436	0.07589
3928.48579	0.07588
3926.55723	0.07592
3924.62866	0.07596
3922.70010	0.07572
3920.77153	0.07537
3918.84297	0.07509
3916.91440	0.07492
3914.98584	0.07504
3913.05728	0.07528
3911.12871	0.07537
3909.20015	0.07517
3907.27158	0.07463
3905.34302	0.07395
3903.41445	0.07377
3901.48589	0.07431
3899.55732	0.07452
3897.62876	0.07430
3895.70020	0.07425
3893.77163	0.07428
3891.84307	0.07453
3889.91450	0.07500
3887.98594	0.07475
3886.05737	0.07426
3884.12881	0.07439
3882.20024	0.07445
3880.27168	0.07441
3878.34312	0.07469
3876.41455	0.07467
3874.48599	0.07464
3872.55742	0.07511
3870.62886	0.07588
3868.70029	0.07695
3866.77173	0.07736
3864.84316	0.07678
3862.91460	0.07639
3860.98604	0.07670
3859.05747	0.07700
3857.12891	0.07681
3855.20034	0.07665
3853.27178	0.07787
3851.34321	0.07990
3849.41465	0.08033
3847.48608	0.08042
3845.55752	0.08054
3843.62896	0.08051
3841.70039	0.08084
3839.77183	0.08181
3837.84326	0.08319
3835.91470	0.08461
3833.98613	0.08528
3832.05757	0.08516
3830.12900	0.08512
3828.20044	0.08553
3826.27187	0.08643
3824.34331	0.08756
3822.41475	0.08844
3820.48618	0.08970
3818.55762	0.09098
3816.62905	0.09163
3814.70049	0.09271
3812.77192	0.09398
3810.84336	0.09467
3808.91479	0.09491
3806.98623	0.09542
3805.05767	0.09645
3803.12910	0.09708
3801.20054	0.09840
3799.27197	0.10083
3797.34341	0.10224
3795.41484	0.10344
3793.48628	0.10474
3791.55771	0.10566
3789.62915	0.10670
3787.70059	0.10795
3785.77202	0.10925
3783.84346	0.11088
3781.91489	0.11270
3779.98633	0.11430
3778.05776	0.11594
3776.12920	0.11747
3774.20063	0.11894
3772.27207	0.12057
3770.34351	0.12250
3768.41494	0.12481
3766.48638	0.12678
3764.55781	0.12850
3762.62925	0.13018
3760.70068	0.13174
3758.77212	0.13376
3756.84355	0.13614
3754.91499	0.13811
3752.98643	0.13992
3751.05786	0.14258
3749.12930	0.14660
3747.20073	0.14967
3745.27217	0.15190
3743.34360	0.15568
3741.41504	0.15970
3739.48647	0.16230
3737.55791	0.16462
3735.62935	0.16779
3733.70078	0.17289
3731.77222	0.17904
3729.84365	0.18422
3727.91509	0.18818
3725.98652	0.19270
3724.05796	0.19909
3722.12939	0.20655
3720.20083	0.21443
3718.27227	0.22267
3716.34370	0.23080
3714.41514	0.23799
3712.48657	0.24572
3710.55801	0.25787
3708.62944	0.27312
3706.70088	0.28583
3704.77231	0.29707
3702.84375	0.31014
3700.91519	0.32741
3698.98662	0.34618
3697.05806	0.36379
3695.12949	0.38247
3693.20093	0.40182
3691.27236	0.42229
3689.34380	0.45051
3687.41523	0.48768
3685.48667	0.51989
3683.55811	0.54661
3681.62954	0.57441
3679.70098	0.60527
3677.77241	0.63766
3675.84385	0.67642
3673.91528	0.73094
3671.98672	0.77569
3670.05815	0.81537
3668.12959	0.87173
3666.20103	0.92221
3664.27246	0.96251
3662.34390	1.00543
3660.41533	1.05226
3658.48677	1.09832
3656.55820	1.14727
3654.62964	1.20315
3652.70107	1.24990
3650.77251	1.28845
3648.84395	1.34272
3646.91538	1.41486
3644.98682	1.46846
3643.05825	1.50856
3641.12969	1.54888
3639.20112	1.59292
3637.27256	1.63720
3635.34399	1.68019
3633.41543	1.72285
3631.48687	1.76209
3629.55830	1.80150
3627.62974	1.85734
3625.70117	1.91222
3623.77261	1.94765
3621.84404	1.97991
3619.91548	2.01720
3617.98691	2.06407
3616.05835	2.10962
3614.12979	2.14704
3612.20122	2.18714
3610.27266	2.22768
3608.34409	2.26775
3606.41553	2.31063
3604.48696	2.34987
3602.55840	2.38447
3600.62983	2.42308
3598.70127	2.46535
3596.77271	2.50564
3594.84414	2.54658
3592.91558	2.58894
3590.98701	2.62852
3589.05845	2.66588
3587.12988	2.71140
3585.20132	2.76165
3583.27275	2.80245
3581.34419	2.83939
3579.41562	2.88045
3577.48706	2.92503
3575.55850	2.96930
3573.62993	3.01312
3571.70137	3.05472
3569.77280	3.09391
3567.84424	3.13576
3565.91567	3.18865
3563.98711	3.24078
3562.05854	3.28264
3560.12998	3.32523
3558.20142	3.37294
3556.27285	3.42207
3554.34429	3.46754
3552.41572	3.51149
3550.48716	3.55649
3548.55859	3.60209
3546.63003	3.64984
3544.70146	3.70034
3542.77290	3.74742
3540.84434	3.78925
3538.91577	3.83280
3536.98721	3.88180
3535.05864	3.93387
3533.13008	3.98328
3531.20151	4.03130
3529.27295	4.08046
3527.34438	4.12933
3525.41582	4.17510
3523.48726	4.22085
3521.55869	4.27277
3519.63013	4.32612
3517.70156	4.37641
3515.77300	4.42594
3513.84443	4.47380
3511.91587	4.51741
3509.98730	4.56432
3508.05874	4.61712
3506.13018	4.66601
3504.20161	4.71238
3502.27305	4.76448
3500.34448	4.81813
3498.41592	4.86647
3496.48735	4.91475
3494.55879	4.96467
3492.63022	5.01128
3490.70166	5.05762
3488.77310	5.10768
3486.84453	5.15599
3484.91597	5.20091
3482.98740	5.24611
3481.05884	5.29375
3479.13027	5.34755
3477.20171	5.40691
3475.27314	5.46503
3473.34458	5.51323
3471.41602	5.54954
3469.48745	5.58527
3467.55889	5.63086
3465.63032	5.68440
3463.70176	5.73480
3461.77319	5.77591
3459.84463	5.82131
3457.91606	5.87387
3455.98750	5.92649
3454.05894	5.98346
3452.13037	6.03943
3450.20181	6.09038
3448.27324	6.14330
3446.34468	6.20500
3444.41611	6.27883
3442.48755	6.34660
3440.55898	6.37662
3438.63042	6.38650
3436.70186	6.41508
3434.77329	6.46397
3432.84473	6.51576
3430.91616	6.56656
3428.98760	6.62361
3427.05903	6.68363
3425.13047	6.75231
3423.20190	6.82949
3421.27334	6.91210
3419.34478	6.98042
3417.41621	7.01608
3415.48765	7.04180
3413.55908	7.07230
3411.63052	7.10664
3409.70195	7.13140
3407.77339	7.15257
3405.84482	7.18645
3403.91626	7.23014
3401.98770	7.26954
3400.05913	7.33115
3398.13057	7.40702
3396.20200	7.43511
3394.27344	7.44536
3392.34487	7.47201
3390.41631	7.49176
3388.48774	7.51668
3386.55918	7.60055
3384.63062	7.70384
3382.70205	7.75690
3380.77349	7.77235
3378.84492	7.79376
3376.91636	7.84448
3374.98779	7.86514
3373.05923	7.83689
3371.13066	7.81930
3369.20210	7.86017
3367.27354	7.91155
3365.34497	7.93433
3363.41641	7.96077
3361.48784	8.01724
3359.55928	8.09148
3357.63071	8.10524
3355.70215	8.06451
3353.77358	8.03029
3351.84502	8.04724
3349.91646	8.07024
3347.98789	8.03403
3346.05933	7.99564
3344.13076	8.03196
3342.20220	8.09807
3340.27363	8.07718
3338.34507	8.03392
3336.41650	8.07286
3334.48794	8.17471
3332.55937	8.25025
3330.63081	8.26211
3328.70225	8.25546
3326.77368	8.27957
3324.84512	8.31465
3322.91655	8.34617
3320.98799	8.37826
3319.05942	8.32185
3317.13086	8.24328
3315.20229	8.23123
3313.27373	8.21720
3311.34517	8.18486
3309.41660	8.24741
3307.48804	8.40978
3305.55947	8.48806
3303.63091	8.40777
3301.70234	8.32931
3299.77378	8.37030
3297.84521	8.38166
3295.91665	8.29832
3293.98809	8.25531
3292.05952	8.28719
3290.13096	8.33783
3288.20239	8.34852
3286.27383	8.34244
3284.34526	8.35059
3282.41670	8.37279
3280.48813	8.39332
3278.55957	8.43353
3276.63101	8.45698
3274.70244	8.44226
3272.77388	8.48263
3270.84531	8.59875
3268.91675	8.69323
3266.98818	8.58867
3265.05962	8.39773
3263.13105	8.35134
3261.20249	8.40722
3259.27393	8.45620
3257.34536	8.50200
3255.41680	8.53045
3253.48823	8.53597
3251.55967	8.53431
3249.63110	8.53717
3247.70254	8.53171
3245.77397	8.51036
3243.84541	8.53063
3241.91685	8.46222
3239.98828	8.27122
3238.05972	8.19846
3236.13115	8.26508
3234.20259	8.30482
3232.27402	8.27902
3230.34546	8.21708
3228.41689	8.12351
3226.48833	8.12186
3224.55977	8.27941
3222.63120	8.36699
3220.70264	8.26733
3218.77407	8.21692
3216.84551	8.20950
3214.91694	8.14919
3212.98838	8.12608
3211.05981	8.14067
3209.13125	8.12714
3207.20269	8.06362
3205.27412	7.95335
3203.34556	7.86913
3201.41699	7.86427
3199.48843	7.88094
3197.55986	7.85984
3195.63130	7.84171
3193.70273	7.83201
3191.77417	7.76004
3189.84561	7.65148
3187.91704	7.58326
3185.98848	7.57451
3184.05991	7.61742
3182.13135	7.65015
3180.20278	7.59036
3178.27422	7.46181
3176.34565	7.34036
3174.41709	7.24819
3172.48853	7.17317
3170.55996	7.08753
3168.63140	7.01051
3166.70283	6.98059
3164.77427	6.94512
3162.84570	6.87535
3160.91714	6.80887
3158.98857	6.72895
3157.06001	6.64203
3155.13145	6.59754
3153.20288	6.56236
3151.27432	6.48158
3149.34575	6.38127
3147.41719	6.30446
3145.48862	6.24731
3143.56006	6.18402
3141.63149	6.11639
3139.70293	6.05846
3137.77437	6.00135
3135.84580	5.92745
3133.91724	5.84548
3131.98867	5.76565
3130.06011	5.69055
3128.13154	5.62497
3126.20298	5.55377
3124.27441	5.47217
3122.34585	5.39239
3120.41729	5.31670
3118.48872	5.24458
3116.56016	5.17621
3114.63159	5.11149
3112.70303	5.04968
3110.77446	4.98730
3108.84590	4.92415
3106.91733	4.86252
3104.98877	4.79713
3103.06021	4.72662
3101.13164	4.65640
3099.20308	4.58830
3097.27451	4.52431
3095.34595	4.46265
3093.41738	4.39503
3091.48882	4.32231
3089.56025	4.25478
3087.63169	4.19372
3085.70312	4.13348
3083.77456	4.07325
3081.84600	4.01371
3079.91743	3.95253
3077.98887	3.89063
3076.06030	3.83048
3074.13174	3.77132
3072.20317	3.71353
3070.27461	3.65724
3068.34604	3.60094
3066.41748	3.54524
3064.48892	3.49201
3062.56035	3.43991
3060.63179	3.38659
3058.70322	3.33282
3056.77466	3.27902
3054.84609	3.22423
3052.91753	3.16998
3050.98896	3.11863
3049.06040	3.06879
3047.13184	3.01841
3045.20327	2.96773
3043.27471	2.91712
3041.34614	2.86796
3039.41758	2.82171
3037.48901	2.77692
3035.56045	2.73208
3033.63188	2.68713
3031.70332	2.64181
3029.77476	2.59657
3027.84619	2.55244
3025.91763	2.50954
3023.98906	2.46729
3022.06050	2.42499
3020.13193	2.38284
3018.20337	2.34166
3016.27480	2.30128
3014.34624	2.26115
3012.41768	2.22173
3010.48911	2.18318
3008.56055	2.14544
3006.63198	2.10881
3004.70342	2.07294
3002.77485	2.03823
3000.84629	2.00493
2998.91772	1.97162
2996.98916	1.93795
2995.06060	1.90502
2993.13203	1.87357
2991.20347	1.84331
2989.27490	1.81326
2987.34634	1.78314
2985.41777	1.75363
2983.48921	1.72547
2981.56064	1.69854
2979.63208	1.67186
2977.70352	1.64494
2975.77495	1.61815
2973.84639	1.59193
2971.91782	1.56667
2969.98926	1.54241
2968.06069	1.51838
2966.13213	1.49370
2964.20356	1.46886
2962.27500	1.44468
2960.34644	1.42113
2958.41787	1.39768
2956.48931	1.37347
2954.56074	1.34871
2952.63218	1.32441
2950.70361	1.30068
2948.77505	1.27729
2946.84648	1.25474
2944.91792	1.23334
2942.98936	1.21234
2941.06079	1.19096
2939.13223	1.16911
2937.20366	1.14739
2935.27510	1.12666
2933.34653	1.10695
2931.41797	1.08749
2929.48940	1.06746
2927.56084	1.04673
2925.63228	1.02662
2923.70371	1.00805
2921.77515	0.99015
2919.84658	0.97278
2917.91802	0.95627
2915.98945	0.93961
2914.06089	0.92237
2912.13232	0.90586
2910.20376	0.89083
2908.27520	0.87651
2906.34663	0.86202
2904.41807	0.84728
2902.48950	0.83256
2900.56094	0.81837
2898.63237	0.80518
2896.70381	0.79236
2894.77524	0.77926
2892.84668	0.76641
2890.91812	0.75428
2888.98955	0.74293
2887.06099	0.73217
2885.13242	0.72169
2883.20386	0.71142
2881.27529	0.70152
2879.34673	0.69170
2877.41816	0.68168
2875.48960	0.67152
2873.56104	0.66133
2871.63247	0.65098
2869.70391	0.63984
2867.77534	0.62759
2865.84678	0.61479
2863.91821	0.60226
2861.98965	0.59053
2860.06108	0.57939
2858.13252	0.56837
2856.20396	0.55754
2854.27539	0.54752
2852.34683	0.53833
2850.41826	0.52932
2848.48970	0.52050
2846.56113	0.51236
2844.63257	0.50503
2842.70400	0.49844
2840.77544	0.49235
2838.84687	0.48649
2836.91831	0.48069
2834.98975	0.47488
2833.06118	0.46909
2831.13262	0.46331
2829.20405	0.45731
2827.27549	0.45108
2825.34692	0.44475
2823.41836	0.43843
2821.48979	0.43235
2819.56123	0.42663
2817.63267	0.42096
2815.70410	0.41507
2813.77554	0.40904
2811.84697	0.40312
2809.91841	0.39755
2807.98984	0.39232
2806.06128	0.38715
2804.13271	0.38177
2802.20415	0.37630
2800.27559	0.37104
2798.34702	0.36598
2796.41846	0.36103
2794.48989	0.35622
2792.56133	0.35142
2790.63276	0.34659
2788.70420	0.34186
2786.77563	0.33732
2784.84707	0.33294
2782.91851	0.32854
2780.98994	0.32405
2779.06138	0.31973
2777.13281	0.31572
2775.20425	0.31184
2773.27568	0.30802
2771.34712	0.30430
2769.41855	0.30056
2767.48999	0.29662
2765.56143	0.29272
2763.63286	0.28913
2761.70430	0.28564
2759.77573	0.28211
2757.84717	0.27858
2755.91860	0.27511
2753.99004	0.27177
2752.06147	0.26859
2750.13291	0.26569
2748.20435	0.26296
2746.27578	0.26003
2744.34722	0.25696
2742.41865	0.25399
2740.49009	0.25107
2738.56152	0.24817
2736.63296	0.24539
2734.70439	0.24288
2732.77583	0.24056
2730.84727	0.23816
2728.91870	0.23563
2726.99014	0.23318
2725.06157	0.23079
2723.13301	0.22837
2721.20444	0.22610
2719.27588	0.22406
2717.34731	0.22201
2715.41875	0.21991
2713.49019	0.21794
2711.56162	0.21611
2709.63306	0.21433
2707.70449	0.21255
2705.77593	0.21076
2703.84736	0.20899
2701.91880	0.20721
2699.99023	0.20550
2698.06167	0.20390
2696.13311	0.20236
2694.20454	0.20096
2692.27598	0.19966
2690.34741	0.19831
2688.41885	0.19700
2686.49028	0.19581
2684.56172	0.19453
2682.63315	0.19307
2680.70459	0.19165
2678.77603	0.19037
2676.84746	0.18919
2674.91890	0.18811
2672.99033	0.18701
2671.06177	0.18583
2669.13320	0.18465
2667.20464	0.18356
2665.27607	0.18262
2663.34751	0.18177
2661.41895	0.18092
2659.49038	0.18005
2657.56182	0.17905
2655.63325	0.17795
2653.70469	0.17696
2651.77612	0.17615
2649.84756	0.17547
2647.91899	0.17489
2645.99043	0.17437
2644.06187	0.17377
2642.13330	0.17311
2640.20474	0.17262
2638.27617	0.17225
2636.34761	0.17172
2634.41904	0.17101
2632.49048	0.17035
2630.56191	0.16977
2628.63335	0.16930
2626.70479	0.16895
2624.77622	0.16856
2622.84766	0.16818
2620.91909	0.16785
2618.99053	0.16745
2617.06196	0.16708
2615.13340	0.16692
2613.20483	0.16686
2611.27627	0.16677
2609.34771	0.16649
2607.41914	0.16599
2605.49058	0.16565
2603.56201	0.16571
2601.63345	0.16590
2599.70488	0.16598
2597.77632	0.16592
2595.84775	0.16580
2593.91919	0.16569
2591.99062	0.16557
2590.06206	0.16549
2588.13350	0.16555
2586.20493	0.16569
2584.27637	0.16583
2582.34780	0.16601
2580.41924	0.16633
2578.49067	0.16666
2576.56211	0.16690
2574.63354	0.16711
2572.70498	0.16731
2570.77642	0.16756
2568.84785	0.16797
2566.91929	0.16841
2564.99072	0.16872
2563.06216	0.16902
2561.13359	0.16945
2559.20503	0.16990
2557.27646	0.17022
2555.34790	0.17053
2553.41934	0.17093
2551.49077	0.17134
2549.56221	0.17187
2547.63364	0.17256
2545.70508	0.17320
2543.77651	0.17371
2541.84795	0.17422
2539.91938	0.17481
2537.99082	0.17548
2536.06226	0.17614
2534.13369	0.17672
2532.20513	0.17726
2530.27656	0.17796
2528.34800	0.17878
2526.41943	0.17946
2524.49087	0.17995
2522.56230	0.18056
2520.63374	0.18139
2518.70518	0.18221
2516.77661	0.18295
2514.84805	0.18361
2512.91948	0.18422
2510.99092	0.18485
2509.06235	0.18560
2507.13379	0.18642
2505.20522	0.18724
2503.27666	0.18806
2501.34810	0.18888
2499.41953	0.18971
2497.49097	0.19051
2495.56240	0.19126
2493.63384	0.19201
2491.70527	0.19281
2489.77671	0.19365
2487.84814	0.19450
2485.91958	0.19524
2483.99102	0.19599
2482.06245	0.19690
2480.13389	0.19788
2478.20532	0.19880
2476.27676	0.19963
2474.34819	0.20044
2472.41963	0.20128
2470.49106	0.20216
2468.56250	0.20307
2466.63394	0.20388
2464.70537	0.20466
2462.77681	0.20555
2460.84824	0.20652
2458.91968	0.20750
2456.99111	0.20843
2455.06255	0.20926
2453.13398	0.21006
2451.20542	0.21098
2449.27686	0.21197
2447.34829	0.21298
2445.41973	0.21405
2443.49116	0.21513
2441.56260	0.21616
2439.63403	0.21707
2437.70547	0.21788
2435.77690	0.21884
2433.84834	0.22003
2431.91978	0.22119
2429.99121	0.22225
2428.06265	0.22338
2426.13408	0.22445
2424.20552	0.22545
2422.27695	0.22655
2420.34839	0.22769
2418.41982	0.22877
2416.49126	0.22987
2414.56270	0.23100
2412.63413	0.23204
2410.70557	0.23311
2408.77700	0.23430
2406.84844	0.23554
2404.91987	0.23672
2402.99131	0.23788
2401.06274	0.23907
2399.13418	0.24022
2397.20562	0.24141
2395.27705	0.24270
2393.34849	0.24398
2391.41992	0.24520
2389.49136	0.24637
2387.56279	0.24738
2385.63423	0.24813
2383.70566	0.24861
2381.77710	0.24872
2379.84854	0.24856
2377.91997	0.24814
2375.99141	0.24738
2374.06284	0.24646
2372.13428	0.24544
2370.20571	0.24388
2368.27715	0.24176
2366.34858	0.23995
2364.42002	0.23841
2362.49146	0.23728
2360.56289	0.23803
2358.63433	0.24010
2356.70576	0.24313
2354.77720	0.24816
2352.84863	0.25466
2350.92007	0.26038
2348.99150	0.26327
2347.06294	0.26343
2345.13437	0.26216
2343.20581	0.26144
2341.27725	0.26255
2339.34868	0.26472
2337.42012	0.26678
2335.49155	0.26901
2333.56299	0.27154
2331.63442	0.27385
2329.70586	0.27603
2327.77729	0.27855
2325.84873	0.28133
2323.92017	0.28401
2321.99160	0.28701
2320.06304	0.29054
2318.13447	0.29371
2316.20591	0.29612
2314.27734	0.29837
2312.34878	0.30081
2310.42021	0.30329
2308.49165	0.30572
2306.56309	0.30814
2304.63452	0.31040
2302.70596	0.31251
2300.77739	0.31478
2298.84883	0.31723
2296.92026	0.31953
2294.99170	0.32170
2293.06313	0.32389
2291.13457	0.32613
2289.20601	0.32836
2287.27744	0.33055
2285.34888	0.33278
2283.42031	0.33504
2281.49175	0.33711
2279.56318	0.33900
2277.63462	0.34087
2275.70605	0.34275
2273.77749	0.34477
2271.84893	0.34690
2269.92036	0.34896
2267.99180	0.35102
2266.06323	0.35309
2264.13467	0.35518
2262.20610	0.35743
2260.27754	0.35978
2258.34897	0.36197
2256.42041	0.36412
2254.49185	0.36642
2252.56328	0.36876
2250.63472	0.37098
2248.70615	0.37323
2246.77759	0.37554
2244.84902	0.37774
2242.92046	0.37980
2240.99189	0.38193
2239.06333	0.38426
2237.13477	0.38669
2235.20620	0.38908
2233.27764	0.39142
2231.34907	0.39367
2229.42051	0.39576
2227.49194	0.39788
2225.56338	0.40016
2223.63481	0.40244
2221.70625	0.40465
2219.77769	0.40690
2217.84912	0.40913
2215.92056	0.41122
2213.99199	0.41322
2212.06343	0.41530
2210.13486	0.41753
2208.20630	0.41976
2206.27773	0.42194
2204.34917	0.42412
2202.42061	0.42626
2200.49204	0.42831
2198.56348	0.43029
2196.63491	0.43235
2194.70635	0.43443
2192.77778	0.43629
2190.84922	0.43805
2188.92065	0.43989
2186.99209	0.44167
2185.06353	0.44336
2183.13496	0.44515
2181.20640	0.44700
2179.27783	0.44873
2177.34927	0.45030
2175.42070	0.45180
2173.49214	0.45327
2171.56357	0.45470
2169.63501	0.45614
2167.70645	0.45752
2165.77788	0.45878
2163.84932	0.46004
2161.92075	0.46133
2159.99219	0.46253
2158.06362	0.46351
2156.13506	0.46435
2154.20649	0.46523
2152.27793	0.46613
2150.34937	0.46687
2148.42080	0.46747
2146.49224	0.46801
2144.56367	0.46849
2142.63511	0.46882
2140.70654	0.46908
2138.77798	0.46945
2136.84941	0.46982
2134.92085	0.46998
2132.99229	0.46987
2131.06372	0.46967
2129.13516	0.46949
2127.20659	0.46926
2125.27803	0.46895
2123.34946	0.46855
2121.42090	0.46810
2119.49233	0.46757
2117.56377	0.46690
2115.63521	0.46612
2113.70664	0.46527
2111.77808	0.46442
2109.84951	0.46356
2107.92095	0.46255
2105.99238	0.46138
2104.06382	0.46014
2102.13525	0.45886
2100.20669	0.45754
2098.27812	0.45621
2096.34956	0.45484
2094.42100	0.45332
2092.49243	0.45163
2090.56387	0.44987
2088.63530	0.44805
2086.70674	0.44612
2084.77817	0.44420
2082.84961	0.44234
2080.92104	0.44037
2078.99248	0.43827
2077.06392	0.43625
2075.13535	0.43427
2073.20679	0.43210
2071.27822	0.42972
2069.34966	0.42740
2067.42109	0.42516
2065.49253	0.42287
2063.56396	0.42045
2061.63540	0.41791
2059.70684	0.41533
2057.77827	0.41282
2055.84971	0.41042
2053.92114	0.40796
2051.99258	0.40529
2050.06401	0.40254
2048.13545	0.39989
2046.20688	0.39725
2044.27832	0.39452
2042.34976	0.39178
2040.42119	0.38906
2038.49263	0.38632
2036.56406	0.38358
2034.63550	0.38079
2032.70693	0.37796
2030.77837	0.37519
2028.84980	0.37244
2026.92124	0.36957
2024.99268	0.36667
2023.06411	0.36385
2021.13555	0.36105
2019.20698	0.35823
2017.27842	0.35547
2015.34985	0.35272
2013.42129	0.34997
2011.49272	0.34719
2009.56416	0.34438
2007.63560	0.34162
2005.70703	0.33894
2003.77847	0.33628
2001.84990	0.33355
1999.92134	0.33074
1997.99277	0.32798
1996.06421	0.32543
1994.13564	0.32298
1992.20708	0.32045
1990.27852	0.31786
1988.34995	0.31544
1986.42139	0.31305
1984.49282	0.31061
1982.56426	0.30815
1980.63569	0.30571
1978.70713	0.30335
1976.77856	0.30105
1974.85000	0.29877
1972.92144	0.29654
1970.99287	0.29437
1969.06431	0.29225
1967.13574	0.29012
1965.20718	0.28797
1963.27861	0.28597
1961.35005	0.28409
1959.42148	0.28222
1957.49292	0.28038
1955.56436	0.27856
1953.63579	0.27674
1951.70723	0.27494
1949.77866	0.27319
1947.85010	0.27140
1945.92153	0.26962
1943.99297	0.26803
1942.06440	0.26661
1940.13584	0.26511
1938.20728	0.26363
1936.27871	0.26237
1934.35015	0.26122
1932.42158	0.26004
1930.49302	0.25882
1928.56445	0.25766
1926.63589	0.25650
1924.70732	0.25531
1922.77876	0.25415
1920.85020	0.25305
1918.92163	0.25206
1916.99307	0.25120
1915.06450	0.25041
1913.13594	0.24955
1911.20737	0.24867
1909.27881	0.24790
1907.35024	0.24731
1905.42168	0.24675
1903.49312	0.24615
1901.56455	0.24556
1899.63599	0.24505
1897.70742	0.24462
1895.77886	0.24416
1893.85029	0.24367
1891.92173	0.24321
1889.99316	0.24300
1888.06460	0.24289
1886.13604	0.24268
1884.20747	0.24239
1882.27891	0.24216
1880.35034	0.24202
1878.42178	0.24191
1876.49321	0.24187
1874.56465	0.24183
1872.63608	0.24179
1870.70752	0.24178
1868.77896	0.24206
1866.85039	0.24248
1864.92183	0.24264
1862.99326	0.24268
1861.06470	0.24280
1859.13613	0.24316
1857.20757	0.24364
1855.27900	0.24420
1853.35044	0.24468
1851.42187	0.24510
1849.49331	0.24550
1847.56475	0.24592
1845.63618	0.24653
1843.70762	0.24758
1841.77905	0.24865
1839.85049	0.24935
1837.92192	0.25020
1835.99336	0.25115
1834.06479	0.25200
1832.13623	0.25276
1830.20767	0.25389
1828.27910	0.25533
1826.35054	0.25644
1824.42197	0.25776
1822.49341	0.25927
1820.56484	0.26072
1818.63628	0.26222
1816.70771	0.26387
1814.77915	0.26541
1812.85059	0.26693
1810.92202	0.26875
1808.99346	0.27083
1807.06489	0.27286
1805.13633	0.27472
1803.20776	0.27674
1801.27920	0.27909
1799.35063	0.28191
1797.42207	0.28455
1795.49351	0.28693
1793.56494	0.28960
1791.63638	0.29327
1789.70781	0.29703
1787.77925	0.29978
1785.85068	0.30286
1783.92212	0.30653
1781.99355	0.31044
1780.06499	0.31467
1778.13643	0.31908
1776.20786	0.32297
1774.27930	0.32682
1772.35073	0.33226
1770.42217	0.33875
1768.49360	0.34437
1766.56504	0.34977
1764.63647	0.35517
1762.70791	0.36089
1760.77935	0.36828
1758.85078	0.37527
1756.92222	0.38228
1754.99365	0.39004
1753.06509	0.39681
1751.13652	0.40459
1749.20796	0.41486
1747.27939	0.42541
1745.35083	0.43457
1743.42227	0.44404
1741.49370	0.45445
1739.56514	0.46691
1737.63657	0.47941
1735.70801	0.48992
1733.77944	0.50606
1731.85088	0.52633
1729.92231	0.54235
1727.99375	0.55834
1726.06519	0.57520
1724.13662	0.59363
1722.20806	0.61373
1720.27949	0.63188
1718.35093	0.65283
1716.42236	0.68549
1714.49380	0.71743
1712.56523	0.74282
1710.63667	0.76697
1708.70811	0.79237
1706.77954	0.82107
1704.85098	0.85664
1702.92241	0.88892
1700.99385	0.91985
1699.06528	0.96685
1697.13672	1.01185
1695.20815	1.05914
1693.27959	1.10415
1691.35103	1.13926
1689.42246	1.18036
1687.49390	1.22435
1685.56533	1.26596
1683.63677	1.33323
1681.70820	1.40595
1679.77964	1.45083
1677.85107	1.49286
1675.92251	1.54133
1673.99395	1.60286
1672.06538	1.65784
1670.13682	1.71141
1668.20825	1.78334
1666.27969	1.84199
1664.35112	1.89254
1662.42256	1.95784
1660.49399	2.03202
1658.56543	2.08789
1656.63687	2.13262
1654.70830	2.17331
1652.77974	2.23785
1650.85117	2.29845
1648.92261	2.31653
1646.99404	2.34107
1645.06548	2.36580
1643.13691	2.38016
1641.20835	2.38580
1639.27979	2.39237
1637.35122	2.39804
1635.42266	2.39709
1633.49409	2.38606
1631.56553	2.36901
1629.63696	2.35047
1627.70840	2.32069
1625.77983	2.28557
1623.85127	2.23986
1621.92271	2.18335
1619.99414	2.13414
1618.06558	2.08684
1616.13701	2.01882
1614.20845	1.95168
1612.27988	1.90247
1610.35132	1.85007
1608.42275	1.79208
1606.49419	1.73499
1604.56562	1.68334
1602.63706	1.63383
1600.70850	1.58587
1598.77993	1.54219
1596.85137	1.50103
1594.92280	1.46078
1592.99424	1.42182
1591.06567	1.38627
1589.13711	1.35328
1587.20854	1.32330
1585.27998	1.29637
1583.35142	1.27150
1581.42285	1.24871
1579.49429	1.22935
1577.56572	1.21224
1575.63716	1.19190
1573.70859	1.17507
1571.78003	1.16488
1569.85146	1.15467
1567.92290	1.14359
1565.99434	1.13593
1564.06577	1.13117
1562.13721	1.12811
1560.20864	1.12743
1558.28008	1.13232
1556.35151	1.13799
1554.42295	1.14049
1552.49438	1.14361
1550.56582	1.14536
1548.63726	1.14404
1546.70869	1.13944
1544.78013	1.13076
1542.85156	1.11734
1540.92300	1.09583
1538.99443	1.06315
1537.06587	1.04177
1535.13730	1.02688
1533.20874	1.00483
1531.28018	0.98150
1529.35161	0.96544
1527.42305	0.95000
1525.49448	0.93331
1523.56592	0.91906
1521.63735	0.90594
1519.70879	0.89333
1517.78022	0.88284
1515.85166	0.87027
1513.92310	0.85721
1511.99453	0.84567
1510.06597	0.83461
1508.13740	0.82303
1506.20884	0.80551
1504.28027	0.79261
1502.35171	0.78583
1500.42314	0.77934
1498.49458	0.77203
1496.56602	0.76340
1494.63745	0.75512
1492.70889	0.74884
1490.78032	0.74308
1488.85176	0.73645
1486.92319	0.73087
1484.99463	0.72696
1483.06606	0.72400
1481.13750	0.72163
1479.20894	0.71987
1477.28037	0.71885
1475.35181	0.71855
1473.42324	0.71873
1471.49468	0.71839
1469.56611	0.71706
1467.63755	0.71523
1465.70898	0.71355
1463.78042	0.71246
1461.85186	0.71186
1459.92329	0.71145
1457.99473	0.71133
1456.06616	0.71130
1454.13760	0.70991
1452.20903	0.70748
1450.28047	0.70448
1448.35190	0.70125
1446.42334	0.69814
1444.49478	0.69546
1442.56621	0.69294
1440.63765	0.69020
1438.70908	0.68710
1436.78052	0.68301
1434.85195	0.67867
1432.92339	0.67573
1430.99482	0.67395
1429.06626	0.67309
1427.13770	0.67306
1425.20913	0.67369
1423.28057	0.67479
1421.35200	0.67571
1419.42344	0.67641
1417.49487	0.67684
1415.56631	0.67632
1413.63774	0.67562
1411.70918	0.67546
1409.78062	0.67623
1407.85205	0.67768
1405.92349	0.67928
1403.99492	0.68069
1402.06636	0.68133
1400.13779	0.68082
1398.20923	0.67901
1396.28066	0.67608
1394.35210	0.67216
1392.42354	0.66777
1390.49497	0.66347
1388.56641	0.65877
1386.63784	0.65321
1384.70928	0.64768
1382.78071	0.64264
1380.85215	0.63767
1378.92358	0.63301
1376.99502	0.62948
1375.06646	0.62735
1373.13789	0.62601
1371.20933	0.62507
1369.28076	0.62436
1367.35220	0.62333
1365.42363	0.62175
1363.49507	0.61984
1361.56650	0.61797
1359.63794	0.61648
1357.70937	0.61524
1355.78081	0.61408
1353.85225	0.61304
1351.92368	0.61207
1349.99512	0.61130
1348.06655	0.61070
1346.13799	0.60996
1344.20942	0.60907
1342.28086	0.60822
1340.35229	0.60745
1338.42373	0.60679
1336.49517	0.60629
1334.56660	0.60596
1332.63804	0.60586
1330.70947	0.60605
1328.78091	0.60658
1326.85234	0.60743
1324.92378	0.60838
1322.99521	0.60929
1321.06665	0.61016
1319.13809	0.61100
1317.20952	0.61155
1315.28096	0.61158
1313.35239	0.61119
1311.42383	0.61068
1309.49526	0.61023
1307.56670	0.60979
1305.63813	0.60928
1303.70957	0.60855
1301.78101	0.60756
1299.85244	0.60642
1297.92388	0.60519
1295.99531	0.60379
1294.06675	0.60222
1292.13818	0.60070
1290.20962	0.59930
1288.28105	0.59789
1286.35249	0.59663
1284.42393	0.59546
1282.49536	0.59410
1280.56680	0.59263
1278.63823	0.59105
1276.70967	0.58942
1274.78110	0.58807
1272.85254	0.58712
1270.92397	0.58642
1268.99541	0.58568
1267.06685	0.58478
1265.13828	0.58387
1263.20972	0.58301
1261.28115	0.58210
1259.35259	0.58131
1257.42402	0.58081
1255.49546	0.58054
1253.56689	0.58041
1251.63833	0.58045
1249.70977	0.58061
1247.78120	0.58066
1245.85264	0.58054
1243.92407	0.58008
1241.99551	0.57911
1240.06694	0.57779
1238.13838	0.57616
1236.20981	0.57397
1234.28125	0.57134
1232.35269	0.56877
1230.42412	0.56644
1228.49556	0.56421
1226.56699	0.56204
1224.63843	0.55994
1222.70986	0.55787
1220.78130	0.55606
1218.85273	0.55461
1216.92417	0.55332
1214.99561	0.55210
1213.06704	0.55100
1211.13848	0.55010
1209.20991	0.54931
1207.28135	0.54854
1205.35278	0.54780
1203.42422	0.54701
1201.49565	0.54617
1199.56709	0.54531
1197.63853	0.54447
1195.70996	0.54360
1193.78140	0.54277
1191.85283	0.54215
1189.92427	0.54168
1187.99570	0.54124
1186.06714	0.54108
1184.13857	0.54134
1182.21001	0.54192
1180.28145	0.54282
1178.35288	0.54416
1176.42432	0.54585
1174.49575	0.54750
1172.56719	0.54865
1170.63862	0.54910
1168.71006	0.54906
1166.78149	0.54898
1164.85293	0.54905
1162.92437	0.54909
1160.99580	0.54893
1159.06724	0.54851
1157.13867	0.54778
1155.21011	0.54668
1153.28154	0.54527
1151.35298	0.54362
1149.42441	0.54147
1147.49585	0.53879
1145.56729	0.53595
1143.63872	0.53322
1141.71016	0.53078
1139.78159	0.52889
1137.85303	0.52768
1135.92446	0.52684
1133.99590	0.52631
1132.06733	0.52638
1130.13877	0.52668
1128.21021	0.52650
1126.28164	0.52578
1124.35308	0.52503
1122.42451	0.52467
1120.49595	0.52467
1118.56738	0.52483
1116.63882	0.52491
1114.71025	0.52494
1112.78169	0.52510
1110.85312	0.52553
1108.92456	0.52627
1106.99600	0.52718
1105.06743	0.52810
1103.13887	0.52907
1101.21030	0.53028
1099.28174	0.53193
1097.35317	0.53427
1095.42461	0.53736
1093.49604	0.54099
1091.56748	0.54521
1089.63892	0.55037
1087.71035	0.55697
1085.78179	0.56474
1083.85322	0.57247
1081.92466	0.57928
1079.99609	0.58462
1078.06753	0.58752
1076.13896	0.58740
1074.21040	0.58455
1072.28184	0.57950
1070.35327	0.57290
1068.42471	0.56556
1066.49614	0.55844
1064.56758	0.55221
1062.63901	0.54670
1060.71045	0.54168
1058.78188	0.53735
1056.85332	0.53347
1054.92476	0.52973
1052.99619	0.52643
1051.06763	0.52385
1049.13906	0.52192
1047.21050	0.52059
1045.28193	0.51968
1043.35337	0.51886
1041.42480	0.51809
1039.49624	0.51748
1037.56768	0.51689
1035.63911	0.51612
1033.71055	0.51518
1031.78198	0.51415
1029.85342	0.51298
1027.92485	0.51157
1025.99629	0.51015
1024.06772	0.50911
1022.13916	0.50862
1020.21060	0.50850
1018.28203	0.50851
1016.35347	0.50864
1014.42490	0.50887
1012.49634	0.50906
1010.56777	0.50919
1008.63921	0.50940
1006.71064	0.50989
1004.78208	0.51110
1002.85352	0.51328
1000.92495	0.51602
998.99639	0.51907
997.06782	0.52284
995.13926	0.52730
993.21069	0.53151
991.28213	0.53485
989.35356	0.53721
987.42500	0.53840
985.49644	0.53848
983.56787	0.53812
981.63931	0.53809
979.71074	0.53871
977.78218	0.53998
975.85361	0.54186
973.92505	0.54425
971.99648	0.54711
970.06792	0.55048
968.13936	0.55422
966.21079	0.55824
964.28223	0.56261
962.35366	0.56732
960.42510	0.57231
958.49653	0.57765
956.56797	0.58323
954.63940	0.58899
952.71084	0.59522
950.78228	0.60186
948.85371	0.60840
946.92515	0.61447
944.99658	0.62024
943.06802	0.62629
941.13945	0.63259
939.21089	0.63856
937.28232	0.64421
935.35376	0.64997
933.42520	0.65597
931.49663	0.66181
929.56807	0.66724
927.63950	0.67257
925.71094	0.67830
923.78237	0.68439
921.85381	0.69086
919.92524	0.69795
917.99668	0.70500
916.06812	0.71194
914.13955	0.71946
912.21099	0.72719
910.28242	0.73466
908.35386	0.74237
906.42529	0.75098
904.49673	0.75988
902.56816	0.76854
900.63960	0.77813
898.71104	0.78895
896.78247	0.79994
894.85391	0.81037
892.92534	0.82022
890.99678	0.82981
889.06821	0.83953
887.13965	0.85014
885.21108	0.86152
883.28252	0.87232
881.35396	0.88307
879.42539	0.89507
877.49683	0.90756
875.56826	0.92013
873.63970	0.93238
871.71113	0.94345
869.78257	0.95426
867.85400	0.96545
865.92544	0.97646
863.99687	0.98752
862.06831	0.99943
860.13975	1.01207
858.21118	1.02374
856.28262	1.03387
854.35405	1.04471
852.42549	1.05680
850.49692	1.06878
848.56836	1.08087
846.63979	1.09328
844.71123	1.10602
842.78267	1.11997
840.85410	1.13358
838.92554	1.14337
836.99697	1.15180
835.06841	1.16363
833.13984	1.17917
831.21128	1.19573
829.28271	1.20795
827.35415	1.21564
825.42559	1.22609
823.49702	1.24090
821.56846	1.25394
819.63989	1.26774
817.71133	1.28465
815.78276	1.29624
813.85420	1.30733
811.92563	1.32841
809.99707	1.34207
808.06851	1.32985
806.13994	1.31947
804.21138	1.33489
802.28281	1.37122
800.35425	1.41629
798.42568	1.45038
796.49712	1.46390
794.56855	1.47464
792.63999	1.49927
790.71143	1.52642
788.78286	1.54325
786.85430	1.55616
784.92573	1.60050
782.99717	1.66555
781.06860	1.69514
779.14004	1.75343
777.21147	1.94469
775.28291	2.20851
773.35435	1.95119
771.42578	1.73754
769.49722	1.66290
767.56865	1.63142
765.64009	1.65212
763.71152	1.64353
761.78296	1.47588
759.85439	1.35648
757.92583	1.41937
755.99727	1.71757
754.06870	2.14998
752.14014	1.89512
750.21157	1.65891
748.28301	1.51105
746.35444	1.38609
744.42588	1.30090
742.49731	1.17834
740.56875	1.03060
738.64019	0.95149
736.71162	0.92190
734.78306	0.82414
732.85449	0.66807
730.92593	0.58715
728.99736	0.57908
727.06880	0.47590
725.14023	0.28519
723.21167	0.14168
721.28311	0.09813
719.35454	0.20111
717.42598	0.41614
715.49741	0.87072
713.56885	4.28141
711.64028	0.43433
709.71172	0.30605
707.78315	0.35254
705.85459	0.35535
703.92603	0.43278
701.99746	0.52389
700.06890	0.45077
698.14033	0.37229
696.21177	0.39093
694.28320	0.49548
692.35464	0.60924
690.42607	0.79384
688.49751	1.11751
686.56895	1.15647
684.64038	0.93447
682.71182	0.65791
680.78325	0.46107
678.85469	0.39994
676.92612	0.42071
674.99756	0.42575
673.06899	0.39482
671.14043	0.38446
669.21187	0.41297
667.28330	0.45989
665.35474	0.49688
663.42617	0.50892
661.49761	0.46858
659.56904	0.40781
657.64048	0.39705
655.71191	0.41291
653.78335	0.42004
651.85479	0.42729
649.92622	0.38738
647.99766	0.33294
646.06909	0.35479
644.14053	0.37810
642.21196	0.33663
640.28340	0.29961
638.35483	0.32249
636.42627	0.40088
634.49771	0.44453
632.56914	0.41232
630.64058	0.37468
628.71201	0.36722
626.78345	0.37401
624.85488	0.40779
622.92632	0.50121
620.99775	0.52549
619.06919	0.46284
617.14062	0.45838
615.21206	0.45498
613.28350	0.40333
611.35493	0.43015
609.42637	0.51762
607.49780	0.51787
605.56924	0.53107
603.64067	0.57590
601.71211	0.43362
599.78354	0.28829
597.85498	0.24642
595.92642	0.29379
593.99785	0.43309
592.06929	0.67197
590.14072	0.72300
588.21216	0.61066
586.28359	0.49442
584.35503	0.45635
582.42646	0.55057
580.49790	0.56634
578.56934	0.46340
576.64077	0.39502
574.71221	0.34986
572.78364	0.31155
570.85508	0.31708
568.92651	0.36706
566.99795	0.40734
565.06938	0.43943
563.14082	0.45021
561.21226	0.36928
559.28369	0.27152
557.35513	0.25475
555.42656	0.29346
553.49800	0.31457
551.56943	0.30345
549.64087	0.30147
547.71230	0.29238
545.78374	0.27616
543.85518	0.26303
541.92661	0.22547
539.99805	0.20601
538.06948	0.26676
536.14092	0.46378
534.21235	0.66327
532.28379	0.40753
530.35522	0.33067
528.42666	0.39423
526.49810	0.41515
524.56953	0.41130
522.64097	0.47200
520.71240	0.42794
518.78384	0.31563
516.85527	0.29282
514.92671	0.32311
512.99814	0.32143
511.06958	0.30522
509.14102	0.29859
507.21245	0.29258
505.28389	0.30002
503.35532	0.27353
501.42676	0.21084
499.49819	0.18147
