3997.91411	0.06578
3995.98555	0.06602
3994.05698	0.06664
3992.12842	0.06707
3990.19985	0.06726
3988.27129	0.06759
3986.34272	0.06792
3984.41416	0.06805
3982.48560	0.06830
3980.55703	0.06856
3978.62847	0.06844
3976.69990	0.06850
3974.77134	0.06912
3972.84277	0.06945
3970.91421	0.06920
3968.98564	0.06918
3967.05708	0.06946
3965.12852	0.06960
3963.19995	0.06972
3961.27139	0.06992
3959.34282	0.06996
3957.41426	0.06985
3955.48569	0.07004
3953.55713	0.07055
3951.62856	0.07077
3949.70000	0.07058
3947.77144	0.07059
3945.84287	0.07072
3943.91431	0.07055
3941.98574	0.07035
3940.05718	0.07020
3938.12861	0.07026
3936.20005	0.07049
3934.27148	0.07052
3932.34292	0.07049
3930.41436	0.07048
3928.48579	0.07036
3926.55723	0.07039
3924.62866	0.07066
3922.70010	0.07090
3920.77153	0.07093
3918.84297	0.07050
3916.91440	0.06973
3914.98584	0.06935
3913.05728	0.06951
3911.12871	0.06971
3909.20015	0.06952
3907.27158	0.06891
3905.34302	0.06817
3903.41445	0.06798
3901.48589	0.06873
3899.55732	0.06926
3897.62876	0.06907
3895.70020	0.06891
3893.77163	0.06899
3891.84307	0.06934
3889.91450	0.06975
3887.98594	0.06961
3886.05737	0.06945
3884.12881	0.06968
3882.20024	0.06977
3880.27168	0.06992
3878.34312	0.07025
3876.41455	0.07014
3874.48599	0.06996
3872.55742	0.07022
3870.62886	0.07091
3868.70029	0.07199
3866.77173	0.07257
3864.84316	0.07253
3862.91460	0.07253
3860.98604	0.07228
3859.05747	0.07170
3857.12891	0.07139
3855.20034	0.07190
3853.27178	0.07357
3851.34321	0.07521
3849.41465	0.07528
3847.48608	0.07516
3845.55752	0.07546
3843.62896	0.07618
3841.70039	0.07713
3839.77183	0.07781
3837.84326	0.07836
3835.91470	0.07924
3833.98613	0.08024
3832.05757	0.08094
3830.12900	0.08129
3828.20044	0.08153
3826.27187	0.08211
3824.34331	0.08282
3822.41475	0.08355
3820.48618	0.08521
3818.55762	0.08683
3816.62905	0.08742
3814.70049	0.08810
3812.77192	0.08859
3810.84336	0.08896
3808.91479	0.08975
3806.98623	0.09108
3805.05767	0.09229
3803.12910	0.09294
3801.20054	0.09429
3799.27197	0.09617
3797.34341	0.09696
3795.41484	0.09789
3793.48628	0.09918
3791.55771	0.10003
3789.62915	0.10100
3787.70059	0.10245
3785.77202	0.10407
3783.84346	0.10581
3781.91489	0.10757
3779.98633	0.10917
3778.05776	0.11071
3776.12920	0.11210
3774.20063	0.11340
3772.27207	0.11499
3770.34351	0.11713
3768.41494	0.11965
3766.48638	0.12173
3764.55781	0.12354
3762.62925	0.12518
3760.70068	0.12668
3758.77212	0.12879
3756.84355	0.13141
3754.91499	0.13340
3752.98643	0.13488
3751.05786	0.13716
3749.12930	0.14127
3747.20073	0.14469
3745.27217	0.14688
3743.34360	0.15033
3741.41504	0.15431
3739.48647	0.15689
3737.55791	0.15920
3735.62935	0.16283
3733.70078	0.16867
3731.77222	0.17482
3729.84365	0.17932
3727.91509	0.18278
3725.98652	0.18725
3724.05796	0.19372
3722.12939	0.20116
3720.20083	0.20912
3718.27227	0.21750
3716.34370	0.22573
3714.41514	0.23325
3712.48657	0.24160
3710.55801	0.25403
3708.62944	0.26876
3706.70088	0.28114
3704.77231	0.29228
3702.84375	0.30487
3700.91519	0.32156
3698.98662	0.34043
3697.05806	0.35845
3695.12949	0.37738
3693.20093	0.39702
3691.27236	0.41787
3689.34380	0.44617
3687.41523	0.48326
3685.48667	0.51561
3683.55811	0.54250
3681.62954	0.57051
3679.70098	0.60156
3677.77241	0.63395
3675.84385	0.67262
3673.91528	0.72696
3671.98672	0.77161
3670.05815	0.81061
3668.12959	0.86541
3666.20103	0.91543
3664.27246	0.95652
3662.34390	1.00025
3660.41533	1.04736
3658.48677	1.09345
3656.55820	1.14236
3654.62964	1.19763
3652.70107	1.24364
3650.77251	1.28233
3648.84395	1.33776
3646.91538	1.41041
3644.98682	1.46314
3643.05825	1.50224
3641.12969	1.54189
3639.20112	1.58590
3637.27256	1.63029
3635.34399	1.67274
3633.41543	1.71466
3631.48687	1.75401
3629.55830	1.79440
3627.62974	1.84971
3625.70117	1.90240
3623.77261	1.93706
3621.84404	1.96882
3619.91548	2.00507
3617.98691	2.05090
3616.05835	2.09522
3614.12979	2.13156
3612.20122	2.17150
3610.27266	2.21245
3608.34409	2.25249
3606.41553	2.29579
3604.48696	2.33680
3602.55840	2.37257
3600.62983	2.41008
3598.70127	2.45045
3596.77271	2.48978
3594.84414	2.53049
3592.91558	2.57399
3590.98701	2.61397
3589.05845	2.64857
3587.12988	2.69015
3585.20132	2.73919
3583.27275	2.78197
3581.34419	2.82031
3579.41562	2.86032
3577.48706	2.90370
3575.55850	2.94781
3573.62993	2.99052
3571.70137	3.03098
3569.77280	3.07031
3567.84424	3.11223
3565.91567	3.16538
3563.98711	3.21950
3562.05854	3.26245
3560.12998	3.30384
3558.20142	3.34909
3556.27285	3.39517
3554.34429	3.43836
3552.41572	3.48252
3550.48716	3.52903
3548.55859	3.57482
3546.63003	3.62010
3544.70146	3.66633
3542.77290	3.71258
3540.84434	3.76012
3538.91577	3.80901
3536.98721	3.85548
3535.05864	3.90208
3533.13008	3.95031
3531.20151	3.99954
3529.27295	4.05009
3527.34438	4.10010
3525.41582	4.14746
3523.48726	4.19295
3521.55869	4.23725
3519.63013	4.28199
3517.70156	4.33204
3515.77300	4.38571
3513.84443	4.43822
3511.91587	4.48694
3509.98730	4.53227
3508.05874	4.57672
3506.13018	4.62208
3504.20161	4.67164
3502.27305	4.72487
3500.34448	4.77250
3498.41592	4.81088
3496.48735	4.84863
3494.55879	4.89554
3492.63022	4.95213
3490.70166	5.00767
3488.77310	5.05865
3486.84453	5.11308
3484.91597	5.16830
3482.98740	5.21378
3481.05884	5.25198
3479.13027	5.28949
3477.20171	5.33063
3475.27314	5.37950
3473.34458	5.43685
3471.41602	5.49384
3469.48745	5.53775
3467.55889	5.58062
3465.63032	5.64149
3463.70176	5.70380
3461.77319	5.74804
3459.84463	5.79724
3457.91606	5.86129
3455.98750	5.91660
3454.05894	5.95914
3452.13037	6.00358
3450.20181	6.05187
3448.27324	6.09826
3446.34468	6.14524
3444.41611	6.18690
3442.48755	6.22472
3440.55898	6.26503
3438.63042	6.29519
3436.70186	6.31534
3434.77329	6.36268
3432.84473	6.44237
3430.91616	6.51451
3428.98760	6.57739
3427.05903	6.64503
3425.13047	6.70583
3423.20190	6.74234
3421.27334	6.77520
3419.34478	6.82494
3417.41621	6.89021
3415.48765	6.95268
3413.55908	6.98969
3411.63052	7.02288
3409.70195	7.04446
3407.77339	7.06551
3405.84482	7.12175
3403.91626	7.18197
3401.98770	7.19830
3400.05913	7.18620
3398.13057	7.18726
3396.20200	7.22246
3394.27344	7.29811
3392.34487	7.37495
3390.41631	7.41438
3388.48774	7.42890
3386.55918	7.45425
3384.63062	7.47989
3382.70205	7.50935
3380.77349	7.56494
3378.84492	7.61874
3376.91636	7.65246
3374.98779	7.67332
3373.05923	7.71484
3371.13066	7.78717
3369.20210	7.86924
3367.27354	7.90924
3365.34497	7.91235
3363.41641	7.92914
3361.48784	7.98231
3359.55928	8.03490
3357.63071	8.00019
3355.70215	7.94695
3353.77358	7.94441
3351.84502	7.97386
3349.91646	7.98671
3347.98789	7.99033
3346.05933	8.00743
3344.13076	7.99286
3342.20220	7.96547
3340.27363	7.95600
3338.34507	7.95220
3336.41650	7.91896
3334.48794	7.90101
3332.55937	7.96798
3330.63081	8.08744
3328.70225	8.13120
3326.77368	8.05429
3324.84512	8.03543
3322.91655	8.15972
3320.98799	8.24332
3319.05942	8.18321
3317.13086	8.16197
3315.20229	8.19234
3313.27373	8.14438
3311.34517	8.05934
3309.41660	8.09655
3307.48804	8.24041
3305.55947	8.25700
3303.63091	8.15418
3301.70234	8.09281
3299.77378	8.06693
3297.84521	8.02411
3295.91665	7.99568
3293.98809	8.02213
3292.05952	8.08773
3290.13096	8.14833
3288.20239	8.22168
3286.27383	8.30133
3284.34526	8.27183
3282.41670	8.22071
3280.48813	8.26294
3278.55957	8.32128
3276.63101	8.32753
3274.70244	8.29376
3272.77388	8.22085
3270.84531	8.17786
3268.91675	8.21575
3266.98818	8.23589
3265.05962	8.24556
3263.13105	8.34660
3261.20249	8.43579
3259.27393	8.29227
3257.34536	8.05866
3255.41680	7.99106
3253.48823	8.09900
3251.55967	8.25433
3249.63110	8.31183
3247.70254	8.22204
3245.77397	8.10537
3243.84541	8.10852
3241.91685	8.19223
3239.98828	8.17891
3238.05972	8.06329
3236.13115	7.96385
3234.20259	7.89399
3232.27402	7.83533
3230.34546	7.84509
3228.41689	7.96755
3226.48833	8.11317
3224.55977	8.16402
3222.63120	8.15285
3220.70264	8.11714
3218.77407	8.02882
3216.84551	7.92856
3214.91694	7.90767
3212.98838	7.92203
3211.05981	7.87115
3209.13125	7.80187
3207.20269	7.75990
3205.27412	7.72330
3203.34556	7.69708
3201.41699	7.69909
3199.48843	7.69199
3197.55986	7.62478
3195.63130	7.53416
3193.70273	7.49676
3191.77417	7.50226
3189.84561	7.49048
3187.91704	7.46987
3185.98848	7.45104
3184.05991	7.39910
3182.13135	7.32213
3180.20278	7.26826
3178.27422	7.24328
3176.34565	7.20982
3174.41709	7.15275
3172.48853	7.10161
3170.55996	7.07025
3168.63140	7.02455
3166.70283	6.94034
3164.77427	6.84330
3162.84570	6.76308
3160.91714	6.70898
3158.98857	6.68219
3157.06001	6.64927
3155.13145	6.56888
3153.20288	6.45884
3151.27432	6.35973
3149.34575	6.28749
3147.41719	6.23563
3145.48862	6.18621
3143.56006	6.13330
3141.63149	6.07919
3139.70293	6.01778
3137.77437	5.94528
3135.84580	5.86760
3133.91724	5.79360
3131.98867	5.72333
3130.06011	5.65744
3128.13154	5.58901
3126.20298	5.51292
3124.27441	5.44151
3122.34585	5.37346
3120.41729	5.30863
3118.48872	5.24675
3116.56016	5.17276
3114.63159	5.09159
3112.70303	5.02144
3110.77446	4.95999
3108.84590	4.89255
3106.91733	4.82105
3104.98877	4.75639
3103.06021	4.69404
3101.13164	4.62604
3099.20308	4.55931
3097.27451	4.49806
3095.34595	4.43300
3093.41738	4.36133
3091.48882	4.29058
3089.56025	4.22468
3087.63169	4.16313
3085.70312	4.10436
3083.77456	4.04342
3081.84600	3.97798
3079.91743	3.91259
3077.98887	3.85049
3076.06030	3.79032
3074.13174	3.73206
3072.20317	3.67677
3070.27461	3.62332
3068.34604	3.56960
3066.41748	3.51317
3064.48892	3.45457
3062.56035	3.39717
3060.63179	3.34226
3058.70322	3.28840
3056.77466	3.23441
3054.84609	3.18102
3052.91753	3.12844
3050.98896	3.07600
3049.06040	3.02394
3047.13184	2.97357
3045.20327	2.92515
3043.27471	2.87729
3041.34614	2.82892
3039.41758	2.78010
3037.48901	2.73195
3035.56045	2.68615
3033.63188	2.64233
3031.70332	2.59823
3029.77476	2.55314
3027.84619	2.50836
3025.91763	2.46481
3023.98906	2.42227
3022.06050	2.38057
3020.13193	2.33938
3018.20337	2.29828
3016.27480	2.25777
3014.34624	2.21870
3012.41768	2.18080
3010.48911	2.14287
3008.56055	2.10520
3006.63198	2.06880
3004.70342	2.03321
3002.77485	1.99763
3000.84629	1.96205
2998.91772	1.92727
2996.98916	1.89401
2995.06060	1.86157
2993.13203	1.82926
2991.20347	1.79749
2989.27490	1.76643
2987.34634	1.73614
2985.41777	1.70674
2983.48921	1.67786
2981.56064	1.64892
2979.63208	1.62008
2977.70352	1.59195
2975.77495	1.56438
2973.84639	1.53679
2971.91782	1.50932
2969.98926	1.48244
2968.06069	1.45630
2966.13213	1.43067
2964.20356	1.40544
2962.27500	1.38061
2960.34644	1.35616
2958.41787	1.33228
2956.48931	1.30897
2954.56074	1.28574
2952.63218	1.26226
2950.70361	1.23892
2948.77505	1.21622
2946.84648	1.19424
2944.91792	1.17273
2942.98936	1.15125
2941.06079	1.12986
2939.13223	1.10903
2937.20366	1.08880
2935.27510	1.06892
2933.34653	1.04938
2931.41797	1.02995
2929.48940	1.01028
2927.56084	0.99107
2925.63228	0.97326
2923.70371	0.95614
2921.77515	0.93853
2919.84658	0.92126
2917.91802	0.90515
2915.98945	0.88909
2914.06089	0.87307
2912.13232	0.85777
2910.20376	0.84275
2908.27520	0.82799
2906.34663	0.81388
2904.41807	0.80048
2902.48950	0.78745
2900.56094	0.77442
2898.63237	0.76143
2896.70381	0.74863
2894.77524	0.73633
2892.84668	0.72462
2890.91812	0.71289
2888.98955	0.70101
2887.06099	0.68946
2885.13242	0.67831
2883.20386	0.66758
2881.27529	0.65733
2879.34673	0.64707
2877.41816	0.63656
2875.48960	0.62608
2873.56104	0.61584
2871.63247	0.60576
2869.70391	0.59547
2867.77534	0.58480
2865.84678	0.57394
2863.91821	0.56313
2861.98965	0.55267
2860.06108	0.54271
2858.13252	0.53285
2856.20396	0.52292
2854.27539	0.51354
2852.34683	0.50490
2850.41826	0.49664
2848.48970	0.48871
2846.56113	0.48109
2844.63257	0.47364
2842.70400	0.46671
2840.77544	0.46049
2838.84687	0.45459
2836.91831	0.44878
2834.98975	0.44309
2833.06118	0.43737
2831.13262	0.43150
2829.20405	0.42542
2827.27549	0.41910
2825.34692	0.41286
2823.41836	0.40691
2821.48979	0.40110
2819.56123	0.39533
2817.63267	0.38979
2815.70410	0.38438
2813.77554	0.37881
2811.84697	0.37316
2809.91841	0.36776
2807.98984	0.36253
2806.06128	0.35718
2804.13271	0.35191
2802.20415	0.34696
2800.27559	0.34210
2798.34702	0.33719
2796.41846	0.33245
2794.48989	0.32790
2792.56133	0.32342
2790.63276	0.31887
2788.70420	0.31435
2786.77563	0.31009
2784.84707	0.30605
2782.91851	0.30196
2780.98994	0.29776
2779.06138	0.29365
2777.13281	0.28984
2775.20425	0.28623
2773.27568	0.28264
2771.34712	0.27904
2769.41855	0.27550
2767.48999	0.27195
2765.56143	0.26838
2763.63286	0.26499
2761.70430	0.26177
2759.77573	0.25850
2757.84717	0.25518
2755.91860	0.25196
2753.99004	0.24892
2752.06147	0.24605
2750.13291	0.24327
2748.20435	0.24051
2746.27578	0.23778
2744.34722	0.23512
2742.41865	0.23248
2740.49009	0.22982
2738.56152	0.22714
2736.63296	0.22457
2734.70439	0.22227
2732.77583	0.22009
2730.84727	0.21787
2728.91870	0.21555
2726.99014	0.21323
2725.06157	0.21103
2723.13301	0.20895
2721.20444	0.20694
2719.27588	0.20496
2717.34731	0.20294
2715.41875	0.20091
2713.49019	0.19898
2711.56162	0.19718
2709.63306	0.19544
2707.70449	0.19370
2705.77593	0.19208
2703.84736	0.19057
2701.91880	0.18896
2699.99023	0.18731
2698.06167	0.18583
2696.13311	0.18446
2694.20454	0.18302
2692.27598	0.18149
2690.34741	0.18011
2688.41885	0.17896
2686.49028	0.17782
2684.56172	0.17668
2682.63315	0.17553
2680.70459	0.17424
2678.77603	0.17295
2676.84746	0.17182
2674.91890	0.17072
2672.99033	0.16961
2671.06177	0.16854
2669.13320	0.16757
2667.20464	0.16667
2665.27607	0.16578
2663.34751	0.16493
2661.41895	0.16414
2659.49038	0.16331
2657.56182	0.16236
2655.63325	0.16138
2653.70469	0.16057
2651.77612	0.15993
2649.84756	0.15930
2647.91899	0.15860
2645.99043	0.15802
2644.06187	0.15768
2642.13330	0.15726
2640.20474	0.15668
2638.27617	0.15616
2636.34761	0.15571
2634.41904	0.15525
2632.49048	0.15484
2630.56191	0.15443
2628.63335	0.15403
2626.70479	0.15372
2624.77622	0.15344
2622.84766	0.15318
2620.91909	0.15290
2618.99053	0.15257
2617.06196	0.15239
2615.13340	0.15235
2613.20483	0.15222
2611.27627	0.15207
2609.34771	0.15193
2607.41914	0.15173
2605.49058	0.15153
2603.56201	0.15143
2601.63345	0.15158
2599.70488	0.15186
2597.77632	0.15204
2595.84775	0.15210
2593.91919	0.15210
2591.99062	0.15202
2590.06206	0.15194
2588.13350	0.15197
2586.20493	0.15216
2584.27637	0.15246
2582.34780	0.15273
2580.41924	0.15304
2578.49067	0.15351
2576.56211	0.15391
2574.63354	0.15413
2572.70498	0.15439
2570.77642	0.15473
2568.84785	0.15507
2566.91929	0.15547
2564.99072	0.15588
2563.06216	0.15623
2561.13359	0.15672
2559.20503	0.15737
2557.27646	0.15801
2555.34790	0.15860
2553.41934	0.15910
2551.49077	0.15950
2549.56221	0.15994
2547.63364	0.16052
2545.70508	0.16120
2543.77651	0.16197
2541.84795	0.16279
2539.91938	0.16349
2537.99082	0.16409
2536.06226	0.16468
2534.13369	0.16529
2532.20513	0.16599
2530.27656	0.16678
2528.34800	0.16750
2526.41943	0.16806
2524.49087	0.16857
2522.56230	0.16926
2520.63374	0.17016
2518.70518	0.17112
2516.77661	0.17200
2514.84805	0.17274
2512.91948	0.17350
2510.99092	0.17430
2509.06235	0.17502
2507.13379	0.17571
2505.20522	0.17648
2503.27666	0.17742
2501.34810	0.17846
2499.41953	0.17939
2497.49097	0.18016
2495.56240	0.18088
2493.63384	0.18168
2491.70527	0.18258
2489.77671	0.18349
2487.84814	0.18436
2485.91958	0.18522
2483.99102	0.18614
2482.06245	0.18709
2480.13389	0.18800
2478.20532	0.18892
2476.27676	0.18978
2474.34819	0.19065
2472.41963	0.19161
2470.49106	0.19264
2468.56250	0.19361
2466.63394	0.19444
2464.70537	0.19527
2462.77681	0.19629
2460.84824	0.19740
2458.91968	0.19837
2456.99111	0.19928
2455.06255	0.20020
2453.13398	0.20116
2451.20542	0.20219
2449.27686	0.20325
2447.34829	0.20422
2445.41973	0.20507
2443.49116	0.20596
2441.56260	0.20704
2439.63403	0.20819
2437.70547	0.20916
2435.77690	0.21000
2433.84834	0.21103
2431.91978	0.21228
2429.99121	0.21358
2428.06265	0.21486
2426.13408	0.21607
2424.20552	0.21712
2422.27695	0.21811
2420.34839	0.21917
2418.41982	0.22028
2416.49126	0.22139
2414.56270	0.22256
2412.63413	0.22376
2410.70557	0.22486
2408.77700	0.22596
2406.84844	0.22707
2404.91987	0.22818
2402.99131	0.22936
2401.06274	0.23055
2399.13418	0.23177
2397.20562	0.23318
2395.27705	0.23462
2393.34849	0.23590
2391.41992	0.23710
2389.49136	0.23838
2387.56279	0.23953
2385.63423	0.24019
2383.70566	0.24034
2381.77710	0.24009
2379.84854	0.23957
2377.91997	0.23882
2375.99141	0.23762
2374.06284	0.23590
2372.13428	0.23379
2370.20571	0.23118
2368.27715	0.22781
2366.34858	0.22439
2364.42002	0.22137
2362.49146	0.21919
2360.56289	0.21987
2358.63433	0.22285
2356.70576	0.22668
2354.77720	0.23261
2352.84863	0.24063
2350.92007	0.24790
2348.99150	0.25177
2347.06294	0.25221
2345.13437	0.25032
2343.20581	0.24813
2341.27725	0.24814
2339.34868	0.25015
2337.42012	0.25237
2335.49155	0.25466
2333.56299	0.25735
2331.63442	0.26018
2329.70586	0.26317
2327.77729	0.26643
2325.84873	0.26971
2323.92017	0.27297
2321.99160	0.27630
2320.06304	0.27970
2318.13447	0.28307
2316.20591	0.28615
2314.27734	0.28894
2312.34878	0.29149
2310.42021	0.29394
2308.49165	0.29647
2306.56309	0.29912
2304.63452	0.30185
2302.70596	0.30438
2300.77739	0.30675
2298.84883	0.30911
2296.92026	0.31137
2294.99170	0.31368
2293.06313	0.31616
2291.13457	0.31859
2289.20601	0.32091
2287.27744	0.32325
2285.34888	0.32563
2283.42031	0.32799
2281.49175	0.33013
2279.56318	0.33207
2277.63462	0.33399
2275.70605	0.33595
2273.77749	0.33785
2271.84893	0.33980
2269.92036	0.34195
2267.99180	0.34421
2266.06323	0.34638
2264.13467	0.34856
2262.20610	0.35083
2260.27754	0.35301
2258.34897	0.35510
2256.42041	0.35730
2254.49185	0.35966
2252.56328	0.36195
2250.63472	0.36416
2248.70615	0.36642
2246.77759	0.36877
2244.84902	0.37107
2242.92046	0.37326
2240.99189	0.37549
2239.06333	0.37779
2237.13477	0.38011
2235.20620	0.38233
2233.27764	0.38451
2231.34907	0.38678
2229.42051	0.38911
2227.49194	0.39143
2225.56338	0.39375
2223.63481	0.39592
2221.70625	0.39808
2219.77769	0.40046
2217.84912	0.40286
2215.92056	0.40503
2213.99199	0.40704
2212.06343	0.40905
2210.13486	0.41115
2208.20630	0.41328
2206.27773	0.41537
2204.34917	0.41751
2202.42061	0.41969
2200.49204	0.42180
2198.56348	0.42383
2196.63491	0.42583
2194.70635	0.42780
2192.77778	0.42976
2190.84922	0.43178
2188.92065	0.43377
2186.99209	0.43557
2185.06353	0.43729
2183.13496	0.43905
2181.20640	0.44077
2179.27783	0.44241
2177.34927	0.44396
2175.42070	0.44542
2173.49214	0.44686
2171.56357	0.44838
2169.63501	0.44996
2167.70645	0.45144
2165.77788	0.45269
2163.84932	0.45377
2161.92075	0.45484
2159.99219	0.45596
2158.06362	0.45711
2156.13506	0.45822
2154.20649	0.45923
2152.27793	0.46012
2150.34937	0.46091
2148.42080	0.46158
2146.49224	0.46213
2144.56367	0.46264
2142.63511	0.46315
2140.70654	0.46363
2138.77798	0.46401
2136.84941	0.46420
2134.92085	0.46420
2132.99229	0.46408
2131.06372	0.46388
2129.13516	0.46373
2127.20659	0.46357
2125.27803	0.46332
2123.34946	0.46300
2121.42090	0.46264
2119.49233	0.46214
2117.56377	0.46140
2115.63521	0.46054
2113.70664	0.45973
2111.77808	0.45892
2109.84951	0.45802
2107.92095	0.45704
2105.99238	0.45596
2104.06382	0.45480
2102.13525	0.45364
2100.20669	0.45239
2098.27812	0.45098
2096.34956	0.44948
2094.42100	0.44792
2092.49243	0.44630
2090.56387	0.44457
2088.63530	0.44276
2086.70674	0.44093
2084.77817	0.43903
2082.84961	0.43706
2080.92104	0.43515
2078.99248	0.43330
2077.06392	0.43132
2075.13535	0.42914
2073.20679	0.42684
2071.27822	0.42457
2069.34966	0.42237
2067.42109	0.42011
2065.49253	0.41776
2063.56396	0.41535
2061.63540	0.41287
2059.70684	0.41040
2057.77827	0.40795
2055.84971	0.40544
2053.92114	0.40286
2051.99258	0.40031
2050.06401	0.39774
2048.13545	0.39507
2046.20688	0.39229
2044.27832	0.38951
2042.34976	0.38682
2040.42119	0.38419
2038.49263	0.38146
2036.56406	0.37869
2034.63550	0.37596
2032.70693	0.37318
2030.77837	0.37040
2028.84980	0.36762
2026.92124	0.36475
2024.99268	0.36181
2023.06411	0.35887
2021.13555	0.35602
2019.20698	0.35327
2017.27842	0.35046
2015.34985	0.34759
2013.42129	0.34492
2011.49272	0.34234
2009.56416	0.33965
2007.63560	0.33686
2005.70703	0.33410
2003.77847	0.33141
2001.84990	0.32882
1999.92134	0.32618
1997.99277	0.32343
1996.06421	0.32072
1994.13564	0.31814
1992.20708	0.31561
1990.27852	0.31303
1988.34995	0.31043
1986.42139	0.30791
1984.49282	0.30551
1982.56426	0.30312
1980.63569	0.30067
1978.70713	0.29830
1976.77856	0.29603
1974.85000	0.29379
1972.92144	0.29159
1970.99287	0.28945
1969.06431	0.28728
1967.13574	0.28508
1965.20718	0.28295
1963.27861	0.28091
1961.35005	0.27897
1959.42148	0.27708
1957.49292	0.27521
1955.56436	0.27336
1953.63579	0.27158
1951.70723	0.26988
1949.77866	0.26823
1947.85010	0.26654
1945.92153	0.26492
1943.99297	0.26343
1942.06440	0.26196
1940.13584	0.26035
1938.20728	0.25879
1936.27871	0.25743
1934.35015	0.25618
1932.42158	0.25493
1930.49302	0.25368
1928.56445	0.25252
1926.63589	0.25143
1924.70732	0.25041
1922.77876	0.24943
1920.85020	0.24838
1918.92163	0.24731
1916.99307	0.24629
1915.06450	0.24537
1913.13594	0.24455
1911.20737	0.24382
1909.27881	0.24310
1907.35024	0.24239
1905.42168	0.24173
1903.49312	0.24111
1901.56455	0.24049
1899.63599	0.23996
1897.70742	0.23954
1895.77886	0.23916
1893.85029	0.23882
1891.92173	0.23842
1889.99316	0.23807
1888.06460	0.23776
1886.13604	0.23740
1884.20747	0.23712
1882.27891	0.23697
1880.35034	0.23691
1878.42178	0.23687
1876.49321	0.23687
1874.56465	0.23683
1872.63608	0.23679
1870.70752	0.23687
1868.77896	0.23727
1866.85039	0.23761
1864.92183	0.23758
1862.99326	0.23758
1861.06470	0.23776
1859.13613	0.23810
1857.20757	0.23849
1855.27900	0.23897
1853.35044	0.23944
1851.42187	0.23991
1849.49331	0.24038
1847.56475	0.24090
1845.63618	0.24156
1843.70762	0.24257
1841.77905	0.24362
1839.85049	0.24430
1837.92192	0.24506
1835.99336	0.24592
1834.06479	0.24680
1832.13623	0.24771
1830.20767	0.24903
1828.27910	0.25054
1826.35054	0.25160
1824.42197	0.25285
1822.49341	0.25425
1820.56484	0.25554
1818.63628	0.25687
1816.70771	0.25845
1814.77915	0.26008
1812.85059	0.26181
1810.92202	0.26385
1808.99346	0.26599
1807.06489	0.26797
1805.13633	0.26979
1803.20776	0.27184
1801.27920	0.27427
1799.35063	0.27711
1797.42207	0.27968
1795.49351	0.28201
1793.56494	0.28467
1791.63638	0.28830
1789.70781	0.29199
1787.77925	0.29473
1785.85068	0.29783
1783.92212	0.30150
1781.99355	0.30543
1780.06499	0.30973
1778.13643	0.31423
1776.20786	0.31822
1774.27930	0.32224
1772.35073	0.32787
1770.42217	0.33445
1768.49360	0.34008
1766.56504	0.34544
1764.63647	0.35079
1762.70791	0.35653
1760.77935	0.36391
1758.85078	0.37088
1756.92222	0.37795
1754.99365	0.38582
1753.06509	0.39280
1751.13652	0.40084
1749.20796	0.41125
1747.27939	0.42184
1745.35083	0.43114
1743.42227	0.44081
1741.49370	0.45135
1739.56514	0.46388
1737.63657	0.47647
1735.70801	0.48712
1733.77944	0.50332
1731.85088	0.52345
1729.92231	0.53936
1727.99375	0.55539
1726.06519	0.57241
1724.13662	0.59094
1722.20806	0.61097
1720.27949	0.62905
1718.35093	0.64989
1716.42236	0.68234
1714.49380	0.71435
1712.56523	0.73962
1710.63667	0.76334
1708.70811	0.78851
1706.77954	0.81727
1704.85098	0.85256
1702.92241	0.88402
1700.99385	0.91379
1699.06528	0.95895
1697.13672	1.00169
1695.20815	1.04606
1693.27959	1.08828
1691.35103	1.12102
1689.42246	1.15903
1687.49390	1.19958
1685.56533	1.23766
1683.63677	1.29845
1681.70820	1.36396
1679.77964	1.40446
1677.85107	1.44226
1675.92251	1.48526
1673.99395	1.53965
1672.06538	1.58862
1670.13682	1.63590
1668.20825	1.69783
1666.27969	1.74713
1664.35112	1.78857
1662.42256	1.84154
1660.49399	1.90188
1658.56543	1.94724
1656.63687	1.98331
1654.70830	2.01583
1652.77974	2.06870
1650.85117	2.12398
1648.92261	2.14472
1646.99404	2.17066
1645.06548	2.20191
1643.13691	2.22516
1641.20835	2.23883
1639.27979	2.24896
1637.35122	2.25235
1635.42266	2.25058
1633.49409	2.24772
1631.56553	2.23905
1629.63696	2.22655
1627.70840	2.20181
1625.77983	2.16994
1623.85127	2.12902
1621.92271	2.08122
1619.99414	2.04020
1618.06558	1.99857
1616.13701	1.93593
1614.20845	1.87293
1612.27988	1.82644
1610.35132	1.77768
1608.42275	1.72445
1606.49419	1.67154
1604.56562	1.62255
1602.63706	1.57499
1600.70850	1.52829
1598.77993	1.48491
1596.85137	1.44388
1594.92280	1.40419
1592.99424	1.36589
1591.06567	1.33070
1589.13711	1.29744
1587.20854	1.26620
1585.27998	1.23703
1583.35142	1.20969
1581.42285	1.18491
1579.49429	1.16351
1577.56572	1.14338
1575.63716	1.11799
1573.70859	1.09618
1571.78003	1.08229
1569.85146	1.06746
1567.92290	1.05094
1565.99434	1.03855
1564.06577	1.02833
1562.13721	1.01972
1560.20864	1.01272
1558.28008	1.00228
1556.35151	0.99419
1554.42295	0.98955
1552.49438	0.98443
1550.56582	0.97823
1548.63726	0.97085
1546.70869	0.96347
1544.78013	0.95506
1542.85156	0.94426
1540.92300	0.92931
1538.99443	0.90843
1537.06587	0.89454
1535.13730	0.88468
1533.20874	0.87094
1531.28018	0.85666
1529.35161	0.84669
1527.42305	0.83719
1525.49448	0.82704
1523.56592	0.81803
1521.63735	0.80914
1519.70879	0.80013
1517.78022	0.79259
1515.85166	0.78433
1513.92310	0.77613
1511.99453	0.76886
1510.06597	0.76188
1508.13740	0.75479
1506.20884	0.74442
1504.28027	0.73667
1502.35171	0.73218
1500.42314	0.72769
1498.49458	0.72295
1496.56602	0.71775
1494.63745	0.71254
1492.70889	0.70835
1490.78032	0.70455
1488.85176	0.70016
1486.92319	0.69604
1484.99463	0.69280
1483.06606	0.69020
1481.13750	0.68788
1479.20894	0.68575
1477.28037	0.68413
1475.35181	0.68289
1473.42324	0.68150
1471.49468	0.67961
1469.56611	0.67759
1467.63755	0.67546
1465.70898	0.67317
1463.78042	0.67095
1461.85186	0.66931
1459.92329	0.66812
1457.99473	0.66674
1456.06616	0.66482
1454.13760	0.66289
1452.20903	0.66107
1450.28047	0.65902
1448.35190	0.65663
1446.42334	0.65398
1444.49478	0.65163
1442.56621	0.64959
1440.63765	0.64757
1438.70908	0.64560
1436.78052	0.64341
1434.85195	0.64106
1432.92339	0.63893
1430.99482	0.63712
1429.06626	0.63582
1427.13770	0.63508
1425.20913	0.63469
1423.28057	0.63435
1421.35200	0.63375
1419.42344	0.63295
1417.49487	0.63208
1415.56631	0.63095
1413.63774	0.62977
1411.70918	0.62874
1409.78062	0.62804
1407.85205	0.62766
1405.92349	0.62739
1403.99492	0.62705
1402.06636	0.62633
1400.13779	0.62518
1398.20923	0.62363
1396.28066	0.62174
1394.35210	0.61931
1392.42354	0.61662
1390.49497	0.61409
1388.56641	0.61153
1386.63784	0.60869
1384.70928	0.60574
1382.78071	0.60303
1380.85215	0.60050
1378.92358	0.59818
1376.99502	0.59629
1375.06646	0.59502
1373.13789	0.59419
1371.20933	0.59344
1369.28076	0.59263
1367.35220	0.59172
1365.42363	0.59058
1363.49507	0.58912
1361.56650	0.58765
1359.63794	0.58653
1357.70937	0.58561
1355.78081	0.58461
1353.85225	0.58357
1351.92368	0.58258
1349.99512	0.58160
1348.06655	0.58062
1346.13799	0.57967
1344.20942	0.57874
1342.28086	0.57787
1340.35229	0.57715
1338.42373	0.57637
1336.49517	0.57550
1334.56660	0.57470
1332.63804	0.57397
1330.70947	0.57335
1328.78091	0.57302
1326.85234	0.57289
1324.92378	0.57287
1322.99521	0.57294
1321.06665	0.57301
1319.13809	0.57290
1317.20952	0.57259
1315.28096	0.57208
1313.35239	0.57135
1311.42383	0.57055
1309.49526	0.56982
1307.56670	0.56914
1305.63813	0.56845
1303.70957	0.56767
1301.78101	0.56679
1299.85244	0.56582
1297.92388	0.56482
1295.99531	0.56376
1294.06675	0.56263
1292.13818	0.56146
1290.20962	0.56037
1288.28105	0.55945
1286.35249	0.55871
1284.42393	0.55808
1282.49536	0.55728
1280.56680	0.55622
1278.63823	0.55514
1276.70967	0.55416
1274.78110	0.55328
1272.85254	0.55253
1270.92397	0.55190
1268.99541	0.55130
1267.06685	0.55075
1265.13828	0.55031
1263.20972	0.54994
1261.28115	0.54956
1259.35259	0.54911
1257.42402	0.54867
1255.49546	0.54835
1253.56689	0.54813
1251.63833	0.54802
1249.70977	0.54798
1247.78120	0.54785
1245.85264	0.54758
1243.92407	0.54720
1241.99551	0.54662
1240.06694	0.54574
1238.13838	0.54468
1236.20981	0.54350
1234.28125	0.54217
1232.35269	0.54078
1230.42412	0.53940
1228.49556	0.53809
1226.56699	0.53687
1224.63843	0.53552
1222.70986	0.53414
1220.78130	0.53301
1218.85273	0.53202
1216.92417	0.53112
1214.99561	0.53045
1213.06704	0.52988
1211.13848	0.52919
1209.20991	0.52848
1207.28135	0.52788
1205.35278	0.52719
1203.42422	0.52638
1201.49565	0.52562
1199.56709	0.52489
1197.63853	0.52412
1195.70996	0.52343
1193.78140	0.52287
1191.85283	0.52236
1189.92427	0.52183
1187.99570	0.52135
1186.06714	0.52108
1184.13857	0.52114
1182.21001	0.52142
1180.28145	0.52189
1178.35288	0.52260
1176.42432	0.52354
1174.49575	0.52459
1172.56719	0.52545
1170.63862	0.52601
1168.71006	0.52649
1166.78149	0.52696
1164.85293	0.52735
1162.92437	0.52763
1160.99580	0.52771
1159.06724	0.52765
1157.13867	0.52749
1155.21011	0.52699
1153.28154	0.52593
1151.35298	0.52420
1149.42441	0.52186
1147.49585	0.51925
1145.56729	0.51664
1143.63872	0.51406
1141.71016	0.51167
1139.78159	0.50957
1137.85303	0.50767
1135.92446	0.50617
1133.99590	0.50525
1132.06733	0.50460
1130.13877	0.50388
1128.21021	0.50312
1126.28164	0.50249
1124.35308	0.50181
1122.42451	0.50100
1120.49595	0.50042
1118.56738	0.50038
1116.63882	0.50073
1114.71025	0.50119
1112.78169	0.50162
1110.85312	0.50204
1108.92456	0.50264
1106.99600	0.50352
1105.06743	0.50453
1103.13887	0.50552
1101.21030	0.50673
1099.28174	0.50845
1097.35317	0.51078
1095.42461	0.51360
1093.49604	0.51705
1091.56748	0.52151
1089.63892	0.52721
1087.71035	0.53413
1085.78179	0.54186
1083.85322	0.54973
1081.92466	0.55700
1079.99609	0.56268
1078.06753	0.56563
1076.13896	0.56542
1074.21040	0.56249
1072.28184	0.55752
1070.35327	0.55125
1068.42471	0.54448
1066.49614	0.53792
1064.56758	0.53191
1062.63901	0.52640
1060.71045	0.52143
1058.78188	0.51715
1056.85332	0.51345
1054.92476	0.51023
1052.99619	0.50745
1051.06763	0.50508
1049.13906	0.50323
1047.21050	0.50207
1045.28193	0.50141
1043.35337	0.50100
1041.42480	0.50081
1039.49624	0.50075
1037.56768	0.50070
1035.63911	0.50066
1033.71055	0.50027
1031.78198	0.49949
1029.85342	0.49866
1027.92485	0.49771
1025.99629	0.49654
1024.06772	0.49566
1022.13916	0.49545
1020.21060	0.49559
1018.28203	0.49568
1016.35347	0.49565
1014.42490	0.49573
1012.49634	0.49615
1010.56777	0.49685
1008.63921	0.49753
1006.71064	0.49810
1004.78208	0.49911
1002.85352	0.50094
1000.92495	0.50342
998.99639	0.50651
997.06782	0.51027
995.13926	0.51444
993.21069	0.51853
991.28213	0.52194
989.35356	0.52415
987.42500	0.52509
985.49644	0.52516
983.56787	0.52515
981.63931	0.52560
979.71074	0.52648
977.78218	0.52785
975.85361	0.52996
973.92505	0.53262
971.99648	0.53551
970.06792	0.53875
968.13936	0.54244
966.21079	0.54643
964.28223	0.55071
962.35366	0.55543
960.42510	0.56053
958.49653	0.56592
956.56797	0.57169
954.63940	0.57770
952.71084	0.58372
950.78228	0.58969
948.85371	0.59583
946.92515	0.60222
944.99658	0.60864
943.06802	0.61485
941.13945	0.62068
939.21089	0.62611
937.28232	0.63167
935.35376	0.63762
933.42520	0.64326
931.49663	0.64863
929.56807	0.65485
927.63950	0.66144
925.71094	0.66701
923.78237	0.67219
921.85381	0.67843
919.92524	0.68574
917.99668	0.69300
916.06812	0.69985
914.13955	0.70700
912.21099	0.71451
910.28242	0.72194
908.35386	0.72955
906.42529	0.73786
904.49673	0.74716
902.56816	0.75741
900.63960	0.76810
898.71104	0.77812
896.78247	0.78682
894.85391	0.79526
892.92534	0.80452
890.99678	0.81413
889.06821	0.82398
887.13965	0.83478
885.21108	0.84640
883.28252	0.85822
881.35396	0.86997
879.42539	0.88118
877.49683	0.89155
875.56826	0.90198
873.63970	0.91310
871.71113	0.92470
869.78257	0.93632
867.85400	0.94740
865.92544	0.95885
863.99687	0.97151
862.06831	0.98413
860.13975	0.99563
858.21118	1.00711
856.28262	1.01874
854.35405	1.02962
852.42549	1.04049
850.49692	1.05107
848.56836	1.06094
846.63979	1.07087
844.71123	1.08139
842.78267	1.09406
840.85410	1.10833
838.92554	1.11994
836.99697	1.12936
835.06841	1.13923
833.13984	1.14822
831.21128	1.15754
829.28271	1.16938
827.35415	1.18224
825.42559	1.19493
823.49702	1.21055
821.56846	1.22724
819.63989	1.23717
817.71133	1.24242
815.78276	1.24601
813.85420	1.24735
811.92563	1.25794
809.99707	1.28457
808.06851	1.31025
806.13994	1.31727
804.21138	1.30599
802.28281	1.29116
800.35425	1.28856
798.42568	1.30418
796.49712	1.33071
794.56855	1.34590
792.63999	1.34787
790.71143	1.35617
788.78286	1.35770
786.85430	1.32495
784.92573	1.28775
782.99717	1.28790
781.06860	1.31202
779.14004	1.31709
777.21147	1.29149
775.28291	1.26683
773.35435	1.28574
771.42578	1.32673
769.49722	1.31556
767.56865	1.27198
765.64009	1.22236
763.71152	1.19822
761.78296	1.23941
759.85439	1.32987
757.92583	1.39526
755.99727	1.30904
754.06870	1.22806
752.14014	1.31204
750.21157	1.42570
748.28301	1.22491
746.35444	1.05460
744.42588	1.01237
742.49731	0.97210
740.56875	0.89444
738.64019	0.87761
736.71162	0.94398
734.78306	0.96661
732.85449	0.80443
730.92593	0.62186
728.99736	0.52621
727.06880	0.50361
725.14023	0.47895
723.21167	0.26430
721.28311	0.02049
719.35454	-0.03226
717.42598	0.04126
715.49741	0.09894
713.56885	-0.02397
711.64028	-0.25132
709.71172	-0.20606
707.78315	-0.00293
705.85459	0.15748
703.92603	0.26935
701.99746	0.37471
700.06890	0.44385
698.14033	0.52320
696.21177	0.65241
694.28320	0.75151
692.35464	0.58528
690.42607	0.36955
688.49751	0.27397
686.56895	0.26552
684.64038	0.30524
682.71182	0.36322
680.78325	0.43725
678.85469	0.62105
676.92612	0.68395
674.99756	0.47380
673.06899	0.44047
671.14043	0.52658
669.21187	0.42756
667.28330	0.26184
665.35474	0.25725
663.42617	0.37668
661.49761	0.48653
659.56904	0.49132
657.64048	0.49376
655.71191	0.59090
653.78335	0.76017
651.85479	0.73204
649.92622	0.51004
647.99766	0.39020
646.06909	0.42882
644.14053	0.56260
642.21196	0.63268
640.28340	0.59621
638.35483	0.47237
636.42627	0.36277
634.49771	0.35827
632.56914	0.37673
630.64058	0.41205
628.71201	0.56627
626.78345	0.72033
624.85488	0.61161
622.92632	0.46709
620.99775	0.39448
619.06919	0.37319
617.14062	0.36582
615.21206	0.39552
613.28350	0.57912
611.35493	1.10181
609.42637	0.85563
607.49780	0.53671
605.56924	0.38231
603.64067	0.31494
601.71211	0.33980
599.78354	0.42211
597.85498	0.40055
595.92642	0.31437
593.99785	0.25083
592.06929	0.20119
590.14072	0.19972
588.21216	0.22954
586.28359	0.25606
584.35503	0.28509
582.42646	0.33995
580.49790	0.34865
578.56934	0.31830
576.64077	0.36692
574.71221	0.53126
572.78364	0.50991
570.85508	0.35143
568.92651	0.27941
566.99795	0.28833
565.06938	0.35936
563.14082	0.45856
561.21226	0.44648
559.28369	0.35037
557.35513	0.33294
555.42656	0.35593
553.49800	0.35166
551.56943	0.33778
549.64087	0.36207
547.71230	0.39825
545.78374	0.40361
543.85518	0.40180
541.92661	0.39677
539.99805	0.44965
538.06948	0.56060
536.14092	0.48539
534.21235	0.35735
532.28379	0.27318
530.35522	0.23342
528.42666	0.27304
526.49810	0.35685
524.56953	0.31708
522.64097	0.24630
520.71240	0.26505
518.78384	0.33192
516.85527	0.31734
514.92671	0.27307
512.99814	0.26281
511.06958	0.29401
509.14102	0.35994
507.21245	0.36912
505.28389	0.28017
503.35532	0.23893
501.42676	0.30977
499.49819	0.47295
