3997.91411	0.08871
3995.98555	0.08899
3994.05698	0.08955
3992.12842	0.09007
3990.19985	0.09041
3988.27129	0.09095
3986.34272	0.09157
3984.41416	0.09189
3982.48560	0.09196
3980.55703	0.09217
3978.62847	0.09258
3976.69990	0.09293
3974.77134	0.09321
3972.84277	0.09334
3970.91421	0.09320
3968.98564	0.09302
3967.05708	0.09303
3965.12852	0.09336
3963.19995	0.09395
3961.27139	0.09443
3959.34282	0.09435
3957.41426	0.09399
3955.48569	0.09398
3953.55713	0.09433
3951.62856	0.09507
3949.70000	0.09628
3947.77144	0.09701
3945.84287	0.09654
3943.91431	0.09604
3941.98574	0.09618
3940.05718	0.09591
3938.12861	0.09536
3936.20005	0.09532
3934.27148	0.09595
3932.34292	0.09729
3930.41436	0.09821
3928.48579	0.09758
3926.55723	0.09694
3924.62866	0.09749
3922.70010	0.09790
3920.77153	0.09740
3918.84297	0.09731
3916.91440	0.09768
3914.98584	0.09689
3913.05728	0.09511
3911.12871	0.09395
3909.20015	0.09389
3907.27158	0.09539
3905.34302	0.09893
3903.41445	0.10273
3901.48589	0.10364
3899.55732	0.10189
3897.62876	0.09904
3895.70020	0.09658
3893.77163	0.09631
3891.84307	0.09813
3889.91450	0.09921
3887.98594	0.09850
3886.05737	0.09867
3884.12881	0.10033
3882.20024	0.10154
3880.27168	0.10144
3878.34312	0.09960
3876.41455	0.09802
3874.48599	0.09914
3872.55742	0.10238
3870.62886	0.10536
3868.70029	0.10578
3866.77173	0.10426
3864.84316	0.10441
3862.91460	0.10541
3860.98604	0.10416
3859.05747	0.10252
3857.12891	0.10343
3855.20034	0.10722
3853.27178	0.11256
3851.34321	0.11349
3849.41465	0.10889
3847.48608	0.10512
3845.55752	0.10406
3843.62896	0.10542
3841.70039	0.10819
3839.77183	0.11185
3837.84326	0.11510
3835.91470	0.11544
3833.98613	0.11391
3832.05757	0.11263
3830.12900	0.11195
3828.20044	0.11209
3826.27187	0.11308
3824.34331	0.11458
3822.41475	0.11740
3820.48618	0.12153
3818.55762	0.12277
3816.62905	0.12142
3814.70049	0.11961
3812.77192	0.11727
3810.84336	0.11628
3808.91479	0.11797
3806.98623	0.12189
3805.05767	0.12534
3803.12910	0.12745
3801.20054	0.12993
3799.27197	0.13119
3797.34341	0.13073
3795.41484	0.12993
3793.48628	0.12868
3791.55771	0.12792
3789.62915	0.12814
3787.70059	0.12947
3785.77202	0.13218
3783.84346	0.13505
3781.91489	0.13700
3779.98633	0.13915
3778.05776	0.14103
3776.12920	0.14094
3774.20063	0.14076
3772.27207	0.14278
3770.34351	0.14708
3768.41494	0.15122
3766.48638	0.15293
3764.55781	0.15371
3762.62925	0.15490
3760.70068	0.15778
3758.77212	0.16269
3756.84355	0.16676
3754.91499	0.16904
3752.98643	0.17289
3751.05786	0.18001
3749.12930	0.18598
3747.20073	0.18745
3745.27217	0.18948
3743.34360	0.19304
3741.41504	0.19557
3739.48647	0.19858
3737.55791	0.20463
3735.62935	0.21425
3733.70078	0.22255
3731.77222	0.22429
3729.84365	0.22452
3727.91509	0.22765
3725.98652	0.23401
3724.05796	0.24134
3722.12939	0.24749
3720.20083	0.25276
3718.27227	0.25740
3716.34370	0.26232
3714.41514	0.26941
3712.48657	0.28148
3710.55801	0.29913
3708.62944	0.31403
3706.70088	0.32347
3704.77231	0.33337
3702.84375	0.34677
3700.91519	0.36431
3698.98662	0.38235
3697.05806	0.39929
3695.12949	0.41804
3693.20093	0.43873
3691.27236	0.46265
3689.34380	0.49397
3687.41523	0.52841
3685.48667	0.55532
3683.55811	0.57920
3681.62954	0.60673
3679.70098	0.63952
3677.77241	0.67529
3675.84385	0.71741
3673.91528	0.77271
3671.98672	0.81662
3670.05815	0.85556
3668.12959	0.90858
3666.20103	0.95516
3664.27246	0.99412
3662.34390	1.03729
3660.41533	1.08496
3658.48677	1.13254
3656.55820	1.18330
3654.62964	1.23965
3652.70107	1.28721
3650.77251	1.33045
3648.84395	1.39196
3646.91538	1.46318
3644.98682	1.50959
3643.05825	1.54526
3641.12969	1.58442
3639.20112	1.62934
3637.27256	1.67582
3635.34399	1.72197
3633.41543	1.76721
3631.48687	1.80829
3629.55830	1.85108
3627.62974	1.90767
3625.70117	1.95695
3623.77261	1.98918
3621.84404	2.02212
3619.91548	2.06162
3617.98691	2.10898
3616.05835	2.15252
3614.12979	2.18881
3612.20122	2.22798
3610.27266	2.26695
3608.34409	2.30725
3606.41553	2.35196
3604.48696	2.39233
3602.55840	2.42713
3600.62983	2.46519
3598.70127	2.50726
3596.77271	2.54828
3594.84414	2.58836
3592.91558	2.62791
3590.98701	2.66569
3589.05845	2.70367
3587.12988	2.75028
3585.20132	2.79928
3583.27275	2.83891
3581.34419	2.87598
3579.41562	2.91610
3577.48706	2.95848
3575.55850	3.00116
3573.62993	3.04415
3571.70137	3.08561
3569.77280	3.12610
3567.84424	3.17111
3565.91567	3.22713
3563.98711	3.27892
3562.05854	3.31915
3560.12998	3.36009
3558.20142	3.40372
3556.27285	3.44853
3554.34429	3.49501
3552.41572	3.54469
3550.48716	3.59393
3548.55859	3.63777
3546.63003	3.67962
3544.70146	3.72739
3542.77290	3.77948
3540.84434	3.82854
3538.91577	3.87457
3536.98721	3.92041
3535.05864	3.96836
3533.13008	4.01518
3531.20151	4.06064
3529.27295	4.10883
3527.34438	4.16000
3525.41582	4.20990
3523.48726	4.25846
3521.55869	4.30741
3519.63013	4.35761
3517.70156	4.41023
3515.77300	4.45902
3513.84443	4.50260
3511.91587	4.54637
3509.98730	4.59546
3508.05874	4.64989
3506.13018	4.69857
3504.20161	4.73927
3502.27305	4.78506
3500.34448	4.83644
3498.41592	4.88002
3496.48735	4.91922
3494.55879	4.96617
3492.63022	5.02264
3490.70166	5.08275
3488.77310	5.13648
3486.84453	5.17631
3484.91597	5.21442
3482.98740	5.26407
3481.05884	5.31862
3479.13027	5.36822
3477.20171	5.41077
3475.27314	5.45277
3473.34458	5.51011
3471.41602	5.58250
3469.48745	5.64760
3467.55889	5.69753
3465.63032	5.73687
3463.70176	5.77200
3461.77319	5.81654
3459.84463	5.87426
3457.91606	5.93041
3455.98750	5.98214
3454.05894	6.03610
3452.13037	6.08468
3450.20181	6.12459
3448.27324	6.17107
3446.34468	6.23634
3444.41611	6.30445
3442.48755	6.36178
3440.55898	6.41888
3438.63042	6.48304
3436.70186	6.53226
3434.77329	6.56123
3432.84473	6.59356
3430.91616	6.62380
3428.98760	6.65133
3427.05903	6.69698
3425.13047	6.75977
3423.20190	6.80803
3421.27334	6.85094
3419.34478	6.90537
3417.41621	6.93832
3415.48765	6.96024
3413.55908	7.01076
3411.63052	7.08978
3409.70195	7.17141
3407.77339	7.23712
3405.84482	7.27676
3403.91626	7.30302
3401.98770	7.33279
3400.05913	7.38203
3398.13057	7.42203
3396.20200	7.42498
3394.27344	7.44774
3392.34487	7.49464
3390.41631	7.54362
3388.48774	7.59882
3386.55918	7.65381
3384.63062	7.69904
3382.70205	7.73829
3380.77349	7.77769
3378.84492	7.81717
3376.91636	7.85738
3374.98779	7.86236
3373.05923	7.83444
3371.13066	7.82628
3369.20210	7.86086
3367.27354	7.89121
3365.34497	7.88657
3363.41641	7.88685
3361.48784	7.93439
3359.55928	8.01275
3357.63071	8.04704
3355.70215	8.02569
3353.77358	8.00305
3351.84502	8.01903
3349.91646	8.05629
3347.98789	8.10491
3346.05933	8.15478
3344.13076	8.16529
3342.20220	8.12709
3340.27363	8.09983
3338.34507	8.13772
3336.41650	8.21432
3334.48794	8.30400
3332.55937	8.31364
3330.63081	8.23319
3328.70225	8.17464
3326.77368	8.14706
3324.84512	8.16387
3322.91655	8.26739
3320.98799	8.37889
3319.05942	8.39761
3317.13086	8.35161
3315.20229	8.27862
3313.27373	8.26990
3311.34517	8.31486
3309.41660	8.32250
3307.48804	8.33929
3305.55947	8.41600
3303.63091	8.49815
3301.70234	8.48357
3299.77378	8.42638
3297.84521	8.37718
3295.91665	8.32831
3293.98809	8.33023
3292.05952	8.36046
3290.13096	8.34469
3288.20239	8.32028
3286.27383	8.32079
3284.34526	8.30658
3282.41670	8.28819
3280.48813	8.27954
3278.55957	8.29515
3276.63101	8.33779
3274.70244	8.43371
3272.77388	8.54256
3270.84531	8.53471
3268.91675	8.45325
3266.98818	8.36375
3265.05962	8.30401
3263.13105	8.31999
3261.20249	8.36989
3259.27393	8.35001
3257.34536	8.27204
3255.41680	8.24473
3253.48823	8.33539
3251.55967	8.51881
3249.63110	8.64100
3247.70254	8.58383
3245.77397	8.40900
3243.84541	8.26825
3241.91685	8.21733
3239.98828	8.18419
3238.05972	8.14879
3236.13115	8.16196
3234.20259	8.22164
3232.27402	8.27942
3230.34546	8.29098
3228.41689	8.23755
3226.48833	8.13236
3224.55977	8.04956
3222.63120	8.08235
3220.70264	8.20534
3218.77407	8.30765
3216.84551	8.33742
3214.91694	8.32213
3212.98838	8.26233
3211.05981	8.13158
3209.13125	7.98655
3207.20269	7.90806
3205.27412	7.90662
3203.34556	7.91875
3201.41699	7.89664
3199.48843	7.85290
3197.55986	7.80136
3195.63130	7.75110
3193.70273	7.69538
3191.77417	7.59529
3189.84561	7.48047
3187.91704	7.43851
3185.98848	7.47289
3184.05991	7.50998
3182.13135	7.48830
3180.20278	7.42007
3178.27422	7.36187
3176.34565	7.30471
3174.41709	7.21469
3172.48853	7.12950
3170.55996	7.06868
3168.63140	7.01091
3166.70283	6.94815
3164.77427	6.87423
3162.84570	6.80944
3160.91714	6.77351
3158.98857	6.73882
3157.06001	6.69167
3155.13145	6.64259
3153.20288	6.57007
3151.27432	6.46996
3149.34575	6.38044
3147.41719	6.32447
3145.48862	6.28654
3143.56006	6.23303
3141.63149	6.15831
3139.70293	6.07695
3137.77437	5.99114
3135.84580	5.90042
3133.91724	5.81892
3131.98867	5.75080
3130.06011	5.68694
3128.13154	5.63164
3126.20298	5.57904
3124.27441	5.51283
3122.34585	5.43418
3120.41729	5.35635
3118.48872	5.28323
3116.56016	5.20944
3114.63159	5.13624
3112.70303	5.06329
3110.77446	4.99058
3108.84590	4.92377
3106.91733	4.86075
3104.98877	4.79465
3103.06021	4.72615
3101.13164	4.66007
3099.20308	4.59486
3097.27451	4.52552
3095.34595	4.45374
3093.41738	4.38426
3091.48882	4.31712
3089.56025	4.25004
3087.63169	4.18389
3085.70312	4.12059
3083.77456	4.05988
3081.84600	4.00016
3079.91743	3.93938
3077.98887	3.87894
3076.06030	3.82072
3074.13174	3.76227
3072.20317	3.70365
3070.27461	3.64748
3068.34604	3.59161
3066.41748	3.53380
3064.48892	3.47545
3062.56035	3.41797
3060.63179	3.36358
3058.70322	3.31134
3056.77466	3.25730
3054.84609	3.20219
3052.91753	3.14896
3050.98896	3.09776
3049.06040	3.04724
3047.13184	2.99731
3045.20327	2.94838
3043.27471	2.89964
3041.34614	2.85039
3039.41758	2.80132
3037.48901	2.75360
3035.56045	2.70759
3033.63188	2.66224
3031.70332	2.61659
3029.77476	2.57180
3027.84619	2.52848
3025.91763	2.48539
3023.98906	2.44226
3022.06050	2.40037
3020.13193	2.35997
3018.20337	2.31996
3016.27480	2.28022
3014.34624	2.24088
3012.41768	2.20122
3010.48911	2.16163
3008.56055	2.12339
3006.63198	2.08645
3004.70342	2.05012
3002.77485	2.01468
3000.84629	1.98047
2998.91772	1.94684
2996.98916	1.91336
2995.06060	1.88039
2993.13203	1.84798
2991.20347	1.81631
2989.27490	1.78556
2987.34634	1.75513
2985.41777	1.72509
2983.48921	1.69607
2981.56064	1.66760
2979.63208	1.63907
2977.70352	1.61074
2975.77495	1.58272
2973.84639	1.55509
2971.91782	1.52801
2969.98926	1.50084
2968.06069	1.47325
2966.13213	1.44610
2964.20356	1.42001
2962.27500	1.39461
2960.34644	1.36912
2958.41787	1.34343
2956.48931	1.31840
2954.56074	1.29465
2952.63218	1.27182
2950.70361	1.24910
2948.77505	1.22596
2946.84648	1.20269
2944.91792	1.18000
2942.98936	1.15769
2941.06079	1.13497
2939.13223	1.11147
2937.20366	1.08774
2935.27510	1.06393
2933.34653	1.03940
2931.41797	1.01458
2929.48940	0.99051
2927.56084	0.96680
2925.63228	0.94271
2923.70371	0.91894
2921.77515	0.89638
2919.84658	0.87607
2917.91802	0.85919
2915.98945	0.84619
2914.06089	0.83732
2912.13232	0.83148
2910.20376	0.82546
2908.27520	0.81735
2906.34663	0.80770
2904.41807	0.79694
2902.48950	0.78532
2900.56094	0.77345
2898.63237	0.76171
2896.70381	0.75019
2894.77524	0.73877
2892.84668	0.72740
2890.91812	0.71625
2888.98955	0.70567
2887.06099	0.69562
2885.13242	0.68564
2883.20386	0.67571
2881.27529	0.66610
2879.34673	0.65659
2877.41816	0.64652
2875.48960	0.63585
2873.56104	0.62508
2871.63247	0.61416
2869.70391	0.60276
2867.77534	0.59124
2865.84678	0.57964
2863.91821	0.56734
2861.98965	0.55416
2860.06108	0.54058
2858.13252	0.52706
2856.20396	0.51353
2854.27539	0.49961
2852.34683	0.48560
2850.41826	0.47373
2848.48970	0.46724
2846.56113	0.46648
2844.63257	0.46797
2842.70400	0.46844
2840.77544	0.46710
2838.84687	0.46439
2836.91831	0.46073
2834.98975	0.45634
2833.06118	0.45155
2831.13262	0.44655
2829.20405	0.44123
2827.27549	0.43556
2825.34692	0.42991
2823.41836	0.42447
2821.48979	0.41890
2819.56123	0.41321
2817.63267	0.40757
2815.70410	0.40187
2813.77554	0.39623
2811.84697	0.39087
2809.91841	0.38566
2807.98984	0.38058
2806.06128	0.37562
2804.13271	0.37056
2802.20415	0.36555
2800.27559	0.36082
2798.34702	0.35616
2796.41846	0.35140
2794.48989	0.34665
2792.56133	0.34202
2790.63276	0.33749
2788.70420	0.33316
2786.77563	0.32910
2784.84707	0.32509
2782.91851	0.32096
2780.98994	0.31683
2779.06138	0.31297
2777.13281	0.30939
2775.20425	0.30566
2773.27568	0.30164
2771.34712	0.29774
2769.41855	0.29422
2767.48999	0.29089
2765.56143	0.28753
2763.63286	0.28416
2761.70430	0.28080
2759.77573	0.27741
2757.84717	0.27412
2755.91860	0.27102
2753.99004	0.26806
2752.06147	0.26505
2750.13291	0.26198
2748.20435	0.25920
2746.27578	0.25675
2744.34722	0.25416
2742.41865	0.25128
2740.49009	0.24838
2738.56152	0.24582
2736.63296	0.24351
2734.70439	0.24116
2732.77583	0.23874
2730.84727	0.23627
2728.91870	0.23379
2726.99014	0.23151
2725.06157	0.22944
2723.13301	0.22741
2721.20444	0.22542
2719.27588	0.22342
2717.34731	0.22133
2715.41875	0.21927
2713.49019	0.21739
2711.56162	0.21561
2709.63306	0.21387
2707.70449	0.21224
2705.77593	0.21069
2703.84736	0.20909
2701.91880	0.20756
2699.99023	0.20619
2698.06167	0.20487
2696.13311	0.20355
2694.20454	0.20219
2692.27598	0.20069
2690.34741	0.19925
2688.41885	0.19805
2686.49028	0.19680
2684.56172	0.19539
2682.63315	0.19421
2680.70459	0.19338
2678.77603	0.19240
2676.84746	0.19112
2674.91890	0.18986
2672.99033	0.18869
2671.06177	0.18755
2669.13320	0.18651
2667.20464	0.18571
2665.27607	0.18503
2663.34751	0.18414
2661.41895	0.18319
2659.49038	0.18245
2657.56182	0.18181
2655.63325	0.18105
2653.70469	0.18023
2651.77612	0.17951
2649.84756	0.17899
2647.91899	0.17848
2645.99043	0.17781
2644.06187	0.17705
2642.13330	0.17649
2640.20474	0.17623
2638.27617	0.17601
2636.34761	0.17558
2634.41904	0.17503
2632.49048	0.17467
2630.56191	0.17445
2628.63335	0.17405
2626.70479	0.17355
2624.77622	0.17322
2622.84766	0.17296
2620.91909	0.17269
2618.99053	0.17250
2617.06196	0.17233
2615.13340	0.17202
2613.20483	0.17169
2611.27627	0.17159
2609.34771	0.17165
2607.41914	0.17176
2605.49058	0.17184
2603.56201	0.17181
2601.63345	0.17178
2599.70488	0.17179
2597.77632	0.17179
2595.84775	0.17183
2593.91919	0.17196
2591.99062	0.17205
2590.06206	0.17207
2588.13350	0.17222
2586.20493	0.17249
2584.27637	0.17272
2582.34780	0.17289
2580.41924	0.17308
2578.49067	0.17340
2576.56211	0.17388
2574.63354	0.17434
2572.70498	0.17471
2570.77642	0.17510
2568.84785	0.17550
2566.91929	0.17590
2564.99072	0.17628
2563.06216	0.17661
2561.13359	0.17684
2559.20503	0.17716
2557.27646	0.17775
2555.34790	0.17848
2553.41934	0.17916
2551.49077	0.17974
2549.56221	0.18025
2547.63364	0.18067
2545.70508	0.18107
2543.77651	0.18163
2541.84795	0.18229
2539.91938	0.18283
2537.99082	0.18344
2536.06226	0.18421
2534.13369	0.18498
2532.20513	0.18576
2530.27656	0.18658
2528.34800	0.18729
2526.41943	0.18790
2524.49087	0.18859
2522.56230	0.18941
2520.63374	0.19028
2518.70518	0.19110
2516.77661	0.19176
2514.84805	0.19244
2512.91948	0.19327
2510.99092	0.19415
2509.06235	0.19496
2507.13379	0.19582
2505.20522	0.19672
2503.27666	0.19750
2501.34810	0.19816
2499.41953	0.19888
2497.49097	0.19976
2495.56240	0.20074
2493.63384	0.20171
2491.70527	0.20253
2489.77671	0.20322
2487.84814	0.20402
2485.91958	0.20507
2483.99102	0.20614
2482.06245	0.20703
2480.13389	0.20781
2478.20532	0.20861
2476.27676	0.20955
2474.34819	0.21052
2472.41963	0.21144
2470.49106	0.21241
2468.56250	0.21337
2466.63394	0.21428
2464.70537	0.21529
2462.77681	0.21634
2460.84824	0.21737
2458.91968	0.21837
2456.99111	0.21929
2455.06255	0.22020
2453.13398	0.22112
2451.20542	0.22198
2449.27686	0.22292
2447.34829	0.22413
2445.41973	0.22537
2443.49116	0.22634
2441.56260	0.22717
2439.63403	0.22805
2437.70547	0.22903
2435.77690	0.23015
2433.84834	0.23132
2431.91978	0.23233
2429.99121	0.23329
2428.06265	0.23433
2426.13408	0.23538
2424.20552	0.23649
2422.27695	0.23771
2420.34839	0.23889
2418.41982	0.24004
2416.49126	0.24123
2414.56270	0.24247
2412.63413	0.24362
2410.70557	0.24463
2408.77700	0.24572
2406.84844	0.24700
2404.91987	0.24828
2402.99131	0.24944
2401.06274	0.25059
2399.13418	0.25177
2397.20562	0.25298
2395.27705	0.25418
2393.34849	0.25537
2391.41992	0.25675
2389.49136	0.25838
2387.56279	0.26050
2385.63423	0.26357
2383.70566	0.26782
2381.77710	0.27329
2379.84854	0.27995
2377.91997	0.28759
2375.99141	0.29601
2374.06284	0.30569
2372.13428	0.31692
2370.20571	0.32904
2368.27715	0.34162
2366.34858	0.35371
2364.42002	0.36344
2362.49146	0.37103
2360.56289	0.37672
2358.63433	0.37834
2356.70576	0.37482
2354.77720	0.36710
2352.84863	0.35653
2350.92007	0.34544
2348.99150	0.33866
2347.06294	0.33931
2345.13437	0.34796
2343.20581	0.36017
2341.27725	0.36717
2339.34868	0.36792
2337.42012	0.36685
2335.49155	0.36618
2333.56299	0.36606
2331.63442	0.36681
2329.70586	0.36731
2327.77729	0.36635
2325.84873	0.36417
2323.92017	0.36149
2321.99160	0.35873
2320.06304	0.35588
2318.13447	0.35288
2316.20591	0.35013
2314.27734	0.34842
2312.34878	0.34781
2310.42021	0.34751
2308.49165	0.34665
2306.56309	0.34512
2304.63452	0.34384
2302.70596	0.34346
2300.77739	0.34366
2298.84883	0.34402
2296.92026	0.34461
2294.99170	0.34539
2293.06313	0.34616
2291.13457	0.34685
2289.20601	0.34754
2287.27744	0.34826
2285.34888	0.34910
2283.42031	0.35031
2281.49175	0.35205
2279.56318	0.35431
2277.63462	0.35678
2275.70605	0.35921
2273.77749	0.36141
2271.84893	0.36342
2269.92036	0.36547
2267.99180	0.36754
2266.06323	0.36951
2264.13467	0.37152
2262.20610	0.37362
2260.27754	0.37564
2258.34897	0.37753
2256.42041	0.37934
2254.49185	0.38113
2252.56328	0.38300
2250.63472	0.38498
2248.70615	0.38713
2246.77759	0.38936
2244.84902	0.39145
2242.92046	0.39355
2240.99189	0.39582
2239.06333	0.39804
2237.13477	0.40017
2235.20620	0.40229
2233.27764	0.40439
2231.34907	0.40650
2229.42051	0.40866
2227.49194	0.41086
2225.56338	0.41311
2223.63481	0.41541
2221.70625	0.41767
2219.77769	0.41989
2217.84912	0.42205
2215.92056	0.42414
2213.99199	0.42626
2212.06343	0.42845
2210.13486	0.43070
2208.20630	0.43291
2206.27773	0.43494
2204.34917	0.43695
2202.42061	0.43903
2200.49204	0.44114
2198.56348	0.44325
2196.63491	0.44526
2194.70635	0.44717
2192.77778	0.44907
2190.84922	0.45097
2188.92065	0.45285
2186.99209	0.45468
2185.06353	0.45647
2183.13496	0.45822
2181.20640	0.45991
2179.27783	0.46151
2177.34927	0.46309
2175.42070	0.46462
2173.49214	0.46608
2171.56357	0.46752
2169.63501	0.46902
2167.70645	0.47053
2165.77788	0.47188
2163.84932	0.47305
2161.92075	0.47407
2159.99219	0.47497
2158.06362	0.47591
2156.13506	0.47698
2154.20649	0.47799
2152.27793	0.47882
2150.34937	0.47950
2148.42080	0.48011
2146.49224	0.48069
2144.56367	0.48120
2142.63511	0.48161
2140.70654	0.48182
2138.77798	0.48199
2136.84941	0.48228
2134.92085	0.48261
2132.99229	0.48278
2131.06372	0.48267
2129.13516	0.48242
2127.20659	0.48218
2125.27803	0.48187
2123.34946	0.48137
2121.42090	0.48086
2119.49233	0.48037
2117.56377	0.47975
2115.63521	0.47899
2113.70664	0.47824
2111.77808	0.47746
2109.84951	0.47648
2107.92095	0.47541
2105.99238	0.47436
2104.06382	0.47324
2102.13525	0.47199
2100.20669	0.47063
2098.27812	0.46918
2096.34956	0.46766
2094.42100	0.46610
2092.49243	0.46456
2090.56387	0.46295
2088.63530	0.46114
2086.70674	0.45928
2084.77817	0.45737
2082.84961	0.45537
2080.92104	0.45336
2078.99248	0.45134
2077.06392	0.44925
2075.13535	0.44715
2073.20679	0.44503
2071.27822	0.44279
2069.34966	0.44049
2067.42109	0.43829
2065.49253	0.43606
2063.56396	0.43354
2061.63540	0.43093
2059.70684	0.42850
2057.77827	0.42609
2055.84971	0.42346
2053.92114	0.42070
2051.99258	0.41794
2050.06401	0.41529
2048.13545	0.41283
2046.20688	0.41034
2044.27832	0.40767
2042.34976	0.40485
2040.42119	0.40198
2038.49263	0.39906
2036.56406	0.39614
2034.63550	0.39329
2032.70693	0.39052
2030.77837	0.38777
2028.84980	0.38501
2026.92124	0.38232
2024.99268	0.37967
2023.06411	0.37692
2021.13555	0.37410
2019.20698	0.37147
2017.27842	0.36884
2015.34985	0.36576
2013.42129	0.36251
2011.49272	0.35957
2009.56416	0.35690
2007.63560	0.35418
2005.70703	0.35134
2003.77847	0.34855
2001.84990	0.34587
1999.92134	0.34326
1997.99277	0.34068
1996.06421	0.33812
1994.13564	0.33574
1992.20708	0.33340
1990.27852	0.33076
1988.34995	0.32800
1986.42139	0.32536
1984.49282	0.32283
1982.56426	0.32035
1980.63569	0.31782
1978.70713	0.31532
1976.77856	0.31295
1974.85000	0.31065
1972.92144	0.30842
1970.99287	0.30643
1969.06431	0.30475
1967.13574	0.30293
1965.20718	0.30050
1963.27861	0.29796
1961.35005	0.29579
1959.42148	0.29383
1957.49292	0.29204
1955.56436	0.29037
1953.63579	0.28865
1951.70723	0.28681
1949.77866	0.28501
1947.85010	0.28343
1945.92153	0.28221
1943.99297	0.28120
1942.06440	0.27976
1940.13584	0.27766
1938.20728	0.27565
1936.27871	0.27413
1934.35015	0.27286
1932.42158	0.27158
1930.49302	0.27026
1928.56445	0.26901
1926.63589	0.26792
1924.70732	0.26728
1922.77876	0.26680
1920.85020	0.26584
1918.92163	0.26477
1916.99307	0.26378
1915.06450	0.26254
1913.13594	0.26140
1911.20737	0.26077
1909.27881	0.26029
1907.35024	0.25951
1905.42168	0.25857
1903.49312	0.25779
1901.56455	0.25710
1899.63599	0.25648
1897.70742	0.25613
1895.77886	0.25595
1893.85029	0.25559
1891.92173	0.25520
1889.99316	0.25519
1888.06460	0.25492
1886.13604	0.25428
1884.20747	0.25383
1882.27891	0.25350
1880.35034	0.25323
1878.42178	0.25305
1876.49321	0.25291
1874.56465	0.25277
1872.63608	0.25299
1870.70752	0.25398
1868.77896	0.25559
1866.85039	0.25602
1864.92183	0.25497
1862.99326	0.25420
1861.06470	0.25417
1859.13613	0.25449
1857.20757	0.25477
1855.27900	0.25510
1853.35044	0.25550
1851.42187	0.25606
1849.49331	0.25695
1847.56475	0.25822
1845.63618	0.25976
1843.70762	0.26103
1841.77905	0.26110
1839.85049	0.26080
1837.92192	0.26129
1835.99336	0.26216
1834.06479	0.26307
1832.13623	0.26448
1830.20767	0.26677
1828.27910	0.26858
1826.35054	0.26932
1824.42197	0.27014
1822.49341	0.27074
1820.56484	0.27136
1818.63628	0.27253
1816.70771	0.27417
1814.77915	0.27595
1812.85059	0.27810
1810.92202	0.28061
1808.99346	0.28266
1807.06489	0.28415
1805.13633	0.28578
1803.20776	0.28825
1801.27920	0.29143
1799.35063	0.29455
1797.42207	0.29701
1795.49351	0.29956
1793.56494	0.30289
1791.63638	0.30668
1789.70781	0.30919
1787.77925	0.31084
1785.85068	0.31373
1783.92212	0.31768
1781.99355	0.32201
1780.06499	0.32645
1778.13643	0.33066
1776.20786	0.33474
1774.27930	0.33974
1772.35073	0.34658
1770.42217	0.35289
1768.49360	0.35706
1766.56504	0.36108
1764.63647	0.36575
1762.70791	0.37160
1760.77935	0.37902
1758.85078	0.38549
1756.92222	0.39184
1754.99365	0.39869
1753.06509	0.40499
1751.13652	0.41327
1749.20796	0.42404
1747.27939	0.43392
1745.35083	0.44210
1743.42227	0.45117
1741.49370	0.46165
1739.56514	0.47449
1737.63657	0.48764
1735.70801	0.49956
1733.77944	0.51790
1731.85088	0.53873
1729.92231	0.55392
1727.99375	0.56922
1726.06519	0.58591
1724.13662	0.60459
1722.20806	0.62503
1720.27949	0.64417
1718.35093	0.66732
1716.42236	0.70162
1714.49380	0.73216
1712.56523	0.75532
1710.63667	0.77824
1708.70811	0.80397
1706.77954	0.83432
1704.85098	0.87105
1702.92241	0.90306
1700.99385	0.93395
1699.06528	0.98146
1697.13672	1.02599
1695.20815	1.07063
1693.27959	1.11257
1691.35103	1.14623
1689.42246	1.18644
1687.49390	1.22962
1685.56533	1.27160
1683.63677	1.33771
1681.70820	1.40473
1679.77964	1.44513
1677.85107	1.48409
1675.92251	1.52962
1673.99395	1.58721
1672.06538	1.63891
1670.13682	1.68935
1668.20825	1.75447
1666.27969	1.80646
1664.35112	1.85210
1662.42256	1.91072
1660.49399	1.97609
1658.56543	2.02536
1656.63687	2.06464
1654.70830	2.10033
1652.77974	2.15944
1650.85117	2.21791
1648.92261	2.23839
1646.99404	2.26658
1645.06548	2.29671
1643.13691	2.31401
1641.20835	2.32217
1639.27979	2.33080
1637.35122	2.33776
1635.42266	2.33797
1633.49409	2.32994
1631.56553	2.31660
1629.63696	2.29984
1627.70840	2.27180
1625.77983	2.24121
1623.85127	2.20232
1621.92271	2.15146
1619.99414	2.10524
1618.06558	2.06051
1616.13701	1.99524
1614.20845	1.92911
1612.27988	1.88045
1610.35132	1.82946
1608.42275	1.77316
1606.49419	1.71724
1604.56562	1.66648
1602.63706	1.61812
1600.70850	1.57094
1598.77993	1.52738
1596.85137	1.48586
1594.92280	1.44499
1592.99424	1.40549
1591.06567	1.36928
1589.13711	1.33527
1587.20854	1.30368
1585.27998	1.27426
1583.35142	1.24646
1581.42285	1.22127
1579.49429	1.20065
1577.56572	1.18305
1575.63716	1.16023
1573.70859	1.13892
1571.78003	1.12600
1569.85146	1.11337
1567.92290	1.09810
1565.99434	1.08621
1564.06577	1.07771
1562.13721	1.07172
1560.20864	1.06879
1558.28008	1.06650
1556.35151	1.06326
1554.42295	1.06049
1552.49438	1.05786
1550.56582	1.05413
1548.63726	1.04829
1546.70869	1.04157
1544.78013	1.03431
1542.85156	1.02535
1540.92300	1.01055
1538.99443	0.98430
1537.06587	0.96531
1535.13730	0.95349
1533.20874	0.93766
1531.28018	0.92015
1529.35161	0.90781
1527.42305	0.89674
1525.49448	0.88519
1523.56592	0.87557
1521.63735	0.86638
1519.70879	0.85575
1517.78022	0.84626
1515.85166	0.83548
1513.92310	0.82436
1511.99453	0.81554
1510.06597	0.80905
1508.13740	0.80399
1506.20884	0.79149
1504.28027	0.77718
1502.35171	0.76961
1500.42314	0.76430
1498.49458	0.75944
1496.56602	0.75315
1494.63745	0.74576
1492.70889	0.74038
1490.78032	0.73706
1488.85176	0.73302
1486.92319	0.72705
1484.99463	0.72162
1483.06606	0.71785
1481.13750	0.71508
1479.20894	0.71288
1477.28037	0.71165
1475.35181	0.71131
1473.42324	0.71059
1471.49468	0.70705
1469.56611	0.70236
1467.63755	0.69923
1465.70898	0.69745
1463.78042	0.69583
1461.85186	0.69451
1459.92329	0.69475
1457.99473	0.69615
1456.06616	0.69490
1454.13760	0.69076
1452.20903	0.68748
1450.28047	0.68505
1448.35190	0.68294
1446.42334	0.68028
1444.49478	0.67725
1442.56621	0.67443
1440.63765	0.67190
1438.70908	0.66996
1436.78052	0.66777
1434.85195	0.66421
1432.92339	0.66098
1430.99482	0.65911
1429.06626	0.65777
1427.13770	0.65656
1425.20913	0.65619
1423.28057	0.65656
1421.35200	0.65687
1419.42344	0.65715
1417.49487	0.65645
1415.56631	0.65437
1413.63774	0.65276
1411.70918	0.65229
1409.78062	0.65252
1407.85205	0.65305
1405.92349	0.65407
1403.99492	0.65502
1402.06636	0.65516
1400.13779	0.65489
1398.20923	0.65397
1396.28066	0.65193
1394.35210	0.64859
1392.42354	0.64442
1390.49497	0.64086
1388.56641	0.63788
1386.63784	0.63406
1384.70928	0.62928
1382.78071	0.62482
1380.85215	0.62097
1378.92358	0.61787
1376.99502	0.61582
1375.06646	0.61467
1373.13789	0.61338
1371.20933	0.61177
1369.28076	0.61051
1367.35220	0.60930
1365.42363	0.60802
1363.49507	0.60701
1361.56650	0.60578
1359.63794	0.60401
1357.70937	0.60234
1355.78081	0.60113
1353.85225	0.60028
1351.92368	0.59957
1349.99512	0.59891
1348.06655	0.59812
1346.13799	0.59717
1344.20942	0.59638
1342.28086	0.59599
1340.35229	0.59599
1338.42373	0.59564
1336.49517	0.59455
1334.56660	0.59358
1332.63804	0.59311
1330.70947	0.59291
1328.78091	0.59284
1326.85234	0.59286
1324.92378	0.59304
1322.99521	0.59340
1321.06665	0.59378
1319.13809	0.59398
1317.20952	0.59389
1315.28096	0.59355
1313.35239	0.59302
1311.42383	0.59228
1309.49526	0.59146
1307.56670	0.59080
1305.63813	0.59032
1303.70957	0.58982
1301.78101	0.58916
1299.85244	0.58836
1297.92388	0.58740
1295.99531	0.58626
1294.06675	0.58503
1292.13818	0.58382
1290.20962	0.58272
1288.28105	0.58175
1286.35249	0.58078
1284.42393	0.57979
1282.49536	0.57871
1280.56680	0.57739
1278.63823	0.57604
1276.70967	0.57488
1274.78110	0.57385
1272.85254	0.57302
1270.92397	0.57246
1268.99541	0.57192
1267.06685	0.57121
1265.13828	0.57032
1263.20972	0.56940
1261.28115	0.56860
1259.35259	0.56795
1257.42402	0.56744
1255.49546	0.56715
1253.56689	0.56712
1251.63833	0.56728
1249.70977	0.56738
1247.78120	0.56737
1245.85264	0.56727
1243.92407	0.56687
1241.99551	0.56609
1240.06694	0.56506
1238.13838	0.56381
1236.20981	0.56234
1234.28125	0.56070
1232.35269	0.55891
1230.42412	0.55713
1228.49556	0.55549
1226.56699	0.55385
1224.63843	0.55221
1222.70986	0.55079
1220.78130	0.54971
1218.85273	0.54872
1216.92417	0.54763
1214.99561	0.54654
1213.06704	0.54557
1211.13848	0.54462
1209.20991	0.54373
1207.28135	0.54305
1205.35278	0.54237
1203.42422	0.54153
1201.49565	0.54060
1199.56709	0.53969
1197.63853	0.53890
1195.70996	0.53832
1193.78140	0.53784
1191.85283	0.53737
1189.92427	0.53699
1187.99570	0.53661
1186.06714	0.53620
1184.13857	0.53604
1182.21001	0.53630
1180.28145	0.53686
1178.35288	0.53759
1176.42432	0.53860
1174.49575	0.53969
1172.56719	0.54042
1170.63862	0.54068
1168.71006	0.54068
1166.78149	0.54050
1164.85293	0.54032
1162.92437	0.54025
1160.99580	0.54003
1159.06724	0.53952
1157.13867	0.53884
1155.21011	0.53791
1153.28154	0.53651
1151.35298	0.53477
1149.42441	0.53275
1147.49585	0.53028
1145.56729	0.52749
1143.63872	0.52483
1141.71016	0.52261
1139.78159	0.52065
1137.85303	0.51878
1135.92446	0.51718
1133.99590	0.51579
1132.06733	0.51450
1130.13877	0.51340
1128.21021	0.51243
1126.28164	0.51139
1124.35308	0.51012
1122.42451	0.50884
1120.49595	0.50804
1118.56738	0.50773
1116.63882	0.50751
1114.71025	0.50731
1112.78169	0.50738
1110.85312	0.50783
1108.92456	0.50846
1106.99600	0.50929
1105.06743	0.51060
1103.13887	0.51229
1101.21030	0.51421
1099.28174	0.51640
1097.35317	0.51886
1095.42461	0.52167
1093.49604	0.52509
1091.56748	0.52924
1089.63892	0.53393
1087.71035	0.53908
1085.78179	0.54485
1083.85322	0.55104
1081.92466	0.55723
1079.99609	0.56293
1078.06753	0.56691
1076.13896	0.56794
1074.21040	0.56585
1072.28184	0.56145
1070.35327	0.55588
1068.42471	0.54963
1066.49614	0.54288
1064.56758	0.53628
1062.63901	0.53071
1060.71045	0.52606
1058.78188	0.52155
1056.85332	0.51735
1054.92476	0.51389
1052.99619	0.51089
1051.06763	0.50808
1049.13906	0.50547
1047.21050	0.50319
1045.28193	0.50122
1043.35337	0.49942
1041.42480	0.49795
1039.49624	0.49694
1037.56768	0.49609
1035.63911	0.49532
1033.71055	0.49487
1031.78198	0.49476
1029.85342	0.49483
1027.92485	0.49500
1025.99629	0.49528
1024.06772	0.49553
1022.13916	0.49579
1020.21060	0.49625
1018.28203	0.49685
1016.35347	0.49757
1014.42490	0.49857
1012.49634	0.49980
1010.56777	0.50104
1008.63921	0.50237
1006.71064	0.50404
1004.78208	0.50607
1002.85352	0.50840
1000.92495	0.51124
998.99639	0.51456
997.06782	0.51811
995.13926	0.52186
993.21069	0.52571
991.28213	0.52934
989.35356	0.53231
987.42500	0.53416
985.49644	0.53491
983.56787	0.53525
981.63931	0.53599
979.71074	0.53740
977.78218	0.53919
975.85361	0.54131
973.92505	0.54405
971.99648	0.54728
970.06792	0.55077
968.13936	0.55444
966.21079	0.55836
964.28223	0.56258
962.35366	0.56720
960.42510	0.57242
958.49653	0.57800
956.56797	0.58353
954.63940	0.58920
952.71084	0.59526
950.78228	0.60155
948.85371	0.60794
946.92515	0.61451
944.99658	0.62098
943.06802	0.62685
941.13945	0.63242
939.21089	0.63824
937.28232	0.64422
935.35376	0.64995
933.42520	0.65542
931.49663	0.66112
929.56807	0.66731
927.63950	0.67339
925.71094	0.67905
923.78237	0.68470
921.85381	0.69087
919.92524	0.69773
917.99668	0.70466
916.06812	0.71129
914.13955	0.71856
912.21099	0.72684
910.28242	0.73518
908.35386	0.74316
906.42529	0.75095
904.49673	0.75933
902.56816	0.76918
900.63960	0.77940
898.71104	0.78879
896.78247	0.79783
894.85391	0.80656
892.92534	0.81543
890.99678	0.82610
889.06821	0.83803
887.13965	0.84960
885.21108	0.86058
883.28252	0.87165
881.35396	0.88364
879.42539	0.89546
877.49683	0.90608
875.56826	0.91658
873.63970	0.92778
871.71113	0.93977
869.78257	0.95175
867.85400	0.96279
865.92544	0.97350
863.99687	0.98531
862.06831	0.99770
860.13975	1.00946
858.21118	1.02173
856.28262	1.03437
854.35405	1.04490
852.42549	1.05408
850.49692	1.06483
848.56836	1.07655
846.63979	1.08758
844.71123	1.09876
842.78267	1.10991
840.85410	1.12062
838.92554	1.13300
836.99697	1.14777
835.06841	1.16143
833.13984	1.17153
831.21128	1.17932
829.28271	1.18728
827.35415	1.20118
825.42559	1.22100
823.49702	1.23477
821.56846	1.23940
819.63989	1.24718
817.71133	1.26014
815.78276	1.26405
813.85420	1.25561
811.92563	1.25477
809.99707	1.27675
808.06851	1.30794
806.13994	1.31800
804.21138	1.30968
802.28281	1.31985
800.35425	1.35206
798.42568	1.36799
796.49712	1.35774
794.56855	1.34835
792.63999	1.34894
790.71143	1.36032
788.78286	1.38563
786.85430	1.42785
784.92573	1.48932
782.99717	1.52454
781.06860	1.51089
779.14004	1.47078
777.21147	1.42169
775.28291	1.38327
773.35435	1.35884
771.42578	1.40906
769.49722	1.57361
767.56865	1.64717
765.64009	1.49366
763.71152	1.40636
761.78296	1.41666
759.85439	1.41111
757.92583	1.34792
755.99727	1.33429
754.06870	1.40338
752.14014	1.47801
750.21157	1.70506
748.28301	4.48970
746.35444	2.07761
744.42588	1.54603
742.49731	1.36475
740.56875	1.17593
738.64019	1.06413
736.71162	0.98124
734.78306	0.85233
732.85449	0.75554
730.92593	0.69713
728.99736	0.62151
727.06880	0.46317
725.14023	0.28730
723.21167	0.23549
721.28311	0.13884
719.35454	-0.07352
717.42598	-0.18403
715.49741	0.21276
713.56885	4.28141
711.64028	4.26984
709.71172	4.25827
707.78315	0.04233
705.85459	-0.10507
703.92603	0.00925
701.99746	0.14039
700.06890	0.24156
698.14033	0.36448
696.21177	0.57154
694.28320	0.77362
692.35464	0.93148
690.42607	1.03870
688.49751	0.58163
686.56895	0.34737
684.64038	0.33496
682.71182	0.41471
680.78325	0.56331
678.85469	0.72082
676.92612	0.50724
674.99756	0.30046
673.06899	0.23194
671.14043	0.30489
669.21187	0.51287
667.28330	0.59704
665.35474	0.44958
663.42617	0.40643
661.49761	0.45232
659.56904	0.50205
657.64048	0.48092
655.71191	0.42035
653.78335	0.36848
651.85479	0.32532
649.92622	0.33670
647.99766	0.44662
646.06909	0.65700
644.14053	1.22457
642.21196	1.64296
640.28340	0.65048
638.35483	0.46047
636.42627	0.47198
634.49771	0.48511
632.56914	0.46646
630.64058	0.48441
628.71201	0.47184
626.78345	0.43977
624.85488	0.46452
622.92632	0.47079
620.99775	0.42723
619.06919	0.38707
617.14062	0.32842
615.21206	0.27480
613.28350	0.30059
611.35493	0.42477
609.42637	0.52749
607.49780	0.44309
605.56924	0.38589
603.64067	0.36237
601.71211	0.33815
599.78354	0.39852
597.85498	0.61071
595.92642	0.55697
593.99785	0.38807
592.06929	0.34657
590.14072	0.31639
588.21216	0.26752
586.28359	0.25849
584.35503	0.28611
582.42646	0.33917
580.49790	0.41320
578.56934	0.45328
576.64077	0.48775
574.71221	0.69074
572.78364	1.28563
570.85508	0.69817
568.92651	0.47069
566.99795	0.41625
565.06938	0.50846
563.14082	0.54868
561.21226	0.44576
559.28369	0.45743
557.35513	0.61329
555.42656	0.63553
553.49800	0.51610
551.56943	0.38717
549.64087	0.26842
547.71230	0.23003
545.78374	0.29911
543.85518	0.40868
541.92661	0.48603
539.99805	0.62854
538.06948	0.99212
536.14092	0.87559
534.21235	0.73885
532.28379	0.65014
530.35522	0.45983
528.42666	0.35400
526.49810	0.37228
524.56953	0.49868
522.64097	0.70999
520.71240	0.92401
518.78384	0.86172
516.85527	0.54256
514.92671	0.38398
512.99814	0.39627
511.06958	0.49169
509.14102	0.44528
507.21245	0.39384
505.28389	0.33967
503.35532	0.29094
501.42676	0.33819
499.49819	0.44101
