3997.91411	0.06026
3995.98555	0.06089
3994.05698	0.06169
3992.12842	0.06232
3990.19985	0.06228
3988.27129	0.06203
3986.34272	0.06215
3984.41416	0.06258
3982.48560	0.06311
3980.55703	0.06348
3978.62847	0.06356
3976.69990	0.06351
3974.77134	0.06351
3972.84277	0.06369
3970.91421	0.06410
3968.98564	0.06447
3967.05708	0.06461
3965.12852	0.06458
3963.19995	0.06468
3961.27139	0.06501
3959.34282	0.06518
3957.41426	0.06510
3955.48569	0.06524
3953.55713	0.06566
3951.62856	0.06608
3949.70000	0.06646
3947.77144	0.06665
3945.84287	0.06650
3943.91431	0.06642
3941.98574	0.06666
3940.05718	0.06640
3938.12861	0.06547
3936.20005	0.06487
3934.27148	0.06524
3932.34292	0.06637
3930.41436	0.06722
3928.48579	0.06686
3926.55723	0.06614
3924.62866	0.06626
3922.70010	0.06671
3920.77153	0.06662
3918.84297	0.06658
3916.91440	0.06673
3914.98584	0.06603
3913.05728	0.06462
3911.12871	0.06376
3909.20015	0.06388
3907.27158	0.06468
3905.34302	0.06625
3903.41445	0.06833
3901.48589	0.06944
3899.55732	0.06905
3897.62876	0.06772
3895.70020	0.06641
3893.77163	0.06613
3891.84307	0.06695
3889.91450	0.06741
3887.98594	0.06681
3886.05737	0.06707
3884.12881	0.06826
3882.20024	0.06853
3880.27168	0.06828
3878.34312	0.06765
3876.41455	0.06677
3874.48599	0.06732
3872.55742	0.06929
3870.62886	0.07081
3868.70029	0.07112
3866.77173	0.07070
3864.84316	0.07096
3862.91460	0.07174
3860.98604	0.07124
3859.05747	0.07012
3857.12891	0.07031
3855.20034	0.07255
3853.27178	0.07665
3851.34321	0.07818
3849.41465	0.07500
3847.48608	0.07242
3845.55752	0.07193
3843.62896	0.07310
3841.70039	0.07520
3839.77183	0.07757
3837.84326	0.07955
3835.91470	0.07990
3833.98613	0.07920
3832.05757	0.07890
3830.12900	0.07899
3828.20044	0.07926
3826.27187	0.08008
3824.34331	0.08116
3822.41475	0.08271
3820.48618	0.08550
3818.55762	0.08675
3816.62905	0.08636
3814.70049	0.08646
3812.77192	0.08592
3810.84336	0.08535
3808.91479	0.08623
3806.98623	0.08828
3805.05767	0.08990
3803.12910	0.09133
3801.20054	0.09422
3799.27197	0.09634
3797.34341	0.09634
3795.41484	0.09638
3793.48628	0.09632
3791.55771	0.09626
3789.62915	0.09678
3787.70059	0.09784
3785.77202	0.09970
3783.84346	0.10233
3781.91489	0.10462
3779.98633	0.10652
3778.05776	0.10833
3776.12920	0.10915
3774.20063	0.10971
3772.27207	0.11121
3770.34351	0.11368
3768.41494	0.11644
3766.48638	0.11855
3764.55781	0.12028
3762.62925	0.12188
3760.70068	0.12417
3758.77212	0.12772
3756.84355	0.13082
3754.91499	0.13312
3752.98643	0.13674
3751.05786	0.14256
3749.12930	0.14741
3747.20073	0.14847
3745.27217	0.14993
3743.34360	0.15358
3741.41504	0.15650
3739.48647	0.15901
3737.55791	0.16359
3735.62935	0.17099
3733.70078	0.17890
3731.77222	0.18331
3729.84365	0.18584
3727.91509	0.18949
3725.98652	0.19533
3724.05796	0.20208
3722.12939	0.20821
3720.20083	0.21427
3718.27227	0.22052
3716.34370	0.22669
3714.41514	0.23313
3712.48657	0.24247
3710.55801	0.25782
3708.62944	0.27366
3706.70088	0.28453
3704.77231	0.29468
3702.84375	0.30778
3700.91519	0.32535
3698.98662	0.34389
3697.05806	0.36076
3695.12949	0.37886
3693.20093	0.39888
3691.27236	0.42143
3689.34380	0.45075
3687.41523	0.48555
3685.48667	0.51481
3683.55811	0.54033
3681.62954	0.56834
3679.70098	0.60005
3677.77241	0.63374
3675.84385	0.67449
3673.91528	0.72924
3671.98672	0.77201
3670.05815	0.81032
3668.12959	0.86472
3666.20103	0.91277
3664.27246	0.95191
3662.34390	0.99479
3660.41533	1.04214
3658.48677	1.08931
3656.55820	1.13974
3654.62964	1.19590
3652.70107	1.24224
3650.77251	1.28273
3648.84395	1.34182
3646.91538	1.41390
3644.98682	1.46132
3643.05825	1.49716
3641.12969	1.53655
3639.20112	1.58119
3637.27256	1.62617
3635.34399	1.67028
3633.41543	1.71450
3631.48687	1.75598
3629.55830	1.79921
3627.62974	1.85616
3625.70117	1.90613
3623.77261	1.93757
3621.84404	1.96819
3619.91548	2.00527
3617.98691	2.05239
3616.05835	2.09742
3614.12979	2.13407
3612.20122	2.17284
3610.27266	2.21174
3608.34409	2.25146
3606.41553	2.29472
3604.48696	2.33427
3602.55840	2.36896
3600.62983	2.40714
3598.70127	2.44911
3596.77271	2.48912
3594.84414	2.52907
3592.91558	2.57027
3590.98701	2.60861
3589.05845	2.64512
3587.12988	2.69108
3585.20132	2.74133
3583.27275	2.78083
3581.34419	2.81635
3579.41562	2.85538
3577.48706	2.89755
3575.55850	2.94092
3573.62993	2.98559
3571.70137	3.02797
3569.77280	3.06637
3567.84424	3.10721
3565.91567	3.16222
3563.98711	3.21731
3562.05854	3.25872
3560.12998	3.29868
3558.20142	3.34159
3556.27285	3.38399
3554.34429	3.42609
3552.41572	3.47539
3550.48716	3.52824
3548.55859	3.57181
3546.63003	3.60990
3544.70146	3.65551
3542.77290	3.70618
3540.84434	3.75265
3538.91577	3.79691
3536.98721	3.84418
3535.05864	3.89539
3533.13008	3.94314
3531.20151	3.98766
3529.27295	4.03614
3527.34438	4.08810
3525.41582	4.13561
3523.48726	4.18126
3521.55869	4.23363
3519.63013	4.28574
3517.70156	4.33028
3515.77300	4.37177
3513.84443	4.41686
3511.91587	4.46448
3509.98730	4.51375
3508.05874	4.56498
3506.13018	4.61258
3504.20161	4.65591
3502.27305	4.70312
3500.34448	4.75754
3498.41592	4.81101
3496.48735	4.85834
3494.55879	4.90320
3492.63022	4.95239
3490.70166	5.00623
3488.77310	5.05888
3486.84453	5.10285
3484.91597	5.13792
3482.98740	5.17531
3481.05884	5.22465
3479.13027	5.27897
3477.20171	5.32680
3475.27314	5.37690
3473.34458	5.43373
3471.41602	5.47739
3469.48745	5.50723
3467.55889	5.54667
3465.63032	5.60164
3463.70176	5.66490
3461.77319	5.72383
3459.84463	5.77070
3457.91606	5.81139
3455.98750	5.85471
3454.05894	5.90230
3452.13037	5.95154
3450.20181	6.00559
3448.27324	6.06192
3446.34468	6.11612
3444.41611	6.16853
3442.48755	6.22236
3440.55898	6.27557
3438.63042	6.32828
3436.70186	6.37651
3434.77329	6.41522
3432.84473	6.45694
3430.91616	6.50349
3428.98760	6.55070
3427.05903	6.61081
3425.13047	6.68199
3423.20190	6.72764
3421.27334	6.75010
3419.34478	6.78027
3417.41621	6.81798
3415.48765	6.86057
3413.55908	6.93287
3411.63052	7.03039
3409.70195	7.08777
3407.77339	7.10953
3405.84482	7.13413
3403.91626	7.15950
3401.98770	7.19316
3400.05913	7.28204
3398.13057	7.39648
3396.20200	7.41597
3394.27344	7.37729
3392.34487	7.39178
3390.41631	7.44754
3388.48774	7.47577
3386.55918	7.50690
3384.63062	7.53520
3382.70205	7.52252
3380.77349	7.52918
3378.84492	7.56013
3376.91636	7.57555
3374.98779	7.60069
3373.05923	7.67043
3371.13066	7.74290
3369.20210	7.80973
3367.27354	7.85584
3365.34497	7.86401
3363.41641	7.88351
3361.48784	7.91895
3359.55928	7.99133
3357.63071	8.11290
3355.70215	8.18459
3353.77358	8.11290
3351.84502	8.00801
3349.91646	7.93255
3347.98789	7.89351
3346.05933	7.91600
3344.13076	7.93254
3342.20220	7.91944
3340.27363	7.96000
3338.34507	8.08066
3336.41650	8.14599
3334.48794	8.09056
3332.55937	8.04052
3330.63081	8.06997
3328.70225	8.10355
3326.77368	8.12168
3324.84512	8.15362
3322.91655	8.15838
3320.98799	8.16543
3319.05942	8.16373
3317.13086	8.15153
3315.20229	8.15477
3313.27373	8.16430
3311.34517	8.14604
3309.41660	8.06579
3307.48804	7.99840
3305.55947	7.98251
3303.63091	7.98692
3301.70234	8.03969
3299.77378	8.15523
3297.84521	8.20234
3295.91665	8.13569
3293.98809	8.10538
3292.05952	8.18891
3290.13096	8.28172
3288.20239	8.24408
3286.27383	8.13456
3284.34526	8.06391
3282.41670	8.02530
3280.48813	8.02203
3278.55957	8.10354
3276.63101	8.17411
3274.70244	8.17052
3272.77388	8.20038
3270.84531	8.29511
3268.91675	8.33710
3266.98818	8.27551
3265.05962	8.20967
3263.13105	8.16278
3261.20249	8.12184
3259.27393	8.07287
3257.34536	8.06837
3255.41680	8.11983
3253.48823	8.16902
3251.55967	8.24590
3249.63110	8.28526
3247.70254	8.25989
3245.77397	8.26892
3243.84541	8.26348
3241.91685	8.18354
3239.98828	8.12053
3238.05972	8.11855
3236.13115	8.14886
3234.20259	8.19719
3232.27402	8.22982
3230.34546	8.23469
3228.41689	8.18170
3226.48833	8.07170
3224.55977	8.06732
3222.63120	8.16609
3220.70264	8.12706
3218.77407	8.00717
3216.84551	7.98468
3214.91694	7.98633
3212.98838	7.92154
3211.05981	7.83551
3209.13125	7.79267
3207.20269	7.79363
3205.27412	7.81950
3203.34556	7.86195
3201.41699	7.84952
3199.48843	7.74055
3197.55986	7.65772
3195.63130	7.66194
3193.70273	7.66575
3191.77417	7.61375
3189.84561	7.55289
3187.91704	7.52595
3185.98848	7.52380
3184.05991	7.52942
3182.13135	7.49652
3180.20278	7.38394
3178.27422	7.24301
3176.34565	7.15417
3174.41709	7.13251
3172.48853	7.10497
3170.55996	7.02615
3168.63140	6.95608
3166.70283	6.91946
3164.77427	6.88592
3162.84570	6.83248
3160.91714	6.75292
3158.98857	6.67596
3157.06001	6.60622
3155.13145	6.52335
3153.20288	6.43307
3151.27432	6.36141
3149.34575	6.31745
3147.41719	6.28351
3145.48862	6.24722
3143.56006	6.20170
3141.63149	6.12312
3139.70293	6.00584
3137.77437	5.90742
3135.84580	5.85389
3133.91724	5.80017
3131.98867	5.72629
3130.06011	5.64935
3128.13154	5.57197
3126.20298	5.49430
3124.27441	5.42512
3122.34585	5.36288
3120.41729	5.30324
3118.48872	5.23782
3116.56016	5.16004
3114.63159	5.08428
3112.70303	5.01938
3110.77446	4.95396
3108.84590	4.88013
3106.91733	4.80600
3104.98877	4.74092
3103.06021	4.67967
3101.13164	4.61029
3099.20308	4.53518
3097.27451	4.46479
3095.34595	4.39890
3093.41738	4.33279
3091.48882	4.26635
3089.56025	4.20271
3087.63169	4.14208
3085.70312	4.07950
3083.77456	4.01435
3081.84600	3.95104
3079.91743	3.88885
3077.98887	3.82775
3076.06030	3.77009
3074.13174	3.71259
3072.20317	3.65324
3070.27461	3.59451
3068.34604	3.53654
3066.41748	3.47804
3064.48892	3.41963
3062.56035	3.36237
3060.63179	3.30670
3058.70322	3.25293
3056.77466	3.20071
3054.84609	3.14860
3052.91753	3.09619
3050.98896	3.04507
3049.06040	2.99540
3047.13184	2.94583
3045.20327	2.89565
3043.27471	2.84548
3041.34614	2.79659
3039.41758	2.74904
3037.48901	2.70183
3035.56045	2.65527
3033.63188	2.61046
3031.70332	2.56637
3029.77476	2.52202
3027.84619	2.47827
3025.91763	2.43504
3023.98906	2.39191
3022.06050	2.34979
3020.13193	2.30906
3018.20337	2.26919
3016.27480	2.22977
3014.34624	2.19037
3012.41768	2.15142
3010.48911	2.11347
3008.56055	2.07624
3006.63198	2.03939
3004.70342	2.00303
3002.77485	1.96751
3000.84629	1.93278
2998.91772	1.89852
2996.98916	1.86509
2995.06060	1.83254
2993.13203	1.79978
2991.20347	1.76654
2989.27490	1.73416
2987.34634	1.70317
2985.41777	1.67299
2983.48921	1.64348
2981.56064	1.61414
2979.63208	1.58414
2977.70352	1.55392
2975.77495	1.52437
2973.84639	1.49538
2971.91782	1.46684
2969.98926	1.43873
2968.06069	1.41069
2966.13213	1.38301
2964.20356	1.35639
2962.27500	1.33065
2960.34644	1.30490
2958.41787	1.27902
2956.48931	1.25416
2954.56074	1.23090
2952.63218	1.20838
2950.70361	1.18608
2948.77505	1.16404
2946.84648	1.14210
2944.91792	1.12032
2942.98936	1.09853
2941.06079	1.07636
2939.13223	1.05387
2937.20366	1.03093
2935.27510	1.00726
2933.34653	0.98366
2931.41797	0.96143
2929.48940	0.94048
2927.56084	0.91979
2925.63228	0.89902
2923.70371	0.87933
2921.77515	0.86206
2919.84658	0.84708
2917.91802	0.83384
2915.98945	0.82200
2914.06089	0.81113
2912.13232	0.80025
2910.20376	0.78875
2908.27520	0.77714
2906.34663	0.76590
2904.41807	0.75500
2902.48950	0.74406
2900.56094	0.73264
2898.63237	0.72091
2896.70381	0.70964
2894.77524	0.69904
2892.84668	0.68841
2890.91812	0.67763
2888.98955	0.66710
2887.06099	0.65665
2885.13242	0.64605
2883.20386	0.63552
2881.27529	0.62496
2879.34673	0.61405
2877.41816	0.60294
2875.48960	0.59177
2873.56104	0.58075
2871.63247	0.57029
2869.70391	0.56020
2867.77534	0.54985
2865.84678	0.53899
2863.91821	0.52783
2861.98965	0.51656
2860.06108	0.50502
2858.13252	0.49313
2856.20396	0.48138
2854.27539	0.47053
2852.34683	0.46097
2850.41826	0.45300
2848.48970	0.44708
2846.56113	0.44311
2844.63257	0.44011
2842.70400	0.43726
2840.77544	0.43400
2838.84687	0.42990
2836.91831	0.42525
2834.98975	0.42051
2833.06118	0.41556
2831.13262	0.41028
2829.20405	0.40483
2827.27549	0.39930
2825.34692	0.39365
2823.41836	0.38789
2821.48979	0.38208
2819.56123	0.37646
2817.63267	0.37099
2815.70410	0.36542
2813.77554	0.35998
2811.84697	0.35498
2809.91841	0.35013
2807.98984	0.34509
2806.06128	0.33980
2804.13271	0.33459
2802.20415	0.32979
2800.27559	0.32528
2798.34702	0.32075
2796.41846	0.31612
2794.48989	0.31155
2792.56133	0.30719
2790.63276	0.30294
2788.70420	0.29860
2786.77563	0.29423
2784.84707	0.29004
2782.91851	0.28596
2780.98994	0.28212
2779.06138	0.27850
2777.13281	0.27488
2775.20425	0.27122
2773.27568	0.26755
2771.34712	0.26389
2769.41855	0.26038
2767.48999	0.25708
2765.56143	0.25375
2763.63286	0.25030
2761.70430	0.24711
2759.77573	0.24427
2757.84717	0.24133
2755.91860	0.23809
2753.99004	0.23491
2752.06147	0.23212
2750.13291	0.22966
2748.20435	0.22715
2746.27578	0.22437
2744.34722	0.22157
2742.41865	0.21896
2740.49009	0.21645
2738.56152	0.21398
2736.63296	0.21162
2734.70439	0.20933
2732.77583	0.20700
2730.84727	0.20469
2728.91870	0.20253
2726.99014	0.20060
2725.06157	0.19876
2723.13301	0.19681
2721.20444	0.19479
2719.27588	0.19283
2717.34731	0.19096
2715.41875	0.18919
2713.49019	0.18745
2711.56162	0.18555
2709.63306	0.18363
2707.70449	0.18193
2705.77593	0.18046
2703.84736	0.17906
2701.91880	0.17758
2699.99023	0.17609
2698.06167	0.17465
2696.13311	0.17320
2694.20454	0.17176
2692.27598	0.17035
2690.34741	0.16900
2688.41885	0.16774
2686.49028	0.16662
2684.56172	0.16559
2682.63315	0.16443
2680.70459	0.16314
2678.77603	0.16190
2676.84746	0.16072
2674.91890	0.15969
2672.99033	0.15882
2671.06177	0.15780
2669.13320	0.15657
2667.20464	0.15543
2665.27607	0.15453
2663.34751	0.15376
2661.41895	0.15305
2659.49038	0.15239
2657.56182	0.15162
2655.63325	0.15070
2653.70469	0.14991
2651.77612	0.14943
2649.84756	0.14899
2647.91899	0.14829
2645.99043	0.14751
2644.06187	0.14695
2642.13330	0.14656
2640.20474	0.14612
2638.27617	0.14563
2636.34761	0.14521
2634.41904	0.14483
2632.49048	0.14446
2630.56191	0.14412
2628.63335	0.14377
2626.70479	0.14343
2624.77622	0.14310
2622.84766	0.14273
2620.91909	0.14245
2618.99053	0.14237
2617.06196	0.14235
2615.13340	0.14227
2613.20483	0.14216
2611.27627	0.14201
2609.34771	0.14194
2607.41914	0.14200
2605.49058	0.14207
2603.56201	0.14209
2601.63345	0.14213
2599.70488	0.14220
2597.77632	0.14227
2595.84775	0.14229
2593.91919	0.14227
2591.99062	0.14232
2590.06206	0.14243
2588.13350	0.14259
2586.20493	0.14294
2584.27637	0.14343
2582.34780	0.14380
2580.41924	0.14399
2578.49067	0.14423
2576.56211	0.14451
2574.63354	0.14483
2572.70498	0.14525
2570.77642	0.14569
2568.84785	0.14617
2566.91929	0.14670
2564.99072	0.14716
2563.06216	0.14756
2561.13359	0.14804
2559.20503	0.14853
2557.27646	0.14898
2555.34790	0.14951
2553.41934	0.15007
2551.49077	0.15057
2549.56221	0.15109
2547.63364	0.15172
2545.70508	0.15246
2543.77651	0.15319
2541.84795	0.15387
2539.91938	0.15450
2537.99082	0.15514
2536.06226	0.15588
2534.13369	0.15667
2532.20513	0.15738
2530.27656	0.15804
2528.34800	0.15875
2526.41943	0.15942
2524.49087	0.16005
2522.56230	0.16077
2520.63374	0.16157
2518.70518	0.16242
2516.77661	0.16330
2514.84805	0.16416
2512.91948	0.16497
2510.99092	0.16575
2509.06235	0.16661
2507.13379	0.16753
2505.20522	0.16838
2503.27666	0.16925
2501.34810	0.17021
2499.41953	0.17111
2497.49097	0.17195
2495.56240	0.17275
2493.63384	0.17354
2491.70527	0.17441
2489.77671	0.17542
2487.84814	0.17644
2485.91958	0.17735
2483.99102	0.17822
2482.06245	0.17920
2480.13389	0.18021
2478.20532	0.18111
2476.27676	0.18192
2474.34819	0.18276
2472.41963	0.18366
2470.49106	0.18459
2468.56250	0.18555
2466.63394	0.18649
2464.70537	0.18745
2462.77681	0.18841
2460.84824	0.18929
2458.91968	0.19026
2456.99111	0.19138
2455.06255	0.19245
2453.13398	0.19341
2451.20542	0.19433
2449.27686	0.19532
2447.34829	0.19638
2445.41973	0.19750
2443.49116	0.19862
2441.56260	0.19961
2439.63403	0.20055
2437.70547	0.20161
2435.77690	0.20275
2433.84834	0.20375
2431.91978	0.20468
2429.99121	0.20569
2428.06265	0.20678
2426.13408	0.20792
2424.20552	0.20907
2422.27695	0.21019
2420.34839	0.21128
2418.41982	0.21241
2416.49126	0.21357
2414.56270	0.21475
2412.63413	0.21589
2410.70557	0.21704
2408.77700	0.21833
2406.84844	0.21970
2404.91987	0.22096
2402.99131	0.22218
2401.06274	0.22348
2399.13418	0.22469
2397.20562	0.22571
2395.27705	0.22684
2393.34849	0.22819
2391.41992	0.22965
2389.49136	0.23119
2387.56279	0.23288
2385.63423	0.23501
2383.70566	0.23797
2381.77710	0.24175
2379.84854	0.24626
2377.91997	0.25150
2375.99141	0.25722
2374.06284	0.26357
2372.13428	0.27082
2370.20571	0.27870
2368.27715	0.28671
2366.34858	0.29432
2364.42002	0.30114
2362.49146	0.30694
2360.56289	0.31100
2358.63433	0.31270
2356.70576	0.31167
2354.77720	0.30773
2352.84863	0.30168
2350.92007	0.29519
2348.99150	0.29117
2347.06294	0.29156
2345.13437	0.29717
2343.20581	0.30559
2341.27725	0.31058
2339.34868	0.31160
2337.42012	0.31227
2335.49155	0.31327
2333.56299	0.31340
2331.63442	0.31350
2329.70586	0.31449
2327.77729	0.31534
2325.84873	0.31493
2323.92017	0.31369
2321.99160	0.31260
2320.06304	0.31191
2318.13447	0.31108
2316.20591	0.31019
2314.27734	0.31002
2312.34878	0.31053
2310.42021	0.31098
2308.49165	0.31117
2306.56309	0.31129
2304.63452	0.31146
2302.70596	0.31193
2300.77739	0.31274
2298.84883	0.31377
2296.92026	0.31499
2294.99170	0.31616
2293.06313	0.31723
2291.13457	0.31837
2289.20601	0.31966
2287.27744	0.32113
2285.34888	0.32263
2283.42031	0.32415
2281.49175	0.32590
2279.56318	0.32801
2277.63462	0.33034
2275.70605	0.33257
2273.77749	0.33461
2271.84893	0.33671
2269.92036	0.33886
2267.99180	0.34097
2266.06323	0.34308
2264.13467	0.34519
2262.20610	0.34722
2260.27754	0.34920
2258.34897	0.35125
2256.42041	0.35333
2254.49185	0.35540
2252.56328	0.35756
2250.63472	0.35976
2248.70615	0.36185
2246.77759	0.36381
2244.84902	0.36588
2242.92046	0.36811
2240.99189	0.37030
2239.06333	0.37251
2237.13477	0.37483
2235.20620	0.37718
2233.27764	0.37945
2231.34907	0.38167
2229.42051	0.38387
2227.49194	0.38611
2225.56338	0.38846
2223.63481	0.39085
2221.70625	0.39312
2219.77769	0.39530
2217.84912	0.39751
2215.92056	0.39979
2213.99199	0.40203
2212.06343	0.40411
2210.13486	0.40613
2208.20630	0.40830
2206.27773	0.41061
2204.34917	0.41283
2202.42061	0.41493
2200.49204	0.41694
2198.56348	0.41891
2196.63491	0.42093
2194.70635	0.42297
2192.77778	0.42492
2190.84922	0.42684
2188.92065	0.42875
2186.99209	0.43068
2185.06353	0.43257
2183.13496	0.43432
2181.20640	0.43593
2179.27783	0.43752
2177.34927	0.43921
2175.42070	0.44093
2173.49214	0.44262
2171.56357	0.44418
2169.63501	0.44564
2167.70645	0.44698
2165.77788	0.44814
2163.84932	0.44929
2161.92075	0.45052
2159.99219	0.45172
2158.06362	0.45278
2156.13506	0.45367
2154.20649	0.45446
2152.27793	0.45531
2150.34937	0.45619
2148.42080	0.45689
2146.49224	0.45737
2144.56367	0.45781
2142.63511	0.45829
2140.70654	0.45877
2138.77798	0.45923
2136.84941	0.45955
2134.92085	0.45969
2132.99229	0.45962
2131.06372	0.45939
2129.13516	0.45919
2127.20659	0.45910
2125.27803	0.45895
2123.34946	0.45858
2121.42090	0.45809
2119.49233	0.45759
2117.56377	0.45703
2115.63521	0.45629
2113.70664	0.45539
2111.77808	0.45450
2109.84951	0.45367
2107.92095	0.45281
2105.99238	0.45174
2104.06382	0.45049
2102.13525	0.44914
2100.20669	0.44786
2098.27812	0.44659
2096.34956	0.44507
2094.42100	0.44338
2092.49243	0.44180
2090.56387	0.44027
2088.63530	0.43858
2086.70674	0.43674
2084.77817	0.43483
2082.84961	0.43298
2080.92104	0.43112
2078.99248	0.42906
2077.06392	0.42679
2075.13535	0.42450
2073.20679	0.42238
2071.27822	0.42041
2069.34966	0.41836
2067.42109	0.41612
2065.49253	0.41377
2063.56396	0.41131
2061.63540	0.40881
2059.70684	0.40630
2057.77827	0.40375
2055.84971	0.40119
2053.92114	0.39867
2051.99258	0.39612
2050.06401	0.39346
2048.13545	0.39078
2046.20688	0.38814
2044.27832	0.38547
2042.34976	0.38270
2040.42119	0.37990
2038.49263	0.37711
2036.56406	0.37434
2034.63550	0.37157
2032.70693	0.36877
2030.77837	0.36594
2028.84980	0.36317
2026.92124	0.36047
2024.99268	0.35772
2023.06411	0.35485
2021.13555	0.35200
2019.20698	0.34925
2017.27842	0.34652
2015.34985	0.34373
2013.42129	0.34097
2011.49272	0.33820
2009.56416	0.33544
2007.63560	0.33269
2005.70703	0.32990
2003.77847	0.32713
2001.84990	0.32442
1999.92134	0.32176
1997.99277	0.31916
1996.06421	0.31659
1994.13564	0.31410
1992.20708	0.31172
1990.27852	0.30925
1988.34995	0.30670
1986.42139	0.30414
1984.49282	0.30165
1982.56426	0.29917
1980.63569	0.29658
1978.70713	0.29406
1976.77856	0.29179
1974.85000	0.28965
1972.92144	0.28748
1970.99287	0.28535
1969.06431	0.28340
1967.13574	0.28153
1965.20718	0.27942
1963.27861	0.27716
1961.35005	0.27505
1959.42148	0.27310
1957.49292	0.27120
1955.56436	0.26934
1953.63579	0.26751
1951.70723	0.26578
1949.77866	0.26419
1947.85010	0.26265
1945.92153	0.26118
1943.99297	0.25985
1942.06440	0.25844
1940.13584	0.25675
1938.20728	0.25512
1936.27871	0.25370
1934.35015	0.25241
1932.42158	0.25119
1930.49302	0.24999
1928.56445	0.24881
1926.63589	0.24772
1924.70732	0.24684
1922.77876	0.24605
1920.85020	0.24507
1918.92163	0.24413
1916.99307	0.24321
1915.06450	0.24206
1913.13594	0.24102
1911.20737	0.24039
1909.27881	0.23988
1907.35024	0.23909
1905.42168	0.23817
1903.49312	0.23743
1901.56455	0.23682
1899.63599	0.23628
1897.70742	0.23589
1895.77886	0.23560
1893.85029	0.23528
1891.92173	0.23496
1889.99316	0.23480
1888.06460	0.23457
1886.13604	0.23420
1884.20747	0.23389
1882.27891	0.23363
1880.35034	0.23343
1878.42178	0.23332
1876.49321	0.23325
1874.56465	0.23316
1872.63608	0.23332
1870.70752	0.23397
1868.77896	0.23502
1866.85039	0.23539
1864.92183	0.23488
1862.99326	0.23457
1861.06470	0.23476
1859.13613	0.23520
1857.20757	0.23555
1855.27900	0.23586
1853.35044	0.23623
1851.42187	0.23682
1849.49331	0.23764
1847.56475	0.23856
1845.63618	0.23964
1843.70762	0.24086
1841.77905	0.24149
1839.85049	0.24162
1837.92192	0.24225
1835.99336	0.24320
1834.06479	0.24413
1832.13623	0.24529
1830.20767	0.24702
1828.27910	0.24850
1826.35054	0.24932
1824.42197	0.25049
1822.49341	0.25177
1820.56484	0.25293
1818.63628	0.25422
1816.70771	0.25579
1814.77915	0.25749
1812.85059	0.25942
1810.92202	0.26162
1808.99346	0.26367
1807.06489	0.26550
1805.13633	0.26736
1803.20776	0.26968
1801.27920	0.27252
1799.35063	0.27557
1797.42207	0.27807
1795.49351	0.28048
1793.56494	0.28356
1791.63638	0.28747
1789.70781	0.29067
1787.77925	0.29285
1785.85068	0.29583
1783.92212	0.29959
1781.99355	0.30358
1780.06499	0.30784
1778.13643	0.31220
1776.20786	0.31629
1774.27930	0.32086
1772.35073	0.32719
1770.42217	0.33364
1768.49360	0.33851
1766.56504	0.34327
1764.63647	0.34839
1762.70791	0.35434
1760.77935	0.36187
1758.85078	0.36855
1756.92222	0.37508
1754.99365	0.38218
1753.06509	0.38848
1751.13652	0.39641
1749.20796	0.40699
1747.27939	0.41711
1745.35083	0.42559
1743.42227	0.43480
1741.49370	0.44535
1739.56514	0.45818
1737.63657	0.47114
1735.70801	0.48243
1733.77944	0.49976
1731.85088	0.52041
1729.92231	0.53598
1727.99375	0.55165
1726.06519	0.56848
1724.13662	0.58713
1722.20806	0.60739
1720.27949	0.62600
1718.35093	0.64815
1716.42236	0.68165
1714.49380	0.71265
1712.56523	0.73674
1710.63667	0.76017
1708.70811	0.78554
1706.77954	0.81468
1704.85098	0.84992
1702.92241	0.88078
1700.99385	0.91006
1699.06528	0.95488
1697.13672	0.99677
1695.20815	1.03899
1693.27959	1.07876
1691.35103	1.10959
1689.42246	1.14544
1687.49390	1.18371
1685.56533	1.22020
1683.63677	1.27722
1681.70820	1.33652
1679.77964	1.37285
1677.85107	1.40771
1675.92251	1.44841
1673.99395	1.50019
1672.06538	1.54614
1670.13682	1.58944
1668.20825	1.64529
1666.27969	1.68890
1664.35112	1.72482
1662.42256	1.76990
1660.49399	1.82157
1658.56543	1.86045
1656.63687	1.89165
1654.70830	1.92210
1652.77974	1.97721
1650.85117	2.03340
1648.92261	2.05440
1646.99404	2.08453
1645.06548	2.11951
1643.13691	2.14117
1641.20835	2.15260
1639.27979	2.16367
1637.35122	2.17399
1635.42266	2.17921
1633.49409	2.17492
1631.56553	2.16594
1629.63696	2.15599
1627.70840	2.13509
1625.77983	2.10907
1623.85127	2.07472
1621.92271	2.03021
1619.99414	1.99011
1618.06558	1.95114
1616.13701	1.89302
1614.20845	1.83310
1612.27988	1.78859
1610.35132	1.74121
1608.42275	1.68907
1606.49419	1.63782
1604.56562	1.59061
1602.63706	1.54477
1600.70850	1.50007
1598.77993	1.45891
1596.85137	1.41954
1594.92280	1.38043
1592.99424	1.34185
1591.06567	1.30611
1589.13711	1.27229
1587.20854	1.24041
1585.27998	1.21063
1583.35142	1.18232
1581.42285	1.15595
1579.49429	1.13335
1577.56572	1.11272
1575.63716	1.08598
1573.70859	1.06184
1571.78003	1.04617
1569.85146	1.02898
1567.92290	1.00847
1565.99434	0.99197
1564.06577	0.97795
1562.13721	0.96619
1560.20864	0.95630
1558.28008	0.93841
1556.35151	0.92182
1554.42295	0.91175
1552.49438	0.90144
1550.56582	0.89118
1548.63726	0.88069
1546.70869	0.87139
1544.78013	0.86300
1542.85156	0.85454
1540.92300	0.84425
1538.99443	0.82818
1537.06587	0.81667
1535.13730	0.80977
1533.20874	0.80143
1531.28018	0.79226
1529.35161	0.78527
1527.42305	0.77865
1525.49448	0.77185
1523.56592	0.76582
1521.63735	0.75924
1519.70879	0.75174
1517.78022	0.74594
1515.85166	0.74024
1513.92310	0.73413
1511.99453	0.72897
1510.06597	0.72497
1508.13740	0.72175
1506.20884	0.71559
1504.28027	0.70885
1502.35171	0.70487
1500.42314	0.70188
1498.49458	0.69915
1496.56602	0.69567
1494.63745	0.69159
1492.70889	0.68848
1490.78032	0.68647
1488.85176	0.68426
1486.92319	0.68106
1484.99463	0.67796
1483.06606	0.67565
1481.13750	0.67376
1479.20894	0.67189
1477.28037	0.67026
1475.35181	0.66891
1473.42324	0.66719
1471.49468	0.66372
1469.56611	0.65957
1467.63755	0.65636
1465.70898	0.65405
1463.78042	0.65214
1461.85186	0.65050
1459.92329	0.64947
1457.99473	0.64871
1456.06616	0.64637
1454.13760	0.64294
1452.20903	0.64021
1450.28047	0.63782
1448.35190	0.63542
1446.42334	0.63286
1444.49478	0.63061
1442.56621	0.62894
1440.63765	0.62767
1438.70908	0.62673
1436.78052	0.62569
1434.85195	0.62390
1432.92339	0.62206
1430.99482	0.62087
1429.06626	0.61982
1427.13770	0.61855
1425.20913	0.61754
1423.28057	0.61680
1421.35200	0.61602
1419.42344	0.61510
1417.49487	0.61354
1415.56631	0.61131
1413.63774	0.60919
1411.70918	0.60739
1409.78062	0.60594
1407.85205	0.60463
1405.92349	0.60331
1403.99492	0.60183
1402.06636	0.60027
1400.13779	0.59897
1398.20923	0.59775
1396.28066	0.59628
1394.35210	0.59444
1392.42354	0.59240
1390.49497	0.59061
1388.56641	0.58912
1386.63784	0.58754
1384.70928	0.58567
1382.78071	0.58395
1380.85215	0.58268
1378.92358	0.58175
1376.99502	0.58102
1375.06646	0.58052
1373.13789	0.57993
1371.20933	0.57920
1369.28076	0.57863
1367.35220	0.57800
1365.42363	0.57721
1363.49507	0.57662
1361.56650	0.57595
1359.63794	0.57477
1357.70937	0.57344
1355.78081	0.57214
1353.85225	0.57086
1351.92368	0.56977
1349.99512	0.56882
1348.06655	0.56776
1346.13799	0.56660
1344.20942	0.56557
1342.28086	0.56471
1340.35229	0.56390
1338.42373	0.56288
1336.49517	0.56157
1334.56660	0.56029
1332.63804	0.55924
1330.70947	0.55838
1328.78091	0.55762
1326.85234	0.55697
1324.92378	0.55644
1322.99521	0.55595
1321.06665	0.55554
1319.13809	0.55520
1317.20952	0.55465
1315.28096	0.55380
1313.35239	0.55282
1311.42383	0.55170
1309.49526	0.55042
1307.56670	0.54912
1305.63813	0.54795
1303.70957	0.54691
1301.78101	0.54583
1299.85244	0.54467
1297.92388	0.54366
1295.99531	0.54279
1294.06675	0.54182
1292.13818	0.54086
1290.20962	0.54013
1288.28105	0.53955
1286.35249	0.53892
1284.42393	0.53811
1282.49536	0.53728
1280.56680	0.53657
1278.63823	0.53594
1276.70967	0.53524
1274.78110	0.53454
1272.85254	0.53399
1270.92397	0.53349
1268.99541	0.53303
1267.06685	0.53280
1265.13828	0.53251
1263.20972	0.53202
1261.28115	0.53166
1259.35259	0.53146
1257.42402	0.53118
1255.49546	0.53091
1253.56689	0.53077
1251.63833	0.53064
1249.70977	0.53033
1247.78120	0.52996
1245.85264	0.52967
1243.92407	0.52941
1241.99551	0.52904
1240.06694	0.52853
1238.13838	0.52798
1236.20981	0.52727
1234.28125	0.52635
1232.35269	0.52550
1230.42412	0.52477
1228.49556	0.52400
1226.56699	0.52305
1224.63843	0.52199
1222.70986	0.52105
1220.78130	0.52033
1218.85273	0.51966
1216.92417	0.51885
1214.99561	0.51798
1213.06704	0.51724
1211.13848	0.51668
1209.20991	0.51615
1207.28135	0.51547
1205.35278	0.51477
1203.42422	0.51421
1201.49565	0.51369
1199.56709	0.51308
1197.63853	0.51233
1195.70996	0.51153
1193.78140	0.51073
1191.85283	0.50990
1189.92427	0.50914
1187.99570	0.50859
1186.06714	0.50829
1184.13857	0.50810
1182.21001	0.50789
1180.28145	0.50783
1178.35288	0.50812
1176.42432	0.50872
1174.49575	0.50940
1172.56719	0.51015
1170.63862	0.51098
1168.71006	0.51187
1166.78149	0.51286
1164.85293	0.51391
1162.92437	0.51487
1160.99580	0.51566
1159.06724	0.51619
1157.13867	0.51625
1155.21011	0.51564
1153.28154	0.51451
1151.35298	0.51304
1149.42441	0.51119
1147.49585	0.50893
1145.56729	0.50644
1143.63872	0.50397
1141.71016	0.50155
1139.78159	0.49940
1137.85303	0.49790
1135.92446	0.49685
1133.99590	0.49588
1132.06733	0.49504
1130.13877	0.49436
1128.21021	0.49379
1126.28164	0.49341
1124.35308	0.49321
1122.42451	0.49288
1120.49595	0.49245
1118.56738	0.49242
1116.63882	0.49298
1114.71025	0.49378
1112.78169	0.49462
1110.85312	0.49556
1108.92456	0.49662
1106.99600	0.49783
1105.06743	0.49919
1103.13887	0.50032
1101.21030	0.50111
1099.28174	0.50217
1097.35317	0.50396
1095.42461	0.50657
1093.49604	0.51022
1091.56748	0.51519
1089.63892	0.52168
1087.71035	0.52968
1085.78179	0.53858
1083.85322	0.54737
1081.92466	0.55517
1079.99609	0.56105
1078.06753	0.56399
1076.13896	0.56380
1074.21040	0.56085
1072.28184	0.55562
1070.35327	0.54912
1068.42471	0.54226
1066.49614	0.53548
1064.56758	0.52931
1062.63901	0.52414
1060.71045	0.51969
1058.78188	0.51549
1056.85332	0.51166
1054.92476	0.50841
1052.99619	0.50558
1051.06763	0.50349
1049.13906	0.50263
1047.21050	0.50267
1045.28193	0.50308
1043.35337	0.50370
1041.42480	0.50442
1039.49624	0.50505
1037.56768	0.50552
1035.63911	0.50568
1033.71055	0.50540
1031.78198	0.50457
1029.85342	0.50308
1027.92485	0.50115
1025.99629	0.49956
1024.06772	0.49850
1022.13916	0.49758
1020.21060	0.49689
1018.28203	0.49678
1016.35347	0.49675
1014.42490	0.49628
1012.49634	0.49578
1010.56777	0.49561
1008.63921	0.49559
1006.71064	0.49587
1004.78208	0.49687
1002.85352	0.49872
1000.92495	0.50127
998.99639	0.50453
997.06782	0.50851
995.13926	0.51285
993.21069	0.51691
991.28213	0.52004
989.35356	0.52188
987.42500	0.52247
985.49644	0.52238
983.56787	0.52234
981.63931	0.52279
979.71074	0.52370
977.78218	0.52492
975.85361	0.52669
973.92505	0.52919
971.99648	0.53206
970.06792	0.53513
968.13936	0.53873
966.21079	0.54289
964.28223	0.54726
962.35366	0.55174
960.42510	0.55651
958.49653	0.56151
956.56797	0.56678
954.63940	0.57271
952.71084	0.57920
950.78228	0.58557
948.85371	0.59171
946.92515	0.59794
944.99658	0.60407
943.06802	0.60986
941.13945	0.61540
939.21089	0.62089
937.28232	0.62654
935.35376	0.63248
933.42520	0.63868
931.49663	0.64456
929.56807	0.64969
927.63950	0.65505
925.71094	0.66146
923.78237	0.66806
921.85381	0.67442
919.92524	0.68119
917.99668	0.68842
916.06812	0.69567
914.13955	0.70298
912.21099	0.71014
910.28242	0.71748
908.35386	0.72647
906.42529	0.73645
904.49673	0.74547
902.56816	0.75385
900.63960	0.76263
898.71104	0.77232
896.78247	0.78260
894.85391	0.79294
892.92534	0.80365
890.99678	0.81439
889.06821	0.82449
887.13965	0.83425
885.21108	0.84461
883.28252	0.85648
881.35396	0.86900
879.42539	0.88047
877.49683	0.89052
875.56826	0.90070
873.63970	0.91295
871.71113	0.92586
869.78257	0.93640
867.85400	0.94550
865.92544	0.95595
863.99687	0.96731
862.06831	0.97852
860.13975	0.99056
858.21118	1.00271
856.28262	1.01339
854.35405	1.02419
852.42549	1.03641
850.49692	1.04927
848.56836	1.06293
846.63979	1.07647
844.71123	1.08762
842.78267	1.09662
840.85410	1.10648
838.92554	1.11725
836.99697	1.12627
835.06841	1.13586
833.13984	1.14966
831.21128	1.16434
829.28271	1.17619
827.35415	1.18668
825.42559	1.19693
823.49702	1.20928
821.56846	1.22637
819.63989	1.24503
817.71133	1.25481
815.78276	1.25669
813.85420	1.26600
811.92563	1.28312
809.99707	1.29858
808.06851	1.30620
806.13994	1.30505
804.21138	1.30217
802.28281	1.30402
800.35425	1.31538
798.42568	1.33608
796.49712	1.35905
794.56855	1.37416
792.63999	1.36632
790.71143	1.33646
788.78286	1.31134
786.85430	1.31784
784.92573	1.36143
782.99717	1.38160
781.06860	1.33798
779.14004	1.31165
777.21147	1.34410
775.28291	1.37994
773.35435	1.34471
771.42578	1.31018
769.49722	1.34644
767.56865	1.42072
765.64009	1.42776
763.71152	1.37700
761.78296	1.29633
759.85439	1.20054
757.92583	1.16679
755.99727	1.21233
754.06870	1.24985
752.14014	1.26424
750.21157	1.30335
748.28301	1.28836
746.35444	1.21790
744.42588	1.16295
742.49731	1.04177
740.56875	0.88511
738.64019	0.77989
736.71162	0.70113
734.78306	0.64892
732.85449	0.64775
730.92593	0.70463
728.99736	0.66523
727.06880	0.47847
725.14023	0.32935
723.21167	0.18709
721.28311	0.00644
719.35454	-0.08353
717.42598	-0.00546
715.49741	0.11001
713.56885	0.10524
711.64028	0.05609
709.71172	0.00135
707.78315	-0.05003
705.85459	-0.10045
703.92603	-0.07035
701.99746	0.00727
700.06890	-0.01888
698.14033	-0.08013
696.21177	-0.00685
694.28320	0.10293
692.35464	0.18068
690.42607	0.23488
688.49751	0.23417
686.56895	0.27382
684.64038	0.46083
682.71182	0.58178
680.78325	0.55522
678.85469	0.57826
676.92612	1.01912
674.99756	1.28058
673.06899	0.50440
671.14043	0.34608
669.21187	0.37865
667.28330	0.47985
665.35474	0.32593
663.42617	0.16045
661.49761	0.15455
659.56904	0.22816
657.64048	0.28149
655.71191	0.21597
653.78335	0.15482
651.85479	0.14447
649.92622	0.14753
647.99766	0.18656
646.06909	0.27122
644.14053	0.31415
642.21196	0.26050
640.28340	0.24602
638.35483	0.40679
636.42627	0.51719
634.49771	0.27351
632.56914	0.09646
630.64058	0.03508
628.71201	0.04866
626.78345	0.10713
624.85488	0.17250
622.92632	0.14408
620.99775	0.05642
619.06919	0.01590
617.14062	0.05498
615.21206	0.14925
613.28350	0.19969
611.35493	0.18742
609.42637	0.18264
607.49780	0.22214
605.56924	0.23851
603.64067	0.16430
601.71211	0.12382
599.78354	0.16456
597.85498	0.24107
595.92642	0.23881
593.99785	0.16096
592.06929	0.17909
590.14072	0.29932
588.21216	0.30040
586.28359	0.27334
584.35503	0.40176
582.42646	0.54225
580.49790	0.46246
578.56934	0.30208
576.64077	0.18297
574.71221	0.16713
572.78364	0.27605
570.85508	0.40914
568.92651	0.34141
566.99795	0.24445
565.06938	0.19334
563.14082	0.14445
561.21226	0.13492
559.28369	0.20633
557.35513	0.30525
555.42656	0.26637
553.49800	0.18549
551.56943	0.17693
549.64087	0.16289
547.71230	0.10647
545.78374	0.07100
543.85518	0.11243
541.92661	0.15641
539.99805	0.14472
538.06948	0.17968
536.14092	0.27034
534.21235	0.25632
532.28379	0.16219
530.35522	0.08864
528.42666	0.06680
526.49810	0.08386
524.56953	0.07458
522.64097	0.06814
520.71240	0.10660
518.78384	0.13520
516.85527	0.15398
514.92671	0.23473
512.99814	0.32853
511.06958	0.24000
509.14102	0.17299
507.21245	0.19886
505.28389	0.24983
503.35532	0.27236
501.42676	0.29651
499.49819	0.30654
