3997.91411	0.05554
3995.98555	0.05599
3994.05698	0.05686
3992.12842	0.05764
3990.19985	0.05800
3988.27129	0.05795
3986.34272	0.05746
3984.41416	0.05734
3982.48560	0.05800
3980.55703	0.05865
3978.62847	0.05889
3976.69990	0.05900
3974.77134	0.05931
3972.84277	0.05979
3970.91421	0.05991
3968.98564	0.05976
3967.05708	0.05962
3965.12852	0.05954
3963.19995	0.05989
3961.27139	0.06058
3959.34282	0.06096
3957.41426	0.06099
3955.48569	0.06083
3953.55713	0.06051
3951.62856	0.06028
3949.70000	0.06065
3947.77144	0.06168
3945.84287	0.06210
3943.91431	0.06170
3941.98574	0.06165
3940.05718	0.06182
3938.12861	0.06170
3936.20005	0.06155
3934.27148	0.06173
3932.34292	0.06240
3930.41436	0.06305
3928.48579	0.06291
3926.55723	0.06229
3924.62866	0.06209
3922.70010	0.06211
3920.77153	0.06179
3918.84297	0.06171
3916.91440	0.06212
3914.98584	0.06187
3913.05728	0.06078
3911.12871	0.06003
3909.20015	0.05998
3907.27158	0.06049
3905.34302	0.06169
3903.41445	0.06332
3901.48589	0.06413
3899.55732	0.06416
3897.62876	0.06363
3895.70020	0.06219
3893.77163	0.06129
3891.84307	0.06207
3889.91450	0.06321
3887.98594	0.06306
3886.05737	0.06320
3884.12881	0.06429
3882.20024	0.06481
3880.27168	0.06499
3878.34312	0.06456
3876.41455	0.06342
3874.48599	0.06340
3872.55742	0.06454
3870.62886	0.06583
3868.70029	0.06677
3866.77173	0.06656
3864.84316	0.06673
3862.91460	0.06779
3860.98604	0.06775
3859.05747	0.06692
3857.12891	0.06688
3855.20034	0.06812
3853.27178	0.07094
3851.34321	0.07289
3849.41465	0.07144
3847.48608	0.06958
3845.55752	0.06860
3843.62896	0.06920
3841.70039	0.07152
3839.77183	0.07427
3837.84326	0.07602
3835.91470	0.07592
3833.98613	0.07528
3832.05757	0.07522
3830.12900	0.07527
3828.20044	0.07535
3826.27187	0.07606
3824.34331	0.07705
3822.41475	0.07846
3820.48618	0.08146
3818.55762	0.08333
3816.62905	0.08307
3814.70049	0.08304
3812.77192	0.08251
3810.84336	0.08204
3808.91479	0.08290
3806.98623	0.08511
3805.05767	0.08715
3803.12910	0.08825
3801.20054	0.09045
3799.27197	0.09290
3797.34341	0.09367
3795.41484	0.09418
3793.48628	0.09417
3791.55771	0.09385
3789.62915	0.09412
3787.70059	0.09514
3785.77202	0.09701
3783.84346	0.09936
3781.91489	0.10124
3779.98633	0.10293
3778.05776	0.10476
3776.12920	0.10543
3774.20063	0.10563
3772.27207	0.10721
3770.34351	0.11053
3768.41494	0.11425
3766.48638	0.11655
3764.55781	0.11804
3762.62925	0.11942
3760.70068	0.12141
3758.77212	0.12477
3756.84355	0.12794
3754.91499	0.12945
3752.98643	0.13124
3751.05786	0.13619
3749.12930	0.14330
3747.20073	0.14645
3745.27217	0.14790
3743.34360	0.15182
3741.41504	0.15541
3739.48647	0.15716
3737.55791	0.15999
3735.62935	0.16565
3733.70078	0.17276
3731.77222	0.17752
3729.84365	0.18021
3727.91509	0.18320
3725.98652	0.18853
3724.05796	0.19585
3722.12939	0.20305
3720.20083	0.20969
3718.27227	0.21609
3716.34370	0.22282
3714.41514	0.23017
3712.48657	0.24001
3710.55801	0.25490
3708.62944	0.27005
3706.70088	0.28116
3704.77231	0.29180
3702.84375	0.30489
3700.91519	0.32197
3698.98662	0.34034
3697.05806	0.35786
3695.12949	0.37689
3693.20093	0.39712
3691.27236	0.41930
3689.34380	0.44919
3687.41523	0.48585
3685.48667	0.51592
3683.55811	0.54074
3681.62954	0.56793
3679.70098	0.59943
3677.77241	0.63304
3675.84385	0.67421
3673.91528	0.73089
3671.98672	0.77469
3670.05815	0.81271
3668.12959	0.86731
3666.20103	0.91623
3664.27246	0.95583
3662.34390	0.99849
3660.41533	1.04563
3658.48677	1.09301
3656.55820	1.14372
3654.62964	1.20000
3652.70107	1.24597
3650.77251	1.28586
3648.84395	1.34454
3646.91538	1.41700
3644.98682	1.46600
3643.05825	1.50324
3641.12969	1.54325
3639.20112	1.58791
3637.27256	1.63253
3635.34399	1.67581
3633.41543	1.71911
3631.48687	1.75980
3629.55830	1.80181
3627.62974	1.85842
3625.70117	1.91024
3623.77261	1.94318
3621.84404	1.97448
3619.91548	2.01293
3617.98691	2.06281
3616.05835	2.10917
3614.12979	2.14479
3612.20122	2.18255
3610.27266	2.22201
3608.34409	2.26254
3606.41553	2.30581
3604.48696	2.34541
3602.55840	2.37990
3600.62983	2.41678
3598.70127	2.45686
3596.77271	2.49565
3594.84414	2.53500
3592.91558	2.57634
3590.98701	2.61620
3589.05845	2.65388
3587.12988	2.69920
3585.20132	2.74955
3583.27275	2.79091
3581.34419	2.82744
3579.41562	2.86638
3577.48706	2.90881
3575.55850	2.95284
3573.62993	2.99753
3571.70137	3.03842
3569.77280	3.07571
3567.84424	3.11855
3565.91567	3.17388
3563.98711	3.22379
3562.05854	3.26297
3560.12998	3.30592
3558.20142	3.35272
3556.27285	3.39698
3554.34429	3.43917
3552.41572	3.48536
3550.48716	3.53412
3548.55859	3.57992
3546.63003	3.62423
3544.70146	3.67367
3542.77290	3.72576
3540.84434	3.77269
3538.91577	3.81695
3536.98721	3.86324
3535.05864	3.91196
3533.13008	3.95810
3531.20151	4.00367
3529.27295	4.05352
3527.34438	4.10286
3525.41582	4.14686
3523.48726	4.19276
3521.55869	4.24355
3519.63013	4.29377
3517.70156	4.34439
3515.77300	4.39385
3513.84443	4.43884
3511.91587	4.48264
3509.98730	4.53231
3508.05874	4.58834
3506.13018	4.63933
3504.20161	4.67960
3502.27305	4.72022
3500.34448	4.76944
3498.41592	4.81974
3496.48735	4.86775
3494.55879	4.91574
3492.63022	4.96314
3490.70166	5.00748
3488.77310	5.05138
3486.84453	5.10458
3484.91597	5.16292
3482.98740	5.21052
3481.05884	5.25242
3479.13027	5.30099
3477.20171	5.35470
3475.27314	5.40797
3473.34458	5.45500
3471.41602	5.49536
3469.48745	5.53827
3467.55889	5.58684
3465.63032	5.63061
3463.70176	5.66889
3461.77319	5.71129
3459.84463	5.76525
3457.91606	5.83048
3455.98750	5.89740
3454.05894	5.95167
3452.13037	5.99453
3450.20181	6.04680
3448.27324	6.10751
3446.34468	6.15756
3444.41611	6.19888
3442.48755	6.25259
3440.55898	6.31040
3438.63042	6.35602
3436.70186	6.39617
3434.77329	6.43695
3432.84473	6.47424
3430.91616	6.50353
3428.98760	6.54072
3427.05903	6.59908
3425.13047	6.67058
3423.20190	6.73399
3421.27334	6.78852
3419.34478	6.84454
3417.41621	6.90337
3415.48765	6.95364
3413.55908	6.99537
3411.63052	7.05479
3409.70195	7.10881
3407.77339	7.13302
3405.84482	7.14718
3403.91626	7.17256
3401.98770	7.18789
3400.05913	7.18581
3398.13057	7.21290
3396.20200	7.29166
3394.27344	7.39454
3392.34487	7.44022
3390.41631	7.42771
3388.48774	7.46270
3386.55918	7.55863
3384.63062	7.59149
3382.70205	7.56492
3380.77349	7.57879
3378.84492	7.59801
3376.91636	7.61027
3374.98779	7.66596
3373.05923	7.73360
3371.13066	7.73876
3369.20210	7.71781
3367.27354	7.73530
3365.34497	7.81573
3363.41641	7.88126
3361.48784	7.88126
3359.55928	7.90755
3357.63071	7.92158
3355.70215	7.89965
3353.77358	7.93237
3351.84502	8.01180
3349.91646	8.01812
3347.98789	7.95870
3346.05933	7.93104
3344.13076	7.94497
3342.20220	7.96110
3340.27363	7.93505
3338.34507	7.95480
3336.41650	8.11031
3334.48794	8.25990
3332.55937	8.21007
3330.63081	8.09512
3328.70225	8.05064
3326.77368	8.04648
3324.84512	8.04883
3322.91655	8.05118
3320.98799	8.05165
3319.05942	8.03881
3317.13086	8.05943
3315.20229	8.12509
3313.27373	8.18098
3311.34517	8.17285
3309.41660	8.13692
3307.48804	8.14214
3305.55947	8.19983
3303.63091	8.32305
3301.70234	8.41951
3299.77378	8.38899
3297.84521	8.27757
3295.91665	8.18407
3293.98809	8.17338
3292.05952	8.24138
3290.13096	8.26392
3288.20239	8.14995
3286.27383	8.05167
3284.34526	8.09520
3282.41670	8.21537
3280.48813	8.28395
3278.55957	8.32423
3276.63101	8.40224
3274.70244	8.47500
3272.77388	8.42839
3270.84531	8.31138
3268.91675	8.25302
3266.98818	8.24254
3265.05962	8.27673
3263.13105	8.29848
3261.20249	8.27370
3259.27393	8.26271
3257.34536	8.29744
3255.41680	8.37703
3253.48823	8.41827
3251.55967	8.41126
3249.63110	8.36703
3247.70254	8.21626
3245.77397	8.11270
3243.84541	8.19237
3241.91685	8.30689
3239.98828	8.32520
3238.05972	8.29758
3236.13115	8.25963
3234.20259	8.22893
3232.27402	8.18202
3230.34546	8.09844
3228.41689	8.07576
3226.48833	8.17680
3224.55977	8.28566
3222.63120	8.26081
3220.70264	8.18215
3218.77407	8.16437
3216.84551	8.09990
3214.91694	7.96070
3212.98838	7.90483
3211.05981	7.91990
3209.13125	7.87426
3207.20269	7.80655
3205.27412	7.81586
3203.34556	7.87440
3201.41699	7.88338
3199.48843	7.76842
3197.55986	7.62340
3195.63130	7.56065
3193.70273	7.53964
3191.77417	7.52106
3189.84561	7.51528
3187.91704	7.48940
3185.98848	7.43615
3184.05991	7.40115
3182.13135	7.38611
3180.20278	7.34479
3178.27422	7.26605
3176.34565	7.20017
3174.41709	7.15307
3172.48853	7.08737
3170.55996	7.00516
3168.63140	6.92559
3166.70283	6.86690
3164.77427	6.83604
3162.84570	6.80313
3160.91714	6.74490
3158.98857	6.68559
3157.06001	6.62624
3155.13145	6.54847
3153.20288	6.46479
3151.27432	6.38863
3149.34575	6.31380
3147.41719	6.23907
3145.48862	6.17478
3143.56006	6.10702
3141.63149	6.02752
3139.70293	5.95544
3137.77437	5.89149
3135.84580	5.82154
3133.91724	5.75374
3131.98867	5.69828
3130.06011	5.64163
3128.13154	5.57694
3126.20298	5.50943
3124.27441	5.43838
3122.34585	5.36085
3120.41729	5.28142
3118.48872	5.20654
3116.56016	5.13631
3114.63159	5.06906
3112.70303	5.00247
3110.77446	4.93429
3108.84590	4.86268
3106.91733	4.78962
3104.98877	4.72216
3103.06021	4.65859
3101.13164	4.58867
3099.20308	4.51573
3097.27451	4.44910
3095.34595	4.38549
3093.41738	4.31958
3091.48882	4.25198
3089.56025	4.18697
3087.63169	4.12761
3085.70312	4.07026
3083.77456	4.00955
3081.84600	3.94735
3079.91743	3.88818
3077.98887	3.82965
3076.06030	3.76926
3074.13174	3.70976
3072.20317	3.65233
3070.27461	3.59482
3068.34604	3.53661
3066.41748	3.47983
3064.48892	3.42465
3062.56035	3.37052
3060.63179	3.31751
3058.70322	3.26383
3056.77466	3.20949
3054.84609	3.15636
3052.91753	3.10404
3050.98896	3.05163
3049.06040	2.99972
3047.13184	2.94935
3045.20327	2.90053
3043.27471	2.85226
3041.34614	2.80416
3039.41758	2.75700
3037.48901	2.71113
3035.56045	2.66602
3033.63188	2.62122
3031.70332	2.57664
3029.77476	2.53255
3027.84619	2.48933
3025.91763	2.44627
3023.98906	2.40297
3022.06050	2.36056
3020.13193	2.31931
3018.20337	2.27909
3016.27480	2.23961
3014.34624	2.20038
3012.41768	2.16164
3010.48911	2.12340
3008.56055	2.08636
3006.63198	2.05088
3004.70342	2.01563
3002.77485	1.98010
3000.84629	1.94507
2998.91772	1.91151
2996.98916	1.87946
2995.06060	1.84720
2993.13203	1.81413
2991.20347	1.78179
2989.27490	1.75094
2987.34634	1.72104
2985.41777	1.69149
2983.48921	1.66246
2981.56064	1.63415
2979.63208	1.60601
2977.70352	1.57800
2975.77495	1.55069
2973.84639	1.52430
2971.91782	1.49833
2969.98926	1.47222
2968.06069	1.44644
2966.13213	1.42123
2964.20356	1.39612
2962.27500	1.37113
2960.34644	1.34595
2958.41787	1.32046
2956.48931	1.29574
2954.56074	1.27232
2952.63218	1.24957
2950.70361	1.22674
2948.77505	1.20375
2946.84648	1.18099
2944.91792	1.15885
2942.98936	1.13745
2941.06079	1.11640
2939.13223	1.09536
2937.20366	1.07425
2935.27510	1.05319
2933.34653	1.03238
2931.41797	1.01184
2929.48940	0.99189
2927.56084	0.97290
2925.63228	0.95450
2923.70371	0.93622
2921.77515	0.91852
2919.84658	0.90209
2917.91802	0.88641
2915.98945	0.87079
2914.06089	0.85564
2912.13232	0.84120
2910.20376	0.82724
2908.27520	0.81350
2906.34663	0.79958
2904.41807	0.78527
2902.48950	0.77112
2900.56094	0.75794
2898.63237	0.74557
2896.70381	0.73328
2894.77524	0.72078
2892.84668	0.70853
2890.91812	0.69696
2888.98955	0.68568
2887.06099	0.67475
2885.13242	0.66429
2883.20386	0.65360
2881.27529	0.64283
2879.34673	0.63262
2877.41816	0.62269
2875.48960	0.61260
2873.56104	0.60226
2871.63247	0.59182
2869.70391	0.58141
2867.77534	0.57084
2865.84678	0.55973
2863.91821	0.54823
2861.98965	0.53690
2860.06108	0.52606
2858.13252	0.51578
2856.20396	0.50605
2854.27539	0.49692
2852.34683	0.48826
2850.41826	0.48009
2848.48970	0.47269
2846.56113	0.46570
2844.63257	0.45891
2842.70400	0.45275
2840.77544	0.44721
2838.84687	0.44184
2836.91831	0.43646
2834.98975	0.43117
2833.06118	0.42590
2831.13262	0.42037
2829.20405	0.41468
2827.27549	0.40898
2825.34692	0.40319
2823.41836	0.39735
2821.48979	0.39151
2819.56123	0.38577
2817.63267	0.38025
2815.70410	0.37475
2813.77554	0.36918
2811.84697	0.36376
2809.91841	0.35858
2807.98984	0.35352
2806.06128	0.34845
2804.13271	0.34335
2802.20415	0.33829
2800.27559	0.33339
2798.34702	0.32872
2796.41846	0.32421
2794.48989	0.31958
2792.56133	0.31489
2790.63276	0.31054
2788.70420	0.30629
2786.77563	0.30191
2784.84707	0.29769
2782.91851	0.29369
2780.98994	0.28960
2779.06138	0.28549
2777.13281	0.28163
2775.20425	0.27805
2773.27568	0.27445
2771.34712	0.27072
2769.41855	0.26703
2767.48999	0.26355
2765.56143	0.26013
2763.63286	0.25673
2761.70430	0.25346
2759.77573	0.25021
2757.84717	0.24699
2755.91860	0.24393
2753.99004	0.24089
2752.06147	0.23790
2750.13291	0.23508
2748.20435	0.23224
2746.27578	0.22934
2744.34722	0.22658
2742.41865	0.22387
2740.49009	0.22116
2738.56152	0.21861
2736.63296	0.21626
2734.70439	0.21400
2732.77583	0.21167
2730.84727	0.20928
2728.91870	0.20695
2726.99014	0.20467
2725.06157	0.20245
2723.13301	0.20040
2721.20444	0.19845
2719.27588	0.19648
2717.34731	0.19457
2715.41875	0.19287
2713.49019	0.19129
2711.56162	0.18956
2709.63306	0.18762
2707.70449	0.18584
2705.77593	0.18432
2703.84736	0.18284
2701.91880	0.18133
2699.99023	0.17987
2698.06167	0.17841
2696.13311	0.17691
2694.20454	0.17545
2692.27598	0.17411
2690.34741	0.17276
2688.41885	0.17137
2686.49028	0.17007
2684.56172	0.16891
2682.63315	0.16781
2680.70459	0.16679
2678.77603	0.16584
2676.84746	0.16474
2674.91890	0.16358
2672.99033	0.16260
2671.06177	0.16166
2669.13320	0.16060
2667.20464	0.15954
2665.27607	0.15865
2663.34751	0.15789
2661.41895	0.15712
2659.49038	0.15629
2657.56182	0.15549
2655.63325	0.15475
2653.70469	0.15404
2651.77612	0.15337
2649.84756	0.15281
2647.91899	0.15229
2645.99043	0.15169
2644.06187	0.15115
2642.13330	0.15072
2640.20474	0.15030
2638.27617	0.14990
2636.34761	0.14950
2634.41904	0.14910
2632.49048	0.14872
2630.56191	0.14831
2628.63335	0.14788
2626.70479	0.14759
2624.77622	0.14741
2622.84766	0.14712
2620.91909	0.14662
2618.99053	0.14620
2617.06196	0.14610
2615.13340	0.14612
2613.20483	0.14613
2611.27627	0.14601
2609.34771	0.14575
2607.41914	0.14564
2605.49058	0.14569
2603.56201	0.14561
2601.63345	0.14549
2599.70488	0.14554
2597.77632	0.14577
2595.84775	0.14598
2593.91919	0.14613
2591.99062	0.14632
2590.06206	0.14641
2588.13350	0.14640
2586.20493	0.14648
2584.27637	0.14672
2582.34780	0.14701
2580.41924	0.14740
2578.49067	0.14783
2576.56211	0.14816
2574.63354	0.14837
2572.70498	0.14858
2570.77642	0.14886
2568.84785	0.14922
2566.91929	0.14969
2564.99072	0.15016
2563.06216	0.15065
2561.13359	0.15118
2559.20503	0.15165
2557.27646	0.15204
2555.34790	0.15249
2553.41934	0.15310
2551.49077	0.15381
2549.56221	0.15447
2547.63364	0.15510
2545.70508	0.15571
2543.77651	0.15628
2541.84795	0.15683
2539.91938	0.15744
2537.99082	0.15811
2536.06226	0.15876
2534.13369	0.15940
2532.20513	0.16005
2530.27656	0.16070
2528.34800	0.16134
2526.41943	0.16203
2524.49087	0.16280
2522.56230	0.16359
2520.63374	0.16445
2518.70518	0.16534
2516.77661	0.16613
2514.84805	0.16690
2512.91948	0.16775
2510.99092	0.16859
2509.06235	0.16944
2507.13379	0.17031
2505.20522	0.17112
2503.27666	0.17185
2501.34810	0.17254
2499.41953	0.17326
2497.49097	0.17408
2495.56240	0.17497
2493.63384	0.17592
2491.70527	0.17698
2489.77671	0.17812
2487.84814	0.17912
2485.91958	0.17991
2483.99102	0.18073
2482.06245	0.18170
2480.13389	0.18266
2478.20532	0.18344
2476.27676	0.18412
2474.34819	0.18495
2472.41963	0.18595
2470.49106	0.18702
2468.56250	0.18809
2466.63394	0.18904
2464.70537	0.18994
2462.77681	0.19087
2460.84824	0.19174
2458.91968	0.19256
2456.99111	0.19348
2455.06255	0.19450
2453.13398	0.19551
2451.20542	0.19655
2449.27686	0.19762
2447.34829	0.19864
2445.41973	0.19960
2443.49116	0.20059
2441.56260	0.20159
2439.63403	0.20253
2437.70547	0.20353
2435.77690	0.20467
2433.84834	0.20576
2431.91978	0.20678
2429.99121	0.20792
2428.06265	0.20917
2426.13408	0.21045
2424.20552	0.21166
2422.27695	0.21274
2420.34839	0.21380
2418.41982	0.21499
2416.49126	0.21628
2414.56270	0.21753
2412.63413	0.21872
2410.70557	0.21987
2408.77700	0.22100
2406.84844	0.22213
2404.91987	0.22330
2402.99131	0.22440
2401.06274	0.22545
2399.13418	0.22672
2397.20562	0.22807
2395.27705	0.22931
2393.34849	0.23051
2391.41992	0.23184
2389.49136	0.23330
2387.56279	0.23473
2385.63423	0.23609
2383.70566	0.23763
2381.77710	0.23956
2379.84854	0.24188
2377.91997	0.24449
2375.99141	0.24718
2374.06284	0.25010
2372.13428	0.25359
2370.20571	0.25734
2368.27715	0.26051
2366.34858	0.26328
2364.42002	0.26620
2362.49146	0.26866
2360.56289	0.27036
2358.63433	0.27247
2356.70576	0.27436
2354.77720	0.27436
2352.84863	0.27392
2350.92007	0.27369
2348.99150	0.27338
2347.06294	0.27402
2345.13437	0.27677
2343.20581	0.28048
2341.27725	0.28241
2339.34868	0.28357
2337.42012	0.28523
2335.49155	0.28694
2333.56299	0.28837
2331.63442	0.28975
2329.70586	0.29130
2327.77729	0.29293
2325.84873	0.29417
2323.92017	0.29486
2321.99160	0.29549
2320.06304	0.29639
2318.13447	0.29747
2316.20591	0.29866
2314.27734	0.29981
2312.34878	0.30094
2310.42021	0.30218
2308.49165	0.30345
2306.56309	0.30471
2304.63452	0.30604
2302.70596	0.30752
2300.77739	0.30913
2298.84883	0.31070
2296.92026	0.31226
2294.99170	0.31389
2293.06313	0.31549
2291.13457	0.31710
2289.20601	0.31887
2287.27744	0.32072
2285.34888	0.32254
2283.42031	0.32435
2281.49175	0.32627
2279.56318	0.32826
2277.63462	0.33026
2275.70605	0.33236
2273.77749	0.33453
2271.84893	0.33671
2269.92036	0.33890
2267.99180	0.34115
2266.06323	0.34341
2264.13467	0.34559
2262.20610	0.34770
2260.27754	0.34978
2258.34897	0.35188
2256.42041	0.35397
2254.49185	0.35604
2252.56328	0.35820
2250.63472	0.36043
2248.70615	0.36258
2246.77759	0.36470
2244.84902	0.36696
2242.92046	0.36921
2240.99189	0.37133
2239.06333	0.37346
2237.13477	0.37572
2235.20620	0.37803
2233.27764	0.38033
2231.34907	0.38267
2229.42051	0.38507
2227.49194	0.38745
2225.56338	0.38967
2223.63481	0.39178
2221.70625	0.39398
2219.77769	0.39629
2217.84912	0.39853
2215.92056	0.40062
2213.99199	0.40266
2212.06343	0.40483
2210.13486	0.40718
2208.20630	0.40948
2206.27773	0.41151
2204.34917	0.41344
2202.42061	0.41549
2200.49204	0.41763
2198.56348	0.41971
2196.63491	0.42172
2194.70635	0.42370
2192.77778	0.42563
2190.84922	0.42749
2188.92065	0.42936
2186.99209	0.43122
2185.06353	0.43301
2183.13496	0.43482
2181.20640	0.43665
2179.27783	0.43824
2177.34927	0.43973
2175.42070	0.44137
2173.49214	0.44304
2171.56357	0.44464
2169.63501	0.44616
2167.70645	0.44742
2165.77788	0.44848
2163.84932	0.44965
2161.92075	0.45093
2159.99219	0.45214
2158.06362	0.45315
2156.13506	0.45405
2154.20649	0.45497
2152.27793	0.45583
2150.34937	0.45657
2148.42080	0.45730
2146.49224	0.45800
2144.56367	0.45855
2142.63511	0.45899
2140.70654	0.45936
2138.77798	0.45963
2136.84941	0.45981
2134.92085	0.45994
2132.99229	0.45992
2131.06372	0.45979
2129.13516	0.45964
2127.20659	0.45942
2125.27803	0.45913
2123.34946	0.45883
2121.42090	0.45849
2119.49233	0.45793
2117.56377	0.45726
2115.63521	0.45663
2113.70664	0.45598
2111.77808	0.45523
2109.84951	0.45425
2107.92095	0.45300
2105.99238	0.45174
2104.06382	0.45067
2102.13525	0.44954
2100.20669	0.44824
2098.27812	0.44692
2096.34956	0.44557
2094.42100	0.44407
2092.49243	0.44246
2090.56387	0.44083
2088.63530	0.43915
2086.70674	0.43739
2084.77817	0.43549
2082.84961	0.43340
2080.92104	0.43126
2078.99248	0.42924
2077.06392	0.42725
2075.13535	0.42515
2073.20679	0.42294
2071.27822	0.42074
2069.34966	0.41861
2067.42109	0.41639
2065.49253	0.41409
2063.56396	0.41170
2061.63540	0.40923
2059.70684	0.40675
2057.77827	0.40421
2055.84971	0.40158
2053.92114	0.39901
2051.99258	0.39649
2050.06401	0.39391
2048.13545	0.39129
2046.20688	0.38861
2044.27832	0.38591
2042.34976	0.38324
2040.42119	0.38051
2038.49263	0.37776
2036.56406	0.37510
2034.63550	0.37236
2032.70693	0.36949
2030.77837	0.36664
2028.84980	0.36387
2026.92124	0.36113
2024.99268	0.35830
2023.06411	0.35548
2021.13555	0.35274
2019.20698	0.35002
2017.27842	0.34728
2015.34985	0.34447
2013.42129	0.34168
2011.49272	0.33896
2009.56416	0.33619
2007.63560	0.33332
2005.70703	0.33049
2003.77847	0.32769
2001.84990	0.32493
1999.92134	0.32228
1997.99277	0.31974
1996.06421	0.31723
1994.13564	0.31479
1992.20708	0.31246
1990.27852	0.31000
1988.34995	0.30744
1986.42139	0.30485
1984.49282	0.30222
1982.56426	0.29963
1980.63569	0.29723
1978.70713	0.29510
1976.77856	0.29292
1974.85000	0.29055
1972.92144	0.28824
1970.99287	0.28611
1969.06431	0.28410
1967.13574	0.28212
1965.20718	0.28003
1963.27861	0.27795
1961.35005	0.27598
1959.42148	0.27395
1957.49292	0.27192
1955.56436	0.27011
1953.63579	0.26846
1951.70723	0.26682
1949.77866	0.26514
1947.85010	0.26348
1945.92153	0.26194
1943.99297	0.26059
1942.06440	0.25917
1940.13584	0.25741
1938.20728	0.25565
1936.27871	0.25420
1934.35015	0.25295
1932.42158	0.25178
1930.49302	0.25053
1928.56445	0.24930
1926.63589	0.24821
1924.70732	0.24742
1922.77876	0.24678
1920.85020	0.24588
1918.92163	0.24483
1916.99307	0.24376
1915.06450	0.24258
1913.13594	0.24160
1911.20737	0.24098
1909.27881	0.24041
1907.35024	0.23963
1905.42168	0.23881
1903.49312	0.23809
1901.56455	0.23741
1899.63599	0.23679
1897.70742	0.23640
1895.77886	0.23622
1893.85029	0.23602
1891.92173	0.23570
1889.99316	0.23553
1888.06460	0.23530
1886.13604	0.23479
1884.20747	0.23431
1882.27891	0.23406
1880.35034	0.23399
1878.42178	0.23395
1876.49321	0.23394
1874.56465	0.23390
1872.63608	0.23393
1870.70752	0.23438
1868.77896	0.23533
1866.85039	0.23570
1864.92183	0.23522
1862.99326	0.23495
1861.06470	0.23511
1859.13613	0.23548
1857.20757	0.23584
1855.27900	0.23627
1853.35044	0.23673
1851.42187	0.23727
1849.49331	0.23795
1847.56475	0.23883
1845.63618	0.23990
1843.70762	0.24110
1841.77905	0.24180
1839.85049	0.24198
1837.92192	0.24256
1835.99336	0.24350
1834.06479	0.24446
1832.13623	0.24558
1830.20767	0.24729
1828.27910	0.24891
1826.35054	0.24987
1824.42197	0.25097
1822.49341	0.25196
1820.56484	0.25290
1818.63628	0.25419
1816.70771	0.25586
1814.77915	0.25760
1812.85059	0.25958
1810.92202	0.26183
1808.99346	0.26392
1807.06489	0.26575
1805.13633	0.26754
1803.20776	0.26973
1801.27920	0.27245
1799.35063	0.27548
1797.42207	0.27803
1795.49351	0.28039
1793.56494	0.28335
1791.63638	0.28727
1789.70781	0.29056
1787.77925	0.29277
1785.85068	0.29576
1783.92212	0.29958
1781.99355	0.30361
1780.06499	0.30781
1778.13643	0.31208
1776.20786	0.31615
1774.27930	0.32079
1772.35073	0.32723
1770.42217	0.33375
1768.49360	0.33858
1766.56504	0.34324
1764.63647	0.34827
1762.70791	0.35423
1760.77935	0.36202
1758.85078	0.36911
1756.92222	0.37602
1754.99365	0.38352
1753.06509	0.39031
1751.13652	0.39871
1749.20796	0.40964
1747.27939	0.42012
1745.35083	0.42890
1743.42227	0.43824
1741.49370	0.44877
1739.56514	0.46134
1737.63657	0.47386
1735.70801	0.48469
1733.77944	0.50133
1731.85088	0.52146
1729.92231	0.53700
1727.99375	0.55253
1726.06519	0.56911
1724.13662	0.58763
1722.20806	0.60795
1720.27949	0.62657
1718.35093	0.64856
1716.42236	0.68213
1714.49380	0.71341
1712.56523	0.73739
1710.63667	0.76052
1708.70811	0.78571
1706.77954	0.81489
1704.85098	0.85031
1702.92241	0.88150
1700.99385	0.91158
1699.06528	0.95765
1697.13672	1.00053
1695.20815	1.04382
1693.27959	1.08495
1691.35103	1.11770
1689.42246	1.15638
1687.49390	1.19750
1685.56533	1.23647
1683.63677	1.29871
1681.70820	1.36451
1679.77964	1.40436
1677.85107	1.44236
1675.92251	1.48703
1673.99395	1.54301
1672.06538	1.59216
1670.13682	1.63974
1668.20825	1.70308
1666.27969	1.75388
1664.35112	1.79671
1662.42256	1.85119
1660.49399	1.91448
1658.56543	1.96402
1656.63687	2.00429
1654.70830	2.04033
1652.77974	2.09538
1650.85117	2.14982
1648.92261	2.17113
1646.99404	2.20200
1645.06548	2.23497
1643.13691	2.25348
1641.20835	2.26185
1639.27979	2.27152
1637.35122	2.28031
1635.42266	2.28279
1633.49409	2.27469
1631.56553	2.26041
1629.63696	2.24551
1627.70840	2.21998
1625.77983	2.18853
1623.85127	2.14793
1621.92271	2.09897
1619.99414	2.05550
1618.06558	2.01288
1616.13701	1.95097
1614.20845	1.88741
1612.27988	1.83949
1610.35132	1.78924
1608.42275	1.73451
1606.49419	1.68001
1604.56562	1.62966
1602.63706	1.58175
1600.70850	1.53539
1598.77993	1.49228
1596.85137	1.45154
1594.92280	1.41195
1592.99424	1.37349
1591.06567	1.33833
1589.13711	1.30536
1587.20854	1.27457
1585.27998	1.24617
1583.35142	1.21980
1581.42285	1.19601
1579.49429	1.17588
1577.56572	1.15781
1575.63716	1.13509
1573.70859	1.11456
1571.78003	1.10139
1569.85146	1.08795
1567.92290	1.07274
1565.99434	1.06147
1564.06577	1.05281
1562.13721	1.04552
1560.20864	1.04018
1558.28008	1.03479
1556.35151	1.03102
1554.42295	1.02818
1552.49438	1.02503
1550.56582	1.02058
1548.63726	1.01390
1546.70869	1.00635
1544.78013	0.99786
1542.85156	0.98705
1540.92300	0.97110
1538.99443	0.94639
1537.06587	0.92862
1535.13730	0.91666
1533.20874	0.90103
1531.28018	0.88447
1529.35161	0.87267
1527.42305	0.86178
1525.49448	0.85047
1523.56592	0.84067
1521.63735	0.83077
1519.70879	0.82011
1517.78022	0.81140
1515.85166	0.80163
1513.92310	0.79150
1511.99453	0.78314
1510.06597	0.77585
1508.13740	0.76881
1506.20884	0.75705
1504.28027	0.74639
1502.35171	0.74031
1500.42314	0.73516
1498.49458	0.72999
1496.56602	0.72403
1494.63745	0.71783
1492.70889	0.71307
1490.78032	0.70929
1488.85176	0.70500
1486.92319	0.70022
1484.99463	0.69605
1483.06606	0.69290
1481.13750	0.69053
1479.20894	0.68862
1477.28037	0.68731
1475.35181	0.68653
1473.42324	0.68582
1471.49468	0.68392
1469.56611	0.68107
1467.63755	0.67842
1465.70898	0.67619
1463.78042	0.67417
1461.85186	0.67262
1459.92329	0.67213
1457.99473	0.67270
1456.06616	0.67182
1454.13760	0.66838
1452.20903	0.66512
1450.28047	0.66233
1448.35190	0.65978
1446.42334	0.65704
1444.49478	0.65417
1442.56621	0.65158
1440.63765	0.64937
1438.70908	0.64747
1436.78052	0.64533
1434.85195	0.64249
1432.92339	0.63983
1430.99482	0.63806
1429.06626	0.63712
1427.13770	0.63671
1425.20913	0.63683
1423.28057	0.63732
1421.35200	0.63748
1419.42344	0.63749
1417.49487	0.63719
1415.56631	0.63589
1413.63774	0.63458
1411.70918	0.63385
1409.78062	0.63360
1407.85205	0.63353
1405.92349	0.63380
1403.99492	0.63423
1402.06636	0.63404
1400.13779	0.63323
1398.20923	0.63192
1396.28066	0.62998
1394.35210	0.62701
1392.42354	0.62322
1390.49497	0.61963
1388.56641	0.61642
1386.63784	0.61301
1384.70928	0.60913
1382.78071	0.60524
1380.85215	0.60165
1378.92358	0.59864
1376.99502	0.59651
1375.06646	0.59522
1373.13789	0.59411
1371.20933	0.59294
1369.28076	0.59199
1367.35220	0.59102
1365.42363	0.58990
1363.49507	0.58887
1361.56650	0.58774
1359.63794	0.58628
1357.70937	0.58499
1355.78081	0.58399
1353.85225	0.58298
1351.92368	0.58199
1349.99512	0.58126
1348.06655	0.58051
1346.13799	0.57953
1344.20942	0.57859
1342.28086	0.57794
1340.35229	0.57760
1338.42373	0.57717
1336.49517	0.57634
1334.56660	0.57547
1332.63804	0.57494
1330.70947	0.57480
1328.78091	0.57490
1326.85234	0.57501
1324.92378	0.57511
1322.99521	0.57534
1321.06665	0.57570
1319.13809	0.57600
1317.20952	0.57598
1315.28096	0.57560
1313.35239	0.57504
1311.42383	0.57436
1309.49526	0.57356
1307.56670	0.57280
1305.63813	0.57217
1303.70957	0.57151
1301.78101	0.57073
1299.85244	0.56983
1297.92388	0.56884
1295.99531	0.56764
1294.06675	0.56634
1292.13818	0.56509
1290.20962	0.56381
1288.28105	0.56257
1286.35249	0.56147
1284.42393	0.56055
1282.49536	0.55979
1280.56680	0.55900
1278.63823	0.55798
1276.70967	0.55686
1274.78110	0.55594
1272.85254	0.55528
1270.92397	0.55473
1268.99541	0.55401
1267.06685	0.55310
1265.13828	0.55234
1263.20972	0.55177
1261.28115	0.55119
1259.35259	0.55064
1257.42402	0.55011
1255.49546	0.54967
1253.56689	0.54955
1251.63833	0.54964
1249.70977	0.54971
1247.78120	0.54970
1245.85264	0.54954
1243.92407	0.54908
1241.99551	0.54839
1240.06694	0.54747
1238.13838	0.54623
1236.20981	0.54473
1234.28125	0.54313
1232.35269	0.54153
1230.42412	0.53997
1228.49556	0.53855
1226.56699	0.53728
1224.63843	0.53601
1222.70986	0.53475
1220.78130	0.53349
1218.85273	0.53231
1216.92417	0.53135
1214.99561	0.53044
1213.06704	0.52951
1211.13848	0.52875
1209.20991	0.52811
1207.28135	0.52748
1205.35278	0.52679
1203.42422	0.52607
1201.49565	0.52522
1199.56709	0.52437
1197.63853	0.52373
1195.70996	0.52317
1193.78140	0.52258
1191.85283	0.52211
1189.92427	0.52186
1187.99570	0.52159
1186.06714	0.52131
1184.13857	0.52125
1182.21001	0.52144
1180.28145	0.52198
1178.35288	0.52311
1176.42432	0.52445
1174.49575	0.52544
1172.56719	0.52591
1170.63862	0.52597
1168.71006	0.52588
1166.78149	0.52586
1164.85293	0.52580
1162.92437	0.52559
1160.99580	0.52516
1159.06724	0.52455
1157.13867	0.52372
1155.21011	0.52264
1153.28154	0.52134
1151.35298	0.51978
1149.42441	0.51790
1147.49585	0.51570
1145.56729	0.51329
1143.63872	0.51086
1141.71016	0.50849
1139.78159	0.50628
1137.85303	0.50444
1135.92446	0.50304
1133.99590	0.50214
1132.06733	0.50156
1130.13877	0.50089
1128.21021	0.49997
1126.28164	0.49908
1124.35308	0.49833
1122.42451	0.49754
1120.49595	0.49674
1118.56738	0.49611
1116.63882	0.49569
1114.71025	0.49535
1112.78169	0.49506
1110.85312	0.49508
1108.92456	0.49556
1106.99600	0.49643
1105.06743	0.49770
1103.13887	0.49930
1101.21030	0.50102
1099.28174	0.50295
1097.35317	0.50538
1095.42461	0.50835
1093.49604	0.51184
1091.56748	0.51593
1089.63892	0.52076
1087.71035	0.52645
1085.78179	0.53274
1083.85322	0.53920
1081.92466	0.54543
1079.99609	0.55061
1078.06753	0.55380
1076.13896	0.55440
1074.21040	0.55221
1072.28184	0.54779
1070.35327	0.54207
1068.42471	0.53561
1066.49614	0.52883
1064.56758	0.52243
1062.63901	0.51694
1060.71045	0.51211
1058.78188	0.50751
1056.85332	0.50332
1054.92476	0.49982
1052.99619	0.49692
1051.06763	0.49448
1049.13906	0.49244
1047.21050	0.49087
1045.28193	0.48959
1043.35337	0.48830
1041.42480	0.48708
1039.49624	0.48596
1037.56768	0.48500
1035.63911	0.48441
1033.71055	0.48409
1031.78198	0.48377
1029.85342	0.48335
1027.92485	0.48285
1025.99629	0.48249
1024.06772	0.48257
1022.13916	0.48298
1020.21060	0.48354
1018.28203	0.48428
1016.35347	0.48517
1014.42490	0.48590
1012.49634	0.48657
1010.56777	0.48767
1008.63921	0.48915
1006.71064	0.49078
1004.78208	0.49268
1002.85352	0.49492
1000.92495	0.49758
998.99639	0.50086
997.06782	0.50469
995.13926	0.50874
993.21069	0.51264
991.28213	0.51611
989.35356	0.51881
987.42500	0.52047
985.49644	0.52128
983.56787	0.52181
981.63931	0.52256
979.71074	0.52374
977.78218	0.52557
975.85361	0.52800
973.92505	0.53063
971.99648	0.53351
970.06792	0.53684
968.13936	0.54055
966.21079	0.54469
964.28223	0.54922
962.35366	0.55397
960.42510	0.55901
958.49653	0.56434
956.56797	0.57000
954.63940	0.57602
952.71084	0.58209
950.78228	0.58805
948.85371	0.59416
946.92515	0.60057
944.99658	0.60682
943.06802	0.61247
941.13945	0.61815
939.21089	0.62449
937.28232	0.63076
935.35376	0.63629
933.42520	0.64179
931.49663	0.64766
929.56807	0.65354
927.63950	0.65929
925.71094	0.66503
923.78237	0.67090
921.85381	0.67686
919.92524	0.68296
917.99668	0.68966
916.06812	0.69699
914.13955	0.70439
912.21099	0.71232
910.28242	0.72101
908.35386	0.72907
906.42529	0.73679
904.49673	0.74559
902.56816	0.75477
900.63960	0.76361
898.71104	0.77291
896.78247	0.78298
894.85391	0.79307
892.92534	0.80321
890.99678	0.81407
889.06821	0.82493
887.13965	0.83564
885.21108	0.84719
883.28252	0.85849
881.35396	0.86895
879.42539	0.88012
877.49683	0.89230
875.56826	0.90483
873.63970	0.91683
871.71113	0.92792
869.78257	0.93860
867.85400	0.94903
865.92544	0.96015
863.99687	0.97209
862.06831	0.98410
860.13975	0.99729
858.21118	1.01039
856.28262	1.02019
854.35405	1.02855
852.42549	1.03854
850.49692	1.05022
848.56836	1.06330
846.63979	1.07788
844.71123	1.09275
842.78267	1.10439
840.85410	1.11224
838.92554	1.12137
836.99697	1.13368
835.06841	1.14461
833.13984	1.15417
831.21128	1.16782
829.28271	1.18607
827.35415	1.20479
825.42559	1.21852
823.49702	1.22470
821.56846	1.22882
819.63989	1.23765
817.71133	1.24615
815.78276	1.24948
813.85420	1.25689
811.92563	1.27287
809.99707	1.29344
808.06851	1.31334
806.13994	1.32387
804.21138	1.32751
802.28281	1.33915
800.35425	1.35877
798.42568	1.37935
796.49712	1.39396
794.56855	1.38594
792.63999	1.36894
790.71143	1.36208
788.78286	1.35761
786.85430	1.37012
784.92573	1.40914
782.99717	1.42713
781.06860	1.39081
779.14004	1.36208
777.21147	1.39757
775.28291	1.45794
773.35435	1.51111
771.42578	1.61078
769.49722	1.78273
767.56865	1.98257
765.64009	1.88800
763.71152	1.60923
761.78296	1.38122
759.85439	1.28976
757.92583	1.36125
755.99727	1.49399
754.06870	1.42682
752.14014	1.26883
750.21157	1.20779
748.28301	1.30132
746.35444	1.59202
744.42588	1.56537
742.49731	1.26146
740.56875	1.12629
738.64019	1.07337
736.71162	1.12054
734.78306	1.25928
732.85449	1.14910
730.92593	0.99271
728.99736	0.81676
727.06880	0.49859
725.14023	0.26374
723.21167	0.06256
721.28311	-0.18261
719.35454	-0.01313
717.42598	0.23032
715.49741	0.36042
713.56885	0.40835
711.64028	0.36030
709.71172	0.25996
707.78315	0.23167
705.85459	0.33907
703.92603	0.50331
701.99746	0.60417
700.06890	0.61082
698.14033	0.58717
696.21177	0.53093
694.28320	0.49346
692.35464	0.61302
690.42607	0.96440
688.49751	0.95593
686.56895	0.73339
684.64038	0.65989
682.71182	0.56329
680.78325	0.59267
678.85469	0.87697
676.92612	0.88006
674.99756	0.55828
673.06899	0.49855
671.14043	0.61199
669.21187	0.76920
667.28330	0.87790
665.35474	0.78685
663.42617	0.58807
661.49761	0.54754
659.56904	0.68333
657.64048	1.45250
655.71191	3.93427
653.78335	3.92270
651.85479	1.04619
649.92622	0.68933
647.99766	0.60540
646.06909	0.52112
644.14053	0.45895
642.21196	0.44320
640.28340	0.42610
638.35483	0.39973
636.42627	0.38850
634.49771	0.36622
632.56914	0.31058
630.64058	0.28525
628.71201	0.37060
626.78345	0.68729
624.85488	3.74913
622.92632	1.10738
620.99775	0.77179
619.06919	0.86415
617.14062	1.07618
615.21206	1.00472
613.28350	0.71876
611.35493	0.50366
609.42637	0.41709
607.49780	0.46259
605.56924	0.55301
603.64067	0.56199
601.71211	0.51672
599.78354	0.49882
597.85498	0.50535
595.92642	0.52038
593.99785	0.50812
592.06929	0.44220
590.14072	0.36184
588.21216	0.33289
586.28359	0.40814
584.35503	0.58928
582.42646	0.61503
580.49790	0.48511
578.56934	0.44151
576.64077	0.42175
574.71221	0.41819
572.78364	0.45960
570.85508	0.46223
568.92651	0.37360
566.99795	0.28352
565.06938	0.27827
563.14082	0.35282
561.21226	0.41616
559.28369	0.40543
557.35513	0.37980
555.42656	0.40755
553.49800	0.46799
551.56943	0.49448
549.64087	0.54852
547.71230	0.69132
545.78374	0.65825
543.85518	0.50695
541.92661	0.45496
539.99805	0.46415
538.06948	0.46073
536.14092	0.41352
534.21235	0.34317
532.28379	0.32231
530.35522	0.35676
528.42666	0.41699
526.49810	0.47524
524.56953	0.45921
522.64097	0.41045
520.71240	0.39708
518.78384	0.40630
516.85527	0.41421
514.92671	0.41474
512.99814	0.41418
511.06958	0.37775
509.14102	0.34574
507.21245	0.39128
505.28389	0.48579
503.35532	0.56108
501.42676	0.51584
499.49819	0.41148
