3997.91411	0.06947
3995.98555	0.07020
3994.05698	0.07094
3992.12842	0.07136
3990.19985	0.07159
3988.27129	0.07182
3986.34272	0.07212
3984.41416	0.07237
3982.48560	0.07231
3980.55703	0.07204
3978.62847	0.07183
3976.69990	0.07194
3974.77134	0.07231
3972.84277	0.07280
3970.91421	0.07345
3968.98564	0.07395
3967.05708	0.07404
3965.12852	0.07400
3963.19995	0.07420
3961.27139	0.07437
3959.34282	0.07417
3957.41426	0.07390
3955.48569	0.07391
3953.55713	0.07404
3951.62856	0.07401
3949.70000	0.07408
3947.77144	0.07434
3945.84287	0.07439
3943.91431	0.07428
3941.98574	0.07417
3940.05718	0.07405
3938.12861	0.07398
3936.20005	0.07372
3934.27148	0.07344
3932.34292	0.07368
3930.41436	0.07413
3928.48579	0.07423
3926.55723	0.07430
3924.62866	0.07460
3922.70010	0.07447
3920.77153	0.07378
3918.84297	0.07350
3916.91440	0.07396
3914.98584	0.07427
3913.05728	0.07391
3911.12871	0.07358
3909.20015	0.07348
3907.27158	0.07329
3905.34302	0.07312
3903.41445	0.07304
3901.48589	0.07305
3899.55732	0.07331
3897.62876	0.07353
3895.70020	0.07356
3893.77163	0.07357
3891.84307	0.07345
3889.91450	0.07299
3887.98594	0.07260
3886.05737	0.07299
3884.12881	0.07396
3882.20024	0.07446
3880.27168	0.07449
3878.34312	0.07443
3876.41455	0.07433
3874.48599	0.07444
3872.55742	0.07497
3870.62886	0.07552
3868.70029	0.07569
3866.77173	0.07567
3864.84316	0.07606
3862.91460	0.07681
3860.98604	0.07699
3859.05747	0.07665
3857.12891	0.07636
3855.20034	0.07661
3853.27178	0.07821
3851.34321	0.07986
3849.41465	0.07944
3847.48608	0.07895
3845.55752	0.07925
3843.62896	0.08025
3841.70039	0.08138
3839.77183	0.08217
3837.84326	0.08292
3835.91470	0.08348
3833.98613	0.08395
3832.05757	0.08467
3830.12900	0.08516
3828.20044	0.08516
3826.27187	0.08542
3824.34331	0.08602
3822.41475	0.08686
3820.48618	0.08861
3818.55762	0.09001
3816.62905	0.09051
3814.70049	0.09135
3812.77192	0.09185
3810.84336	0.09200
3808.91479	0.09274
3806.98623	0.09446
3805.05767	0.09630
3803.12910	0.09746
3801.20054	0.09885
3799.27197	0.10001
3797.34341	0.10038
3795.41484	0.10105
3793.48628	0.10169
3791.55771	0.10238
3789.62915	0.10367
3787.70059	0.10525
3785.77202	0.10704
3783.84346	0.10903
3781.91489	0.11080
3779.98633	0.11250
3778.05776	0.11417
3776.12920	0.11531
3774.20063	0.11638
3772.27207	0.11768
3770.34351	0.11949
3768.41494	0.12194
3766.48638	0.12391
3764.55781	0.12553
3762.62925	0.12732
3760.70068	0.12927
3758.77212	0.13185
3756.84355	0.13475
3754.91499	0.13696
3752.98643	0.13917
3751.05786	0.14286
3749.12930	0.14736
3747.20073	0.14984
3745.27217	0.15159
3743.34360	0.15475
3741.41504	0.15822
3739.48647	0.16073
3737.55791	0.16340
3735.62935	0.16733
3733.70078	0.17281
3731.77222	0.17812
3729.84365	0.18243
3727.91509	0.18635
3725.98652	0.19150
3724.05796	0.19845
3722.12939	0.20581
3720.20083	0.21307
3718.27227	0.22031
3716.34370	0.22783
3714.41514	0.23560
3712.48657	0.24468
3710.55801	0.25748
3708.62944	0.27172
3706.70088	0.28358
3704.77231	0.29476
3702.84375	0.30787
3700.91519	0.32501
3698.98662	0.34367
3697.05806	0.36101
3695.12949	0.37912
3693.20093	0.39848
3691.27236	0.41988
3689.34380	0.44816
3687.41523	0.48366
3685.48667	0.51473
3683.55811	0.54095
3681.62954	0.56866
3679.70098	0.60008
3677.77241	0.63339
3675.84385	0.67279
3673.91528	0.72683
3671.98672	0.77010
3670.05815	0.80775
3668.12959	0.86233
3666.20103	0.91254
3664.27246	0.95307
3662.34390	0.99601
3660.41533	1.04244
3658.48677	1.08848
3656.55820	1.13855
3654.62964	1.19467
3652.70107	1.23986
3650.77251	1.27779
3648.84395	1.33347
3646.91538	1.40546
3644.98682	1.45628
3643.05825	1.49408
3641.12969	1.53364
3639.20112	1.57796
3637.27256	1.62227
3635.34399	1.66485
3633.41543	1.70717
3631.48687	1.74663
3629.55830	1.78719
3627.62974	1.84265
3625.70117	1.89437
3623.77261	1.92811
3621.84404	1.96048
3619.91548	1.99793
3617.98691	2.04428
3616.05835	2.08947
3614.12979	2.12630
3612.20122	2.16477
3610.27266	2.20376
3608.34409	2.24349
3606.41553	2.28714
3604.48696	2.32710
3602.55840	2.36048
3600.62983	2.39622
3598.70127	2.43709
3596.77271	2.47760
3594.84414	2.51780
3592.91558	2.55974
3590.98701	2.59962
3589.05845	2.63583
3587.12988	2.67940
3585.20132	2.72962
3583.27275	2.77232
3581.34419	2.81023
3579.41562	2.84978
3577.48706	2.89197
3575.55850	2.93406
3573.62993	2.97577
3571.70137	3.01766
3569.77280	3.05924
3567.84424	3.10312
3565.91567	3.15719
3563.98711	3.20840
3562.05854	3.24730
3560.12998	3.28759
3558.20142	3.33422
3556.27285	3.38046
3554.34429	3.42166
3552.41572	3.46538
3550.48716	3.51379
3548.55859	3.56020
3546.63003	3.60488
3544.70146	3.65208
3542.77290	3.69876
3540.84434	3.74335
3538.91577	3.78969
3536.98721	3.83777
3535.05864	3.88731
3533.13008	3.93583
3531.20151	3.98355
3529.27295	4.03301
3527.34438	4.08472
3525.41582	4.13457
3523.48726	4.17993
3521.55869	4.22546
3519.63013	4.27098
3517.70156	4.31550
3515.77300	4.36135
3513.84443	4.40941
3511.91587	4.45918
3509.98730	4.51100
3508.05874	4.56436
3506.13018	4.61814
3504.20161	4.66830
3502.27305	4.71250
3500.34448	4.75666
3498.41592	4.80079
3496.48735	4.84196
3494.55879	4.88615
3492.63022	4.93836
3490.70166	4.99174
3488.77310	5.03974
3486.84453	5.08515
3484.91597	5.13063
3482.98740	5.17240
3481.05884	5.21020
3479.13027	5.25498
3477.20171	5.31181
3475.27314	5.36935
3473.34458	5.41949
3471.41602	5.46310
3469.48745	5.50382
3467.55889	5.55066
3465.63032	5.60494
3463.70176	5.66123
3461.77319	5.71992
3459.84463	5.77464
3457.91606	5.81634
3455.98750	5.85470
3454.05894	5.89314
3452.13037	5.93102
3450.20181	5.97829
3448.27324	6.03443
3446.34468	6.09404
3444.41611	6.15846
3442.48755	6.23125
3440.55898	6.28403
3438.63042	6.30926
3436.70186	6.34388
3434.77329	6.39304
3432.84473	6.43053
3430.91616	6.44648
3428.98760	6.47315
3427.05903	6.52888
3425.13047	6.60294
3423.20190	6.67848
3421.27334	6.74007
3419.34478	6.78596
3417.41621	6.82442
3415.48765	6.85060
3413.55908	6.87413
3411.63052	6.92716
3409.70195	6.99600
3407.77339	7.05219
3405.84482	7.07594
3403.91626	7.06660
3401.98770	7.04667
3400.05913	7.05363
3398.13057	7.11321
3396.20200	7.21022
3394.27344	7.30655
3392.34487	7.35571
3390.41631	7.37163
3388.48774	7.40756
3386.55918	7.48000
3384.63062	7.54386
3382.70205	7.58208
3380.77349	7.60269
3378.84492	7.62147
3376.91636	7.67532
3374.98779	7.71287
3373.05923	7.70013
3371.13066	7.69103
3369.20210	7.73106
3367.27354	7.75494
3365.34497	7.72516
3363.41641	7.71424
3361.48784	7.72675
3359.55928	7.71765
3357.63071	7.74466
3355.70215	7.89558
3353.77358	8.02757
3351.84502	7.99362
3349.91646	7.91676
3347.98789	7.87628
3346.05933	7.82003
3344.13076	7.78566
3342.20220	7.82268
3340.27363	7.85265
3338.34507	7.88399
3336.41650	7.97612
3334.48794	8.08263
3332.55937	8.04703
3330.63081	7.89662
3328.70225	7.83364
3326.77368	7.88705
3324.84512	7.94752
3322.91655	7.99191
3320.98799	8.05084
3319.05942	8.03254
3317.13086	7.95866
3315.20229	7.94734
3313.27373	8.05054
3311.34517	8.26497
3309.41660	8.41841
3307.48804	8.30539
3305.55947	8.07217
3303.63091	7.91825
3301.70234	7.86548
3299.77378	7.87053
3297.84521	7.88784
3295.91665	7.94712
3293.98809	8.03801
3292.05952	8.10235
3290.13096	8.15415
3288.20239	8.21621
3286.27383	8.24569
3284.34526	8.23645
3282.41670	8.26862
3280.48813	8.32397
3278.55957	8.34487
3276.63101	8.26827
3274.70244	8.14134
3272.77388	8.09865
3270.84531	8.18481
3268.91675	8.29718
3266.98818	8.22174
3265.05962	8.06587
3263.13105	8.06547
3261.20249	8.16545
3259.27393	8.15733
3257.34536	8.08662
3255.41680	8.10645
3253.48823	8.19040
3251.55967	8.18009
3249.63110	8.02713
3247.70254	7.91036
3245.77397	7.94013
3243.84541	8.04055
3241.91685	8.02950
3239.98828	7.92603
3238.05972	7.87897
3236.13115	7.88399
3234.20259	7.87835
3232.27402	7.86643
3230.34546	7.89013
3228.41689	7.96515
3226.48833	8.05087
3224.55977	8.04214
3222.63120	7.97764
3220.70264	7.97234
3218.77407	7.97343
3216.84551	7.94785
3214.91694	7.93563
3212.98838	7.87144
3211.05981	7.72655
3209.13125	7.61406
3207.20269	7.62057
3205.27412	7.69907
3203.34556	7.71518
3201.41699	7.63657
3199.48843	7.56673
3197.55986	7.56067
3195.63130	7.56326
3193.70273	7.53658
3191.77417	7.50711
3189.84561	7.48071
3187.91704	7.44495
3185.98848	7.39841
3184.05991	7.35051
3182.13135	7.31076
3180.20278	7.26389
3178.27422	7.18400
3176.34565	7.10989
3174.41709	7.08174
3172.48853	7.05592
3170.55996	6.99527
3168.63140	6.91725
3166.70283	6.83037
3164.77427	6.74524
3162.84570	6.68173
3160.91714	6.63766
3158.98857	6.60432
3157.06001	6.56333
3155.13145	6.49449
3153.20288	6.40852
3151.27432	6.34269
3149.34575	6.29894
3147.41719	6.24491
3145.48862	6.17886
3143.56006	6.10145
3141.63149	6.01383
3139.70293	5.93611
3137.77437	5.87151
3135.84580	5.80586
3133.91724	5.72920
3131.98867	5.64663
3130.06011	5.57533
3128.13154	5.51725
3126.20298	5.45943
3124.27441	5.39762
3122.34585	5.32872
3120.41729	5.25356
3118.48872	5.17642
3116.56016	5.09751
3114.63159	5.02342
3112.70303	4.95912
3110.77446	4.89974
3108.84590	4.84055
3106.91733	4.78252
3104.98877	4.72322
3103.06021	4.65580
3101.13164	4.58370
3099.20308	4.51621
3097.27451	4.45209
3095.34595	4.38620
3093.41738	4.32122
3091.48882	4.26094
3089.56025	4.20005
3087.63169	4.13480
3085.70312	4.06936
3083.77456	4.00509
3081.84600	3.94413
3079.91743	3.88880
3077.98887	3.83502
3076.06030	3.77808
3074.13174	3.71930
3072.20317	3.66289
3070.27461	3.60771
3068.34604	3.55246
3066.41748	3.49778
3064.48892	3.44221
3062.56035	3.38727
3060.63179	3.33497
3058.70322	3.28427
3056.77466	3.23365
3054.84609	3.18188
3052.91753	3.12974
3050.98896	3.07858
3049.06040	3.02822
3047.13184	2.97984
3045.20327	2.93343
3043.27471	2.88609
3041.34614	2.83776
3039.41758	2.79069
3037.48901	2.74498
3035.56045	2.69955
3033.63188	2.65383
3031.70332	2.60817
3029.77476	2.56361
3027.84619	2.52019
3025.91763	2.47737
3023.98906	2.43531
3022.06050	2.39410
3020.13193	2.35358
3018.20337	2.31352
3016.27480	2.27344
3014.34624	2.23407
3012.41768	2.19608
3010.48911	2.15846
3008.56055	2.12104
3006.63198	2.08458
3004.70342	2.04899
3002.77485	2.01412
3000.84629	1.98004
2998.91772	1.94689
2996.98916	1.91481
2995.06060	1.88321
2993.13203	1.85164
2991.20347	1.82064
2989.27490	1.79089
2987.34634	1.76215
2985.41777	1.73377
2983.48921	1.70580
2981.56064	1.67852
2979.63208	1.65205
2977.70352	1.62618
2975.77495	1.60058
2973.84639	1.57522
2971.91782	1.55044
2969.98926	1.52619
2968.06069	1.50185
2966.13213	1.47764
2964.20356	1.45402
2962.27500	1.43019
2960.34644	1.40582
2958.41787	1.38156
2956.48931	1.35737
2954.56074	1.33294
2952.63218	1.30850
2950.70361	1.28475
2948.77505	1.26223
2946.84648	1.24026
2944.91792	1.21806
2942.98936	1.19595
2941.06079	1.17429
2939.13223	1.15304
2937.20366	1.13221
2935.27510	1.11168
2933.34653	1.09111
2931.41797	1.07056
2929.48940	1.05018
2927.56084	1.03020
2925.63228	1.01125
2923.70371	0.99332
2921.77515	0.97563
2919.84658	0.95808
2917.91802	0.94109
2915.98945	0.92431
2914.06089	0.90757
2912.13232	0.89136
2910.20376	0.87583
2908.27520	0.86076
2906.34663	0.84602
2904.41807	0.83158
2902.48950	0.81739
2900.56094	0.80339
2898.63237	0.78980
2896.70381	0.77688
2894.77524	0.76436
2892.84668	0.75201
2890.91812	0.73995
2888.98955	0.72839
2887.06099	0.71740
2885.13242	0.70692
2883.20386	0.69679
2881.27529	0.68695
2879.34673	0.67748
2877.41816	0.66823
2875.48960	0.65860
2873.56104	0.64827
2871.63247	0.63736
2869.70391	0.62576
2867.77534	0.61349
2865.84678	0.60106
2863.91821	0.58894
2861.98965	0.57707
2860.06108	0.56547
2858.13252	0.55462
2856.20396	0.54454
2854.27539	0.53481
2852.34683	0.52533
2850.41826	0.51645
2848.48970	0.50828
2846.56113	0.50056
2844.63257	0.49336
2842.70400	0.48690
2840.77544	0.48098
2838.84687	0.47520
2836.91831	0.46936
2834.98975	0.46344
2833.06118	0.45754
2831.13262	0.45185
2829.20405	0.44622
2827.27549	0.44048
2825.34692	0.43457
2823.41836	0.42862
2821.48979	0.42271
2819.56123	0.41681
2817.63267	0.41096
2815.70410	0.40524
2813.77554	0.39962
2811.84697	0.39393
2809.91841	0.38821
2807.98984	0.38263
2806.06128	0.37719
2804.13271	0.37192
2802.20415	0.36692
2800.27559	0.36200
2798.34702	0.35695
2796.41846	0.35188
2794.48989	0.34697
2792.56133	0.34227
2790.63276	0.33778
2788.70420	0.33337
2786.77563	0.32897
2784.84707	0.32460
2782.91851	0.32012
2780.98994	0.31548
2779.06138	0.31105
2777.13281	0.30718
2775.20425	0.30361
2773.27568	0.29991
2771.34712	0.29609
2769.41855	0.29230
2767.48999	0.28853
2765.56143	0.28480
2763.63286	0.28115
2761.70430	0.27761
2759.77573	0.27414
2757.84717	0.27075
2755.91860	0.26746
2753.99004	0.26427
2752.06147	0.26117
2750.13291	0.25817
2748.20435	0.25519
2746.27578	0.25221
2744.34722	0.24933
2742.41865	0.24649
2740.49009	0.24360
2738.56152	0.24077
2736.63296	0.23807
2734.70439	0.23551
2732.77583	0.23305
2730.84727	0.23053
2728.91870	0.22796
2726.99014	0.22558
2725.06157	0.22341
2723.13301	0.22115
2721.20444	0.21885
2719.27588	0.21671
2717.34731	0.21465
2715.41875	0.21263
2713.49019	0.21073
2711.56162	0.20893
2709.63306	0.20714
2707.70449	0.20534
2705.77593	0.20357
2703.84736	0.20192
2701.91880	0.20037
2699.99023	0.19885
2698.06167	0.19736
2696.13311	0.19595
2694.20454	0.19462
2692.27598	0.19320
2690.34741	0.19167
2688.41885	0.19034
2686.49028	0.18920
2684.56172	0.18806
2682.63315	0.18690
2680.70459	0.18565
2678.77603	0.18432
2676.84746	0.18302
2674.91890	0.18185
2672.99033	0.18081
2671.06177	0.17982
2669.13320	0.17875
2667.20464	0.17766
2665.27607	0.17660
2663.34751	0.17559
2661.41895	0.17474
2659.49038	0.17410
2657.56182	0.17347
2655.63325	0.17261
2653.70469	0.17170
2651.77612	0.17100
2649.84756	0.17043
2647.91899	0.16980
2645.99043	0.16915
2644.06187	0.16850
2642.13330	0.16780
2640.20474	0.16713
2638.27617	0.16665
2636.34761	0.16628
2634.41904	0.16575
2632.49048	0.16515
2630.56191	0.16466
2628.63335	0.16423
2626.70479	0.16381
2624.77622	0.16344
2622.84766	0.16318
2620.91909	0.16296
2618.99053	0.16276
2617.06196	0.16257
2615.13340	0.16224
2613.20483	0.16178
2611.27627	0.16153
2609.34771	0.16151
2607.41914	0.16143
2605.49058	0.16128
2603.56201	0.16125
2601.63345	0.16123
2599.70488	0.16107
2597.77632	0.16085
2595.84775	0.16067
2593.91919	0.16063
2591.99062	0.16077
2590.06206	0.16106
2588.13350	0.16126
2586.20493	0.16130
2584.27637	0.16149
2582.34780	0.16184
2580.41924	0.16205
2578.49067	0.16215
2576.56211	0.16224
2574.63354	0.16236
2572.70498	0.16264
2570.77642	0.16294
2568.84785	0.16320
2566.91929	0.16357
2564.99072	0.16405
2563.06216	0.16454
2561.13359	0.16493
2559.20503	0.16519
2557.27646	0.16549
2555.34790	0.16595
2553.41934	0.16649
2551.49077	0.16690
2549.56221	0.16721
2547.63364	0.16766
2545.70508	0.16829
2543.77651	0.16888
2541.84795	0.16938
2539.91938	0.17000
2537.99082	0.17065
2536.06226	0.17115
2534.13369	0.17158
2532.20513	0.17209
2530.27656	0.17276
2528.34800	0.17351
2526.41943	0.17423
2524.49087	0.17494
2522.56230	0.17566
2520.63374	0.17638
2518.70518	0.17715
2516.77661	0.17792
2514.84805	0.17861
2512.91948	0.17927
2510.99092	0.17997
2509.06235	0.18069
2507.13379	0.18146
2505.20522	0.18238
2503.27666	0.18328
2501.34810	0.18398
2499.41953	0.18468
2497.49097	0.18555
2495.56240	0.18643
2493.63384	0.18717
2491.70527	0.18785
2489.77671	0.18855
2487.84814	0.18932
2485.91958	0.19022
2483.99102	0.19119
2482.06245	0.19207
2480.13389	0.19283
2478.20532	0.19358
2476.27676	0.19433
2474.34819	0.19508
2472.41963	0.19596
2470.49106	0.19695
2468.56250	0.19791
2466.63394	0.19881
2464.70537	0.19968
2462.77681	0.20059
2460.84824	0.20155
2458.91968	0.20247
2456.99111	0.20335
2455.06255	0.20420
2453.13398	0.20510
2451.20542	0.20609
2449.27686	0.20712
2447.34829	0.20814
2445.41973	0.20903
2443.49116	0.20987
2441.56260	0.21080
2439.63403	0.21173
2437.70547	0.21266
2435.77690	0.21363
2433.84834	0.21467
2431.91978	0.21573
2429.99121	0.21677
2428.06265	0.21785
2426.13408	0.21903
2424.20552	0.22018
2422.27695	0.22130
2420.34839	0.22245
2418.41982	0.22357
2416.49126	0.22459
2414.56270	0.22554
2412.63413	0.22651
2410.70557	0.22765
2408.77700	0.22896
2406.84844	0.23023
2404.91987	0.23140
2402.99131	0.23248
2401.06274	0.23363
2399.13418	0.23495
2397.20562	0.23630
2395.27705	0.23748
2393.34849	0.23852
2391.41992	0.23960
2389.49136	0.24078
2387.56279	0.24193
2385.63423	0.24286
2383.70566	0.24360
2381.77710	0.24426
2379.84854	0.24479
2377.91997	0.24505
2375.99141	0.24498
2374.06284	0.24473
2372.13428	0.24442
2370.20571	0.24433
2368.27715	0.24429
2366.34858	0.24427
2364.42002	0.24450
2362.49146	0.24434
2360.56289	0.24443
2358.63433	0.24639
2356.70576	0.24946
2354.77720	0.25278
2352.84863	0.25723
2350.92007	0.26157
2348.99150	0.26384
2347.06294	0.26434
2345.13437	0.26425
2343.20581	0.26455
2341.27725	0.26555
2339.34868	0.26715
2337.42012	0.26913
2335.49155	0.27146
2333.56299	0.27347
2331.63442	0.27500
2329.70586	0.27699
2327.77729	0.27936
2325.84873	0.28154
2323.92017	0.28392
2321.99160	0.28662
2320.06304	0.28925
2318.13447	0.29150
2316.20591	0.29349
2314.27734	0.29564
2312.34878	0.29792
2310.42021	0.30016
2308.49165	0.30242
2306.56309	0.30474
2304.63452	0.30695
2302.70596	0.30890
2300.77739	0.31076
2298.84883	0.31275
2296.92026	0.31477
2294.99170	0.31675
2293.06313	0.31881
2291.13457	0.32096
2289.20601	0.32313
2287.27744	0.32536
2285.34888	0.32758
2283.42031	0.32961
2281.49175	0.33152
2279.56318	0.33353
2277.63462	0.33561
2275.70605	0.33766
2273.77749	0.33962
2271.84893	0.34157
2269.92036	0.34361
2267.99180	0.34571
2266.06323	0.34782
2264.13467	0.35000
2262.20610	0.35226
2260.27754	0.35446
2258.34897	0.35665
2256.42041	0.35889
2254.49185	0.36112
2252.56328	0.36331
2250.63472	0.36549
2248.70615	0.36766
2246.77759	0.36982
2244.84902	0.37198
2242.92046	0.37420
2240.99189	0.37651
2239.06333	0.37878
2237.13477	0.38107
2235.20620	0.38341
2233.27764	0.38572
2231.34907	0.38795
2229.42051	0.39018
2227.49194	0.39238
2225.56338	0.39455
2223.63481	0.39676
2221.70625	0.39897
2219.77769	0.40105
2217.84912	0.40303
2215.92056	0.40510
2213.99199	0.40733
2212.06343	0.40957
2210.13486	0.41171
2208.20630	0.41388
2206.27773	0.41608
2204.34917	0.41818
2202.42061	0.42020
2200.49204	0.42219
2198.56348	0.42416
2196.63491	0.42614
2194.70635	0.42814
2192.77778	0.43011
2190.84922	0.43197
2188.92065	0.43375
2186.99209	0.43552
2185.06353	0.43731
2183.13496	0.43911
2181.20640	0.44083
2179.27783	0.44242
2177.34927	0.44399
2175.42070	0.44552
2173.49214	0.44696
2171.56357	0.44839
2169.63501	0.44983
2167.70645	0.45117
2165.77788	0.45239
2163.84932	0.45357
2161.92075	0.45474
2159.99219	0.45587
2158.06362	0.45691
2156.13506	0.45785
2154.20649	0.45873
2152.27793	0.45960
2150.34937	0.46042
2148.42080	0.46110
2146.49224	0.46162
2144.56367	0.46206
2142.63511	0.46246
2140.70654	0.46281
2138.77798	0.46305
2136.84941	0.46319
2134.92085	0.46327
2132.99229	0.46325
2131.06372	0.46308
2129.13516	0.46294
2127.20659	0.46287
2125.27803	0.46266
2123.34946	0.46229
2121.42090	0.46184
2119.49233	0.46131
2117.56377	0.46061
2115.63521	0.45976
2113.70664	0.45894
2111.77808	0.45818
2109.84951	0.45729
2107.92095	0.45625
2105.99238	0.45513
2104.06382	0.45393
2102.13525	0.45264
2100.20669	0.45129
2098.27812	0.44989
2096.34956	0.44847
2094.42100	0.44694
2092.49243	0.44523
2090.56387	0.44342
2088.63530	0.44163
2086.70674	0.43988
2084.77817	0.43815
2082.84961	0.43636
2080.92104	0.43436
2078.99248	0.43219
2077.06392	0.43009
2075.13535	0.42805
2073.20679	0.42590
2071.27822	0.42367
2069.34966	0.42141
2067.42109	0.41916
2065.49253	0.41686
2063.56396	0.41434
2061.63540	0.41173
2059.70684	0.40920
2057.77827	0.40667
2055.84971	0.40412
2053.92114	0.40162
2051.99258	0.39910
2050.06401	0.39639
2048.13545	0.39358
2046.20688	0.39079
2044.27832	0.38802
2042.34976	0.38528
2040.42119	0.38260
2038.49263	0.37995
2036.56406	0.37728
2034.63550	0.37450
2032.70693	0.37165
2030.77837	0.36885
2028.84980	0.36607
2026.92124	0.36327
2024.99268	0.36049
2023.06411	0.35772
2021.13555	0.35493
2019.20698	0.35220
2017.27842	0.34952
2015.34985	0.34672
2013.42129	0.34385
2011.49272	0.34106
2009.56416	0.33829
2007.63560	0.33554
2005.70703	0.33283
2003.77847	0.33015
2001.84990	0.32746
1999.92134	0.32477
1997.99277	0.32205
1996.06421	0.31938
1994.13564	0.31682
1992.20708	0.31441
1990.27852	0.31203
1988.34995	0.30957
1986.42139	0.30703
1984.49282	0.30448
1982.56426	0.30206
1980.63569	0.29976
1978.70713	0.29752
1976.77856	0.29529
1974.85000	0.29310
1972.92144	0.29089
1970.99287	0.28869
1969.06431	0.28657
1967.13574	0.28457
1965.20718	0.28256
1963.27861	0.28053
1961.35005	0.27857
1959.42148	0.27667
1957.49292	0.27473
1955.56436	0.27282
1953.63579	0.27108
1951.70723	0.26938
1949.77866	0.26767
1947.85010	0.26604
1945.92153	0.26456
1943.99297	0.26315
1942.06440	0.26169
1940.13584	0.26007
1938.20728	0.25843
1936.27871	0.25698
1934.35015	0.25576
1932.42158	0.25464
1930.49302	0.25338
1928.56445	0.25205
1926.63589	0.25083
1924.70732	0.24981
1922.77876	0.24892
1920.85020	0.24802
1918.92163	0.24709
1916.99307	0.24616
1915.06450	0.24518
1913.13594	0.24428
1911.20737	0.24366
1909.27881	0.24308
1907.35024	0.24230
1905.42168	0.24150
1903.49312	0.24088
1901.56455	0.24038
1899.63599	0.23991
1897.70742	0.23949
1895.77886	0.23910
1893.85029	0.23871
1891.92173	0.23834
1889.99316	0.23816
1888.06460	0.23797
1886.13604	0.23761
1884.20747	0.23722
1882.27891	0.23688
1880.35034	0.23664
1878.42178	0.23658
1876.49321	0.23661
1874.56465	0.23660
1872.63608	0.23665
1870.70752	0.23683
1868.77896	0.23731
1866.85039	0.23770
1864.92183	0.23768
1862.99326	0.23768
1861.06470	0.23788
1859.13613	0.23824
1857.20757	0.23865
1855.27900	0.23905
1853.35044	0.23943
1851.42187	0.23995
1849.49331	0.24055
1847.56475	0.24123
1845.63618	0.24204
1843.70762	0.24301
1841.77905	0.24382
1839.85049	0.24428
1837.92192	0.24497
1835.99336	0.24588
1834.06479	0.24674
1832.13623	0.24761
1830.20767	0.24903
1828.27910	0.25070
1826.35054	0.25181
1824.42197	0.25304
1822.49341	0.25437
1820.56484	0.25556
1818.63628	0.25679
1816.70771	0.25833
1814.77915	0.25994
1812.85059	0.26166
1810.92202	0.26368
1808.99346	0.26577
1807.06489	0.26765
1805.13633	0.26939
1803.20776	0.27142
1801.27920	0.27387
1799.35063	0.27677
1797.42207	0.27948
1795.49351	0.28192
1793.56494	0.28459
1791.63638	0.28821
1789.70781	0.29179
1787.77925	0.29433
1785.85068	0.29726
1783.92212	0.30087
1781.99355	0.30483
1780.06499	0.30908
1778.13643	0.31336
1776.20786	0.31722
1774.27930	0.32127
1772.35073	0.32697
1770.42217	0.33349
1768.49360	0.33892
1766.56504	0.34405
1764.63647	0.34924
1762.70791	0.35497
1760.77935	0.36237
1758.85078	0.36931
1756.92222	0.37630
1754.99365	0.38404
1753.06509	0.39094
1751.13652	0.39883
1749.20796	0.40897
1747.27939	0.41938
1745.35083	0.42841
1743.42227	0.43768
1741.49370	0.44796
1739.56514	0.46039
1737.63657	0.47287
1735.70801	0.48347
1733.77944	0.49970
1731.85088	0.51963
1729.92231	0.53503
1727.99375	0.55057
1726.06519	0.56724
1724.13662	0.58560
1722.20806	0.60558
1720.27949	0.62363
1718.35093	0.64444
1716.42236	0.67665
1714.49380	0.70811
1712.56523	0.73314
1710.63667	0.75705
1708.70811	0.78236
1706.77954	0.81102
1704.85098	0.84613
1702.92241	0.87762
1700.99385	0.90790
1699.06528	0.95435
1697.13672	0.99845
1695.20815	1.04406
1693.27959	1.08805
1691.35103	1.12293
1689.42246	1.16356
1687.49390	1.20663
1685.56533	1.24725
1683.63677	1.31297
1681.70820	1.38419
1679.77964	1.42807
1677.85107	1.46904
1675.92251	1.51607
1673.99395	1.57642
1672.06538	1.63124
1670.13682	1.68446
1668.20825	1.75580
1666.27969	1.81387
1664.35112	1.86309
1662.42256	1.92739
1660.49399	2.00309
1658.56543	2.06099
1656.63687	2.10670
1654.70830	2.14656
1652.77974	2.20637
1650.85117	2.26494
1648.92261	2.28360
1646.99404	2.30827
1645.06548	2.33678
1643.13691	2.35711
1641.20835	2.36538
1639.27979	2.36976
1637.35122	2.36981
1635.42266	2.36648
1633.49409	2.35989
1631.56553	2.34658
1629.63696	2.32853
1627.70840	2.29571
1625.77983	2.25702
1623.85127	2.20934
1621.92271	2.15429
1619.99414	2.10860
1618.06558	2.06436
1616.13701	1.99840
1614.20845	1.93084
1612.27988	1.88025
1610.35132	1.82743
1608.42275	1.76989
1606.49419	1.71327
1604.56562	1.66119
1602.63706	1.61031
1600.70850	1.56153
1598.77993	1.51820
1596.85137	1.47775
1594.92280	1.43789
1592.99424	1.39918
1591.06567	1.36423
1589.13711	1.33211
1587.20854	1.30271
1585.27998	1.27625
1583.35142	1.25253
1581.42285	1.23132
1579.49429	1.21317
1577.56572	1.19728
1575.63716	1.17914
1573.70859	1.16454
1571.78003	1.15598
1569.85146	1.14759
1567.92290	1.13853
1565.99434	1.13274
1564.06577	1.12995
1562.13721	1.12878
1560.20864	1.13000
1558.28008	1.13892
1556.35151	1.14919
1554.42295	1.15400
1552.49438	1.15855
1550.56582	1.16147
1548.63726	1.16155
1546.70869	1.15822
1544.78013	1.15048
1542.85156	1.13807
1540.92300	1.11730
1538.99443	1.08320
1537.06587	1.05946
1535.13730	1.04292
1533.20874	1.01919
1531.28018	0.99415
1529.35161	0.97662
1527.42305	0.96001
1525.49448	0.94293
1523.56592	0.92882
1521.63735	0.91555
1519.70879	0.90201
1517.78022	0.89025
1515.85166	0.87648
1513.92310	0.86256
1511.99453	0.85033
1510.06597	0.83870
1508.13740	0.82683
1506.20884	0.80839
1504.28027	0.79363
1502.35171	0.78566
1500.42314	0.77856
1498.49458	0.77081
1496.56602	0.76150
1494.63745	0.75244
1492.70889	0.74572
1490.78032	0.73970
1488.85176	0.73245
1486.92319	0.72573
1484.99463	0.72078
1483.06606	0.71700
1481.13750	0.71384
1479.20894	0.71162
1477.28037	0.71066
1475.35181	0.71063
1473.42324	0.71102
1471.49468	0.71065
1469.56611	0.70878
1467.63755	0.70622
1465.70898	0.70398
1463.78042	0.70271
1461.85186	0.70221
1459.92329	0.70213
1457.99473	0.70251
1456.06616	0.70264
1454.13760	0.70121
1452.20903	0.69906
1450.28047	0.69662
1448.35190	0.69409
1446.42334	0.69139
1444.49478	0.68856
1442.56621	0.68568
1440.63765	0.68276
1438.70908	0.67969
1436.78052	0.67582
1434.85195	0.67166
1432.92339	0.66875
1430.99482	0.66696
1429.06626	0.66600
1427.13770	0.66589
1425.20913	0.66675
1423.28057	0.66834
1421.35200	0.66957
1419.42344	0.67046
1417.49487	0.67104
1415.56631	0.67062
1413.63774	0.67026
1411.70918	0.67075
1409.78062	0.67223
1407.85205	0.67432
1405.92349	0.67685
1403.99492	0.67936
1402.06636	0.68048
1400.13779	0.68014
1398.20923	0.67866
1396.28066	0.67591
1394.35210	0.67160
1392.42354	0.66645
1390.49497	0.66157
1388.56641	0.65646
1386.63784	0.65023
1384.70928	0.64363
1382.78071	0.63755
1380.85215	0.63188
1378.92358	0.62693
1376.99502	0.62314
1375.06646	0.62049
1373.13789	0.61872
1371.20933	0.61758
1369.28076	0.61669
1367.35220	0.61544
1365.42363	0.61373
1363.49507	0.61185
1361.56650	0.61009
1359.63794	0.60859
1357.70937	0.60729
1355.78081	0.60611
1353.85225	0.60516
1351.92368	0.60446
1349.99512	0.60387
1348.06655	0.60319
1346.13799	0.60240
1344.20942	0.60159
1342.28086	0.60085
1340.35229	0.60032
1338.42373	0.59990
1336.49517	0.59953
1334.56660	0.59941
1332.63804	0.59962
1330.70947	0.60001
1328.78091	0.60059
1326.85234	0.60146
1324.92378	0.60256
1322.99521	0.60379
1321.06665	0.60506
1319.13809	0.60621
1317.20952	0.60702
1315.28096	0.60740
1313.35239	0.60726
1311.42383	0.60667
1309.49526	0.60603
1307.56670	0.60565
1305.63813	0.60539
1303.70957	0.60488
1301.78101	0.60417
1299.85244	0.60336
1297.92388	0.60227
1295.99531	0.60095
1294.06675	0.59965
1292.13818	0.59816
1290.20962	0.59638
1288.28105	0.59455
1286.35249	0.59290
1284.42393	0.59147
1282.49536	0.59004
1280.56680	0.58855
1278.63823	0.58710
1276.70967	0.58565
1274.78110	0.58419
1272.85254	0.58292
1270.92397	0.58192
1268.99541	0.58099
1267.06685	0.58004
1265.13828	0.57913
1263.20972	0.57823
1261.28115	0.57733
1259.35259	0.57657
1257.42402	0.57597
1255.49546	0.57561
1253.56689	0.57568
1251.63833	0.57607
1249.70977	0.57643
1247.78120	0.57656
1245.85264	0.57648
1243.92407	0.57608
1241.99551	0.57515
1240.06694	0.57368
1238.13838	0.57163
1236.20981	0.56909
1234.28125	0.56640
1232.35269	0.56372
1230.42412	0.56112
1228.49556	0.55881
1226.56699	0.55676
1224.63843	0.55472
1222.70986	0.55266
1220.78130	0.55070
1218.85273	0.54898
1216.92417	0.54755
1214.99561	0.54644
1213.06704	0.54561
1211.13848	0.54489
1209.20991	0.54408
1207.28135	0.54307
1205.35278	0.54189
1203.42422	0.54071
1201.49565	0.53969
1199.56709	0.53884
1197.63853	0.53809
1195.70996	0.53749
1193.78140	0.53694
1191.85283	0.53633
1189.92427	0.53583
1187.99570	0.53553
1186.06714	0.53528
1184.13857	0.53525
1182.21001	0.53570
1180.28145	0.53658
1178.35288	0.53793
1176.42432	0.53963
1174.49575	0.54103
1172.56719	0.54169
1170.63862	0.54163
1168.71006	0.54100
1166.78149	0.54017
1164.85293	0.53937
1162.92437	0.53852
1160.99580	0.53763
1159.06724	0.53670
1157.13867	0.53564
1155.21011	0.53434
1153.28154	0.53271
1151.35298	0.53080
1149.42441	0.52858
1147.49585	0.52608
1145.56729	0.52364
1143.63872	0.52147
1141.71016	0.51939
1139.78159	0.51743
1137.85303	0.51585
1135.92446	0.51472
1133.99590	0.51399
1132.06733	0.51360
1130.13877	0.51340
1128.21021	0.51294
1126.28164	0.51207
1124.35308	0.51109
1122.42451	0.51015
1120.49595	0.50936
1118.56738	0.50886
1116.63882	0.50852
1114.71025	0.50831
1112.78169	0.50833
1110.85312	0.50859
1108.92456	0.50922
1106.99600	0.51012
1105.06743	0.51120
1103.13887	0.51277
1101.21030	0.51493
1099.28174	0.51731
1097.35317	0.51986
1095.42461	0.52280
1093.49604	0.52622
1091.56748	0.53022
1089.63892	0.53477
1087.71035	0.53967
1085.78179	0.54490
1083.85322	0.55065
1081.92466	0.55643
1079.99609	0.56125
1078.06753	0.56431
1076.13896	0.56502
1074.21040	0.56293
1072.28184	0.55839
1070.35327	0.55239
1068.42471	0.54577
1066.49614	0.53920
1064.56758	0.53300
1062.63901	0.52707
1060.71045	0.52172
1058.78188	0.51728
1056.85332	0.51342
1054.92476	0.50977
1052.99619	0.50636
1051.06763	0.50338
1049.13906	0.50079
1047.21050	0.49853
1045.28193	0.49654
1043.35337	0.49469
1041.42480	0.49287
1039.49624	0.49114
1037.56768	0.48975
1035.63911	0.48897
1033.71055	0.48867
1031.78198	0.48848
1029.85342	0.48821
1027.92485	0.48790
1025.99629	0.48777
1024.06772	0.48801
1022.13916	0.48853
1020.21060	0.48919
1018.28203	0.48986
1016.35347	0.49044
1014.42490	0.49104
1012.49634	0.49187
1010.56777	0.49299
1008.63921	0.49431
1006.71064	0.49590
1004.78208	0.49783
1002.85352	0.50005
1000.92495	0.50281
998.99639	0.50623
997.06782	0.51013
995.13926	0.51426
993.21069	0.51832
991.28213	0.52187
989.35356	0.52451
987.42500	0.52616
985.49644	0.52708
983.56787	0.52768
981.63931	0.52841
979.71074	0.52955
977.78218	0.53114
975.85361	0.53336
973.92505	0.53598
971.99648	0.53874
970.06792	0.54193
968.13936	0.54569
966.21079	0.54972
964.28223	0.55413
962.35366	0.55904
960.42510	0.56409
958.49653	0.56924
956.56797	0.57473
954.63940	0.58047
952.71084	0.58646
950.78228	0.59272
948.85371	0.59903
946.92515	0.60524
944.99658	0.61152
943.06802	0.61798
941.13945	0.62426
939.21089	0.63001
937.28232	0.63560
935.35376	0.64168
933.42520	0.64789
931.49663	0.65304
929.56807	0.65759
927.63950	0.66313
925.71094	0.66952
923.78237	0.67566
921.85381	0.68170
919.92524	0.68838
917.99668	0.69507
916.06812	0.70128
914.13955	0.70820
912.21099	0.71615
910.28242	0.72400
908.35386	0.73192
906.42529	0.74096
904.49673	0.75074
902.56816	0.76021
900.63960	0.76906
898.71104	0.77787
896.78247	0.78717
894.85391	0.79662
892.92534	0.80643
890.99678	0.81792
889.06821	0.83065
887.13965	0.84256
885.21108	0.85372
883.28252	0.86496
881.35396	0.87542
879.42539	0.88529
877.49683	0.89599
875.56826	0.90741
873.63970	0.91870
871.71113	0.92991
869.78257	0.94149
867.85400	0.95377
865.92544	0.96617
863.99687	0.97756
862.06831	0.98817
860.13975	0.99953
858.21118	1.01212
856.28262	1.02423
854.35405	1.03573
852.42549	1.04741
850.49692	1.05860
848.56836	1.06948
846.63979	1.08016
844.71123	1.09074
842.78267	1.10212
840.85410	1.11325
838.92554	1.12415
836.99697	1.13846
835.06841	1.15407
833.13984	1.16362
831.21128	1.16891
829.28271	1.17720
827.35415	1.18834
825.42559	1.19917
823.49702	1.21058
821.56846	1.22330
819.63989	1.23823
817.71133	1.25287
815.78276	1.25917
813.85420	1.25675
811.92563	1.26138
809.99707	1.28070
808.06851	1.29798
806.13994	1.30183
804.21138	1.29764
802.28281	1.30543
800.35425	1.34196
798.42568	1.39622
796.49712	1.43989
794.56855	1.44425
792.63999	1.41459
790.71143	1.39598
788.78286	1.41863
786.85430	1.45574
784.92573	1.48263
782.99717	1.48230
781.06860	1.39700
779.14004	1.29066
777.21147	1.24201
775.28291	1.24715
773.35435	1.27773
771.42578	1.32410
769.49722	1.39552
767.56865	1.49800
765.64009	1.53313
763.71152	1.42313
761.78296	1.36237
759.85439	1.42317
757.92583	1.46587
755.99727	1.38468
754.06870	1.34501
752.14014	1.42019
750.21157	1.80064
748.28301	4.48970
746.35444	4.47813
744.42588	1.90624
742.49731	2.39014
740.56875	4.44341
738.64019	1.32382
736.71162	1.00271
734.78306	1.01449
732.85449	1.26321
730.92593	1.03953
728.99736	0.77955
727.06880	0.76659
725.14023	1.24703
723.21167	4.33927
721.28311	0.52546
719.35454	0.23826
717.42598	0.15611
715.49741	0.15003
713.56885	0.24861
711.64028	0.36960
709.71172	0.46625
707.78315	0.52873
705.85459	0.46116
703.92603	0.34354
701.99746	0.34055
700.06890	0.51813
698.14033	0.86814
696.21177	0.70971
694.28320	0.48417
692.35464	0.37599
690.42607	0.38035
688.49751	0.46724
686.56895	0.51784
684.64038	0.47343
682.71182	0.35325
680.78325	0.25904
678.85469	0.27020
676.92612	0.35208
674.99756	0.38760
673.06899	0.29760
671.14043	0.21150
669.21187	0.22147
667.28330	0.30042
665.35474	0.37685
663.42617	0.42527
661.49761	0.43157
659.56904	0.36198
657.64048	0.29727
655.71191	0.29294
653.78335	0.29763
651.85479	0.26209
649.92622	0.22612
647.99766	0.22133
646.06909	0.25089
644.14053	0.34780
642.21196	0.48874
640.28340	0.50242
638.35483	0.48500
636.42627	0.57113
634.49771	0.77947
632.56914	1.40420
630.64058	3.78384
628.71201	1.18896
626.78345	0.56275
624.85488	0.37976
622.92632	0.41759
620.99775	0.61836
619.06919	0.74171
617.14062	0.50736
615.21206	0.31813
613.28350	0.22770
611.35493	0.22495
609.42637	0.28733
607.49780	0.32677
605.56924	0.28913
603.64067	0.25874
601.71211	0.29041
599.78354	0.39054
597.85498	0.45093
595.92642	0.34284
593.99785	0.25560
592.06929	0.23400
590.14072	0.23338
588.21216	0.24994
586.28359	0.27973
584.35503	0.32599
582.42646	0.37756
580.49790	0.35433
578.56934	0.28850
576.64077	0.26635
574.71221	0.27253
572.78364	0.26885
570.85508	0.27479
568.92651	0.25174
566.99795	0.19099
565.06938	0.20288
563.14082	0.29563
561.21226	0.38342
559.28369	0.48377
557.35513	0.72421
555.42656	0.51743
553.49800	0.27499
551.56943	0.22383
549.64087	0.24018
547.71230	0.23567
545.78374	0.19030
543.85518	0.16618
541.92661	0.23927
539.99805	0.33890
538.06948	0.32227
536.14092	0.26571
534.21235	0.24499
532.28379	0.27327
530.35522	0.35954
528.42666	0.41397
526.49810	0.37191
524.56953	0.33738
522.64097	0.33587
520.71240	0.33825
518.78384	0.30644
516.85527	0.24834
514.92671	0.21063
512.99814	0.20990
511.06958	0.20138
509.14102	0.16441
507.21245	0.14774
505.28389	0.18089
503.35532	0.27175
501.42676	0.38842
499.49819	0.42184
