3997.91411	0.07371
3995.98555	0.07439
3994.05698	0.07510
3992.12842	0.07514
3990.19985	0.07471
3988.27129	0.07427
3986.34272	0.07415
3984.41416	0.07451
3982.48560	0.07507
3980.55703	0.07552
3978.62847	0.07578
3976.69990	0.07595
3974.77134	0.07625
3972.84277	0.07681
3970.91421	0.07727
3968.98564	0.07746
3967.05708	0.07759
3965.12852	0.07754
3963.19995	0.07738
3961.27139	0.07749
3959.34282	0.07764
3957.41426	0.07760
3955.48569	0.07759
3953.55713	0.07764
3951.62856	0.07775
3949.70000	0.07800
3947.77144	0.07834
3945.84287	0.07862
3943.91431	0.07847
3941.98574	0.07811
3940.05718	0.07814
3938.12861	0.07839
3936.20005	0.07832
3934.27148	0.07793
3932.34292	0.07776
3930.41436	0.07796
3928.48579	0.07804
3926.55723	0.07774
3924.62866	0.07770
3922.70010	0.07808
3920.77153	0.07812
3918.84297	0.07787
3916.91440	0.07766
3914.98584	0.07757
3913.05728	0.07771
3911.12871	0.07791
3909.20015	0.07773
3907.27158	0.07721
3905.34302	0.07690
3903.41445	0.07735
3901.48589	0.07805
3899.55732	0.07818
3897.62876	0.07827
3895.70020	0.07820
3893.77163	0.07789
3891.84307	0.07796
3889.91450	0.07833
3887.98594	0.07832
3886.05737	0.07834
3884.12881	0.07847
3882.20024	0.07838
3880.27168	0.07845
3878.34312	0.07847
3876.41455	0.07820
3874.48599	0.07839
3872.55742	0.07906
3870.62886	0.07939
3868.70029	0.07974
3866.77173	0.08032
3864.84316	0.08050
3862.91460	0.08057
3860.98604	0.08070
3859.05747	0.08065
3857.12891	0.08073
3855.20034	0.08120
3853.27178	0.08190
3851.34321	0.08263
3849.41465	0.08272
3847.48608	0.08273
3845.55752	0.08312
3843.62896	0.08374
3841.70039	0.08472
3839.77183	0.08668
3837.84326	0.08888
3835.91470	0.08900
3833.98613	0.08779
3832.05757	0.08775
3830.12900	0.08890
3828.20044	0.08979
3826.27187	0.09040
3824.34331	0.09124
3822.41475	0.09221
3820.48618	0.09354
3818.55762	0.09447
3816.62905	0.09463
3814.70049	0.09499
3812.77192	0.09565
3810.84336	0.09646
3808.91479	0.09749
3806.98623	0.09879
3805.05767	0.10014
3803.12910	0.10138
3801.20054	0.10300
3799.27197	0.10449
3797.34341	0.10543
3795.41484	0.10659
3793.48628	0.10750
3791.55771	0.10820
3789.62915	0.10928
3787.70059	0.11050
3785.77202	0.11174
3783.84346	0.11315
3781.91489	0.11457
3779.98633	0.11636
3778.05776	0.11870
3776.12920	0.12043
3774.20063	0.12152
3772.27207	0.12277
3770.34351	0.12451
3768.41494	0.12681
3766.48638	0.12902
3764.55781	0.13102
3762.62925	0.13262
3760.70068	0.13436
3758.77212	0.13742
3756.84355	0.14069
3754.91499	0.14251
3752.98643	0.14413
3751.05786	0.14751
3749.12930	0.15232
3747.20073	0.15517
3745.27217	0.15733
3743.34360	0.16095
3741.41504	0.16422
3739.48647	0.16656
3737.55791	0.16957
3735.62935	0.17413
3733.70078	0.18009
3731.77222	0.18576
3729.84365	0.19015
3727.91509	0.19394
3725.98652	0.19909
3724.05796	0.20595
3722.12939	0.21309
3720.20083	0.22037
3718.27227	0.22772
3716.34370	0.23503
3714.41514	0.24222
3712.48657	0.25062
3710.55801	0.26354
3708.62944	0.27920
3706.70088	0.29183
3704.77231	0.30284
3702.84375	0.31566
3700.91519	0.33278
3698.98662	0.35177
3697.05806	0.36957
3695.12949	0.38816
3693.20093	0.40790
3691.27236	0.42935
3689.34380	0.45738
3687.41523	0.49306
3685.48667	0.52456
3683.55811	0.55096
3681.62954	0.57915
3679.70098	0.61130
3677.77241	0.64435
3675.84385	0.68260
3673.91528	0.73652
3671.98672	0.78078
3670.05815	0.81971
3668.12959	0.87527
3666.20103	0.92554
3664.27246	0.96620
3662.34390	1.01001
3660.41533	1.05783
3658.48677	1.10417
3656.55820	1.15276
3654.62964	1.20792
3652.70107	1.25399
3650.77251	1.29288
3648.84395	1.34861
3646.91538	1.42035
3644.98682	1.47185
3643.05825	1.51064
3641.12969	1.55079
3639.20112	1.59550
3637.27256	1.64026
3635.34399	1.68307
3633.41543	1.72562
3631.48687	1.76580
3629.55830	1.80685
3627.62974	1.86172
3625.70117	1.91268
3623.77261	1.94621
3621.84404	1.97862
3619.91548	2.01629
3617.98691	2.06226
3616.05835	2.10616
3614.12979	2.14320
3612.20122	2.18375
3610.27266	2.22406
3608.34409	2.26335
3606.41553	2.30578
3604.48696	2.34543
3602.55840	2.38070
3600.62983	2.41893
3598.70127	2.46033
3596.77271	2.50071
3594.84414	2.54154
3592.91558	2.58308
3590.98701	2.62176
3589.05845	2.65756
3587.12988	2.70139
3585.20132	2.75108
3583.27275	2.79178
3581.34419	2.82818
3579.41562	2.86766
3577.48706	2.91023
3575.55850	2.95425
3573.62993	2.99902
3571.70137	3.03988
3569.77280	3.07678
3567.84424	3.11716
3565.91567	3.16975
3563.98711	3.22193
3562.05854	3.26490
3560.12998	3.30871
3558.20142	3.35507
3556.27285	3.39967
3554.34429	3.44240
3552.41572	3.48880
3550.48716	3.53514
3548.55859	3.57781
3546.63003	3.62255
3544.70146	3.67169
3542.77290	3.72058
3540.84434	3.76748
3538.91577	3.81470
3536.98721	3.86225
3535.05864	3.91083
3533.13008	3.95765
3531.20151	4.00255
3529.27295	4.04959
3527.34438	4.09794
3525.41582	4.14189
3523.48726	4.18670
3521.55869	4.24084
3519.63013	4.29581
3517.70156	4.34332
3515.77300	4.38618
3513.84443	4.43102
3511.91587	4.47765
3509.98730	4.52671
3508.05874	4.57969
3506.13018	4.62771
3504.20161	4.67052
3502.27305	4.71684
3500.34448	4.76750
3498.41592	4.82041
3496.48735	4.87483
3494.55879	4.92610
3492.63022	4.97122
3490.70166	5.01321
3488.77310	5.05647
3486.84453	5.10481
3484.91597	5.15562
3482.98740	5.19999
3481.05884	5.23971
3479.13027	5.28501
3477.20171	5.33564
3475.27314	5.38462
3473.34458	5.43780
3471.41602	5.49839
3469.48745	5.55336
3467.55889	5.59544
3465.63032	5.62884
3463.70176	5.67278
3461.77319	5.73429
3459.84463	5.79313
3457.91606	5.84025
3455.98750	5.89024
3454.05894	5.94700
3452.13037	5.99918
3450.20181	6.04605
3448.27324	6.08992
3446.34468	6.12669
3444.41611	6.16122
3442.48755	6.21523
3440.55898	6.27593
3438.63042	6.31312
3436.70186	6.34024
3434.77329	6.38154
3432.84473	6.43776
3430.91616	6.49919
3428.98760	6.55658
3427.05903	6.59910
3425.13047	6.64012
3423.20190	6.69200
3421.27334	6.75652
3419.34478	6.82056
3417.41621	6.85994
3415.48765	6.89090
3413.55908	6.93556
3411.63052	6.98471
3409.70195	7.02348
3407.77339	7.06854
3405.84482	7.14040
3403.91626	7.23578
3401.98770	7.29848
3400.05913	7.31653
3398.13057	7.34795
3396.20200	7.36990
3394.27344	7.34613
3392.34487	7.34024
3390.41631	7.41243
3388.48774	7.50755
3386.55918	7.58434
3384.63062	7.64402
3382.70205	7.67165
3380.77349	7.67896
3378.84492	7.71032
3376.91636	7.76432
3374.98779	7.77030
3373.05923	7.75545
3371.13066	7.77916
3369.20210	7.83251
3367.27354	7.86018
3365.34497	7.90033
3363.41641	8.00701
3361.48784	8.06953
3359.55928	8.01239
3357.63071	7.95224
3355.70215	8.00876
3353.77358	8.08488
3351.84502	8.08345
3349.91646	8.06686
3347.98789	8.04952
3346.05933	7.99218
3344.13076	7.94747
3342.20220	7.96143
3340.27363	7.97976
3338.34507	8.01610
3336.41650	8.08572
3334.48794	8.17507
3332.55937	8.25505
3330.63081	8.26548
3328.70225	8.20831
3326.77368	8.15976
3324.84512	8.13089
3322.91655	8.09569
3320.98799	8.12996
3319.05942	8.21852
3317.13086	8.28320
3315.20229	8.29661
3313.27373	8.23572
3311.34517	8.10079
3309.41660	7.98585
3307.48804	7.99984
3305.55947	8.12078
3303.63091	8.27706
3301.70234	8.39608
3299.77378	8.41764
3297.84521	8.37448
3295.91665	8.34081
3293.98809	8.28642
3292.05952	8.27169
3290.13096	8.40077
3288.20239	8.46668
3286.27383	8.35290
3284.34526	8.30587
3282.41670	8.39527
3280.48813	8.47606
3278.55957	8.50192
3276.63101	8.51194
3274.70244	8.48038
3272.77388	8.39060
3270.84531	8.27716
3268.91675	8.23911
3266.98818	8.32605
3265.05962	8.44031
3263.13105	8.52812
3261.20249	8.65914
3259.27393	8.72094
3257.34536	8.60875
3255.41680	8.50467
3253.48823	8.47241
3251.55967	8.35962
3249.63110	8.21071
3247.70254	8.19590
3245.77397	8.30548
3243.84541	8.37804
3241.91685	8.27395
3239.98828	8.15062
3238.05972	8.14763
3236.13115	8.17936
3234.20259	8.18868
3232.27402	8.19639
3230.34546	8.20372
3228.41689	8.24401
3226.48833	8.30603
3224.55977	8.27349
3222.63120	8.14517
3220.70264	8.03257
3218.77407	7.98457
3216.84551	7.97426
3214.91694	7.99288
3212.98838	8.04185
3211.05981	8.03852
3209.13125	7.95918
3207.20269	7.89672
3205.27412	7.88529
3203.34556	7.87850
3201.41699	7.83023
3199.48843	7.74279
3197.55986	7.67208
3195.63130	7.65932
3193.70273	7.67930
3191.77417	7.63912
3189.84561	7.53097
3187.91704	7.46635
3185.98848	7.46420
3184.05991	7.46284
3182.13135	7.43183
3180.20278	7.38165
3178.27422	7.33022
3176.34565	7.27371
3174.41709	7.19966
3172.48853	7.11650
3170.55996	7.04739
3168.63140	6.99610
3166.70283	6.94971
3164.77427	6.89329
3162.84570	6.81732
3160.91714	6.73607
3158.98857	6.66687
3157.06001	6.60861
3155.13145	6.54604
3153.20288	6.45649
3151.27432	6.35509
3149.34575	6.28241
3147.41719	6.23709
3145.48862	6.18485
3143.56006	6.11914
3141.63149	6.05570
3139.70293	5.99237
3137.77437	5.92751
3135.84580	5.86438
3133.91724	5.80031
3131.98867	5.72411
3130.06011	5.63900
3128.13154	5.56901
3126.20298	5.50497
3124.27441	5.42477
3122.34585	5.34014
3120.41729	5.26635
3118.48872	5.20115
3116.56016	5.13967
3114.63159	5.07639
3112.70303	5.00650
3110.77446	4.93378
3108.84590	4.86409
3106.91733	4.79955
3104.98877	4.73550
3103.06021	4.66332
3101.13164	4.58671
3099.20308	4.51663
3097.27451	4.45118
3095.34595	4.38712
3093.41738	4.32637
3091.48882	4.26353
3089.56025	4.19571
3087.63169	4.12941
3085.70312	4.06861
3083.77456	4.01032
3081.84600	3.95106
3079.91743	3.89168
3077.98887	3.83491
3076.06030	3.77829
3074.13174	3.71954
3072.20317	3.66194
3070.27461	3.60535
3068.34604	3.54731
3066.41748	3.48935
3064.48892	3.43386
3062.56035	3.38041
3060.63179	3.32749
3058.70322	3.27476
3056.77466	3.22172
3054.84609	3.16715
3052.91753	3.11279
3050.98896	3.06196
3049.06040	3.01309
3047.13184	2.96324
3045.20327	2.91337
3043.27471	2.86490
3041.34614	2.81674
3039.41758	2.76893
3037.48901	2.72315
3035.56045	2.67913
3033.63188	2.63546
3031.70332	2.59067
3029.77476	2.54509
3027.84619	2.50104
3025.91763	2.45859
3023.98906	2.41639
3022.06050	2.37460
3020.13193	2.33401
3018.20337	2.29457
3016.27480	2.25535
3014.34624	2.21562
3012.41768	2.17603
3010.48911	2.13745
3008.56055	2.09998
3006.63198	2.06359
3004.70342	2.02822
3002.77485	1.99367
3000.84629	1.95992
2998.91772	1.92684
2996.98916	1.89384
2995.06060	1.86073
2993.13203	1.82841
2991.20347	1.79742
2989.27490	1.76723
2987.34634	1.73730
2985.41777	1.70773
2983.48921	1.67892
2981.56064	1.65103
2979.63208	1.62357
2977.70352	1.59621
2975.77495	1.56950
2973.84639	1.54336
2971.91782	1.51713
2969.98926	1.49155
2968.06069	1.46740
2966.13213	1.44374
2964.20356	1.41978
2962.27500	1.39574
2960.34644	1.37172
2958.41787	1.34749
2956.48931	1.32332
2954.56074	1.30001
2952.63218	1.27716
2950.70361	1.25401
2948.77505	1.23089
2946.84648	1.20849
2944.91792	1.18706
2942.98936	1.16611
2941.06079	1.14550
2939.13223	1.12518
2937.20366	1.10479
2935.27510	1.08455
2933.34653	1.06504
2931.41797	1.04681
2929.48940	1.02907
2927.56084	1.01040
2925.63228	0.99155
2923.70371	0.97398
2921.77515	0.95711
2919.84658	0.93978
2917.91802	0.92219
2915.98945	0.90499
2914.06089	0.88841
2912.13232	0.87246
2910.20376	0.85679
2908.27520	0.84123
2906.34663	0.82608
2904.41807	0.81155
2902.48950	0.79785
2900.56094	0.78464
2898.63237	0.77140
2896.70381	0.75831
2894.77524	0.74561
2892.84668	0.73321
2890.91812	0.72098
2888.98955	0.70900
2887.06099	0.69761
2885.13242	0.68677
2883.20386	0.67621
2881.27529	0.66603
2879.34673	0.65625
2877.41816	0.64656
2875.48960	0.63673
2873.56104	0.62648
2871.63247	0.61583
2869.70391	0.60504
2867.77534	0.59410
2865.84678	0.58296
2863.91821	0.57174
2861.98965	0.56092
2860.06108	0.55096
2858.13252	0.54147
2856.20396	0.53203
2854.27539	0.52297
2852.34683	0.51428
2850.41826	0.50565
2848.48970	0.49725
2846.56113	0.48933
2844.63257	0.48199
2842.70400	0.47513
2840.77544	0.46850
2838.84687	0.46209
2836.91831	0.45606
2834.98975	0.45019
2833.06118	0.44424
2831.13262	0.43823
2829.20405	0.43225
2827.27549	0.42634
2825.34692	0.42042
2823.41836	0.41444
2821.48979	0.40845
2819.56123	0.40242
2817.63267	0.39640
2815.70410	0.39067
2813.77554	0.38533
2811.84697	0.38004
2809.91841	0.37463
2807.98984	0.36927
2806.06128	0.36414
2804.13271	0.35913
2802.20415	0.35414
2800.27559	0.34916
2798.34702	0.34423
2796.41846	0.33937
2794.48989	0.33462
2792.56133	0.33010
2790.63276	0.32575
2788.70420	0.32144
2786.77563	0.31715
2784.84707	0.31289
2782.91851	0.30872
2780.98994	0.30468
2779.06138	0.30078
2777.13281	0.29697
2775.20425	0.29322
2773.27568	0.28938
2771.34712	0.28550
2769.41855	0.28183
2767.48999	0.27835
2765.56143	0.27492
2763.63286	0.27159
2761.70430	0.26827
2759.77573	0.26483
2757.84717	0.26150
2755.91860	0.25841
2753.99004	0.25541
2752.06147	0.25236
2750.13291	0.24937
2748.20435	0.24662
2746.27578	0.24394
2744.34722	0.24102
2742.41865	0.23808
2740.49009	0.23552
2738.56152	0.23319
2736.63296	0.23076
2734.70439	0.22834
2732.77583	0.22608
2730.84727	0.22376
2728.91870	0.22126
2726.99014	0.21885
2725.06157	0.21666
2723.13301	0.21462
2721.20444	0.21267
2719.27588	0.21064
2717.34731	0.20848
2715.41875	0.20653
2713.49019	0.20480
2711.56162	0.20296
2709.63306	0.20115
2707.70449	0.19954
2705.77593	0.19790
2703.84736	0.19620
2701.91880	0.19455
2699.99023	0.19300
2698.06167	0.19155
2696.13311	0.19017
2694.20454	0.18868
2692.27598	0.18720
2690.34741	0.18602
2688.41885	0.18493
2686.49028	0.18358
2684.56172	0.18224
2682.63315	0.18124
2680.70459	0.18030
2678.77603	0.17913
2676.84746	0.17789
2674.91890	0.17675
2672.99033	0.17564
2671.06177	0.17458
2669.13320	0.17348
2667.20464	0.17233
2665.27607	0.17136
2663.34751	0.17063
2661.41895	0.17002
2659.49038	0.16933
2657.56182	0.16853
2655.63325	0.16763
2653.70469	0.16674
2651.77612	0.16592
2649.84756	0.16521
2647.91899	0.16475
2645.99043	0.16439
2644.06187	0.16379
2642.13330	0.16303
2640.20474	0.16242
2638.27617	0.16208
2636.34761	0.16174
2634.41904	0.16117
2632.49048	0.16059
2630.56191	0.16029
2628.63335	0.16010
2626.70479	0.15983
2624.77622	0.15954
2622.84766	0.15921
2620.91909	0.15885
2618.99053	0.15868
2617.06196	0.15862
2615.13340	0.15851
2613.20483	0.15832
2611.27627	0.15817
2609.34771	0.15808
2607.41914	0.15797
2605.49058	0.15784
2603.56201	0.15782
2601.63345	0.15789
2599.70488	0.15794
2597.77632	0.15798
2595.84775	0.15804
2593.91919	0.15804
2591.99062	0.15796
2590.06206	0.15795
2588.13350	0.15809
2586.20493	0.15832
2584.27637	0.15854
2582.34780	0.15878
2580.41924	0.15912
2578.49067	0.15941
2576.56211	0.15965
2574.63354	0.15992
2572.70498	0.16021
2570.77642	0.16055
2568.84785	0.16094
2566.91929	0.16144
2564.99072	0.16198
2563.06216	0.16229
2561.13359	0.16252
2559.20503	0.16294
2557.27646	0.16339
2555.34790	0.16384
2553.41934	0.16436
2551.49077	0.16491
2549.56221	0.16554
2547.63364	0.16623
2545.70508	0.16681
2543.77651	0.16727
2541.84795	0.16779
2539.91938	0.16836
2537.99082	0.16888
2536.06226	0.16943
2534.13369	0.17009
2532.20513	0.17077
2530.27656	0.17155
2528.34800	0.17244
2526.41943	0.17333
2524.49087	0.17421
2522.56230	0.17501
2520.63374	0.17559
2518.70518	0.17610
2516.77661	0.17678
2514.84805	0.17758
2512.91948	0.17834
2510.99092	0.17906
2509.06235	0.17986
2507.13379	0.18074
2505.20522	0.18158
2503.27666	0.18239
2501.34810	0.18318
2499.41953	0.18398
2497.49097	0.18478
2495.56240	0.18557
2493.63384	0.18642
2491.70527	0.18733
2489.77671	0.18821
2487.84814	0.18895
2485.91958	0.18969
2483.99102	0.19068
2482.06245	0.19175
2480.13389	0.19265
2478.20532	0.19346
2476.27676	0.19427
2474.34819	0.19513
2472.41963	0.19608
2470.49106	0.19695
2468.56250	0.19774
2466.63394	0.19865
2464.70537	0.19965
2462.77681	0.20057
2460.84824	0.20145
2458.91968	0.20243
2456.99111	0.20351
2455.06255	0.20460
2453.13398	0.20565
2451.20542	0.20663
2449.27686	0.20757
2447.34829	0.20854
2445.41973	0.20953
2443.49116	0.21049
2441.56260	0.21147
2439.63403	0.21251
2437.70547	0.21359
2435.77690	0.21462
2433.84834	0.21557
2431.91978	0.21661
2429.99121	0.21772
2428.06265	0.21878
2426.13408	0.21979
2424.20552	0.22080
2422.27695	0.22190
2420.34839	0.22305
2418.41982	0.22411
2416.49126	0.22519
2414.56270	0.22644
2412.63413	0.22773
2410.70557	0.22893
2408.77700	0.23005
2406.84844	0.23118
2404.91987	0.23235
2402.99131	0.23340
2401.06274	0.23439
2399.13418	0.23554
2397.20562	0.23690
2395.27705	0.23828
2393.34849	0.23953
2391.41992	0.24079
2389.49136	0.24216
2387.56279	0.24358
2385.63423	0.24493
2383.70566	0.24629
2381.77710	0.24786
2379.84854	0.24952
2377.91997	0.25102
2375.99141	0.25245
2374.06284	0.25406
2372.13428	0.25587
2370.20571	0.25763
2368.27715	0.25943
2366.34858	0.26168
2364.42002	0.26383
2362.49146	0.26586
2360.56289	0.26769
2358.63433	0.26815
2356.70576	0.26880
2354.77720	0.27122
2352.84863	0.27350
2350.92007	0.27426
2348.99150	0.27420
2347.06294	0.27421
2345.13437	0.27501
2343.20581	0.27723
2341.27725	0.28032
2339.34868	0.28263
2337.42012	0.28375
2335.49155	0.28472
2333.56299	0.28615
2331.63442	0.28825
2329.70586	0.29069
2327.77729	0.29288
2325.84873	0.29472
2323.92017	0.29614
2321.99160	0.29732
2320.06304	0.29873
2318.13447	0.30042
2316.20591	0.30206
2314.27734	0.30360
2312.34878	0.30517
2310.42021	0.30675
2308.49165	0.30834
2306.56309	0.31007
2304.63452	0.31187
2302.70596	0.31369
2300.77739	0.31556
2298.84883	0.31737
2296.92026	0.31907
2294.99170	0.32085
2293.06313	0.32275
2291.13457	0.32461
2289.20601	0.32640
2287.27744	0.32828
2285.34888	0.33030
2283.42031	0.33225
2281.49175	0.33410
2279.56318	0.33603
2277.63462	0.33811
2275.70605	0.34028
2273.77749	0.34242
2271.84893	0.34448
2269.92036	0.34650
2267.99180	0.34855
2266.06323	0.35065
2264.13467	0.35282
2262.20610	0.35501
2260.27754	0.35717
2258.34897	0.35932
2256.42041	0.36141
2254.49185	0.36344
2252.56328	0.36549
2250.63472	0.36770
2248.70615	0.37012
2246.77759	0.37248
2244.84902	0.37464
2242.92046	0.37679
2240.99189	0.37900
2239.06333	0.38128
2237.13477	0.38364
2235.20620	0.38594
2233.27764	0.38813
2231.34907	0.39033
2229.42051	0.39256
2227.49194	0.39476
2225.56338	0.39703
2223.63481	0.39934
2221.70625	0.40151
2219.77769	0.40358
2217.84912	0.40573
2215.92056	0.40793
2213.99199	0.41006
2212.06343	0.41211
2210.13486	0.41418
2208.20630	0.41633
2206.27773	0.41854
2204.34917	0.42071
2202.42061	0.42284
2200.49204	0.42498
2198.56348	0.42705
2196.63491	0.42896
2194.70635	0.43089
2192.77778	0.43288
2190.84922	0.43488
2188.92065	0.43686
2186.99209	0.43873
2185.06353	0.44049
2183.13496	0.44222
2181.20640	0.44387
2179.27783	0.44539
2177.34927	0.44692
2175.42070	0.44856
2173.49214	0.45021
2171.56357	0.45177
2169.63501	0.45325
2167.70645	0.45462
2165.77788	0.45591
2163.84932	0.45715
2161.92075	0.45832
2159.99219	0.45937
2158.06362	0.46032
2156.13506	0.46122
2154.20649	0.46203
2152.27793	0.46284
2150.34937	0.46364
2148.42080	0.46433
2146.49224	0.46481
2144.56367	0.46523
2142.63511	0.46576
2140.70654	0.46627
2138.77798	0.46662
2136.84941	0.46685
2134.92085	0.46699
2132.99229	0.46701
2131.06372	0.46692
2129.13516	0.46675
2127.20659	0.46648
2125.27803	0.46614
2123.34946	0.46581
2121.42090	0.46542
2119.49233	0.46489
2117.56377	0.46428
2115.63521	0.46359
2113.70664	0.46278
2111.77808	0.46190
2109.84951	0.46107
2107.92095	0.46027
2105.99238	0.45929
2104.06382	0.45803
2102.13525	0.45662
2100.20669	0.45532
2098.27812	0.45404
2096.34956	0.45258
2094.42100	0.45095
2092.49243	0.44928
2090.56387	0.44763
2088.63530	0.44592
2086.70674	0.44418
2084.77817	0.44237
2082.84961	0.44046
2080.92104	0.43847
2078.99248	0.43640
2077.06392	0.43422
2075.13535	0.43206
2073.20679	0.42999
2071.27822	0.42787
2069.34966	0.42562
2067.42109	0.42321
2065.49253	0.42078
2063.56396	0.41838
2061.63540	0.41597
2059.70684	0.41355
2057.77827	0.41114
2055.84971	0.40870
2053.92114	0.40608
2051.99258	0.40335
2050.06401	0.40068
2048.13545	0.39808
2046.20688	0.39549
2044.27832	0.39288
2042.34976	0.39020
2040.42119	0.38740
2038.49263	0.38453
2036.56406	0.38167
2034.63550	0.37888
2032.70693	0.37620
2030.77837	0.37350
2028.84980	0.37067
2026.92124	0.36775
2024.99268	0.36486
2023.06411	0.36204
2021.13555	0.35924
2019.20698	0.35647
2017.27842	0.35381
2015.34985	0.35121
2013.42129	0.34848
2011.49272	0.34560
2009.56416	0.34276
2007.63560	0.33997
2005.70703	0.33718
2003.77847	0.33451
2001.84990	0.33201
1999.92134	0.32945
1997.99277	0.32676
1996.06421	0.32409
1994.13564	0.32151
1992.20708	0.31892
1990.27852	0.31631
1988.34995	0.31375
1986.42139	0.31125
1984.49282	0.30879
1982.56426	0.30641
1980.63569	0.30404
1978.70713	0.30174
1976.77856	0.29945
1974.85000	0.29713
1972.92144	0.29487
1970.99287	0.29272
1969.06431	0.29062
1967.13574	0.28852
1965.20718	0.28642
1963.27861	0.28436
1961.35005	0.28241
1959.42148	0.28055
1957.49292	0.27868
1955.56436	0.27677
1953.63579	0.27494
1951.70723	0.27321
1949.77866	0.27161
1947.85010	0.27006
1945.92153	0.26854
1943.99297	0.26705
1942.06440	0.26550
1940.13584	0.26388
1938.20728	0.26231
1936.27871	0.26087
1934.35015	0.25953
1932.42158	0.25828
1930.49302	0.25701
1928.56445	0.25577
1926.63589	0.25468
1924.70732	0.25374
1922.77876	0.25280
1920.85020	0.25174
1918.92163	0.25068
1916.99307	0.24970
1915.06450	0.24874
1913.13594	0.24783
1911.20737	0.24714
1909.27881	0.24653
1907.35024	0.24585
1905.42168	0.24509
1903.49312	0.24443
1901.56455	0.24391
1899.63599	0.24343
1897.70742	0.24299
1895.77886	0.24263
1893.85029	0.24221
1891.92173	0.24164
1889.99316	0.24122
1888.06460	0.24095
1886.13604	0.24070
1884.20747	0.24051
1882.27891	0.24043
1880.35034	0.24034
1878.42178	0.24017
1876.49321	0.24003
1874.56465	0.23998
1872.63608	0.24005
1870.70752	0.24022
1868.77896	0.24062
1866.85039	0.24097
1864.92183	0.24103
1862.99326	0.24111
1861.06470	0.24132
1859.13613	0.24161
1857.20757	0.24183
1855.27900	0.24210
1853.35044	0.24254
1851.42187	0.24315
1849.49331	0.24377
1847.56475	0.24441
1845.63618	0.24516
1843.70762	0.24618
1841.77905	0.24710
1839.85049	0.24761
1837.92192	0.24829
1835.99336	0.24912
1834.06479	0.24993
1832.13623	0.25079
1830.20767	0.25214
1828.27910	0.25375
1826.35054	0.25494
1824.42197	0.25617
1822.49341	0.25740
1820.56484	0.25861
1818.63628	0.26002
1816.70771	0.26164
1814.77915	0.26317
1812.85059	0.26481
1810.92202	0.26687
1808.99346	0.26902
1807.06489	0.27093
1805.13633	0.27277
1803.20776	0.27491
1801.27920	0.27735
1799.35063	0.28011
1797.42207	0.28271
1795.49351	0.28515
1793.56494	0.28784
1791.63638	0.29140
1789.70781	0.29506
1787.77925	0.29782
1785.85068	0.30094
1783.92212	0.30468
1781.99355	0.30863
1780.06499	0.31278
1778.13643	0.31705
1776.20786	0.32094
1774.27930	0.32496
1772.35073	0.33068
1770.42217	0.33735
1768.49360	0.34287
1766.56504	0.34805
1764.63647	0.35334
1762.70791	0.35919
1760.77935	0.36672
1758.85078	0.37381
1756.92222	0.38088
1754.99365	0.38865
1753.06509	0.39557
1751.13652	0.40380
1749.20796	0.41453
1747.27939	0.42509
1745.35083	0.43421
1743.42227	0.44392
1741.49370	0.45465
1739.56514	0.46709
1737.63657	0.47924
1735.70801	0.48958
1733.77944	0.50571
1731.85088	0.52583
1729.92231	0.54154
1727.99375	0.55731
1726.06519	0.57420
1724.13662	0.59270
1722.20806	0.61264
1720.27949	0.63066
1718.35093	0.65161
1716.42236	0.68402
1714.49380	0.71553
1712.56523	0.74049
1710.63667	0.76438
1708.70811	0.78974
1706.77954	0.81835
1704.85098	0.85300
1702.92241	0.88395
1700.99385	0.91391
1699.06528	0.95978
1697.13672	1.00307
1695.20815	1.04738
1693.27959	1.08946
1691.35103	1.12254
1689.42246	1.16125
1687.49390	1.20251
1685.56533	1.24155
1683.63677	1.30323
1681.70820	1.36895
1679.77964	1.41011
1677.85107	1.44920
1675.92251	1.49357
1673.99395	1.54886
1672.06538	1.59827
1670.13682	1.64708
1668.20825	1.71283
1666.27969	1.76493
1664.35112	1.80760
1662.42256	1.86315
1660.49399	1.92971
1658.56543	1.98157
1656.63687	2.02325
1654.70830	2.06137
1652.77974	2.11936
1650.85117	2.17330
1648.92261	2.19119
1646.99404	2.21678
1645.06548	2.24518
1643.13691	2.26594
1641.20835	2.27905
1639.27979	2.28993
1637.35122	2.29488
1635.42266	2.29312
1633.49409	2.28564
1631.56553	2.27157
1629.63696	2.25383
1627.70840	2.22541
1625.77983	2.19420
1623.85127	2.15362
1621.92271	2.10335
1619.99414	2.06082
1618.06558	2.01920
1616.13701	1.95535
1614.20845	1.88990
1612.27988	1.84130
1610.35132	1.79002
1608.42275	1.73413
1606.49419	1.67926
1604.56562	1.62873
1602.63706	1.57961
1600.70850	1.53184
1598.77993	1.48859
1596.85137	1.44854
1594.92280	1.40935
1592.99424	1.37075
1591.06567	1.33536
1589.13711	1.30249
1587.20854	1.27210
1585.27998	1.24426
1583.35142	1.21853
1581.42285	1.19530
1579.49429	1.17555
1577.56572	1.15760
1575.63716	1.13548
1573.70859	1.11674
1571.78003	1.10511
1569.85146	1.09269
1567.92290	1.07863
1565.99434	1.06862
1564.06577	1.06142
1562.13721	1.05588
1560.20864	1.05258
1558.28008	1.05063
1556.35151	1.04917
1554.42295	1.04733
1552.49438	1.04534
1550.56582	1.04235
1548.63726	1.03773
1546.70869	1.03182
1544.78013	1.02366
1542.85156	1.01224
1540.92300	0.99537
1538.99443	0.96980
1537.06587	0.95186
1535.13730	0.93965
1533.20874	0.92299
1531.28018	0.90514
1529.35161	0.89245
1527.42305	0.88056
1525.49448	0.86786
1523.56592	0.85657
1521.63735	0.84579
1519.70879	0.83534
1517.78022	0.82675
1515.85166	0.81648
1513.92310	0.80579
1511.99453	0.79657
1510.06597	0.78792
1508.13740	0.77933
1506.20884	0.76671
1504.28027	0.75651
1502.35171	0.75068
1500.42314	0.74537
1498.49458	0.73963
1496.56602	0.73283
1494.63745	0.72612
1492.70889	0.72088
1490.78032	0.71608
1488.85176	0.71053
1486.92319	0.70537
1484.99463	0.70133
1483.06606	0.69808
1481.13750	0.69520
1479.20894	0.69270
1477.28037	0.69093
1475.35181	0.68978
1473.42324	0.68899
1471.49468	0.68762
1469.56611	0.68553
1467.63755	0.68337
1465.70898	0.68126
1463.78042	0.67931
1461.85186	0.67799
1459.92329	0.67730
1457.99473	0.67719
1456.06616	0.67699
1454.13760	0.67509
1452.20903	0.67258
1450.28047	0.67013
1448.35190	0.66785
1446.42334	0.66547
1444.49478	0.66312
1442.56621	0.66086
1440.63765	0.65852
1438.70908	0.65619
1436.78052	0.65349
1434.85195	0.65039
1432.92339	0.64791
1430.99482	0.64634
1429.06626	0.64546
1427.13770	0.64497
1425.20913	0.64482
1423.28057	0.64515
1421.35200	0.64556
1419.42344	0.64558
1417.49487	0.64504
1415.56631	0.64402
1413.63774	0.64313
1411.70918	0.64284
1409.78062	0.64322
1407.85205	0.64388
1405.92349	0.64460
1403.99492	0.64516
1402.06636	0.64519
1400.13779	0.64470
1398.20923	0.64348
1396.28066	0.64119
1394.35210	0.63784
1392.42354	0.63415
1390.49497	0.63083
1388.56641	0.62751
1386.63784	0.62362
1384.70928	0.61940
1382.78071	0.61534
1380.85215	0.61153
1378.92358	0.60834
1376.99502	0.60599
1375.06646	0.60419
1373.13789	0.60262
1371.20933	0.60145
1369.28076	0.60058
1367.35220	0.59952
1365.42363	0.59818
1363.49507	0.59674
1361.56650	0.59537
1359.63794	0.59410
1357.70937	0.59292
1355.78081	0.59184
1353.85225	0.59090
1351.92368	0.59010
1349.99512	0.58945
1348.06655	0.58881
1346.13799	0.58794
1344.20942	0.58687
1342.28086	0.58582
1340.35229	0.58505
1338.42373	0.58458
1336.49517	0.58415
1334.56660	0.58362
1332.63804	0.58320
1330.70947	0.58307
1328.78091	0.58320
1326.85234	0.58343
1324.92378	0.58372
1322.99521	0.58412
1321.06665	0.58458
1319.13809	0.58492
1317.20952	0.58498
1315.28096	0.58469
1313.35239	0.58414
1311.42383	0.58341
1309.49526	0.58271
1307.56670	0.58208
1305.63813	0.58146
1303.70957	0.58089
1301.78101	0.58037
1299.85244	0.57970
1297.92388	0.57872
1295.99531	0.57745
1294.06675	0.57616
1292.13818	0.57506
1290.20962	0.57402
1288.28105	0.57282
1286.35249	0.57164
1284.42393	0.57076
1282.49536	0.56985
1280.56680	0.56861
1278.63823	0.56732
1276.70967	0.56631
1274.78110	0.56544
1272.85254	0.56453
1270.92397	0.56366
1268.99541	0.56294
1267.06685	0.56234
1265.13828	0.56175
1263.20972	0.56110
1261.28115	0.56036
1259.35259	0.55962
1257.42402	0.55904
1255.49546	0.55881
1253.56689	0.55883
1251.63833	0.55887
1249.70977	0.55886
1247.78120	0.55887
1245.85264	0.55881
1243.92407	0.55851
1241.99551	0.55783
1240.06694	0.55672
1238.13838	0.55521
1236.20981	0.55345
1234.28125	0.55169
1232.35269	0.55005
1230.42412	0.54843
1228.49556	0.54679
1226.56699	0.54516
1224.63843	0.54351
1222.70986	0.54190
1220.78130	0.54048
1218.85273	0.53925
1216.92417	0.53823
1214.99561	0.53727
1213.06704	0.53628
1211.13848	0.53550
1209.20991	0.53498
1207.28135	0.53449
1205.35278	0.53379
1203.42422	0.53290
1201.49565	0.53193
1199.56709	0.53098
1197.63853	0.53017
1195.70996	0.52952
1193.78140	0.52904
1191.85283	0.52869
1189.92427	0.52833
1187.99570	0.52798
1186.06714	0.52768
1184.13857	0.52756
1182.21001	0.52782
1180.28145	0.52844
1178.35288	0.52934
1176.42432	0.53042
1174.49575	0.53140
1172.56719	0.53197
1170.63862	0.53197
1168.71006	0.53162
1166.78149	0.53133
1164.85293	0.53124
1162.92437	0.53104
1160.99580	0.53050
1159.06724	0.52972
1157.13867	0.52899
1155.21011	0.52818
1153.28154	0.52686
1151.35298	0.52513
1149.42441	0.52326
1147.49585	0.52113
1145.56729	0.51864
1143.63872	0.51607
1141.71016	0.51380
1139.78159	0.51188
1137.85303	0.51023
1135.92446	0.50886
1133.99590	0.50776
1132.06733	0.50691
1130.13877	0.50619
1128.21021	0.50545
1126.28164	0.50446
1124.35308	0.50324
1122.42451	0.50229
1120.49595	0.50185
1118.56738	0.50165
1116.63882	0.50157
1114.71025	0.50161
1112.78169	0.50175
1110.85312	0.50200
1108.92456	0.50260
1106.99600	0.50357
1105.06743	0.50460
1103.13887	0.50567
1101.21030	0.50699
1099.28174	0.50884
1097.35317	0.51153
1095.42461	0.51493
1093.49604	0.51856
1091.56748	0.52245
1089.63892	0.52705
1087.71035	0.53261
1085.78179	0.53906
1083.85322	0.54593
1081.92466	0.55228
1079.99609	0.55718
1078.06753	0.56010
1076.13896	0.56080
1074.21040	0.55898
1072.28184	0.55461
1070.35327	0.54854
1068.42471	0.54184
1066.49614	0.53516
1064.56758	0.52889
1062.63901	0.52336
1060.71045	0.51844
1058.78188	0.51398
1056.85332	0.51008
1054.92476	0.50657
1052.99619	0.50341
1051.06763	0.50091
1049.13906	0.49891
1047.21050	0.49702
1045.28193	0.49536
1043.35337	0.49401
1041.42480	0.49289
1039.49624	0.49206
1037.56768	0.49162
1035.63911	0.49137
1033.71055	0.49091
1031.78198	0.49033
1029.85342	0.49001
1027.92485	0.48985
1025.99629	0.48952
1024.06772	0.48934
1022.13916	0.48957
1020.21060	0.48994
1018.28203	0.49046
1016.35347	0.49140
1014.42490	0.49252
1012.49634	0.49351
1010.56777	0.49438
1008.63921	0.49530
1006.71064	0.49643
1004.78208	0.49798
1002.85352	0.50022
1000.92495	0.50315
998.99639	0.50642
997.06782	0.50997
995.13926	0.51395
993.21069	0.51805
991.28213	0.52153
989.35356	0.52377
987.42500	0.52491
985.49644	0.52571
983.56787	0.52653
981.63931	0.52739
979.71074	0.52859
977.78218	0.53038
975.85361	0.53255
973.92505	0.53506
971.99648	0.53806
970.06792	0.54143
968.13936	0.54519
966.21079	0.54950
964.28223	0.55413
962.35366	0.55891
960.42510	0.56390
958.49653	0.56896
956.56797	0.57417
954.63940	0.57979
952.71084	0.58586
950.78228	0.59232
948.85371	0.59890
946.92515	0.60533
944.99658	0.61164
943.06802	0.61788
941.13945	0.62396
939.21089	0.62979
937.28232	0.63562
935.35376	0.64194
933.42520	0.64835
931.49663	0.65414
929.56807	0.65961
927.63950	0.66504
925.71094	0.67033
923.78237	0.67600
921.85381	0.68247
919.92524	0.68916
917.99668	0.69554
916.06812	0.70228
914.13955	0.70997
912.21099	0.71818
910.28242	0.72681
908.35386	0.73589
906.42529	0.74461
904.49673	0.75274
902.56816	0.76099
900.63960	0.76967
898.71104	0.77941
896.78247	0.79054
894.85391	0.80154
892.92534	0.81174
890.99678	0.82193
889.06821	0.83234
887.13965	0.84293
885.21108	0.85394
883.28252	0.86500
881.35396	0.87590
879.42539	0.88743
877.49683	0.89863
875.56826	0.90884
873.63970	0.92045
871.71113	0.93380
869.78257	0.94649
867.85400	0.95797
865.92544	0.96807
863.99687	0.97719
862.06831	0.98841
860.13975	1.00223
858.21118	1.01495
856.28262	1.02517
854.35405	1.03570
852.42549	1.04796
850.49692	1.06139
848.56836	1.07537
846.63979	1.08838
844.71123	1.10015
842.78267	1.11086
840.85410	1.12138
838.92554	1.13382
836.99697	1.14628
835.06841	1.15539
833.13984	1.16325
831.21128	1.17390
829.28271	1.18862
827.35415	1.20568
825.42559	1.22049
823.49702	1.23053
821.56846	1.23722
819.63989	1.24499
817.71133	1.25645
815.78276	1.26917
813.85420	1.28041
811.92563	1.28908
809.99707	1.29837
808.06851	1.31354
806.13994	1.33479
804.21138	1.34780
802.28281	1.34168
800.35425	1.34519
798.42568	1.38681
796.49712	1.43533
794.56855	1.45449
792.63999	1.47583
790.71143	1.50358
788.78286	1.51616
786.85430	1.51649
784.92573	1.48215
782.99717	1.41836
781.06860	1.39593
779.14004	1.46505
777.21147	1.60530
775.28291	1.68349
773.35435	1.66473
771.42578	1.66878
769.49722	1.66892
767.56865	1.68093
765.64009	1.84430
763.71152	4.58227
761.78296	4.57070
759.85439	2.31646
757.92583	1.35929
755.99727	1.22192
754.06870	1.26849
752.14014	1.37395
750.21157	1.36105
748.28301	1.27959
746.35444	1.25489
744.42588	1.22875
742.49731	1.23181
740.56875	1.24550
738.64019	1.03794
736.71162	0.86953
734.78306	0.84697
732.85449	0.85424
730.92593	0.81294
728.99736	0.74675
727.06880	0.76832
725.14023	1.19362
723.21167	4.33927
721.28311	1.37273
719.35454	0.75027
717.42598	0.59631
715.49741	0.51031
713.56885	0.27371
711.64028	-0.01782
709.71172	-0.19334
707.78315	-0.17681
705.85459	-0.17436
703.92603	-0.13558
701.99746	-0.03644
700.06890	0.09917
698.14033	0.14432
696.21177	0.09563
694.28320	0.05280
692.35464	0.02045
690.42607	0.00959
688.49751	-0.01819
686.56895	-0.03079
684.64038	0.02890
682.71182	0.07365
680.78325	0.08951
678.85469	0.14693
676.92612	0.30571
674.99756	0.54375
673.06899	0.43157
671.14043	0.22689
669.21187	0.23221
667.28330	0.39805
665.35474	0.51033
663.42617	0.39972
661.49761	0.44068
659.56904	0.58781
657.64048	0.68402
655.71191	0.55301
653.78335	0.66117
651.85479	1.27729
649.92622	0.58271
647.99766	0.36180
646.06909	0.25467
644.14053	0.21176
642.21196	0.20320
640.28340	0.23507
638.35483	0.34393
636.42627	0.61697
634.49771	3.80699
632.56914	0.76691
630.64058	0.23608
628.71201	0.17643
626.78345	0.24878
624.85488	0.31936
622.92632	0.24799
620.99775	0.14624
619.06919	0.24779
617.14062	0.55989
615.21206	0.53507
613.28350	0.31153
611.35493	0.20177
609.42637	0.18192
607.49780	0.23801
605.56924	0.28265
603.64067	0.20853
601.71211	0.21199
599.78354	0.29429
597.85498	0.22803
595.92642	0.12442
593.99785	0.10285
592.06929	0.12731
590.14072	0.15763
588.21216	0.18640
586.28359	0.21051
584.35503	0.19695
582.42646	0.16019
580.49790	0.17048
578.56934	0.25836
576.64077	0.39999
574.71221	0.39110
572.78364	0.24467
570.85508	0.17855
568.92651	0.19498
566.99795	0.20646
565.06938	0.20629
563.14082	0.21811
561.21226	0.23070
559.28369	0.23215
557.35513	0.20300
555.42656	0.22428
553.49800	0.37678
551.56943	0.41785
549.64087	0.34897
547.71230	0.38411
545.78374	0.49416
543.85518	0.52021
541.92661	0.57041
539.99805	0.95706
538.06948	3.22842
536.14092	3.21685
534.21235	3.20527
532.28379	0.43627
530.35522	0.33258
528.42666	0.31256
526.49810	0.20530
524.56953	0.16735
522.64097	0.23742
520.71240	0.29618
518.78384	0.27389
516.85527	0.24285
514.92671	0.23856
512.99814	0.22818
511.06958	0.17184
509.14102	0.14382
507.21245	0.17575
505.28389	0.19210
503.35532	0.18444
501.42676	0.20170
499.49819	0.25843
