3997.91411	0.07102
3995.98555	0.07161
3994.05698	0.07229
3992.12842	0.07291
3990.19985	0.07343
3988.27129	0.07367
3986.34272	0.07370
3984.41416	0.07390
3982.48560	0.07430
3980.55703	0.07466
3978.62847	0.07484
3976.69990	0.07511
3974.77134	0.07571
3972.84277	0.07614
3970.91421	0.07618
3968.98564	0.07621
3967.05708	0.07616
3965.12852	0.07584
3963.19995	0.07570
3961.27139	0.07616
3959.34282	0.07677
3957.41426	0.07712
3955.48569	0.07725
3953.55713	0.07723
3951.62856	0.07753
3949.70000	0.07862
3947.77144	0.07967
3945.84287	0.07956
3943.91431	0.07945
3941.98574	0.07968
3940.05718	0.07850
3938.12861	0.07684
3936.20005	0.07658
3934.27148	0.07769
3932.34292	0.07937
3930.41436	0.08018
3928.48579	0.07929
3926.55723	0.07866
3924.62866	0.07953
3922.70010	0.07999
3920.77153	0.07931
3918.84297	0.07925
3916.91440	0.07971
3914.98584	0.07888
3913.05728	0.07690
3911.12871	0.07566
3909.20015	0.07582
3907.27158	0.07727
3905.34302	0.08037
3903.41445	0.08436
3901.48589	0.08613
3899.55732	0.08502
3897.62876	0.08253
3895.70020	0.07991
3893.77163	0.07916
3891.84307	0.08074
3889.91450	0.08162
3887.98594	0.08045
3886.05737	0.08063
3884.12881	0.08248
3882.20024	0.08359
3880.27168	0.08391
3878.34312	0.08252
3876.41455	0.08066
3874.48599	0.08151
3872.55742	0.08449
3870.62886	0.08740
3868.70029	0.08848
3866.77173	0.08692
3864.84316	0.08604
3862.91460	0.08639
3860.98604	0.08537
3859.05747	0.08404
3857.12891	0.08477
3855.20034	0.08842
3853.27178	0.09458
3851.34321	0.09622
3849.41465	0.09077
3847.48608	0.08632
3845.55752	0.08544
3843.62896	0.08799
3841.70039	0.09215
3839.77183	0.09623
3837.84326	0.09921
3835.91470	0.09906
3833.98613	0.09688
3832.05757	0.09498
3830.12900	0.09370
3828.20044	0.09349
3826.27187	0.09473
3824.34331	0.09666
3822.41475	0.09950
3820.48618	0.10354
3818.55762	0.10458
3816.62905	0.10329
3814.70049	0.10196
3812.77192	0.09939
3810.84336	0.09754
3808.91479	0.09862
3806.98623	0.10260
3805.05767	0.10633
3803.12910	0.10883
3801.20054	0.11228
3799.27197	0.11343
3797.34341	0.11173
3795.41484	0.11018
3793.48628	0.10843
3791.55771	0.10735
3789.62915	0.10767
3787.70059	0.10911
3785.77202	0.11192
3783.84346	0.11498
3781.91489	0.11685
3779.98633	0.11878
3778.05776	0.12087
3776.12920	0.12126
3774.20063	0.12144
3772.27207	0.12348
3770.34351	0.12743
3768.41494	0.13130
3766.48638	0.13319
3764.55781	0.13421
3762.62925	0.13521
3760.70068	0.13767
3758.77212	0.14238
3756.84355	0.14637
3754.91499	0.14870
3752.98643	0.15308
3751.05786	0.16172
3749.12930	0.16940
3747.20073	0.17033
3745.27217	0.17066
3743.34360	0.17311
3741.41504	0.17469
3739.48647	0.17650
3737.55791	0.18152
3735.62935	0.19048
3733.70078	0.19889
3731.77222	0.20122
3729.84365	0.20174
3727.91509	0.20471
3725.98652	0.21059
3724.05796	0.21769
3722.12939	0.22434
3720.20083	0.22993
3718.27227	0.23415
3716.34370	0.23900
3714.41514	0.24655
3712.48657	0.25875
3710.55801	0.27614
3708.62944	0.29078
3706.70088	0.29951
3704.77231	0.30836
3702.84375	0.32095
3700.91519	0.33842
3698.98662	0.35649
3697.05806	0.37299
3695.12949	0.39158
3693.20093	0.41278
3691.27236	0.43731
3689.34380	0.46872
3687.41523	0.50281
3685.48667	0.52942
3683.55811	0.55299
3681.62954	0.58067
3679.70098	0.61383
3677.77241	0.64969
3675.84385	0.69233
3673.91528	0.74742
3671.98672	0.78927
3670.05815	0.82705
3668.12959	0.87989
3666.20103	0.92552
3664.27246	0.96335
3662.34390	1.00591
3660.41533	1.05321
3658.48677	1.10074
3656.55820	1.15248
3654.62964	1.20998
3652.70107	1.25722
3650.77251	1.29954
3648.84395	1.36063
3646.91538	1.43201
3644.98682	1.47785
3643.05825	1.51223
3641.12969	1.55011
3639.20112	1.59373
3637.27256	1.63845
3635.34399	1.68227
3633.41543	1.72630
3631.48687	1.76837
3629.55830	1.81282
3627.62974	1.87043
3625.70117	1.91915
3623.77261	1.94981
3621.84404	1.98184
3619.91548	2.02147
3617.98691	2.06992
3616.05835	2.11479
3614.12979	2.15044
3612.20122	2.18807
3610.27266	2.22681
3608.34409	2.26593
3606.41553	2.30760
3604.48696	2.34599
3602.55840	2.38038
3600.62983	2.41903
3598.70127	2.46107
3596.77271	2.50056
3594.84414	2.54168
3592.91558	2.58539
3590.98701	2.62440
3589.05845	2.65985
3587.12988	2.70405
3585.20132	2.75222
3583.27275	2.79053
3581.34419	2.82528
3579.41562	2.86435
3577.48706	2.90792
3575.55850	2.95190
3573.62993	2.99530
3571.70137	3.03807
3569.77280	3.08031
3567.84424	3.12447
3565.91567	3.17826
3563.98711	3.23068
3562.05854	3.27043
3560.12998	3.30837
3558.20142	3.35072
3556.27285	3.39499
3554.34429	3.43810
3552.41572	3.48408
3550.48716	3.53261
3548.55859	3.57789
3546.63003	3.62103
3544.70146	3.66777
3542.77290	3.71560
3540.84434	3.76159
3538.91577	3.80996
3536.98721	3.86076
3535.05864	3.91139
3533.13008	3.95762
3531.20151	4.00256
3529.27295	4.05128
3527.34438	4.10096
3525.41582	4.14671
3523.48726	4.19032
3521.55869	4.23596
3519.63013	4.28490
3517.70156	4.33660
3515.77300	4.38507
3513.84443	4.43041
3511.91587	4.47730
3509.98730	4.52688
3508.05874	4.57876
3506.13018	4.62667
3504.20161	4.66931
3502.27305	4.71454
3500.34448	4.76304
3498.41592	4.80968
3496.48735	4.85479
3494.55879	4.90164
3492.63022	4.95423
3490.70166	5.00909
3488.77310	5.05780
3486.84453	5.10347
3484.91597	5.15638
3482.98740	5.21491
3481.05884	5.26968
3479.13027	5.31804
3477.20171	5.36737
3475.27314	5.41507
3473.34458	5.45297
3471.41602	5.49051
3469.48745	5.53585
3467.55889	5.58144
3465.63032	5.62078
3463.70176	5.66461
3461.77319	5.72788
3459.84463	5.80441
3457.91606	5.86100
3455.98750	5.88561
3454.05894	5.91749
3452.13037	5.98356
3450.20181	6.04698
3448.27324	6.07906
3446.34468	6.11197
3444.41611	6.16356
3442.48755	6.21970
3440.55898	6.26293
3438.63042	6.30302
3436.70186	6.35031
3434.77329	6.38967
3432.84473	6.42879
3430.91616	6.47975
3428.98760	6.54097
3427.05903	6.61138
3425.13047	6.69158
3423.20190	6.76154
3421.27334	6.81741
3419.34478	6.87279
3417.41621	6.93455
3415.48765	7.00072
3413.55908	7.05728
3411.63052	7.10110
3409.70195	7.11699
3407.77339	7.13917
3405.84482	7.17245
3403.91626	7.17714
3401.98770	7.19369
3400.05913	7.25708
3398.13057	7.32934
3396.20200	7.37308
3394.27344	7.39208
3392.34487	7.41604
3390.41631	7.48266
3388.48774	7.54288
3386.55918	7.55073
3384.63062	7.55343
3382.70205	7.61121
3380.77349	7.70194
3378.84492	7.75961
3376.91636	7.78326
3374.98779	7.81276
3373.05923	7.89397
3371.13066	7.93800
3369.20210	7.89261
3367.27354	7.83119
3365.34497	7.78675
3363.41641	7.80689
3361.48784	7.90804
3359.55928	8.00145
3357.63071	8.00058
3355.70215	7.95388
3353.77358	7.91724
3351.84502	7.90150
3349.91646	7.87023
3347.98789	7.85730
3346.05933	7.93505
3344.13076	8.07406
3342.20220	8.18747
3340.27363	8.21458
3338.34507	8.19799
3336.41650	8.18061
3334.48794	8.19819
3332.55937	8.23233
3330.63081	8.22049
3328.70225	8.12895
3326.77368	8.02541
3324.84512	8.01929
3322.91655	8.08545
3320.98799	8.11123
3319.05942	8.05782
3317.13086	8.01223
3315.20229	8.03083
3313.27373	8.14631
3311.34517	8.28436
3309.41660	8.31384
3307.48804	8.24812
3305.55947	8.15649
3303.63091	8.12851
3301.70234	8.12934
3299.77378	8.11103
3297.84521	8.10298
3295.91665	8.12126
3293.98809	8.15625
3292.05952	8.19885
3290.13096	8.26486
3288.20239	8.36162
3286.27383	8.43438
3284.34526	8.41241
3282.41670	8.36449
3280.48813	8.34788
3278.55957	8.29416
3276.63101	8.16782
3274.70244	8.10214
3272.77388	8.15362
3270.84531	8.21024
3268.91675	8.19307
3266.98818	8.14110
3265.05962	8.10715
3263.13105	8.04886
3261.20249	8.01987
3259.27393	8.13062
3257.34536	8.33875
3255.41680	8.45732
3253.48823	8.43192
3251.55967	8.35670
3249.63110	8.23560
3247.70254	8.12563
3245.77397	8.08727
3243.84541	8.16460
3241.91685	8.33228
3239.98828	8.40072
3238.05972	8.32032
3236.13115	8.23495
3234.20259	8.21706
3232.27402	8.22957
3230.34546	8.14420
3228.41689	7.98447
3226.48833	7.92340
3224.55977	7.98135
3222.63120	8.09881
3220.70264	8.20461
3218.77407	8.18802
3216.84551	8.07849
3214.91694	7.97994
3212.98838	7.94004
3211.05981	7.96741
3209.13125	7.96601
3207.20269	7.85489
3205.27412	7.75961
3203.34556	7.79573
3201.41699	7.87539
3199.48843	7.86083
3197.55986	7.78466
3195.63130	7.70362
3193.70273	7.65009
3191.77417	7.62280
3189.84561	7.53686
3187.91704	7.41742
3185.98848	7.37766
3184.05991	7.41120
3182.13135	7.41960
3180.20278	7.36450
3178.27422	7.26910
3176.34565	7.17827
3174.41709	7.14696
3172.48853	7.16350
3170.55996	7.16980
3168.63140	7.13820
3166.70283	7.05686
3164.77427	6.95068
3162.84570	6.86935
3160.91714	6.80604
3158.98857	6.73149
3157.06001	6.65775
3155.13145	6.60076
3153.20288	6.53115
3151.27432	6.44848
3149.34575	6.38644
3147.41719	6.32401
3145.48862	6.23446
3143.56006	6.14422
3141.63149	6.08439
3139.70293	6.03517
3137.77437	5.96744
3135.84580	5.88997
3133.91724	5.80941
3131.98867	5.73407
3130.06011	5.67481
3128.13154	5.61150
3126.20298	5.53505
3124.27441	5.46244
3122.34585	5.39238
3120.41729	5.31780
3118.48872	5.24397
3116.56016	5.17008
3114.63159	5.09243
3112.70303	5.02001
3110.77446	4.95629
3108.84590	4.89275
3106.91733	4.82662
3104.98877	4.76102
3103.06021	4.69448
3101.13164	4.62135
3099.20308	4.54906
3097.27451	4.48460
3095.34595	4.41978
3093.41738	4.35267
3091.48882	4.29019
3089.56025	4.23233
3087.63169	4.17121
3085.70312	4.10455
3083.77456	4.03695
3081.84600	3.97132
3079.91743	3.90931
3077.98887	3.85076
3076.06030	3.79212
3074.13174	3.73206
3072.20317	3.67348
3070.27461	3.61647
3068.34604	3.55891
3066.41748	3.50111
3064.48892	3.44292
3062.56035	3.38446
3060.63179	3.32884
3058.70322	3.27574
3056.77466	3.22174
3054.84609	3.16775
3052.91753	3.11655
3050.98896	3.06709
3049.06040	3.01622
3047.13184	2.96431
3045.20327	2.91478
3043.27471	2.86777
3041.34614	2.82034
3039.41758	2.77246
3037.48901	2.72567
3035.56045	2.67992
3033.63188	2.63467
3031.70332	2.58943
3029.77476	2.54485
3027.84619	2.50148
3025.91763	2.45849
3023.98906	2.41539
3022.06050	2.37295
3020.13193	2.33235
3018.20337	2.29319
3016.27480	2.25390
3014.34624	2.21427
3012.41768	2.17533
3010.48911	2.13737
3008.56055	2.10009
3006.63198	2.06341
3004.70342	2.02727
3002.77485	1.99172
3000.84629	1.95718
2998.91772	1.92351
2996.98916	1.89007
2995.06060	1.85717
2993.13203	1.82507
2991.20347	1.79337
2989.27490	1.76202
2987.34634	1.73099
2985.41777	1.70056
2983.48921	1.67134
2981.56064	1.64305
2979.63208	1.61495
2977.70352	1.58709
2975.77495	1.55947
2973.84639	1.53213
2971.91782	1.50564
2969.98926	1.47988
2968.06069	1.45444
2966.13213	1.42915
2964.20356	1.40369
2962.27500	1.37840
2960.34644	1.35387
2958.41787	1.32969
2956.48931	1.30571
2954.56074	1.28235
2952.63218	1.25936
2950.70361	1.23645
2948.77505	1.21362
2946.84648	1.19102
2944.91792	1.16919
2942.98936	1.14808
2941.06079	1.12740
2939.13223	1.10694
2937.20366	1.08633
2935.27510	1.06605
2933.34653	1.04677
2931.41797	1.02801
2929.48940	1.00950
2927.56084	0.99141
2925.63228	0.97345
2923.70371	0.95561
2921.77515	0.93808
2919.84658	0.92106
2917.91802	0.90466
2915.98945	0.88840
2914.06089	0.87194
2912.13232	0.85582
2910.20376	0.84075
2908.27520	0.82638
2906.34663	0.81203
2904.41807	0.79787
2902.48950	0.78429
2900.56094	0.77107
2898.63237	0.75783
2896.70381	0.74476
2894.77524	0.73204
2892.84668	0.71961
2890.91812	0.70779
2888.98955	0.69656
2887.06099	0.68517
2885.13242	0.67386
2883.20386	0.66320
2881.27529	0.65278
2879.34673	0.64254
2877.41816	0.63266
2875.48960	0.62262
2873.56104	0.61210
2871.63247	0.60131
2869.70391	0.59055
2867.77534	0.58012
2865.84678	0.56991
2863.91821	0.55966
2861.98965	0.54942
2860.06108	0.53938
2858.13252	0.52986
2856.20396	0.52107
2854.27539	0.51268
2852.34683	0.50432
2850.41826	0.49604
2848.48970	0.48764
2846.56113	0.47927
2844.63257	0.47170
2842.70400	0.46508
2840.77544	0.45882
2838.84687	0.45255
2836.91831	0.44647
2834.98975	0.44072
2833.06118	0.43510
2831.13262	0.42948
2829.20405	0.42372
2827.27549	0.41777
2825.34692	0.41185
2823.41836	0.40602
2821.48979	0.40025
2819.56123	0.39450
2817.63267	0.38863
2815.70410	0.38282
2813.77554	0.37722
2811.84697	0.37173
2809.91841	0.36646
2807.98984	0.36141
2806.06128	0.35636
2804.13271	0.35130
2802.20415	0.34633
2800.27559	0.34131
2798.34702	0.33628
2796.41846	0.33155
2794.48989	0.32714
2792.56133	0.32278
2790.63276	0.31839
2788.70420	0.31407
2786.77563	0.30995
2784.84707	0.30596
2782.91851	0.30184
2780.98994	0.29764
2779.06138	0.29366
2777.13281	0.28991
2775.20425	0.28619
2773.27568	0.28249
2771.34712	0.27880
2769.41855	0.27519
2767.48999	0.27171
2765.56143	0.26830
2763.63286	0.26487
2761.70430	0.26145
2759.77573	0.25821
2757.84717	0.25520
2755.91860	0.25224
2753.99004	0.24931
2752.06147	0.24651
2750.13291	0.24381
2748.20435	0.24101
2746.27578	0.23812
2744.34722	0.23536
2742.41865	0.23272
2740.49009	0.23009
2738.56152	0.22754
2736.63296	0.22508
2734.70439	0.22272
2732.77583	0.22049
2730.84727	0.21817
2728.91870	0.21569
2726.99014	0.21335
2725.06157	0.21131
2723.13301	0.20931
2721.20444	0.20719
2719.27588	0.20523
2717.34731	0.20352
2715.41875	0.20174
2713.49019	0.19987
2711.56162	0.19822
2709.63306	0.19670
2707.70449	0.19488
2705.77593	0.19285
2703.84736	0.19101
2701.91880	0.18955
2699.99023	0.18830
2698.06167	0.18694
2696.13311	0.18533
2694.20454	0.18371
2692.27598	0.18240
2690.34741	0.18132
2688.41885	0.18025
2686.49028	0.17908
2684.56172	0.17779
2682.63315	0.17660
2680.70459	0.17556
2678.77603	0.17461
2676.84746	0.17362
2674.91890	0.17254
2672.99033	0.17145
2671.06177	0.17037
2669.13320	0.16937
2667.20464	0.16853
2665.27607	0.16772
2663.34751	0.16678
2661.41895	0.16585
2659.49038	0.16515
2657.56182	0.16457
2655.63325	0.16386
2653.70469	0.16306
2651.77612	0.16226
2649.84756	0.16158
2647.91899	0.16105
2645.99043	0.16060
2644.06187	0.16018
2642.13330	0.15971
2640.20474	0.15916
2638.27617	0.15863
2636.34761	0.15820
2634.41904	0.15784
2632.49048	0.15745
2630.56191	0.15701
2628.63335	0.15661
2626.70479	0.15628
2624.77622	0.15589
2622.84766	0.15553
2620.91909	0.15534
2618.99053	0.15527
2617.06196	0.15523
2615.13340	0.15518
2613.20483	0.15500
2611.27627	0.15465
2609.34771	0.15441
2607.41914	0.15447
2605.49058	0.15464
2603.56201	0.15470
2601.63345	0.15472
2599.70488	0.15476
2597.77632	0.15477
2595.84775	0.15478
2593.91919	0.15485
2591.99062	0.15496
2590.06206	0.15511
2588.13350	0.15538
2586.20493	0.15564
2584.27637	0.15584
2582.34780	0.15612
2580.41924	0.15639
2578.49067	0.15660
2576.56211	0.15684
2574.63354	0.15724
2572.70498	0.15775
2570.77642	0.15814
2568.84785	0.15846
2566.91929	0.15891
2564.99072	0.15938
2563.06216	0.15975
2561.13359	0.16013
2559.20503	0.16056
2557.27646	0.16103
2555.34790	0.16148
2553.41934	0.16196
2551.49077	0.16258
2549.56221	0.16331
2547.63364	0.16402
2545.70508	0.16461
2543.77651	0.16513
2541.84795	0.16574
2539.91938	0.16644
2537.99082	0.16705
2536.06226	0.16764
2534.13369	0.16832
2532.20513	0.16900
2530.27656	0.16967
2528.34800	0.17040
2526.41943	0.17118
2524.49087	0.17195
2522.56230	0.17272
2520.63374	0.17352
2518.70518	0.17436
2516.77661	0.17521
2514.84805	0.17602
2512.91948	0.17681
2510.99092	0.17768
2509.06235	0.17858
2507.13379	0.17936
2505.20522	0.18004
2503.27666	0.18079
2501.34810	0.18162
2499.41953	0.18241
2497.49097	0.18318
2495.56240	0.18409
2493.63384	0.18511
2491.70527	0.18602
2489.77671	0.18681
2487.84814	0.18767
2485.91958	0.18864
2483.99102	0.18969
2482.06245	0.19074
2480.13389	0.19162
2478.20532	0.19238
2476.27676	0.19320
2474.34819	0.19409
2472.41963	0.19507
2470.49106	0.19613
2468.56250	0.19713
2466.63394	0.19811
2464.70537	0.19905
2462.77681	0.19994
2460.84824	0.20084
2458.91968	0.20174
2456.99111	0.20267
2455.06255	0.20366
2453.13398	0.20466
2451.20542	0.20568
2449.27686	0.20676
2447.34829	0.20773
2445.41973	0.20864
2443.49116	0.20966
2441.56260	0.21085
2439.63403	0.21208
2437.70547	0.21324
2435.77690	0.21427
2433.84834	0.21519
2431.91978	0.21614
2429.99121	0.21719
2428.06265	0.21831
2426.13408	0.21941
2424.20552	0.22043
2422.27695	0.22144
2420.34839	0.22258
2418.41982	0.22387
2416.49126	0.22514
2414.56270	0.22626
2412.63413	0.22734
2410.70557	0.22842
2408.77700	0.22951
2406.84844	0.23073
2404.91987	0.23213
2402.99131	0.23345
2401.06274	0.23464
2399.13418	0.23577
2397.20562	0.23691
2395.27705	0.23813
2393.34849	0.23943
2391.41992	0.24079
2389.49136	0.24230
2387.56279	0.24413
2385.63423	0.24652
2383.70566	0.24986
2381.77710	0.25416
2379.84854	0.25922
2377.91997	0.26498
2375.99141	0.27156
2374.06284	0.27916
2372.13428	0.28778
2370.20571	0.29726
2368.27715	0.30786
2366.34858	0.31870
2364.42002	0.32700
2362.49146	0.33188
2360.56289	0.33456
2358.63433	0.33540
2356.70576	0.33377
2354.77720	0.32894
2352.84863	0.32149
2350.92007	0.31341
2348.99150	0.30845
2347.06294	0.30893
2345.13437	0.31560
2343.20581	0.32534
2341.27725	0.33112
2339.34868	0.33234
2337.42012	0.33216
2335.49155	0.33190
2333.56299	0.33179
2331.63442	0.33246
2329.70586	0.33349
2327.77729	0.33352
2325.84873	0.33240
2323.92017	0.33100
2321.99160	0.32955
2320.06304	0.32769
2318.13447	0.32572
2316.20591	0.32442
2314.27734	0.32411
2312.34878	0.32436
2310.42021	0.32460
2308.49165	0.32451
2306.56309	0.32412
2304.63452	0.32376
2302.70596	0.32382
2300.77739	0.32440
2298.84883	0.32523
2296.92026	0.32617
2294.99170	0.32723
2293.06313	0.32834
2291.13457	0.32936
2289.20601	0.33038
2287.27744	0.33149
2285.34888	0.33260
2283.42031	0.33395
2281.49175	0.33579
2279.56318	0.33795
2277.63462	0.34018
2275.70605	0.34250
2273.77749	0.34478
2271.84893	0.34687
2269.92036	0.34884
2267.99180	0.35096
2266.06323	0.35320
2264.13467	0.35537
2262.20610	0.35742
2260.27754	0.35943
2258.34897	0.36141
2256.42041	0.36331
2254.49185	0.36523
2252.56328	0.36733
2250.63472	0.36947
2248.70615	0.37150
2246.77759	0.37358
2244.84902	0.37577
2242.92046	0.37799
2240.99189	0.38018
2239.06333	0.38233
2237.13477	0.38445
2235.20620	0.38664
2233.27764	0.38890
2231.34907	0.39111
2229.42051	0.39332
2227.49194	0.39564
2225.56338	0.39794
2223.63481	0.40013
2221.70625	0.40228
2219.77769	0.40446
2217.84912	0.40661
2215.92056	0.40879
2213.99199	0.41113
2212.06343	0.41350
2210.13486	0.41565
2208.20630	0.41771
2206.27773	0.41982
2204.34917	0.42185
2202.42061	0.42385
2200.49204	0.42592
2198.56348	0.42796
2196.63491	0.42995
2194.70635	0.43196
2192.77778	0.43393
2190.84922	0.43596
2188.92065	0.43803
2186.99209	0.43990
2185.06353	0.44151
2183.13496	0.44309
2181.20640	0.44478
2179.27783	0.44662
2177.34927	0.44845
2175.42070	0.45009
2173.49214	0.45159
2171.56357	0.45300
2169.63501	0.45431
2167.70645	0.45563
2165.77788	0.45700
2163.84932	0.45833
2161.92075	0.45952
2159.99219	0.46062
2158.06362	0.46169
2156.13506	0.46260
2154.20649	0.46337
2152.27793	0.46411
2150.34937	0.46484
2148.42080	0.46555
2146.49224	0.46622
2144.56367	0.46675
2142.63511	0.46714
2140.70654	0.46743
2138.77798	0.46768
2136.84941	0.46785
2134.92085	0.46794
2132.99229	0.46796
2131.06372	0.46795
2129.13516	0.46792
2127.20659	0.46777
2125.27803	0.46743
2123.34946	0.46696
2121.42090	0.46652
2119.49233	0.46603
2117.56377	0.46537
2115.63521	0.46459
2113.70664	0.46375
2111.77808	0.46290
2109.84951	0.46200
2107.92095	0.46097
2105.99238	0.45981
2104.06382	0.45857
2102.13525	0.45728
2100.20669	0.45595
2098.27812	0.45455
2096.34956	0.45304
2094.42100	0.45143
2092.49243	0.44982
2090.56387	0.44825
2088.63530	0.44654
2086.70674	0.44466
2084.77817	0.44274
2082.84961	0.44086
2080.92104	0.43895
2078.99248	0.43689
2077.06392	0.43471
2075.13535	0.43253
2073.20679	0.43032
2071.27822	0.42804
2069.34966	0.42576
2067.42109	0.42352
2065.49253	0.42134
2063.56396	0.41901
2061.63540	0.41647
2059.70684	0.41393
2057.77827	0.41145
2055.84971	0.40890
2053.92114	0.40620
2051.99258	0.40353
2050.06401	0.40095
2048.13545	0.39828
2046.20688	0.39554
2044.27832	0.39297
2042.34976	0.39050
2040.42119	0.38779
2038.49263	0.38479
2036.56406	0.38177
2034.63550	0.37890
2032.70693	0.37614
2030.77837	0.37343
2028.84980	0.37071
2026.92124	0.36794
2024.99268	0.36514
2023.06411	0.36231
2021.13555	0.35950
2019.20698	0.35686
2017.27842	0.35427
2015.34985	0.35139
2013.42129	0.34841
2011.49272	0.34553
2009.56416	0.34273
2007.63560	0.34001
2005.70703	0.33728
2003.77847	0.33442
2001.84990	0.33164
1999.92134	0.32912
1997.99277	0.32663
1996.06421	0.32410
1994.13564	0.32179
1992.20708	0.31962
1990.27852	0.31701
1988.34995	0.31409
1986.42139	0.31126
1984.49282	0.30859
1982.56426	0.30612
1980.63569	0.30388
1978.70713	0.30170
1976.77856	0.29946
1974.85000	0.29713
1972.92144	0.29484
1970.99287	0.29281
1969.06431	0.29106
1967.13574	0.28925
1965.20718	0.28696
1963.27861	0.28457
1961.35005	0.28253
1959.42148	0.28068
1957.49292	0.27881
1955.56436	0.27697
1953.63579	0.27514
1951.70723	0.27325
1949.77866	0.27148
1947.85010	0.27001
1945.92153	0.26881
1943.99297	0.26774
1942.06440	0.26640
1940.13584	0.26445
1938.20728	0.26245
1936.27871	0.26086
1934.35015	0.25949
1932.42158	0.25827
1930.49302	0.25713
1928.56445	0.25601
1926.63589	0.25497
1924.70732	0.25431
1922.77876	0.25390
1920.85020	0.25312
1918.92163	0.25225
1916.99307	0.25123
1915.06450	0.24968
1913.13594	0.24832
1911.20737	0.24772
1909.27881	0.24742
1907.35024	0.24675
1905.42168	0.24571
1903.49312	0.24478
1901.56455	0.24409
1899.63599	0.24352
1897.70742	0.24314
1895.77886	0.24299
1893.85029	0.24276
1891.92173	0.24248
1889.99316	0.24259
1888.06460	0.24245
1886.13604	0.24175
1884.20747	0.24111
1882.27891	0.24065
1880.35034	0.24042
1878.42178	0.24036
1876.49321	0.24032
1874.56465	0.24032
1872.63608	0.24073
1870.70752	0.24198
1868.77896	0.24373
1866.85039	0.24395
1864.92183	0.24267
1862.99326	0.24186
1861.06470	0.24189
1859.13613	0.24224
1857.20757	0.24248
1855.27900	0.24272
1853.35044	0.24306
1851.42187	0.24365
1849.49331	0.24464
1847.56475	0.24608
1845.63618	0.24776
1843.70762	0.24897
1841.77905	0.24888
1839.85049	0.24852
1837.92192	0.24911
1835.99336	0.25011
1834.06479	0.25105
1832.13623	0.25254
1830.20767	0.25505
1828.27910	0.25698
1826.35054	0.25761
1824.42197	0.25837
1822.49341	0.25900
1820.56484	0.25964
1818.63628	0.26086
1816.70771	0.26254
1814.77915	0.26425
1812.85059	0.26636
1810.92202	0.26896
1808.99346	0.27110
1807.06489	0.27264
1805.13633	0.27427
1803.20776	0.27671
1801.27920	0.27993
1799.35063	0.28308
1797.42207	0.28543
1795.49351	0.28793
1793.56494	0.29152
1791.63638	0.29573
1789.70781	0.29829
1787.77925	0.29971
1785.85068	0.30249
1783.92212	0.30648
1781.99355	0.31086
1780.06499	0.31527
1778.13643	0.31943
1776.20786	0.32363
1774.27930	0.32905
1772.35073	0.33637
1770.42217	0.34281
1768.49360	0.34698
1766.56504	0.35108
1764.63647	0.35590
1762.70791	0.36207
1760.77935	0.36995
1758.85078	0.37697
1756.92222	0.38408
1754.99365	0.39182
1753.06509	0.39912
1751.13652	0.40866
1749.20796	0.42059
1747.27939	0.43097
1745.35083	0.43944
1743.42227	0.44871
1741.49370	0.45919
1739.56514	0.47151
1737.63657	0.48376
1735.70801	0.49496
1733.77944	0.51247
1731.85088	0.53223
1729.92231	0.54651
1727.99375	0.56117
1726.06519	0.57758
1724.13662	0.59622
1722.20806	0.61649
1720.27949	0.63548
1718.35093	0.65881
1716.42236	0.69326
1714.49380	0.72347
1712.56523	0.74636
1710.63667	0.76927
1708.70811	0.79496
1706.77954	0.82491
1704.85098	0.86069
1702.92241	0.89180
1700.99385	0.92201
1699.06528	0.96841
1697.13672	1.01114
1695.20815	1.05309
1693.27959	1.09252
1691.35103	1.12415
1689.42246	1.16202
1687.49390	1.20278
1685.56533	1.24203
1683.63677	1.30280
1681.70820	1.36504
1679.77964	1.40316
1677.85107	1.44001
1675.92251	1.48271
1673.99395	1.53576
1672.06538	1.58339
1670.13682	1.63072
1668.20825	1.69224
1666.27969	1.74042
1664.35112	1.78144
1662.42256	1.83420
1660.49399	1.89392
1658.56543	1.93949
1656.63687	1.97738
1654.70830	2.01408
1652.77974	2.07329
1650.85117	2.12716
1648.92261	2.14487
1646.99404	2.17105
1645.06548	2.19983
1643.13691	2.21960
1641.20835	2.23262
1639.27979	2.24561
1637.35122	2.25495
1635.42266	2.25516
1633.49409	2.24550
1631.56553	2.23269
1629.63696	2.21930
1627.70840	2.19440
1625.77983	2.16383
1623.85127	2.12474
1621.92271	2.07690
1619.99414	2.03547
1618.06558	1.99523
1616.13701	1.93348
1614.20845	1.86838
1612.27988	1.82027
1610.35132	1.77134
1608.42275	1.71810
1606.49419	1.66521
1604.56562	1.61674
1602.63706	1.56961
1600.70850	1.52275
1598.77993	1.47912
1596.85137	1.43833
1594.92280	1.39920
1592.99424	1.36153
1591.06567	1.32691
1589.13711	1.29396
1587.20854	1.26297
1585.27998	1.23457
1583.35142	1.20805
1581.42285	1.18379
1579.49429	1.16381
1577.56572	1.14690
1575.63716	1.12471
1573.70859	1.10313
1571.78003	1.08936
1569.85146	1.07585
1567.92290	1.05985
1565.99434	1.04711
1564.06577	1.03724
1562.13721	1.02982
1560.20864	1.02581
1558.28008	1.02038
1556.35151	1.01218
1554.42295	1.00558
1552.49438	0.99939
1550.56582	0.99291
1548.63726	0.98525
1546.70869	0.97760
1544.78013	0.97029
1542.85156	0.96239
1540.92300	0.95026
1538.99443	0.92673
1537.06587	0.90849
1535.13730	0.89782
1533.20874	0.88440
1531.28018	0.86884
1529.35161	0.85772
1527.42305	0.84836
1525.49448	0.83851
1523.56592	0.82991
1521.63735	0.82186
1519.70879	0.81238
1517.78022	0.80364
1515.85166	0.79398
1513.92310	0.78412
1511.99453	0.77646
1510.06597	0.77105
1508.13740	0.76730
1506.20884	0.75741
1504.28027	0.74463
1502.35171	0.73761
1500.42314	0.73318
1498.49458	0.72933
1496.56602	0.72392
1494.63745	0.71732
1492.70889	0.71262
1490.78032	0.70990
1488.85176	0.70650
1486.92319	0.70104
1484.99463	0.69583
1483.06606	0.69217
1481.13750	0.68948
1479.20894	0.68719
1477.28037	0.68579
1475.35181	0.68549
1473.42324	0.68542
1471.49468	0.68309
1469.56611	0.67887
1467.63755	0.67568
1465.70898	0.67400
1463.78042	0.67242
1461.85186	0.67066
1459.92329	0.67044
1457.99473	0.67184
1456.06616	0.67052
1454.13760	0.66569
1452.20903	0.66203
1450.28047	0.65964
1448.35190	0.65763
1446.42334	0.65496
1444.49478	0.65202
1442.56621	0.64959
1440.63765	0.64759
1438.70908	0.64619
1436.78052	0.64492
1434.85195	0.64243
1432.92339	0.63982
1430.99482	0.63832
1429.06626	0.63739
1427.13770	0.63650
1425.20913	0.63612
1423.28057	0.63619
1421.35200	0.63632
1419.42344	0.63670
1417.49487	0.63607
1415.56631	0.63383
1413.63774	0.63192
1411.70918	0.63086
1409.78062	0.63035
1407.85205	0.63022
1405.92349	0.63060
1403.99492	0.63080
1402.06636	0.63012
1400.13779	0.62935
1398.20923	0.62865
1396.28066	0.62719
1394.35210	0.62420
1392.42354	0.62007
1390.49497	0.61645
1388.56641	0.61373
1386.63784	0.61083
1384.70928	0.60727
1382.78071	0.60388
1380.85215	0.60101
1378.92358	0.59864
1376.99502	0.59700
1375.06646	0.59606
1373.13789	0.59480
1371.20933	0.59320
1369.28076	0.59215
1367.35220	0.59128
1365.42363	0.59030
1363.49507	0.58955
1361.56650	0.58837
1359.63794	0.58656
1357.70937	0.58503
1355.78081	0.58389
1353.85225	0.58291
1351.92368	0.58214
1349.99512	0.58145
1348.06655	0.58061
1346.13799	0.57974
1344.20942	0.57903
1342.28086	0.57860
1340.35229	0.57849
1338.42373	0.57796
1336.49517	0.57666
1334.56660	0.57540
1332.63804	0.57459
1330.70947	0.57413
1328.78091	0.57389
1326.85234	0.57381
1324.92378	0.57379
1322.99521	0.57386
1321.06665	0.57416
1319.13809	0.57450
1317.20952	0.57436
1315.28096	0.57382
1313.35239	0.57316
1311.42383	0.57231
1309.49526	0.57142
1307.56670	0.57058
1305.63813	0.56975
1303.70957	0.56890
1301.78101	0.56804
1299.85244	0.56714
1297.92388	0.56614
1295.99531	0.56497
1294.06675	0.56372
1292.13818	0.56264
1290.20962	0.56173
1288.28105	0.56075
1286.35249	0.55974
1284.42393	0.55884
1282.49536	0.55796
1280.56680	0.55692
1278.63823	0.55581
1276.70967	0.55484
1274.78110	0.55412
1272.85254	0.55356
1270.92397	0.55311
1268.99541	0.55263
1267.06685	0.55198
1265.13828	0.55127
1263.20972	0.55059
1261.28115	0.54996
1259.35259	0.54954
1257.42402	0.54920
1255.49546	0.54889
1253.56689	0.54872
1251.63833	0.54868
1249.70977	0.54865
1247.78120	0.54858
1245.85264	0.54844
1243.92407	0.54813
1241.99551	0.54765
1240.06694	0.54690
1238.13838	0.54570
1236.20981	0.54424
1234.28125	0.54274
1232.35269	0.54124
1230.42412	0.53978
1228.49556	0.53841
1226.56699	0.53718
1224.63843	0.53607
1222.70986	0.53502
1220.78130	0.53403
1218.85273	0.53308
1216.92417	0.53221
1214.99561	0.53132
1213.06704	0.53049
1211.13848	0.52984
1209.20991	0.52914
1207.28135	0.52827
1205.35278	0.52740
1203.42422	0.52669
1201.49565	0.52602
1199.56709	0.52528
1197.63853	0.52447
1195.70996	0.52383
1193.78140	0.52344
1191.85283	0.52306
1189.92427	0.52271
1187.99570	0.52252
1186.06714	0.52223
1184.13857	0.52176
1182.21001	0.52153
1180.28145	0.52187
1178.35288	0.52267
1176.42432	0.52369
1174.49575	0.52460
1172.56719	0.52508
1170.63862	0.52527
1168.71006	0.52551
1166.78149	0.52565
1164.85293	0.52551
1162.92437	0.52529
1160.99580	0.52503
1159.06724	0.52449
1157.13867	0.52381
1155.21011	0.52302
1153.28154	0.52184
1151.35298	0.52024
1149.42441	0.51834
1147.49585	0.51606
1145.56729	0.51348
1143.63872	0.51093
1141.71016	0.50865
1139.78159	0.50658
1137.85303	0.50481
1135.92446	0.50339
1133.99590	0.50210
1132.06733	0.50095
1130.13877	0.50000
1128.21021	0.49918
1126.28164	0.49842
1124.35308	0.49759
1122.42451	0.49657
1120.49595	0.49553
1118.56738	0.49483
1116.63882	0.49453
1114.71025	0.49456
1112.78169	0.49486
1110.85312	0.49529
1108.92456	0.49590
1106.99600	0.49679
1105.06743	0.49785
1103.13887	0.49905
1101.21030	0.50059
1099.28174	0.50265
1097.35317	0.50516
1095.42461	0.50807
1093.49604	0.51154
1091.56748	0.51561
1089.63892	0.52037
1087.71035	0.52614
1085.78179	0.53266
1083.85322	0.53914
1081.92466	0.54517
1079.99609	0.55035
1078.06753	0.55376
1076.13896	0.55470
1074.21040	0.55288
1072.28184	0.54864
1070.35327	0.54279
1068.42471	0.53615
1066.49614	0.52963
1064.56758	0.52358
1062.63901	0.51782
1060.71045	0.51260
1058.78188	0.50819
1056.85332	0.50436
1054.92476	0.50083
1052.99619	0.49758
1051.06763	0.49480
1049.13906	0.49270
1047.21050	0.49124
1045.28193	0.49014
1043.35337	0.48913
1041.42480	0.48810
1039.49624	0.48716
1037.56768	0.48647
1035.63911	0.48604
1033.71055	0.48575
1031.78198	0.48548
1029.85342	0.48521
1027.92485	0.48501
1025.99629	0.48488
1024.06772	0.48488
1022.13916	0.48517
1020.21060	0.48583
1018.28203	0.48678
1016.35347	0.48764
1014.42490	0.48822
1012.49634	0.48881
1010.56777	0.48977
1008.63921	0.49116
1006.71064	0.49285
1004.78208	0.49477
1002.85352	0.49694
1000.92495	0.49948
998.99639	0.50265
997.06782	0.50668
995.13926	0.51116
993.21069	0.51519
991.28213	0.51827
989.35356	0.52064
987.42500	0.52244
985.49644	0.52357
983.56787	0.52423
981.63931	0.52487
979.71074	0.52597
977.78218	0.52780
975.85361	0.53027
973.92505	0.53315
971.99648	0.53624
970.06792	0.53947
968.13936	0.54307
966.21079	0.54717
964.28223	0.55169
962.35366	0.55656
960.42510	0.56166
958.49653	0.56700
956.56797	0.57278
954.63940	0.57893
952.71084	0.58492
950.78228	0.59071
948.85371	0.59678
946.92515	0.60328
944.99658	0.61007
943.06802	0.61682
941.13945	0.62303
939.21089	0.62866
937.28232	0.63409
935.35376	0.63949
933.42520	0.64499
931.49663	0.65058
929.56807	0.65606
927.63950	0.66141
925.71094	0.66725
923.78237	0.67408
921.85381	0.68116
919.92524	0.68774
917.99668	0.69425
916.06812	0.70138
914.13955	0.70915
912.21099	0.71673
910.28242	0.72379
908.35386	0.73162
906.42529	0.74103
904.49673	0.75099
902.56816	0.76098
900.63960	0.77071
898.71104	0.77959
896.78247	0.78862
894.85391	0.79835
892.92534	0.80835
890.99678	0.81892
889.06821	0.82997
887.13965	0.84077
885.21108	0.85105
883.28252	0.86105
881.35396	0.87197
879.42539	0.88484
877.49683	0.89790
875.56826	0.90910
873.63970	0.91959
871.71113	0.93142
869.78257	0.94365
867.85400	0.95450
865.92544	0.96469
863.99687	0.97521
862.06831	0.98619
860.13975	0.99782
858.21118	1.01026
856.28262	1.02362
854.35405	1.03733
852.42549	1.04983
850.49692	1.06109
848.56836	1.07296
846.63979	1.08444
844.71123	1.09472
842.78267	1.10650
840.85410	1.11936
838.92554	1.12992
836.99697	1.14073
835.06841	1.15487
833.13984	1.16868
831.21128	1.18089
829.28271	1.19286
827.35415	1.20199
825.42559	1.21032
823.49702	1.22089
821.56846	1.23043
819.63989	1.24291
817.71133	1.26093
815.78276	1.28051
813.85420	1.29802
811.92563	1.30172
809.99707	1.29373
808.06851	1.29544
806.13994	1.31750
804.21138	1.34990
802.28281	1.37351
800.35425	1.38195
798.42568	1.38414
796.49712	1.38671
794.56855	1.38792
792.63999	1.38923
790.71143	1.41790
788.78286	1.48276
786.85430	1.51810
784.92573	1.52008
782.99717	1.52504
781.06860	1.48560
779.14004	1.41631
777.21147	1.39039
775.28291	1.42049
773.35435	1.43114
771.42578	1.41194
769.49722	1.44629
767.56865	1.47263
765.64009	1.35302
763.71152	1.25553
761.78296	1.28341
759.85439	1.42803
757.92583	1.61772
755.99727	1.58499
754.06870	1.41974
752.14014	1.26338
750.21157	1.12261
748.28301	1.06978
746.35444	1.13355
744.42588	1.25982
742.49731	1.29667
740.56875	1.11553
738.64019	0.90339
736.71162	0.81941
734.78306	0.89283
732.85449	1.00289
730.92593	0.96474
728.99736	0.83922
727.06880	0.58009
725.14023	0.37218
723.21167	0.27082
721.28311	0.19927
719.35454	0.18961
717.42598	0.30858
715.49741	0.35997
713.56885	0.16123
711.64028	0.05956
709.71172	0.03690
707.78315	-0.04461
705.85459	-0.17224
703.92603	0.12740
701.99746	0.19584
700.06890	0.19557
698.14033	0.24983
696.21177	0.37162
694.28320	0.41308
692.35464	0.33483
690.42607	0.26243
688.49751	0.22696
686.56895	0.27440
684.64038	0.38138
682.71182	0.40063
680.78325	0.32981
678.85469	0.27087
676.92612	0.24485
674.99756	0.22714
673.06899	0.24091
671.14043	0.34900
669.21187	0.45645
667.28330	0.46125
665.35474	0.51568
663.42617	0.59715
661.49761	0.44755
659.56904	0.27628
657.64048	0.24023
655.71191	0.27659
653.78335	0.31550
651.85479	0.37725
649.92622	0.46578
647.99766	0.47976
646.06909	0.38829
644.14053	0.30181
642.21196	0.25970
640.28340	0.24812
638.35483	0.25359
636.42627	0.28724
634.49771	0.33603
632.56914	0.30373
630.64058	0.21187
628.71201	0.21252
626.78345	0.26888
624.85488	0.27572
622.92632	0.28859
620.99775	0.31727
619.06919	0.31971
617.14062	0.25239
615.21206	0.18265
613.28350	0.19308
611.35493	0.27782
609.42637	0.25125
607.49780	0.09705
605.56924	0.04139
603.64067	0.13189
601.71211	0.24261
599.78354	0.21802
597.85498	0.15339
595.92642	0.14945
593.99785	0.17851
592.06929	0.19505
590.14072	0.21226
588.21216	0.21791
586.28359	0.20411
584.35503	0.20543
582.42646	0.26174
580.49790	0.41215
578.56934	0.49491
576.64077	0.37764
574.71221	0.32225
572.78364	0.48730
570.85508	3.42513
568.92651	3.41356
566.99795	1.21446
565.06938	0.30508
563.14082	0.12656
561.21226	0.10521
559.28369	0.12798
557.35513	0.13926
555.42656	0.13093
553.49800	0.13713
551.56943	0.20043
549.64087	0.29041
547.71230	0.32099
545.78374	0.34936
543.85518	0.40510
541.92661	0.38243
539.99805	0.32987
538.06948	0.27676
536.14092	0.21936
534.21235	0.17729
532.28379	0.16646
530.35522	0.22027
528.42666	0.32470
526.49810	0.35621
524.56953	0.31928
522.64097	0.31655
520.71240	0.29412
518.78384	0.26044
516.85527	0.27979
514.92671	0.33715
512.99814	0.29623
511.06958	0.14061
509.14102	0.03858
507.21245	0.08760
505.28389	0.20885
503.35532	0.22561
501.42676	0.16567
499.49819	0.12947
