3997.91411	0.07152
3995.98555	0.07227
3994.05698	0.07290
3992.12842	0.07329
3990.19985	0.07359
3988.27129	0.07368
3986.34272	0.07348
3984.41416	0.07341
3982.48560	0.07373
3980.55703	0.07416
3978.62847	0.07443
3976.69990	0.07466
3974.77134	0.07492
3972.84277	0.07497
3970.91421	0.07498
3968.98564	0.07526
3967.05708	0.07535
3965.12852	0.07522
3963.19995	0.07536
3961.27139	0.07540
3959.34282	0.07499
3957.41426	0.07476
3955.48569	0.07512
3953.55713	0.07544
3951.62856	0.07529
3949.70000	0.07530
3947.77144	0.07567
3945.84287	0.07572
3943.91431	0.07538
3941.98574	0.07513
3940.05718	0.07522
3938.12861	0.07575
3936.20005	0.07626
3934.27148	0.07609
3932.34292	0.07552
3930.41436	0.07551
3928.48579	0.07583
3926.55723	0.07568
3924.62866	0.07533
3922.70010	0.07521
3920.77153	0.07514
3918.84297	0.07491
3916.91440	0.07486
3914.98584	0.07519
3913.05728	0.07520
3911.12871	0.07475
3909.20015	0.07452
3907.27158	0.07476
3905.34302	0.07504
3903.41445	0.07476
3901.48589	0.07400
3899.55732	0.07374
3897.62876	0.07389
3895.70020	0.07383
3893.77163	0.07386
3891.84307	0.07441
3889.91450	0.07518
3887.98594	0.07535
3886.05737	0.07507
3884.12881	0.07472
3882.20024	0.07440
3880.27168	0.07437
3878.34312	0.07484
3876.41455	0.07493
3874.48599	0.07440
3872.55742	0.07403
3870.62886	0.07428
3868.70029	0.07526
3866.77173	0.07605
3864.84316	0.07593
3862.91460	0.07603
3860.98604	0.07687
3859.05747	0.07732
3857.12891	0.07705
3855.20034	0.07658
3853.27178	0.07684
3851.34321	0.07844
3849.41465	0.07948
3847.48608	0.07977
3845.55752	0.07982
3843.62896	0.07993
3841.70039	0.08019
3839.77183	0.08048
3837.84326	0.08132
3835.91470	0.08256
3833.98613	0.08308
3832.05757	0.08322
3830.12900	0.08393
3828.20044	0.08513
3826.27187	0.08626
3824.34331	0.08679
3822.41475	0.08671
3820.48618	0.08734
3818.55762	0.08870
3816.62905	0.08970
3814.70049	0.09129
3812.77192	0.09264
3810.84336	0.09296
3808.91479	0.09311
3806.98623	0.09386
3805.05767	0.09537
3803.12910	0.09675
3801.20054	0.09789
3799.27197	0.09924
3797.34341	0.10054
3795.41484	0.10223
3793.48628	0.10402
3791.55771	0.10538
3789.62915	0.10658
3787.70059	0.10766
3785.77202	0.10858
3783.84346	0.10975
3781.91489	0.11125
3779.98633	0.11272
3778.05776	0.11435
3776.12920	0.11611
3774.20063	0.11770
3772.27207	0.11902
3770.34351	0.12029
3768.41494	0.12209
3766.48638	0.12429
3764.55781	0.12652
3762.62925	0.12853
3760.70068	0.13033
3758.77212	0.13248
3756.84355	0.13507
3754.91499	0.13715
3752.98643	0.13835
3751.05786	0.13981
3749.12930	0.14311
3747.20073	0.14614
3745.27217	0.14810
3743.34360	0.15175
3741.41504	0.15613
3739.48647	0.15878
3737.55791	0.16078
3735.62935	0.16346
3733.70078	0.16806
3731.77222	0.17378
3729.84365	0.17872
3727.91509	0.18293
3725.98652	0.18776
3724.05796	0.19384
3722.12939	0.20121
3720.20083	0.20992
3718.27227	0.21891
3716.34370	0.22759
3714.41514	0.23553
3712.48657	0.24361
3710.55801	0.25493
3708.62944	0.26882
3706.70088	0.28139
3704.77231	0.29333
3702.84375	0.30660
3700.91519	0.32349
3698.98662	0.34225
3697.05806	0.35988
3695.12949	0.37826
3693.20093	0.39774
3691.27236	0.41866
3689.34380	0.44631
3687.41523	0.48231
3685.48667	0.51453
3683.55811	0.54180
3681.62954	0.56996
3679.70098	0.60055
3677.77241	0.63221
3675.84385	0.67022
3673.91528	0.72404
3671.98672	0.76826
3670.05815	0.80640
3668.12959	0.86067
3666.20103	0.91122
3664.27246	0.95257
3662.34390	0.99591
3660.41533	1.04259
3658.48677	1.08844
3656.55820	1.13696
3654.62964	1.19224
3652.70107	1.23898
3650.77251	1.27766
3648.84395	1.33063
3646.91538	1.40005
3644.98682	1.45279
3643.05825	1.49279
3641.12969	1.53249
3639.20112	1.57550
3637.27256	1.61878
3635.34399	1.66140
3633.41543	1.70402
3631.48687	1.74263
3629.55830	1.78058
3627.62974	1.83352
3625.70117	1.88552
3623.77261	1.92006
3621.84404	1.95250
3619.91548	1.98937
3617.98691	2.03445
3616.05835	2.07907
3614.12979	2.11716
3612.20122	2.15756
3610.27266	2.19750
3608.34409	2.23655
3606.41553	2.27834
3604.48696	2.31751
3602.55840	2.35191
3600.62983	2.38892
3598.70127	2.43025
3596.77271	2.47060
3594.84414	2.51087
3592.91558	2.55346
3590.98701	2.59298
3589.05845	2.62748
3587.12988	2.67021
3585.20132	2.72086
3583.27275	2.76268
3581.34419	2.79915
3579.41562	2.83848
3577.48706	2.88136
3575.55850	2.92487
3573.62993	2.96918
3571.70137	3.01183
3569.77280	3.05135
3567.84424	3.09303
3565.91567	3.14540
3563.98711	3.19623
3562.05854	3.23581
3560.12998	3.27447
3558.20142	3.31712
3556.27285	3.36273
3554.34429	3.40962
3552.41572	3.46009
3550.48716	3.50923
3548.55859	3.55045
3546.63003	3.59026
3544.70146	3.63752
3542.77290	3.68785
3540.84434	3.73509
3538.91577	3.78187
3536.98721	3.82864
3535.05864	3.87643
3533.13008	3.92324
3531.20151	3.96751
3529.27295	4.01287
3527.34438	4.06153
3525.41582	4.11055
3523.48726	4.15926
3521.55869	4.20977
3519.63013	4.25832
3517.70156	4.30501
3515.77300	4.35339
3513.84443	4.40194
3511.91587	4.44925
3509.98730	4.49789
3508.05874	4.54528
3506.13018	4.58850
3504.20161	4.63530
3502.27305	4.68857
3500.34448	4.73646
3498.41592	4.77467
3496.48735	4.81434
3494.55879	4.86224
3492.63022	4.91197
3490.70166	4.95886
3488.77310	5.01115
3486.84453	5.06728
3484.91597	5.11406
3482.98740	5.15755
3481.05884	5.21221
3479.13027	5.26730
3477.20171	5.31010
3475.27314	5.34957
3473.34458	5.39221
3471.41602	5.43647
3469.48745	5.48119
3467.55889	5.52980
3465.63032	5.58522
3463.70176	5.63716
3461.77319	5.67703
3459.84463	5.72238
3457.91606	5.78270
3455.98750	5.84620
3454.05894	5.90933
3452.13037	5.97029
3450.20181	6.01503
3448.27324	6.04883
3446.34468	6.09870
3444.41611	6.15584
3442.48755	6.20026
3440.55898	6.23634
3438.63042	6.28284
3436.70186	6.33667
3434.77329	6.38394
3432.84473	6.44119
3430.91616	6.50443
3428.98760	6.54779
3427.05903	6.56672
3425.13047	6.59750
3423.20190	6.66872
3421.27334	6.76012
3419.34478	6.82561
3417.41621	6.84967
3415.48765	6.86290
3413.55908	6.90260
3411.63052	6.96534
3409.70195	7.00685
3407.77339	7.04512
3405.84482	7.09674
3403.91626	7.13793
3401.98770	7.15742
3400.05913	7.17858
3398.13057	7.21354
3396.20200	7.23461
3394.27344	7.27994
3392.34487	7.36179
3390.41631	7.41336
3388.48774	7.42574
3386.55918	7.45321
3384.63062	7.47818
3382.70205	7.47138
3380.77349	7.48018
3378.84492	7.54100
3376.91636	7.60617
3374.98779	7.61810
3373.05923	7.62527
3371.13066	7.63964
3369.20210	7.66057
3367.27354	7.70207
3365.34497	7.75392
3363.41641	7.78984
3361.48784	7.78179
3359.55928	7.78321
3357.63071	7.82389
3355.70215	7.87614
3353.77358	7.92222
3351.84502	7.95769
3349.91646	7.95118
3347.98789	7.96032
3346.05933	8.03200
3344.13076	8.05523
3342.20220	7.96873
3340.27363	7.86779
3338.34507	7.86548
3336.41650	7.93576
3334.48794	7.95269
3332.55937	7.89900
3330.63081	7.90729
3328.70225	7.97077
3326.77368	8.03400
3324.84512	8.14841
3322.91655	8.26486
3320.98799	8.32121
3319.05942	8.27409
3317.13086	8.14315
3315.20229	8.02177
3313.27373	7.95933
3311.34517	7.99437
3309.41660	8.11780
3307.48804	8.22205
3305.55947	8.21548
3303.63091	8.14130
3301.70234	8.09315
3299.77378	8.08653
3297.84521	8.04587
3295.91665	8.04597
3293.98809	8.10431
3292.05952	8.07133
3290.13096	8.05822
3288.20239	8.27305
3286.27383	8.56362
3284.34526	8.55724
3282.41670	8.38783
3280.48813	8.34679
3278.55957	8.47168
3276.63101	8.54820
3274.70244	8.45005
3272.77388	8.38705
3270.84531	8.40375
3268.91675	8.34342
3266.98818	8.20133
3265.05962	8.13848
3263.13105	8.15930
3261.20249	8.11942
3259.27393	8.05674
3257.34536	8.11136
3255.41680	8.21341
3253.48823	8.27187
3251.55967	8.25626
3249.63110	8.15635
3247.70254	8.12837
3245.77397	8.16086
3243.84541	8.15173
3241.91685	8.19010
3239.98828	8.21062
3238.05972	8.07326
3236.13115	7.94267
3234.20259	7.91498
3232.27402	7.94947
3230.34546	8.05147
3228.41689	8.14848
3226.48833	8.15230
3224.55977	8.10589
3222.63120	8.07319
3220.70264	8.08567
3218.77407	8.12273
3216.84551	8.12022
3214.91694	8.10447
3212.98838	8.11365
3211.05981	8.11605
3209.13125	8.08163
3207.20269	7.96194
3205.27412	7.79274
3203.34556	7.68176
3201.41699	7.68782
3199.48843	7.75859
3197.55986	7.78385
3195.63130	7.74113
3193.70273	7.67158
3191.77417	7.62571
3189.84561	7.57604
3187.91704	7.44976
3185.98848	7.31850
3184.05991	7.27473
3182.13135	7.27827
3180.20278	7.26342
3178.27422	7.22784
3176.34565	7.17744
3174.41709	7.11346
3172.48853	7.03268
3170.55996	6.95080
3168.63140	6.90317
3166.70283	6.85849
3164.77427	6.78160
3162.84570	6.69825
3160.91714	6.62153
3158.98857	6.56340
3157.06001	6.52256
3155.13145	6.46296
3153.20288	6.37544
3151.27432	6.29171
3149.34575	6.23333
3147.41719	6.18390
3145.48862	6.11777
3143.56006	6.04137
3141.63149	5.97292
3139.70293	5.91847
3137.77437	5.86674
3135.84580	5.79574
3133.91724	5.71779
3131.98867	5.64988
3130.06011	5.57961
3128.13154	5.50303
3126.20298	5.42854
3124.27441	5.35814
3122.34585	5.29124
3120.41729	5.23214
3118.48872	5.17528
3116.56016	5.11020
3114.63159	5.03817
3112.70303	4.96342
3110.77446	4.88828
3108.84590	4.81560
3106.91733	4.74755
3104.98877	4.68348
3103.06021	4.62011
3101.13164	4.55547
3099.20308	4.49132
3097.27451	4.42674
3095.34595	4.36220
3093.41738	4.30119
3091.48882	4.24103
3089.56025	4.17829
3087.63169	4.11568
3085.70312	4.05556
3083.77456	3.99482
3081.84600	3.93277
3079.91743	3.87278
3077.98887	3.81469
3076.06030	3.75710
3074.13174	3.70157
3072.20317	3.64649
3070.27461	3.58939
3068.34604	3.53368
3066.41748	3.47943
3064.48892	3.42324
3062.56035	3.36762
3060.63179	3.31564
3058.70322	3.26394
3056.77466	3.20938
3054.84609	3.15455
3052.91753	3.10296
3050.98896	3.05454
3049.06040	3.00632
3047.13184	2.95696
3045.20327	2.90805
3043.27471	2.86121
3041.34614	2.81549
3039.41758	2.76863
3037.48901	2.72146
3035.56045	2.67564
3033.63188	2.63034
3031.70332	2.58542
3029.77476	2.54255
3027.84619	2.50082
3025.91763	2.45807
3023.98906	2.41519
3022.06050	2.37364
3020.13193	2.33341
3018.20337	2.29415
3016.27480	2.25527
3014.34624	2.21628
3012.41768	2.17749
3010.48911	2.13915
3008.56055	2.10173
3006.63198	2.06589
3004.70342	2.03086
3002.77485	1.99626
3000.84629	1.96262
2998.91772	1.92960
2996.98916	1.89685
2995.06060	1.86450
2993.13203	1.83291
2991.20347	1.80273
2989.27490	1.77362
2987.34634	1.74478
2985.41777	1.71641
2983.48921	1.68886
2981.56064	1.66208
2979.63208	1.63585
2977.70352	1.60967
2975.77495	1.58367
2973.84639	1.55834
2971.91782	1.53371
2969.98926	1.50968
2968.06069	1.48605
2966.13213	1.46245
2964.20356	1.43883
2962.27500	1.41507
2960.34644	1.39113
2958.41787	1.36782
2956.48931	1.34498
2954.56074	1.32153
2952.63218	1.29750
2950.70361	1.27357
2948.77505	1.25003
2946.84648	1.22704
2944.91792	1.20484
2942.98936	1.18347
2941.06079	1.16321
2939.13223	1.14405
2937.20366	1.12480
2935.27510	1.10497
2933.34653	1.08537
2931.41797	1.06615
2929.48940	1.04692
2927.56084	1.02797
2925.63228	1.00953
2923.70371	0.99121
2921.77515	0.97275
2919.84658	0.95459
2917.91802	0.93706
2915.98945	0.91984
2914.06089	0.90258
2912.13232	0.88561
2910.20376	0.86973
2908.27520	0.85511
2906.34663	0.84086
2904.41807	0.82627
2902.48950	0.81166
2900.56094	0.79761
2898.63237	0.78416
2896.70381	0.77099
2894.77524	0.75803
2892.84668	0.74549
2890.91812	0.73343
2888.98955	0.72178
2887.06099	0.71053
2885.13242	0.69978
2883.20386	0.68961
2881.27529	0.68000
2879.34673	0.67056
2877.41816	0.66090
2875.48960	0.65114
2873.56104	0.64135
2871.63247	0.63113
2869.70391	0.62007
2867.77534	0.60828
2865.84678	0.59632
2863.91821	0.58476
2861.98965	0.57376
2860.06108	0.56306
2858.13252	0.55275
2856.20396	0.54318
2854.27539	0.53418
2852.34683	0.52543
2850.41826	0.51669
2848.48970	0.50786
2846.56113	0.49946
2844.63257	0.49177
2842.70400	0.48444
2840.77544	0.47737
2838.84687	0.47082
2836.91831	0.46466
2834.98975	0.45859
2833.06118	0.45265
2831.13262	0.44688
2829.20405	0.44104
2827.27549	0.43507
2825.34692	0.42921
2823.41836	0.42348
2821.48979	0.41760
2819.56123	0.41174
2817.63267	0.40606
2815.70410	0.40045
2813.77554	0.39490
2811.84697	0.38934
2809.91841	0.38364
2807.98984	0.37804
2806.06128	0.37282
2804.13271	0.36786
2802.20415	0.36284
2800.27559	0.35775
2798.34702	0.35261
2796.41846	0.34748
2794.48989	0.34266
2792.56133	0.33828
2790.63276	0.33406
2788.70420	0.32954
2786.77563	0.32484
2784.84707	0.32029
2782.91851	0.31597
2780.98994	0.31189
2779.06138	0.30795
2777.13281	0.30384
2775.20425	0.29964
2773.27568	0.29584
2771.34712	0.29235
2769.41855	0.28876
2767.48999	0.28508
2765.56143	0.28143
2763.63286	0.27782
2761.70430	0.27437
2759.77573	0.27106
2757.84717	0.26790
2755.91860	0.26493
2753.99004	0.26190
2752.06147	0.25864
2750.13291	0.25530
2748.20435	0.25217
2746.27578	0.24933
2744.34722	0.24660
2742.41865	0.24383
2740.49009	0.24105
2738.56152	0.23835
2736.63296	0.23573
2734.70439	0.23326
2732.77583	0.23083
2730.84727	0.22826
2728.91870	0.22571
2726.99014	0.22330
2725.06157	0.22110
2723.13301	0.21911
2721.20444	0.21705
2719.27588	0.21485
2717.34731	0.21275
2715.41875	0.21075
2713.49019	0.20877
2711.56162	0.20686
2709.63306	0.20509
2707.70449	0.20350
2705.77593	0.20204
2703.84736	0.20047
2701.91880	0.19880
2699.99023	0.19721
2698.06167	0.19566
2696.13311	0.19412
2694.20454	0.19281
2692.27598	0.19162
2690.34741	0.19024
2688.41885	0.18877
2686.49028	0.18748
2684.56172	0.18634
2682.63315	0.18512
2680.70459	0.18379
2678.77603	0.18253
2676.84746	0.18132
2674.91890	0.18019
2672.99033	0.17920
2671.06177	0.17830
2669.13320	0.17734
2667.20464	0.17632
2665.27607	0.17532
2663.34751	0.17433
2661.41895	0.17344
2659.49038	0.17273
2657.56182	0.17206
2655.63325	0.17127
2653.70469	0.17034
2651.77612	0.16951
2649.84756	0.16901
2647.91899	0.16855
2645.99043	0.16790
2644.06187	0.16723
2642.13330	0.16668
2640.20474	0.16623
2638.27617	0.16576
2636.34761	0.16520
2634.41904	0.16457
2632.49048	0.16401
2630.56191	0.16363
2628.63335	0.16331
2626.70479	0.16292
2624.77622	0.16255
2622.84766	0.16226
2620.91909	0.16191
2618.99053	0.16146
2617.06196	0.16104
2615.13340	0.16074
2613.20483	0.16056
2611.27627	0.16043
2609.34771	0.16028
2607.41914	0.16017
2605.49058	0.16009
2603.56201	0.16001
2601.63345	0.15998
2599.70488	0.15998
2597.77632	0.15994
2595.84775	0.15987
2593.91919	0.15985
2591.99062	0.15993
2590.06206	0.15998
2588.13350	0.16003
2586.20493	0.16020
2584.27637	0.16053
2582.34780	0.16099
2580.41924	0.16136
2578.49067	0.16150
2576.56211	0.16158
2574.63354	0.16179
2572.70498	0.16214
2570.77642	0.16248
2568.84785	0.16276
2566.91929	0.16303
2564.99072	0.16334
2563.06216	0.16368
2561.13359	0.16404
2559.20503	0.16449
2557.27646	0.16501
2555.34790	0.16548
2553.41934	0.16586
2551.49077	0.16629
2549.56221	0.16680
2547.63364	0.16725
2545.70508	0.16776
2543.77651	0.16832
2541.84795	0.16885
2539.91938	0.16946
2537.99082	0.17006
2536.06226	0.17053
2534.13369	0.17097
2532.20513	0.17155
2530.27656	0.17228
2528.34800	0.17312
2526.41943	0.17400
2524.49087	0.17477
2522.56230	0.17537
2520.63374	0.17601
2518.70518	0.17679
2516.77661	0.17753
2514.84805	0.17817
2512.91948	0.17884
2510.99092	0.17956
2509.06235	0.18034
2507.13379	0.18119
2505.20522	0.18201
2503.27666	0.18273
2501.34810	0.18339
2499.41953	0.18415
2497.49097	0.18499
2495.56240	0.18581
2493.63384	0.18666
2491.70527	0.18759
2489.77671	0.18852
2487.84814	0.18942
2485.91958	0.19030
2483.99102	0.19112
2482.06245	0.19192
2480.13389	0.19270
2478.20532	0.19344
2476.27676	0.19419
2474.34819	0.19501
2472.41963	0.19586
2470.49106	0.19668
2468.56250	0.19758
2466.63394	0.19859
2464.70537	0.19956
2462.77681	0.20042
2460.84824	0.20135
2458.91968	0.20242
2456.99111	0.20338
2455.06255	0.20420
2453.13398	0.20501
2451.20542	0.20590
2449.27686	0.20691
2447.34829	0.20797
2445.41973	0.20893
2443.49116	0.20984
2441.56260	0.21077
2439.63403	0.21174
2437.70547	0.21279
2435.77690	0.21386
2433.84834	0.21491
2431.91978	0.21593
2429.99121	0.21692
2428.06265	0.21789
2426.13408	0.21895
2424.20552	0.22004
2422.27695	0.22111
2420.34839	0.22226
2418.41982	0.22349
2416.49126	0.22461
2414.56270	0.22565
2412.63413	0.22669
2410.70557	0.22780
2408.77700	0.22896
2406.84844	0.23007
2404.91987	0.23116
2402.99131	0.23228
2401.06274	0.23342
2399.13418	0.23452
2397.20562	0.23558
2395.27705	0.23673
2393.34849	0.23806
2391.41992	0.23946
2389.49136	0.24061
2387.56279	0.24138
2385.63423	0.24173
2383.70566	0.24148
2381.77710	0.24051
2379.84854	0.23886
2377.91997	0.23657
2375.99141	0.23361
2374.06284	0.23000
2372.13428	0.22576
2370.20571	0.22086
2368.27715	0.21543
2366.34858	0.20992
2364.42002	0.20505
2362.49146	0.20189
2360.56289	0.20054
2358.63433	0.20184
2356.70576	0.20795
2354.77720	0.21712
2352.84863	0.22746
2350.92007	0.23714
2348.99150	0.24258
2347.06294	0.24301
2345.13437	0.23961
2343.20581	0.23549
2341.27725	0.23461
2339.34868	0.23702
2337.42012	0.24038
2335.49155	0.24287
2333.56299	0.24453
2331.63442	0.24655
2329.70586	0.24967
2327.77729	0.25366
2325.84873	0.25781
2323.92017	0.26188
2321.99160	0.26624
2320.06304	0.27094
2318.13447	0.27573
2316.20591	0.28013
2314.27734	0.28360
2312.34878	0.28617
2310.42021	0.28871
2308.49165	0.29193
2306.56309	0.29556
2304.63452	0.29899
2302.70596	0.30194
2300.77739	0.30452
2298.84883	0.30708
2296.92026	0.30974
2294.99170	0.31242
2293.06313	0.31509
2291.13457	0.31777
2289.20601	0.32040
2287.27744	0.32296
2285.34888	0.32549
2283.42031	0.32789
2281.49175	0.32995
2279.56318	0.33175
2277.63462	0.33348
2275.70605	0.33527
2273.77749	0.33722
2271.84893	0.33931
2269.92036	0.34149
2267.99180	0.34376
2266.06323	0.34597
2264.13467	0.34808
2262.20610	0.35023
2260.27754	0.35245
2258.34897	0.35469
2256.42041	0.35687
2254.49185	0.35904
2252.56328	0.36131
2250.63472	0.36371
2248.70615	0.36614
2246.77759	0.36852
2244.84902	0.37085
2242.92046	0.37309
2240.99189	0.37526
2239.06333	0.37741
2237.13477	0.37961
2235.20620	0.38185
2233.27764	0.38402
2231.34907	0.38613
2229.42051	0.38839
2227.49194	0.39080
2225.56338	0.39318
2223.63481	0.39543
2221.70625	0.39757
2219.77769	0.39972
2217.84912	0.40184
2215.92056	0.40393
2213.99199	0.40607
2212.06343	0.40826
2210.13486	0.41041
2208.20630	0.41252
2206.27773	0.41465
2204.34917	0.41677
2202.42061	0.41882
2200.49204	0.42083
2198.56348	0.42283
2196.63491	0.42481
2194.70635	0.42686
2192.77778	0.42887
2190.84922	0.43072
2188.92065	0.43250
2186.99209	0.43429
2185.06353	0.43602
2183.13496	0.43770
2181.20640	0.43937
2179.27783	0.44105
2177.34927	0.44275
2175.42070	0.44438
2173.49214	0.44587
2171.56357	0.44727
2169.63501	0.44866
2167.70645	0.45000
2165.77788	0.45128
2163.84932	0.45259
2161.92075	0.45381
2159.99219	0.45479
2158.06362	0.45564
2156.13506	0.45654
2154.20649	0.45744
2152.27793	0.45824
2150.34937	0.45898
2148.42080	0.45965
2146.49224	0.46019
2144.56367	0.46068
2142.63511	0.46118
2140.70654	0.46164
2138.77798	0.46193
2136.84941	0.46208
2134.92085	0.46223
2132.99229	0.46231
2131.06372	0.46217
2129.13516	0.46192
2127.20659	0.46170
2125.27803	0.46150
2123.34946	0.46120
2121.42090	0.46075
2119.49233	0.46017
2117.56377	0.45955
2115.63521	0.45890
2113.70664	0.45811
2111.77808	0.45719
2109.84951	0.45626
2107.92095	0.45533
2105.99238	0.45419
2104.06382	0.45288
2102.13525	0.45161
2100.20669	0.45045
2098.27812	0.44926
2096.34956	0.44788
2094.42100	0.44626
2092.49243	0.44455
2090.56387	0.44289
2088.63530	0.44119
2086.70674	0.43933
2084.77817	0.43731
2082.84961	0.43539
2080.92104	0.43357
2078.99248	0.43158
2077.06392	0.42940
2075.13535	0.42719
2073.20679	0.42505
2071.27822	0.42297
2069.34966	0.42080
2067.42109	0.41849
2065.49253	0.41613
2063.56396	0.41371
2061.63540	0.41128
2059.70684	0.40883
2057.77827	0.40641
2055.84971	0.40401
2053.92114	0.40145
2051.99258	0.39875
2050.06401	0.39612
2048.13545	0.39360
2046.20688	0.39098
2044.27832	0.38818
2042.34976	0.38540
2040.42119	0.38277
2038.49263	0.38014
2036.56406	0.37741
2034.63550	0.37465
2032.70693	0.37180
2030.77837	0.36891
2028.84980	0.36613
2026.92124	0.36351
2024.99268	0.36082
2023.06411	0.35788
2021.13555	0.35495
2019.20698	0.35222
2017.27842	0.34950
2015.34985	0.34670
2013.42129	0.34392
2011.49272	0.34118
2009.56416	0.33848
2007.63560	0.33576
2005.70703	0.33300
2003.77847	0.33027
2001.84990	0.32764
1999.92134	0.32508
1997.99277	0.32251
1996.06421	0.31988
1994.13564	0.31721
1992.20708	0.31456
1990.27852	0.31201
1988.34995	0.30958
1986.42139	0.30714
1984.49282	0.30470
1982.56426	0.30237
1980.63569	0.30009
1978.70713	0.29776
1976.77856	0.29546
1974.85000	0.29324
1972.92144	0.29110
1970.99287	0.28897
1969.06431	0.28681
1967.13574	0.28467
1965.20718	0.28268
1963.27861	0.28075
1961.35005	0.27875
1959.42148	0.27677
1957.49292	0.27493
1955.56436	0.27319
1953.63579	0.27141
1951.70723	0.26960
1949.77866	0.26789
1947.85010	0.26627
1945.92153	0.26469
1943.99297	0.26311
1942.06440	0.26156
1940.13584	0.26011
1938.20728	0.25878
1936.27871	0.25745
1934.35015	0.25611
1932.42158	0.25482
1930.49302	0.25356
1928.56445	0.25239
1926.63589	0.25124
1924.70732	0.25009
1922.77876	0.24904
1920.85020	0.24808
1918.92163	0.24706
1916.99307	0.24607
1915.06450	0.24534
1913.13594	0.24467
1911.20737	0.24394
1909.27881	0.24317
1907.35024	0.24241
1905.42168	0.24165
1903.49312	0.24095
1901.56455	0.24036
1899.63599	0.23986
1897.70742	0.23944
1895.77886	0.23910
1893.85029	0.23880
1891.92173	0.23836
1889.99316	0.23792
1888.06460	0.23764
1886.13604	0.23743
1884.20747	0.23723
1882.27891	0.23713
1880.35034	0.23713
1878.42178	0.23708
1876.49321	0.23704
1874.56465	0.23700
1872.63608	0.23691
1870.70752	0.23674
1868.77896	0.23679
1866.85039	0.23710
1864.92183	0.23731
1862.99326	0.23749
1861.06470	0.23773
1859.13613	0.23810
1857.20757	0.23855
1855.27900	0.23905
1853.35044	0.23946
1851.42187	0.23988
1849.49331	0.24036
1847.56475	0.24081
1845.63618	0.24128
1843.70762	0.24213
1841.77905	0.24320
1839.85049	0.24394
1837.92192	0.24472
1835.99336	0.24565
1834.06479	0.24660
1832.13623	0.24741
1830.20767	0.24852
1828.27910	0.25003
1826.35054	0.25126
1824.42197	0.25256
1822.49341	0.25398
1820.56484	0.25532
1818.63628	0.25665
1816.70771	0.25825
1814.77915	0.25985
1812.85059	0.26137
1810.92202	0.26319
1808.99346	0.26534
1807.06489	0.26739
1805.13633	0.26922
1803.20776	0.27114
1801.27920	0.27333
1799.35063	0.27606
1797.42207	0.27872
1795.49351	0.28108
1793.56494	0.28356
1791.63638	0.28706
1789.70781	0.29097
1787.77925	0.29395
1785.85068	0.29708
1783.92212	0.30074
1781.99355	0.30461
1780.06499	0.30870
1778.13643	0.31292
1776.20786	0.31673
1774.27930	0.32052
1772.35073	0.32577
1770.42217	0.33218
1768.49360	0.33802
1766.56504	0.34360
1764.63647	0.34895
1762.70791	0.35451
1760.77935	0.36181
1758.85078	0.36893
1756.92222	0.37610
1754.99365	0.38400
1753.06509	0.39084
1751.13652	0.39850
1749.20796	0.40864
1747.27939	0.41930
1745.35083	0.42863
1743.42227	0.43805
1741.49370	0.44817
1739.56514	0.46024
1737.63657	0.47251
1735.70801	0.48294
1733.77944	0.49874
1731.85088	0.51856
1729.92231	0.53439
1727.99375	0.55032
1726.06519	0.56718
1724.13662	0.58548
1722.20806	0.60522
1720.27949	0.62302
1718.35093	0.64347
1716.42236	0.67541
1714.49380	0.70721
1712.56523	0.73255
1710.63667	0.75641
1708.70811	0.78161
1706.77954	0.81013
1704.85098	0.84490
1702.92241	0.87615
1700.99385	0.90639
1699.06528	0.95262
1697.13672	0.99625
1695.20815	1.04144
1693.27959	1.08547
1691.35103	1.12036
1689.42246	1.16051
1687.49390	1.20322
1685.56533	1.24400
1683.63677	1.30895
1681.70820	1.37825
1679.77964	1.42094
1677.85107	1.46116
1675.92251	1.50770
1673.99395	1.56678
1672.06538	1.61952
1670.13682	1.67104
1668.20825	1.74131
1666.27969	1.79863
1664.35112	1.84651
1662.42256	1.90781
1660.49399	1.97948
1658.56543	2.03514
1656.63687	2.08051
1654.70830	2.12243
1652.77974	2.18641
1650.85117	2.24541
1648.92261	2.26551
1646.99404	2.29384
1645.06548	2.31953
1643.13691	2.33151
1641.20835	2.33369
1639.27979	2.33580
1637.35122	2.33695
1635.42266	2.33617
1633.49409	2.33245
1631.56553	2.32080
1629.63696	2.30261
1627.70840	2.27056
1625.77983	2.23527
1623.85127	2.19076
1621.92271	2.13533
1619.99414	2.08842
1618.06558	2.04526
1616.13701	1.98060
1614.20845	1.91194
1612.27988	1.86016
1610.35132	1.80714
1608.42275	1.75052
1606.49419	1.69490
1604.56562	1.64323
1602.63706	1.59291
1600.70850	1.54405
1598.77993	1.49976
1596.85137	1.45857
1594.92280	1.41832
1592.99424	1.37940
1591.06567	1.34458
1589.13711	1.31269
1587.20854	1.28319
1585.27998	1.25617
1583.35142	1.23154
1581.42285	1.20962
1579.49429	1.19106
1577.56572	1.17435
1575.63716	1.15468
1573.70859	1.13875
1571.78003	1.12905
1569.85146	1.11927
1567.92290	1.10909
1565.99434	1.10262
1564.06577	1.09886
1562.13721	1.09616
1560.20864	1.09515
1558.28008	1.10053
1556.35151	1.10856
1554.42295	1.11233
1552.49438	1.11563
1550.56582	1.11716
1548.63726	1.11596
1546.70869	1.11202
1544.78013	1.10421
1542.85156	1.09188
1540.92300	1.07257
1538.99443	1.04213
1537.06587	1.02035
1535.13730	1.00508
1533.20874	0.98402
1531.28018	0.96199
1529.35161	0.94623
1527.42305	0.93085
1525.49448	0.91470
1523.56592	0.90094
1521.63735	0.88807
1519.70879	0.87627
1517.78022	0.86653
1515.85166	0.85432
1513.92310	0.84141
1511.99453	0.82976
1510.06597	0.81854
1508.13740	0.80719
1506.20884	0.79080
1504.28027	0.77838
1502.35171	0.77139
1500.42314	0.76468
1498.49458	0.75722
1496.56602	0.74866
1494.63745	0.74056
1492.70889	0.73421
1490.78032	0.72800
1488.85176	0.72079
1486.92319	0.71474
1484.99463	0.71030
1483.06606	0.70670
1481.13750	0.70354
1479.20894	0.70107
1477.28037	0.69956
1475.35181	0.69864
1473.42324	0.69794
1471.49468	0.69719
1469.56611	0.69586
1467.63755	0.69387
1465.70898	0.69185
1463.78042	0.69042
1461.85186	0.68972
1459.92329	0.68952
1457.99473	0.68978
1456.06616	0.68954
1454.13760	0.68777
1452.20903	0.68577
1450.28047	0.68362
1448.35190	0.68121
1446.42334	0.67869
1444.49478	0.67641
1442.56621	0.67415
1440.63765	0.67169
1438.70908	0.66898
1436.78052	0.66517
1434.85195	0.66085
1432.92339	0.65796
1430.99482	0.65618
1429.06626	0.65511
1427.13770	0.65483
1425.20913	0.65528
1423.28057	0.65620
1421.35200	0.65690
1419.42344	0.65738
1417.49487	0.65762
1415.56631	0.65707
1413.63774	0.65648
1411.70918	0.65673
1409.78062	0.65812
1407.85205	0.66005
1405.92349	0.66210
1403.99492	0.66411
1402.06636	0.66515
1400.13779	0.66469
1398.20923	0.66294
1396.28066	0.66031
1394.35210	0.65678
1392.42354	0.65258
1390.49497	0.64818
1388.56641	0.64328
1386.63784	0.63761
1384.70928	0.63194
1382.78071	0.62668
1380.85215	0.62172
1378.92358	0.61753
1376.99502	0.61431
1375.06646	0.61180
1373.13789	0.60976
1371.20933	0.60841
1369.28076	0.60759
1367.35220	0.60659
1365.42363	0.60507
1363.49507	0.60325
1361.56650	0.60149
1359.63794	0.60005
1357.70937	0.59889
1355.78081	0.59781
1353.85225	0.59683
1351.92368	0.59607
1349.99512	0.59550
1348.06655	0.59492
1346.13799	0.59412
1344.20942	0.59322
1342.28086	0.59244
1340.35229	0.59189
1338.42373	0.59153
1336.49517	0.59130
1334.56660	0.59124
1332.63804	0.59133
1330.70947	0.59152
1328.78091	0.59187
1326.85234	0.59248
1324.92378	0.59327
1322.99521	0.59409
1321.06665	0.59475
1319.13809	0.59533
1317.20952	0.59588
1315.28096	0.59620
1313.35239	0.59617
1311.42383	0.59588
1309.49526	0.59545
1307.56670	0.59493
1305.63813	0.59446
1303.70957	0.59409
1301.78101	0.59359
1299.85244	0.59279
1297.92388	0.59172
1295.99531	0.59052
1294.06675	0.58917
1292.13818	0.58761
1290.20962	0.58613
1288.28105	0.58492
1286.35249	0.58376
1284.42393	0.58246
1282.49536	0.58106
1280.56680	0.57958
1278.63823	0.57810
1276.70967	0.57677
1274.78110	0.57553
1272.85254	0.57448
1270.92397	0.57388
1268.99541	0.57343
1267.06685	0.57271
1265.13828	0.57176
1263.20972	0.57079
1261.28115	0.57001
1259.35259	0.56949
1257.42402	0.56906
1255.49546	0.56866
1253.56689	0.56850
1251.63833	0.56869
1249.70977	0.56905
1247.78120	0.56925
1245.85264	0.56913
1243.92407	0.56874
1241.99551	0.56799
1240.06694	0.56676
1238.13838	0.56508
1236.20981	0.56303
1234.28125	0.56069
1232.35269	0.55827
1230.42412	0.55601
1228.49556	0.55396
1226.56699	0.55200
1224.63843	0.55004
1222.70986	0.54814
1220.78130	0.54643
1218.85273	0.54486
1216.92417	0.54342
1214.99561	0.54227
1213.06704	0.54132
1211.13848	0.54047
1209.20991	0.53980
1207.28135	0.53920
1205.35278	0.53830
1203.42422	0.53712
1201.49565	0.53609
1199.56709	0.53533
1197.63853	0.53466
1195.70996	0.53407
1193.78140	0.53350
1191.85283	0.53294
1189.92427	0.53258
1187.99570	0.53239
1186.06714	0.53222
1184.13857	0.53221
1182.21001	0.53258
1180.28145	0.53340
1178.35288	0.53466
1176.42432	0.53614
1174.49575	0.53733
1172.56719	0.53786
1170.63862	0.53788
1168.71006	0.53763
1166.78149	0.53709
1164.85293	0.53638
1162.92437	0.53573
1160.99580	0.53503
1159.06724	0.53415
1157.13867	0.53310
1155.21011	0.53174
1153.28154	0.53007
1151.35298	0.52834
1149.42441	0.52651
1147.49585	0.52416
1145.56729	0.52139
1143.63872	0.51879
1141.71016	0.51655
1139.78159	0.51466
1137.85303	0.51313
1135.92446	0.51179
1133.99590	0.51059
1132.06733	0.50961
1130.13877	0.50869
1128.21021	0.50759
1126.28164	0.50644
1124.35308	0.50550
1122.42451	0.50468
1120.49595	0.50404
1118.56738	0.50387
1116.63882	0.50400
1114.71025	0.50420
1112.78169	0.50445
1110.85312	0.50474
1108.92456	0.50518
1106.99600	0.50598
1105.06743	0.50719
1103.13887	0.50873
1101.21030	0.51051
1099.28174	0.51256
1097.35317	0.51514
1095.42461	0.51832
1093.49604	0.52200
1091.56748	0.52620
1089.63892	0.53090
1087.71035	0.53604
1085.78179	0.54167
1083.85322	0.54760
1081.92466	0.55362
1079.99609	0.55905
1078.06753	0.56239
1076.13896	0.56284
1074.21040	0.56075
1072.28184	0.55649
1070.35327	0.55067
1068.42471	0.54427
1066.49614	0.53776
1064.56758	0.53120
1062.63901	0.52498
1060.71045	0.51963
1058.78188	0.51514
1056.85332	0.51117
1054.92476	0.50763
1052.99619	0.50441
1051.06763	0.50136
1049.13906	0.49862
1047.21050	0.49622
1045.28193	0.49392
1043.35337	0.49172
1041.42480	0.48999
1039.49624	0.48889
1037.56768	0.48817
1035.63911	0.48768
1033.71055	0.48746
1031.78198	0.48739
1029.85342	0.48720
1027.92485	0.48686
1025.99629	0.48671
1024.06772	0.48702
1022.13916	0.48764
1020.21060	0.48826
1018.28203	0.48881
1016.35347	0.48946
1014.42490	0.49025
1012.49634	0.49118
1010.56777	0.49228
1008.63921	0.49369
1006.71064	0.49541
1004.78208	0.49736
1002.85352	0.49968
1000.92495	0.50244
998.99639	0.50556
997.06782	0.50918
995.13926	0.51333
993.21069	0.51749
991.28213	0.52100
989.35356	0.52357
987.42500	0.52514
985.49644	0.52605
983.56787	0.52686
981.63931	0.52788
979.71074	0.52919
977.78218	0.53084
975.85361	0.53287
973.92505	0.53522
971.99648	0.53803
970.06792	0.54149
968.13936	0.54530
966.21079	0.54919
964.28223	0.55345
962.35366	0.55826
960.42510	0.56335
958.49653	0.56861
956.56797	0.57402
954.63940	0.57969
952.71084	0.58583
950.78228	0.59229
948.85371	0.59881
946.92515	0.60529
944.99658	0.61173
943.06802	0.61824
941.13945	0.62434
939.21089	0.62978
937.28232	0.63530
935.35376	0.64129
933.42520	0.64745
931.49663	0.65312
929.56807	0.65822
927.63950	0.66354
925.71094	0.66918
923.78237	0.67495
921.85381	0.68152
919.92524	0.68886
917.99668	0.69652
916.06812	0.70448
914.13955	0.71199
912.21099	0.71856
910.28242	0.72516
908.35386	0.73274
906.42529	0.74124
904.49673	0.75009
902.56816	0.75954
900.63960	0.76997
898.71104	0.78000
896.78247	0.78898
894.85391	0.79850
892.92534	0.80898
890.99678	0.81939
889.06821	0.82991
887.13965	0.84101
885.21108	0.85217
883.28252	0.86332
881.35396	0.87518
879.42539	0.88751
877.49683	0.89900
875.56826	0.90983
873.63970	0.92128
871.71113	0.93362
869.78257	0.94563
867.85400	0.95616
865.92544	0.96598
863.99687	0.97625
862.06831	0.98719
860.13975	0.99897
858.21118	1.01141
856.28262	1.02411
854.35405	1.03740
852.42549	1.05001
850.49692	1.06117
848.56836	1.07308
846.63979	1.08701
844.71123	1.10065
842.78267	1.11031
840.85410	1.11884
838.92554	1.13044
836.99697	1.14262
835.06841	1.15467
833.13984	1.16736
831.21128	1.17949
829.28271	1.19065
827.35415	1.20021
825.42559	1.21197
823.49702	1.22744
821.56846	1.23903
819.63989	1.25002
817.71133	1.26645
815.78276	1.28047
813.85420	1.29207
811.92563	1.31063
809.99707	1.33128
808.06851	1.33718
806.13994	1.33556
804.21138	1.35381
802.28281	1.38550
800.35425	1.39404
798.42568	1.39728
796.49712	1.42372
794.56855	1.44758
792.63999	1.46411
790.71143	1.48013
788.78286	1.53717
786.85430	1.72011
784.92573	1.87308
782.99717	1.74552
781.06860	1.67057
779.14004	1.66509
777.21147	1.59278
775.28291	1.47762
773.35435	1.41896
771.42578	1.43460
769.49722	1.48298
767.56865	1.46469
765.64009	1.39066
763.71152	1.38122
761.78296	1.42501
759.85439	1.42774
757.92583	1.35273
755.99727	1.23340
754.06870	1.17510
752.14014	1.16703
750.21157	1.11258
748.28301	1.04311
746.35444	1.03766
744.42588	1.08642
742.49731	1.11317
740.56875	1.00709
738.64019	0.86193
736.71162	0.79565
734.78306	0.76022
732.85449	0.67582
730.92593	0.51567
728.99736	0.37929
727.06880	0.38161
725.14023	0.44844
723.21167	0.36241
721.28311	0.20333
719.35454	0.08169
717.42598	-0.07190
715.49741	-0.26551
713.56885	-0.33598
711.64028	-0.18532
709.71172	-0.14889
707.78315	-0.19108
705.85459	-0.15967
703.92603	-0.07677
701.99746	0.01601
700.06890	0.14635
698.14033	0.24873
696.21177	0.25348
694.28320	0.23772
692.35464	0.25448
690.42607	0.25310
688.49751	0.23407
686.56895	0.23208
684.64038	0.22959
682.71182	0.23473
680.78325	0.24052
678.85469	0.23060
676.92612	0.26470
674.99756	0.36288
673.06899	0.40514
671.14043	0.29487
669.21187	0.24768
667.28330	0.34117
665.35474	0.49566
663.42617	0.60124
661.49761	0.40884
659.56904	0.23125
657.64048	0.16871
655.71191	0.13856
653.78335	0.14927
651.85479	0.25433
649.92622	0.42801
647.99766	0.73546
646.06909	0.68753
644.14053	0.35697
642.21196	0.22998
640.28340	0.22378
638.35483	0.31564
636.42627	0.45869
634.49771	0.48104
632.56914	0.33380
630.64058	0.25550
628.71201	0.26822
626.78345	0.30550
624.85488	0.24906
622.92632	0.13870
620.99775	0.07120
619.06919	0.05664
617.14062	0.06784
615.21206	0.11848
613.28350	0.22608
611.35493	0.37658
609.42637	0.48237
607.49780	0.40358
605.56924	0.24576
603.64067	0.13581
601.71211	0.08497
599.78354	0.08558
597.85498	0.10919
595.92642	0.12186
593.99785	0.16102
592.06929	0.26095
590.14072	0.30652
588.21216	0.26273
586.28359	0.28375
584.35503	0.32804
582.42646	0.24623
580.49790	0.14996
578.56934	0.12102
576.64077	0.20616
574.71221	0.37072
572.78364	0.42966
570.85508	0.31124
568.92651	0.22750
566.99795	0.21909
565.06938	0.26660
563.14082	0.34305
561.21226	0.36966
559.28369	0.30344
557.35513	0.24857
555.42656	0.27736
553.49800	0.36210
551.56943	0.38445
549.64087	0.30865
547.71230	0.27434
545.78374	0.24663
543.85518	0.14864
541.92661	0.06234
539.99805	0.06768
538.06948	0.14291
536.14092	0.22100
534.21235	0.21548
532.28379	0.15028
530.35522	0.11357
528.42666	0.11396
526.49810	0.15725
524.56953	0.23926
522.64097	0.29448
520.71240	0.30506
518.78384	0.31149
516.85527	0.28214
514.92671	0.21450
512.99814	0.18211
511.06958	0.19554
509.14102	0.18001
507.21245	0.11299
505.28389	0.10738
503.35532	0.17826
501.42676	0.24515
499.49819	0.23717
