3997.91411	0.05466
3995.98555	0.05531
3994.05698	0.05582
3992.12842	0.05607
3990.19985	0.05647
3988.27129	0.05666
3986.34272	0.05658
3984.41416	0.05670
3982.48560	0.05699
3980.55703	0.05737
3978.62847	0.05786
3976.69990	0.05824
3974.77134	0.05838
3972.84277	0.05852
3970.91421	0.05880
3968.98564	0.05915
3967.05708	0.05923
3965.12852	0.05906
3963.19995	0.05915
3961.27139	0.05943
3959.34282	0.05971
3957.41426	0.06016
3955.48569	0.06045
3953.55713	0.06049
3951.62856	0.06077
3949.70000	0.06127
3947.77144	0.06166
3945.84287	0.06164
3943.91431	0.06132
3941.98574	0.06098
3940.05718	0.06060
3938.12861	0.06027
3936.20005	0.05996
3934.27148	0.05995
3932.34292	0.06098
3930.41436	0.06224
3928.48579	0.06203
3926.55723	0.06111
3924.62866	0.06115
3922.70010	0.06170
3920.77153	0.06184
3918.84297	0.06197
3916.91440	0.06213
3914.98584	0.06156
3913.05728	0.06030
3911.12871	0.05943
3909.20015	0.05931
3907.27158	0.05989
3905.34302	0.06172
3903.41445	0.06430
3901.48589	0.06562
3899.55732	0.06515
3897.62876	0.06359
3895.70020	0.06178
3893.77163	0.06103
3891.84307	0.06193
3889.91450	0.06298
3887.98594	0.06289
3886.05737	0.06321
3884.12881	0.06397
3882.20024	0.06416
3880.27168	0.06459
3878.34312	0.06430
3876.41455	0.06312
3874.48599	0.06364
3872.55742	0.06570
3870.62886	0.06732
3868.70029	0.06812
3866.77173	0.06783
3864.84316	0.06766
3862.91460	0.06800
3860.98604	0.06732
3859.05747	0.06635
3857.12891	0.06676
3855.20034	0.06900
3853.27178	0.07316
3851.34321	0.07509
3849.41465	0.07195
3847.48608	0.06909
3845.55752	0.06852
3843.62896	0.06979
3841.70039	0.07207
3839.77183	0.07487
3837.84326	0.07726
3835.91470	0.07740
3833.98613	0.07613
3832.05757	0.07530
3830.12900	0.07485
3828.20044	0.07487
3826.27187	0.07567
3824.34331	0.07660
3822.41475	0.07850
3820.48618	0.08227
3818.55762	0.08411
3816.62905	0.08388
3814.70049	0.08392
3812.77192	0.08293
3810.84336	0.08189
3808.91479	0.08259
3806.98623	0.08521
3805.05767	0.08782
3803.12910	0.08954
3801.20054	0.09195
3799.27197	0.09331
3797.34341	0.09272
3795.41484	0.09238
3793.48628	0.09198
3791.55771	0.09169
3789.62915	0.09244
3787.70059	0.09406
3785.77202	0.09612
3783.84346	0.09801
3781.91489	0.09961
3779.98633	0.10193
3778.05776	0.10435
3776.12920	0.10507
3774.20063	0.10551
3772.27207	0.10734
3770.34351	0.11059
3768.41494	0.11389
3766.48638	0.11577
3764.55781	0.11714
3762.62925	0.11862
3760.70068	0.12094
3758.77212	0.12472
3756.84355	0.12807
3754.91499	0.13021
3752.98643	0.13361
3751.05786	0.13990
3749.12930	0.14566
3747.20073	0.14703
3745.27217	0.14839
3743.34360	0.15223
3741.41504	0.15503
3739.48647	0.15682
3737.55791	0.16067
3735.62935	0.16786
3733.70078	0.17581
3731.77222	0.17951
3729.84365	0.18089
3727.91509	0.18395
3725.98652	0.18989
3724.05796	0.19724
3722.12939	0.20410
3720.20083	0.21054
3718.27227	0.21688
3716.34370	0.22360
3714.41514	0.23127
3712.48657	0.24177
3710.55801	0.25656
3708.62944	0.27066
3706.70088	0.28092
3704.77231	0.29100
3702.84375	0.30404
3700.91519	0.32148
3698.98662	0.34000
3697.05806	0.35736
3695.12949	0.37622
3693.20093	0.39685
3691.27236	0.41998
3689.34380	0.44931
3687.41523	0.48296
3685.48667	0.51141
3683.55811	0.53667
3681.62954	0.56513
3679.70098	0.59794
3677.77241	0.63291
3675.84385	0.67433
3673.91528	0.72763
3671.98672	0.77058
3670.05815	0.80945
3668.12959	0.86200
3666.20103	0.91008
3664.27246	0.95088
3662.34390	0.99480
3660.41533	1.04245
3658.48677	1.08991
3656.55820	1.14044
3654.62964	1.19612
3652.70107	1.24359
3650.77251	1.28680
3648.84395	1.34559
3646.91538	1.41314
3644.98682	1.46118
3643.05825	1.49898
3641.12969	1.53914
3639.20112	1.58376
3637.27256	1.62851
3635.34399	1.67214
3633.41543	1.71564
3631.48687	1.75670
3629.55830	1.80022
3627.62974	1.85651
3625.70117	1.90565
3623.77261	1.93745
3621.84404	1.96988
3619.91548	2.00995
3617.98691	2.05803
3616.05835	2.10224
3614.12979	2.13893
3612.20122	2.17848
3610.27266	2.21862
3608.34409	2.25840
3606.41553	2.29998
3604.48696	2.33922
3602.55840	2.37548
3600.62983	2.41451
3598.70127	2.45576
3596.77271	2.49553
3594.84414	2.53663
3592.91558	2.57915
3590.98701	2.61900
3589.05845	2.65657
3587.12988	2.70045
3585.20132	2.74794
3583.27275	2.78854
3581.34419	2.82616
3579.41562	2.86653
3577.48706	2.90943
3575.55850	2.95265
3573.62993	2.99672
3571.70137	3.04062
3569.77280	3.08330
3567.84424	3.12757
3565.91567	3.17876
3563.98711	3.22741
3562.05854	3.26824
3560.12998	3.31021
3558.20142	3.35556
3556.27285	3.40132
3554.34429	3.44551
3552.41572	3.49097
3550.48716	3.53802
3548.55859	3.58447
3546.63003	3.63055
3544.70146	3.67854
3542.77290	3.72785
3540.84434	3.77653
3538.91577	3.82544
3536.98721	3.87490
3535.05864	3.92544
3533.13008	3.97317
3531.20151	4.01733
3529.27295	4.06478
3527.34438	4.11841
3525.41582	4.16749
3523.48726	4.20731
3521.55869	4.25054
3519.63013	4.30305
3517.70156	4.35712
3515.77300	4.40516
3513.84443	4.45169
3511.91587	4.50207
3509.98730	4.55337
3508.05874	4.60299
3506.13018	4.65200
3504.20161	4.69967
3502.27305	4.74475
3500.34448	4.79122
3498.41592	4.84002
3496.48735	4.88735
3494.55879	4.93613
3492.63022	4.99056
3490.70166	5.04320
3488.77310	5.08948
3486.84453	5.13541
3484.91597	5.18331
3482.98740	5.22886
3481.05884	5.27348
3479.13027	5.32224
3477.20171	5.37435
3475.27314	5.42911
3473.34458	5.48621
3471.41602	5.54114
3469.48745	5.58835
3467.55889	5.62509
3465.63032	5.66138
3463.70176	5.71265
3461.77319	5.77208
3459.84463	5.82835
3457.91606	5.88022
3455.98750	5.92716
3454.05894	5.97032
3452.13037	6.01567
3450.20181	6.07521
3448.27324	6.13984
3446.34468	6.18720
3444.41611	6.22460
3442.48755	6.27210
3440.55898	6.32643
3438.63042	6.38177
3436.70186	6.43151
3434.77329	6.47292
3432.84473	6.51645
3430.91616	6.56495
3428.98760	6.61626
3427.05903	6.66419
3425.13047	6.71674
3423.20190	6.77555
3421.27334	6.82330
3419.34478	6.86981
3417.41621	6.94271
3415.48765	7.00920
3413.55908	7.04499
3411.63052	7.09869
3409.70195	7.16259
3407.77339	7.19736
3405.84482	7.21066
3403.91626	7.24028
3401.98770	7.28011
3400.05913	7.30613
3398.13057	7.35585
3396.20200	7.44762
3394.27344	7.53068
3392.34487	7.55348
3390.41631	7.54599
3388.48774	7.55262
3386.55918	7.59359
3384.63062	7.65121
3382.70205	7.69760
3380.77349	7.72884
3378.84492	7.74738
3376.91636	7.75835
3374.98779	7.74930
3373.05923	7.74351
3371.13066	7.76907
3369.20210	7.81739
3367.27354	7.83817
3365.34497	7.86398
3363.41641	7.95353
3361.48784	8.05773
3359.55928	8.12403
3357.63071	8.10905
3355.70215	8.04004
3353.77358	7.98154
3351.84502	7.95647
3349.91646	7.95390
3347.98789	7.99161
3346.05933	8.05900
3344.13076	8.10569
3342.20220	8.14855
3340.27363	8.16808
3338.34507	8.14179
3336.41650	8.12876
3334.48794	8.18738
3332.55937	8.24644
3330.63081	8.23506
3328.70225	8.23447
3326.77368	8.29884
3324.84512	8.35447
3322.91655	8.33997
3320.98799	8.29826
3319.05942	8.25347
3317.13086	8.23933
3315.20229	8.26192
3313.27373	8.28745
3311.34517	8.28256
3309.41660	8.29362
3307.48804	8.36102
3305.55947	8.33878
3303.63091	8.18934
3301.70234	8.08194
3299.77378	8.10109
3297.84521	8.20169
3295.91665	8.31454
3293.98809	8.38183
3292.05952	8.44383
3290.13096	8.50877
3288.20239	8.48946
3286.27383	8.45523
3284.34526	8.45743
3282.41670	8.45007
3280.48813	8.40422
3278.55957	8.37559
3276.63101	8.37176
3274.70244	8.35284
3272.77388	8.35820
3270.84531	8.35168
3268.91675	8.29001
3266.98818	8.23521
3265.05962	8.23188
3263.13105	8.26397
3261.20249	8.36582
3259.27393	8.51711
3257.34536	8.53938
3255.41680	8.45084
3253.48823	8.36864
3251.55967	8.28398
3249.63110	8.25060
3247.70254	8.27959
3245.77397	8.29311
3243.84541	8.28348
3241.91685	8.28928
3239.98828	8.36966
3238.05972	8.45572
3236.13115	8.39776
3234.20259	8.31692
3232.27402	8.32401
3230.34546	8.30753
3228.41689	8.22701
3226.48833	8.19613
3224.55977	8.23037
3222.63120	8.24213
3220.70264	8.20905
3218.77407	8.16732
3216.84551	8.12490
3214.91694	8.07110
3212.98838	8.01747
3211.05981	7.99103
3209.13125	7.97767
3207.20269	7.95807
3205.27412	7.96080
3203.34556	7.99671
3201.41699	8.00909
3199.48843	7.92576
3197.55986	7.80369
3195.63130	7.74463
3193.70273	7.73411
3191.77417	7.73376
3189.84561	7.74111
3187.91704	7.71199
3185.98848	7.62459
3184.05991	7.54282
3182.13135	7.49715
3180.20278	7.44312
3178.27422	7.36219
3176.34565	7.27455
3174.41709	7.18321
3172.48853	7.11316
3170.55996	7.08499
3168.63140	7.07161
3166.70283	7.04180
3164.77427	6.99428
3162.84570	6.93161
3160.91714	6.84031
3158.98857	6.73516
3157.06001	6.65285
3155.13145	6.59883
3153.20288	6.53847
3151.27432	6.46607
3149.34575	6.41016
3147.41719	6.35806
3145.48862	6.28616
3143.56006	6.20431
3141.63149	6.12369
3139.70293	6.04315
3137.77437	5.97345
3135.84580	5.91806
3133.91724	5.85621
3131.98867	5.77695
3130.06011	5.69320
3128.13154	5.62340
3126.20298	5.56998
3124.27441	5.51660
3122.34585	5.44918
3120.41729	5.37404
3118.48872	5.30052
3116.56016	5.22428
3114.63159	5.14485
3112.70303	5.07443
3110.77446	5.01366
3108.84590	4.94852
3106.91733	4.87559
3104.98877	4.80190
3103.06021	4.73166
3101.13164	4.66232
3099.20308	4.59167
3097.27451	4.52504
3095.34595	4.46527
3093.41738	4.40385
3091.48882	4.33367
3089.56025	4.26163
3087.63169	4.19578
3085.70312	4.13439
3083.77456	4.07234
3081.84600	4.00898
3079.91743	3.94731
3077.98887	3.88781
3076.06030	3.82735
3074.13174	3.76634
3072.20317	3.70816
3070.27461	3.65108
3068.34604	3.59246
3066.41748	3.53416
3064.48892	3.47700
3062.56035	3.41984
3060.63179	3.36467
3058.70322	3.31200
3056.77466	3.25802
3054.84609	3.20242
3052.91753	3.14848
3050.98896	3.09638
3049.06040	3.04466
3047.13184	2.99382
3045.20327	2.94350
3043.27471	2.89345
3041.34614	2.84473
3039.41758	2.79679
3037.48901	2.74942
3035.56045	2.70311
3033.63188	2.65717
3031.70332	2.61124
3029.77476	2.56553
3027.84619	2.52041
3025.91763	2.47650
3023.98906	2.43351
3022.06050	2.39089
3020.13193	2.34896
3018.20337	2.30818
3016.27480	2.26849
3014.34624	2.22929
3012.41768	2.19022
3010.48911	2.15145
3008.56055	2.11303
3006.63198	2.07513
3004.70342	2.03846
3002.77485	2.00321
3000.84629	1.96825
2998.91772	1.93353
2996.98916	1.90026
2995.06060	1.86790
2993.13203	1.83528
2991.20347	1.80299
2989.27490	1.77183
2987.34634	1.74127
2985.41777	1.71120
2983.48921	1.68207
2981.56064	1.65335
2979.63208	1.62483
2977.70352	1.59729
2975.77495	1.57078
2973.84639	1.54445
2971.91782	1.51772
2969.98926	1.49081
2968.06069	1.46436
2966.13213	1.43901
2964.20356	1.41458
2962.27500	1.39014
2960.34644	1.36523
2958.41787	1.34017
2956.48931	1.31533
2954.56074	1.29066
2952.63218	1.26620
2950.70361	1.24207
2948.77505	1.21841
2946.84648	1.19573
2944.91792	1.17388
2942.98936	1.15213
2941.06079	1.13041
2939.13223	1.10903
2937.20366	1.08806
2935.27510	1.06729
2933.34653	1.04671
2931.41797	1.02651
2929.48940	1.00685
2927.56084	0.98810
2925.63228	0.97002
2923.70371	0.95159
2921.77515	0.93267
2919.84658	0.91416
2917.91802	0.89679
2915.98945	0.88026
2914.06089	0.86406
2912.13232	0.84885
2910.20376	0.83452
2908.27520	0.81988
2906.34663	0.80526
2904.41807	0.79137
2902.48950	0.77799
2900.56094	0.76475
2898.63237	0.75176
2896.70381	0.73939
2894.77524	0.72720
2892.84668	0.71480
2890.91812	0.70284
2888.98955	0.69144
2887.06099	0.68021
2885.13242	0.66928
2883.20386	0.65877
2881.27529	0.64855
2879.34673	0.63848
2877.41816	0.62846
2875.48960	0.61846
2873.56104	0.60822
2871.63247	0.59756
2869.70391	0.58677
2867.77534	0.57588
2865.84678	0.56454
2863.91821	0.55305
2861.98965	0.54205
2860.06108	0.53143
2858.13252	0.52095
2856.20396	0.51102
2854.27539	0.50166
2852.34683	0.49234
2850.41826	0.48310
2848.48970	0.47442
2846.56113	0.46655
2844.63257	0.45959
2842.70400	0.45340
2840.77544	0.44768
2838.84687	0.44226
2836.91831	0.43698
2834.98975	0.43161
2833.06118	0.42611
2831.13262	0.42054
2829.20405	0.41497
2827.27549	0.40936
2825.34692	0.40356
2823.41836	0.39758
2821.48979	0.39167
2819.56123	0.38598
2817.63267	0.38040
2815.70410	0.37481
2813.77554	0.36924
2811.84697	0.36382
2809.91841	0.35857
2807.98984	0.35334
2806.06128	0.34811
2804.13271	0.34298
2802.20415	0.33792
2800.27559	0.33299
2798.34702	0.32826
2796.41846	0.32364
2794.48989	0.31896
2792.56133	0.31428
2790.63276	0.30966
2788.70420	0.30507
2786.77563	0.30058
2784.84707	0.29631
2782.91851	0.29223
2780.98994	0.28818
2779.06138	0.28409
2777.13281	0.28004
2775.20425	0.27619
2773.27568	0.27253
2771.34712	0.26894
2769.41855	0.26534
2767.48999	0.26183
2765.56143	0.25841
2763.63286	0.25498
2761.70430	0.25162
2759.77573	0.24839
2757.84717	0.24527
2755.91860	0.24224
2753.99004	0.23932
2752.06147	0.23648
2750.13291	0.23361
2748.20435	0.23070
2746.27578	0.22787
2744.34722	0.22512
2742.41865	0.22239
2740.49009	0.21964
2738.56152	0.21690
2736.63296	0.21441
2734.70439	0.21211
2732.77583	0.20978
2730.84727	0.20739
2728.91870	0.20501
2726.99014	0.20271
2725.06157	0.20053
2723.13301	0.19844
2721.20444	0.19640
2719.27588	0.19439
2717.34731	0.19249
2715.41875	0.19072
2713.49019	0.18886
2711.56162	0.18690
2709.63306	0.18506
2707.70449	0.18334
2705.77593	0.18173
2703.84736	0.18026
2701.91880	0.17886
2699.99023	0.17743
2698.06167	0.17595
2696.13311	0.17450
2694.20454	0.17309
2692.27598	0.17172
2690.34741	0.17031
2688.41885	0.16891
2686.49028	0.16767
2684.56172	0.16650
2682.63315	0.16539
2680.70459	0.16448
2678.77603	0.16365
2676.84746	0.16262
2674.91890	0.16136
2672.99033	0.16010
2671.06177	0.15908
2669.13320	0.15823
2667.20464	0.15739
2665.27607	0.15654
2663.34751	0.15571
2661.41895	0.15483
2659.49038	0.15397
2657.56182	0.15327
2655.63325	0.15258
2653.70469	0.15183
2651.77612	0.15117
2649.84756	0.15059
2647.91899	0.14998
2645.99043	0.14939
2644.06187	0.14886
2642.13330	0.14844
2640.20474	0.14798
2638.27617	0.14739
2636.34761	0.14681
2634.41904	0.14629
2632.49048	0.14581
2630.56191	0.14547
2628.63335	0.14523
2626.70479	0.14501
2624.77622	0.14479
2622.84766	0.14452
2620.91909	0.14414
2618.99053	0.14389
2617.06196	0.14390
2615.13340	0.14393
2613.20483	0.14372
2611.27627	0.14343
2609.34771	0.14335
2607.41914	0.14335
2605.49058	0.14326
2603.56201	0.14316
2601.63345	0.14318
2599.70488	0.14324
2597.77632	0.14330
2595.84775	0.14352
2593.91919	0.14382
2591.99062	0.14395
2590.06206	0.14391
2588.13350	0.14390
2586.20493	0.14412
2584.27637	0.14440
2582.34780	0.14465
2580.41924	0.14505
2578.49067	0.14548
2576.56211	0.14576
2574.63354	0.14600
2572.70498	0.14626
2570.77642	0.14664
2568.84785	0.14714
2566.91929	0.14758
2564.99072	0.14793
2563.06216	0.14826
2561.13359	0.14870
2559.20503	0.14931
2557.27646	0.14991
2555.34790	0.15043
2553.41934	0.15096
2551.49077	0.15144
2549.56221	0.15190
2547.63364	0.15241
2545.70508	0.15292
2543.77651	0.15352
2541.84795	0.15424
2539.91938	0.15496
2537.99082	0.15562
2536.06226	0.15632
2534.13369	0.15709
2532.20513	0.15786
2530.27656	0.15856
2528.34800	0.15916
2526.41943	0.15972
2524.49087	0.16045
2522.56230	0.16137
2520.63374	0.16228
2518.70518	0.16309
2516.77661	0.16387
2514.84805	0.16469
2512.91948	0.16560
2510.99092	0.16642
2509.06235	0.16710
2507.13379	0.16783
2505.20522	0.16869
2503.27666	0.16962
2501.34810	0.17051
2499.41953	0.17128
2497.49097	0.17205
2495.56240	0.17300
2493.63384	0.17392
2491.70527	0.17474
2489.77671	0.17563
2487.84814	0.17662
2485.91958	0.17753
2483.99102	0.17826
2482.06245	0.17898
2480.13389	0.17991
2478.20532	0.18098
2476.27676	0.18202
2474.34819	0.18296
2472.41963	0.18381
2470.49106	0.18469
2468.56250	0.18576
2466.63394	0.18695
2464.70537	0.18801
2462.77681	0.18886
2460.84824	0.18968
2458.91968	0.19060
2456.99111	0.19161
2455.06255	0.19260
2453.13398	0.19358
2451.20542	0.19464
2449.27686	0.19568
2447.34829	0.19660
2445.41973	0.19753
2443.49116	0.19861
2441.56260	0.19971
2439.63403	0.20075
2437.70547	0.20178
2435.77690	0.20286
2433.84834	0.20387
2431.91978	0.20484
2429.99121	0.20597
2428.06265	0.20710
2426.13408	0.20811
2424.20552	0.20918
2422.27695	0.21038
2420.34839	0.21160
2418.41982	0.21268
2416.49126	0.21372
2414.56270	0.21491
2412.63413	0.21627
2410.70557	0.21767
2408.77700	0.21893
2406.84844	0.22005
2404.91987	0.22124
2402.99131	0.22254
2401.06274	0.22385
2399.13418	0.22501
2397.20562	0.22613
2395.27705	0.22742
2393.34849	0.22878
2391.41992	0.23011
2389.49136	0.23144
2387.56279	0.23295
2385.63423	0.23495
2383.70566	0.23754
2381.77710	0.24056
2379.84854	0.24396
2377.91997	0.24784
2375.99141	0.25243
2374.06284	0.25793
2372.13428	0.26406
2370.20571	0.27008
2368.27715	0.27535
2366.34858	0.28018
2364.42002	0.28532
2362.49146	0.29028
2360.56289	0.29343
2358.63433	0.29448
2356.70576	0.29404
2354.77720	0.29203
2352.84863	0.28909
2350.92007	0.28586
2348.99150	0.28382
2347.06294	0.28454
2345.13437	0.28864
2343.20581	0.29426
2341.27725	0.29786
2339.34868	0.29938
2337.42012	0.30011
2335.49155	0.30051
2333.56299	0.30110
2331.63442	0.30264
2329.70586	0.30440
2327.77729	0.30529
2325.84873	0.30546
2323.92017	0.30537
2321.99160	0.30516
2320.06304	0.30488
2318.13447	0.30454
2316.20591	0.30423
2314.27734	0.30446
2312.34878	0.30540
2310.42021	0.30647
2308.49165	0.30720
2306.56309	0.30768
2304.63452	0.30819
2302.70596	0.30898
2300.77739	0.31022
2298.84883	0.31165
2296.92026	0.31302
2294.99170	0.31428
2293.06313	0.31563
2291.13457	0.31708
2289.20601	0.31846
2287.27744	0.31991
2285.34888	0.32153
2283.42031	0.32326
2281.49175	0.32511
2279.56318	0.32722
2277.63462	0.32952
2275.70605	0.33174
2273.77749	0.33378
2271.84893	0.33578
2269.92036	0.33789
2267.99180	0.34012
2266.06323	0.34241
2264.13467	0.34466
2262.20610	0.34677
2260.27754	0.34882
2258.34897	0.35088
2256.42041	0.35287
2254.49185	0.35487
2252.56328	0.35705
2250.63472	0.35938
2248.70615	0.36165
2246.77759	0.36375
2244.84902	0.36580
2242.92046	0.36791
2240.99189	0.37008
2239.06333	0.37230
2237.13477	0.37453
2235.20620	0.37676
2233.27764	0.37908
2231.34907	0.38141
2229.42051	0.38358
2227.49194	0.38573
2225.56338	0.38800
2223.63481	0.39022
2221.70625	0.39235
2219.77769	0.39455
2217.84912	0.39682
2215.92056	0.39909
2213.99199	0.40138
2212.06343	0.40368
2210.13486	0.40599
2208.20630	0.40826
2206.27773	0.41037
2204.34917	0.41232
2202.42061	0.41431
2200.49204	0.41636
2198.56348	0.41848
2196.63491	0.42062
2194.70635	0.42265
2192.77778	0.42451
2190.84922	0.42631
2188.92065	0.42810
2186.99209	0.42994
2185.06353	0.43181
2183.13496	0.43361
2181.20640	0.43529
2179.27783	0.43699
2177.34927	0.43875
2175.42070	0.44042
2173.49214	0.44192
2171.56357	0.44330
2169.63501	0.44467
2167.70645	0.44610
2165.77788	0.44744
2163.84932	0.44864
2161.92075	0.44977
2159.99219	0.45084
2158.06362	0.45186
2156.13506	0.45289
2154.20649	0.45384
2152.27793	0.45473
2150.34937	0.45558
2148.42080	0.45630
2146.49224	0.45687
2144.56367	0.45735
2142.63511	0.45771
2140.70654	0.45807
2138.77798	0.45849
2136.84941	0.45878
2134.92085	0.45883
2132.99229	0.45863
2131.06372	0.45836
2129.13516	0.45818
2127.20659	0.45805
2125.27803	0.45783
2123.34946	0.45752
2121.42090	0.45718
2119.49233	0.45679
2117.56377	0.45628
2115.63521	0.45557
2113.70664	0.45465
2111.77808	0.45370
2109.84951	0.45273
2107.92095	0.45171
2105.99238	0.45069
2104.06382	0.44966
2102.13525	0.44851
2100.20669	0.44715
2098.27812	0.44558
2096.34956	0.44393
2094.42100	0.44236
2092.49243	0.44086
2090.56387	0.43935
2088.63530	0.43770
2086.70674	0.43587
2084.77817	0.43388
2082.84961	0.43180
2080.92104	0.42972
2078.99248	0.42772
2077.06392	0.42572
2075.13535	0.42369
2073.20679	0.42164
2071.27822	0.41943
2069.34966	0.41707
2067.42109	0.41469
2065.49253	0.41239
2063.56396	0.41007
2061.63540	0.40761
2059.70684	0.40506
2057.77827	0.40241
2055.84971	0.39976
2053.92114	0.39716
2051.99258	0.39459
2050.06401	0.39193
2048.13545	0.38931
2046.20688	0.38677
2044.27832	0.38419
2042.34976	0.38148
2040.42119	0.37866
2038.49263	0.37581
2036.56406	0.37298
2034.63550	0.37023
2032.70693	0.36746
2030.77837	0.36472
2028.84980	0.36200
2026.92124	0.35919
2024.99268	0.35635
2023.06411	0.35354
2021.13555	0.35073
2019.20698	0.34804
2017.27842	0.34540
2015.34985	0.34253
2013.42129	0.33955
2011.49272	0.33665
2009.56416	0.33388
2007.63560	0.33120
2005.70703	0.32856
2003.77847	0.32587
2001.84990	0.32313
1999.92134	0.32042
1997.99277	0.31775
1996.06421	0.31516
1994.13564	0.31274
1992.20708	0.31046
1990.27852	0.30800
1988.34995	0.30533
1986.42139	0.30265
1984.49282	0.30011
1982.56426	0.29771
1980.63569	0.29532
1978.70713	0.29300
1976.77856	0.29076
1974.85000	0.28850
1972.92144	0.28622
1970.99287	0.28399
1969.06431	0.28204
1967.13574	0.28025
1965.20718	0.27821
1963.27861	0.27604
1961.35005	0.27401
1959.42148	0.27204
1957.49292	0.27015
1955.56436	0.26837
1953.63579	0.26666
1951.70723	0.26498
1949.77866	0.26330
1947.85010	0.26165
1945.92153	0.26020
1943.99297	0.25899
1942.06440	0.25764
1940.13584	0.25586
1938.20728	0.25409
1936.27871	0.25267
1934.35015	0.25141
1932.42158	0.25018
1930.49302	0.24891
1928.56445	0.24765
1926.63589	0.24651
1924.70732	0.24568
1922.77876	0.24498
1920.85020	0.24407
1918.92163	0.24315
1916.99307	0.24219
1915.06450	0.24104
1913.13594	0.24002
1911.20737	0.23939
1909.27881	0.23888
1907.35024	0.23818
1905.42168	0.23738
1903.49312	0.23664
1901.56455	0.23591
1899.63599	0.23527
1897.70742	0.23493
1895.77886	0.23481
1893.85029	0.23463
1891.92173	0.23426
1889.99316	0.23407
1888.06460	0.23386
1886.13604	0.23338
1884.20747	0.23297
1882.27891	0.23272
1880.35034	0.23256
1878.42178	0.23248
1876.49321	0.23249
1874.56465	0.23245
1872.63608	0.23250
1870.70752	0.23308
1868.77896	0.23425
1866.85039	0.23471
1864.92183	0.23419
1862.99326	0.23381
1861.06470	0.23384
1859.13613	0.23418
1857.20757	0.23460
1855.27900	0.23497
1853.35044	0.23533
1851.42187	0.23595
1849.49331	0.23682
1847.56475	0.23786
1845.63618	0.23910
1843.70762	0.24029
1841.77905	0.24072
1839.85049	0.24077
1837.92192	0.24141
1835.99336	0.24238
1834.06479	0.24338
1832.13623	0.24462
1830.20767	0.24643
1828.27910	0.24804
1826.35054	0.24893
1824.42197	0.25003
1822.49341	0.25110
1820.56484	0.25210
1818.63628	0.25336
1816.70771	0.25498
1814.77915	0.25672
1812.85059	0.25870
1810.92202	0.26105
1808.99346	0.26320
1807.06489	0.26496
1805.13633	0.26673
1803.20776	0.26905
1801.27920	0.27195
1799.35063	0.27499
1797.42207	0.27748
1795.49351	0.27992
1793.56494	0.28311
1791.63638	0.28706
1789.70781	0.29018
1787.77925	0.29230
1785.85068	0.29522
1783.92212	0.29898
1781.99355	0.30316
1780.06499	0.30756
1778.13643	0.31188
1776.20786	0.31602
1774.27930	0.32079
1772.35073	0.32723
1770.42217	0.33360
1768.49360	0.33842
1766.56504	0.34311
1764.63647	0.34833
1762.70791	0.35445
1760.77935	0.36206
1758.85078	0.36908
1756.92222	0.37618
1754.99365	0.38389
1753.06509	0.39113
1751.13652	0.40008
1749.20796	0.41084
1747.27939	0.42070
1745.35083	0.42935
1743.42227	0.43875
1741.49370	0.44927
1739.56514	0.46166
1737.63657	0.47412
1735.70801	0.48546
1733.77944	0.50244
1731.85088	0.52184
1729.92231	0.53690
1727.99375	0.55246
1726.06519	0.56957
1724.13662	0.58840
1722.20806	0.60873
1720.27949	0.62810
1718.35093	0.65132
1716.42236	0.68397
1714.49380	0.71380
1712.56523	0.73813
1710.63667	0.76228
1708.70811	0.78857
1706.77954	0.81855
1704.85098	0.85384
1702.92241	0.88540
1700.99385	0.91726
1699.06528	0.96425
1697.13672	1.00720
1695.20815	1.05010
1693.27959	1.09194
1691.35103	1.12658
1689.42246	1.16712
1687.49390	1.21011
1685.56533	1.25197
1683.63677	1.31449
1681.70820	1.37881
1679.77964	1.42096
1677.85107	1.46136
1675.92251	1.50805
1673.99395	1.56521
1672.06538	1.61618
1670.13682	1.66620
1668.20825	1.73073
1666.27969	1.78432
1664.35112	1.83049
1662.42256	1.88788
1660.49399	1.95251
1658.56543	2.00424
1656.63687	2.04668
1654.70830	2.08507
1652.77974	2.14279
1650.85117	2.19960
1648.92261	2.22189
1646.99404	2.24681
1645.06548	2.27242
1643.13691	2.28973
1641.20835	2.29983
1639.27979	2.30921
1637.35122	2.31480
1635.42266	2.31356
1633.49409	2.30627
1631.56553	2.29290
1629.63696	2.27520
1627.70840	2.24663
1625.77983	2.21450
1623.85127	2.17385
1621.92271	2.12187
1619.99414	2.07467
1618.06558	2.03076
1616.13701	1.96971
1614.20845	1.90464
1612.27988	1.85345
1610.35132	1.80119
1608.42275	1.74538
1606.49419	1.69031
1604.56562	1.63923
1602.63706	1.58992
1600.70850	1.54176
1598.77993	1.49707
1596.85137	1.45499
1594.92280	1.41454
1592.99424	1.37587
1591.06567	1.34046
1589.13711	1.30760
1587.20854	1.27741
1585.27998	1.24939
1583.35142	1.22302
1581.42285	1.19929
1579.49429	1.17959
1577.56572	1.16248
1575.63716	1.14179
1573.70859	1.12257
1571.78003	1.10968
1569.85146	1.09746
1567.92290	1.08451
1565.99434	1.07455
1564.06577	1.06714
1562.13721	1.06200
1560.20864	1.06007
1558.28008	1.05948
1556.35151	1.05704
1554.42295	1.05462
1552.49438	1.05268
1550.56582	1.04980
1548.63726	1.04492
1546.70869	1.03845
1544.78013	1.03036
1542.85156	1.02011
1540.92300	1.00483
1538.99443	0.97931
1537.06587	0.95862
1535.13730	0.94491
1533.20874	0.92833
1531.28018	0.91030
1529.35161	0.89665
1527.42305	0.88420
1525.49448	0.87164
1523.56592	0.86101
1521.63735	0.85100
1519.70879	0.84039
1517.78022	0.83096
1515.85166	0.82029
1513.92310	0.80897
1511.99453	0.79924
1510.06597	0.79099
1508.13740	0.78359
1506.20884	0.77181
1504.28027	0.75944
1502.35171	0.75176
1500.42314	0.74574
1498.49458	0.73993
1496.56602	0.73317
1494.63745	0.72596
1492.70889	0.72038
1490.78032	0.71621
1488.85176	0.71151
1486.92319	0.70592
1484.99463	0.70085
1483.06606	0.69698
1481.13750	0.69397
1479.20894	0.69156
1477.28037	0.69010
1475.35181	0.68970
1473.42324	0.68978
1471.49468	0.68829
1469.56611	0.68495
1467.63755	0.68185
1465.70898	0.67969
1463.78042	0.67801
1461.85186	0.67676
1459.92329	0.67662
1457.99473	0.67753
1456.06616	0.67701
1454.13760	0.67407
1452.20903	0.67121
1450.28047	0.66876
1448.35190	0.66654
1446.42334	0.66411
1444.49478	0.66157
1442.56621	0.65930
1440.63765	0.65720
1438.70908	0.65531
1436.78052	0.65323
1434.85195	0.65040
1432.92339	0.64771
1430.99482	0.64590
1429.06626	0.64478
1427.13770	0.64415
1425.20913	0.64416
1423.28057	0.64465
1421.35200	0.64510
1419.42344	0.64560
1417.49487	0.64544
1415.56631	0.64398
1413.63774	0.64271
1411.70918	0.64231
1409.78062	0.64252
1407.85205	0.64310
1405.92349	0.64413
1403.99492	0.64505
1402.06636	0.64499
1400.13779	0.64427
1398.20923	0.64305
1396.28066	0.64104
1394.35210	0.63788
1392.42354	0.63382
1390.49497	0.62992
1388.56641	0.62632
1386.63784	0.62221
1384.70928	0.61762
1382.78071	0.61341
1380.85215	0.60961
1378.92358	0.60623
1376.99502	0.60372
1375.06646	0.60220
1373.13789	0.60097
1371.20933	0.59974
1369.28076	0.59872
1367.35220	0.59752
1365.42363	0.59609
1363.49507	0.59498
1361.56650	0.59394
1359.63794	0.59244
1357.70937	0.59091
1355.78081	0.58966
1353.85225	0.58858
1351.92368	0.58764
1349.99512	0.58688
1348.06655	0.58619
1346.13799	0.58534
1344.20942	0.58442
1342.28086	0.58375
1340.35229	0.58337
1338.42373	0.58273
1336.49517	0.58177
1334.56660	0.58103
1332.63804	0.58068
1330.70947	0.58059
1328.78091	0.58069
1326.85234	0.58092
1324.92378	0.58122
1322.99521	0.58153
1321.06665	0.58188
1319.13809	0.58229
1317.20952	0.58253
1315.28096	0.58244
1313.35239	0.58198
1311.42383	0.58135
1309.49526	0.58080
1307.56670	0.58021
1305.63813	0.57952
1303.70957	0.57878
1301.78101	0.57792
1299.85244	0.57694
1297.92388	0.57588
1295.99531	0.57469
1294.06675	0.57340
1292.13818	0.57215
1290.20962	0.57095
1288.28105	0.56974
1286.35249	0.56858
1284.42393	0.56767
1282.49536	0.56678
1280.56680	0.56564
1278.63823	0.56444
1276.70967	0.56336
1274.78110	0.56232
1272.85254	0.56141
1270.92397	0.56071
1268.99541	0.56012
1267.06685	0.55952
1265.13828	0.55880
1263.20972	0.55803
1261.28115	0.55731
1259.35259	0.55674
1257.42402	0.55631
1255.49546	0.55598
1253.56689	0.55595
1251.63833	0.55623
1249.70977	0.55649
1247.78120	0.55649
1245.85264	0.55637
1243.92407	0.55618
1241.99551	0.55563
1240.06694	0.55458
1238.13838	0.55312
1236.20981	0.55138
1234.28125	0.54950
1232.35269	0.54768
1230.42412	0.54595
1228.49556	0.54417
1226.56699	0.54233
1224.63843	0.54075
1222.70986	0.53953
1220.78130	0.53843
1218.85273	0.53731
1216.92417	0.53610
1214.99561	0.53494
1213.06704	0.53403
1211.13848	0.53335
1209.20991	0.53270
1207.28135	0.53186
1205.35278	0.53093
1203.42422	0.53014
1201.49565	0.52944
1199.56709	0.52867
1197.63853	0.52801
1195.70996	0.52765
1193.78140	0.52730
1191.85283	0.52674
1189.92427	0.52619
1187.99570	0.52578
1186.06714	0.52550
1184.13857	0.52542
1182.21001	0.52570
1180.28145	0.52644
1178.35288	0.52755
1176.42432	0.52872
1174.49575	0.52958
1172.56719	0.52997
1170.63862	0.53005
1168.71006	0.53007
1166.78149	0.52996
1164.85293	0.52966
1162.92437	0.52933
1160.99580	0.52892
1159.06724	0.52830
1157.13867	0.52763
1155.21011	0.52687
1153.28154	0.52568
1151.35298	0.52405
1149.42441	0.52223
1147.49585	0.52034
1145.56729	0.51835
1143.63872	0.51633
1141.71016	0.51455
1139.78159	0.51304
1137.85303	0.51159
1135.92446	0.51009
1133.99590	0.50864
1132.06733	0.50738
1130.13877	0.50631
1128.21021	0.50527
1126.28164	0.50409
1124.35308	0.50280
1122.42451	0.50157
1120.49595	0.50066
1118.56738	0.50018
1116.63882	0.49990
1114.71025	0.49979
1112.78169	0.49998
1110.85312	0.50037
1108.92456	0.50090
1106.99600	0.50176
1105.06743	0.50304
1103.13887	0.50456
1101.21030	0.50620
1099.28174	0.50807
1097.35317	0.51042
1095.42461	0.51338
1093.49604	0.51701
1091.56748	0.52130
1089.63892	0.52639
1087.71035	0.53221
1085.78179	0.53838
1083.85322	0.54489
1081.92466	0.55144
1079.99609	0.55684
1078.06753	0.55998
1076.13896	0.56044
1074.21040	0.55822
1072.28184	0.55366
1070.35327	0.54762
1068.42471	0.54114
1066.49614	0.53459
1064.56758	0.52820
1062.63901	0.52235
1060.71045	0.51717
1058.78188	0.51253
1056.85332	0.50839
1054.92476	0.50491
1052.99619	0.50199
1051.06763	0.49940
1049.13906	0.49710
1047.21050	0.49513
1045.28193	0.49346
1043.35337	0.49214
1041.42480	0.49119
1039.49624	0.49049
1037.56768	0.48996
1035.63911	0.48946
1033.71055	0.48878
1031.78198	0.48818
1029.85342	0.48790
1027.92485	0.48779
1025.99629	0.48767
1024.06772	0.48763
1022.13916	0.48790
1020.21060	0.48844
1018.28203	0.48898
1016.35347	0.48951
1014.42490	0.49011
1012.49634	0.49072
1010.56777	0.49152
1008.63921	0.49270
1006.71064	0.49439
1004.78208	0.49642
1002.85352	0.49857
1000.92495	0.50101
998.99639	0.50398
997.06782	0.50757
995.13926	0.51161
993.21069	0.51566
991.28213	0.51929
989.35356	0.52211
987.42500	0.52378
985.49644	0.52444
983.56787	0.52481
981.63931	0.52549
979.71074	0.52678
977.78218	0.52874
975.85361	0.53125
973.92505	0.53406
971.99648	0.53689
970.06792	0.53994
968.13936	0.54371
966.21079	0.54816
964.28223	0.55273
962.35366	0.55736
960.42510	0.56251
958.49653	0.56830
956.56797	0.57427
954.63940	0.58028
952.71084	0.58655
950.78228	0.59303
948.85371	0.59953
946.92515	0.60596
944.99658	0.61216
943.06802	0.61838
941.13945	0.62471
939.21089	0.63069
937.28232	0.63646
935.35376	0.64244
933.42520	0.64834
931.49663	0.65410
929.56807	0.65986
927.63950	0.66546
925.71094	0.67132
923.78237	0.67783
921.85381	0.68418
919.92524	0.69002
917.99668	0.69640
916.06812	0.70381
914.13955	0.71161
912.21099	0.71944
910.28242	0.72757
908.35386	0.73622
906.42529	0.74533
904.49673	0.75461
902.56816	0.76339
900.63960	0.77213
898.71104	0.78244
896.78247	0.79369
894.85391	0.80376
892.92534	0.81301
890.99678	0.82257
889.06821	0.83274
887.13965	0.84435
885.21108	0.85665
883.28252	0.86833
881.35396	0.87938
879.42539	0.88983
877.49683	0.90114
875.56826	0.91427
873.63970	0.92671
871.71113	0.93716
869.78257	0.94745
867.85400	0.95887
865.92544	0.97067
863.99687	0.98157
862.06831	0.99311
860.13975	1.00688
858.21118	1.02006
856.28262	1.03145
854.35405	1.04333
852.42549	1.05497
850.49692	1.06553
848.56836	1.07738
846.63979	1.09106
844.71123	1.10440
842.78267	1.11541
840.85410	1.12557
838.92554	1.13739
836.99697	1.14935
835.06841	1.15922
833.13984	1.16842
831.21128	1.17856
829.28271	1.18839
827.35415	1.19730
825.42559	1.20733
823.49702	1.22046
821.56846	1.23432
819.63989	1.24538
817.71133	1.25273
815.78276	1.26084
813.85420	1.27470
811.92563	1.28872
809.99707	1.29877
808.06851	1.30933
806.13994	1.32117
804.21138	1.33339
802.28281	1.34337
800.35425	1.34124
798.42568	1.34295
796.49712	1.37276
794.56855	1.39727
792.63999	1.39214
790.71143	1.39198
788.78286	1.39078
786.85430	1.37913
784.92573	1.38504
782.99717	1.39938
781.06860	1.39780
779.14004	1.40097
777.21147	1.45982
775.28291	1.59524
773.35435	1.71250
771.42578	1.68978
769.49722	1.61378
767.56865	1.51623
765.64009	1.45030
763.71152	1.42809
761.78296	1.43614
759.85439	1.45585
757.92583	1.49546
755.99727	1.49134
754.06870	1.44650
752.14014	1.37023
750.21157	1.23714
748.28301	1.12459
746.35444	1.08962
744.42588	1.08710
742.49731	1.03758
740.56875	0.94899
738.64019	0.88629
736.71162	0.80108
734.78306	0.64741
732.85449	0.53903
730.92593	0.49212
728.99736	0.44686
727.06880	0.41702
725.14023	0.43510
723.21167	0.42039
721.28311	0.31286
719.35454	0.25004
717.42598	0.28612
715.49741	0.24084
713.56885	0.13071
711.64028	0.09342
709.71172	0.03879
707.78315	-0.14866
705.85459	-0.25681
703.92603	-0.05069
701.99746	0.12522
700.06890	0.22486
698.14033	0.22832
696.21177	0.23033
694.28320	0.21377
692.35464	0.15768
690.42607	0.14389
688.49751	0.16725
686.56895	0.12927
684.64038	0.06979
682.71182	0.08062
680.78325	0.14653
678.85469	0.17353
676.92612	0.19607
674.99756	0.22675
673.06899	0.21462
671.14043	0.22051
669.21187	0.23064
667.28330	0.17854
665.35474	0.15274
663.42617	0.15162
661.49761	0.11959
659.56904	0.11840
657.64048	0.14754
655.71191	0.16091
653.78335	0.21334
651.85479	0.35915
649.92622	0.49236
647.99766	0.35986
646.06909	0.19850
644.14053	0.16802
642.21196	0.23065
640.28340	0.26642
638.35483	0.21584
636.42627	0.14203
634.49771	0.05797
632.56914	0.04066
630.64058	0.12289
628.71201	0.24447
626.78345	0.34258
624.85488	0.34849
622.92632	0.30754
620.99775	0.24067
619.06919	0.16018
617.14062	0.12501
615.21206	0.15419
613.28350	0.25104
611.35493	0.27596
609.42637	0.17021
607.49780	0.09293
605.56924	0.09995
603.64067	0.12670
601.71211	0.14520
599.78354	0.18354
597.85498	0.25859
595.92642	0.33182
593.99785	0.35568
592.06929	0.34796
590.14072	0.28761
588.21216	0.20089
586.28359	0.14041
584.35503	0.13320
582.42646	0.14721
580.49790	0.13698
578.56934	0.15190
576.64077	0.20290
574.71221	0.19969
572.78364	0.17174
570.85508	0.18291
568.92651	0.18946
566.99795	0.17007
565.06938	0.18626
563.14082	0.23038
561.21226	0.23941
559.28369	0.20487
557.35513	0.17212
555.42656	0.18318
553.49800	0.23537
551.56943	0.26982
549.64087	0.26456
547.71230	0.27096
545.78374	0.28444
543.85518	0.22569
541.92661	0.15970
539.99805	0.17803
538.06948	0.25147
536.14092	0.26712
534.21235	0.25695
532.28379	0.25636
530.35522	0.18475
528.42666	0.07784
526.49810	0.03270
524.56953	0.05308
522.64097	0.10402
520.71240	0.16157
518.78384	0.19667
516.85527	0.17444
514.92671	0.15332
512.99814	0.16867
511.06958	0.17852
509.14102	0.15501
507.21245	0.14532
505.28389	0.21195
503.35532	0.29556
501.42676	0.28067
499.49819	0.22867
