3997.91411	0.07019
3995.98555	0.07043
3994.05698	0.07051
3992.12842	0.07087
3990.19985	0.07146
3988.27129	0.07179
3986.34272	0.07178
3984.41416	0.07188
3982.48560	0.07218
3980.55703	0.07244
3978.62847	0.07242
3976.69990	0.07241
3974.77134	0.07278
3972.84277	0.07318
3970.91421	0.07344
3968.98564	0.07382
3967.05708	0.07407
3965.12852	0.07404
3963.19995	0.07407
3961.27139	0.07426
3959.34282	0.07436
3957.41426	0.07455
3955.48569	0.07490
3953.55713	0.07499
3951.62856	0.07495
3949.70000	0.07526
3947.77144	0.07538
3945.84287	0.07497
3943.91431	0.07502
3941.98574	0.07547
3940.05718	0.07527
3938.12861	0.07465
3936.20005	0.07424
3934.27148	0.07442
3932.34292	0.07523
3930.41436	0.07570
3928.48579	0.07521
3926.55723	0.07472
3924.62866	0.07497
3922.70010	0.07518
3920.77153	0.07477
3918.84297	0.07445
3916.91440	0.07438
3914.98584	0.07400
3913.05728	0.07357
3911.12871	0.07349
3909.20015	0.07364
3907.27158	0.07412
3905.34302	0.07497
3903.41445	0.07581
3901.48589	0.07617
3899.55732	0.07616
3897.62876	0.07573
3895.70020	0.07502
3893.77163	0.07487
3891.84307	0.07570
3889.91450	0.07631
3887.98594	0.07565
3886.05737	0.07520
3884.12881	0.07566
3882.20024	0.07594
3880.27168	0.07582
3878.34312	0.07544
3876.41455	0.07513
3874.48599	0.07564
3872.55742	0.07670
3870.62886	0.07769
3868.70029	0.07830
3866.77173	0.07801
3864.84316	0.07789
3862.91460	0.07832
3860.98604	0.07823
3859.05747	0.07813
3857.12891	0.07870
3855.20034	0.07979
3853.27178	0.08133
3851.34321	0.08228
3849.41465	0.08167
3847.48608	0.08101
3845.55752	0.08107
3843.62896	0.08170
3841.70039	0.08255
3839.77183	0.08370
3837.84326	0.08534
3835.91470	0.08639
3833.98613	0.08628
3832.05757	0.08598
3830.12900	0.08596
3828.20044	0.08631
3826.27187	0.08727
3824.34331	0.08849
3822.41475	0.08989
3820.48618	0.09196
3818.55762	0.09336
3816.62905	0.09368
3814.70049	0.09368
3812.77192	0.09343
3810.84336	0.09363
3808.91479	0.09456
3806.98623	0.09623
3805.05767	0.09810
3803.12910	0.09950
3801.20054	0.10119
3799.27197	0.10272
3797.34341	0.10324
3795.41484	0.10365
3793.48628	0.10417
3791.55771	0.10511
3789.62915	0.10645
3787.70059	0.10766
3785.77202	0.10902
3783.84346	0.11072
3781.91489	0.11236
3779.98633	0.11418
3778.05776	0.11625
3776.12920	0.11755
3774.20063	0.11836
3772.27207	0.11965
3770.34351	0.12176
3768.41494	0.12423
3766.48638	0.12610
3764.55781	0.12778
3762.62925	0.12973
3760.70068	0.13221
3758.77212	0.13536
3756.84355	0.13811
3754.91499	0.14012
3752.98643	0.14274
3751.05786	0.14673
3749.12930	0.15095
3747.20073	0.15365
3745.27217	0.15607
3743.34360	0.15985
3741.41504	0.16373
3739.48647	0.16693
3737.55791	0.17077
3735.62935	0.17614
3733.70078	0.18218
3731.77222	0.18698
3729.84365	0.19124
3727.91509	0.19589
3725.98652	0.20153
3724.05796	0.20792
3722.12939	0.21437
3720.20083	0.22071
3718.27227	0.22684
3716.34370	0.23338
3714.41514	0.24075
3712.48657	0.25058
3710.55801	0.26473
3708.62944	0.27926
3706.70088	0.29081
3704.77231	0.30195
3702.84375	0.31520
3700.91519	0.33218
3698.98662	0.35050
3697.05806	0.36775
3695.12949	0.38606
3693.20093	0.40608
3691.27236	0.42818
3689.34380	0.45562
3687.41523	0.48865
3685.48667	0.51878
3683.55811	0.54534
3681.62954	0.57391
3679.70098	0.60627
3677.77241	0.64018
3675.84385	0.67921
3673.91528	0.73020
3671.98672	0.77361
3670.05815	0.81343
3668.12959	0.86628
3666.20103	0.91463
3664.27246	0.95526
3662.34390	0.99866
3660.41533	1.04542
3658.48677	1.09198
3656.55820	1.14223
3654.62964	1.19782
3652.70107	1.24459
3650.77251	1.28586
3648.84395	1.34147
3646.91538	1.40722
3644.98682	1.45679
3643.05825	1.49648
3641.12969	1.53727
3639.20112	1.58175
3637.27256	1.62672
3635.34399	1.67079
3633.41543	1.71440
3631.48687	1.75531
3629.55830	1.79738
3627.62974	1.85109
3625.70117	1.90077
3623.77261	1.93536
3621.84404	1.96920
3619.91548	2.00769
3617.98691	2.05217
3616.05835	2.09492
3614.12979	2.13192
3612.20122	2.17101
3610.27266	2.21096
3608.34409	2.25085
3606.41553	2.29261
3604.48696	2.33286
3602.55840	2.36995
3600.62983	2.40876
3598.70127	2.44935
3596.77271	2.48915
3594.84414	2.53048
3592.91558	2.57287
3590.98701	2.61155
3589.05845	2.64727
3587.12988	2.69075
3585.20132	2.73958
3583.27275	2.78157
3581.34419	2.81963
3579.41562	2.85940
3577.48706	2.90168
3575.55850	2.94506
3573.62993	2.98937
3571.70137	3.03253
3569.77280	3.07355
3567.84424	3.11572
3565.91567	3.16593
3563.98711	3.21604
3562.05854	3.25825
3560.12998	3.30053
3558.20142	3.34637
3556.27285	3.39326
3554.34429	3.43945
3552.41572	3.48690
3550.48716	3.53309
3548.55859	3.57686
3546.63003	3.62269
3544.70146	3.67296
3542.77290	3.72192
3540.84434	3.76652
3538.91577	3.81131
3536.98721	3.85623
3535.05864	3.90213
3533.13008	3.95168
3531.20151	4.00351
3529.27295	4.05351
3527.34438	4.10226
3525.41582	4.15063
3523.48726	4.19735
3521.55869	4.24402
3519.63013	4.29182
3517.70156	4.34152
3515.77300	4.39118
3513.84443	4.43973
3511.91587	4.48822
3509.98730	4.53790
3508.05874	4.58740
3506.13018	4.63357
3504.20161	4.67945
3502.27305	4.73052
3500.34448	4.78169
3498.41592	4.82668
3496.48735	4.87236
3494.55879	4.92175
3492.63022	4.96778
3490.70166	5.01082
3488.77310	5.06281
3486.84453	5.12150
3484.91597	5.17096
3482.98740	5.21276
3481.05884	5.25687
3479.13027	5.29968
3477.20171	5.34038
3475.27314	5.38798
3473.34458	5.43966
3471.41602	5.48862
3469.48745	5.53475
3467.55889	5.57800
3465.63032	5.62678
3463.70176	5.68962
3461.77319	5.75636
3459.84463	5.81462
3457.91606	5.86405
3455.98750	5.91116
3454.05894	5.95816
3452.13037	6.00392
3450.20181	6.05454
3448.27324	6.11546
3446.34468	6.17753
3444.41611	6.22387
3442.48755	6.26677
3440.55898	6.31252
3438.63042	6.34264
3436.70186	6.37072
3434.77329	6.42514
3432.84473	6.49384
3430.91616	6.54698
3428.98760	6.58557
3427.05903	6.61745
3425.13047	6.65217
3423.20190	6.70325
3421.27334	6.76701
3419.34478	6.83617
3417.41621	6.91596
3415.48765	6.97817
3413.55908	6.99743
3411.63052	7.02047
3409.70195	7.06651
3407.77339	7.12344
3405.84482	7.19129
3403.91626	7.25372
3401.98770	7.29045
3400.05913	7.30781
3398.13057	7.33006
3396.20200	7.37504
3394.27344	7.43077
3392.34487	7.47618
3390.41631	7.50830
3388.48774	7.51081
3386.55918	7.51821
3384.63062	7.55069
3382.70205	7.57510
3380.77349	7.59692
3378.84492	7.63913
3376.91636	7.70770
3374.98779	7.77062
3373.05923	7.80192
3371.13066	7.80678
3369.20210	7.79895
3367.27354	7.79462
3365.34497	7.80525
3363.41641	7.82063
3361.48784	7.87612
3359.55928	7.97415
3357.63071	8.00329
3355.70215	7.96523
3353.77358	7.94456
3351.84502	7.96255
3349.91646	7.99891
3347.98789	8.03449
3346.05933	8.03215
3344.13076	7.99557
3342.20220	7.96131
3340.27363	7.94857
3338.34507	8.00952
3336.41650	8.09759
3334.48794	8.13379
3332.55937	8.14801
3330.63081	8.16014
3328.70225	8.13714
3326.77368	8.13152
3324.84512	8.18328
3322.91655	8.19164
3320.98799	8.17877
3319.05942	8.22950
3317.13086	8.26604
3315.20229	8.22175
3313.27373	8.20584
3311.34517	8.23550
3309.41660	8.21126
3307.48804	8.17343
3305.55947	8.17846
3303.63091	8.20694
3301.70234	8.22105
3299.77378	8.18969
3297.84521	8.18128
3295.91665	8.26694
3293.98809	8.35931
3292.05952	8.38058
3290.13096	8.34548
3288.20239	8.31086
3286.27383	8.31388
3284.34526	8.30327
3282.41670	8.31157
3280.48813	8.35466
3278.55957	8.39076
3276.63101	8.41567
3274.70244	8.39275
3272.77388	8.34207
3270.84531	8.34867
3268.91675	8.42829
3266.98818	8.50503
3265.05962	8.49462
3263.13105	8.39211
3261.20249	8.27663
3259.27393	8.24010
3257.34536	8.33033
3255.41680	8.45705
3253.48823	8.47993
3251.55967	8.44523
3249.63110	8.41334
3247.70254	8.35188
3245.77397	8.31098
3243.84541	8.32984
3241.91685	8.30970
3239.98828	8.25228
3238.05972	8.23538
3236.13115	8.24652
3234.20259	8.28429
3232.27402	8.29792
3230.34546	8.20787
3228.41689	8.09502
3226.48833	8.05629
3224.55977	8.10115
3222.63120	8.16784
3220.70264	8.15790
3218.77407	8.11943
3216.84551	8.12553
3214.91694	8.10755
3212.98838	8.03684
3211.05981	8.00258
3209.13125	8.01038
3207.20269	7.98501
3205.27412	7.96279
3203.34556	7.95523
3201.41699	7.90516
3199.48843	7.84242
3197.55986	7.79692
3195.63130	7.76729
3193.70273	7.74864
3191.77417	7.70154
3189.84561	7.62459
3187.91704	7.55261
3185.98848	7.48772
3184.05991	7.42531
3182.13135	7.36075
3180.20278	7.30685
3178.27422	7.28911
3176.34565	7.28772
3174.41709	7.26043
3172.48853	7.19398
3170.55996	7.11215
3168.63140	7.05616
3166.70283	7.01805
3164.77427	6.95515
3162.84570	6.87718
3160.91714	6.81345
3158.98857	6.75581
3157.06001	6.69197
3155.13145	6.61854
3153.20288	6.53678
3151.27432	6.46080
3149.34575	6.38652
3147.41719	6.31625
3145.48862	6.26259
3143.56006	6.20194
3141.63149	6.12091
3139.70293	6.04444
3137.77437	5.98671
3135.84580	5.93239
3133.91724	5.86867
3131.98867	5.79809
3130.06011	5.73099
3128.13154	5.66578
3126.20298	5.58658
3124.27441	5.50162
3122.34585	5.42305
3120.41729	5.34603
3118.48872	5.27065
3116.56016	5.20104
3114.63159	5.13441
3112.70303	5.06599
3110.77446	4.99672
3108.84590	4.92759
3106.91733	4.86014
3104.98877	4.79664
3103.06021	4.73296
3101.13164	4.66486
3099.20308	4.59917
3097.27451	4.53906
3095.34595	4.47602
3093.41738	4.40839
3091.48882	4.34012
3089.56025	4.27162
3087.63169	4.20413
3085.70312	4.13952
3083.77456	4.07832
3081.84600	4.01898
3079.91743	3.95926
3077.98887	3.90022
3076.06030	3.84211
3074.13174	3.78436
3072.20317	3.72633
3070.27461	3.66612
3068.34604	3.60716
3066.41748	3.55169
3064.48892	3.49648
3062.56035	3.44106
3060.63179	3.38639
3058.70322	3.33193
3056.77466	3.27752
3054.84609	3.22311
3052.91753	3.16891
3050.98896	3.11663
3049.06040	3.06633
3047.13184	3.01627
3045.20327	2.96639
3043.27471	2.91743
3041.34614	2.86938
3039.41758	2.82191
3037.48901	2.77475
3035.56045	2.72748
3033.63188	2.68072
3031.70332	2.63549
3029.77476	2.59090
3027.84619	2.54629
3025.91763	2.50230
3023.98906	2.45923
3022.06050	2.41701
3020.13193	2.37563
3018.20337	2.33497
3016.27480	2.29465
3014.34624	2.25475
3012.41768	2.21562
3010.48911	2.17711
3008.56055	2.13903
3006.63198	2.10155
3004.70342	2.06533
3002.77485	2.03032
3000.84629	1.99549
2998.91772	1.96082
2996.98916	1.92709
2995.06060	1.89428
2993.13203	1.86214
2991.20347	1.83093
2989.27490	1.80075
2987.34634	1.77120
2985.41777	1.74200
2983.48921	1.71338
2981.56064	1.68561
2979.63208	1.65853
2977.70352	1.63177
2975.77495	1.60532
2973.84639	1.57959
2971.91782	1.55439
2969.98926	1.52923
2968.06069	1.50419
2966.13213	1.47960
2964.20356	1.45535
2962.27500	1.43108
2960.34644	1.40692
2958.41787	1.38284
2956.48931	1.35852
2954.56074	1.33444
2952.63218	1.31067
2950.70361	1.28648
2948.77505	1.26218
2946.84648	1.23865
2944.91792	1.21658
2942.98936	1.19605
2941.06079	1.17564
2939.13223	1.15412
2937.20366	1.13232
2935.27510	1.11160
2933.34653	1.09187
2931.41797	1.07237
2929.48940	1.05302
2927.56084	1.03399
2925.63228	1.01504
2923.70371	0.99638
2921.77515	0.97829
2919.84658	0.96044
2917.91802	0.94254
2915.98945	0.92471
2914.06089	0.90743
2912.13232	0.89093
2910.20376	0.87511
2908.27520	0.85981
2906.34663	0.84483
2904.41807	0.83022
2902.48950	0.81604
2900.56094	0.80221
2898.63237	0.78853
2896.70381	0.77497
2894.77524	0.76170
2892.84668	0.74903
2890.91812	0.73699
2888.98955	0.72533
2887.06099	0.71390
2885.13242	0.70291
2883.20386	0.69250
2881.27529	0.68258
2879.34673	0.67293
2877.41816	0.66324
2875.48960	0.65338
2873.56104	0.64349
2871.63247	0.63328
2869.70391	0.62216
2867.77534	0.61037
2865.84678	0.59827
2863.91821	0.58601
2861.98965	0.57424
2860.06108	0.56343
2858.13252	0.55335
2856.20396	0.54373
2854.27539	0.53457
2852.34683	0.52578
2850.41826	0.51711
2848.48970	0.50847
2846.56113	0.50000
2844.63257	0.49196
2842.70400	0.48471
2840.77544	0.47821
2838.84687	0.47196
2836.91831	0.46582
2834.98975	0.45994
2833.06118	0.45428
2831.13262	0.44853
2829.20405	0.44250
2827.27549	0.43634
2825.34692	0.43029
2823.41836	0.42438
2821.48979	0.41854
2819.56123	0.41277
2817.63267	0.40687
2815.70410	0.40091
2813.77554	0.39519
2811.84697	0.38966
2809.91841	0.38419
2807.98984	0.37871
2806.06128	0.37328
2804.13271	0.36794
2802.20415	0.36278
2800.27559	0.35789
2798.34702	0.35304
2796.41846	0.34807
2794.48989	0.34314
2792.56133	0.33832
2790.63276	0.33360
2788.70420	0.32910
2786.77563	0.32491
2784.84707	0.32072
2782.91851	0.31639
2780.98994	0.31222
2779.06138	0.30831
2777.13281	0.30434
2775.20425	0.30029
2773.27568	0.29644
2771.34712	0.29270
2769.41855	0.28880
2767.48999	0.28491
2765.56143	0.28116
2763.63286	0.27759
2761.70430	0.27426
2759.77573	0.27097
2757.84717	0.26775
2755.91860	0.26467
2753.99004	0.26157
2752.06147	0.25841
2750.13291	0.25527
2748.20435	0.25222
2746.27578	0.24919
2744.34722	0.24625
2742.41865	0.24349
2740.49009	0.24081
2738.56152	0.23817
2736.63296	0.23560
2734.70439	0.23307
2732.77583	0.23055
2730.84727	0.22812
2728.91870	0.22579
2726.99014	0.22346
2725.06157	0.22115
2723.13301	0.21892
2721.20444	0.21671
2719.27588	0.21456
2717.34731	0.21260
2715.41875	0.21071
2713.49019	0.20879
2711.56162	0.20691
2709.63306	0.20506
2707.70449	0.20325
2705.77593	0.20152
2703.84736	0.19989
2701.91880	0.19841
2699.99023	0.19706
2698.06167	0.19565
2696.13311	0.19418
2694.20454	0.19272
2692.27598	0.19126
2690.34741	0.18988
2688.41885	0.18858
2686.49028	0.18723
2684.56172	0.18582
2682.63315	0.18453
2680.70459	0.18343
2678.77603	0.18247
2676.84746	0.18149
2674.91890	0.18031
2672.99033	0.17903
2671.06177	0.17800
2669.13320	0.17726
2667.20464	0.17655
2665.27607	0.17567
2663.34751	0.17468
2661.41895	0.17370
2659.49038	0.17280
2657.56182	0.17210
2655.63325	0.17140
2653.70469	0.17056
2651.77612	0.16973
2649.84756	0.16907
2647.91899	0.16857
2645.99043	0.16796
2644.06187	0.16714
2642.13330	0.16649
2640.20474	0.16610
2638.27617	0.16567
2636.34761	0.16521
2634.41904	0.16483
2632.49048	0.16440
2630.56191	0.16396
2628.63335	0.16359
2626.70479	0.16324
2624.77622	0.16287
2622.84766	0.16245
2620.91909	0.16210
2618.99053	0.16197
2617.06196	0.16188
2615.13340	0.16166
2613.20483	0.16147
2611.27627	0.16134
2609.34771	0.16116
2607.41914	0.16094
2605.49058	0.16077
2603.56201	0.16071
2601.63345	0.16081
2599.70488	0.16088
2597.77632	0.16078
2595.84775	0.16071
2593.91919	0.16078
2591.99062	0.16086
2590.06206	0.16097
2588.13350	0.16121
2586.20493	0.16144
2584.27637	0.16150
2582.34780	0.16153
2580.41924	0.16171
2578.49067	0.16203
2576.56211	0.16242
2574.63354	0.16278
2572.70498	0.16310
2570.77642	0.16349
2568.84785	0.16392
2566.91929	0.16428
2564.99072	0.16457
2563.06216	0.16483
2561.13359	0.16514
2559.20503	0.16556
2557.27646	0.16607
2555.34790	0.16657
2553.41934	0.16705
2551.49077	0.16754
2549.56221	0.16803
2547.63364	0.16850
2545.70508	0.16896
2543.77651	0.16949
2541.84795	0.17013
2539.91938	0.17086
2537.99082	0.17163
2536.06226	0.17228
2534.13369	0.17278
2532.20513	0.17334
2530.27656	0.17406
2528.34800	0.17479
2526.41943	0.17545
2524.49087	0.17617
2522.56230	0.17693
2520.63374	0.17766
2518.70518	0.17841
2516.77661	0.17925
2514.84805	0.18010
2512.91948	0.18087
2510.99092	0.18154
2509.06235	0.18214
2507.13379	0.18282
2505.20522	0.18368
2503.27666	0.18460
2501.34810	0.18536
2499.41953	0.18603
2497.49097	0.18684
2495.56240	0.18780
2493.63384	0.18876
2491.70527	0.18963
2489.77671	0.19047
2487.84814	0.19132
2485.91958	0.19215
2483.99102	0.19291
2482.06245	0.19367
2480.13389	0.19453
2478.20532	0.19547
2476.27676	0.19644
2474.34819	0.19747
2472.41963	0.19845
2470.49106	0.19930
2468.56250	0.20013
2466.63394	0.20096
2464.70537	0.20176
2462.77681	0.20260
2460.84824	0.20360
2458.91968	0.20469
2456.99111	0.20566
2455.06255	0.20652
2453.13398	0.20749
2451.20542	0.20862
2449.27686	0.20961
2447.34829	0.21040
2445.41973	0.21128
2443.49116	0.21233
2441.56260	0.21340
2439.63403	0.21452
2437.70547	0.21556
2435.77690	0.21641
2433.84834	0.21737
2431.91978	0.21855
2429.99121	0.21963
2428.06265	0.22058
2426.13408	0.22163
2424.20552	0.22276
2422.27695	0.22388
2420.34839	0.22500
2418.41982	0.22617
2416.49126	0.22730
2414.56270	0.22838
2412.63413	0.22955
2410.70557	0.23077
2408.77700	0.23192
2406.84844	0.23310
2404.91987	0.23430
2402.99131	0.23542
2401.06274	0.23655
2399.13418	0.23777
2397.20562	0.23898
2395.27705	0.24019
2393.34849	0.24145
2391.41992	0.24278
2389.49136	0.24415
2387.56279	0.24577
2385.63423	0.24794
2383.70566	0.25089
2381.77710	0.25473
2379.84854	0.25927
2377.91997	0.26443
2375.99141	0.27042
2374.06284	0.27727
2372.13428	0.28464
2370.20571	0.29202
2368.27715	0.29918
2366.34858	0.30655
2364.42002	0.31387
2362.49146	0.31983
2360.56289	0.32364
2358.63433	0.32485
2356.70576	0.32384
2354.77720	0.32069
2352.84863	0.31541
2350.92007	0.30936
2348.99150	0.30556
2347.06294	0.30630
2345.13437	0.31191
2343.20581	0.31895
2341.27725	0.32288
2339.34868	0.32410
2337.42012	0.32437
2335.49155	0.32482
2333.56299	0.32577
2331.63442	0.32697
2329.70586	0.32791
2327.77729	0.32818
2325.84873	0.32772
2323.92017	0.32691
2321.99160	0.32593
2320.06304	0.32463
2318.13447	0.32322
2316.20591	0.32224
2314.27734	0.32202
2312.34878	0.32247
2310.42021	0.32307
2308.49165	0.32322
2306.56309	0.32299
2304.63452	0.32301
2302.70596	0.32356
2300.77739	0.32441
2298.84883	0.32532
2296.92026	0.32628
2294.99170	0.32732
2293.06313	0.32845
2291.13457	0.32963
2289.20601	0.33084
2287.27744	0.33204
2285.34888	0.33330
2283.42031	0.33479
2281.49175	0.33658
2279.56318	0.33871
2277.63462	0.34102
2275.70605	0.34333
2273.77749	0.34559
2271.84893	0.34770
2269.92036	0.34962
2267.99180	0.35156
2266.06323	0.35371
2264.13467	0.35595
2262.20610	0.35803
2260.27754	0.35999
2258.34897	0.36199
2256.42041	0.36395
2254.49185	0.36586
2252.56328	0.36792
2250.63472	0.37009
2248.70615	0.37222
2246.77759	0.37430
2244.84902	0.37645
2242.92046	0.37865
2240.99189	0.38083
2239.06333	0.38304
2237.13477	0.38528
2235.20620	0.38743
2233.27764	0.38963
2231.34907	0.39191
2229.42051	0.39416
2227.49194	0.39636
2225.56338	0.39866
2223.63481	0.40109
2221.70625	0.40342
2219.77769	0.40558
2217.84912	0.40768
2215.92056	0.40979
2213.99199	0.41195
2212.06343	0.41416
2210.13486	0.41633
2208.20630	0.41845
2206.27773	0.42059
2204.34917	0.42269
2202.42061	0.42473
2200.49204	0.42677
2198.56348	0.42883
2196.63491	0.43082
2194.70635	0.43274
2192.77778	0.43466
2190.84922	0.43665
2188.92065	0.43862
2186.99209	0.44057
2185.06353	0.44248
2183.13496	0.44424
2181.20640	0.44585
2179.27783	0.44745
2177.34927	0.44904
2175.42070	0.45047
2173.49214	0.45182
2171.56357	0.45325
2169.63501	0.45477
2167.70645	0.45615
2165.77788	0.45737
2163.84932	0.45861
2161.92075	0.45974
2159.99219	0.46073
2158.06362	0.46173
2156.13506	0.46273
2154.20649	0.46366
2152.27793	0.46455
2150.34937	0.46532
2148.42080	0.46595
2146.49224	0.46647
2144.56367	0.46697
2142.63511	0.46748
2140.70654	0.46788
2138.77798	0.46813
2136.84941	0.46819
2134.92085	0.46811
2132.99229	0.46802
2131.06372	0.46798
2129.13516	0.46788
2127.20659	0.46763
2125.27803	0.46729
2123.34946	0.46693
2121.42090	0.46642
2119.49233	0.46569
2117.56377	0.46492
2115.63521	0.46420
2113.70664	0.46350
2111.77808	0.46266
2109.84951	0.46169
2107.92095	0.46068
2105.99238	0.45944
2104.06382	0.45805
2102.13525	0.45683
2100.20669	0.45568
2098.27812	0.45427
2096.34956	0.45272
2094.42100	0.45120
2092.49243	0.44963
2090.56387	0.44799
2088.63530	0.44624
2086.70674	0.44439
2084.77817	0.44241
2082.84961	0.44039
2080.92104	0.43841
2078.99248	0.43638
2077.06392	0.43421
2075.13535	0.43201
2073.20679	0.42987
2071.27822	0.42759
2069.34966	0.42511
2067.42109	0.42268
2065.49253	0.42042
2063.56396	0.41811
2061.63540	0.41564
2059.70684	0.41312
2057.77827	0.41060
2055.84971	0.40806
2053.92114	0.40548
2051.99258	0.40283
2050.06401	0.40006
2048.13545	0.39733
2046.20688	0.39471
2044.27832	0.39214
2042.34976	0.38946
2040.42119	0.38664
2038.49263	0.38376
2036.56406	0.38087
2034.63550	0.37807
2032.70693	0.37528
2030.77837	0.37245
2028.84980	0.36957
2026.92124	0.36662
2024.99268	0.36372
2023.06411	0.36100
2021.13555	0.35839
2019.20698	0.35574
2017.27842	0.35294
2015.34985	0.35001
2013.42129	0.34713
2011.49272	0.34435
2009.56416	0.34160
2007.63560	0.33888
2005.70703	0.33618
2003.77847	0.33343
2001.84990	0.33068
1999.92134	0.32796
1997.99277	0.32519
1996.06421	0.32257
1994.13564	0.32016
1992.20708	0.31771
1990.27852	0.31512
1988.34995	0.31259
1986.42139	0.31009
1984.49282	0.30758
1982.56426	0.30516
1980.63569	0.30285
1978.70713	0.30058
1976.77856	0.29826
1974.85000	0.29594
1972.92144	0.29373
1970.99287	0.29158
1969.06431	0.28945
1967.13574	0.28735
1965.20718	0.28523
1963.27861	0.28316
1961.35005	0.28123
1959.42148	0.27938
1957.49292	0.27752
1955.56436	0.27563
1953.63579	0.27380
1951.70723	0.27208
1949.77866	0.27045
1947.85010	0.26892
1945.92153	0.26744
1943.99297	0.26601
1942.06440	0.26452
1940.13584	0.26289
1938.20728	0.26129
1936.27871	0.25984
1934.35015	0.25851
1932.42158	0.25728
1930.49302	0.25607
1928.56445	0.25487
1926.63589	0.25377
1924.70732	0.25284
1922.77876	0.25196
1920.85020	0.25096
1918.92163	0.24998
1916.99307	0.24900
1915.06450	0.24796
1913.13594	0.24699
1911.20737	0.24624
1909.27881	0.24562
1907.35024	0.24499
1905.42168	0.24432
1903.49312	0.24373
1901.56455	0.24319
1899.63599	0.24269
1897.70742	0.24226
1895.77886	0.24187
1893.85029	0.24152
1891.92173	0.24117
1889.99316	0.24095
1888.06460	0.24071
1886.13604	0.24037
1884.20747	0.24012
1882.27891	0.23996
1880.35034	0.23985
1878.42178	0.23972
1876.49321	0.23964
1874.56465	0.23958
1872.63608	0.23962
1870.70752	0.23989
1868.77896	0.24048
1866.85039	0.24083
1864.92183	0.24073
1862.99326	0.24074
1861.06470	0.24094
1859.13613	0.24127
1857.20757	0.24163
1855.27900	0.24208
1853.35044	0.24252
1851.42187	0.24300
1849.49331	0.24357
1847.56475	0.24431
1845.63618	0.24523
1843.70762	0.24626
1841.77905	0.24700
1839.85049	0.24744
1837.92192	0.24819
1835.99336	0.24908
1834.06479	0.24990
1832.13623	0.25092
1830.20767	0.25249
1828.27910	0.25405
1826.35054	0.25515
1824.42197	0.25644
1822.49341	0.25765
1820.56484	0.25879
1818.63628	0.26017
1816.70771	0.26189
1814.77915	0.26358
1812.85059	0.26534
1810.92202	0.26741
1808.99346	0.26949
1807.06489	0.27137
1805.13633	0.27322
1803.20776	0.27546
1801.27920	0.27808
1799.35063	0.28091
1797.42207	0.28344
1795.49351	0.28587
1793.56494	0.28882
1791.63638	0.29249
1789.70781	0.29575
1787.77925	0.29821
1785.85068	0.30135
1783.92212	0.30513
1781.99355	0.30915
1780.06499	0.31337
1778.13643	0.31771
1776.20786	0.32185
1774.27930	0.32627
1772.35073	0.33212
1770.42217	0.33837
1768.49360	0.34358
1766.56504	0.34858
1764.63647	0.35385
1762.70791	0.35983
1760.77935	0.36728
1758.85078	0.37435
1756.92222	0.38153
1754.99365	0.38931
1753.06509	0.39642
1751.13652	0.40489
1749.20796	0.41536
1747.27939	0.42553
1745.35083	0.43456
1743.42227	0.44405
1741.49370	0.45448
1739.56514	0.46666
1737.63657	0.47893
1735.70801	0.49005
1733.77944	0.50642
1731.85088	0.52560
1729.92231	0.54121
1727.99375	0.55728
1726.06519	0.57454
1724.13662	0.59328
1722.20806	0.61373
1720.27949	0.63313
1718.35093	0.65550
1716.42236	0.68684
1714.49380	0.71673
1712.56523	0.74189
1710.63667	0.76670
1708.70811	0.79331
1706.77954	0.82327
1704.85098	0.85854
1702.92241	0.89041
1700.99385	0.92248
1699.06528	0.96915
1697.13672	1.01213
1695.20815	1.05673
1693.27959	1.10157
1691.35103	1.13839
1689.42246	1.18037
1687.49390	1.22511
1685.56533	1.26914
1683.63677	1.33374
1681.70820	1.40023
1679.77964	1.44467
1677.85107	1.48703
1675.92251	1.53550
1673.99395	1.59490
1672.06538	1.64835
1670.13682	1.70114
1668.20825	1.76978
1666.27969	1.82832
1664.35112	1.87951
1662.42256	1.94237
1660.49399	2.01334
1658.56543	2.07072
1656.63687	2.11700
1654.70830	2.15770
1652.77974	2.21699
1650.85117	2.27293
1648.92261	2.29270
1646.99404	2.31595
1645.06548	2.34065
1643.13691	2.35696
1641.20835	2.36477
1639.27979	2.37179
1637.35122	2.37601
1635.42266	2.37277
1633.49409	2.36278
1631.56553	2.34800
1629.63696	2.32873
1627.70840	2.29702
1625.77983	2.26115
1623.85127	2.21723
1621.92271	2.16370
1619.99414	2.11523
1618.06558	2.06798
1616.13701	2.00301
1614.20845	1.93654
1612.27988	1.88465
1610.35132	1.83083
1608.42275	1.77264
1606.49419	1.71557
1604.56562	1.66382
1602.63706	1.61454
1600.70850	1.56621
1598.77993	1.52108
1596.85137	1.47869
1594.92280	1.43808
1592.99424	1.39931
1591.06567	1.36408
1589.13711	1.33152
1587.20854	1.30156
1585.27998	1.27425
1583.35142	1.24915
1581.42285	1.22650
1579.49429	1.20742
1577.56572	1.19097
1575.63716	1.17216
1573.70859	1.15566
1571.78003	1.14487
1569.85146	1.13487
1567.92290	1.12508
1565.99434	1.11852
1564.06577	1.11481
1562.13721	1.11312
1560.20864	1.11419
1558.28008	1.12024
1556.35151	1.12584
1554.42295	1.12845
1552.49438	1.13109
1550.56582	1.13239
1548.63726	1.13093
1546.70869	1.12630
1544.78013	1.11821
1542.85156	1.10641
1540.92300	1.08758
1538.99443	1.05776
1537.06587	1.03480
1535.13730	1.01859
1533.20874	0.99769
1531.28018	0.97551
1529.35161	0.95908
1527.42305	0.94382
1525.49448	0.92810
1523.56592	0.91473
1521.63735	0.90271
1519.70879	0.89080
1517.78022	0.88023
1515.85166	0.86792
1513.92310	0.85472
1511.99453	0.84290
1510.06597	0.83218
1508.13740	0.82148
1506.20884	0.80537
1504.28027	0.79133
1502.35171	0.78340
1500.42314	0.77661
1498.49458	0.76948
1496.56602	0.76128
1494.63745	0.75293
1492.70889	0.74615
1490.78032	0.74008
1488.85176	0.73332
1486.92319	0.72698
1484.99463	0.72189
1483.06606	0.71780
1481.13750	0.71441
1479.20894	0.71197
1477.28037	0.71074
1475.35181	0.71031
1473.42324	0.71024
1471.49468	0.70941
1469.56611	0.70713
1467.63755	0.70445
1465.70898	0.70225
1463.78042	0.70082
1461.85186	0.70006
1459.92329	0.69998
1457.99473	0.70054
1456.06616	0.70053
1454.13760	0.69871
1452.20903	0.69642
1450.28047	0.69406
1448.35190	0.69158
1446.42334	0.68894
1444.49478	0.68629
1442.56621	0.68371
1440.63765	0.68107
1438.70908	0.67839
1436.78052	0.67510
1434.85195	0.67121
1432.92339	0.66810
1430.99482	0.66611
1429.06626	0.66510
1427.13770	0.66483
1425.20913	0.66522
1423.28057	0.66605
1421.35200	0.66666
1419.42344	0.66715
1417.49487	0.66735
1415.56631	0.66658
1413.63774	0.66589
1411.70918	0.66613
1409.78062	0.66732
1407.85205	0.66916
1405.92349	0.67139
1403.99492	0.67344
1402.06636	0.67430
1400.13779	0.67396
1398.20923	0.67265
1396.28066	0.67025
1394.35210	0.66643
1392.42354	0.66166
1390.49497	0.65692
1388.56641	0.65216
1386.63784	0.64674
1384.70928	0.64096
1382.78071	0.63540
1380.85215	0.63023
1378.92358	0.62576
1376.99502	0.62232
1375.06646	0.62003
1373.13789	0.61851
1371.20933	0.61734
1369.28076	0.61636
1367.35220	0.61520
1365.42363	0.61362
1363.49507	0.61194
1361.56650	0.61038
1359.63794	0.60885
1357.70937	0.60741
1355.78081	0.60620
1353.85225	0.60524
1351.92368	0.60454
1349.99512	0.60404
1348.06655	0.60349
1346.13799	0.60269
1344.20942	0.60180
1342.28086	0.60111
1340.35229	0.60069
1338.42373	0.60026
1336.49517	0.59969
1334.56660	0.59921
1332.63804	0.59911
1330.70947	0.59940
1328.78091	0.59987
1326.85234	0.60049
1324.92378	0.60131
1322.99521	0.60227
1321.06665	0.60310
1319.13809	0.60366
1317.20952	0.60400
1315.28096	0.60415
1313.35239	0.60399
1311.42383	0.60362
1309.49526	0.60330
1307.56670	0.60304
1305.63813	0.60273
1303.70957	0.60223
1301.78101	0.60146
1299.85244	0.60048
1297.92388	0.59933
1295.99531	0.59809
1294.06675	0.59695
1292.13818	0.59565
1290.20962	0.59411
1288.28105	0.59268
1286.35249	0.59143
1284.42393	0.59016
1282.49536	0.58872
1280.56680	0.58719
1278.63823	0.58577
1276.70967	0.58444
1274.78110	0.58327
1272.85254	0.58232
1270.92397	0.58148
1268.99541	0.58069
1267.06685	0.57987
1265.13828	0.57889
1263.20972	0.57798
1261.28115	0.57734
1259.35259	0.57682
1257.42402	0.57623
1255.49546	0.57575
1253.56689	0.57569
1251.63833	0.57598
1249.70977	0.57636
1247.78120	0.57658
1245.85264	0.57651
1243.92407	0.57608
1241.99551	0.57520
1240.06694	0.57386
1238.13838	0.57211
1236.20981	0.56994
1234.28125	0.56745
1232.35269	0.56507
1230.42412	0.56293
1228.49556	0.56081
1226.56699	0.55872
1224.63843	0.55679
1222.70986	0.55505
1220.78130	0.55355
1218.85273	0.55219
1216.92417	0.55075
1214.99561	0.54930
1213.06704	0.54811
1211.13848	0.54722
1209.20991	0.54644
1207.28135	0.54568
1205.35278	0.54487
1203.42422	0.54393
1201.49565	0.54286
1199.56709	0.54175
1197.63853	0.54079
1195.70996	0.54005
1193.78140	0.53955
1191.85283	0.53921
1189.92427	0.53888
1187.99570	0.53849
1186.06714	0.53824
1184.13857	0.53831
1182.21001	0.53873
1180.28145	0.53950
1178.35288	0.54051
1176.42432	0.54153
1174.49575	0.54248
1172.56719	0.54323
1170.63862	0.54343
1168.71006	0.54302
1166.78149	0.54236
1164.85293	0.54170
1162.92437	0.54096
1160.99580	0.54013
1159.06724	0.53932
1157.13867	0.53848
1155.21011	0.53751
1153.28154	0.53640
1151.35298	0.53485
1149.42441	0.53259
1147.49585	0.52998
1145.56729	0.52749
1143.63872	0.52507
1141.71016	0.52269
1139.78159	0.52057
1137.85303	0.51874
1135.92446	0.51715
1133.99590	0.51597
1132.06733	0.51518
1130.13877	0.51441
1128.21021	0.51341
1126.28164	0.51232
1124.35308	0.51125
1122.42451	0.51035
1120.49595	0.50988
1118.56738	0.50969
1116.63882	0.50959
1114.71025	0.50967
1112.78169	0.50989
1110.85312	0.51032
1108.92456	0.51108
1106.99600	0.51202
1105.06743	0.51316
1103.13887	0.51468
1101.21030	0.51660
1099.28174	0.51881
1097.35317	0.52129
1095.42461	0.52416
1093.49604	0.52747
1091.56748	0.53135
1089.63892	0.53583
1087.71035	0.54105
1085.78179	0.54706
1083.85322	0.55340
1081.92466	0.55934
1079.99609	0.56418
1078.06753	0.56717
1076.13896	0.56785
1074.21040	0.56610
1072.28184	0.56202
1070.35327	0.55624
1068.42471	0.54976
1066.49614	0.54316
1064.56758	0.53673
1062.63901	0.53083
1060.71045	0.52557
1058.78188	0.52099
1056.85332	0.51704
1054.92476	0.51339
1052.99619	0.50995
1051.06763	0.50696
1049.13906	0.50441
1047.21050	0.50211
1045.28193	0.50000
1043.35337	0.49803
1041.42480	0.49626
1039.49624	0.49483
1037.56768	0.49391
1035.63911	0.49342
1033.71055	0.49301
1031.78198	0.49265
1029.85342	0.49260
1027.92485	0.49277
1025.99629	0.49281
1024.06772	0.49271
1022.13916	0.49280
1020.21060	0.49339
1018.28203	0.49439
1016.35347	0.49537
1014.42490	0.49622
1012.49634	0.49730
1010.56777	0.49858
1008.63921	0.49979
1006.71064	0.50112
1004.78208	0.50292
1002.85352	0.50529
1000.92495	0.50822
998.99639	0.51164
997.06782	0.51544
995.13926	0.51938
993.21069	0.52316
991.28213	0.52654
989.35356	0.52929
987.42500	0.53119
985.49644	0.53224
983.56787	0.53277
981.63931	0.53328
979.71074	0.53434
977.78218	0.53633
975.85361	0.53886
973.92505	0.54146
971.99648	0.54431
970.06792	0.54765
968.13936	0.55143
966.21079	0.55558
964.28223	0.56015
962.35366	0.56516
960.42510	0.57049
958.49653	0.57601
956.56797	0.58156
954.63940	0.58727
952.71084	0.59331
950.78228	0.59970
948.85371	0.60643
946.92515	0.61331
944.99658	0.62003
943.06802	0.62648
941.13945	0.63276
939.21089	0.63857
937.28232	0.64379
935.35376	0.64897
933.42520	0.65430
931.49663	0.65998
929.56807	0.66624
927.63950	0.67248
925.71094	0.67865
923.78237	0.68512
921.85381	0.69172
919.92524	0.69857
917.99668	0.70557
916.06812	0.71232
914.13955	0.71931
912.21099	0.72700
910.28242	0.73527
908.35386	0.74397
906.42529	0.75273
904.49673	0.76172
902.56816	0.77099
900.63960	0.77990
898.71104	0.78898
896.78247	0.79911
894.85391	0.81003
892.92534	0.82093
890.99678	0.83158
889.06821	0.84248
887.13965	0.85317
885.21108	0.86328
883.28252	0.87351
881.35396	0.88457
879.42539	0.89712
877.49683	0.91037
875.56826	0.92293
873.63970	0.93501
871.71113	0.94685
869.78257	0.95716
867.85400	0.96678
865.92544	0.97827
863.99687	0.99012
862.06831	1.00088
860.13975	1.01196
858.21118	1.02387
856.28262	1.03660
854.35405	1.05000
852.42549	1.06267
850.49692	1.07339
848.56836	1.08333
846.63979	1.09428
844.71123	1.10622
842.78267	1.11817
840.85410	1.12912
838.92554	1.13816
836.99697	1.14704
835.06841	1.15910
833.13984	1.17375
831.21128	1.18724
829.28271	1.19755
827.35415	1.20499
825.42559	1.21234
823.49702	1.22326
821.56846	1.23462
819.63989	1.24537
817.71133	1.26001
815.78276	1.27667
813.85420	1.29482
811.92563	1.31350
809.99707	1.32537
808.06851	1.32891
806.13994	1.32911
804.21138	1.33133
802.28281	1.34194
800.35425	1.35573
798.42568	1.35660
796.49712	1.35391
794.56855	1.37521
792.63999	1.41810
790.71143	1.43617
788.78286	1.38861
786.85430	1.31514
784.92573	1.27552
782.99717	1.27627
781.06860	1.29295
779.14004	1.31832
777.21147	1.36870
775.28291	1.40679
773.35435	1.36468
771.42578	1.29332
769.49722	1.25317
767.56865	1.25802
765.64009	1.27049
763.71152	1.25381
761.78296	1.22133
759.85439	1.19982
757.92583	1.23614
755.99727	1.34678
754.06870	1.41349
752.14014	1.27242
750.21157	1.15455
748.28301	1.13986
746.35444	1.16920
744.42588	1.23886
742.49731	1.24962
740.56875	1.10399
738.64019	0.99947
736.71162	1.05388
734.78306	1.27098
732.85449	1.04150
730.92593	0.69840
728.99736	0.51270
727.06880	0.43042
725.14023	0.46991
723.21167	0.50474
721.28311	0.17214
719.35454	-0.08579
717.42598	-0.13198
715.49741	-0.14543
713.56885	-0.32846
711.64028	4.26984
709.71172	0.24509
707.78315	0.27142
705.85459	0.13657
703.92603	0.13543
701.99746	0.19748
700.06890	0.23272
698.14033	0.26309
696.21177	0.31770
694.28320	0.39802
692.35464	0.43195
690.42607	0.38969
688.49751	0.36035
686.56895	0.32824
684.64038	0.26153
682.71182	0.21309
680.78325	0.24779
678.85469	0.38383
676.92612	0.52524
674.99756	0.44682
673.06899	0.30520
671.14043	0.29567
669.21187	0.46541
667.28330	0.57974
665.35474	0.42097
663.42617	0.27913
661.49761	0.24806
659.56904	0.27058
657.64048	0.28229
655.71191	0.28167
653.78335	0.27607
651.85479	0.28781
649.92622	0.33369
647.99766	0.42609
646.06909	0.45987
644.14053	0.38991
642.21196	0.29002
640.28340	0.21358
638.35483	0.16316
636.42627	0.15229
634.49771	0.22279
632.56914	0.36889
630.64058	0.43700
628.71201	0.37729
626.78345	0.34539
624.85488	0.34775
622.92632	0.32371
620.99775	0.28383
619.06919	0.24870
617.14062	0.20715
615.21206	0.18109
613.28350	0.20395
611.35493	0.26495
609.42637	0.30944
607.49780	0.31373
605.56924	0.29254
603.64067	0.26809
601.71211	0.28898
599.78354	0.34915
597.85498	0.30451
595.92642	0.23933
593.99785	0.20301
592.06929	0.18687
590.14072	0.20185
588.21216	0.22794
586.28359	0.24169
584.35503	0.25889
582.42646	0.27532
580.49790	0.25848
578.56934	0.21628
576.64077	0.17050
574.71221	0.15131
572.78364	0.18351
570.85508	0.23907
568.92651	0.26975
566.99795	0.29229
565.06938	0.35005
563.14082	0.38132
561.21226	0.35081
559.28369	0.30961
557.35513	0.29384
555.42656	0.31274
553.49800	0.32527
551.56943	0.30354
549.64087	0.28344
547.71230	0.27293
545.78374	0.26156
543.85518	0.26344
541.92661	0.28636
539.99805	0.30371
538.06948	0.29192
536.14092	0.26351
534.21235	0.24898
532.28379	0.27530
530.35522	0.33590
528.42666	0.38216
526.49810	0.35020
524.56953	0.28877
522.64097	0.26849
520.71240	0.25195
518.78384	0.21417
516.85527	0.18651
514.92671	0.19655
512.99814	0.23744
511.06958	0.28174
509.14102	0.29955
507.21245	0.25462
505.28389	0.20159
503.35532	0.19029
501.42676	0.19066
499.49819	0.17710
