3997.91411	0.06782
3995.98555	0.06857
3994.05698	0.06903
3992.12842	0.06934
3990.19985	0.06956
3988.27129	0.06963
3986.34272	0.06978
3984.41416	0.06994
3982.48560	0.06999
3980.55703	0.07043
3978.62847	0.07136
3976.69990	0.07188
3974.77134	0.07163
3972.84277	0.07142
3970.91421	0.07175
3968.98564	0.07200
3967.05708	0.07184
3965.12852	0.07172
3963.19995	0.07189
3961.27139	0.07213
3959.34282	0.07249
3957.41426	0.07299
3955.48569	0.07322
3953.55713	0.07307
3951.62856	0.07276
3949.70000	0.07245
3947.77144	0.07249
3945.84287	0.07288
3943.91431	0.07295
3941.98574	0.07255
3940.05718	0.07220
3938.12861	0.07212
3936.20005	0.07207
3934.27148	0.07196
3932.34292	0.07209
3930.41436	0.07241
3928.48579	0.07231
3926.55723	0.07199
3924.62866	0.07213
3922.70010	0.07255
3920.77153	0.07273
3918.84297	0.07236
3916.91440	0.07173
3914.98584	0.07167
3913.05728	0.07199
3911.12871	0.07217
3909.20015	0.07223
3907.27158	0.07210
3905.34302	0.07196
3903.41445	0.07224
3901.48589	0.07284
3899.55732	0.07300
3897.62876	0.07252
3895.70020	0.07197
3893.77163	0.07166
3891.84307	0.07178
3889.91450	0.07219
3887.98594	0.07222
3886.05737	0.07209
3884.12881	0.07212
3882.20024	0.07221
3880.27168	0.07256
3878.34312	0.07283
3876.41455	0.07269
3874.48599	0.07291
3872.55742	0.07361
3870.62886	0.07394
3868.70029	0.07400
3866.77173	0.07398
3864.84316	0.07401
3862.91460	0.07475
3860.98604	0.07563
3859.05747	0.07588
3857.12891	0.07582
3855.20034	0.07592
3853.27178	0.07683
3851.34321	0.07834
3849.41465	0.07841
3847.48608	0.07783
3845.55752	0.07776
3843.62896	0.07827
3841.70039	0.07915
3839.77183	0.08052
3837.84326	0.08217
3835.91470	0.08274
3833.98613	0.08245
3832.05757	0.08252
3830.12900	0.08281
3828.20044	0.08307
3826.27187	0.08370
3824.34331	0.08463
3822.41475	0.08563
3820.48618	0.08726
3818.55762	0.08873
3816.62905	0.08942
3814.70049	0.09020
3812.77192	0.09084
3810.84336	0.09135
3808.91479	0.09207
3806.98623	0.09321
3805.05767	0.09460
3803.12910	0.09553
3801.20054	0.09654
3799.27197	0.09782
3797.34341	0.09861
3795.41484	0.09953
3793.48628	0.10067
3791.55771	0.10169
3789.62915	0.10301
3787.70059	0.10464
3785.77202	0.10616
3783.84346	0.10740
3781.91489	0.10856
3779.98633	0.11016
3778.05776	0.11229
3776.12920	0.11407
3774.20063	0.11546
3772.27207	0.11700
3770.34351	0.11890
3768.41494	0.12102
3766.48638	0.12276
3764.55781	0.12439
3762.62925	0.12621
3760.70068	0.12831
3758.77212	0.13097
3756.84355	0.13367
3754.91499	0.13597
3752.98643	0.13868
3751.05786	0.14261
3749.12930	0.14654
3747.20073	0.14830
3745.27217	0.14961
3743.34360	0.15288
3741.41504	0.15654
3739.48647	0.15904
3737.55791	0.16211
3735.62935	0.16693
3733.70078	0.17270
3731.77222	0.17736
3729.84365	0.18125
3727.91509	0.18563
3725.98652	0.19120
3724.05796	0.19774
3722.12939	0.20472
3720.20083	0.21203
3718.27227	0.21966
3716.34370	0.22779
3714.41514	0.23582
3712.48657	0.24456
3710.55801	0.25669
3708.62944	0.27066
3706.70088	0.28258
3704.77231	0.29366
3702.84375	0.30657
3700.91519	0.32336
3698.98662	0.34175
3697.05806	0.35939
3695.12949	0.37818
3693.20093	0.39800
3691.27236	0.41935
3689.34380	0.44687
3687.41523	0.48119
3685.48667	0.51252
3683.55811	0.53982
3681.62954	0.56852
3679.70098	0.60034
3677.77241	0.63362
3675.84385	0.67271
3673.91528	0.72456
3671.98672	0.76794
3670.05815	0.80685
3668.12959	0.85986
3666.20103	0.91002
3664.27246	0.95247
3662.34390	0.99664
3660.41533	1.04350
3658.48677	1.08960
3656.55820	1.13876
3654.62964	1.19405
3652.70107	1.24149
3650.77251	1.28266
3648.84395	1.33750
3646.91538	1.40403
3644.98682	1.45532
3643.05825	1.49632
3641.12969	1.53769
3639.20112	1.58208
3637.27256	1.62662
3635.34399	1.67028
3633.41543	1.71387
3631.48687	1.75473
3629.55830	1.79567
3627.62974	1.84796
3625.70117	1.89815
3623.77261	1.93336
3621.84404	1.96666
3619.91548	2.00529
3617.98691	2.05203
3616.05835	2.09683
3614.12979	2.13466
3612.20122	2.17402
3610.27266	2.21311
3608.34409	2.25237
3606.41553	2.29483
3604.48696	2.33551
3602.55840	2.37223
3600.62983	2.41066
3598.70127	2.45170
3596.77271	2.49248
3594.84414	2.53390
3592.91558	2.57574
3590.98701	2.61496
3589.05845	2.65113
3587.12988	2.69355
3585.20132	2.74244
3583.27275	2.78627
3581.34419	2.82602
3579.41562	2.86720
3577.48706	2.91096
3575.55850	2.95493
3573.62993	2.99821
3571.70137	3.04017
3569.77280	3.08095
3567.84424	3.12377
3565.91567	3.17454
3563.98711	3.22523
3562.05854	3.26989
3560.12998	3.31430
3558.20142	3.35896
3556.27285	3.40231
3554.34429	3.44532
3552.41572	3.49319
3550.48716	3.54443
3548.55859	3.59242
3546.63003	3.63736
3544.70146	3.68391
3542.77290	3.73265
3540.84434	3.78268
3538.91577	3.83287
3536.98721	3.88024
3535.05864	3.92619
3533.13008	3.97181
3531.20151	4.01840
3529.27295	4.06424
3527.34438	4.10846
3525.41582	4.15689
3523.48726	4.21090
3521.55869	4.26296
3519.63013	4.30970
3517.70156	4.35769
3515.77300	4.40808
3513.84443	4.45624
3511.91587	4.50219
3509.98730	4.55128
3508.05874	4.60292
3506.13018	4.65173
3504.20161	4.69636
3502.27305	4.74050
3500.34448	4.78953
3498.41592	4.84074
3496.48735	4.89033
3494.55879	4.93684
3492.63022	4.98161
3490.70166	5.02955
3488.77310	5.08001
3486.84453	5.13190
3484.91597	5.18545
3482.98740	5.23438
3481.05884	5.27986
3479.13027	5.32853
3477.20171	5.37891
3475.27314	5.42905
3473.34458	5.47532
3471.41602	5.51558
3469.48745	5.56037
3467.55889	5.61584
3465.63032	5.67361
3463.70176	5.72823
3461.77319	5.77756
3459.84463	5.82473
3457.91606	5.87617
3455.98750	5.93252
3454.05894	5.98392
3452.13037	6.02332
3450.20181	6.06209
3448.27324	6.10720
3446.34468	6.15826
3444.41611	6.21012
3442.48755	6.26010
3440.55898	6.31013
3438.63042	6.35959
3436.70186	6.40630
3434.77329	6.45520
3432.84473	6.50634
3430.91616	6.55145
3428.98760	6.59550
3427.05903	6.63379
3425.13047	6.68453
3423.20190	6.76220
3421.27334	6.83513
3419.34478	6.88230
3417.41621	6.91048
3415.48765	6.93427
3413.55908	6.96381
3411.63052	7.00585
3409.70195	7.05742
3407.77339	7.12274
3405.84482	7.18909
3403.91626	7.23376
3401.98770	7.26590
3400.05913	7.29439
3398.13057	7.31381
3396.20200	7.34668
3394.27344	7.40524
3392.34487	7.44746
3390.41631	7.47787
3388.48774	7.53565
3386.55918	7.61169
3384.63062	7.64808
3382.70205	7.64258
3380.77349	7.64691
3378.84492	7.69020
3376.91636	7.75897
3374.98779	7.77175
3373.05923	7.72818
3371.13066	7.70425
3369.20210	7.72956
3367.27354	7.78289
3365.34497	7.85256
3363.41641	7.89472
3361.48784	7.86252
3359.55928	7.83348
3357.63071	7.86635
3355.70215	7.91837
3353.77358	7.94452
3351.84502	8.00492
3349.91646	8.09773
3347.98789	8.14260
3346.05933	8.14947
3344.13076	8.15703
3342.20220	8.17158
3340.27363	8.18062
3338.34507	8.17065
3336.41650	8.13678
3334.48794	8.12279
3332.55937	8.10936
3330.63081	8.07112
3328.70225	8.03886
3326.77368	8.01800
3324.84512	8.02798
3322.91655	8.09004
3320.98799	8.16684
3319.05942	8.18593
3317.13086	8.16902
3315.20229	8.15526
3313.27373	8.14810
3311.34517	8.14620
3309.41660	8.16446
3307.48804	8.20818
3305.55947	8.23907
3303.63091	8.23997
3301.70234	8.22874
3299.77378	8.26759
3297.84521	8.32488
3295.91665	8.31816
3293.98809	8.26482
3292.05952	8.22994
3290.13096	8.24401
3288.20239	8.27296
3286.27383	8.27689
3284.34526	8.26632
3282.41670	8.28213
3280.48813	8.30397
3278.55957	8.33473
3276.63101	8.38060
3274.70244	8.38815
3272.77388	8.30211
3270.84531	8.18929
3268.91675	8.19587
3266.98818	8.27103
3265.05962	8.30452
3263.13105	8.34394
3261.20249	8.41629
3259.27393	8.42385
3257.34536	8.33559
3255.41680	8.26599
3253.48823	8.26216
3251.55967	8.29201
3249.63110	8.35589
3247.70254	8.41655
3245.77397	8.39996
3243.84541	8.38317
3241.91685	8.44235
3239.98828	8.47756
3238.05972	8.37508
3236.13115	8.23137
3234.20259	8.19152
3232.27402	8.23716
3230.34546	8.26293
3228.41689	8.22931
3226.48833	8.19253
3224.55977	8.19500
3222.63120	8.23816
3220.70264	8.32204
3218.77407	8.37499
3216.84551	8.29707
3214.91694	8.15709
3212.98838	8.04624
3211.05981	8.00331
3209.13125	8.05917
3207.20269	8.10144
3205.27412	8.00430
3203.34556	7.88643
3201.41699	7.86711
3199.48843	7.88771
3197.55986	7.86008
3195.63130	7.81496
3193.70273	7.79003
3191.77417	7.74435
3189.84561	7.66458
3187.91704	7.59291
3185.98848	7.54593
3184.05991	7.52112
3182.13135	7.49554
3180.20278	7.43096
3178.27422	7.34702
3176.34565	7.29372
3174.41709	7.25245
3172.48853	7.17199
3170.55996	7.07368
3168.63140	7.00903
3166.70283	6.98954
3164.77427	6.97856
3162.84570	6.91782
3160.91714	6.82591
3158.98857	6.75436
3157.06001	6.68862
3155.13145	6.61374
3153.20288	6.54026
3151.27432	6.46810
3149.34575	6.39308
3147.41719	6.32431
3145.48862	6.26817
3143.56006	6.21124
3141.63149	6.14783
3139.70293	6.07849
3137.77437	6.00503
3135.84580	5.93909
3133.91724	5.87844
3131.98867	5.80796
3130.06011	5.72936
3128.13154	5.65179
3126.20298	5.57828
3124.27441	5.50991
3122.34585	5.44086
3120.41729	5.36535
3118.48872	5.28666
3116.56016	5.21411
3114.63159	5.14849
3112.70303	5.08363
3110.77446	5.01848
3108.84590	4.95076
3106.91733	4.87951
3104.98877	4.81159
3103.06021	4.74918
3101.13164	4.68207
3099.20308	4.60778
3097.27451	4.53596
3095.34595	4.47114
3093.41738	4.41165
3091.48882	4.35293
3089.56025	4.29128
3087.63169	4.22790
3085.70312	4.16355
3083.77456	4.09833
3081.84600	4.03608
3079.91743	3.97731
3077.98887	3.91906
3076.06030	3.86086
3074.13174	3.80248
3072.20317	3.74395
3070.27461	3.68639
3068.34604	3.63060
3066.41748	3.57468
3064.48892	3.51625
3062.56035	3.45695
3060.63179	3.40037
3058.70322	3.34646
3056.77466	3.29302
3054.84609	3.23985
3052.91753	3.18761
3050.98896	3.13589
3049.06040	3.08421
3047.13184	3.03376
3045.20327	2.98454
3043.27471	2.93512
3041.34614	2.88601
3039.41758	2.83790
3037.48901	2.79043
3035.56045	2.74323
3033.63188	2.69662
3031.70332	2.65098
3029.77476	2.60573
3027.84619	2.56102
3025.91763	2.51731
3023.98906	2.47403
3022.06050	2.43135
3020.13193	2.38983
3018.20337	2.34882
3016.27480	2.30771
3014.34624	2.26745
3012.41768	2.22853
3010.48911	2.19004
3008.56055	2.15219
3006.63198	2.11523
3004.70342	2.07848
3002.77485	2.04228
3000.84629	2.00761
2998.91772	1.97388
2996.98916	1.94031
2995.06060	1.90750
2993.13203	1.87581
2991.20347	1.84509
2989.27490	1.81517
2987.34634	1.78576
2985.41777	1.75668
2983.48921	1.72800
2981.56064	1.70001
2979.63208	1.67256
2977.70352	1.64538
2975.77495	1.61899
2973.84639	1.59376
2971.91782	1.56903
2969.98926	1.54424
2968.06069	1.51984
2966.13213	1.49589
2964.20356	1.47199
2962.27500	1.44780
2960.34644	1.42335
2958.41787	1.39926
2956.48931	1.37519
2954.56074	1.35068
2952.63218	1.32636
2950.70361	1.30264
2948.77505	1.27935
2946.84648	1.25664
2944.91792	1.23500
2942.98936	1.21408
2941.06079	1.19345
2939.13223	1.17290
2937.20366	1.15205
2935.27510	1.13129
2933.34653	1.11093
2931.41797	1.09075
2929.48940	1.07121
2927.56084	1.05224
2925.63228	1.03295
2923.70371	1.01375
2921.77515	0.99557
2919.84658	0.97783
2917.91802	0.95964
2915.98945	0.94120
2914.06089	0.92340
2912.13232	0.90684
2910.20376	0.89134
2908.27520	0.87608
2906.34663	0.86084
2904.41807	0.84614
2902.48950	0.83205
2900.56094	0.81826
2898.63237	0.80465
2896.70381	0.79119
2894.77524	0.77791
2892.84668	0.76501
2890.91812	0.75282
2888.98955	0.74136
2887.06099	0.73019
2885.13242	0.71921
2883.20386	0.70860
2881.27529	0.69853
2879.34673	0.68895
2877.41816	0.67946
2875.48960	0.66964
2873.56104	0.65932
2871.63247	0.64855
2869.70391	0.63731
2867.77534	0.62544
2865.84678	0.61305
2863.91821	0.60084
2861.98965	0.58919
2860.06108	0.57792
2858.13252	0.56710
2856.20396	0.55688
2854.27539	0.54707
2852.34683	0.53738
2850.41826	0.52793
2848.48970	0.51913
2846.56113	0.51094
2844.63257	0.50307
2842.70400	0.49557
2840.77544	0.48853
2838.84687	0.48198
2836.91831	0.47580
2834.98975	0.46982
2833.06118	0.46385
2831.13262	0.45783
2829.20405	0.45182
2827.27549	0.44571
2825.34692	0.43932
2823.41836	0.43293
2821.48979	0.42693
2819.56123	0.42115
2817.63267	0.41528
2815.70410	0.40921
2813.77554	0.40307
2811.84697	0.39727
2809.91841	0.39199
2807.98984	0.38677
2806.06128	0.38136
2804.13271	0.37588
2802.20415	0.37041
2800.27559	0.36518
2798.34702	0.36024
2796.41846	0.35530
2794.48989	0.35030
2792.56133	0.34547
2790.63276	0.34078
2788.70420	0.33609
2786.77563	0.33148
2784.84707	0.32697
2782.91851	0.32240
2780.98994	0.31781
2779.06138	0.31346
2777.13281	0.30946
2775.20425	0.30562
2773.27568	0.30173
2771.34712	0.29774
2769.41855	0.29376
2767.48999	0.29000
2765.56143	0.28645
2763.63286	0.28291
2761.70430	0.27938
2759.77573	0.27592
2757.84717	0.27250
2755.91860	0.26914
2753.99004	0.26594
2752.06147	0.26284
2750.13291	0.25970
2748.20435	0.25659
2746.27578	0.25359
2744.34722	0.25061
2742.41865	0.24769
2740.49009	0.24490
2738.56152	0.24221
2736.63296	0.23971
2734.70439	0.23728
2732.77583	0.23469
2730.84727	0.23206
2728.91870	0.22957
2726.99014	0.22728
2725.06157	0.22510
2723.13301	0.22288
2721.20444	0.22056
2719.27588	0.21819
2717.34731	0.21601
2715.41875	0.21402
2713.49019	0.21201
2711.56162	0.21003
2709.63306	0.20813
2707.70449	0.20622
2705.77593	0.20449
2703.84736	0.20299
2701.91880	0.20160
2699.99023	0.20014
2698.06167	0.19851
2696.13311	0.19684
2694.20454	0.19530
2692.27598	0.19382
2690.34741	0.19223
2688.41885	0.19061
2686.49028	0.18930
2684.56172	0.18823
2682.63315	0.18713
2680.70459	0.18591
2678.77603	0.18464
2676.84746	0.18338
2674.91890	0.18224
2672.99033	0.18115
2671.06177	0.18007
2669.13320	0.17903
2667.20464	0.17796
2665.27607	0.17690
2663.34751	0.17589
2661.41895	0.17485
2659.49038	0.17394
2657.56182	0.17326
2655.63325	0.17252
2653.70469	0.17169
2651.77612	0.17093
2649.84756	0.17015
2647.91899	0.16935
2645.99043	0.16862
2644.06187	0.16795
2642.13330	0.16735
2640.20474	0.16671
2638.27617	0.16597
2636.34761	0.16534
2634.41904	0.16490
2632.49048	0.16451
2630.56191	0.16413
2628.63335	0.16367
2626.70479	0.16312
2624.77622	0.16263
2622.84766	0.16226
2620.91909	0.16192
2618.99053	0.16162
2617.06196	0.16147
2615.13340	0.16137
2613.20483	0.16108
2611.27627	0.16070
2609.34771	0.16048
2607.41914	0.16028
2605.49058	0.16004
2603.56201	0.15986
2601.63345	0.15974
2599.70488	0.15975
2597.77632	0.15994
2595.84775	0.16011
2593.91919	0.16011
2591.99062	0.16002
2590.06206	0.15996
2588.13350	0.15995
2586.20493	0.16010
2584.27637	0.16041
2582.34780	0.16083
2580.41924	0.16124
2578.49067	0.16140
2576.56211	0.16131
2574.63354	0.16134
2572.70498	0.16162
2570.77642	0.16198
2568.84785	0.16232
2566.91929	0.16259
2564.99072	0.16288
2563.06216	0.16326
2561.13359	0.16368
2559.20503	0.16413
2557.27646	0.16458
2555.34790	0.16501
2553.41934	0.16548
2551.49077	0.16594
2549.56221	0.16641
2547.63364	0.16695
2545.70508	0.16748
2543.77651	0.16793
2541.84795	0.16837
2539.91938	0.16890
2537.99082	0.16954
2536.06226	0.17023
2534.13369	0.17090
2532.20513	0.17156
2530.27656	0.17222
2528.34800	0.17284
2526.41943	0.17343
2524.49087	0.17404
2522.56230	0.17470
2520.63374	0.17538
2518.70518	0.17612
2516.77661	0.17692
2514.84805	0.17773
2512.91948	0.17851
2510.99092	0.17930
2509.06235	0.18010
2507.13379	0.18094
2505.20522	0.18182
2503.27666	0.18265
2501.34810	0.18334
2499.41953	0.18398
2497.49097	0.18466
2495.56240	0.18540
2493.63384	0.18620
2491.70527	0.18701
2489.77671	0.18783
2487.84814	0.18866
2485.91958	0.18942
2483.99102	0.19016
2482.06245	0.19108
2480.13389	0.19210
2478.20532	0.19305
2476.27676	0.19393
2474.34819	0.19477
2472.41963	0.19552
2470.49106	0.19624
2468.56250	0.19716
2466.63394	0.19826
2464.70537	0.19927
2462.77681	0.20014
2460.84824	0.20096
2458.91968	0.20183
2456.99111	0.20269
2455.06255	0.20350
2453.13398	0.20442
2451.20542	0.20544
2449.27686	0.20635
2447.34829	0.20715
2445.41973	0.20810
2443.49116	0.20918
2441.56260	0.21027
2439.63403	0.21131
2437.70547	0.21230
2435.77690	0.21330
2433.84834	0.21426
2431.91978	0.21517
2429.99121	0.21614
2428.06265	0.21710
2426.13408	0.21802
2424.20552	0.21906
2422.27695	0.22026
2420.34839	0.22150
2418.41982	0.22265
2416.49126	0.22373
2414.56270	0.22480
2412.63413	0.22596
2410.70557	0.22721
2408.77700	0.22836
2406.84844	0.22941
2404.91987	0.23055
2402.99131	0.23175
2401.06274	0.23298
2399.13418	0.23426
2397.20562	0.23555
2395.27705	0.23681
2393.34849	0.23804
2391.41992	0.23924
2389.49136	0.24030
2387.56279	0.24125
2385.63423	0.24226
2383.70566	0.24319
2381.77710	0.24378
2379.84854	0.24418
2377.91997	0.24446
2375.99141	0.24450
2374.06284	0.24446
2372.13428	0.24442
2370.20571	0.24410
2368.27715	0.24312
2366.34858	0.24179
2364.42002	0.24142
2362.49146	0.24278
2360.56289	0.24512
2358.63433	0.24766
2356.70576	0.25010
2354.77720	0.25264
2352.84863	0.25624
2350.92007	0.26012
2348.99150	0.26244
2347.06294	0.26320
2345.13437	0.26345
2343.20581	0.26397
2341.27725	0.26501
2339.34868	0.26662
2337.42012	0.26840
2335.49155	0.27008
2333.56299	0.27189
2331.63442	0.27401
2329.70586	0.27633
2327.77729	0.27884
2325.84873	0.28134
2323.92017	0.28352
2321.99160	0.28547
2320.06304	0.28781
2318.13447	0.29055
2316.20591	0.29301
2314.27734	0.29512
2312.34878	0.29723
2310.42021	0.29937
2308.49165	0.30149
2306.56309	0.30378
2304.63452	0.30626
2302.70596	0.30855
2300.77739	0.31060
2298.84883	0.31261
2296.92026	0.31463
2294.99170	0.31666
2293.06313	0.31884
2291.13457	0.32107
2289.20601	0.32319
2287.27744	0.32522
2285.34888	0.32727
2283.42031	0.32940
2281.49175	0.33150
2279.56318	0.33349
2277.63462	0.33545
2275.70605	0.33744
2273.77749	0.33945
2271.84893	0.34153
2269.92036	0.34370
2267.99180	0.34588
2266.06323	0.34805
2264.13467	0.35025
2262.20610	0.35244
2260.27754	0.35462
2258.34897	0.35687
2256.42041	0.35911
2254.49185	0.36125
2252.56328	0.36341
2250.63472	0.36563
2248.70615	0.36789
2246.77759	0.37010
2244.84902	0.37224
2242.92046	0.37438
2240.99189	0.37668
2239.06333	0.37907
2237.13477	0.38136
2235.20620	0.38358
2233.27764	0.38582
2231.34907	0.38802
2229.42051	0.39017
2227.49194	0.39237
2225.56338	0.39462
2223.63481	0.39691
2221.70625	0.39920
2219.77769	0.40148
2217.84912	0.40378
2215.92056	0.40604
2213.99199	0.40807
2212.06343	0.41005
2210.13486	0.41228
2208.20630	0.41466
2206.27773	0.41681
2204.34917	0.41879
2202.42061	0.42088
2200.49204	0.42304
2198.56348	0.42506
2196.63491	0.42701
2194.70635	0.42899
2192.77778	0.43091
2190.84922	0.43275
2188.92065	0.43459
2186.99209	0.43648
2185.06353	0.43826
2183.13496	0.43996
2181.20640	0.44168
2179.27783	0.44337
2177.34927	0.44504
2175.42070	0.44663
2173.49214	0.44809
2171.56357	0.44953
2169.63501	0.45105
2167.70645	0.45253
2165.77788	0.45382
2163.84932	0.45499
2161.92075	0.45614
2159.99219	0.45716
2158.06362	0.45806
2156.13506	0.45906
2154.20649	0.46007
2152.27793	0.46083
2150.34937	0.46136
2148.42080	0.46193
2146.49224	0.46263
2144.56367	0.46327
2142.63511	0.46371
2140.70654	0.46406
2138.77798	0.46441
2136.84941	0.46463
2134.92085	0.46468
2132.99229	0.46457
2131.06372	0.46436
2129.13516	0.46419
2127.20659	0.46401
2125.27803	0.46374
2123.34946	0.46336
2121.42090	0.46298
2119.49233	0.46254
2117.56377	0.46195
2115.63521	0.46121
2113.70664	0.46037
2111.77808	0.45944
2109.84951	0.45844
2107.92095	0.45744
2105.99238	0.45644
2104.06382	0.45527
2102.13525	0.45388
2100.20669	0.45242
2098.27812	0.45095
2096.34956	0.44940
2094.42100	0.44786
2092.49243	0.44633
2090.56387	0.44471
2088.63530	0.44297
2086.70674	0.44114
2084.77817	0.43929
2082.84961	0.43743
2080.92104	0.43539
2078.99248	0.43322
2077.06392	0.43101
2075.13535	0.42876
2073.20679	0.42658
2071.27822	0.42447
2069.34966	0.42218
2067.42109	0.41967
2065.49253	0.41718
2063.56396	0.41478
2061.63540	0.41238
2059.70684	0.40985
2057.77827	0.40729
2055.84971	0.40480
2053.92114	0.40229
2051.99258	0.39967
2050.06401	0.39694
2048.13545	0.39414
2046.20688	0.39138
2044.27832	0.38876
2042.34976	0.38619
2040.42119	0.38351
2038.49263	0.38072
2036.56406	0.37797
2034.63550	0.37524
2032.70693	0.37240
2030.77837	0.36952
2028.84980	0.36668
2026.92124	0.36382
2024.99268	0.36095
2023.06411	0.35810
2021.13555	0.35526
2019.20698	0.35249
2017.27842	0.34980
2015.34985	0.34707
2013.42129	0.34432
2011.49272	0.34152
2009.56416	0.33870
2007.63560	0.33592
2005.70703	0.33319
2003.77847	0.33049
2001.84990	0.32788
1999.92134	0.32536
1997.99277	0.32276
1996.06421	0.32003
1994.13564	0.31733
1992.20708	0.31474
1990.27852	0.31219
1988.34995	0.30968
1986.42139	0.30722
1984.49282	0.30481
1982.56426	0.30244
1980.63569	0.30004
1978.70713	0.29766
1976.77856	0.29540
1974.85000	0.29318
1972.92144	0.29094
1970.99287	0.28876
1969.06431	0.28669
1967.13574	0.28467
1965.20718	0.28263
1963.27861	0.28060
1961.35005	0.27862
1959.42148	0.27664
1957.49292	0.27466
1955.56436	0.27277
1953.63579	0.27105
1951.70723	0.26943
1949.77866	0.26775
1947.85010	0.26602
1945.92153	0.26442
1943.99297	0.26298
1942.06440	0.26151
1940.13584	0.25992
1938.20728	0.25839
1936.27871	0.25703
1934.35015	0.25577
1932.42158	0.25450
1930.49302	0.25320
1928.56445	0.25202
1926.63589	0.25097
1924.70732	0.24993
1922.77876	0.24887
1920.85020	0.24787
1918.92163	0.24699
1916.99307	0.24611
1915.06450	0.24521
1913.13594	0.24439
1911.20737	0.24370
1909.27881	0.24298
1907.35024	0.24219
1905.42168	0.24150
1903.49312	0.24099
1901.56455	0.24044
1899.63599	0.23980
1897.70742	0.23929
1895.77886	0.23895
1893.85029	0.23867
1891.92173	0.23825
1889.99316	0.23793
1888.06460	0.23773
1886.13604	0.23742
1884.20747	0.23708
1882.27891	0.23686
1880.35034	0.23670
1878.42178	0.23659
1876.49321	0.23655
1874.56465	0.23652
1872.63608	0.23651
1870.70752	0.23661
1868.77896	0.23704
1866.85039	0.23748
1864.92183	0.23757
1862.99326	0.23764
1861.06470	0.23784
1859.13613	0.23817
1857.20757	0.23855
1855.27900	0.23897
1853.35044	0.23936
1851.42187	0.23985
1849.49331	0.24049
1847.56475	0.24119
1845.63618	0.24195
1843.70762	0.24285
1841.77905	0.24366
1839.85049	0.24421
1837.92192	0.24497
1835.99336	0.24595
1834.06479	0.24693
1832.13623	0.24784
1830.20767	0.24906
1828.27910	0.25047
1826.35054	0.25158
1824.42197	0.25289
1822.49341	0.25432
1820.56484	0.25566
1818.63628	0.25707
1816.70771	0.25869
1814.77915	0.26030
1812.85059	0.26197
1810.92202	0.26394
1808.99346	0.26605
1807.06489	0.26809
1805.13633	0.27000
1803.20776	0.27209
1801.27920	0.27451
1799.35063	0.27736
1797.42207	0.28003
1795.49351	0.28243
1793.56494	0.28509
1791.63638	0.28864
1789.70781	0.29229
1787.77925	0.29509
1785.85068	0.29818
1783.92212	0.30172
1781.99355	0.30561
1780.06499	0.30981
1778.13643	0.31411
1776.20786	0.31819
1774.27930	0.32249
1772.35073	0.32818
1770.42217	0.33442
1768.49360	0.33982
1766.56504	0.34508
1764.63647	0.35047
1762.70791	0.35626
1760.77935	0.36359
1758.85078	0.37073
1756.92222	0.37791
1754.99365	0.38570
1753.06509	0.39279
1751.13652	0.40102
1749.20796	0.41126
1747.27939	0.42141
1745.35083	0.43047
1743.42227	0.44005
1741.49370	0.45067
1739.56514	0.46322
1737.63657	0.47591
1735.70801	0.48701
1733.77944	0.50310
1731.85088	0.52237
1729.92231	0.53811
1727.99375	0.55414
1726.06519	0.57133
1724.13662	0.58998
1722.20806	0.61009
1720.27949	0.62888
1718.35093	0.65068
1716.42236	0.68192
1714.49380	0.71210
1712.56523	0.73762
1710.63667	0.76263
1708.70811	0.78910
1706.77954	0.81873
1704.85098	0.85388
1702.92241	0.88574
1700.99385	0.91771
1699.06528	0.96464
1697.13672	1.00834
1695.20815	1.05367
1693.27959	1.09884
1691.35103	1.13583
1689.42246	1.17803
1687.49390	1.22272
1685.56533	1.26644
1683.63677	1.33216
1681.70820	1.40102
1679.77964	1.44673
1677.85107	1.48987
1675.92251	1.53908
1673.99395	1.59999
1672.06538	1.65537
1670.13682	1.70992
1668.20825	1.77990
1666.27969	1.83844
1664.35112	1.88964
1662.42256	1.95390
1660.49399	2.02729
1658.56543	2.08595
1656.63687	2.13253
1654.70830	2.17282
1652.77974	2.23111
1650.85117	2.28890
1648.92261	2.31109
1646.99404	2.33486
1645.06548	2.35842
1643.13691	2.37548
1641.20835	2.38571
1639.27979	2.39365
1637.35122	2.39650
1635.42266	2.39382
1633.49409	2.38527
1631.56553	2.36959
1629.63696	2.34995
1627.70840	2.31816
1625.77983	2.28061
1623.85127	2.23417
1621.92271	2.17959
1619.99414	2.13116
1618.06558	2.08354
1616.13701	2.01787
1614.20845	1.95111
1612.27988	1.89873
1610.35132	1.84426
1608.42275	1.78619
1606.49419	1.72931
1604.56562	1.67676
1602.63706	1.62642
1600.70850	1.57808
1598.77993	1.53363
1596.85137	1.49145
1594.92280	1.45090
1592.99424	1.41258
1591.06567	1.37767
1589.13711	1.34513
1587.20854	1.31541
1585.27998	1.28866
1583.35142	1.26400
1581.42285	1.24125
1579.49429	1.22171
1577.56572	1.20487
1575.63716	1.18608
1573.70859	1.16991
1571.78003	1.15924
1569.85146	1.14924
1567.92290	1.13949
1565.99434	1.13287
1564.06577	1.12865
1562.13721	1.12594
1560.20864	1.12576
1558.28008	1.13168
1556.35151	1.13869
1554.42295	1.14235
1552.49438	1.14586
1550.56582	1.14764
1548.63726	1.14646
1546.70869	1.14179
1544.78013	1.13284
1542.85156	1.11987
1540.92300	1.10047
1538.99443	1.07016
1537.06587	1.04646
1535.13730	1.02930
1533.20874	1.00731
1531.28018	0.98448
1529.35161	0.96748
1527.42305	0.95110
1525.49448	0.93427
1523.56592	0.92018
1521.63735	0.90713
1519.70879	0.89423
1517.78022	0.88332
1515.85166	0.87101
1513.92310	0.85785
1511.99453	0.84548
1510.06597	0.83378
1508.13740	0.82264
1506.20884	0.80704
1504.28027	0.79321
1502.35171	0.78501
1500.42314	0.77782
1498.49458	0.77020
1496.56602	0.76171
1494.63745	0.75343
1492.70889	0.74674
1490.78032	0.74063
1488.85176	0.73402
1486.92319	0.72829
1484.99463	0.72397
1483.06606	0.72070
1481.13750	0.71816
1479.20894	0.71628
1477.28037	0.71528
1475.35181	0.71525
1473.42324	0.71585
1471.49468	0.71582
1469.56611	0.71442
1467.63755	0.71235
1465.70898	0.71047
1463.78042	0.70933
1461.85186	0.70896
1459.92329	0.70910
1457.99473	0.70974
1456.06616	0.70997
1454.13760	0.70826
1452.20903	0.70553
1450.28047	0.70250
1448.35190	0.69967
1446.42334	0.69704
1444.49478	0.69463
1442.56621	0.69227
1440.63765	0.68960
1438.70908	0.68654
1436.78052	0.68272
1434.85195	0.67867
1432.92339	0.67561
1430.99482	0.67358
1429.06626	0.67256
1427.13770	0.67258
1425.20913	0.67328
1423.28057	0.67428
1421.35200	0.67508
1419.42344	0.67587
1417.49487	0.67647
1415.56631	0.67602
1413.63774	0.67537
1411.70918	0.67535
1409.78062	0.67620
1407.85205	0.67772
1405.92349	0.67968
1403.99492	0.68150
1402.06636	0.68210
1400.13779	0.68135
1398.20923	0.67951
1396.28066	0.67673
1394.35210	0.67277
1392.42354	0.66805
1390.49497	0.66347
1388.56641	0.65876
1386.63784	0.65335
1384.70928	0.64775
1382.78071	0.64252
1380.85215	0.63762
1378.92358	0.63334
1376.99502	0.62996
1375.06646	0.62759
1373.13789	0.62612
1371.20933	0.62526
1369.28076	0.62463
1367.35220	0.62367
1365.42363	0.62210
1363.49507	0.62027
1361.56650	0.61854
1359.63794	0.61683
1357.70937	0.61518
1355.78081	0.61383
1353.85225	0.61284
1351.92368	0.61203
1349.99512	0.61131
1348.06655	0.61056
1346.13799	0.60964
1344.20942	0.60869
1342.28086	0.60787
1340.35229	0.60717
1338.42373	0.60650
1336.49517	0.60584
1334.56660	0.60536
1332.63804	0.60523
1330.70947	0.60542
1328.78091	0.60596
1326.85234	0.60690
1324.92378	0.60802
1322.99521	0.60906
1321.06665	0.60989
1319.13809	0.61059
1317.20952	0.61116
1315.28096	0.61148
1313.35239	0.61134
1311.42383	0.61075
1309.49526	0.60996
1307.56670	0.60924
1305.63813	0.60862
1303.70957	0.60787
1301.78101	0.60689
1299.85244	0.60577
1297.92388	0.60461
1295.99531	0.60341
1294.06675	0.60211
1292.13818	0.60067
1290.20962	0.59923
1288.28105	0.59778
1286.35249	0.59634
1284.42393	0.59504
1282.49536	0.59367
1280.56680	0.59205
1278.63823	0.59030
1276.70967	0.58874
1274.78110	0.58751
1272.85254	0.58660
1270.92397	0.58584
1268.99541	0.58500
1267.06685	0.58405
1265.13828	0.58315
1263.20972	0.58243
1261.28115	0.58173
1259.35259	0.58089
1257.42402	0.58006
1255.49546	0.57958
1253.56689	0.57960
1251.63833	0.57990
1249.70977	0.58015
1247.78120	0.58014
1245.85264	0.57985
1243.92407	0.57937
1241.99551	0.57847
1240.06694	0.57696
1238.13838	0.57501
1236.20981	0.57276
1234.28125	0.57036
1232.35269	0.56795
1230.42412	0.56553
1228.49556	0.56313
1226.56699	0.56081
1224.63843	0.55867
1222.70986	0.55671
1220.78130	0.55487
1218.85273	0.55308
1216.92417	0.55136
1214.99561	0.54991
1213.06704	0.54896
1211.13848	0.54838
1209.20991	0.54778
1207.28135	0.54703
1205.35278	0.54621
1203.42422	0.54516
1201.49565	0.54394
1199.56709	0.54291
1197.63853	0.54220
1195.70996	0.54155
1193.78140	0.54081
1191.85283	0.54014
1189.92427	0.53967
1187.99570	0.53920
1186.06714	0.53882
1184.13857	0.53890
1182.21001	0.53950
1180.28145	0.54050
1178.35288	0.54191
1176.42432	0.54355
1174.49575	0.54499
1172.56719	0.54609
1170.63862	0.54671
1168.71006	0.54675
1166.78149	0.54657
1164.85293	0.54653
1162.92437	0.54656
1160.99580	0.54640
1159.06724	0.54594
1157.13867	0.54533
1155.21011	0.54466
1153.28154	0.54365
1151.35298	0.54193
1149.42441	0.53954
1147.49585	0.53685
1145.56729	0.53413
1143.63872	0.53154
1141.71016	0.52928
1139.78159	0.52746
1137.85303	0.52608
1135.92446	0.52523
1133.99590	0.52493
1132.06733	0.52494
1130.13877	0.52497
1128.21021	0.52481
1126.28164	0.52444
1124.35308	0.52394
1122.42451	0.52342
1120.49595	0.52321
1118.56738	0.52332
1116.63882	0.52348
1114.71025	0.52380
1112.78169	0.52440
1110.85312	0.52517
1108.92456	0.52620
1106.99600	0.52741
1105.06743	0.52853
1103.13887	0.52955
1101.21030	0.53066
1099.28174	0.53199
1097.35317	0.53368
1095.42461	0.53608
1093.49604	0.53959
1091.56748	0.54428
1089.63892	0.55005
1087.71035	0.55702
1085.78179	0.56523
1083.85322	0.57393
1081.92466	0.58156
1079.99609	0.58675
1078.06753	0.58900
1076.13896	0.58846
1074.21040	0.58537
1072.28184	0.57984
1070.35327	0.57263
1068.42471	0.56517
1066.49614	0.55826
1064.56758	0.55200
1062.63901	0.54626
1060.71045	0.54114
1058.78188	0.53694
1056.85332	0.53339
1054.92476	0.53006
1052.99619	0.52710
1051.06763	0.52462
1049.13906	0.52255
1047.21050	0.52110
1045.28193	0.52041
1043.35337	0.52025
1041.42480	0.52023
1039.49624	0.52016
1037.56768	0.51998
1035.63911	0.51967
1033.71055	0.51914
1031.78198	0.51815
1029.85342	0.51657
1027.92485	0.51462
1025.99629	0.51272
1024.06772	0.51124
1022.13916	0.51042
1020.21060	0.51018
1018.28203	0.51014
1016.35347	0.51005
1014.42490	0.50976
1012.49634	0.50936
1010.56777	0.50927
1008.63921	0.50952
1006.71064	0.50990
1004.78208	0.51079
1002.85352	0.51260
1000.92495	0.51505
998.99639	0.51807
997.06782	0.52202
995.13926	0.52660
993.21069	0.53093
991.28213	0.53433
989.35356	0.53649
987.42500	0.53746
985.49644	0.53754
983.56787	0.53720
981.63931	0.53706
979.71074	0.53751
977.78218	0.53862
975.85361	0.54047
973.92505	0.54289
971.99648	0.54568
970.06792	0.54894
968.13936	0.55257
966.21079	0.55654
964.28223	0.56083
962.35366	0.56536
960.42510	0.57033
958.49653	0.57580
956.56797	0.58162
954.63940	0.58750
952.71084	0.59339
950.78228	0.59959
948.85371	0.60600
946.92515	0.61222
944.99658	0.61850
943.06802	0.62520
941.13945	0.63173
939.21089	0.63765
937.28232	0.64337
935.35376	0.64898
933.42520	0.65446
931.49663	0.66032
929.56807	0.66644
927.63950	0.67197
925.71094	0.67728
923.78237	0.68364
921.85381	0.69100
919.92524	0.69841
917.99668	0.70527
916.06812	0.71197
914.13955	0.71911
912.21099	0.72668
910.28242	0.73475
908.35386	0.74332
906.42529	0.75177
904.49673	0.75966
902.56816	0.76804
900.63960	0.77806
898.71104	0.78896
896.78247	0.79951
894.85391	0.80989
892.92534	0.81991
890.99678	0.82867
889.06821	0.83749
887.13965	0.84845
885.21108	0.86093
883.28252	0.87320
881.35396	0.88413
879.42539	0.89409
877.49683	0.90476
875.56826	0.91702
873.63970	0.92966
871.71113	0.94164
869.78257	0.95352
867.85400	0.96591
865.92544	0.97869
863.99687	0.99084
862.06831	1.00169
860.13975	1.01228
858.21118	1.02356
856.28262	1.03481
854.35405	1.04629
852.42549	1.05958
850.49692	1.07341
848.56836	1.08479
846.63979	1.09452
844.71123	1.10556
842.78267	1.11706
840.85410	1.12710
838.92554	1.13643
836.99697	1.14788
835.06841	1.16327
833.13984	1.17944
831.21128	1.19092
829.28271	1.19843
827.35415	1.21068
825.42559	1.23074
823.49702	1.25037
821.56846	1.26037
819.63989	1.26010
817.71133	1.26101
815.78276	1.27213
813.85420	1.28437
811.92563	1.29675
809.99707	1.31955
808.06851	1.33488
806.13994	1.33378
804.21138	1.33825
802.28281	1.35262
800.35425	1.36993
798.42568	1.39121
796.49712	1.40867
794.56855	1.42312
792.63999	1.46461
790.71143	1.50324
788.78286	1.46070
786.85430	1.39179
784.92573	1.38174
782.99717	1.43231
781.06860	1.46489
779.14004	1.43057
777.21147	1.38449
775.28291	1.36064
773.35435	1.36774
771.42578	1.38534
769.49722	1.38103
767.56865	1.37904
765.64009	1.37859
763.71152	1.36656
761.78296	1.33229
759.85439	1.30165
757.92583	1.32032
755.99727	1.28688
754.06870	1.17601
752.14014	1.11098
750.21157	1.08424
748.28301	1.04748
746.35444	1.02260
744.42588	1.02123
742.49731	1.01919
740.56875	1.03854
738.64019	1.13707
736.71162	1.37606
734.78306	1.53237
732.85449	1.04972
730.92593	0.67610
728.99736	0.49425
727.06880	0.43881
725.14023	0.43829
723.21167	0.49272
721.28311	0.59990
719.35454	0.47961
717.42598	0.36266
715.49741	0.47792
713.56885	0.70214
711.64028	0.54315
709.71172	0.20306
707.78315	-0.16167
705.85459	-0.32351
703.92603	-0.07902
701.99746	0.08267
700.06890	0.15614
698.14033	0.27831
696.21177	0.44639
694.28320	0.45174
692.35464	0.42059
690.42607	0.40373
688.49751	0.33461
686.56895	0.31684
684.64038	0.29052
682.71182	0.24903
680.78325	0.26878
678.85469	0.27987
676.92612	0.29028
674.99756	0.36790
673.06899	0.43562
671.14043	0.39439
669.21187	0.31749
667.28330	0.22524
665.35474	0.20378
663.42617	0.26017
661.49761	0.32175
659.56904	0.41407
657.64048	0.48578
655.71191	0.42057
653.78335	0.39160
651.85479	0.41507
649.92622	0.36246
647.99766	0.30220
646.06909	0.31799
644.14053	0.43743
642.21196	0.64705
640.28340	0.70688
638.35483	0.50718
636.42627	0.37263
634.49771	0.28269
632.56914	0.22484
630.64058	0.21782
628.71201	0.24081
626.78345	0.26238
624.85488	0.30647
622.92632	0.35934
620.99775	0.33029
619.06919	0.25714
617.14062	0.21838
615.21206	0.17387
613.28350	0.16404
611.35493	0.20073
609.42637	0.17240
607.49780	0.10158
605.56924	0.10513
603.64067	0.17999
601.71211	0.26731
599.78354	0.25646
597.85498	0.13837
595.92642	0.10483
593.99785	0.18598
592.06929	0.29406
590.14072	0.33037
588.21216	0.28704
586.28359	0.25750
584.35503	0.24968
582.42646	0.22347
580.49790	0.19601
578.56934	0.16937
576.64077	0.15106
574.71221	0.20594
572.78364	0.32734
570.85508	0.31896
568.92651	0.21117
566.99795	0.18851
565.06938	0.26746
563.14082	0.30918
561.21226	0.26466
559.28369	0.20538
557.35513	0.19401
555.42656	0.30639
553.49800	0.73898
551.56943	0.69593
549.64087	0.30806
547.71230	0.20756
545.78374	0.18930
543.85518	0.16983
541.92661	0.18773
539.99805	0.23876
538.06948	0.30509
536.14092	0.41110
534.21235	0.42804
532.28379	0.29268
530.35522	0.22905
528.42666	0.29169
526.49810	0.42136
524.56953	0.50984
522.64097	0.39485
520.71240	0.28414
518.78384	0.26496
516.85527	0.24755
514.92671	0.20062
512.99814	0.19815
511.06958	0.23480
509.14102	0.21515
507.21245	0.18925
505.28389	0.26378
503.35532	0.37980
501.42676	0.37572
499.49819	0.29545
