3997.91411	0.07327
3995.98555	0.07347
3994.05698	0.07399
3992.12842	0.07451
3990.19985	0.07508
3988.27129	0.07575
3986.34272	0.07637
3984.41416	0.07661
3982.48560	0.07639
3980.55703	0.07618
3978.62847	0.07618
3976.69990	0.07635
3974.77134	0.07679
3972.84277	0.07742
3970.91421	0.07771
3968.98564	0.07750
3967.05708	0.07726
3965.12852	0.07724
3963.19995	0.07743
3961.27139	0.07784
3959.34282	0.07835
3957.41426	0.07854
3955.48569	0.07841
3953.55713	0.07834
3951.62856	0.07833
3949.70000	0.07820
3947.77144	0.07801
3945.84287	0.07776
3943.91431	0.07763
3941.98574	0.07776
3940.05718	0.07783
3938.12861	0.07785
3936.20005	0.07806
3934.27148	0.07826
3932.34292	0.07840
3930.41436	0.07851
3928.48579	0.07834
3926.55723	0.07818
3924.62866	0.07834
3922.70010	0.07822
3920.77153	0.07776
3918.84297	0.07766
3916.91440	0.07776
3914.98584	0.07748
3913.05728	0.07696
3911.12871	0.07679
3909.20015	0.07702
3907.27158	0.07710
3905.34302	0.07669
3903.41445	0.07609
3901.48589	0.07605
3899.55732	0.07648
3897.62876	0.07653
3895.70020	0.07635
3893.77163	0.07634
3891.84307	0.07654
3889.91450	0.07690
3887.98594	0.07685
3886.05737	0.07656
3884.12881	0.07668
3882.20024	0.07684
3880.27168	0.07684
3878.34312	0.07701
3876.41455	0.07725
3874.48599	0.07730
3872.55742	0.07720
3870.62886	0.07721
3868.70029	0.07772
3866.77173	0.07832
3864.84316	0.07858
3862.91460	0.07884
3860.98604	0.07928
3859.05747	0.07949
3857.12891	0.07919
3855.20034	0.07857
3853.27178	0.07872
3851.34321	0.08033
3849.41465	0.08140
3847.48608	0.08185
3845.55752	0.08213
3843.62896	0.08228
3841.70039	0.08265
3839.77183	0.08311
3837.84326	0.08377
3835.91470	0.08484
3833.98613	0.08593
3832.05757	0.08683
3830.12900	0.08756
3828.20044	0.08814
3826.27187	0.08888
3824.34331	0.08945
3822.41475	0.08935
3820.48618	0.08981
3818.55762	0.09150
3816.62905	0.09318
3814.70049	0.09506
3812.77192	0.09643
3810.84336	0.09663
3808.91479	0.09658
3806.98623	0.09726
3805.05767	0.09848
3803.12910	0.09895
3801.20054	0.09961
3799.27197	0.10172
3797.34341	0.10362
3795.41484	0.10496
3793.48628	0.10630
3791.55771	0.10746
3789.62915	0.10837
3787.70059	0.10938
3785.77202	0.11099
3783.84346	0.11309
3781.91489	0.11497
3779.98633	0.11622
3778.05776	0.11758
3776.12920	0.11946
3774.20063	0.12119
3772.27207	0.12252
3770.34351	0.12409
3768.41494	0.12615
3766.48638	0.12781
3764.55781	0.12936
3762.62925	0.13129
3760.70068	0.13332
3758.77212	0.13571
3756.84355	0.13826
3754.91499	0.14012
3752.98643	0.14185
3751.05786	0.14477
3749.12930	0.14882
3747.20073	0.15145
3745.27217	0.15330
3743.34360	0.15715
3741.41504	0.16164
3739.48647	0.16458
3737.55791	0.16743
3735.62935	0.17165
3733.70078	0.17749
3731.77222	0.18330
3729.84365	0.18815
3727.91509	0.19233
3725.98652	0.19734
3724.05796	0.20384
3722.12939	0.21083
3720.20083	0.21811
3718.27227	0.22570
3716.34370	0.23343
3714.41514	0.24108
3712.48657	0.24959
3710.55801	0.26162
3708.62944	0.27622
3706.70088	0.28908
3704.77231	0.30078
3702.84375	0.31396
3700.91519	0.33072
3698.98662	0.34934
3697.05806	0.36731
3695.12949	0.38592
3693.20093	0.40542
3691.27236	0.42615
3689.34380	0.45243
3687.41523	0.48659
3685.48667	0.51899
3683.55811	0.54686
3681.62954	0.57564
3679.70098	0.60726
3677.77241	0.63987
3675.84385	0.67783
3673.91528	0.72874
3671.98672	0.77227
3670.05815	0.81171
3668.12959	0.86518
3666.20103	0.91564
3664.27246	0.95827
3662.34390	1.00313
3660.41533	1.05114
3658.48677	1.09792
3656.55820	1.14625
3654.62964	1.19998
3652.70107	1.24682
3650.77251	1.28756
3648.84395	1.34110
3646.91538	1.40760
3644.98682	1.46033
3643.05825	1.50158
3641.12969	1.54264
3639.20112	1.58752
3637.27256	1.63310
3635.34399	1.67705
3633.41543	1.71991
3631.48687	1.75987
3629.55830	1.80075
3627.62974	1.85474
3625.70117	1.90669
3623.77261	1.94201
3621.84404	1.97432
3619.91548	2.01108
3617.98691	2.05573
3616.05835	2.09964
3614.12979	2.13789
3612.20122	2.17837
3610.27266	2.21901
3608.34409	2.25945
3606.41553	2.30189
3604.48696	2.34188
3602.55840	2.37818
3600.62983	2.41678
3598.70127	2.45822
3596.77271	2.49876
3594.84414	2.53993
3592.91558	2.58246
3590.98701	2.62260
3589.05845	2.65964
3587.12988	2.70249
3585.20132	2.75057
3583.27275	2.79338
3581.34419	2.83233
3579.41562	2.87279
3577.48706	2.91532
3575.55850	2.95851
3573.62993	3.00395
3571.70137	3.04842
3569.77280	3.08896
3567.84424	3.13095
3565.91567	3.18209
3563.98711	3.23187
3562.05854	3.27405
3560.12998	3.31752
3558.20142	3.36338
3556.27285	3.40928
3554.34429	3.45500
3552.41572	3.50228
3550.48716	3.54951
3548.55859	3.59547
3546.63003	3.64281
3544.70146	3.69302
3542.77290	3.74224
3540.84434	3.78896
3538.91577	3.83551
3536.98721	3.88124
3535.05864	3.92775
3533.13008	3.97559
3531.20151	4.02431
3529.27295	4.07413
3527.34438	4.12271
3525.41582	4.16606
3523.48726	4.20912
3521.55869	4.25871
3519.63013	4.31128
3517.70156	4.36315
3515.77300	4.41078
3513.84443	4.45445
3511.91587	4.50079
3509.98730	4.55451
3508.05874	4.61135
3506.13018	4.66297
3504.20161	4.71006
3502.27305	4.75638
3500.34448	4.80113
3498.41592	4.84667
3496.48735	4.89708
3494.55879	4.94954
3492.63022	4.99950
3490.70166	5.04409
3488.77310	5.08896
3486.84453	5.14204
3484.91597	5.19620
3482.98740	5.24243
3481.05884	5.28284
3479.13027	5.32621
3477.20171	5.38042
3475.27314	5.43984
3473.34458	5.49415
3471.41602	5.54599
3469.48745	5.59869
3467.55889	5.64604
3465.63032	5.69060
3463.70176	5.74025
3461.77319	5.78708
3459.84463	5.82797
3457.91606	5.87172
3455.98750	5.92244
3454.05894	5.98279
3452.13037	6.05268
3450.20181	6.11749
3448.27324	6.16866
3446.34468	6.21621
3444.41611	6.25703
3442.48755	6.29606
3440.55898	6.34912
3438.63042	6.41180
3436.70186	6.46900
3434.77329	6.52533
3432.84473	6.58410
3430.91616	6.63675
3428.98760	6.69138
3427.05903	6.74069
3425.13047	6.78293
3423.20190	6.82938
3421.27334	6.88195
3419.34478	6.93592
3417.41621	6.98559
3415.48765	7.02076
3413.55908	7.04295
3411.63052	7.08553
3409.70195	7.15012
3407.77339	7.21003
3405.84482	7.23805
3403.91626	7.26056
3401.98770	7.31403
3400.05913	7.36229
3398.13057	7.38969
3396.20200	7.43593
3394.27344	7.50008
3392.34487	7.52148
3390.41631	7.51199
3388.48774	7.55147
3386.55918	7.66110
3384.63062	7.74094
3382.70205	7.73661
3380.77349	7.73611
3378.84492	7.78316
3376.91636	7.84302
3374.98779	7.86969
3373.05923	7.90248
3371.13066	7.96530
3369.20210	8.00898
3367.27354	7.98901
3365.34497	7.94888
3363.41641	7.98976
3361.48784	8.08378
3359.55928	8.13144
3357.63071	8.14329
3355.70215	8.16377
3353.77358	8.18918
3351.84502	8.21566
3349.91646	8.22723
3347.98789	8.23475
3346.05933	8.23507
3344.13076	8.23238
3342.20220	8.24579
3340.27363	8.23813
3338.34507	8.23141
3336.41650	8.27884
3334.48794	8.34422
3332.55937	8.34739
3330.63081	8.32397
3328.70225	8.30117
3326.77368	8.27987
3324.84512	8.26456
3322.91655	8.22379
3320.98799	8.20067
3319.05942	8.22140
3317.13086	8.28586
3315.20229	8.34886
3313.27373	8.33331
3311.34517	8.27800
3309.41660	8.26068
3307.48804	8.29362
3305.55947	8.36241
3303.63091	8.40758
3301.70234	8.40174
3299.77378	8.45795
3297.84521	8.54942
3295.91665	8.54601
3293.98809	8.45244
3292.05952	8.35493
3290.13096	8.31415
3288.20239	8.32857
3286.27383	8.39940
3284.34526	8.50212
3282.41670	8.54845
3280.48813	8.49164
3278.55957	8.44613
3276.63101	8.47204
3274.70244	8.48064
3272.77388	8.47042
3270.84531	8.55474
3268.91675	8.65661
3266.98818	8.60220
3265.05962	8.52423
3263.13105	8.50346
3261.20249	8.46085
3259.27393	8.42833
3257.34536	8.44403
3255.41680	8.46527
3253.48823	8.48887
3251.55967	8.52839
3249.63110	8.56826
3247.70254	8.57803
3245.77397	8.53178
3243.84541	8.44623
3241.91685	8.33982
3239.98828	8.30161
3238.05972	8.36702
3236.13115	8.45189
3234.20259	8.53767
3232.27402	8.64473
3230.34546	8.69495
3228.41689	8.61303
3226.48833	8.48800
3224.55977	8.40752
3222.63120	8.37662
3220.70264	8.37730
3218.77407	8.34566
3216.84551	8.22432
3214.91694	8.09864
3212.98838	8.06061
3211.05981	8.06144
3209.13125	8.05108
3207.20269	8.02925
3205.27412	7.98493
3203.34556	7.95996
3201.41699	7.98112
3199.48843	7.97766
3197.55986	7.92256
3195.63130	7.87970
3193.70273	7.87856
3191.77417	7.87734
3189.84561	7.81454
3187.91704	7.71876
3185.98848	7.67282
3184.05991	7.66342
3182.13135	7.60848
3180.20278	7.50421
3178.27422	7.40420
3176.34565	7.33874
3174.41709	7.29994
3172.48853	7.26612
3170.55996	7.23109
3168.63140	7.18630
3166.70283	7.12919
3164.77427	7.06200
3162.84570	6.97612
3160.91714	6.88086
3158.98857	6.80300
3157.06001	6.74289
3155.13145	6.67670
3153.20288	6.59679
3151.27432	6.51284
3149.34575	6.44521
3147.41719	6.40804
3145.48862	6.36479
3143.56006	6.27836
3141.63149	6.17777
3139.70293	6.10195
3137.77437	6.05170
3135.84580	5.99584
3133.91724	5.91800
3131.98867	5.83705
3130.06011	5.76611
3128.13154	5.69863
3126.20298	5.62589
3124.27441	5.55001
3122.34585	5.47573
3120.41729	5.40163
3118.48872	5.32810
3116.56016	5.25528
3114.63159	5.17825
3112.70303	5.10264
3110.77446	5.03740
3108.84590	4.97720
3106.91733	4.91403
3104.98877	4.84423
3103.06021	4.76811
3101.13164	4.69176
3099.20308	4.62328
3097.27451	4.56181
3095.34595	4.49997
3093.41738	4.43518
3091.48882	4.36810
3089.56025	4.30145
3087.63169	4.23829
3085.70312	4.17775
3083.77456	4.11576
3081.84600	4.05101
3079.91743	3.98636
3077.98887	3.92483
3076.06030	3.86623
3074.13174	3.80680
3072.20317	3.74622
3070.27461	3.68770
3068.34604	3.63112
3066.41748	3.57382
3064.48892	3.51513
3062.56035	3.45764
3060.63179	3.40299
3058.70322	3.34878
3056.77466	3.29373
3054.84609	3.24009
3052.91753	3.18793
3050.98896	3.13597
3049.06040	3.08500
3047.13184	3.03456
3045.20327	2.98352
3043.27471	2.93280
3041.34614	2.88340
3039.41758	2.83567
3037.48901	2.78902
3035.56045	2.74221
3033.63188	2.69515
3031.70332	2.64855
3029.77476	2.60278
3027.84619	2.55774
3025.91763	2.51358
3023.98906	2.47050
3022.06050	2.42815
3020.13193	2.38603
3018.20337	2.34435
3016.27480	2.30402
3014.34624	2.26495
3012.41768	2.22600
3010.48911	2.18718
3008.56055	2.14902
3006.63198	2.11149
3004.70342	2.07489
3002.77485	2.03943
3000.84629	2.00469
2998.91772	1.97014
2996.98916	1.93598
2995.06060	1.90268
2993.13203	1.87009
2991.20347	1.83829
2989.27490	1.80765
2987.34634	1.77803
2985.41777	1.74865
2983.48921	1.71895
2981.56064	1.69000
2979.63208	1.66277
2977.70352	1.63613
2975.77495	1.60903
2973.84639	1.58211
2971.91782	1.55608
2969.98926	1.53074
2968.06069	1.50547
2966.13213	1.47987
2964.20356	1.45414
2962.27500	1.42891
2960.34644	1.40443
2958.41787	1.38042
2956.48931	1.35639
2954.56074	1.33224
2952.63218	1.30830
2950.70361	1.28479
2948.77505	1.26190
2946.84648	1.23948
2944.91792	1.21705
2942.98936	1.19485
2941.06079	1.17355
2939.13223	1.15269
2937.20366	1.13156
2935.27510	1.11039
2933.34653	1.08940
2931.41797	1.06877
2929.48940	1.04881
2927.56084	1.02924
2925.63228	1.00964
2923.70371	0.99023
2921.77515	0.97141
2919.84658	0.95361
2917.91802	0.93686
2915.98945	0.92092
2914.06089	0.90577
2912.13232	0.89085
2910.20376	0.87579
2908.27520	0.86097
2906.34663	0.84671
2904.41807	0.83286
2902.48950	0.81918
2900.56094	0.80579
2898.63237	0.79291
2896.70381	0.78031
2894.77524	0.76774
2892.84668	0.75545
2890.91812	0.74356
2888.98955	0.73193
2887.06099	0.72074
2885.13242	0.71015
2883.20386	0.69976
2881.27529	0.68922
2879.34673	0.67867
2877.41816	0.66836
2875.48960	0.65819
2873.56104	0.64790
2871.63247	0.63726
2869.70391	0.62631
2867.77534	0.61508
2865.84678	0.60326
2863.91821	0.59088
2861.98965	0.57867
2860.06108	0.56714
2858.13252	0.55621
2856.20396	0.54568
2854.27539	0.53568
2852.34683	0.52633
2850.41826	0.51747
2848.48970	0.50921
2846.56113	0.50183
2844.63257	0.49523
2842.70400	0.48928
2840.77544	0.48368
2838.84687	0.47788
2836.91831	0.47182
2834.98975	0.46573
2833.06118	0.45970
2831.13262	0.45381
2829.20405	0.44790
2827.27549	0.44185
2825.34692	0.43575
2823.41836	0.42954
2821.48979	0.42330
2819.56123	0.41725
2817.63267	0.41154
2815.70410	0.40593
2813.77554	0.40022
2811.84697	0.39462
2809.91841	0.38904
2807.98984	0.38332
2806.06128	0.37782
2804.13271	0.37256
2802.20415	0.36738
2800.27559	0.36233
2798.34702	0.35736
2796.41846	0.35237
2794.48989	0.34748
2792.56133	0.34275
2790.63276	0.33816
2788.70420	0.33367
2786.77563	0.32915
2784.84707	0.32465
2782.91851	0.32027
2780.98994	0.31605
2779.06138	0.31209
2777.13281	0.30813
2775.20425	0.30397
2773.27568	0.29977
2771.34712	0.29578
2769.41855	0.29211
2767.48999	0.28863
2765.56143	0.28525
2763.63286	0.28188
2761.70430	0.27846
2759.77573	0.27504
2757.84717	0.27172
2755.91860	0.26846
2753.99004	0.26524
2752.06147	0.26209
2750.13291	0.25898
2748.20435	0.25594
2746.27578	0.25308
2744.34722	0.25034
2742.41865	0.24750
2740.49009	0.24455
2738.56152	0.24174
2736.63296	0.23923
2734.70439	0.23688
2732.77583	0.23442
2730.84727	0.23191
2728.91870	0.22951
2726.99014	0.22720
2725.06157	0.22492
2723.13301	0.22265
2721.20444	0.22047
2719.27588	0.21834
2717.34731	0.21622
2715.41875	0.21424
2713.49019	0.21240
2711.56162	0.21058
2709.63306	0.20879
2707.70449	0.20704
2705.77593	0.20526
2703.84736	0.20350
2701.91880	0.20187
2699.99023	0.20029
2698.06167	0.19867
2696.13311	0.19715
2694.20454	0.19584
2692.27598	0.19458
2690.34741	0.19319
2688.41885	0.19186
2686.49028	0.19062
2684.56172	0.18927
2682.63315	0.18790
2680.70459	0.18670
2678.77603	0.18563
2676.84746	0.18455
2674.91890	0.18336
2672.99033	0.18209
2671.06177	0.18088
2669.13320	0.17969
2667.20464	0.17854
2665.27607	0.17755
2663.34751	0.17667
2661.41895	0.17572
2659.49038	0.17469
2657.56182	0.17377
2655.63325	0.17304
2653.70469	0.17235
2651.77612	0.17163
2649.84756	0.17096
2647.91899	0.17030
2645.99043	0.16962
2644.06187	0.16898
2642.13330	0.16834
2640.20474	0.16773
2638.27617	0.16721
2636.34761	0.16673
2634.41904	0.16621
2632.49048	0.16570
2630.56191	0.16511
2628.63335	0.16440
2626.70479	0.16387
2624.77622	0.16356
2622.84766	0.16326
2620.91909	0.16303
2618.99053	0.16290
2617.06196	0.16267
2615.13340	0.16238
2613.20483	0.16220
2611.27627	0.16207
2609.34771	0.16196
2607.41914	0.16182
2605.49058	0.16160
2603.56201	0.16140
2601.63345	0.16136
2599.70488	0.16146
2597.77632	0.16155
2595.84775	0.16159
2593.91919	0.16167
2591.99062	0.16183
2590.06206	0.16197
2588.13350	0.16202
2586.20493	0.16209
2584.27637	0.16226
2582.34780	0.16246
2580.41924	0.16268
2578.49067	0.16292
2576.56211	0.16307
2574.63354	0.16328
2572.70498	0.16369
2570.77642	0.16410
2568.84785	0.16448
2566.91929	0.16497
2564.99072	0.16549
2563.06216	0.16591
2561.13359	0.16627
2559.20503	0.16658
2557.27646	0.16689
2555.34790	0.16728
2553.41934	0.16778
2551.49077	0.16839
2549.56221	0.16901
2547.63364	0.16951
2545.70508	0.16999
2543.77651	0.17060
2541.84795	0.17124
2539.91938	0.17179
2537.99082	0.17233
2536.06226	0.17296
2534.13369	0.17362
2532.20513	0.17418
2530.27656	0.17477
2528.34800	0.17553
2526.41943	0.17627
2524.49087	0.17697
2522.56230	0.17779
2520.63374	0.17862
2518.70518	0.17934
2516.77661	0.18006
2514.84805	0.18079
2512.91948	0.18157
2510.99092	0.18248
2509.06235	0.18337
2507.13379	0.18408
2505.20522	0.18470
2503.27666	0.18544
2501.34810	0.18628
2499.41953	0.18718
2497.49097	0.18799
2495.56240	0.18874
2493.63384	0.18967
2491.70527	0.19075
2489.77671	0.19167
2487.84814	0.19232
2485.91958	0.19295
2483.99102	0.19377
2482.06245	0.19469
2480.13389	0.19565
2478.20532	0.19660
2476.27676	0.19738
2474.34819	0.19808
2472.41963	0.19900
2470.49106	0.20006
2468.56250	0.20097
2466.63394	0.20176
2464.70537	0.20256
2462.77681	0.20337
2460.84824	0.20425
2458.91968	0.20520
2456.99111	0.20614
2455.06255	0.20707
2453.13398	0.20807
2451.20542	0.20925
2449.27686	0.21042
2447.34829	0.21133
2445.41973	0.21222
2443.49116	0.21325
2441.56260	0.21423
2439.63403	0.21513
2437.70547	0.21611
2435.77690	0.21714
2433.84834	0.21815
2431.91978	0.21913
2429.99121	0.22023
2428.06265	0.22141
2426.13408	0.22249
2424.20552	0.22343
2422.27695	0.22442
2420.34839	0.22552
2418.41982	0.22666
2416.49126	0.22780
2414.56270	0.22893
2412.63413	0.23008
2410.70557	0.23124
2408.77700	0.23233
2406.84844	0.23342
2404.91987	0.23461
2402.99131	0.23585
2401.06274	0.23708
2399.13418	0.23833
2397.20562	0.23950
2395.27705	0.24058
2393.34849	0.24179
2391.41992	0.24316
2389.49136	0.24456
2387.56279	0.24592
2385.63423	0.24726
2383.70566	0.24865
2381.77710	0.25016
2379.84854	0.25177
2377.91997	0.25346
2375.99141	0.25535
2374.06284	0.25751
2372.13428	0.25977
2370.20571	0.26196
2368.27715	0.26381
2366.34858	0.26559
2364.42002	0.26767
2362.49146	0.27006
2360.56289	0.27235
2358.63433	0.27367
2356.70576	0.27454
2354.77720	0.27572
2352.84863	0.27703
2350.92007	0.27803
2348.99150	0.27854
2347.06294	0.27918
2345.13437	0.28073
2343.20581	0.28303
2341.27725	0.28518
2339.34868	0.28722
2337.42012	0.28910
2335.49155	0.29071
2333.56299	0.29201
2331.63442	0.29326
2329.70586	0.29477
2327.77729	0.29637
2325.84873	0.29793
2323.92017	0.29942
2321.99160	0.30076
2320.06304	0.30213
2318.13447	0.30361
2316.20591	0.30502
2314.27734	0.30645
2312.34878	0.30796
2310.42021	0.30936
2308.49165	0.31078
2306.56309	0.31251
2304.63452	0.31442
2302.70596	0.31617
2300.77739	0.31780
2298.84883	0.31958
2296.92026	0.32152
2294.99170	0.32344
2293.06313	0.32525
2291.13457	0.32701
2289.20601	0.32879
2287.27744	0.33061
2285.34888	0.33249
2283.42031	0.33446
2281.49175	0.33650
2279.56318	0.33849
2277.63462	0.34046
2275.70605	0.34250
2273.77749	0.34467
2271.84893	0.34694
2269.92036	0.34915
2267.99180	0.35127
2266.06323	0.35337
2264.13467	0.35549
2262.20610	0.35767
2260.27754	0.35980
2258.34897	0.36180
2256.42041	0.36387
2254.49185	0.36617
2252.56328	0.36846
2250.63472	0.37061
2248.70615	0.37274
2246.77759	0.37494
2244.84902	0.37724
2242.92046	0.37954
2240.99189	0.38176
2239.06333	0.38393
2237.13477	0.38605
2235.20620	0.38822
2233.27764	0.39055
2231.34907	0.39291
2229.42051	0.39517
2227.49194	0.39738
2225.56338	0.39953
2223.63481	0.40169
2221.70625	0.40395
2219.77769	0.40625
2217.84912	0.40842
2215.92056	0.41055
2213.99199	0.41279
2212.06343	0.41511
2210.13486	0.41736
2208.20630	0.41954
2206.27773	0.42169
2204.34917	0.42378
2202.42061	0.42573
2200.49204	0.42761
2198.56348	0.42963
2196.63491	0.43171
2194.70635	0.43372
2192.77778	0.43570
2190.84922	0.43767
2188.92065	0.43958
2186.99209	0.44145
2185.06353	0.44332
2183.13496	0.44511
2181.20640	0.44671
2179.27783	0.44827
2177.34927	0.44993
2175.42070	0.45154
2173.49214	0.45301
2171.56357	0.45444
2169.63501	0.45585
2167.70645	0.45715
2165.77788	0.45832
2163.84932	0.45950
2161.92075	0.46078
2159.99219	0.46200
2158.06362	0.46303
2156.13506	0.46402
2154.20649	0.46498
2152.27793	0.46572
2150.34937	0.46626
2148.42080	0.46689
2146.49224	0.46764
2144.56367	0.46820
2142.63511	0.46861
2140.70654	0.46903
2138.77798	0.46932
2136.84941	0.46942
2134.92085	0.46947
2132.99229	0.46952
2131.06372	0.46951
2129.13516	0.46935
2127.20659	0.46906
2125.27803	0.46870
2123.34946	0.46823
2121.42090	0.46768
2119.49233	0.46710
2117.56377	0.46653
2115.63521	0.46590
2113.70664	0.46512
2111.77808	0.46417
2109.84951	0.46314
2107.92095	0.46210
2105.99238	0.46100
2104.06382	0.45979
2102.13525	0.45846
2100.20669	0.45709
2098.27812	0.45567
2096.34956	0.45416
2094.42100	0.45262
2092.49243	0.45101
2090.56387	0.44929
2088.63530	0.44751
2086.70674	0.44572
2084.77817	0.44379
2082.84961	0.44186
2080.92104	0.43999
2078.99248	0.43801
2077.06392	0.43586
2075.13535	0.43367
2073.20679	0.43149
2071.27822	0.42928
2069.34966	0.42689
2067.42109	0.42439
2065.49253	0.42197
2063.56396	0.41955
2061.63540	0.41709
2059.70684	0.41459
2057.77827	0.41198
2055.84971	0.40930
2053.92114	0.40668
2051.99258	0.40413
2050.06401	0.40151
2048.13545	0.39882
2046.20688	0.39615
2044.27832	0.39349
2042.34976	0.39068
2040.42119	0.38785
2038.49263	0.38517
2036.56406	0.38245
2034.63550	0.37953
2032.70693	0.37656
2030.77837	0.37372
2028.84980	0.37103
2026.92124	0.36836
2024.99268	0.36555
2023.06411	0.36270
2021.13555	0.35986
2019.20698	0.35696
2017.27842	0.35411
2015.34985	0.35131
2013.42129	0.34846
2011.49272	0.34562
2009.56416	0.34294
2007.63560	0.34031
2005.70703	0.33764
2003.77847	0.33497
2001.84990	0.33230
1999.92134	0.32956
1997.99277	0.32672
1996.06421	0.32393
1994.13564	0.32127
1992.20708	0.31875
1990.27852	0.31631
1988.34995	0.31391
1986.42139	0.31148
1984.49282	0.30901
1982.56426	0.30653
1980.63569	0.30409
1978.70713	0.30172
1976.77856	0.29947
1974.85000	0.29729
1972.92144	0.29507
1970.99287	0.29286
1969.06431	0.29069
1967.13574	0.28852
1965.20718	0.28645
1963.27861	0.28451
1961.35005	0.28261
1959.42148	0.28072
1957.49292	0.27890
1955.56436	0.27707
1953.63579	0.27518
1951.70723	0.27332
1949.77866	0.27160
1947.85010	0.26997
1945.92153	0.26837
1943.99297	0.26675
1942.06440	0.26518
1940.13584	0.26375
1938.20728	0.26240
1936.27871	0.26105
1934.35015	0.25972
1932.42158	0.25844
1930.49302	0.25720
1928.56445	0.25605
1926.63589	0.25495
1924.70732	0.25385
1922.77876	0.25275
1920.85020	0.25160
1918.92163	0.25052
1916.99307	0.24964
1915.06450	0.24895
1913.13594	0.24822
1911.20737	0.24740
1909.27881	0.24656
1907.35024	0.24582
1905.42168	0.24520
1903.49312	0.24464
1901.56455	0.24411
1899.63599	0.24360
1897.70742	0.24314
1895.77886	0.24269
1893.85029	0.24228
1891.92173	0.24190
1889.99316	0.24162
1888.06460	0.24143
1886.13604	0.24123
1884.20747	0.24101
1882.27891	0.24084
1880.35034	0.24072
1878.42178	0.24062
1876.49321	0.24059
1874.56465	0.24053
1872.63608	0.24048
1870.70752	0.24047
1868.77896	0.24063
1866.85039	0.24099
1864.92183	0.24130
1862.99326	0.24152
1861.06470	0.24175
1859.13613	0.24214
1857.20757	0.24256
1855.27900	0.24296
1853.35044	0.24332
1851.42187	0.24375
1849.49331	0.24417
1847.56475	0.24459
1845.63618	0.24510
1843.70762	0.24597
1841.77905	0.24710
1839.85049	0.24792
1837.92192	0.24875
1835.99336	0.24971
1834.06479	0.25062
1832.13623	0.25139
1830.20767	0.25250
1828.27910	0.25403
1826.35054	0.25529
1824.42197	0.25661
1822.49341	0.25803
1820.56484	0.25943
1818.63628	0.26084
1816.70771	0.26242
1814.77915	0.26402
1812.85059	0.26568
1810.92202	0.26765
1808.99346	0.26981
1807.06489	0.27188
1805.13633	0.27379
1803.20776	0.27583
1801.27920	0.27815
1799.35063	0.28090
1797.42207	0.28349
1795.49351	0.28578
1793.56494	0.28829
1791.63638	0.29180
1789.70781	0.29566
1787.77925	0.29867
1785.85068	0.30184
1783.92212	0.30552
1781.99355	0.30945
1780.06499	0.31358
1778.13643	0.31790
1776.20786	0.32185
1774.27930	0.32569
1772.35073	0.33093
1770.42217	0.33733
1768.49360	0.34326
1766.56504	0.34890
1764.63647	0.35439
1762.70791	0.36007
1760.77935	0.36723
1758.85078	0.37426
1756.92222	0.38134
1754.99365	0.38910
1753.06509	0.39606
1751.13652	0.40383
1749.20796	0.41353
1747.27939	0.42362
1745.35083	0.43292
1743.42227	0.44271
1741.49370	0.45341
1739.56514	0.46584
1737.63657	0.47832
1735.70801	0.48937
1733.77944	0.50561
1731.85088	0.52518
1729.92231	0.54120
1727.99375	0.55761
1726.06519	0.57528
1724.13662	0.59415
1722.20806	0.61419
1720.27949	0.63279
1718.35093	0.65424
1716.42236	0.68527
1714.49380	0.71591
1712.56523	0.74187
1710.63667	0.76696
1708.70811	0.79338
1706.77954	0.82286
1704.85098	0.85770
1702.92241	0.88933
1700.99385	0.92103
1699.06528	0.96725
1697.13672	1.01014
1695.20815	1.05470
1693.27959	1.09947
1691.35103	1.13604
1689.42246	1.17701
1687.49390	1.21969
1685.56533	1.26120
1683.63677	1.32377
1681.70820	1.38979
1679.77964	1.43425
1677.85107	1.47635
1675.92251	1.52386
1673.99395	1.58132
1672.06538	1.63296
1670.13682	1.68375
1668.20825	1.74928
1666.27969	1.80486
1664.35112	1.85328
1662.42256	1.91306
1660.49399	1.98062
1658.56543	2.03448
1656.63687	2.07721
1654.70830	2.11552
1652.77974	2.17317
1650.85117	2.22578
1648.92261	2.24430
1646.99404	2.26926
1645.06548	2.29853
1643.13691	2.31846
1641.20835	2.32706
1639.27979	2.33224
1637.35122	2.33555
1635.42266	2.33599
1633.49409	2.32958
1631.56553	2.31507
1629.63696	2.29677
1627.70840	2.26764
1625.77983	2.23239
1623.85127	2.18798
1621.92271	2.13703
1619.99414	2.09187
1618.06558	2.04565
1616.13701	1.98121
1614.20845	1.91700
1612.27988	1.86700
1610.35132	1.81385
1608.42275	1.75687
1606.49419	1.70179
1604.56562	1.65106
1602.63706	1.60169
1600.70850	1.55301
1598.77993	1.50789
1596.85137	1.46595
1594.92280	1.42599
1592.99424	1.38789
1591.06567	1.35331
1589.13711	1.32121
1587.20854	1.29130
1585.27998	1.26371
1583.35142	1.23829
1581.42285	1.21515
1579.49429	1.19503
1577.56572	1.17685
1575.63716	1.15615
1573.70859	1.13873
1571.78003	1.12719
1569.85146	1.11550
1567.92290	1.10345
1565.99434	1.09472
1564.06577	1.08834
1562.13721	1.08354
1560.20864	1.08050
1558.28008	1.08013
1556.35151	1.08223
1554.42295	1.08307
1552.49438	1.08281
1550.56582	1.08109
1548.63726	1.07759
1546.70869	1.07174
1544.78013	1.06227
1542.85156	1.04939
1540.92300	1.03212
1538.99443	1.00722
1537.06587	0.98765
1535.13730	0.97313
1533.20874	0.95455
1531.28018	0.93520
1529.35161	0.92076
1527.42305	0.90711
1525.49448	0.89296
1523.56592	0.88064
1521.63735	0.86935
1519.70879	0.85872
1517.78022	0.84977
1515.85166	0.83953
1513.92310	0.82838
1511.99453	0.81793
1510.06597	0.80792
1508.13740	0.79789
1506.20884	0.78433
1504.28027	0.77326
1502.35171	0.76672
1500.42314	0.76063
1498.49458	0.75393
1496.56602	0.74645
1494.63745	0.73938
1492.70889	0.73374
1490.78032	0.72839
1488.85176	0.72233
1486.92319	0.71710
1484.99463	0.71322
1483.06606	0.71005
1481.13750	0.70722
1479.20894	0.70489
1477.28037	0.70323
1475.35181	0.70201
1473.42324	0.70115
1471.49468	0.70035
1469.56611	0.69899
1467.63755	0.69699
1465.70898	0.69485
1463.78042	0.69345
1461.85186	0.69295
1459.92329	0.69271
1457.99473	0.69266
1456.06616	0.69255
1454.13760	0.69118
1452.20903	0.68910
1450.28047	0.68687
1448.35190	0.68466
1446.42334	0.68248
1444.49478	0.68037
1442.56621	0.67808
1440.63765	0.67554
1438.70908	0.67285
1436.78052	0.66961
1434.85195	0.66632
1432.92339	0.66386
1430.99482	0.66213
1429.06626	0.66130
1427.13770	0.66125
1425.20913	0.66151
1423.28057	0.66194
1421.35200	0.66217
1419.42344	0.66204
1417.49487	0.66178
1415.56631	0.66125
1413.63774	0.66059
1411.70918	0.66023
1409.78062	0.66049
1407.85205	0.66125
1405.92349	0.66217
1403.99492	0.66301
1402.06636	0.66321
1400.13779	0.66241
1398.20923	0.66064
1396.28066	0.65813
1394.35210	0.65486
1392.42354	0.65120
1390.49497	0.64769
1388.56641	0.64402
1386.63784	0.63970
1384.70928	0.63518
1382.78071	0.63089
1380.85215	0.62675
1378.92358	0.62317
1376.99502	0.62047
1375.06646	0.61863
1373.13789	0.61756
1371.20933	0.61705
1369.28076	0.61661
1367.35220	0.61567
1365.42363	0.61405
1363.49507	0.61225
1361.56650	0.61081
1359.63794	0.60964
1357.70937	0.60842
1355.78081	0.60702
1353.85225	0.60572
1351.92368	0.60479
1349.99512	0.60404
1348.06655	0.60321
1346.13799	0.60227
1344.20942	0.60127
1342.28086	0.60022
1340.35229	0.59922
1338.42373	0.59833
1336.49517	0.59770
1334.56660	0.59729
1332.63804	0.59705
1330.70947	0.59703
1328.78091	0.59721
1326.85234	0.59754
1324.92378	0.59806
1322.99521	0.59867
1321.06665	0.59917
1319.13809	0.59954
1317.20952	0.59974
1315.28096	0.59961
1313.35239	0.59909
1311.42383	0.59826
1309.49526	0.59736
1307.56670	0.59656
1305.63813	0.59590
1303.70957	0.59527
1301.78101	0.59448
1299.85244	0.59347
1297.92388	0.59241
1295.99531	0.59122
1294.06675	0.58989
1292.13818	0.58856
1290.20962	0.58727
1288.28105	0.58601
1286.35249	0.58484
1284.42393	0.58367
1282.49536	0.58234
1280.56680	0.58096
1278.63823	0.57962
1276.70967	0.57834
1274.78110	0.57716
1272.85254	0.57617
1270.92397	0.57550
1268.99541	0.57493
1267.06685	0.57422
1265.13828	0.57342
1263.20972	0.57266
1261.28115	0.57198
1259.35259	0.57134
1257.42402	0.57077
1255.49546	0.57047
1253.56689	0.57048
1251.63833	0.57070
1249.70977	0.57091
1247.78120	0.57088
1245.85264	0.57059
1243.92407	0.57006
1241.99551	0.56918
1240.06694	0.56796
1238.13838	0.56650
1236.20981	0.56480
1234.28125	0.56278
1232.35269	0.56058
1230.42412	0.55851
1228.49556	0.55656
1226.56699	0.55466
1224.63843	0.55290
1222.70986	0.55120
1220.78130	0.54956
1218.85273	0.54812
1216.92417	0.54680
1214.99561	0.54557
1213.06704	0.54453
1211.13848	0.54370
1209.20991	0.54313
1207.28135	0.54266
1205.35278	0.54193
1203.42422	0.54086
1201.49565	0.53986
1199.56709	0.53903
1197.63853	0.53814
1195.70996	0.53719
1193.78140	0.53630
1191.85283	0.53550
1189.92427	0.53493
1187.99570	0.53459
1186.06714	0.53441
1184.13857	0.53433
1182.21001	0.53449
1180.28145	0.53511
1178.35288	0.53619
1176.42432	0.53759
1174.49575	0.53898
1172.56719	0.53994
1170.63862	0.54046
1168.71006	0.54083
1166.78149	0.54121
1164.85293	0.54160
1162.92437	0.54193
1160.99580	0.54214
1159.06724	0.54207
1157.13867	0.54164
1155.21011	0.54093
1153.28154	0.53988
1151.35298	0.53816
1149.42441	0.53576
1147.49585	0.53304
1145.56729	0.53022
1143.63872	0.52750
1141.71016	0.52516
1139.78159	0.52336
1137.85303	0.52197
1135.92446	0.52096
1133.99590	0.52040
1132.06733	0.52031
1130.13877	0.52049
1128.21021	0.52046
1126.28164	0.52010
1124.35308	0.51959
1122.42451	0.51919
1120.49595	0.51917
1118.56738	0.51945
1116.63882	0.51997
1114.71025	0.52067
1112.78169	0.52154
1110.85312	0.52263
1108.92456	0.52374
1106.99600	0.52469
1105.06743	0.52553
1103.13887	0.52639
1101.21030	0.52742
1099.28174	0.52878
1097.35317	0.53057
1095.42461	0.53298
1093.49604	0.53645
1091.56748	0.54124
1089.63892	0.54745
1087.71035	0.55517
1085.78179	0.56399
1083.85322	0.57293
1081.92466	0.58078
1079.99609	0.58630
1078.06753	0.58875
1076.13896	0.58811
1074.21040	0.58486
1072.28184	0.57956
1070.35327	0.57271
1068.42471	0.56516
1066.49614	0.55802
1064.56758	0.55182
1062.63901	0.54632
1060.71045	0.54147
1058.78188	0.53737
1056.85332	0.53364
1054.92476	0.53000
1052.99619	0.52672
1051.06763	0.52425
1049.13906	0.52269
1047.21050	0.52181
1045.28193	0.52143
1043.35337	0.52144
1041.42480	0.52151
1039.49624	0.52145
1037.56768	0.52149
1035.63911	0.52179
1033.71055	0.52176
1031.78198	0.52073
1029.85342	0.51891
1027.92485	0.51698
1025.99629	0.51526
1024.06772	0.51386
1022.13916	0.51273
1020.21060	0.51188
1018.28203	0.51147
1016.35347	0.51137
1014.42490	0.51110
1012.49634	0.51063
1010.56777	0.51039
1008.63921	0.51052
1006.71064	0.51099
1004.78208	0.51192
1002.85352	0.51335
1000.92495	0.51556
998.99639	0.51877
997.06782	0.52294
995.13926	0.52758
993.21069	0.53167
991.28213	0.53470
989.35356	0.53677
987.42500	0.53774
985.49644	0.53774
983.56787	0.53742
981.63931	0.53743
979.71074	0.53807
977.78218	0.53934
975.85361	0.54122
973.92505	0.54364
971.99648	0.54645
970.06792	0.54955
968.13936	0.55297
966.21079	0.55679
964.28223	0.56107
962.35366	0.56564
960.42510	0.57046
958.49653	0.57573
956.56797	0.58160
954.63940	0.58791
952.71084	0.59419
950.78228	0.60021
948.85371	0.60637
946.92515	0.61276
944.99658	0.61900
943.06802	0.62508
941.13945	0.63146
939.21089	0.63832
937.28232	0.64502
935.35376	0.65084
933.42520	0.65599
931.49663	0.66134
929.56807	0.66726
927.63950	0.67361
925.71094	0.68029
923.78237	0.68685
921.85381	0.69298
919.92524	0.69936
917.99668	0.70636
916.06812	0.71353
914.13955	0.72093
912.21099	0.72877
910.28242	0.73641
908.35386	0.74393
906.42529	0.75232
904.49673	0.76155
902.56816	0.77136
900.63960	0.78169
898.71104	0.79182
896.78247	0.80162
894.85391	0.81165
892.92534	0.82213
890.99678	0.83232
889.06821	0.84269
887.13965	0.85460
885.21108	0.86638
883.28252	0.87681
881.35396	0.88764
879.42539	0.89935
877.49683	0.91087
875.56826	0.92232
873.63970	0.93396
871.71113	0.94523
869.78257	0.95660
867.85400	0.96893
865.92544	0.98138
863.99687	0.99368
862.06831	1.00655
860.13975	1.01902
858.21118	1.03019
856.28262	1.04061
854.35405	1.05156
852.42549	1.06332
850.49692	1.07427
848.56836	1.08508
846.63979	1.09740
844.71123	1.11099
842.78267	1.12496
840.85410	1.13763
838.92554	1.14939
836.99697	1.16092
835.06841	1.17092
833.13984	1.18341
831.21128	1.19934
829.28271	1.21147
827.35415	1.22108
825.42559	1.23193
823.49702	1.24158
821.56846	1.25300
819.63989	1.26983
817.71133	1.28751
815.78276	1.30468
813.85420	1.31861
811.92563	1.32338
809.99707	1.32684
808.06851	1.33590
806.13994	1.35587
804.21138	1.39355
802.28281	1.43493
800.35425	1.45065
798.42568	1.43989
796.49712	1.43014
794.56855	1.44782
792.63999	1.50489
790.71143	1.56492
788.78286	1.58570
786.85430	1.60056
784.92573	1.63875
782.99717	1.67502
781.06860	1.69317
779.14004	1.71525
777.21147	1.73470
775.28291	1.66646
773.35435	1.55126
771.42578	1.54147
769.49722	1.65941
767.56865	1.75949
765.64009	1.70645
763.71152	1.74511
761.78296	1.87915
759.85439	1.65009
757.92583	1.54562
755.99727	1.66476
754.06870	1.81381
752.14014	1.60797
750.21157	1.40511
748.28301	1.33696
746.35444	1.31274
744.42588	1.17616
742.49731	1.01333
740.56875	0.92583
738.64019	0.89937
736.71162	0.88437
734.78306	0.91193
732.85449	0.99123
730.92593	0.93536
728.99736	0.72388
727.06880	0.58853
725.14023	0.59276
723.21167	0.69225
721.28311	0.69756
719.35454	0.61863
717.42598	0.62138
715.49741	0.51137
713.56885	0.01103
711.64028	-0.36802
709.71172	-0.01141
707.78315	0.30468
705.85459	0.75107
703.92603	0.89898
701.99746	0.36033
700.06890	0.17901
698.14033	0.25315
696.21177	0.63255
694.28320	0.97778
692.35464	0.69775
690.42607	0.45050
688.49751	0.29707
686.56895	0.26655
684.64038	0.23629
682.71182	0.16201
680.78325	0.15519
678.85469	0.19634
676.92612	0.23232
674.99756	0.24791
673.06899	0.20979
671.14043	0.18924
669.21187	0.24758
667.28330	0.27798
665.35474	0.25291
663.42617	0.27877
661.49761	0.31471
659.56904	0.21688
657.64048	0.09915
655.71191	0.05053
653.78335	0.05105
651.85479	0.06695
649.92622	0.09650
647.99766	0.13465
646.06909	0.19487
644.14053	0.27274
642.21196	0.39823
640.28340	0.56840
638.35483	0.50451
636.42627	0.36076
634.49771	0.33867
632.56914	0.37994
630.64058	0.37376
628.71201	0.28228
626.78345	0.22700
624.85488	0.24404
622.92632	0.22584
620.99775	0.09726
619.06919	0.00966
617.14062	0.05116
615.21206	0.18881
613.28350	0.27665
611.35493	0.25814
609.42637	0.25114
607.49780	0.26948
605.56924	0.33074
603.64067	0.37288
601.71211	0.25879
599.78354	0.23774
597.85498	0.36916
595.92642	0.54800
593.99785	0.61140
592.06929	0.63414
590.14072	0.45138
588.21216	0.32897
586.28359	0.36220
584.35503	0.44715
582.42646	0.46529
580.49790	0.51886
578.56934	0.71836
576.64077	0.72391
574.71221	0.42999
572.78364	0.32668
570.85508	0.30587
568.92651	0.28657
566.99795	0.28743
565.06938	0.30820
563.14082	0.30451
561.21226	0.26630
559.28369	0.19483
557.35513	0.13368
555.42656	0.14393
553.49800	0.17270
551.56943	0.14167
549.64087	0.09356
547.71230	0.08900
545.78374	0.16456
543.85518	0.30180
541.92661	0.36313
539.99805	0.25377
538.06948	0.15090
536.14092	0.14517
534.21235	0.22773
532.28379	0.30606
530.35522	0.30018
528.42666	0.28704
526.49810	0.29766
524.56953	0.25614
522.64097	0.20847
520.71240	0.22308
518.78384	0.26949
516.85527	0.24887
514.92671	0.21825
512.99814	0.23062
511.06958	0.25674
509.14102	0.23796
507.21245	0.18023
505.28389	0.16937
503.35532	0.21622
501.42676	0.24594
499.49819	0.24072
