3997.91411	0.06022
3995.98555	0.06117
3994.05698	0.06199
3992.12842	0.06214
3990.19985	0.06194
3988.27129	0.06192
3986.34272	0.06237
3984.41416	0.06297
3982.48560	0.06334
3980.55703	0.06360
3978.62847	0.06383
3976.69990	0.06387
3974.77134	0.06392
3972.84277	0.06420
3970.91421	0.06465
3968.98564	0.06499
3967.05708	0.06493
3965.12852	0.06455
3963.19995	0.06444
3961.27139	0.06474
3959.34282	0.06513
3957.41426	0.06547
3955.48569	0.06572
3953.55713	0.06587
3951.62856	0.06611
3949.70000	0.06646
3947.77144	0.06684
3945.84287	0.06703
3943.91431	0.06675
3941.98574	0.06632
3940.05718	0.06604
3938.12861	0.06578
3936.20005	0.06555
3934.27148	0.06559
3932.34292	0.06614
3930.41436	0.06686
3928.48579	0.06677
3926.55723	0.06609
3924.62866	0.06591
3922.70010	0.06617
3920.77153	0.06629
3918.84297	0.06634
3916.91440	0.06634
3914.98584	0.06607
3913.05728	0.06558
3911.12871	0.06532
3909.20015	0.06538
3907.27158	0.06558
3905.34302	0.06628
3903.41445	0.06780
3901.48589	0.06926
3899.55732	0.06944
3897.62876	0.06836
3895.70020	0.06693
3893.77163	0.06618
3891.84307	0.06649
3889.91450	0.06691
3887.98594	0.06660
3886.05737	0.06680
3884.12881	0.06759
3882.20024	0.06774
3880.27168	0.06812
3878.34312	0.06857
3876.41455	0.06792
3874.48599	0.06764
3872.55742	0.06854
3870.62886	0.06967
3868.70029	0.07043
3866.77173	0.07029
3864.84316	0.07017
3862.91460	0.07086
3860.98604	0.07121
3859.05747	0.07115
3857.12891	0.07148
3855.20034	0.07243
3853.27178	0.07503
3851.34321	0.07738
3849.41465	0.07563
3847.48608	0.07323
3845.55752	0.07236
3843.62896	0.07304
3841.70039	0.07497
3839.77183	0.07758
3837.84326	0.07979
3835.91470	0.08029
3833.98613	0.07959
3832.05757	0.07890
3830.12900	0.07847
3828.20044	0.07854
3826.27187	0.07934
3824.34331	0.08023
3822.41475	0.08150
3820.48618	0.08454
3818.55762	0.08663
3816.62905	0.08628
3814.70049	0.08607
3812.77192	0.08592
3810.84336	0.08577
3808.91479	0.08666
3806.98623	0.08886
3805.05767	0.09098
3803.12910	0.09205
3801.20054	0.09367
3799.27197	0.09530
3797.34341	0.09553
3795.41484	0.09584
3793.48628	0.09630
3791.55771	0.09660
3789.62915	0.09748
3787.70059	0.09897
3785.77202	0.10060
3783.84346	0.10205
3781.91489	0.10345
3779.98633	0.10556
3778.05776	0.10805
3776.12920	0.10935
3774.20063	0.11008
3772.27207	0.11153
3770.34351	0.11417
3768.41494	0.11725
3766.48638	0.11938
3764.55781	0.12101
3762.62925	0.12243
3760.70068	0.12408
3758.77212	0.12676
3756.84355	0.12963
3754.91499	0.13188
3752.98643	0.13476
3751.05786	0.13971
3749.12930	0.14507
3747.20073	0.14732
3745.27217	0.14917
3743.34360	0.15336
3741.41504	0.15690
3739.48647	0.15896
3737.55791	0.16232
3735.62935	0.16842
3733.70078	0.17538
3731.77222	0.17913
3729.84365	0.18130
3727.91509	0.18490
3725.98652	0.19084
3724.05796	0.19790
3722.12939	0.20454
3720.20083	0.21133
3718.27227	0.21850
3716.34370	0.22562
3714.41514	0.23274
3712.48657	0.24181
3710.55801	0.25526
3708.62944	0.26979
3706.70088	0.28132
3704.77231	0.29208
3702.84375	0.30520
3700.91519	0.32247
3698.98662	0.34095
3697.05806	0.35834
3695.12949	0.37702
3693.20093	0.39725
3691.27236	0.41990
3689.34380	0.44911
3687.41523	0.48358
3685.48667	0.51317
3683.55811	0.53887
3681.62954	0.56698
3679.70098	0.59894
3677.77241	0.63285
3675.84385	0.67325
3673.91528	0.72628
3671.98672	0.76953
3670.05815	0.80824
3668.12959	0.86108
3666.20103	0.91024
3664.27246	0.95170
3662.34390	0.99563
3660.41533	1.04268
3658.48677	1.08915
3656.55820	1.13875
3654.62964	1.19402
3652.70107	1.24130
3650.77251	1.28332
3648.84395	1.34004
3646.91538	1.40736
3644.98682	1.45707
3643.05825	1.49599
3641.12969	1.53634
3639.20112	1.58095
3637.27256	1.62615
3635.34399	1.67037
3633.41543	1.71441
3631.48687	1.75566
3629.55830	1.79811
3627.62974	1.85277
3625.70117	1.90240
3623.77261	1.93628
3621.84404	1.96976
3619.91548	2.00891
3617.98691	2.05562
3616.05835	2.09930
3614.12979	2.13551
3612.20122	2.17410
3610.27266	2.21365
3608.34409	2.25417
3606.41553	2.29737
3604.48696	2.33718
3602.55840	2.37330
3600.62983	2.41320
3598.70127	2.45600
3596.77271	2.49629
3594.84414	2.53663
3592.91558	2.57860
3590.98701	2.61761
3589.05845	2.65383
3587.12988	2.69785
3585.20132	2.74610
3583.27275	2.78765
3581.34419	2.82795
3579.41562	2.87066
3577.48706	2.91318
3575.55850	2.95511
3573.62993	2.99887
3571.70137	3.04117
3569.77280	3.08054
3567.84424	3.12321
3565.91567	3.17619
3563.98711	3.22829
3562.05854	3.27127
3560.12998	3.31288
3558.20142	3.35751
3556.27285	3.40416
3554.34429	3.44956
3552.41572	3.49453
3550.48716	3.53860
3548.55859	3.58222
3546.63003	3.62878
3544.70146	3.68010
3542.77290	3.73138
3540.84434	3.77793
3538.91577	3.82214
3536.98721	3.86644
3535.05864	3.91353
3533.13008	3.96300
3531.20151	4.01405
3529.27295	4.06642
3527.34438	4.11695
3525.41582	4.16383
3523.48726	4.21242
3521.55869	4.26307
3519.63013	4.31022
3517.70156	4.35735
3515.77300	4.40505
3513.84443	4.45002
3511.91587	4.49465
3509.98730	4.54374
3508.05874	4.59605
3506.13018	4.64693
3504.20161	4.69417
3502.27305	4.73801
3500.34448	4.78570
3498.41592	4.83818
3496.48735	4.88623
3494.55879	4.93260
3492.63022	4.98698
3490.70166	5.04213
3488.77310	5.08944
3486.84453	5.13578
3484.91597	5.18944
3482.98740	5.24744
3481.05884	5.29784
3479.13027	5.33806
3477.20171	5.38289
3475.27314	5.43370
3473.34458	5.47944
3471.41602	5.52310
3469.48745	5.56897
3467.55889	5.61447
3465.63032	5.66060
3463.70176	5.71876
3461.77319	5.78749
3459.84463	5.84003
3457.91606	5.86855
3455.98750	5.90332
3454.05894	5.96538
3452.13037	6.03999
3450.20181	6.09954
3448.27324	6.13638
3446.34468	6.17963
3444.41611	6.24131
3442.48755	6.29669
3440.55898	6.34468
3438.63042	6.39627
3436.70186	6.43433
3434.77329	6.45581
3432.84473	6.49333
3430.91616	6.55582
3428.98760	6.62564
3427.05903	6.69861
3425.13047	6.75816
3423.20190	6.78190
3421.27334	6.81320
3419.34478	6.88456
3417.41621	6.95627
3415.48765	6.99229
3413.55908	7.01516
3411.63052	7.05951
3409.70195	7.11405
3407.77339	7.16980
3405.84482	7.21349
3403.91626	7.23894
3401.98770	7.28461
3400.05913	7.36102
3398.13057	7.40779
3396.20200	7.41744
3394.27344	7.43607
3392.34487	7.45012
3390.41631	7.46981
3388.48774	7.50838
3386.55918	7.55243
3384.63062	7.59698
3382.70205	7.65378
3380.77349	7.70983
3378.84492	7.73974
3376.91636	7.75561
3374.98779	7.75316
3373.05923	7.74960
3371.13066	7.76926
3369.20210	7.81624
3367.27354	7.84708
3365.34497	7.82528
3363.41641	7.79216
3361.48784	7.82396
3359.55928	7.92372
3357.63071	7.97461
3355.70215	7.95601
3353.77358	7.95826
3351.84502	8.01461
3349.91646	8.08176
3347.98789	8.14347
3346.05933	8.20137
3344.13076	8.23029
3342.20220	8.21831
3340.27363	8.18221
3338.34507	8.14506
3336.41650	8.10523
3334.48794	8.12521
3332.55937	8.19686
3330.63081	8.26220
3328.70225	8.31905
3326.77368	8.38298
3324.84512	8.44595
3322.91655	8.41688
3320.98799	8.31839
3319.05942	8.25616
3317.13086	8.26219
3315.20229	8.28446
3313.27373	8.29101
3311.34517	8.28959
3309.41660	8.27196
3307.48804	8.24708
3305.55947	8.27122
3303.63091	8.38324
3301.70234	8.47368
3299.77378	8.45137
3297.84521	8.37527
3295.91665	8.31572
3293.98809	8.28693
3292.05952	8.28911
3290.13096	8.27356
3288.20239	8.21706
3286.27383	8.20129
3284.34526	8.23747
3282.41670	8.27822
3280.48813	8.28997
3278.55957	8.32074
3276.63101	8.37270
3274.70244	8.39812
3272.77388	8.47295
3270.84531	8.55245
3268.91675	8.47325
3266.98818	8.33124
3265.05962	8.29487
3263.13105	8.30354
3261.20249	8.27231
3259.27393	8.28412
3257.34536	8.36782
3255.41680	8.42718
3253.48823	8.42248
3251.55967	8.36567
3249.63110	8.28644
3247.70254	8.21916
3245.77397	8.16627
3243.84541	8.17119
3241.91685	8.22156
3239.98828	8.24338
3238.05972	8.21886
3236.13115	8.17400
3234.20259	8.13753
3232.27402	8.12739
3230.34546	8.13375
3228.41689	8.12538
3226.48833	8.12920
3224.55977	8.15306
3222.63120	8.15462
3220.70264	8.16438
3218.77407	8.23251
3216.84551	8.29269
3214.91694	8.24720
3212.98838	8.13099
3211.05981	8.02792
3209.13125	7.96406
3207.20269	7.91304
3205.27412	7.86316
3203.34556	7.84647
3201.41699	7.87929
3199.48843	7.89590
3197.55986	7.86268
3195.63130	7.85024
3193.70273	7.86144
3191.77417	7.83855
3189.84561	7.74785
3187.91704	7.60720
3185.98848	7.50446
3184.05991	7.47592
3182.13135	7.45727
3180.20278	7.39762
3178.27422	7.31803
3176.34565	7.25862
3174.41709	7.22760
3172.48853	7.19736
3170.55996	7.15627
3168.63140	7.11375
3166.70283	7.06924
3164.77427	7.01127
3162.84570	6.92926
3160.91714	6.84007
3158.98857	6.76302
3157.06001	6.70317
3155.13145	6.64555
3153.20288	6.56147
3151.27432	6.47489
3149.34575	6.41514
3147.41719	6.36261
3145.48862	6.29683
3143.56006	6.22057
3141.63149	6.14313
3139.70293	6.07060
3137.77437	6.00792
3135.84580	5.94369
3133.91724	5.86963
3131.98867	5.79939
3130.06011	5.73395
3128.13154	5.65886
3126.20298	5.58055
3124.27441	5.50771
3122.34585	5.43265
3120.41729	5.35843
3118.48872	5.28515
3116.56016	5.21051
3114.63159	5.13931
3112.70303	5.06959
3110.77446	5.00229
3108.84590	4.93862
3106.91733	4.87348
3104.98877	4.80586
3103.06021	4.73740
3101.13164	4.66816
3099.20308	4.60176
3097.27451	4.53690
3095.34595	4.46822
3093.41738	4.39759
3091.48882	4.33031
3089.56025	4.26826
3087.63169	4.20684
3085.70312	4.14319
3083.77456	4.07993
3081.84600	4.01855
3079.91743	3.95883
3077.98887	3.90038
3076.06030	3.84149
3074.13174	3.78204
3072.20317	3.72355
3070.27461	3.66467
3068.34604	3.60613
3066.41748	3.54935
3064.48892	3.49239
3062.56035	3.43585
3060.63179	3.38121
3058.70322	3.32746
3056.77466	3.27375
3054.84609	3.21980
3052.91753	3.16588
3050.98896	3.11355
3049.06040	3.06330
3047.13184	3.01379
3045.20327	2.96391
3043.27471	2.91390
3041.34614	2.86454
3039.41758	2.81641
3037.48901	2.76997
3035.56045	2.72466
3033.63188	2.67940
3031.70332	2.63381
3029.77476	2.58837
3027.84619	2.54366
3025.91763	2.49930
3023.98906	2.45525
3022.06050	2.41228
3020.13193	2.37047
3018.20337	2.32937
3016.27480	2.28868
3014.34624	2.24830
3012.41768	2.20853
3010.48911	2.17017
3008.56055	2.13334
3006.63198	2.09685
3004.70342	2.06012
3002.77485	2.02434
3000.84629	1.98982
2998.91772	1.95563
2996.98916	1.92195
2995.06060	1.88945
2993.13203	1.85779
2991.20347	1.82652
2989.27490	1.79586
2987.34634	1.76605
2985.41777	1.73686
2983.48921	1.70827
2981.56064	1.68049
2979.63208	1.65333
2977.70352	1.62667
2975.77495	1.60053
2973.84639	1.57436
2971.91782	1.54790
2969.98926	1.52188
2968.06069	1.49646
2966.13213	1.47141
2964.20356	1.44684
2962.27500	1.42262
2960.34644	1.39814
2958.41787	1.37324
2956.48931	1.34877
2954.56074	1.32516
2952.63218	1.30178
2950.70361	1.27831
2948.77505	1.25491
2946.84648	1.23201
2944.91792	1.21007
2942.98936	1.18862
2941.06079	1.16718
2939.13223	1.14626
2937.20366	1.12607
2935.27510	1.10595
2933.34653	1.08531
2931.41797	1.06455
2929.48940	1.04491
2927.56084	1.02643
2925.63228	1.00775
2923.70371	0.98860
2921.77515	0.96971
2919.84658	0.95147
2917.91802	0.93369
2915.98945	0.91623
2914.06089	0.89946
2912.13232	0.88358
2910.20376	0.86830
2908.27520	0.85331
2906.34663	0.83848
2904.41807	0.82370
2902.48950	0.80930
2900.56094	0.79578
2898.63237	0.78267
2896.70381	0.76946
2894.77524	0.75627
2892.84668	0.74334
2890.91812	0.73108
2888.98955	0.71963
2887.06099	0.70851
2885.13242	0.69762
2883.20386	0.68715
2881.27529	0.67698
2879.34673	0.66719
2877.41816	0.65773
2875.48960	0.64787
2873.56104	0.63729
2871.63247	0.62643
2869.70391	0.61554
2867.77534	0.60419
2865.84678	0.59197
2863.91821	0.57960
2861.98965	0.56808
2860.06108	0.55748
2858.13252	0.54730
2856.20396	0.53725
2854.27539	0.52727
2852.34683	0.51747
2850.41826	0.50813
2848.48970	0.49955
2846.56113	0.49173
2844.63257	0.48441
2842.70400	0.47746
2840.77544	0.47085
2838.84687	0.46477
2836.91831	0.45910
2834.98975	0.45340
2833.06118	0.44744
2831.13262	0.44135
2829.20405	0.43533
2827.27549	0.42945
2825.34692	0.42362
2823.41836	0.41774
2821.48979	0.41183
2819.56123	0.40597
2817.63267	0.40003
2815.70410	0.39406
2813.77554	0.38829
2811.84697	0.38281
2809.91841	0.37743
2807.98984	0.37199
2806.06128	0.36648
2804.13271	0.36104
2802.20415	0.35594
2800.27559	0.35116
2798.34702	0.34633
2796.41846	0.34136
2794.48989	0.33645
2792.56133	0.33166
2790.63276	0.32695
2788.70420	0.32228
2786.77563	0.31765
2784.84707	0.31315
2782.91851	0.30879
2780.98994	0.30455
2779.06138	0.30042
2777.13281	0.29633
2775.20425	0.29231
2773.27568	0.28846
2771.34712	0.28464
2769.41855	0.28087
2767.48999	0.27732
2765.56143	0.27397
2763.63286	0.27066
2761.70430	0.26724
2759.77573	0.26370
2757.84717	0.26017
2755.91860	0.25680
2753.99004	0.25368
2752.06147	0.25080
2750.13291	0.24799
2748.20435	0.24504
2746.27578	0.24201
2744.34722	0.23906
2742.41865	0.23618
2740.49009	0.23332
2738.56152	0.23054
2736.63296	0.22791
2734.70439	0.22538
2732.77583	0.22292
2730.84727	0.22055
2728.91870	0.21820
2726.99014	0.21591
2725.06157	0.21372
2723.13301	0.21162
2721.20444	0.20953
2719.27588	0.20739
2717.34731	0.20537
2715.41875	0.20345
2713.49019	0.20140
2711.56162	0.19932
2709.63306	0.19745
2707.70449	0.19576
2705.77593	0.19415
2703.84736	0.19264
2701.91880	0.19122
2699.99023	0.18983
2698.06167	0.18835
2696.13311	0.18673
2694.20454	0.18510
2692.27598	0.18365
2690.34741	0.18227
2688.41885	0.18082
2686.49028	0.17952
2684.56172	0.17837
2682.63315	0.17721
2680.70459	0.17614
2678.77603	0.17509
2676.84746	0.17401
2674.91890	0.17288
2672.99033	0.17166
2671.06177	0.17053
2669.13320	0.16952
2667.20464	0.16849
2665.27607	0.16753
2663.34751	0.16668
2661.41895	0.16579
2659.49038	0.16492
2657.56182	0.16415
2655.63325	0.16330
2653.70469	0.16239
2651.77612	0.16161
2649.84756	0.16092
2647.91899	0.16028
2645.99043	0.15976
2644.06187	0.15922
2642.13330	0.15856
2640.20474	0.15792
2638.27617	0.15733
2636.34761	0.15679
2634.41904	0.15633
2632.49048	0.15594
2630.56191	0.15557
2628.63335	0.15519
2626.70479	0.15488
2624.77622	0.15453
2622.84766	0.15400
2620.91909	0.15343
2618.99053	0.15306
2617.06196	0.15291
2615.13340	0.15290
2613.20483	0.15281
2611.27627	0.15257
2609.34771	0.15240
2607.41914	0.15233
2605.49058	0.15220
2603.56201	0.15200
2601.63345	0.15186
2599.70488	0.15187
2597.77632	0.15196
2595.84775	0.15211
2593.91919	0.15222
2591.99062	0.15222
2590.06206	0.15220
2588.13350	0.15225
2586.20493	0.15247
2584.27637	0.15278
2582.34780	0.15302
2580.41924	0.15318
2578.49067	0.15334
2576.56211	0.15354
2574.63354	0.15385
2572.70498	0.15421
2570.77642	0.15465
2568.84785	0.15508
2566.91929	0.15534
2564.99072	0.15557
2563.06216	0.15598
2561.13359	0.15644
2559.20503	0.15682
2557.27646	0.15716
2555.34790	0.15763
2553.41934	0.15823
2551.49077	0.15889
2549.56221	0.15948
2547.63364	0.15995
2545.70508	0.16041
2543.77651	0.16089
2541.84795	0.16140
2539.91938	0.16200
2537.99082	0.16270
2536.06226	0.16347
2534.13369	0.16424
2532.20513	0.16491
2530.27656	0.16553
2528.34800	0.16617
2526.41943	0.16689
2524.49087	0.16769
2522.56230	0.16847
2520.63374	0.16913
2518.70518	0.16974
2516.77661	0.17044
2514.84805	0.17122
2512.91948	0.17205
2510.99092	0.17288
2509.06235	0.17362
2507.13379	0.17436
2505.20522	0.17521
2503.27666	0.17615
2501.34810	0.17701
2499.41953	0.17774
2497.49097	0.17843
2495.56240	0.17921
2493.63384	0.18009
2491.70527	0.18100
2489.77671	0.18194
2487.84814	0.18287
2485.91958	0.18368
2483.99102	0.18438
2482.06245	0.18516
2480.13389	0.18603
2478.20532	0.18681
2476.27676	0.18756
2474.34819	0.18846
2472.41963	0.18939
2470.49106	0.19029
2468.56250	0.19131
2466.63394	0.19239
2464.70537	0.19337
2462.77681	0.19428
2460.84824	0.19521
2458.91968	0.19617
2456.99111	0.19709
2455.06255	0.19793
2453.13398	0.19876
2451.20542	0.19976
2449.27686	0.20088
2447.34829	0.20182
2445.41973	0.20263
2443.49116	0.20354
2441.56260	0.20461
2439.63403	0.20575
2437.70547	0.20684
2435.77690	0.20787
2433.84834	0.20883
2431.91978	0.20984
2429.99121	0.21096
2428.06265	0.21201
2426.13408	0.21294
2424.20552	0.21397
2422.27695	0.21517
2420.34839	0.21645
2418.41982	0.21766
2416.49126	0.21871
2414.56270	0.21975
2412.63413	0.22098
2410.70557	0.22227
2408.77700	0.22346
2406.84844	0.22453
2404.91987	0.22560
2402.99131	0.22682
2401.06274	0.22815
2399.13418	0.22944
2397.20562	0.23076
2395.27705	0.23205
2393.34849	0.23317
2391.41992	0.23431
2389.49136	0.23560
2387.56279	0.23695
2385.63423	0.23853
2383.70566	0.24038
2381.77710	0.24236
2379.84854	0.24456
2377.91997	0.24703
2375.99141	0.24952
2374.06284	0.25215
2372.13428	0.25523
2370.20571	0.25848
2368.27715	0.26131
2366.34858	0.26405
2364.42002	0.26757
2362.49146	0.27135
2360.56289	0.27395
2358.63433	0.27577
2356.70576	0.27724
2354.77720	0.27712
2352.84863	0.27596
2350.92007	0.27505
2348.99150	0.27479
2347.06294	0.27571
2345.13437	0.27830
2343.20581	0.28170
2341.27725	0.28437
2339.34868	0.28616
2337.42012	0.28715
2335.49155	0.28800
2333.56299	0.28941
2331.63442	0.29141
2329.70586	0.29321
2327.77729	0.29436
2325.84873	0.29534
2323.92017	0.29642
2321.99160	0.29743
2320.06304	0.29844
2318.13447	0.29945
2316.20591	0.30025
2314.27734	0.30121
2312.34878	0.30248
2310.42021	0.30371
2308.49165	0.30495
2306.56309	0.30641
2304.63452	0.30788
2302.70596	0.30928
2300.77739	0.31080
2298.84883	0.31250
2296.92026	0.31424
2294.99170	0.31586
2293.06313	0.31745
2291.13457	0.31917
2289.20601	0.32101
2287.27744	0.32282
2285.34888	0.32451
2283.42031	0.32620
2281.49175	0.32810
2279.56318	0.33019
2277.63462	0.33230
2275.70605	0.33434
2273.77749	0.33638
2271.84893	0.33858
2269.92036	0.34086
2267.99180	0.34299
2266.06323	0.34508
2264.13467	0.34729
2262.20610	0.34946
2260.27754	0.35153
2258.34897	0.35364
2256.42041	0.35577
2254.49185	0.35789
2252.56328	0.36006
2250.63472	0.36223
2248.70615	0.36431
2246.77759	0.36641
2244.84902	0.36862
2242.92046	0.37091
2240.99189	0.37329
2239.06333	0.37569
2237.13477	0.37800
2235.20620	0.38020
2233.27764	0.38232
2231.34907	0.38451
2229.42051	0.38685
2227.49194	0.38912
2225.56338	0.39124
2223.63481	0.39344
2221.70625	0.39578
2219.77769	0.39801
2217.84912	0.40018
2215.92056	0.40243
2213.99199	0.40470
2212.06343	0.40694
2210.13486	0.40917
2208.20630	0.41133
2206.27773	0.41336
2204.34917	0.41538
2202.42061	0.41740
2200.49204	0.41934
2198.56348	0.42133
2196.63491	0.42346
2194.70635	0.42558
2192.77778	0.42759
2190.84922	0.42945
2188.92065	0.43118
2186.99209	0.43293
2185.06353	0.43469
2183.13496	0.43642
2181.20640	0.43815
2179.27783	0.43992
2177.34927	0.44171
2175.42070	0.44338
2173.49214	0.44484
2171.56357	0.44622
2169.63501	0.44766
2167.70645	0.44914
2165.77788	0.45054
2163.84932	0.45178
2161.92075	0.45291
2159.99219	0.45393
2158.06362	0.45488
2156.13506	0.45589
2154.20649	0.45687
2152.27793	0.45769
2150.34937	0.45831
2148.42080	0.45878
2146.49224	0.45930
2144.56367	0.45987
2142.63511	0.46037
2140.70654	0.46080
2138.77798	0.46116
2136.84941	0.46133
2134.92085	0.46129
2132.99229	0.46118
2131.06372	0.46112
2129.13516	0.46101
2127.20659	0.46079
2125.27803	0.46049
2123.34946	0.46006
2121.42090	0.45963
2119.49233	0.45923
2117.56377	0.45873
2115.63521	0.45803
2113.70664	0.45725
2111.77808	0.45650
2109.84951	0.45559
2107.92095	0.45445
2105.99238	0.45321
2104.06382	0.45199
2102.13525	0.45073
2100.20669	0.44939
2098.27812	0.44792
2096.34956	0.44634
2094.42100	0.44477
2092.49243	0.44320
2090.56387	0.44161
2088.63530	0.43992
2086.70674	0.43808
2084.77817	0.43615
2082.84961	0.43418
2080.92104	0.43214
2078.99248	0.43014
2077.06392	0.42814
2075.13535	0.42601
2073.20679	0.42381
2071.27822	0.42155
2069.34966	0.41927
2067.42109	0.41696
2065.49253	0.41461
2063.56396	0.41218
2061.63540	0.40973
2059.70684	0.40725
2057.77827	0.40476
2055.84971	0.40224
2053.92114	0.39961
2051.99258	0.39691
2050.06401	0.39423
2048.13545	0.39164
2046.20688	0.38900
2044.27832	0.38626
2042.34976	0.38355
2040.42119	0.38084
2038.49263	0.37806
2036.56406	0.37529
2034.63550	0.37254
2032.70693	0.36973
2030.77837	0.36692
2028.84980	0.36411
2026.92124	0.36125
2024.99268	0.35836
2023.06411	0.35553
2021.13555	0.35277
2019.20698	0.35015
2017.27842	0.34758
2015.34985	0.34476
2013.42129	0.34180
2011.49272	0.33896
2009.56416	0.33619
2007.63560	0.33342
2005.70703	0.33074
2003.77847	0.32810
2001.84990	0.32542
1999.92134	0.32274
1997.99277	0.32010
1996.06421	0.31748
1994.13564	0.31496
1992.20708	0.31252
1990.27852	0.30999
1988.34995	0.30742
1986.42139	0.30490
1984.49282	0.30242
1982.56426	0.30002
1980.63569	0.29765
1978.70713	0.29532
1976.77856	0.29303
1974.85000	0.29080
1972.92144	0.28862
1970.99287	0.28647
1969.06431	0.28444
1967.13574	0.28250
1965.20718	0.28044
1963.27861	0.27834
1961.35005	0.27636
1959.42148	0.27449
1957.49292	0.27264
1955.56436	0.27081
1953.63579	0.26900
1951.70723	0.26727
1949.77866	0.26566
1947.85010	0.26404
1945.92153	0.26244
1943.99297	0.26098
1942.06440	0.25956
1940.13584	0.25794
1938.20728	0.25633
1936.27871	0.25493
1934.35015	0.25360
1932.42158	0.25231
1930.49302	0.25105
1928.56445	0.24987
1926.63589	0.24883
1924.70732	0.24795
1922.77876	0.24709
1920.85020	0.24615
1918.92163	0.24530
1916.99307	0.24441
1915.06450	0.24325
1913.13594	0.24218
1911.20737	0.24150
1909.27881	0.24094
1907.35024	0.24025
1905.42168	0.23955
1903.49312	0.23897
1901.56455	0.23840
1899.63599	0.23779
1897.70742	0.23730
1895.77886	0.23702
1893.85029	0.23684
1891.92173	0.23653
1889.99316	0.23629
1888.06460	0.23601
1886.13604	0.23552
1884.20747	0.23511
1882.27891	0.23488
1880.35034	0.23477
1878.42178	0.23474
1876.49321	0.23474
1874.56465	0.23466
1872.63608	0.23472
1870.70752	0.23518
1868.77896	0.23604
1866.85039	0.23640
1864.92183	0.23608
1862.99326	0.23592
1861.06470	0.23612
1859.13613	0.23646
1857.20757	0.23677
1855.27900	0.23710
1853.35044	0.23749
1851.42187	0.23811
1849.49331	0.23889
1847.56475	0.23975
1845.63618	0.24076
1843.70762	0.24188
1841.77905	0.24254
1839.85049	0.24277
1837.92192	0.24342
1835.99336	0.24440
1834.06479	0.24538
1832.13623	0.24639
1830.20767	0.24784
1828.27910	0.24935
1826.35054	0.25042
1824.42197	0.25169
1822.49341	0.25295
1820.56484	0.25406
1818.63628	0.25532
1816.70771	0.25692
1814.77915	0.25864
1812.85059	0.26056
1810.92202	0.26279
1808.99346	0.26485
1807.06489	0.26666
1805.13633	0.26854
1803.20776	0.27091
1801.27920	0.27368
1799.35063	0.27655
1797.42207	0.27900
1795.49351	0.28136
1793.56494	0.28431
1791.63638	0.28818
1789.70781	0.29156
1787.77925	0.29394
1785.85068	0.29694
1783.92212	0.30062
1781.99355	0.30465
1780.06499	0.30901
1778.13643	0.31338
1776.20786	0.31737
1774.27930	0.32175
1772.35073	0.32779
1770.42217	0.33415
1768.49360	0.33934
1766.56504	0.34437
1764.63647	0.34962
1762.70791	0.35551
1760.77935	0.36301
1758.85078	0.37015
1756.92222	0.37730
1754.99365	0.38496
1753.06509	0.39203
1751.13652	0.40072
1749.20796	0.41139
1747.27939	0.42141
1745.35083	0.43025
1743.42227	0.43978
1741.49370	0.45038
1739.56514	0.46281
1737.63657	0.47518
1735.70801	0.48617
1733.77944	0.50263
1731.85088	0.52210
1729.92231	0.53758
1727.99375	0.55334
1726.06519	0.57044
1724.13662	0.58916
1722.20806	0.60943
1720.27949	0.62854
1718.35093	0.65095
1716.42236	0.68293
1714.49380	0.71318
1712.56523	0.73815
1710.63667	0.76274
1708.70811	0.78925
1706.77954	0.81921
1704.85098	0.85437
1702.92241	0.88586
1700.99385	0.91783
1699.06528	0.96509
1697.13672	1.00829
1695.20815	1.05246
1693.27959	1.09650
1691.35103	1.13293
1689.42246	1.17504
1687.49390	1.21957
1685.56533	1.26290
1683.63677	1.32786
1681.70820	1.39518
1679.77964	1.43948
1677.85107	1.48168
1675.92251	1.53059
1673.99395	1.59131
1672.06538	1.64566
1670.13682	1.69850
1668.20825	1.76694
1666.27969	1.82467
1664.35112	1.87522
1662.42256	1.93822
1660.49399	2.00843
1658.56543	2.06354
1656.63687	2.10840
1654.70830	2.14937
1652.77974	2.20741
1650.85117	2.26004
1648.92261	2.28014
1646.99404	2.30703
1645.06548	2.33561
1643.13691	2.35276
1641.20835	2.36129
1639.27979	2.36913
1637.35122	2.37365
1635.42266	2.37299
1633.49409	2.36613
1631.56553	2.35138
1629.63696	2.33137
1627.70840	2.29959
1625.77983	2.26366
1623.85127	2.21986
1621.92271	2.16798
1619.99414	2.12109
1618.06558	2.07348
1616.13701	2.00670
1614.20845	1.94032
1612.27988	1.88992
1610.35132	1.83728
1608.42275	1.78038
1606.49419	1.72452
1604.56562	1.67332
1602.63706	1.62409
1600.70850	1.57592
1598.77993	1.53155
1596.85137	1.49002
1594.92280	1.44989
1592.99424	1.41126
1591.06567	1.37579
1589.13711	1.34288
1587.20854	1.31292
1585.27998	1.28554
1583.35142	1.25992
1581.42285	1.23650
1579.49429	1.21652
1577.56572	1.19910
1575.63716	1.17947
1573.70859	1.16230
1571.78003	1.15068
1569.85146	1.13928
1567.92290	1.12757
1565.99434	1.11938
1564.06577	1.11396
1562.13721	1.11025
1560.20864	1.10916
1558.28008	1.11237
1556.35151	1.11585
1554.42295	1.11735
1552.49438	1.11883
1550.56582	1.11874
1548.63726	1.11593
1546.70869	1.11025
1544.78013	1.10130
1542.85156	1.08914
1540.92300	1.07149
1538.99443	1.04300
1537.06587	1.01979
1535.13730	1.00364
1533.20874	0.98348
1531.28018	0.96172
1529.35161	0.94538
1527.42305	0.93051
1525.49448	0.91546
1523.56592	0.90255
1521.63735	0.89050
1519.70879	0.87853
1517.78022	0.86822
1515.85166	0.85609
1513.92310	0.84293
1511.99453	0.83122
1510.06597	0.82086
1508.13740	0.81136
1506.20884	0.79712
1504.28027	0.78328
1502.35171	0.77488
1500.42314	0.76805
1498.49458	0.76137
1496.56602	0.75379
1494.63745	0.74591
1492.70889	0.73970
1490.78032	0.73460
1488.85176	0.72906
1486.92319	0.72357
1484.99463	0.71903
1483.06606	0.71556
1481.13750	0.71295
1479.20894	0.71111
1477.28037	0.71031
1475.35181	0.71044
1473.42324	0.71110
1471.49468	0.71088
1469.56611	0.70881
1467.63755	0.70610
1465.70898	0.70402
1463.78042	0.70288
1461.85186	0.70229
1459.92329	0.70235
1457.99473	0.70311
1456.06616	0.70267
1454.13760	0.69992
1452.20903	0.69689
1450.28047	0.69399
1448.35190	0.69114
1446.42334	0.68807
1444.49478	0.68507
1442.56621	0.68235
1440.63765	0.67965
1438.70908	0.67689
1436.78052	0.67365
1434.85195	0.66990
1432.92339	0.66686
1430.99482	0.66506
1429.06626	0.66431
1427.13770	0.66412
1425.20913	0.66449
1423.28057	0.66542
1421.35200	0.66636
1419.42344	0.66727
1417.49487	0.66763
1415.56631	0.66672
1413.63774	0.66577
1411.70918	0.66550
1409.78062	0.66599
1407.85205	0.66710
1405.92349	0.66864
1403.99492	0.67010
1402.06636	0.67055
1400.13779	0.66993
1398.20923	0.66842
1396.28066	0.66596
1394.35210	0.66219
1392.42354	0.65743
1390.49497	0.65292
1388.56641	0.64868
1386.63784	0.64383
1384.70928	0.63848
1382.78071	0.63325
1380.85215	0.62830
1378.92358	0.62418
1376.99502	0.62128
1375.06646	0.61935
1373.13789	0.61786
1371.20933	0.61673
1369.28076	0.61599
1367.35220	0.61510
1365.42363	0.61381
1363.49507	0.61251
1361.56650	0.61106
1359.63794	0.60920
1357.70937	0.60748
1355.78081	0.60610
1353.85225	0.60491
1351.92368	0.60395
1349.99512	0.60318
1348.06655	0.60236
1346.13799	0.60147
1344.20942	0.60063
1342.28086	0.59999
1340.35229	0.59948
1338.42373	0.59869
1336.49517	0.59779
1334.56660	0.59733
1332.63804	0.59731
1330.70947	0.59744
1328.78091	0.59773
1326.85234	0.59832
1324.92378	0.59907
1322.99521	0.59988
1321.06665	0.60080
1319.13809	0.60170
1317.20952	0.60221
1315.28096	0.60217
1313.35239	0.60169
1311.42383	0.60095
1309.49526	0.60019
1307.56670	0.59953
1305.63813	0.59896
1303.70957	0.59838
1301.78101	0.59754
1299.85244	0.59636
1297.92388	0.59511
1295.99531	0.59387
1294.06675	0.59255
1292.13818	0.59121
1290.20962	0.58994
1288.28105	0.58870
1286.35249	0.58726
1284.42393	0.58575
1282.49536	0.58434
1280.56680	0.58290
1278.63823	0.58137
1276.70967	0.58000
1274.78110	0.57899
1272.85254	0.57823
1270.92397	0.57755
1268.99541	0.57690
1267.06685	0.57620
1265.13828	0.57534
1263.20972	0.57446
1261.28115	0.57363
1259.35259	0.57277
1257.42402	0.57205
1255.49546	0.57175
1253.56689	0.57172
1251.63833	0.57175
1249.70977	0.57182
1247.78120	0.57182
1245.85264	0.57173
1243.92407	0.57140
1241.99551	0.57062
1240.06694	0.56944
1238.13838	0.56791
1236.20981	0.56584
1234.28125	0.56334
1232.35269	0.56085
1230.42412	0.55859
1228.49556	0.55650
1226.56699	0.55458
1224.63843	0.55276
1222.70986	0.55094
1220.78130	0.54922
1218.85273	0.54772
1216.92417	0.54635
1214.99561	0.54504
1213.06704	0.54398
1211.13848	0.54327
1209.20991	0.54274
1207.28135	0.54208
1205.35278	0.54124
1203.42422	0.54037
1201.49565	0.53945
1199.56709	0.53848
1197.63853	0.53770
1195.70996	0.53711
1193.78140	0.53647
1191.85283	0.53576
1189.92427	0.53527
1187.99570	0.53505
1186.06714	0.53497
1184.13857	0.53498
1182.21001	0.53534
1180.28145	0.53626
1178.35288	0.53755
1176.42432	0.53897
1174.49575	0.54031
1172.56719	0.54126
1170.63862	0.54164
1168.71006	0.54168
1166.78149	0.54169
1164.85293	0.54162
1162.92437	0.54139
1160.99580	0.54113
1159.06724	0.54080
1157.13867	0.54031
1155.21011	0.53958
1153.28154	0.53829
1151.35298	0.53651
1149.42441	0.53450
1147.49585	0.53229
1145.56729	0.52994
1143.63872	0.52774
1141.71016	0.52600
1139.78159	0.52452
1137.85303	0.52305
1135.92446	0.52175
1133.99590	0.52086
1132.06733	0.52045
1130.13877	0.52022
1128.21021	0.51977
1126.28164	0.51901
1124.35308	0.51808
1122.42451	0.51710
1120.49595	0.51636
1118.56738	0.51601
1116.63882	0.51589
1114.71025	0.51583
1112.78169	0.51600
1110.85312	0.51657
1108.92456	0.51732
1106.99600	0.51811
1105.06743	0.51911
1103.13887	0.52030
1101.21030	0.52161
1099.28174	0.52323
1097.35317	0.52536
1095.42461	0.52814
1093.49604	0.53159
1091.56748	0.53580
1089.63892	0.54107
1087.71035	0.54757
1085.78179	0.55495
1083.85322	0.56255
1081.92466	0.56958
1079.99609	0.57488
1078.06753	0.57746
1076.13896	0.57733
1074.21040	0.57454
1072.28184	0.56922
1070.35327	0.56237
1068.42471	0.55533
1066.49614	0.54875
1064.56758	0.54272
1062.63901	0.53721
1060.71045	0.53218
1058.78188	0.52771
1056.85332	0.52384
1054.92476	0.52035
1052.99619	0.51718
1051.06763	0.51455
1049.13906	0.51259
1047.21050	0.51114
1045.28193	0.51016
1043.35337	0.50949
1041.42480	0.50871
1039.49624	0.50783
1037.56768	0.50727
1035.63911	0.50705
1033.71055	0.50670
1031.78198	0.50585
1029.85342	0.50468
1027.92485	0.50362
1025.99629	0.50272
1024.06772	0.50187
1022.13916	0.50129
1020.21060	0.50117
1018.28203	0.50134
1016.35347	0.50144
1014.42490	0.50142
1012.49634	0.50149
1010.56777	0.50188
1008.63921	0.50259
1006.71064	0.50355
1004.78208	0.50490
1002.85352	0.50683
1000.92495	0.50940
998.99639	0.51264
997.06782	0.51648
995.13926	0.52061
993.21069	0.52455
991.28213	0.52780
989.35356	0.53014
987.42500	0.53165
985.49644	0.53240
983.56787	0.53259
981.63931	0.53281
979.71074	0.53354
977.78218	0.53507
975.85361	0.53740
973.92505	0.54009
971.99648	0.54287
970.06792	0.54590
968.13936	0.54936
966.21079	0.55327
964.28223	0.55772
962.35366	0.56256
960.42510	0.56753
958.49653	0.57274
956.56797	0.57840
954.63940	0.58450
952.71084	0.59091
950.78228	0.59745
948.85371	0.60396
946.92515	0.61032
944.99658	0.61666
943.06802	0.62306
941.13945	0.62948
939.21089	0.63580
937.28232	0.64174
935.35376	0.64740
933.42520	0.65322
931.49663	0.65913
929.56807	0.66473
927.63950	0.67013
925.71094	0.67565
923.78237	0.68166
921.85381	0.68853
919.92524	0.69595
917.99668	0.70324
916.06812	0.71014
914.13955	0.71728
912.21099	0.72518
910.28242	0.73334
908.35386	0.74143
906.42529	0.74962
904.49673	0.75827
902.56816	0.76754
900.63960	0.77674
898.71104	0.78606
896.78247	0.79643
894.85391	0.80746
892.92534	0.81796
890.99678	0.82732
889.06821	0.83648
887.13965	0.84707
885.21108	0.85824
883.28252	0.86864
881.35396	0.87937
879.42539	0.89169
877.49683	0.90513
875.56826	0.91787
873.63970	0.92932
871.71113	0.94105
869.78257	0.95332
867.85400	0.96542
865.92544	0.97736
863.99687	0.98868
862.06831	0.99902
860.13975	1.00937
858.21118	1.02071
856.28262	1.03284
854.35405	1.04550
852.42549	1.05780
850.49692	1.06921
848.56836	1.08017
846.63979	1.09089
844.71123	1.10166
842.78267	1.11347
840.85410	1.12730
838.92554	1.14074
836.99697	1.15201
835.06841	1.16166
833.13984	1.16981
831.21128	1.17954
829.28271	1.19201
827.35415	1.20274
825.42559	1.21203
823.49702	1.22599
821.56846	1.24222
819.63989	1.25411
817.71133	1.26400
815.78276	1.27628
813.85420	1.28581
811.92563	1.29118
809.99707	1.30398
808.06851	1.31990
806.13994	1.32720
804.21138	1.33491
802.28281	1.35116
800.35425	1.37295
798.42568	1.40080
796.49712	1.42582
794.56855	1.43996
792.63999	1.44291
790.71143	1.42424
788.78286	1.41096
786.85430	1.41427
784.92573	1.41036
782.99717	1.39090
781.06860	1.35314
779.14004	1.30287
777.21147	1.26801
775.28291	1.28436
773.35435	1.34902
771.42578	1.43910
769.49722	1.56493
767.56865	1.66019
765.64009	1.58010
763.71152	1.47774
761.78296	1.38384
759.85439	1.27406
757.92583	1.23151
755.99727	1.25044
754.06870	1.24505
752.14014	1.17836
750.21157	1.11085
748.28301	1.10179
746.35444	1.10541
744.42588	1.05986
742.49731	1.01353
740.56875	0.96966
738.64019	0.93936
736.71162	0.99340
734.78306	1.12056
732.85449	1.18819
730.92593	1.28113
728.99736	4.37398
727.06880	4.36241
725.14023	1.46498
723.21167	0.71586
721.28311	0.48528
719.35454	0.40417
717.42598	0.43448
715.49741	0.42289
713.56885	0.33305
711.64028	0.31547
709.71172	0.41231
707.78315	0.31127
705.85459	-0.04880
703.92603	0.00719
701.99746	0.12443
700.06890	0.38100
698.14033	1.13940
696.21177	1.08432
694.28320	0.62356
692.35464	0.53504
690.42607	0.40257
688.49751	0.22726
686.56895	0.18804
684.64038	0.24642
682.71182	0.31842
680.78325	0.40996
678.85469	0.53302
676.92612	0.53431
674.99756	0.38092
673.06899	0.32697
671.14043	0.35446
669.21187	0.38257
667.28330	0.38417
665.35474	0.35464
663.42617	0.38329
661.49761	0.47350
659.56904	0.46322
657.64048	0.35688
655.71191	0.30770
653.78335	0.33674
651.85479	0.34730
649.92622	0.28794
647.99766	0.26311
646.06909	0.32303
644.14053	0.37933
642.21196	0.36781
640.28340	0.43944
638.35483	0.56436
636.42627	0.52325
634.49771	0.46449
632.56914	0.52466
630.64058	0.49475
628.71201	0.35999
626.78345	0.33565
624.85488	0.40573
622.92632	0.45878
620.99775	0.38930
619.06919	0.27295
617.14062	0.21461
615.21206	0.20756
613.28350	0.25060
611.35493	0.29986
609.42637	0.29108
607.49780	0.28716
605.56924	0.35246
603.64067	0.40548
601.71211	0.37381
599.78354	0.35400
597.85498	0.37848
595.92642	0.33579
593.99785	0.27702
592.06929	0.30006
590.14072	0.40948
588.21216	0.55738
586.28359	0.61582
584.35503	0.51162
582.42646	0.40308
580.49790	0.33321
578.56934	0.24120
576.64077	0.13805
574.71221	0.11033
572.78364	0.19211
570.85508	0.27234
568.92651	0.26368
566.99795	0.25787
565.06938	0.29565
563.14082	0.27951
561.21226	0.23997
559.28369	0.29760
557.35513	0.37993
555.42656	0.27429
553.49800	0.18885
551.56943	0.15890
549.64087	0.14180
547.71230	0.15224
545.78374	0.18661
543.85518	0.21400
541.92661	0.23339
539.99805	0.27236
538.06948	0.32518
536.14092	0.33213
534.21235	0.29441
532.28379	0.26005
530.35522	0.26825
528.42666	0.27201
526.49810	0.19788
524.56953	0.15697
522.64097	0.17779
520.71240	0.19812
518.78384	0.22050
516.85527	0.24183
514.92671	0.22804
512.99814	0.23775
511.06958	0.29056
509.14102	0.26802
507.21245	0.19546
505.28389	0.16921
503.35532	0.19175
501.42676	0.23261
499.49819	0.28298
