3997.91411	0.08334
3995.98555	0.08361
3994.05698	0.08416
3992.12842	0.08471
3990.19985	0.08519
3988.27129	0.08560
3986.34272	0.08580
3984.41416	0.08586
3982.48560	0.08575
3980.55703	0.08569
3978.62847	0.08601
3976.69990	0.08648
3974.77134	0.08679
3972.84277	0.08704
3970.91421	0.08738
3968.98564	0.08753
3967.05708	0.08715
3965.12852	0.08672
3963.19995	0.08691
3961.27139	0.08751
3959.34282	0.08789
3957.41426	0.08786
3955.48569	0.08758
3953.55713	0.08732
3951.62856	0.08731
3949.70000	0.08731
3947.77144	0.08712
3945.84287	0.08686
3943.91431	0.08664
3941.98574	0.08654
3940.05718	0.08662
3938.12861	0.08685
3936.20005	0.08692
3934.27148	0.08675
3932.34292	0.08681
3930.41436	0.08713
3928.48579	0.08731
3926.55723	0.08728
3924.62866	0.08716
3922.70010	0.08696
3920.77153	0.08669
3918.84297	0.08643
3916.91440	0.08619
3914.98584	0.08611
3913.05728	0.08608
3911.12871	0.08587
3909.20015	0.08569
3907.27158	0.08563
3905.34302	0.08518
3903.41445	0.08401
3901.48589	0.08308
3899.55732	0.08320
3897.62876	0.08396
3895.70020	0.08475
3893.77163	0.08499
3891.84307	0.08492
3889.91450	0.08532
3887.98594	0.08557
3886.05737	0.08525
3884.12881	0.08487
3882.20024	0.08481
3880.27168	0.08536
3878.34312	0.08633
3876.41455	0.08680
3874.48599	0.08664
3872.55742	0.08618
3870.62886	0.08575
3868.70029	0.08594
3866.77173	0.08649
3864.84316	0.08667
3862.91460	0.08691
3860.98604	0.08778
3859.05747	0.08857
3857.12891	0.08840
3855.20034	0.08759
3853.27178	0.08737
3851.34321	0.08849
3849.41465	0.08953
3847.48608	0.09031
3845.55752	0.09105
3843.62896	0.09142
3841.70039	0.09123
3839.77183	0.09066
3837.84326	0.09060
3835.91470	0.09153
3833.98613	0.09273
3832.05757	0.09391
3830.12900	0.09494
3828.20044	0.09553
3826.27187	0.09610
3824.34331	0.09672
3822.41475	0.09691
3820.48618	0.09754
3818.55762	0.09891
3816.62905	0.09996
3814.70049	0.10154
3812.77192	0.10342
3810.84336	0.10438
3808.91479	0.10477
3806.98623	0.10525
3805.05767	0.10617
3803.12910	0.10680
3801.20054	0.10726
3799.27197	0.10884
3797.34341	0.11074
3795.41484	0.11268
3793.48628	0.11478
3791.55771	0.11628
3789.62915	0.11729
3787.70059	0.11827
3785.77202	0.11946
3783.84346	0.12106
3781.91489	0.12278
3779.98633	0.12420
3778.05776	0.12578
3776.12920	0.12782
3774.20063	0.12962
3772.27207	0.13096
3770.34351	0.13254
3768.41494	0.13459
3766.48638	0.13611
3764.55781	0.13744
3762.62925	0.13924
3760.70068	0.14096
3758.77212	0.14268
3756.84355	0.14482
3754.91499	0.14684
3752.98643	0.14852
3751.05786	0.15078
3749.12930	0.15426
3747.20073	0.15744
3745.27217	0.16006
3743.34360	0.16385
3741.41504	0.16767
3739.48647	0.17013
3737.55791	0.17240
3735.62935	0.17585
3733.70078	0.18135
3731.77222	0.18751
3729.84365	0.19278
3727.91509	0.19713
3725.98652	0.20180
3724.05796	0.20770
3722.12939	0.21475
3720.20083	0.22304
3718.27227	0.23187
3716.34370	0.24037
3714.41514	0.24790
3712.48657	0.25539
3710.55801	0.26622
3708.62944	0.28070
3706.70088	0.29426
3704.77231	0.30621
3702.84375	0.31899
3700.91519	0.33558
3698.98662	0.35470
3697.05806	0.37307
3695.12949	0.39169
3693.20093	0.41076
3691.27236	0.43085
3689.34380	0.45686
3687.41523	0.49106
3685.48667	0.52376
3683.55811	0.55234
3681.62954	0.58177
3679.70098	0.61380
3677.77241	0.64670
3675.84385	0.68461
3673.91528	0.73550
3671.98672	0.77947
3670.05815	0.81873
3668.12959	0.87160
3666.20103	0.92226
3664.27246	0.96523
3662.34390	1.00979
3660.41533	1.05732
3658.48677	1.10392
3656.55820	1.15235
3654.62964	1.20597
3652.70107	1.25218
3650.77251	1.29189
3648.84395	1.34496
3646.91538	1.41238
3644.98682	1.46574
3643.05825	1.50709
3641.12969	1.54869
3639.20112	1.59374
3637.27256	1.63813
3635.34399	1.68091
3633.41543	1.72359
3631.48687	1.76304
3629.55830	1.80231
3627.62974	1.85455
3625.70117	1.90625
3623.77261	1.94315
3621.84404	1.97837
3619.91548	2.01731
3617.98691	2.06174
3616.05835	2.10482
3614.12979	2.14277
3612.20122	2.18267
3610.27266	2.22271
3608.34409	2.26302
3606.41553	2.30571
3604.48696	2.34580
3602.55840	2.38199
3600.62983	2.42048
3598.70127	2.46202
3596.77271	2.50313
3594.84414	2.54476
3592.91558	2.58677
3590.98701	2.62545
3589.05845	2.66168
3587.12988	2.70530
3585.20132	2.75402
3583.27275	2.79717
3581.34419	2.83742
3579.41562	2.87950
3577.48706	2.92249
3575.55850	2.96424
3573.62993	3.00691
3571.70137	3.04990
3569.77280	3.09090
3567.84424	3.13157
3565.91567	3.17989
3563.98711	3.23024
3562.05854	3.27392
3560.12998	3.31762
3558.20142	3.36472
3556.27285	3.41218
3554.34429	3.45788
3552.41572	3.50559
3550.48716	3.55342
3548.55859	3.59674
3546.63003	3.64003
3544.70146	3.68951
3542.77290	3.74006
3540.84434	3.78554
3538.91577	3.83018
3536.98721	3.87839
3535.05864	3.93000
3533.13008	3.97898
3531.20151	4.02486
3529.27295	4.07263
3527.34438	4.12354
3525.41582	4.17266
3523.48726	4.21852
3521.55869	4.26529
3519.63013	4.31162
3517.70156	4.35889
3515.77300	4.41056
3513.84443	4.46263
3511.91587	4.51199
3509.98730	4.56257
3508.05874	4.61229
3506.13018	4.65614
3504.20161	4.69751
3502.27305	4.74345
3500.34448	4.79828
3498.41592	4.85653
3496.48735	4.90776
3494.55879	4.94988
3492.63022	4.99128
3490.70166	5.03579
3488.77310	5.08418
3486.84453	5.13843
3484.91597	5.19265
3482.98740	5.24008
3481.05884	5.28444
3479.13027	5.32783
3477.20171	5.36880
3475.27314	5.41399
3473.34458	5.46595
3471.41602	5.51795
3469.48745	5.56484
3467.55889	5.61427
3465.63032	5.67588
3463.70176	5.73324
3461.77319	5.77611
3459.84463	5.82861
3457.91606	5.88602
3455.98750	5.92937
3454.05894	5.97155
3452.13037	6.01966
3450.20181	6.07724
3448.27324	6.14171
3446.34468	6.19556
3444.41611	6.24620
3442.48755	6.30778
3440.55898	6.35986
3438.63042	6.39577
3436.70186	6.43141
3434.77329	6.47472
3432.84473	6.52564
3430.91616	6.56976
3428.98760	6.60469
3427.05903	6.65196
3425.13047	6.72312
3423.20190	6.78881
3421.27334	6.83075
3419.34478	6.87814
3417.41621	6.95134
3415.48765	7.01990
3413.55908	7.06292
3411.63052	7.10753
3409.70195	7.15802
3407.77339	7.20085
3405.84482	7.22799
3403.91626	7.24456
3401.98770	7.24949
3400.05913	7.26826
3398.13057	7.31404
3396.20200	7.33833
3394.27344	7.36083
3392.34487	7.41727
3390.41631	7.48275
3388.48774	7.54360
3386.55918	7.61466
3384.63062	7.67893
3382.70205	7.72950
3380.77349	7.76154
3378.84492	7.75331
3376.91636	7.76082
3374.98779	7.81728
3373.05923	7.87509
3371.13066	7.86923
3369.20210	7.82570
3367.27354	7.84175
3365.34497	7.92597
3363.41641	7.96261
3361.48784	7.92960
3359.55928	7.93051
3357.63071	7.98614
3355.70215	8.04815
3353.77358	8.04968
3351.84502	8.02652
3349.91646	8.04553
3347.98789	8.06246
3346.05933	8.04873
3344.13076	8.06395
3342.20220	8.09062
3340.27363	8.08589
3338.34507	8.09690
3336.41650	8.12831
3334.48794	8.15742
3332.55937	8.13328
3330.63081	8.10494
3328.70225	8.14235
3326.77368	8.19191
3324.84512	8.21574
3322.91655	8.18475
3320.98799	8.13657
3319.05942	8.11350
3317.13086	8.10161
3315.20229	8.13011
3313.27373	8.20194
3311.34517	8.25078
3309.41660	8.29959
3307.48804	8.34446
3305.55947	8.32505
3303.63091	8.31320
3301.70234	8.30880
3299.77378	8.30678
3297.84521	8.35218
3295.91665	8.39996
3293.98809	8.38898
3292.05952	8.35236
3290.13096	8.33581
3288.20239	8.30831
3286.27383	8.28100
3284.34526	8.28169
3282.41670	8.29820
3280.48813	8.32691
3278.55957	8.36967
3276.63101	8.39535
3274.70244	8.40047
3272.77388	8.39716
3270.84531	8.35830
3268.91675	8.34079
3266.98818	8.36869
3265.05962	8.38769
3263.13105	8.45770
3261.20249	8.58284
3259.27393	8.60735
3257.34536	8.52750
3255.41680	8.45969
3253.48823	8.46613
3251.55967	8.54221
3249.63110	8.61289
3247.70254	8.58887
3245.77397	8.48089
3243.84541	8.40991
3241.91685	8.39619
3239.98828	8.34571
3238.05972	8.25493
3236.13115	8.23213
3234.20259	8.25811
3232.27402	8.23585
3230.34546	8.23022
3228.41689	8.27350
3226.48833	8.25368
3224.55977	8.16337
3222.63120	8.12197
3220.70264	8.15045
3218.77407	8.17900
3216.84551	8.16453
3214.91694	8.11719
3212.98838	8.10246
3211.05981	8.13985
3209.13125	8.14500
3207.20269	8.10366
3205.27412	8.06190
3203.34556	8.00202
3201.41699	7.94837
3199.48843	7.91028
3197.55986	7.83401
3195.63130	7.75304
3193.70273	7.71515
3191.77417	7.68919
3189.84561	7.65441
3187.91704	7.60744
3185.98848	7.57027
3184.05991	7.55662
3182.13135	7.50040
3180.20278	7.40012
3178.27422	7.32392
3176.34565	7.27656
3174.41709	7.22554
3172.48853	7.15928
3170.55996	7.10275
3168.63140	7.06624
3166.70283	7.02273
3164.77427	6.97350
3162.84570	6.91335
3160.91714	6.81917
3158.98857	6.73957
3157.06001	6.70908
3155.13145	6.68081
3153.20288	6.61093
3151.27432	6.51625
3149.34575	6.42118
3147.41719	6.33223
3145.48862	6.26671
3143.56006	6.20919
3141.63149	6.13521
3139.70293	6.06554
3137.77437	6.01245
3135.84580	5.95607
3133.91724	5.88146
3131.98867	5.80128
3130.06011	5.72917
3128.13154	5.66213
3126.20298	5.59392
3124.27441	5.51989
3122.34585	5.44630
3120.41729	5.37822
3118.48872	5.31085
3116.56016	5.24312
3114.63159	5.17130
3112.70303	5.09556
3110.77446	5.02310
3108.84590	4.95612
3106.91733	4.89106
3104.98877	4.82246
3103.06021	4.75330
3101.13164	4.68914
3099.20308	4.62830
3097.27451	4.56536
3095.34595	4.49770
3093.41738	4.42956
3091.48882	4.36440
3089.56025	4.29910
3087.63169	4.23377
3085.70312	4.17135
3083.77456	4.10905
3081.84600	4.04658
3079.91743	3.98597
3077.98887	3.92577
3076.06030	3.86535
3074.13174	3.80524
3072.20317	3.74698
3070.27461	3.69012
3068.34604	3.63182
3066.41748	3.57403
3064.48892	3.51965
3062.56035	3.46575
3060.63179	3.41073
3058.70322	3.35679
3056.77466	3.30383
3054.84609	3.25028
3052.91753	3.19578
3050.98896	3.14130
3049.06040	3.08896
3047.13184	3.03844
3045.20327	2.98745
3043.27471	2.93729
3041.34614	2.88959
3039.41758	2.84314
3037.48901	2.79660
3035.56045	2.74982
3033.63188	2.70359
3031.70332	2.65792
3029.77476	2.61288
3027.84619	2.56941
3025.91763	2.52665
3023.98906	2.48319
3022.06050	2.44006
3020.13193	2.39808
3018.20337	2.35643
3016.27480	2.31526
3014.34624	2.27526
3012.41768	2.23626
3010.48911	2.19808
3008.56055	2.16058
3006.63198	2.12341
3004.70342	2.08678
3002.77485	2.05087
3000.84629	2.01571
2998.91772	1.98148
2996.98916	1.94794
2995.06060	1.91537
2993.13203	1.88394
2991.20347	1.85301
2989.27490	1.82291
2987.34634	1.79370
2985.41777	1.76425
2983.48921	1.73484
2981.56064	1.70668
2979.63208	1.67963
2977.70352	1.65296
2975.77495	1.62636
2973.84639	1.60018
2971.91782	1.57488
2969.98926	1.55013
2968.06069	1.52527
2966.13213	1.50048
2964.20356	1.47634
2962.27500	1.45261
2960.34644	1.42853
2958.41787	1.40419
2956.48931	1.38024
2954.56074	1.35677
2952.63218	1.33316
2950.70361	1.30924
2948.77505	1.28566
2946.84648	1.26276
2944.91792	1.24054
2942.98936	1.21921
2941.06079	1.19858
2939.13223	1.17808
2937.20366	1.15742
2935.27510	1.13681
2933.34653	1.11666
2931.41797	1.09680
2929.48940	1.07724
2927.56084	1.05830
2925.63228	1.03977
2923.70371	1.02159
2921.77515	1.00379
2919.84658	0.98635
2917.91802	0.96909
2915.98945	0.95167
2914.06089	0.93437
2912.13232	0.91732
2910.20376	0.90061
2908.27520	0.88495
2906.34663	0.87007
2904.41807	0.85509
2902.48950	0.84026
2900.56094	0.82594
2898.63237	0.81224
2896.70381	0.79925
2894.77524	0.78649
2892.84668	0.77387
2890.91812	0.76176
2888.98955	0.75005
2887.06099	0.73873
2885.13242	0.72797
2883.20386	0.71741
2881.27529	0.70685
2879.34673	0.69658
2877.41816	0.68661
2875.48960	0.67663
2873.56104	0.66648
2871.63247	0.65614
2869.70391	0.64525
2867.77534	0.63356
2865.84678	0.62140
2863.91821	0.60931
2861.98965	0.59763
2860.06108	0.58657
2858.13252	0.57626
2856.20396	0.56649
2854.27539	0.55693
2852.34683	0.54763
2850.41826	0.53867
2848.48970	0.53001
2846.56113	0.52172
2844.63257	0.51371
2842.70400	0.50605
2840.77544	0.49884
2838.84687	0.49197
2836.91831	0.48546
2834.98975	0.47927
2833.06118	0.47325
2831.13262	0.46726
2829.20405	0.46119
2827.27549	0.45498
2825.34692	0.44874
2823.41836	0.44251
2821.48979	0.43617
2819.56123	0.42989
2817.63267	0.42392
2815.70410	0.41815
2813.77554	0.41245
2811.84697	0.40683
2809.91841	0.40122
2807.98984	0.39569
2806.06128	0.39035
2804.13271	0.38510
2802.20415	0.37986
2800.27559	0.37463
2798.34702	0.36937
2796.41846	0.36416
2794.48989	0.35918
2792.56133	0.35450
2790.63276	0.34996
2788.70420	0.34542
2786.77563	0.34080
2784.84707	0.33616
2782.91851	0.33171
2780.98994	0.32756
2779.06138	0.32349
2777.13281	0.31943
2775.20425	0.31546
2773.27568	0.31151
2771.34712	0.30758
2769.41855	0.30375
2767.48999	0.30006
2765.56143	0.29649
2763.63286	0.29299
2761.70430	0.28948
2759.77573	0.28600
2757.84717	0.28261
2755.91860	0.27930
2753.99004	0.27603
2752.06147	0.27282
2750.13291	0.26972
2748.20435	0.26674
2746.27578	0.26389
2744.34722	0.26113
2742.41865	0.25833
2740.49009	0.25538
2738.56152	0.25244
2736.63296	0.24977
2734.70439	0.24722
2732.77583	0.24464
2730.84727	0.24214
2728.91870	0.23975
2726.99014	0.23748
2725.06157	0.23527
2723.13301	0.23300
2721.20444	0.23083
2719.27588	0.22873
2717.34731	0.22654
2715.41875	0.22449
2713.49019	0.22271
2711.56162	0.22094
2709.63306	0.21912
2707.70449	0.21735
2705.77593	0.21555
2703.84736	0.21374
2701.91880	0.21205
2699.99023	0.21040
2698.06167	0.20877
2696.13311	0.20730
2694.20454	0.20594
2692.27598	0.20457
2690.34741	0.20314
2688.41885	0.20171
2686.49028	0.20030
2684.56172	0.19892
2682.63315	0.19759
2680.70459	0.19632
2678.77603	0.19521
2676.84746	0.19420
2674.91890	0.19307
2672.99033	0.19179
2671.06177	0.19046
2669.13320	0.18917
2667.20464	0.18801
2665.27607	0.18700
2663.34751	0.18610
2661.41895	0.18523
2659.49038	0.18432
2657.56182	0.18348
2655.63325	0.18273
2653.70469	0.18188
2651.77612	0.18103
2649.84756	0.18040
2647.91899	0.17984
2645.99043	0.17913
2644.06187	0.17833
2642.13330	0.17761
2640.20474	0.17712
2638.27617	0.17677
2636.34761	0.17635
2634.41904	0.17588
2632.49048	0.17538
2630.56191	0.17476
2628.63335	0.17411
2626.70479	0.17357
2624.77622	0.17317
2622.84766	0.17280
2620.91909	0.17246
2618.99053	0.17230
2617.06196	0.17220
2615.13340	0.17199
2613.20483	0.17179
2611.27627	0.17157
2609.34771	0.17128
2607.41914	0.17108
2605.49058	0.17097
2603.56201	0.17080
2601.63345	0.17068
2599.70488	0.17075
2597.77632	0.17081
2595.84775	0.17076
2593.91919	0.17073
2591.99062	0.17081
2590.06206	0.17087
2588.13350	0.17083
2586.20493	0.17089
2584.27637	0.17115
2582.34780	0.17145
2580.41924	0.17164
2578.49067	0.17174
2576.56211	0.17189
2574.63354	0.17213
2572.70498	0.17246
2570.77642	0.17286
2568.84785	0.17331
2566.91929	0.17385
2564.99072	0.17440
2563.06216	0.17487
2561.13359	0.17515
2559.20503	0.17536
2557.27646	0.17572
2555.34790	0.17616
2553.41934	0.17655
2551.49077	0.17700
2549.56221	0.17758
2547.63364	0.17811
2545.70508	0.17857
2543.77651	0.17909
2541.84795	0.17975
2539.91938	0.18044
2537.99082	0.18105
2536.06226	0.18164
2534.13369	0.18228
2532.20513	0.18292
2530.27656	0.18350
2528.34800	0.18411
2526.41943	0.18474
2524.49087	0.18540
2522.56230	0.18616
2520.63374	0.18691
2518.70518	0.18751
2516.77661	0.18810
2514.84805	0.18887
2512.91948	0.18985
2510.99092	0.19083
2509.06235	0.19153
2507.13379	0.19209
2505.20522	0.19271
2503.27666	0.19346
2501.34810	0.19438
2499.41953	0.19540
2497.49097	0.19627
2495.56240	0.19689
2493.63384	0.19757
2491.70527	0.19848
2489.77671	0.19942
2487.84814	0.20023
2485.91958	0.20106
2483.99102	0.20196
2482.06245	0.20279
2480.13389	0.20362
2478.20532	0.20448
2476.27676	0.20528
2474.34819	0.20606
2472.41963	0.20696
2470.49106	0.20791
2468.56250	0.20871
2466.63394	0.20937
2464.70537	0.21017
2462.77681	0.21113
2460.84824	0.21212
2458.91968	0.21310
2456.99111	0.21405
2455.06255	0.21496
2453.13398	0.21590
2451.20542	0.21683
2449.27686	0.21768
2447.34829	0.21853
2445.41973	0.21959
2443.49116	0.22074
2441.56260	0.22171
2439.63403	0.22256
2437.70547	0.22349
2435.77690	0.22454
2433.84834	0.22560
2431.91978	0.22663
2429.99121	0.22768
2428.06265	0.22875
2426.13408	0.22981
2424.20552	0.23086
2422.27695	0.23188
2420.34839	0.23292
2418.41982	0.23408
2416.49126	0.23528
2414.56270	0.23640
2412.63413	0.23749
2410.70557	0.23856
2408.77700	0.23964
2406.84844	0.24073
2404.91987	0.24185
2402.99131	0.24306
2401.06274	0.24433
2399.13418	0.24559
2397.20562	0.24679
2395.27705	0.24791
2393.34849	0.24903
2391.41992	0.25032
2389.49136	0.25164
2387.56279	0.25282
2385.63423	0.25379
2383.70566	0.25450
2381.77710	0.25482
2379.84854	0.25479
2377.91997	0.25448
2375.99141	0.25403
2374.06284	0.25363
2372.13428	0.25322
2370.20571	0.25223
2368.27715	0.25035
2366.34858	0.24835
2364.42002	0.24702
2362.49146	0.24689
2360.56289	0.24848
2358.63433	0.25122
2356.70576	0.25426
2354.77720	0.25774
2352.84863	0.26228
2350.92007	0.26699
2348.99150	0.26994
2347.06294	0.27072
2345.13437	0.27012
2343.20581	0.26961
2341.27725	0.27042
2339.34868	0.27245
2337.42012	0.27473
2335.49155	0.27679
2333.56299	0.27864
2331.63442	0.28048
2329.70586	0.28275
2327.77729	0.28545
2325.84873	0.28806
2323.92017	0.29048
2321.99160	0.29312
2320.06304	0.29635
2318.13447	0.29987
2316.20591	0.30282
2314.27734	0.30493
2312.34878	0.30677
2310.42021	0.30900
2308.49165	0.31155
2306.56309	0.31406
2304.63452	0.31647
2302.70596	0.31871
2300.77739	0.32083
2298.84883	0.32298
2296.92026	0.32514
2294.99170	0.32727
2293.06313	0.32949
2291.13457	0.33177
2289.20601	0.33400
2287.27744	0.33620
2285.34888	0.33843
2283.42031	0.34066
2281.49175	0.34277
2279.56318	0.34472
2277.63462	0.34661
2275.70605	0.34855
2273.77749	0.35059
2271.84893	0.35255
2269.92036	0.35447
2267.99180	0.35658
2266.06323	0.35882
2264.13467	0.36101
2262.20610	0.36319
2260.27754	0.36536
2258.34897	0.36749
2256.42041	0.36968
2254.49185	0.37207
2252.56328	0.37447
2250.63472	0.37667
2248.70615	0.37883
2246.77759	0.38108
2244.84902	0.38337
2242.92046	0.38568
2240.99189	0.38793
2239.06333	0.39007
2237.13477	0.39216
2235.20620	0.39433
2233.27764	0.39665
2231.34907	0.39901
2229.42051	0.40126
2227.49194	0.40343
2225.56338	0.40562
2223.63481	0.40782
2221.70625	0.41000
2219.77769	0.41221
2217.84912	0.41448
2215.92056	0.41674
2213.99199	0.41892
2212.06343	0.42101
2210.13486	0.42312
2208.20630	0.42533
2206.27773	0.42758
2204.34917	0.42975
2202.42061	0.43180
2200.49204	0.43375
2198.56348	0.43573
2196.63491	0.43776
2194.70635	0.43977
2192.77778	0.44168
2190.84922	0.44347
2188.92065	0.44531
2186.99209	0.44734
2185.06353	0.44940
2183.13496	0.45120
2181.20640	0.45267
2179.27783	0.45407
2177.34927	0.45561
2175.42070	0.45729
2173.49214	0.45899
2171.56357	0.46053
2169.63501	0.46186
2167.70645	0.46302
2165.77788	0.46417
2163.84932	0.46540
2161.92075	0.46665
2159.99219	0.46777
2158.06362	0.46875
2156.13506	0.46978
2154.20649	0.47082
2152.27793	0.47160
2150.34937	0.47219
2148.42080	0.47283
2146.49224	0.47351
2144.56367	0.47408
2142.63511	0.47449
2140.70654	0.47479
2138.77798	0.47500
2136.84941	0.47520
2134.92085	0.47533
2132.99229	0.47532
2131.06372	0.47525
2129.13516	0.47510
2127.20659	0.47482
2125.27803	0.47451
2123.34946	0.47411
2121.42090	0.47357
2119.49233	0.47295
2117.56377	0.47228
2115.63521	0.47151
2113.70664	0.47067
2111.77808	0.46981
2109.84951	0.46885
2107.92095	0.46782
2105.99238	0.46680
2104.06382	0.46567
2102.13525	0.46437
2100.20669	0.46305
2098.27812	0.46155
2096.34956	0.45984
2094.42100	0.45813
2092.49243	0.45649
2090.56387	0.45483
2088.63530	0.45309
2086.70674	0.45128
2084.77817	0.44940
2082.84961	0.44746
2080.92104	0.44546
2078.99248	0.44335
2077.06392	0.44117
2075.13535	0.43895
2073.20679	0.43677
2071.27822	0.43459
2069.34966	0.43228
2067.42109	0.42982
2065.49253	0.42739
2063.56396	0.42504
2061.63540	0.42265
2059.70684	0.42015
2057.77827	0.41754
2055.84971	0.41487
2053.92114	0.41232
2051.99258	0.40988
2050.06401	0.40734
2048.13545	0.40466
2046.20688	0.40192
2044.27832	0.39913
2042.34976	0.39629
2040.42119	0.39345
2038.49263	0.39075
2036.56406	0.38806
2034.63550	0.38521
2032.70693	0.38233
2030.77837	0.37952
2028.84980	0.37668
2026.92124	0.37377
2024.99268	0.37084
2023.06411	0.36797
2021.13555	0.36516
2019.20698	0.36239
2017.27842	0.35960
2015.34985	0.35681
2013.42129	0.35406
2011.49272	0.35136
2009.56416	0.34869
2007.63560	0.34591
2005.70703	0.34308
2003.77847	0.34037
2001.84990	0.33770
1999.92134	0.33497
1997.99277	0.33225
1996.06421	0.32958
1994.13564	0.32696
1992.20708	0.32438
1990.27852	0.32182
1988.34995	0.31932
1986.42139	0.31686
1984.49282	0.31442
1982.56426	0.31202
1980.63569	0.30966
1978.70713	0.30728
1976.77856	0.30494
1974.85000	0.30269
1972.92144	0.30043
1970.99287	0.29820
1969.06431	0.29601
1967.13574	0.29390
1965.20718	0.29194
1963.27861	0.28997
1961.35005	0.28786
1959.42148	0.28579
1957.49292	0.28396
1955.56436	0.28220
1953.63579	0.28045
1951.70723	0.27874
1949.77866	0.27711
1947.85010	0.27548
1945.92153	0.27378
1943.99297	0.27203
1942.06440	0.27044
1940.13584	0.26907
1938.20728	0.26776
1936.27871	0.26645
1934.35015	0.26515
1932.42158	0.26380
1930.49302	0.26245
1928.56445	0.26130
1926.63589	0.26028
1924.70732	0.25918
1922.77876	0.25797
1920.85020	0.25682
1918.92163	0.25576
1916.99307	0.25482
1915.06450	0.25407
1913.13594	0.25332
1911.20737	0.25254
1909.27881	0.25182
1907.35024	0.25119
1905.42168	0.25057
1903.49312	0.24994
1901.56455	0.24935
1899.63599	0.24882
1897.70742	0.24833
1895.77886	0.24781
1893.85029	0.24737
1891.92173	0.24693
1889.99316	0.24654
1888.06460	0.24632
1886.13604	0.24621
1884.20747	0.24602
1882.27891	0.24584
1880.35034	0.24574
1878.42178	0.24569
1876.49321	0.24566
1874.56465	0.24559
1872.63608	0.24554
1870.70752	0.24533
1868.77896	0.24516
1866.85039	0.24548
1864.92183	0.24605
1862.99326	0.24648
1861.06470	0.24680
1859.13613	0.24722
1857.20757	0.24762
1855.27900	0.24798
1853.35044	0.24831
1851.42187	0.24870
1849.49331	0.24907
1847.56475	0.24939
1845.63618	0.24981
1843.70762	0.25067
1841.77905	0.25187
1839.85049	0.25278
1837.92192	0.25362
1835.99336	0.25451
1834.06479	0.25544
1832.13623	0.25617
1830.20767	0.25708
1828.27910	0.25847
1826.35054	0.25979
1824.42197	0.26114
1822.49341	0.26263
1820.56484	0.26411
1818.63628	0.26552
1816.70771	0.26707
1814.77915	0.26866
1812.85059	0.27026
1810.92202	0.27207
1808.99346	0.27412
1807.06489	0.27626
1805.13633	0.27828
1803.20776	0.28031
1801.27920	0.28253
1799.35063	0.28522
1797.42207	0.28782
1795.49351	0.29008
1793.56494	0.29242
1791.63638	0.29577
1789.70781	0.29978
1787.77925	0.30304
1785.85068	0.30630
1783.92212	0.30987
1781.99355	0.31366
1780.06499	0.31775
1778.13643	0.32215
1776.20786	0.32616
1774.27930	0.32994
1772.35073	0.33503
1770.42217	0.34140
1768.49360	0.34739
1766.56504	0.35309
1764.63647	0.35866
1762.70791	0.36439
1760.77935	0.37160
1758.85078	0.37871
1756.92222	0.38587
1754.99365	0.39374
1753.06509	0.40074
1751.13652	0.40841
1749.20796	0.41811
1747.27939	0.42849
1745.35083	0.43816
1743.42227	0.44812
1741.49370	0.45865
1739.56514	0.47078
1737.63657	0.48310
1735.70801	0.49393
1733.77944	0.50974
1731.85088	0.52928
1729.92231	0.54558
1727.99375	0.56212
1726.06519	0.57973
1724.13662	0.59839
1722.20806	0.61823
1720.27949	0.63656
1718.35093	0.65743
1716.42236	0.68793
1714.49380	0.71874
1712.56523	0.74523
1710.63667	0.77075
1708.70811	0.79736
1706.77954	0.82673
1704.85098	0.86137
1702.92241	0.89299
1700.99385	0.92460
1699.06528	0.97050
1697.13672	1.01332
1695.20815	1.05838
1693.27959	1.10398
1691.35103	1.14118
1689.42246	1.18289
1687.49390	1.22647
1685.56533	1.26835
1683.63677	1.33156
1681.70820	1.39954
1679.77964	1.44551
1677.85107	1.48874
1675.92251	1.53732
1673.99395	1.59573
1672.06538	1.64869
1670.13682	1.70159
1668.20825	1.76950
1666.27969	1.82738
1664.35112	1.87891
1662.42256	1.94257
1660.49399	2.01334
1658.56543	2.06895
1656.63687	2.11290
1654.70830	2.15181
1652.77974	2.21061
1650.85117	2.26744
1648.92261	2.28663
1646.99404	2.30825
1645.06548	2.33447
1643.13691	2.35340
1641.20835	2.36191
1639.27979	2.36810
1637.35122	2.37161
1635.42266	2.37125
1633.49409	2.36472
1631.56553	2.34924
1629.63696	2.32786
1627.70840	2.29566
1625.77983	2.26072
1623.85127	2.21641
1621.92271	2.16216
1619.99414	2.11426
1618.06558	2.06695
1616.13701	2.00144
1614.20845	1.93661
1612.27988	1.88698
1610.35132	1.83439
1608.42275	1.77679
1606.49419	1.72006
1604.56562	1.66818
1602.63706	1.61877
1600.70850	1.57084
1598.77993	1.52638
1596.85137	1.48441
1594.92280	1.44406
1592.99424	1.40565
1591.06567	1.37081
1589.13711	1.33873
1587.20854	1.30922
1585.27998	1.28223
1583.35142	1.25756
1581.42285	1.23515
1579.49429	1.21557
1577.56572	1.19802
1575.63716	1.17841
1573.70859	1.16181
1571.78003	1.15064
1569.85146	1.13978
1567.92290	1.12923
1565.99434	1.12201
1564.06577	1.11693
1562.13721	1.11309
1560.20864	1.11096
1558.28008	1.11333
1556.35151	1.11893
1554.42295	1.12234
1552.49438	1.12475
1550.56582	1.12491
1548.63726	1.12221
1546.70869	1.11664
1544.78013	1.10681
1542.85156	1.09258
1540.92300	1.07301
1538.99443	1.04583
1537.06587	1.02530
1535.13730	1.00972
1533.20874	0.98915
1531.28018	0.96803
1529.35161	0.95226
1527.42305	0.93684
1525.49448	0.92107
1523.56592	0.90785
1521.63735	0.89548
1519.70879	0.88335
1517.78022	0.87315
1515.85166	0.86189
1513.92310	0.84998
1511.99453	0.83869
1510.06597	0.82759
1508.13740	0.81602
1506.20884	0.80051
1504.28027	0.78873
1502.35171	0.78199
1500.42314	0.77532
1498.49458	0.76771
1496.56602	0.75941
1494.63745	0.75186
1492.70889	0.74563
1490.78032	0.73935
1488.85176	0.73266
1486.92319	0.72748
1484.99463	0.72368
1483.06606	0.72041
1481.13750	0.71745
1479.20894	0.71508
1477.28037	0.71345
1475.35181	0.71236
1473.42324	0.71199
1471.49468	0.71214
1469.56611	0.71160
1467.63755	0.70992
1465.70898	0.70789
1463.78042	0.70656
1461.85186	0.70616
1459.92329	0.70589
1457.99473	0.70530
1456.06616	0.70470
1454.13760	0.70394
1452.20903	0.70241
1450.28047	0.70017
1448.35190	0.69775
1446.42334	0.69519
1444.49478	0.69263
1442.56621	0.69016
1440.63765	0.68748
1438.70908	0.68436
1436.78052	0.68058
1434.85195	0.67697
1432.92339	0.67447
1430.99482	0.67272
1429.06626	0.67190
1427.13770	0.67199
1425.20913	0.67239
1423.28057	0.67296
1421.35200	0.67356
1419.42344	0.67407
1417.49487	0.67439
1415.56631	0.67399
1413.63774	0.67329
1411.70918	0.67309
1409.78062	0.67391
1407.85205	0.67528
1405.92349	0.67666
1403.99492	0.67790
1402.06636	0.67827
1400.13779	0.67740
1398.20923	0.67557
1396.28066	0.67297
1394.35210	0.66935
1392.42354	0.66514
1390.49497	0.66097
1388.56641	0.65642
1386.63784	0.65127
1384.70928	0.64621
1382.78071	0.64139
1380.85215	0.63672
1378.92358	0.63268
1376.99502	0.62961
1375.06646	0.62739
1373.13789	0.62607
1371.20933	0.62561
1369.28076	0.62524
1367.35220	0.62434
1365.42363	0.62282
1363.49507	0.62093
1361.56650	0.61926
1359.63794	0.61808
1357.70937	0.61692
1355.78081	0.61553
1353.85225	0.61420
1351.92368	0.61321
1349.99512	0.61236
1348.06655	0.61147
1346.13799	0.61054
1344.20942	0.60958
1342.28086	0.60858
1340.35229	0.60762
1338.42373	0.60682
1336.49517	0.60628
1334.56660	0.60604
1332.63804	0.60609
1330.70947	0.60639
1328.78091	0.60675
1326.85234	0.60719
1324.92378	0.60796
1322.99521	0.60892
1321.06665	0.60966
1319.13809	0.61024
1317.20952	0.61074
1315.28096	0.61095
1313.35239	0.61078
1311.42383	0.61026
1309.49526	0.60945
1307.56670	0.60857
1305.63813	0.60785
1303.70957	0.60718
1301.78101	0.60629
1299.85244	0.60516
1297.92388	0.60386
1295.99531	0.60243
1294.06675	0.60104
1292.13818	0.59966
1290.20962	0.59823
1288.28105	0.59682
1286.35249	0.59549
1284.42393	0.59420
1282.49536	0.59284
1280.56680	0.59146
1278.63823	0.58997
1276.70967	0.58836
1274.78110	0.58697
1272.85254	0.58602
1270.92397	0.58542
1268.99541	0.58495
1267.06685	0.58428
1265.13828	0.58322
1263.20972	0.58209
1261.28115	0.58125
1259.35259	0.58064
1257.42402	0.58016
1255.49546	0.57993
1253.56689	0.57992
1251.63833	0.57999
1249.70977	0.58021
1247.78120	0.58039
1245.85264	0.58011
1243.92407	0.57924
1241.99551	0.57811
1240.06694	0.57688
1238.13838	0.57527
1236.20981	0.57315
1234.28125	0.57080
1232.35269	0.56841
1230.42412	0.56612
1228.49556	0.56402
1226.56699	0.56205
1224.63843	0.56008
1222.70986	0.55805
1220.78130	0.55610
1218.85273	0.55434
1216.92417	0.55283
1214.99561	0.55158
1213.06704	0.55056
1211.13848	0.54975
1209.20991	0.54915
1207.28135	0.54855
1205.35278	0.54771
1203.42422	0.54674
1201.49565	0.54571
1199.56709	0.54467
1197.63853	0.54367
1195.70996	0.54271
1193.78140	0.54180
1191.85283	0.54099
1189.92427	0.54034
1187.99570	0.53988
1186.06714	0.53957
1184.13857	0.53949
1182.21001	0.53985
1180.28145	0.54078
1178.35288	0.54206
1176.42432	0.54348
1174.49575	0.54486
1172.56719	0.54589
1170.63862	0.54642
1168.71006	0.54669
1166.78149	0.54700
1164.85293	0.54736
1162.92437	0.54765
1160.99580	0.54771
1159.06724	0.54736
1157.13867	0.54677
1155.21011	0.54611
1153.28154	0.54507
1151.35298	0.54329
1149.42441	0.54090
1147.49585	0.53817
1145.56729	0.53529
1143.63872	0.53254
1141.71016	0.53011
1139.78159	0.52809
1137.85303	0.52658
1135.92446	0.52566
1133.99590	0.52522
1132.06733	0.52499
1130.13877	0.52483
1128.21021	0.52480
1126.28164	0.52478
1124.35308	0.52455
1122.42451	0.52429
1120.49595	0.52415
1118.56738	0.52421
1116.63882	0.52474
1114.71025	0.52561
1112.78169	0.52641
1110.85312	0.52720
1108.92456	0.52810
1106.99600	0.52897
1105.06743	0.52965
1103.13887	0.53036
1101.21030	0.53144
1099.28174	0.53287
1097.35317	0.53470
1095.42461	0.53726
1093.49604	0.54073
1091.56748	0.54525
1089.63892	0.55099
1087.71035	0.55801
1085.78179	0.56602
1083.85322	0.57428
1081.92466	0.58171
1079.99609	0.58717
1078.06753	0.58975
1076.13896	0.58918
1074.21040	0.58593
1072.28184	0.58060
1070.35327	0.57394
1068.42471	0.56703
1066.49614	0.56042
1064.56758	0.55428
1062.63901	0.54887
1060.71045	0.54417
1058.78188	0.54006
1056.85332	0.53658
1054.92476	0.53343
1052.99619	0.53042
1051.06763	0.52781
1049.13906	0.52583
1047.21050	0.52450
1045.28193	0.52368
1043.35337	0.52322
1041.42480	0.52298
1039.49624	0.52278
1037.56768	0.52260
1035.63911	0.52244
1033.71055	0.52210
1031.78198	0.52131
1029.85342	0.52004
1027.92485	0.51841
1025.99629	0.51677
1024.06772	0.51552
1022.13916	0.51484
1020.21060	0.51450
1018.28203	0.51432
1016.35347	0.51431
1014.42490	0.51431
1012.49634	0.51417
1010.56777	0.51405
1008.63921	0.51412
1006.71064	0.51455
1004.78208	0.51559
1002.85352	0.51723
1000.92495	0.51951
998.99639	0.52267
997.06782	0.52675
995.13926	0.53125
993.21069	0.53556
991.28213	0.53905
989.35356	0.54120
987.42500	0.54209
985.49644	0.54212
983.56787	0.54182
981.63931	0.54197
979.71074	0.54278
977.78218	0.54394
975.85361	0.54573
973.92505	0.54822
971.99648	0.55093
970.06792	0.55384
968.13936	0.55732
966.21079	0.56142
964.28223	0.56583
962.35366	0.57034
960.42510	0.57517
958.49653	0.58052
956.56797	0.58626
954.63940	0.59231
952.71084	0.59857
950.78228	0.60475
948.85371	0.61089
946.92515	0.61722
944.99658	0.62368
943.06802	0.63017
941.13945	0.63666
939.21089	0.64281
937.28232	0.64841
935.35376	0.65398
933.42520	0.65977
931.49663	0.66531
929.56807	0.67042
927.63950	0.67579
925.71094	0.68192
923.78237	0.68851
921.85381	0.69528
919.92524	0.70226
917.99668	0.70928
916.06812	0.71643
914.13955	0.72407
912.21099	0.73202
910.28242	0.73984
908.35386	0.74768
906.42529	0.75611
904.49673	0.76527
902.56816	0.77470
900.63960	0.78406
898.71104	0.79344
896.78247	0.80318
894.85391	0.81324
892.92534	0.82317
890.99678	0.83380
889.06821	0.84548
887.13965	0.85633
885.21108	0.86619
883.28252	0.87705
881.35396	0.88884
879.42539	0.90033
877.49683	0.91189
875.56826	0.92411
873.63970	0.93595
871.71113	0.94666
869.78257	0.95716
867.85400	0.96852
865.92544	0.98111
863.99687	0.99365
862.06831	1.00569
860.13975	1.01834
858.21118	1.03075
856.28262	1.04166
854.35405	1.05158
852.42549	1.06205
850.49692	1.07393
848.56836	1.08617
846.63979	1.09797
844.71123	1.10896
842.78267	1.12040
840.85410	1.13329
838.92554	1.14455
836.99697	1.15421
835.06841	1.16639
833.13984	1.17943
831.21128	1.18921
829.28271	1.19989
827.35415	1.21662
825.42559	1.23523
823.49702	1.24756
821.56846	1.25390
819.63989	1.26418
817.71133	1.27601
815.78276	1.28441
813.85420	1.29325
811.92563	1.29873
809.99707	1.30197
808.06851	1.30785
806.13994	1.31527
804.21138	1.32747
802.28281	1.34990
800.35425	1.38002
798.42568	1.40675
796.49712	1.41052
794.56855	1.38788
792.63999	1.37567
790.71143	1.39869
788.78286	1.43561
786.85430	1.45053
784.92573	1.45964
782.99717	1.50338
781.06860	1.53152
779.14004	1.48196
777.21147	1.49873
775.28291	1.67215
773.35435	1.76676
771.42578	1.64684
769.49722	1.57715
767.56865	1.56955
765.64009	1.61895
763.71152	1.71704
761.78296	1.75255
759.85439	1.64745
757.92583	1.49503
755.99727	1.41604
754.06870	1.42374
752.14014	1.42814
750.21157	1.33375
748.28301	1.18348
746.35444	1.09950
744.42588	1.12660
742.49731	1.18299
740.56875	1.12160
738.64019	1.08512
736.71162	1.16280
734.78306	1.12742
732.85449	0.91518
730.92593	0.71280
728.99736	0.57566
727.06880	0.56874
725.14023	0.86681
723.21167	4.33927
721.28311	1.25997
719.35454	0.68752
717.42598	0.47841
715.49741	0.23678
713.56885	-0.12306
711.64028	-0.30645
709.71172	0.06800
707.78315	0.19194
705.85459	0.26842
703.92603	0.40274
701.99746	0.48492
700.06890	0.44953
698.14033	0.42214
696.21177	0.53741
694.28320	0.63510
692.35464	0.54780
690.42607	0.60929
688.49751	1.10519
686.56895	4.11941
684.64038	4.10784
682.71182	0.85261
680.78325	0.41930
678.85469	0.29926
676.92612	0.28273
674.99756	0.25297
673.06899	0.23708
671.14043	0.31402
669.21187	0.41010
667.28330	0.35917
665.35474	0.27457
663.42617	0.27093
661.49761	0.31105
659.56904	0.29167
657.64048	0.24052
655.71191	0.29860
653.78335	0.52099
651.85479	0.55609
649.92622	0.46400
647.99766	0.51080
646.06909	0.64106
644.14053	0.57702
642.21196	0.52419
640.28340	0.49450
638.35483	0.35360
636.42627	0.31108
634.49771	0.45771
632.56914	0.54756
630.64058	0.47405
628.71201	0.48985
626.78345	0.48595
624.85488	0.33249
622.92632	0.22502
620.99775	0.18436
619.06919	0.15443
617.14062	0.18075
615.21206	0.25782
613.28350	0.27874
611.35493	0.25637
609.42637	0.29814
607.49780	0.39999
605.56924	0.38252
603.64067	0.30073
601.71211	0.33334
599.78354	0.39766
597.85498	0.39941
595.92642	0.44735
593.99785	0.61910
592.06929	0.71896
590.14072	0.59319
588.21216	0.46194
586.28359	0.39773
584.35503	0.41754
582.42646	0.38827
580.49790	0.24187
578.56934	0.16732
576.64077	0.22161
574.71221	0.37983
572.78364	0.76599
570.85508	3.42513
568.92651	3.41356
566.99795	0.66739
565.06938	0.84890
563.14082	3.37884
561.21226	0.60640
559.28369	0.27315
557.35513	0.21696
555.42656	0.32158
553.49800	0.48255
551.56943	0.47398
549.64087	0.35684
547.71230	0.31407
545.78374	0.36057
543.85518	0.37831
541.92661	0.31257
539.99805	0.26723
538.06948	0.25723
536.14092	0.25586
534.21235	0.25820
532.28379	0.24193
530.35522	0.23094
528.42666	0.27657
526.49810	0.33576
524.56953	0.33341
522.64097	0.31299
520.71240	0.29314
518.78384	0.28159
516.85527	0.30701
514.92671	0.36605
512.99814	0.46774
511.06958	0.53965
509.14102	0.44535
507.21245	0.29508
505.28389	0.22491
503.35532	0.25541
501.42676	0.29397
499.49819	0.27614
