3997.91411	0.05441
3995.98555	0.05480
3994.05698	0.05575
3992.12842	0.05646
3990.19985	0.05656
3988.27129	0.05661
3986.34272	0.05695
3984.41416	0.05734
3982.48560	0.05757
3980.55703	0.05784
3978.62847	0.05815
3976.69990	0.05845
3974.77134	0.05884
3972.84277	0.05913
3970.91421	0.05924
3968.98564	0.05933
3967.05708	0.05938
3965.12852	0.05935
3963.19995	0.05950
3961.27139	0.05989
3959.34282	0.06033
3957.41426	0.06058
3955.48569	0.06062
3953.55713	0.06061
3951.62856	0.06081
3949.70000	0.06134
3947.77144	0.06183
3945.84287	0.06169
3943.91431	0.06158
3941.98574	0.06215
3940.05718	0.06233
3938.12861	0.06169
3936.20005	0.06104
3934.27148	0.06084
3932.34292	0.06122
3930.41436	0.06174
3928.48579	0.06186
3926.55723	0.06219
3924.62866	0.06304
3922.70010	0.06319
3920.77153	0.06249
3918.84297	0.06234
3916.91440	0.06256
3914.98584	0.06196
3913.05728	0.06087
3911.12871	0.06021
3909.20015	0.06006
3907.27158	0.06040
3905.34302	0.06144
3903.41445	0.06302
3901.48589	0.06410
3899.55732	0.06385
3897.62876	0.06251
3895.70020	0.06133
3893.77163	0.06126
3891.84307	0.06224
3889.91450	0.06307
3887.98594	0.06290
3886.05737	0.06313
3884.12881	0.06373
3882.20024	0.06361
3880.27168	0.06385
3878.34312	0.06415
3876.41455	0.06370
3874.48599	0.06379
3872.55742	0.06469
3870.62886	0.06560
3868.70029	0.06652
3866.77173	0.06692
3864.84316	0.06716
3862.91460	0.06778
3860.98604	0.06781
3859.05747	0.06735
3857.12891	0.06708
3855.20034	0.06761
3853.27178	0.07034
3851.34321	0.07299
3849.41465	0.07135
3847.48608	0.06918
3845.55752	0.06871
3843.62896	0.06982
3841.70039	0.07158
3839.77183	0.07315
3837.84326	0.07466
3835.91470	0.07534
3833.98613	0.07499
3832.05757	0.07496
3830.12900	0.07523
3828.20044	0.07553
3826.27187	0.07646
3824.34331	0.07742
3822.41475	0.07828
3820.48618	0.08046
3818.55762	0.08208
3816.62905	0.08197
3814.70049	0.08235
3812.77192	0.08280
3810.84336	0.08270
3808.91479	0.08310
3806.98623	0.08483
3805.05767	0.08694
3803.12910	0.08836
3801.20054	0.09040
3799.27197	0.09241
3797.34341	0.09309
3795.41484	0.09376
3793.48628	0.09438
3791.55771	0.09485
3789.62915	0.09560
3787.70059	0.09673
3785.77202	0.09857
3783.84346	0.10084
3781.91489	0.10274
3779.98633	0.10446
3778.05776	0.10618
3776.12920	0.10726
3774.20063	0.10839
3772.27207	0.11039
3770.34351	0.11317
3768.41494	0.11572
3766.48638	0.11711
3764.55781	0.11838
3762.62925	0.12003
3760.70068	0.12240
3758.77212	0.12600
3756.84355	0.12929
3754.91499	0.13113
3752.98643	0.13354
3751.05786	0.13834
3749.12930	0.14356
3747.20073	0.14576
3745.27217	0.14756
3743.34360	0.15187
3741.41504	0.15587
3739.48647	0.15834
3737.55791	0.16217
3735.62935	0.16888
3733.70078	0.17639
3731.77222	0.18118
3729.84365	0.18440
3727.91509	0.18792
3725.98652	0.19302
3724.05796	0.19971
3722.12939	0.20674
3720.20083	0.21362
3718.27227	0.22010
3716.34370	0.22643
3714.41514	0.23325
3712.48657	0.24274
3710.55801	0.25717
3708.62944	0.27234
3706.70088	0.28395
3704.77231	0.29475
3702.84375	0.30781
3700.91519	0.32510
3698.98662	0.34432
3697.05806	0.36243
3695.12949	0.38109
3693.20093	0.40080
3691.27236	0.42239
3689.34380	0.45030
3687.41523	0.48467
3685.48667	0.51525
3683.55811	0.54161
3681.62954	0.56999
3679.70098	0.60230
3677.77241	0.63655
3675.84385	0.67677
3673.91528	0.72898
3671.98672	0.77196
3670.05815	0.81125
3668.12959	0.86470
3666.20103	0.91378
3664.27246	0.95484
3662.34390	0.99855
3660.41533	1.04581
3658.48677	1.09272
3656.55820	1.14268
3654.62964	1.19828
3652.70107	1.24570
3650.77251	1.28748
3648.84395	1.34348
3646.91538	1.41045
3644.98682	1.46189
3643.05825	1.50254
3641.12969	1.54331
3639.20112	1.58801
3637.27256	1.63344
3635.34399	1.67736
3633.41543	1.72061
3631.48687	1.76100
3629.55830	1.80221
3627.62974	1.85658
3625.70117	1.90849
3623.77261	1.94376
3621.84404	1.97668
3619.91548	2.01423
3617.98691	2.05923
3616.05835	2.10302
3614.12979	2.14039
3612.20122	2.17931
3610.27266	2.21859
3608.34409	2.25893
3606.41553	2.30307
3604.48696	2.34439
3602.55840	2.38014
3600.62983	2.41793
3598.70127	2.45986
3596.77271	2.50163
3594.84414	2.54315
3592.91558	2.58415
3590.98701	2.62191
3589.05845	2.65841
3587.12988	2.70320
3585.20132	2.75222
3583.27275	2.79388
3581.34419	2.83187
3579.41562	2.87239
3577.48706	2.91578
3575.55850	2.95912
3573.62993	3.00311
3571.70137	3.04572
3569.77280	3.08543
3567.84424	3.12852
3565.91567	3.18191
3563.98711	3.23401
3562.05854	3.27728
3560.12998	3.31765
3558.20142	3.35954
3556.27285	3.40561
3554.34429	3.45274
3552.41572	3.50047
3550.48716	3.54784
3548.55859	3.59193
3546.63003	3.63638
3544.70146	3.68699
3542.77290	3.73889
3540.84434	3.78727
3538.91577	3.83474
3536.98721	3.88139
3535.05864	3.92878
3533.13008	3.97547
3531.20151	4.02012
3529.27295	4.06639
3527.34438	4.11776
3525.41582	4.16957
3523.48726	4.21896
3521.55869	4.26915
3519.63013	4.31911
3517.70156	4.36925
3515.77300	4.41766
3513.84443	4.46535
3511.91587	4.51495
3509.98730	4.56440
3508.05874	4.61353
3506.13018	4.66319
3504.20161	4.71293
3502.27305	4.76011
3500.34448	4.80367
3498.41592	4.84906
3496.48735	4.89971
3494.55879	4.95151
3492.63022	5.00327
3490.70166	5.05315
3488.77310	5.10062
3486.84453	5.15396
3484.91597	5.21297
3482.98740	5.26893
3481.05884	5.31453
3479.13027	5.35305
3477.20171	5.40051
3475.27314	5.45802
3473.34458	5.51374
3471.41602	5.56098
3469.48745	5.60042
3467.55889	5.64197
3465.63032	5.69759
3463.70176	5.76655
3461.77319	5.82786
3459.84463	5.86688
3457.91606	5.90239
3455.98750	5.95666
3454.05894	6.01629
3452.13037	6.06717
3450.20181	6.11416
3448.27324	6.15755
3446.34468	6.20217
3444.41611	6.24800
3442.48755	6.29613
3440.55898	6.34299
3438.63042	6.38414
3436.70186	6.43359
3434.77329	6.49792
3432.84473	6.56618
3430.91616	6.63618
3428.98760	6.70928
3427.05903	6.76696
3425.13047	6.80692
3423.20190	6.84156
3421.27334	6.88943
3419.34478	6.95193
3417.41621	7.00500
3415.48765	7.03575
3413.55908	7.05763
3411.63052	7.09289
3409.70195	7.13664
3407.77339	7.19511
3405.84482	7.25521
3403.91626	7.28949
3401.98770	7.30403
3400.05913	7.33640
3398.13057	7.41256
3396.20200	7.50024
3394.27344	7.54510
3392.34487	7.51418
3390.41631	7.47971
3388.48774	7.52777
3386.55918	7.62703
3384.63062	7.68578
3382.70205	7.71140
3380.77349	7.74606
3378.84492	7.78161
3376.91636	7.83614
3374.98779	7.89291
3373.05923	7.94151
3371.13066	7.98117
3369.20210	7.97616
3367.27354	7.92853
3365.34497	7.92060
3363.41641	7.99595
3361.48784	8.08860
3359.55928	8.13875
3357.63071	8.14629
3355.70215	8.11358
3353.77358	8.05849
3351.84502	8.08744
3349.91646	8.18363
3347.98789	8.19893
3346.05933	8.17800
3344.13076	8.25206
3342.20220	8.34014
3340.27363	8.32600
3338.34507	8.32598
3336.41650	8.36611
3334.48794	8.38782
3332.55937	8.40605
3330.63081	8.37613
3328.70225	8.28899
3326.77368	8.24291
3324.84512	8.25151
3322.91655	8.28056
3320.98799	8.34528
3319.05942	8.39315
3317.13086	8.36702
3315.20229	8.30865
3313.27373	8.32937
3311.34517	8.41447
3309.41660	8.44343
3307.48804	8.45157
3305.55947	8.48072
3303.63091	8.46120
3301.70234	8.41871
3299.77378	8.44076
3297.84521	8.46605
3295.91665	8.48059
3293.98809	8.57518
3292.05952	8.68758
3290.13096	8.64217
3288.20239	8.49026
3286.27383	8.41472
3284.34526	8.44281
3282.41670	8.50022
3280.48813	8.51019
3278.55957	8.48616
3276.63101	8.45908
3274.70244	8.45550
3272.77388	8.50309
3270.84531	8.54712
3268.91675	8.50522
3266.98818	8.45083
3265.05962	8.50967
3263.13105	8.57809
3261.20249	8.54549
3259.27393	8.49762
3257.34536	8.45607
3255.41680	8.37974
3253.48823	8.31594
3251.55967	8.30926
3249.63110	8.33420
3247.70254	8.36087
3245.77397	8.38542
3243.84541	8.44443
3241.91685	8.51932
3239.98828	8.54025
3238.05972	8.50403
3236.13115	8.43056
3234.20259	8.30693
3232.27402	8.23203
3230.34546	8.28011
3228.41689	8.34526
3226.48833	8.41091
3224.55977	8.44991
3222.63120	8.35668
3220.70264	8.28330
3218.77407	8.33190
3216.84551	8.34602
3214.91694	8.24222
3212.98838	8.15189
3211.05981	8.13471
3209.13125	8.12285
3207.20269	8.08789
3205.27412	8.09127
3203.34556	8.12195
3201.41699	8.08616
3199.48843	8.00548
3197.55986	7.95690
3195.63130	7.92238
3193.70273	7.85058
3191.77417	7.73305
3189.84561	7.63355
3187.91704	7.59816
3185.98848	7.58982
3184.05991	7.58797
3182.13135	7.57691
3180.20278	7.52187
3178.27422	7.43749
3176.34565	7.37062
3174.41709	7.34654
3172.48853	7.32771
3170.55996	7.26431
3168.63140	7.16590
3166.70283	7.08038
3164.77427	7.03897
3162.84570	7.00399
3160.91714	6.92322
3158.98857	6.83192
3157.06001	6.76568
3155.13145	6.69413
3153.20288	6.61006
3151.27432	6.53536
3149.34575	6.46575
3147.41719	6.39562
3145.48862	6.32783
3143.56006	6.25938
3141.63149	6.18710
3139.70293	6.10555
3137.77437	6.02134
3135.84580	5.94736
3133.91724	5.88109
3131.98867	5.81959
3130.06011	5.76063
3128.13154	5.69437
3126.20298	5.62134
3124.27441	5.54472
3122.34585	5.46002
3120.41729	5.37408
3118.48872	5.29877
3116.56016	5.23183
3114.63159	5.16510
3112.70303	5.10064
3110.77446	5.03681
3108.84590	4.96254
3106.91733	4.88182
3104.98877	4.80799
3103.06021	4.74235
3101.13164	4.67496
3099.20308	4.60369
3097.27451	4.53779
3095.34595	4.47538
3093.41738	4.40828
3091.48882	4.33838
3089.56025	4.26780
3087.63169	4.19793
3085.70312	4.13212
3083.77456	4.06839
3081.84600	4.00347
3079.91743	3.93942
3077.98887	3.87918
3076.06030	3.82048
3074.13174	3.76064
3072.20317	3.70043
3070.27461	3.64137
3068.34604	3.58458
3066.41748	3.52929
3064.48892	3.47402
3062.56035	3.41878
3060.63179	3.36335
3058.70322	3.30640
3056.77466	3.24950
3054.84609	3.19597
3052.91753	3.14506
3050.98896	3.09327
3049.06040	3.04022
3047.13184	2.98807
3045.20327	2.93704
3043.27471	2.88696
3041.34614	2.83828
3039.41758	2.79063
3037.48901	2.74330
3035.56045	2.69593
3033.63188	2.64890
3031.70332	2.60247
3029.77476	2.55700
3027.84619	2.51298
3025.91763	2.46981
3023.98906	2.42679
3022.06050	2.38455
3020.13193	2.34349
3018.20337	2.30278
3016.27480	2.26198
3014.34624	2.22140
3012.41768	2.18159
3010.48911	2.14299
3008.56055	2.10560
3006.63198	2.06858
3004.70342	2.03131
3002.77485	1.99462
3000.84629	1.95975
2998.91772	1.92627
2996.98916	1.89269
2995.06060	1.85896
2993.13203	1.82598
2991.20347	1.79417
2989.27490	1.76308
2987.34634	1.73249
2985.41777	1.70268
2983.48921	1.67309
2981.56064	1.64350
2979.63208	1.61443
2977.70352	1.58595
2975.77495	1.55811
2973.84639	1.53102
2971.91782	1.50443
2969.98926	1.47802
2968.06069	1.45165
2966.13213	1.42530
2964.20356	1.39897
2962.27500	1.37292
2960.34644	1.34722
2958.41787	1.32178
2956.48931	1.29670
2954.56074	1.27201
2952.63218	1.24777
2950.70361	1.22430
2948.77505	1.20141
2946.84648	1.17855
2944.91792	1.15550
2942.98936	1.13248
2941.06079	1.11017
2939.13223	1.08843
2937.20366	1.06641
2935.27510	1.04426
2933.34653	1.02233
2931.41797	1.00066
2929.48940	0.97971
2927.56084	0.95946
2925.63228	0.93964
2923.70371	0.92031
2921.77515	0.90141
2919.84658	0.88354
2917.91802	0.86712
2915.98945	0.85197
2914.06089	0.83829
2912.13232	0.82559
2910.20376	0.81282
2908.27520	0.79969
2906.34663	0.78630
2904.41807	0.77308
2902.48950	0.76052
2900.56094	0.74836
2898.63237	0.73620
2896.70381	0.72420
2894.77524	0.71240
2892.84668	0.70071
2890.91812	0.68928
2888.98955	0.67818
2887.06099	0.66745
2885.13242	0.65694
2883.20386	0.64633
2881.27529	0.63572
2879.34673	0.62550
2877.41816	0.61558
2875.48960	0.60544
2873.56104	0.59483
2871.63247	0.58399
2869.70391	0.57316
2867.77534	0.56225
2865.84678	0.55116
2863.91821	0.53982
2861.98965	0.52821
2860.06108	0.51663
2858.13252	0.50536
2856.20396	0.49453
2854.27539	0.48437
2852.34683	0.47485
2850.41826	0.46597
2848.48970	0.45806
2846.56113	0.45174
2844.63257	0.44711
2842.70400	0.44335
2840.77544	0.43949
2838.84687	0.43505
2836.91831	0.43029
2834.98975	0.42544
2833.06118	0.42033
2831.13262	0.41497
2829.20405	0.40961
2827.27549	0.40431
2825.34692	0.39893
2823.41836	0.39332
2821.48979	0.38755
2819.56123	0.38182
2817.63267	0.37629
2815.70410	0.37086
2813.77554	0.36544
2811.84697	0.36013
2809.91841	0.35488
2807.98984	0.34960
2806.06128	0.34447
2804.13271	0.33960
2802.20415	0.33473
2800.27559	0.32969
2798.34702	0.32465
2796.41846	0.31988
2794.48989	0.31547
2792.56133	0.31117
2790.63276	0.30688
2788.70420	0.30272
2786.77563	0.29854
2784.84707	0.29422
2782.91851	0.29001
2780.98994	0.28603
2779.06138	0.28211
2777.13281	0.27827
2775.20425	0.27455
2773.27568	0.27085
2771.34712	0.26716
2769.41855	0.26361
2767.48999	0.26023
2765.56143	0.25692
2763.63286	0.25359
2761.70430	0.25028
2759.77573	0.24704
2757.84717	0.24390
2755.91860	0.24092
2753.99004	0.23793
2752.06147	0.23492
2750.13291	0.23205
2748.20435	0.22929
2746.27578	0.22654
2744.34722	0.22393
2742.41865	0.22144
2740.49009	0.21890
2738.56152	0.21632
2736.63296	0.21381
2734.70439	0.21137
2732.77583	0.20903
2730.84727	0.20677
2728.91870	0.20448
2726.99014	0.20213
2725.06157	0.19980
2723.13301	0.19767
2721.20444	0.19578
2719.27588	0.19391
2717.34731	0.19189
2715.41875	0.18993
2713.49019	0.18824
2711.56162	0.18665
2709.63306	0.18501
2707.70449	0.18335
2705.77593	0.18170
2703.84736	0.18009
2701.91880	0.17861
2699.99023	0.17718
2698.06167	0.17571
2696.13311	0.17432
2694.20454	0.17309
2692.27598	0.17192
2690.34741	0.17074
2688.41885	0.16959
2686.49028	0.16846
2684.56172	0.16723
2682.63315	0.16596
2680.70459	0.16478
2678.77603	0.16388
2676.84746	0.16312
2674.91890	0.16207
2672.99033	0.16082
2671.06177	0.15967
2669.13320	0.15854
2667.20464	0.15745
2665.27607	0.15661
2663.34751	0.15598
2661.41895	0.15532
2659.49038	0.15461
2657.56182	0.15399
2655.63325	0.15345
2653.70469	0.15278
2651.77612	0.15203
2649.84756	0.15139
2647.91899	0.15085
2645.99043	0.15039
2644.06187	0.15003
2642.13330	0.14969
2640.20474	0.14929
2638.27617	0.14890
2636.34761	0.14847
2634.41904	0.14799
2632.49048	0.14753
2630.56191	0.14708
2628.63335	0.14664
2626.70479	0.14632
2624.77622	0.14614
2622.84766	0.14590
2620.91909	0.14564
2618.99053	0.14556
2617.06196	0.14547
2615.13340	0.14534
2613.20483	0.14528
2611.27627	0.14517
2609.34771	0.14501
2607.41914	0.14499
2605.49058	0.14499
2603.56201	0.14493
2601.63345	0.14500
2599.70488	0.14517
2597.77632	0.14530
2595.84775	0.14544
2593.91919	0.14558
2591.99062	0.14574
2590.06206	0.14596
2588.13350	0.14620
2586.20493	0.14645
2584.27637	0.14671
2582.34780	0.14693
2580.41924	0.14716
2578.49067	0.14738
2576.56211	0.14759
2574.63354	0.14791
2572.70498	0.14839
2570.77642	0.14882
2568.84785	0.14919
2566.91929	0.14970
2564.99072	0.15027
2563.06216	0.15069
2561.13359	0.15098
2559.20503	0.15137
2557.27646	0.15197
2555.34790	0.15274
2553.41934	0.15344
2551.49077	0.15398
2549.56221	0.15451
2547.63364	0.15508
2545.70508	0.15567
2543.77651	0.15632
2541.84795	0.15703
2539.91938	0.15772
2537.99082	0.15842
2536.06226	0.15912
2534.13369	0.15983
2532.20513	0.16055
2530.27656	0.16127
2528.34800	0.16202
2526.41943	0.16280
2524.49087	0.16358
2522.56230	0.16435
2520.63374	0.16508
2518.70518	0.16581
2516.77661	0.16662
2514.84805	0.16744
2512.91948	0.16835
2510.99092	0.16936
2509.06235	0.17024
2507.13379	0.17098
2505.20522	0.17176
2503.27666	0.17266
2501.34810	0.17361
2499.41953	0.17452
2497.49097	0.17542
2495.56240	0.17633
2493.63384	0.17722
2491.70527	0.17817
2489.77671	0.17914
2487.84814	0.18003
2485.91958	0.18091
2483.99102	0.18184
2482.06245	0.18278
2480.13389	0.18376
2478.20532	0.18476
2476.27676	0.18563
2474.34819	0.18640
2472.41963	0.18734
2470.49106	0.18843
2468.56250	0.18948
2466.63394	0.19042
2464.70537	0.19133
2462.77681	0.19221
2460.84824	0.19318
2458.91968	0.19429
2456.99111	0.19537
2455.06255	0.19632
2453.13398	0.19728
2451.20542	0.19839
2449.27686	0.19947
2447.34829	0.20043
2445.41973	0.20147
2443.49116	0.20267
2441.56260	0.20379
2439.63403	0.20474
2437.70547	0.20577
2435.77690	0.20690
2433.84834	0.20799
2431.91978	0.20900
2429.99121	0.21000
2428.06265	0.21106
2426.13408	0.21216
2424.20552	0.21333
2422.27695	0.21447
2420.34839	0.21554
2418.41982	0.21666
2416.49126	0.21784
2414.56270	0.21910
2412.63413	0.22042
2410.70557	0.22166
2408.77700	0.22278
2406.84844	0.22383
2404.91987	0.22500
2402.99131	0.22638
2401.06274	0.22781
2399.13418	0.22911
2397.20562	0.23028
2395.27705	0.23141
2393.34849	0.23265
2391.41992	0.23410
2389.49136	0.23571
2387.56279	0.23749
2385.63423	0.23972
2383.70566	0.24277
2381.77710	0.24675
2379.84854	0.25135
2377.91997	0.25626
2375.99141	0.26164
2374.06284	0.26800
2372.13428	0.27534
2370.20571	0.28299
2368.27715	0.29032
2366.34858	0.29730
2364.42002	0.30383
2362.49146	0.30924
2360.56289	0.31303
2358.63433	0.31480
2356.70576	0.31365
2354.77720	0.30959
2352.84863	0.30441
2350.92007	0.29931
2348.99150	0.29599
2347.06294	0.29653
2345.13437	0.30186
2343.20581	0.30922
2341.27725	0.31363
2339.34868	0.31504
2337.42012	0.31534
2335.49155	0.31540
2333.56299	0.31570
2331.63442	0.31671
2329.70586	0.31814
2327.77729	0.31910
2325.84873	0.31893
2323.92017	0.31805
2321.99160	0.31738
2320.06304	0.31703
2318.13447	0.31637
2316.20591	0.31537
2314.27734	0.31494
2312.34878	0.31539
2310.42021	0.31606
2308.49165	0.31641
2306.56309	0.31647
2304.63452	0.31648
2302.70596	0.31671
2300.77739	0.31741
2298.84883	0.31852
2296.92026	0.31977
2294.99170	0.32104
2293.06313	0.32224
2291.13457	0.32329
2289.20601	0.32438
2287.27744	0.32570
2285.34888	0.32719
2283.42031	0.32883
2281.49175	0.33071
2279.56318	0.33285
2277.63462	0.33515
2275.70605	0.33743
2273.77749	0.33952
2271.84893	0.34147
2269.92036	0.34348
2267.99180	0.34569
2266.06323	0.34792
2264.13467	0.35004
2262.20610	0.35211
2260.27754	0.35417
2258.34897	0.35619
2256.42041	0.35823
2254.49185	0.36036
2252.56328	0.36248
2250.63472	0.36467
2248.70615	0.36692
2246.77759	0.36903
2244.84902	0.37104
2242.92046	0.37309
2240.99189	0.37531
2239.06333	0.37764
2237.13477	0.37997
2235.20620	0.38233
2233.27764	0.38469
2231.34907	0.38695
2229.42051	0.38914
2227.49194	0.39129
2225.56338	0.39340
2223.63481	0.39559
2221.70625	0.39787
2219.77769	0.40012
2217.84912	0.40234
2215.92056	0.40460
2213.99199	0.40680
2212.06343	0.40901
2210.13486	0.41129
2208.20630	0.41355
2206.27773	0.41566
2204.34917	0.41769
2202.42061	0.41980
2200.49204	0.42194
2198.56348	0.42408
2196.63491	0.42618
2194.70635	0.42813
2192.77778	0.42990
2190.84922	0.43159
2188.92065	0.43340
2186.99209	0.43544
2185.06353	0.43749
2183.13496	0.43929
2181.20640	0.44085
2179.27783	0.44247
2177.34927	0.44418
2175.42070	0.44579
2173.49214	0.44727
2171.56357	0.44868
2169.63501	0.45001
2167.70645	0.45132
2165.77788	0.45261
2163.84932	0.45383
2161.92075	0.45501
2159.99219	0.45616
2158.06362	0.45721
2156.13506	0.45819
2154.20649	0.45911
2152.27793	0.45993
2150.34937	0.46071
2148.42080	0.46152
2146.49224	0.46224
2144.56367	0.46271
2142.63511	0.46305
2140.70654	0.46343
2138.77798	0.46373
2136.84941	0.46380
2134.92085	0.46375
2132.99229	0.46373
2131.06372	0.46377
2129.13516	0.46365
2127.20659	0.46329
2125.27803	0.46296
2123.34946	0.46264
2121.42090	0.46208
2119.49233	0.46141
2117.56377	0.46085
2115.63521	0.46029
2113.70664	0.45954
2111.77808	0.45859
2109.84951	0.45756
2107.92095	0.45657
2105.99238	0.45555
2104.06382	0.45438
2102.13525	0.45305
2100.20669	0.45170
2098.27812	0.45036
2096.34956	0.44892
2094.42100	0.44732
2092.49243	0.44559
2090.56387	0.44387
2088.63530	0.44215
2086.70674	0.44034
2084.77817	0.43843
2082.84961	0.43645
2080.92104	0.43443
2078.99248	0.43244
2077.06392	0.43044
2075.13535	0.42831
2073.20679	0.42610
2071.27822	0.42385
2069.34966	0.42152
2067.42109	0.41913
2065.49253	0.41680
2063.56396	0.41443
2061.63540	0.41193
2059.70684	0.40939
2057.77827	0.40680
2055.84971	0.40411
2053.92114	0.40150
2051.99258	0.39902
2050.06401	0.39650
2048.13545	0.39387
2046.20688	0.39117
2044.27832	0.38842
2042.34976	0.38565
2040.42119	0.38290
2038.49263	0.38013
2036.56406	0.37732
2034.63550	0.37449
2032.70693	0.37164
2030.77837	0.36881
2028.84980	0.36602
2026.92124	0.36328
2024.99268	0.36057
2023.06411	0.35783
2021.13555	0.35502
2019.20698	0.35225
2017.27842	0.34961
2015.34985	0.34682
2013.42129	0.34381
2011.49272	0.34086
2009.56416	0.33812
2007.63560	0.33547
2005.70703	0.33281
2003.77847	0.33013
2001.84990	0.32743
1999.92134	0.32471
1997.99277	0.32203
1996.06421	0.31945
1994.13564	0.31696
1992.20708	0.31454
1990.27852	0.31209
1988.34995	0.30955
1986.42139	0.30696
1984.49282	0.30440
1982.56426	0.30192
1980.63569	0.29953
1978.70713	0.29722
1976.77856	0.29499
1974.85000	0.29280
1972.92144	0.29057
1970.99287	0.28838
1969.06431	0.28632
1967.13574	0.28432
1965.20718	0.28225
1963.27861	0.28010
1961.35005	0.27808
1959.42148	0.27620
1957.49292	0.27442
1955.56436	0.27261
1953.63579	0.27077
1951.70723	0.26904
1949.77866	0.26751
1947.85010	0.26598
1945.92153	0.26440
1943.99297	0.26291
1942.06440	0.26149
1940.13584	0.25997
1938.20728	0.25843
1936.27871	0.25703
1934.35015	0.25572
1932.42158	0.25445
1930.49302	0.25322
1928.56445	0.25203
1926.63589	0.25093
1924.70732	0.25004
1922.77876	0.24922
1920.85020	0.24814
1918.92163	0.24709
1916.99307	0.24621
1915.06450	0.24528
1913.13594	0.24433
1911.20737	0.24356
1909.27881	0.24292
1907.35024	0.24224
1905.42168	0.24148
1903.49312	0.24078
1901.56455	0.24016
1899.63599	0.23965
1897.70742	0.23931
1895.77886	0.23907
1893.85029	0.23877
1891.92173	0.23839
1889.99316	0.23812
1888.06460	0.23785
1886.13604	0.23751
1884.20747	0.23726
1882.27891	0.23710
1880.35034	0.23698
1878.42178	0.23689
1876.49321	0.23683
1874.56465	0.23681
1872.63608	0.23699
1870.70752	0.23747
1868.77896	0.23824
1866.85039	0.23860
1864.92183	0.23830
1862.99326	0.23811
1861.06470	0.23831
1859.13613	0.23875
1857.20757	0.23914
1855.27900	0.23956
1853.35044	0.24004
1851.42187	0.24056
1849.49331	0.24113
1847.56475	0.24189
1845.63618	0.24298
1843.70762	0.24422
1841.77905	0.24496
1839.85049	0.24528
1837.92192	0.24596
1835.99336	0.24689
1834.06479	0.24786
1832.13623	0.24895
1830.20767	0.25058
1828.27910	0.25231
1826.35054	0.25342
1824.42197	0.25458
1822.49341	0.25574
1820.56484	0.25687
1818.63628	0.25821
1816.70771	0.25980
1814.77915	0.26143
1812.85059	0.26328
1810.92202	0.26543
1808.99346	0.26754
1807.06489	0.26947
1805.13633	0.27139
1803.20776	0.27365
1801.27920	0.27632
1799.35063	0.27927
1797.42207	0.28178
1795.49351	0.28404
1793.56494	0.28689
1791.63638	0.29078
1789.70781	0.29428
1787.77925	0.29672
1785.85068	0.29979
1783.92212	0.30363
1781.99355	0.30771
1780.06499	0.31192
1778.13643	0.31621
1776.20786	0.32035
1774.27930	0.32486
1772.35073	0.33082
1770.42217	0.33711
1768.49360	0.34228
1766.56504	0.34727
1764.63647	0.35251
1762.70791	0.35839
1760.77935	0.36581
1758.85078	0.37279
1756.92222	0.37973
1754.99365	0.38726
1753.06509	0.39420
1751.13652	0.40237
1749.20796	0.41238
1747.27939	0.42227
1745.35083	0.43122
1743.42227	0.44073
1741.49370	0.45124
1739.56514	0.46360
1737.63657	0.47603
1735.70801	0.48716
1733.77944	0.50375
1731.85088	0.52355
1729.92231	0.53949
1727.99375	0.55556
1726.06519	0.57298
1724.13662	0.59212
1722.20806	0.61263
1720.27949	0.63177
1718.35093	0.65430
1716.42236	0.68658
1714.49380	0.71719
1712.56523	0.74237
1710.63667	0.76700
1708.70811	0.79358
1706.77954	0.82360
1704.85098	0.85878
1702.92241	0.89034
1700.99385	0.92195
1699.06528	0.96836
1697.13672	1.01115
1695.20815	1.05465
1693.27959	1.09773
1691.35103	1.13324
1689.42246	1.17379
1687.49390	1.21626
1685.56533	1.25756
1683.63677	1.31969
1681.70820	1.38439
1679.77964	1.42730
1677.85107	1.46843
1675.92251	1.51572
1673.99395	1.57313
1672.06538	1.62430
1670.13682	1.67395
1668.20825	1.73721
1666.27969	1.79012
1664.35112	1.83595
1662.42256	1.89232
1660.49399	1.95536
1658.56543	2.00496
1656.63687	2.04464
1654.70830	2.08123
1652.77974	2.13872
1650.85117	2.19453
1648.92261	2.21638
1646.99404	2.24311
1645.06548	2.27137
1643.13691	2.29056
1641.20835	2.30341
1639.27979	2.31579
1637.35122	2.32317
1635.42266	2.32117
1633.49409	2.31175
1631.56553	2.29811
1629.63696	2.28161
1627.70840	2.25447
1625.77983	2.22259
1623.85127	2.18202
1621.92271	2.13277
1619.99414	2.08824
1618.06558	2.04334
1616.13701	1.97968
1614.20845	1.91455
1612.27988	1.86387
1610.35132	1.81156
1608.42275	1.75612
1606.49419	1.70170
1604.56562	1.65118
1602.63706	1.60261
1600.70850	1.55565
1598.77993	1.51222
1596.85137	1.47065
1594.92280	1.42987
1592.99424	1.39043
1591.06567	1.35420
1589.13711	1.32006
1587.20854	1.28794
1585.27998	1.25822
1583.35142	1.23076
1581.42285	1.20588
1579.49429	1.18449
1577.56572	1.16529
1575.63716	1.14279
1573.70859	1.12289
1571.78003	1.10951
1569.85146	1.09604
1567.92290	1.08141
1565.99434	1.07025
1564.06577	1.06172
1562.13721	1.05511
1560.20864	1.05105
1558.28008	1.04787
1556.35151	1.04449
1554.42295	1.04130
1552.49438	1.03802
1550.56582	1.03400
1548.63726	1.02871
1546.70869	1.02225
1544.78013	1.01366
1542.85156	1.00239
1540.92300	0.98692
1538.99443	0.96391
1537.06587	0.94560
1535.13730	0.93288
1533.20874	0.91755
1531.28018	0.90126
1529.35161	0.88872
1527.42305	0.87682
1525.49448	0.86456
1523.56592	0.85421
1521.63735	0.84474
1519.70879	0.83492
1517.78022	0.82613
1515.85166	0.81617
1513.92310	0.80569
1511.99453	0.79669
1510.06597	0.78891
1508.13740	0.78163
1506.20884	0.77041
1504.28027	0.75935
1502.35171	0.75259
1500.42314	0.74707
1498.49458	0.74162
1496.56602	0.73548
1494.63745	0.72917
1492.70889	0.72414
1490.78032	0.71995
1488.85176	0.71530
1486.92319	0.71056
1484.99463	0.70657
1483.06606	0.70349
1481.13750	0.70104
1479.20894	0.69900
1477.28037	0.69759
1475.35181	0.69675
1473.42324	0.69590
1471.49468	0.69392
1469.56611	0.69078
1467.63755	0.68759
1465.70898	0.68480
1463.78042	0.68256
1461.85186	0.68113
1459.92329	0.68058
1457.99473	0.68049
1456.06616	0.67891
1454.13760	0.67548
1452.20903	0.67240
1450.28047	0.66990
1448.35190	0.66764
1446.42334	0.66511
1444.49478	0.66246
1442.56621	0.65989
1440.63765	0.65740
1438.70908	0.65518
1436.78052	0.65269
1434.85195	0.64956
1432.92339	0.64681
1430.99482	0.64491
1429.06626	0.64366
1427.13770	0.64291
1425.20913	0.64254
1423.28057	0.64236
1421.35200	0.64219
1419.42344	0.64216
1417.49487	0.64171
1415.56631	0.64031
1413.63774	0.63901
1411.70918	0.63847
1409.78062	0.63861
1407.85205	0.63916
1405.92349	0.64005
1403.99492	0.64081
1402.06636	0.64069
1400.13779	0.63978
1398.20923	0.63832
1396.28066	0.63644
1394.35210	0.63380
1392.42354	0.63027
1390.49497	0.62676
1388.56641	0.62344
1386.63784	0.61965
1384.70928	0.61544
1382.78071	0.61143
1380.85215	0.60773
1378.92358	0.60452
1376.99502	0.60213
1375.06646	0.60060
1373.13789	0.59940
1371.20933	0.59819
1369.28076	0.59707
1367.35220	0.59584
1365.42363	0.59444
1363.49507	0.59317
1361.56650	0.59198
1359.63794	0.59071
1357.70937	0.58955
1355.78081	0.58849
1353.85225	0.58749
1351.92368	0.58667
1349.99512	0.58600
1348.06655	0.58527
1346.13799	0.58446
1344.20942	0.58373
1342.28086	0.58314
1340.35229	0.58258
1338.42373	0.58188
1336.49517	0.58108
1334.56660	0.58042
1332.63804	0.58001
1330.70947	0.57985
1328.78091	0.57990
1326.85234	0.58003
1324.92378	0.58011
1322.99521	0.58025
1321.06665	0.58053
1319.13809	0.58072
1317.20952	0.58044
1315.28096	0.57992
1313.35239	0.57949
1311.42383	0.57895
1309.49526	0.57820
1307.56670	0.57753
1305.63813	0.57704
1303.70957	0.57647
1301.78101	0.57573
1299.85244	0.57489
1297.92388	0.57399
1295.99531	0.57293
1294.06675	0.57163
1292.13818	0.57029
1290.20962	0.56917
1288.28105	0.56820
1286.35249	0.56718
1284.42393	0.56612
1282.49536	0.56515
1280.56680	0.56421
1278.63823	0.56317
1276.70967	0.56203
1274.78110	0.56092
1272.85254	0.56003
1270.92397	0.55946
1268.99541	0.55899
1267.06685	0.55833
1265.13828	0.55755
1263.20972	0.55693
1261.28115	0.55655
1259.35259	0.55618
1257.42402	0.55564
1255.49546	0.55521
1253.56689	0.55519
1251.63833	0.55552
1249.70977	0.55591
1247.78120	0.55605
1245.85264	0.55579
1243.92407	0.55523
1241.99551	0.55454
1240.06694	0.55372
1238.13838	0.55262
1236.20981	0.55118
1234.28125	0.54952
1232.35269	0.54792
1230.42412	0.54642
1228.49556	0.54498
1226.56699	0.54354
1224.63843	0.54212
1222.70986	0.54074
1220.78130	0.53948
1218.85273	0.53835
1216.92417	0.53726
1214.99561	0.53626
1213.06704	0.53540
1211.13848	0.53462
1209.20991	0.53397
1207.28135	0.53342
1205.35278	0.53275
1203.42422	0.53191
1201.49565	0.53108
1199.56709	0.53040
1197.63853	0.52981
1195.70996	0.52928
1193.78140	0.52883
1191.85283	0.52840
1189.92427	0.52799
1187.99570	0.52770
1186.06714	0.52764
1184.13857	0.52789
1182.21001	0.52825
1180.28145	0.52868
1178.35288	0.52950
1176.42432	0.53063
1174.49575	0.53164
1172.56719	0.53231
1170.63862	0.53262
1168.71006	0.53272
1166.78149	0.53269
1164.85293	0.53258
1162.92437	0.53248
1160.99580	0.53239
1159.06724	0.53208
1157.13867	0.53131
1155.21011	0.53002
1153.28154	0.52841
1151.35298	0.52672
1149.42441	0.52486
1147.49585	0.52254
1145.56729	0.51987
1143.63872	0.51710
1141.71016	0.51430
1139.78159	0.51172
1137.85303	0.50968
1135.92446	0.50801
1133.99590	0.50655
1132.06733	0.50534
1130.13877	0.50414
1128.21021	0.50283
1126.28164	0.50159
1124.35308	0.50049
1122.42451	0.49957
1120.49595	0.49901
1118.56738	0.49866
1116.63882	0.49836
1114.71025	0.49819
1112.78169	0.49841
1110.85312	0.49900
1108.92456	0.49975
1106.99600	0.50068
1105.06743	0.50196
1103.13887	0.50357
1101.21030	0.50554
1099.28174	0.50788
1097.35317	0.51057
1095.42461	0.51364
1093.49604	0.51708
1091.56748	0.52099
1089.63892	0.52569
1087.71035	0.53131
1085.78179	0.53751
1083.85322	0.54400
1081.92466	0.55036
1079.99609	0.55570
1078.06753	0.55899
1076.13896	0.55970
1074.21040	0.55776
1072.28184	0.55333
1070.35327	0.54723
1068.42471	0.54083
1066.49614	0.53468
1064.56758	0.52852
1062.63901	0.52256
1060.71045	0.51734
1058.78188	0.51290
1056.85332	0.50907
1054.92476	0.50562
1052.99619	0.50238
1051.06763	0.49926
1049.13906	0.49634
1047.21050	0.49391
1045.28193	0.49195
1043.35337	0.49012
1041.42480	0.48845
1039.49624	0.48734
1037.56768	0.48691
1035.63911	0.48674
1033.71055	0.48657
1031.78198	0.48647
1029.85342	0.48641
1027.92485	0.48635
1025.99629	0.48644
1024.06772	0.48677
1022.13916	0.48732
1020.21060	0.48789
1018.28203	0.48833
1016.35347	0.48894
1014.42490	0.48996
1012.49634	0.49128
1010.56777	0.49279
1008.63921	0.49445
1006.71064	0.49627
1004.78208	0.49839
1002.85352	0.50083
1000.92495	0.50353
998.99639	0.50666
997.06782	0.51032
995.13926	0.51430
993.21069	0.51819
991.28213	0.52157
989.35356	0.52416
987.42500	0.52585
985.49644	0.52700
983.56787	0.52802
981.63931	0.52907
979.71074	0.53040
977.78218	0.53217
975.85361	0.53448
973.92505	0.53742
971.99648	0.54071
970.06792	0.54415
968.13936	0.54783
966.21079	0.55181
964.28223	0.55619
962.35366	0.56103
960.42510	0.56619
958.49653	0.57167
956.56797	0.57762
954.63940	0.58395
952.71084	0.59022
950.78228	0.59642
948.85371	0.60293
946.92515	0.60951
944.99658	0.61573
943.06802	0.62174
941.13945	0.62778
939.21089	0.63390
937.28232	0.64027
935.35376	0.64669
933.42520	0.65280
931.49663	0.65864
929.56807	0.66400
927.63950	0.66901
925.71094	0.67471
923.78237	0.68109
921.85381	0.68754
919.92524	0.69448
917.99668	0.70206
916.06812	0.70962
914.13955	0.71721
912.21099	0.72535
910.28242	0.73363
908.35386	0.74160
906.42529	0.74995
904.49673	0.75916
902.56816	0.76883
900.63960	0.77860
898.71104	0.78852
896.78247	0.79863
894.85391	0.80883
892.92534	0.81888
890.99678	0.82903
889.06821	0.84016
887.13965	0.85158
885.21108	0.86240
883.28252	0.87380
881.35396	0.88529
879.42539	0.89566
877.49683	0.90661
875.56826	0.91924
873.63970	0.93160
871.71113	0.94188
869.78257	0.95229
867.85400	0.96507
865.92544	0.97834
863.99687	0.99072
862.06831	1.00209
860.13975	1.01218
858.21118	1.02235
856.28262	1.03402
854.35405	1.04716
852.42549	1.05960
850.49692	1.07004
848.56836	1.08107
846.63979	1.09332
844.71123	1.10535
842.78267	1.11795
840.85410	1.12963
838.92554	1.13878
836.99697	1.14990
835.06841	1.16493
833.13984	1.17781
831.21128	1.18604
829.28271	1.19706
827.35415	1.21343
825.42559	1.22726
823.49702	1.23657
821.56846	1.24456
819.63989	1.25554
817.71133	1.26970
815.78276	1.27567
813.85420	1.27404
811.92563	1.28106
809.99707	1.30043
808.06851	1.31743
806.13994	1.32195
804.21138	1.32898
802.28281	1.35319
800.35425	1.38163
798.42568	1.40474
796.49712	1.43623
794.56855	1.46328
792.63999	1.45456
790.71143	1.44884
788.78286	1.47228
786.85430	1.47169
784.92573	1.45946
782.99717	1.49020
781.06860	1.56421
779.14004	1.57191
777.21147	1.46395
775.28291	1.41799
773.35435	1.44774
771.42578	1.45733
769.49722	1.45456
767.56865	1.48137
765.64009	1.53583
763.71152	1.57273
761.78296	1.52910
759.85439	1.48954
757.92583	1.49606
755.99727	1.54819
754.06870	1.66628
752.14014	1.62414
750.21157	1.40093
748.28301	1.25539
746.35444	1.20197
744.42588	1.16582
742.49731	1.14700
740.56875	1.18858
738.64019	1.27726
736.71162	1.48250
734.78306	1.46611
732.85449	1.05122
730.92593	0.80994
728.99736	0.71104
727.06880	0.65196
725.14023	0.55873
723.21167	0.55073
721.28311	0.55495
719.35454	0.50077
717.42598	0.51781
715.49741	0.47948
713.56885	0.15616
711.64028	-0.09705
709.71172	0.24514
707.78315	0.29278
705.85459	0.22245
703.92603	0.28179
701.99746	0.65626
700.06890	4.20041
698.14033	0.28666
696.21177	0.05193
694.28320	0.06094
692.35464	0.12115
690.42607	0.23029
688.49751	0.41824
686.56895	0.39518
684.64038	0.27090
682.71182	0.29768
680.78325	0.35127
678.85469	0.28044
676.92612	0.25942
674.99756	0.43281
673.06899	0.75486
671.14043	0.63628
669.21187	0.60930
667.28330	0.65564
665.35474	0.43783
663.42617	0.24307
661.49761	0.17819
659.56904	0.17277
657.64048	0.15810
655.71191	0.13728
653.78335	0.18375
651.85479	0.34471
649.92622	0.48976
647.99766	0.44708
646.06909	0.51684
644.14053	1.96993
642.21196	3.85327
640.28340	0.71539
638.35483	0.38298
636.42627	0.27746
634.49771	0.29260
632.56914	0.33629
630.64058	0.30720
628.71201	0.24972
626.78345	0.27090
624.85488	0.34171
622.92632	0.34811
620.99775	0.31651
619.06919	0.28046
617.14062	0.21236
615.21206	0.17725
613.28350	0.19154
611.35493	0.20959
609.42637	0.21325
607.49780	0.24180
605.56924	0.32842
603.64067	0.40294
601.71211	0.30242
599.78354	0.22838
597.85498	0.23102
595.92642	0.25958
593.99785	0.34125
592.06929	0.48174
590.14072	0.55834
588.21216	0.50833
586.28359	0.34427
584.35503	0.22483
582.42646	0.26914
580.49790	0.43387
578.56934	0.43663
576.64077	0.33670
574.71221	0.33776
572.78364	0.36230
570.85508	0.33337
568.92651	0.32596
566.99795	0.37435
565.06938	0.39698
563.14082	0.34615
561.21226	0.29211
559.28369	0.25414
557.35513	0.24323
555.42656	0.27195
553.49800	0.27422
551.56943	0.22719
549.64087	0.22269
547.71230	0.29381
545.78374	0.40029
543.85518	0.51986
541.92661	0.55042
539.99805	0.45843
538.06948	0.52376
536.14092	3.21685
534.21235	3.20527
532.28379	0.63585
530.35522	0.26782
528.42666	0.16117
526.49810	0.18081
524.56953	0.22775
522.64097	0.25581
520.71240	0.27036
518.78384	0.30317
516.85527	0.42967
514.92671	0.51697
512.99814	0.42965
511.06958	0.36531
509.14102	0.29826
507.21245	0.23742
505.28389	0.23121
503.35532	0.21161
501.42676	0.15908
499.49819	0.12873
