3997.91411	0.05979
3995.98555	0.06043
3994.05698	0.06121
3992.12842	0.06173
3990.19985	0.06187
3988.27129	0.06166
3986.34272	0.06154
3984.41416	0.06185
3982.48560	0.06236
3980.55703	0.06294
3978.62847	0.06348
3976.69990	0.06368
3974.77134	0.06362
3972.84277	0.06373
3970.91421	0.06420
3968.98564	0.06459
3967.05708	0.06442
3965.12852	0.06398
3963.19995	0.06392
3961.27139	0.06436
3959.34282	0.06500
3957.41426	0.06565
3955.48569	0.06609
3953.55713	0.06620
3951.62856	0.06619
3949.70000	0.06613
3947.77144	0.06610
3945.84287	0.06603
3943.91431	0.06583
3941.98574	0.06582
3940.05718	0.06568
3938.12861	0.06504
3936.20005	0.06445
3934.27148	0.06445
3932.34292	0.06523
3930.41436	0.06621
3928.48579	0.06615
3926.55723	0.06549
3924.62866	0.06564
3922.70010	0.06606
3920.77153	0.06590
3918.84297	0.06562
3916.91440	0.06554
3914.98584	0.06546
3913.05728	0.06496
3911.12871	0.06433
3909.20015	0.06412
3907.27158	0.06441
3905.34302	0.06541
3903.41445	0.06724
3901.48589	0.06889
3899.55732	0.06907
3897.62876	0.06764
3895.70020	0.06589
3893.77163	0.06534
3891.84307	0.06623
3889.91450	0.06692
3887.98594	0.06643
3886.05737	0.06647
3884.12881	0.06723
3882.20024	0.06767
3880.27168	0.06824
3878.34312	0.06814
3876.41455	0.06729
3874.48599	0.06780
3872.55742	0.06940
3870.62886	0.07048
3868.70029	0.07089
3866.77173	0.07036
3864.84316	0.06994
3862.91460	0.07051
3860.98604	0.07071
3859.05747	0.07036
3857.12891	0.07062
3855.20034	0.07195
3853.27178	0.07470
3851.34321	0.07645
3849.41465	0.07465
3847.48608	0.07264
3845.55752	0.07219
3843.62896	0.07313
3841.70039	0.07483
3839.77183	0.07700
3837.84326	0.07922
3835.91470	0.07992
3833.98613	0.07908
3832.05757	0.07825
3830.12900	0.07783
3828.20044	0.07799
3826.27187	0.07896
3824.34331	0.08017
3822.41475	0.08173
3820.48618	0.08437
3818.55762	0.08590
3816.62905	0.08602
3814.70049	0.08628
3812.77192	0.08591
3810.84336	0.08539
3808.91479	0.08594
3806.98623	0.08809
3805.05767	0.09067
3803.12910	0.09210
3801.20054	0.09378
3799.27197	0.09554
3797.34341	0.09591
3795.41484	0.09587
3793.48628	0.09575
3791.55771	0.09598
3789.62915	0.09695
3787.70059	0.09837
3785.77202	0.10014
3783.84346	0.10192
3781.91489	0.10345
3779.98633	0.10543
3778.05776	0.10760
3776.12920	0.10863
3774.20063	0.10948
3772.27207	0.11143
3770.34351	0.11444
3768.41494	0.11722
3766.48638	0.11876
3764.55781	0.12019
3762.62925	0.12190
3760.70068	0.12409
3758.77212	0.12731
3756.84355	0.13023
3754.91499	0.13230
3752.98643	0.13542
3751.05786	0.14066
3749.12930	0.14553
3747.20073	0.14702
3745.27217	0.14846
3743.34360	0.15265
3741.41504	0.15645
3739.48647	0.15861
3737.55791	0.16188
3735.62935	0.16779
3733.70078	0.17468
3731.77222	0.17857
3729.84365	0.18059
3727.91509	0.18373
3725.98652	0.18919
3724.05796	0.19619
3722.12939	0.20318
3720.20083	0.21012
3718.27227	0.21724
3716.34370	0.22460
3714.41514	0.23248
3712.48657	0.24251
3710.55801	0.25632
3708.62944	0.27024
3706.70088	0.28101
3704.77231	0.29142
3702.84375	0.30437
3700.91519	0.32149
3698.98662	0.34015
3697.05806	0.35814
3695.12949	0.37723
3693.20093	0.39721
3691.27236	0.41938
3689.34380	0.44848
3687.41523	0.48308
3685.48667	0.51277
3683.55811	0.53881
3681.62954	0.56736
3679.70098	0.59952
3677.77241	0.63371
3675.84385	0.67466
3673.91528	0.72799
3671.98672	0.77146
3670.05815	0.81065
3668.12959	0.86345
3666.20103	0.91203
3664.27246	0.95315
3662.34390	0.99689
3660.41533	1.04405
3658.48677	1.09106
3656.55820	1.14137
3654.62964	1.19714
3652.70107	1.24463
3650.77251	1.28683
3648.84395	1.34336
3646.91538	1.40993
3644.98682	1.45949
3643.05825	1.49849
3641.12969	1.53833
3639.20112	1.58219
3637.27256	1.62694
3635.34399	1.67117
3633.41543	1.71569
3631.48687	1.75755
3629.55830	1.80052
3627.62974	1.85542
3625.70117	1.90447
3623.77261	1.93719
3621.84404	1.97012
3619.91548	2.00942
3617.98691	2.05574
3616.05835	2.09956
3614.12979	2.13667
3612.20122	2.17504
3610.27266	2.21459
3608.34409	2.25635
3606.41553	2.29912
3604.48696	2.33718
3602.55840	2.37266
3600.62983	2.41183
3598.70127	2.45345
3596.77271	2.49397
3594.84414	2.53473
3592.91558	2.57561
3590.98701	2.61385
3589.05845	2.65074
3587.12988	2.69543
3585.20132	2.74324
3583.27275	2.78362
3581.34419	2.82217
3579.41562	2.86355
3577.48706	2.90605
3575.55850	2.94798
3573.62993	2.99165
3571.70137	3.03556
3569.77280	3.07764
3567.84424	3.12199
3565.91567	3.17541
3563.98711	3.22681
3562.05854	3.26893
3560.12998	3.31001
3558.20142	3.35252
3556.27285	3.39704
3554.34429	3.44298
3552.41572	3.49063
3550.48716	3.53831
3548.55859	3.58327
3546.63003	3.62766
3544.70146	3.67770
3542.77290	3.73161
3540.84434	3.78128
3538.91577	3.82634
3536.98721	3.87108
3535.05864	3.91866
3533.13008	3.96627
3531.20151	4.01377
3529.27295	4.06313
3527.34438	4.11542
3525.41582	4.16741
3523.48726	4.21477
3521.55869	4.26060
3519.63013	4.30741
3517.70156	4.35674
3515.77300	4.40522
3513.84443	4.44822
3511.91587	4.49121
3509.98730	4.54318
3508.05874	4.60088
3506.13018	4.65417
3504.20161	4.70211
3502.27305	4.74924
3500.34448	4.79746
3498.41592	4.84383
3496.48735	4.88872
3494.55879	4.93759
3492.63022	4.98979
3490.70166	5.03631
3488.77310	5.08000
3486.84453	5.13254
3484.91597	5.18723
3482.98740	5.23569
3481.05884	5.28484
3479.13027	5.33569
3477.20171	5.38414
3475.27314	5.43072
3473.34458	5.47654
3471.41602	5.52152
3469.48745	5.56925
3467.55889	5.62326
3465.63032	5.67953
3463.70176	5.73333
3461.77319	5.78077
3459.84463	5.82319
3457.91606	5.86169
3455.98750	5.90382
3454.05894	5.96032
3452.13037	6.02112
3450.20181	6.07364
3448.27324	6.12658
3446.34468	6.19399
3444.41611	6.26430
3442.48755	6.32332
3440.55898	6.36852
3438.63042	6.40414
3436.70186	6.44241
3434.77329	6.48931
3432.84473	6.53988
3430.91616	6.58774
3428.98760	6.63960
3427.05903	6.68654
3425.13047	6.72063
3423.20190	6.75982
3421.27334	6.80933
3419.34478	6.86469
3417.41621	6.94224
3415.48765	7.01374
3413.55908	7.05575
3411.63052	7.10884
3409.70195	7.15308
3407.77339	7.17677
3405.84482	7.22064
3403.91626	7.28699
3401.98770	7.32552
3400.05913	7.32766
3398.13057	7.35802
3396.20200	7.43723
3394.27344	7.50265
3392.34487	7.49421
3390.41631	7.47505
3388.48774	7.52039
3386.55918	7.61294
3384.63062	7.65674
3382.70205	7.64006
3380.77349	7.66231
3378.84492	7.74958
3376.91636	7.85551
3374.98779	7.90495
3373.05923	7.91363
3371.13066	7.92659
3369.20210	7.91710
3367.27354	7.90003
3365.34497	7.95735
3363.41641	8.07228
3361.48784	8.10836
3359.55928	8.05050
3357.63071	8.02709
3355.70215	8.07789
3353.77358	8.11501
3351.84502	8.13338
3349.91646	8.12064
3347.98789	8.05114
3346.05933	8.00803
3344.13076	8.03182
3342.20220	8.07708
3340.27363	8.08653
3338.34507	8.08651
3336.41650	8.13589
3334.48794	8.23114
3332.55937	8.28690
3330.63081	8.27141
3328.70225	8.20838
3326.77368	8.15507
3324.84512	8.18181
3322.91655	8.24722
3320.98799	8.27069
3319.05942	8.24513
3317.13086	8.23623
3315.20229	8.24694
3313.27373	8.27585
3311.34517	8.31499
3309.41660	8.32122
3307.48804	8.32174
3305.55947	8.26380
3303.63091	8.13633
3301.70234	8.10571
3299.77378	8.21831
3297.84521	8.31828
3295.91665	8.35014
3293.98809	8.37969
3292.05952	8.41775
3290.13096	8.44580
3288.20239	8.46018
3286.27383	8.45377
3284.34526	8.39208
3282.41670	8.35793
3280.48813	8.40686
3278.55957	8.44559
3276.63101	8.36771
3274.70244	8.21676
3272.77388	8.13506
3270.84531	8.18345
3268.91675	8.29993
3266.98818	8.39713
3265.05962	8.41607
3263.13105	8.35588
3261.20249	8.36201
3259.27393	8.41627
3257.34536	8.39062
3255.41680	8.34578
3253.48823	8.33281
3251.55967	8.37735
3249.63110	8.43139
3247.70254	8.41754
3245.77397	8.37189
3243.84541	8.30687
3241.91685	8.25700
3239.98828	8.27036
3238.05972	8.30320
3236.13115	8.27996
3234.20259	8.20607
3232.27402	8.17693
3230.34546	8.25142
3228.41689	8.37127
3226.48833	8.41101
3224.55977	8.35583
3222.63120	8.27002
3220.70264	8.20206
3218.77407	8.22422
3216.84551	8.28189
3214.91694	8.23414
3212.98838	8.11795
3211.05981	8.06098
3209.13125	8.09975
3207.20269	8.15819
3205.27412	8.07396
3203.34556	7.87178
3201.41699	7.78227
3199.48843	7.81241
3197.55986	7.80925
3195.63130	7.79002
3193.70273	7.79634
3191.77417	7.75112
3189.84561	7.65405
3187.91704	7.58693
3185.98848	7.56473
3184.05991	7.55736
3182.13135	7.55242
3180.20278	7.51685
3178.27422	7.41866
3176.34565	7.33016
3174.41709	7.30208
3172.48853	7.26589
3170.55996	7.19314
3168.63140	7.12992
3166.70283	7.07334
3164.77427	6.99931
3162.84570	6.92776
3160.91714	6.88091
3158.98857	6.83416
3157.06001	6.75442
3155.13145	6.65778
3153.20288	6.56657
3151.27432	6.49385
3149.34575	6.44707
3147.41719	6.39802
3145.48862	6.32549
3143.56006	6.24524
3141.63149	6.16620
3139.70293	6.08536
3137.77437	6.00379
3135.84580	5.92527
3133.91724	5.85910
3131.98867	5.79554
3130.06011	5.72001
3128.13154	5.64455
3126.20298	5.57864
3124.27441	5.51794
3122.34585	5.45265
3120.41729	5.37760
3118.48872	5.29625
3116.56016	5.21430
3114.63159	5.13844
3112.70303	5.07252
3110.77446	5.01052
3108.84590	4.94120
3106.91733	4.86724
3104.98877	4.80267
3103.06021	4.74517
3101.13164	4.67914
3099.20308	4.60689
3097.27451	4.53730
3095.34595	4.46913
3093.41738	4.40129
3091.48882	4.33349
3089.56025	4.26764
3087.63169	4.20381
3085.70312	4.13928
3083.77456	4.07640
3081.84600	4.01660
3079.91743	3.95607
3077.98887	3.89346
3076.06030	3.83098
3074.13174	3.76986
3072.20317	3.71051
3070.27461	3.65276
3068.34604	3.59567
3066.41748	3.53846
3064.48892	3.48136
3062.56035	3.42523
3060.63179	3.37065
3058.70322	3.31730
3056.77466	3.26349
3054.84609	3.20781
3052.91753	3.15219
3050.98896	3.09921
3049.06040	3.04785
3047.13184	2.99741
3045.20327	2.94881
3043.27471	2.90087
3041.34614	2.85174
3039.41758	2.80175
3037.48901	2.75321
3035.56045	2.70739
3033.63188	2.66216
3031.70332	2.61591
3029.77476	2.57042
3027.84619	2.52663
3025.91763	2.48295
3023.98906	2.43867
3022.06050	2.39554
3020.13193	2.35420
3018.20337	2.31359
3016.27480	2.27391
3014.34624	2.23455
3012.41768	2.19465
3010.48911	2.15558
3008.56055	2.11803
3006.63198	2.08104
3004.70342	2.04429
3002.77485	2.00843
3000.84629	1.97343
2998.91772	1.93850
2996.98916	1.90394
2995.06060	1.87078
2993.13203	1.83873
2991.20347	1.80715
2989.27490	1.77610
2987.34634	1.74552
2985.41777	1.71549
2983.48921	1.68595
2981.56064	1.65679
2979.63208	1.62844
2977.70352	1.60112
2975.77495	1.57430
2973.84639	1.54715
2971.91782	1.51958
2969.98926	1.49253
2968.06069	1.46636
2966.13213	1.44064
2964.20356	1.41554
2962.27500	1.39106
2960.34644	1.36637
2958.41787	1.34105
2956.48931	1.31570
2954.56074	1.29119
2952.63218	1.26761
2950.70361	1.24423
2948.77505	1.22066
2946.84648	1.19757
2944.91792	1.17552
2942.98936	1.15446
2941.06079	1.13404
2939.13223	1.11337
2937.20366	1.09220
2935.27510	1.07122
2933.34653	1.05051
2931.41797	1.03018
2929.48940	1.01051
2927.56084	0.99131
2925.63228	0.97245
2923.70371	0.95400
2921.77515	0.93587
2919.84658	0.91820
2917.91802	0.90141
2915.98945	0.88532
2914.06089	0.86920
2912.13232	0.85321
2910.20376	0.83817
2908.27520	0.82370
2906.34663	0.80916
2904.41807	0.79475
2902.48950	0.78097
2900.56094	0.76776
2898.63237	0.75465
2896.70381	0.74190
2894.77524	0.72965
2892.84668	0.71744
2890.91812	0.70532
2888.98955	0.69355
2887.06099	0.68223
2885.13242	0.67148
2883.20386	0.66125
2881.27529	0.65127
2879.34673	0.64106
2877.41816	0.63072
2875.48960	0.62061
2873.56104	0.61029
2871.63247	0.59952
2869.70391	0.58871
2867.77534	0.57786
2865.84678	0.56673
2863.91821	0.55548
2861.98965	0.54450
2860.06108	0.53406
2858.13252	0.52412
2856.20396	0.51454
2854.27539	0.50531
2852.34683	0.49627
2850.41826	0.48737
2848.48970	0.47900
2846.56113	0.47155
2844.63257	0.46480
2842.70400	0.45824
2840.77544	0.45182
2838.84687	0.44592
2836.91831	0.44055
2834.98975	0.43512
2833.06118	0.42936
2831.13262	0.42357
2829.20405	0.41778
2827.27549	0.41184
2825.34692	0.40588
2823.41836	0.40006
2821.48979	0.39443
2819.56123	0.38886
2817.63267	0.38319
2815.70410	0.37733
2813.77554	0.37149
2811.84697	0.36603
2809.91841	0.36093
2807.98984	0.35594
2806.06128	0.35079
2804.13271	0.34545
2802.20415	0.34021
2800.27559	0.33538
2798.34702	0.33085
2796.41846	0.32630
2794.48989	0.32165
2792.56133	0.31706
2790.63276	0.31253
2788.70420	0.30799
2786.77563	0.30354
2784.84707	0.29922
2782.91851	0.29498
2780.98994	0.29090
2779.06138	0.28704
2777.13281	0.28315
2775.20425	0.27918
2773.27568	0.27541
2771.34712	0.27185
2769.41855	0.26825
2767.48999	0.26471
2765.56143	0.26136
2763.63286	0.25800
2761.70430	0.25464
2759.77573	0.25146
2757.84717	0.24834
2755.91860	0.24513
2753.99004	0.24196
2752.06147	0.23902
2750.13291	0.23626
2748.20435	0.23359
2746.27578	0.23090
2744.34722	0.22816
2742.41865	0.22536
2740.49009	0.22254
2738.56152	0.21989
2736.63296	0.21751
2734.70439	0.21520
2732.77583	0.21285
2730.84727	0.21055
2728.91870	0.20828
2726.99014	0.20603
2725.06157	0.20385
2723.13301	0.20179
2721.20444	0.19976
2719.27588	0.19765
2717.34731	0.19562
2715.41875	0.19370
2713.49019	0.19176
2711.56162	0.18997
2709.63306	0.18833
2707.70449	0.18668
2705.77593	0.18504
2703.84736	0.18347
2701.91880	0.18195
2699.99023	0.18052
2698.06167	0.17913
2696.13311	0.17770
2694.20454	0.17627
2692.27598	0.17495
2690.34741	0.17361
2688.41885	0.17224
2686.49028	0.17101
2684.56172	0.16987
2682.63315	0.16871
2680.70459	0.16756
2678.77603	0.16641
2676.84746	0.16533
2674.91890	0.16441
2672.99033	0.16343
2671.06177	0.16231
2669.13320	0.16128
2667.20464	0.16043
2665.27607	0.15968
2663.34751	0.15895
2661.41895	0.15810
2659.49038	0.15721
2657.56182	0.15644
2655.63325	0.15572
2653.70469	0.15497
2651.77612	0.15426
2649.84756	0.15361
2647.91899	0.15302
2645.99043	0.15257
2644.06187	0.15217
2642.13330	0.15167
2640.20474	0.15113
2638.27617	0.15062
2636.34761	0.15018
2634.41904	0.14971
2632.49048	0.14921
2630.56191	0.14882
2628.63335	0.14857
2626.70479	0.14836
2624.77622	0.14808
2622.84766	0.14770
2620.91909	0.14737
2618.99053	0.14723
2617.06196	0.14716
2615.13340	0.14708
2613.20483	0.14692
2611.27627	0.14671
2609.34771	0.14655
2607.41914	0.14636
2605.49058	0.14619
2603.56201	0.14619
2601.63345	0.14627
2599.70488	0.14641
2597.77632	0.14655
2595.84775	0.14667
2593.91919	0.14683
2591.99062	0.14696
2590.06206	0.14693
2588.13350	0.14693
2586.20493	0.14726
2584.27637	0.14773
2582.34780	0.14803
2580.41924	0.14825
2578.49067	0.14849
2576.56211	0.14874
2574.63354	0.14904
2572.70498	0.14939
2570.77642	0.14977
2568.84785	0.15012
2566.91929	0.15033
2564.99072	0.15060
2563.06216	0.15111
2561.13359	0.15174
2559.20503	0.15230
2557.27646	0.15277
2555.34790	0.15330
2553.41934	0.15398
2551.49077	0.15463
2549.56221	0.15520
2547.63364	0.15575
2545.70508	0.15631
2543.77651	0.15687
2541.84795	0.15738
2539.91938	0.15787
2537.99082	0.15851
2536.06226	0.15934
2534.13369	0.16021
2532.20513	0.16095
2530.27656	0.16158
2528.34800	0.16221
2526.41943	0.16283
2524.49087	0.16357
2522.56230	0.16448
2520.63374	0.16540
2518.70518	0.16624
2516.77661	0.16704
2514.84805	0.16784
2512.91948	0.16865
2510.99092	0.16942
2509.06235	0.17015
2507.13379	0.17093
2505.20522	0.17181
2503.27666	0.17274
2501.34810	0.17363
2499.41953	0.17437
2497.49097	0.17509
2495.56240	0.17600
2493.63384	0.17693
2491.70527	0.17777
2489.77671	0.17876
2487.84814	0.17987
2485.91958	0.18076
2483.99102	0.18142
2482.06245	0.18218
2480.13389	0.18320
2478.20532	0.18429
2476.27676	0.18520
2474.34819	0.18596
2472.41963	0.18682
2470.49106	0.18783
2468.56250	0.18891
2466.63394	0.18996
2464.70537	0.19094
2462.77681	0.19191
2460.84824	0.19288
2458.91968	0.19378
2456.99111	0.19465
2455.06255	0.19554
2453.13398	0.19653
2451.20542	0.19765
2449.27686	0.19870
2447.34829	0.19953
2445.41973	0.20039
2443.49116	0.20151
2441.56260	0.20271
2439.63403	0.20379
2437.70547	0.20476
2435.77690	0.20576
2433.84834	0.20687
2431.91978	0.20797
2429.99121	0.20899
2428.06265	0.21003
2426.13408	0.21112
2424.20552	0.21226
2422.27695	0.21345
2420.34839	0.21461
2418.41982	0.21566
2416.49126	0.21672
2414.56270	0.21794
2412.63413	0.21927
2410.70557	0.22058
2408.77700	0.22177
2406.84844	0.22286
2404.91987	0.22399
2402.99131	0.22526
2401.06274	0.22658
2399.13418	0.22784
2397.20562	0.22913
2395.27705	0.23045
2393.34849	0.23174
2391.41992	0.23309
2389.49136	0.23446
2387.56279	0.23571
2385.63423	0.23703
2383.70566	0.23862
2381.77710	0.24041
2379.84854	0.24238
2377.91997	0.24452
2375.99141	0.24676
2374.06284	0.24914
2372.13428	0.25171
2370.20571	0.25443
2368.27715	0.25731
2366.34858	0.26031
2364.42002	0.26289
2362.49146	0.26466
2360.56289	0.26646
2358.63433	0.26865
2356.70576	0.27013
2354.77720	0.27063
2352.84863	0.27111
2350.92007	0.27128
2348.99150	0.27125
2347.06294	0.27176
2345.13437	0.27348
2343.20581	0.27646
2341.27725	0.27959
2339.34868	0.28195
2337.42012	0.28333
2335.49155	0.28421
2333.56299	0.28542
2331.63442	0.28724
2329.70586	0.28894
2327.77729	0.29026
2325.84873	0.29148
2323.92017	0.29245
2321.99160	0.29332
2320.06304	0.29452
2318.13447	0.29594
2316.20591	0.29712
2314.27734	0.29836
2312.34878	0.30000
2310.42021	0.30167
2308.49165	0.30306
2306.56309	0.30437
2304.63452	0.30584
2302.70596	0.30750
2300.77739	0.30928
2298.84883	0.31102
2296.92026	0.31269
2294.99170	0.31438
2293.06313	0.31619
2291.13457	0.31812
2289.20601	0.32006
2287.27744	0.32197
2285.34888	0.32381
2283.42031	0.32560
2281.49175	0.32748
2279.56318	0.32953
2277.63462	0.33169
2275.70605	0.33378
2273.77749	0.33577
2271.84893	0.33783
2269.92036	0.34002
2267.99180	0.34220
2266.06323	0.34439
2264.13467	0.34664
2262.20610	0.34882
2260.27754	0.35092
2258.34897	0.35304
2256.42041	0.35517
2254.49185	0.35723
2252.56328	0.35931
2250.63472	0.36153
2248.70615	0.36379
2246.77759	0.36602
2244.84902	0.36823
2242.92046	0.37040
2240.99189	0.37264
2239.06333	0.37500
2237.13477	0.37735
2235.20620	0.37960
2233.27764	0.38187
2231.34907	0.38414
2229.42051	0.38633
2227.49194	0.38848
2225.56338	0.39062
2223.63481	0.39287
2221.70625	0.39525
2219.77769	0.39763
2217.84912	0.39990
2215.92056	0.40206
2213.99199	0.40416
2212.06343	0.40635
2210.13486	0.40858
2208.20630	0.41079
2206.27773	0.41296
2204.34917	0.41503
2202.42061	0.41702
2200.49204	0.41904
2198.56348	0.42120
2196.63491	0.42345
2194.70635	0.42558
2192.77778	0.42753
2190.84922	0.42931
2188.92065	0.43103
2186.99209	0.43283
2185.06353	0.43470
2183.13496	0.43654
2181.20640	0.43828
2179.27783	0.43993
2177.34927	0.44163
2175.42070	0.44332
2173.49214	0.44487
2171.56357	0.44630
2169.63501	0.44765
2167.70645	0.44900
2165.77788	0.45034
2163.84932	0.45162
2161.92075	0.45283
2159.99219	0.45390
2158.06362	0.45483
2156.13506	0.45574
2154.20649	0.45662
2152.27793	0.45747
2150.34937	0.45831
2148.42080	0.45907
2146.49224	0.45969
2144.56367	0.46023
2142.63511	0.46068
2140.70654	0.46109
2138.77798	0.46146
2136.84941	0.46168
2134.92085	0.46170
2132.99229	0.46150
2131.06372	0.46124
2129.13516	0.46106
2127.20659	0.46090
2125.27803	0.46065
2123.34946	0.46022
2121.42090	0.45976
2119.49233	0.45934
2117.56377	0.45885
2115.63521	0.45814
2113.70664	0.45727
2111.77808	0.45639
2109.84951	0.45547
2107.92095	0.45440
2105.99238	0.45323
2104.06382	0.45202
2102.13525	0.45076
2100.20669	0.44946
2098.27812	0.44808
2096.34956	0.44660
2094.42100	0.44505
2092.49243	0.44344
2090.56387	0.44181
2088.63530	0.44008
2086.70674	0.43821
2084.77817	0.43634
2082.84961	0.43448
2080.92104	0.43244
2078.99248	0.43026
2077.06392	0.42811
2075.13535	0.42597
2073.20679	0.42383
2071.27822	0.42163
2069.34966	0.41935
2067.42109	0.41702
2065.49253	0.41469
2063.56396	0.41232
2061.63540	0.40994
2059.70684	0.40751
2057.77827	0.40495
2055.84971	0.40231
2053.92114	0.39963
2051.99258	0.39696
2050.06401	0.39430
2048.13545	0.39166
2046.20688	0.38899
2044.27832	0.38630
2042.34976	0.38363
2040.42119	0.38089
2038.49263	0.37806
2036.56406	0.37527
2034.63550	0.37252
2032.70693	0.36980
2030.77837	0.36712
2028.84980	0.36440
2026.92124	0.36150
2024.99268	0.35854
2023.06411	0.35575
2021.13555	0.35305
2019.20698	0.35035
2017.27842	0.34760
2015.34985	0.34470
2013.42129	0.34179
2011.49272	0.33898
2009.56416	0.33628
2007.63560	0.33357
2005.70703	0.33081
2003.77847	0.32808
2001.84990	0.32544
1999.92134	0.32283
1997.99277	0.32015
1996.06421	0.31742
1994.13564	0.31487
1992.20708	0.31247
1990.27852	0.30994
1988.34995	0.30733
1986.42139	0.30487
1984.49282	0.30253
1982.56426	0.30011
1980.63569	0.29761
1978.70713	0.29521
1976.77856	0.29293
1974.85000	0.29070
1972.92144	0.28843
1970.99287	0.28618
1969.06431	0.28413
1967.13574	0.28229
1965.20718	0.28031
1963.27861	0.27820
1961.35005	0.27621
1959.42148	0.27427
1957.49292	0.27232
1955.56436	0.27043
1953.63579	0.26867
1951.70723	0.26696
1949.77866	0.26524
1947.85010	0.26353
1945.92153	0.26204
1943.99297	0.26082
1942.06440	0.25948
1940.13584	0.25776
1938.20728	0.25606
1936.27871	0.25464
1934.35015	0.25330
1932.42158	0.25195
1930.49302	0.25069
1928.56445	0.24964
1926.63589	0.24870
1924.70732	0.24786
1922.77876	0.24701
1920.85020	0.24596
1918.92163	0.24494
1916.99307	0.24397
1915.06450	0.24286
1913.13594	0.24185
1911.20737	0.24122
1909.27881	0.24065
1907.35024	0.23991
1905.42168	0.23914
1903.49312	0.23848
1901.56455	0.23785
1899.63599	0.23726
1897.70742	0.23684
1895.77886	0.23658
1893.85029	0.23629
1891.92173	0.23595
1889.99316	0.23582
1888.06460	0.23565
1886.13604	0.23521
1884.20747	0.23479
1882.27891	0.23455
1880.35034	0.23444
1878.42178	0.23437
1876.49321	0.23438
1874.56465	0.23437
1872.63608	0.23444
1870.70752	0.23486
1868.77896	0.23570
1866.85039	0.23606
1864.92183	0.23570
1862.99326	0.23549
1861.06470	0.23567
1859.13613	0.23608
1857.20757	0.23646
1855.27900	0.23682
1853.35044	0.23722
1851.42187	0.23781
1849.49331	0.23857
1847.56475	0.23938
1845.63618	0.24034
1843.70762	0.24142
1841.77905	0.24205
1839.85049	0.24232
1837.92192	0.24303
1835.99336	0.24398
1834.06479	0.24491
1832.13623	0.24596
1830.20767	0.24756
1828.27910	0.24921
1826.35054	0.25032
1824.42197	0.25150
1822.49341	0.25263
1820.56484	0.25374
1818.63628	0.25511
1816.70771	0.25679
1814.77915	0.25850
1812.85059	0.26032
1810.92202	0.26244
1808.99346	0.26455
1807.06489	0.26646
1805.13633	0.26836
1803.20776	0.27071
1801.27920	0.27346
1799.35063	0.27636
1797.42207	0.27884
1795.49351	0.28125
1793.56494	0.28428
1791.63638	0.28812
1789.70781	0.29143
1787.77925	0.29383
1785.85068	0.29691
1783.92212	0.30064
1781.99355	0.30468
1780.06499	0.30904
1778.13643	0.31338
1776.20786	0.31744
1774.27930	0.32198
1772.35073	0.32814
1770.42217	0.33447
1768.49360	0.33955
1766.56504	0.34450
1764.63647	0.34976
1762.70791	0.35576
1760.77935	0.36333
1758.85078	0.37047
1756.92222	0.37768
1754.99365	0.38551
1753.06509	0.39269
1751.13652	0.40132
1749.20796	0.41197
1747.27939	0.42215
1745.35083	0.43111
1743.42227	0.44068
1741.49370	0.45129
1739.56514	0.46379
1737.63657	0.47636
1735.70801	0.48757
1733.77944	0.50417
1731.85088	0.52358
1729.92231	0.53902
1727.99375	0.55480
1726.06519	0.57193
1724.13662	0.59070
1722.20806	0.61105
1720.27949	0.63028
1718.35093	0.65300
1716.42236	0.68536
1714.49380	0.71559
1712.56523	0.74025
1710.63667	0.76449
1708.70811	0.79081
1706.77954	0.82082
1704.85098	0.85612
1702.92241	0.88751
1700.99385	0.91901
1699.06528	0.96575
1697.13672	1.00854
1695.20815	1.05171
1693.27959	1.09448
1691.35103	1.12981
1689.42246	1.17045
1687.49390	1.21316
1685.56533	1.25475
1683.63677	1.31717
1681.70820	1.38116
1679.77964	1.42288
1677.85107	1.46297
1675.92251	1.50938
1673.99395	1.56637
1672.06538	1.61714
1670.13682	1.66601
1668.20825	1.72902
1666.27969	1.78268
1664.35112	1.82894
1662.42256	1.88456
1660.49399	1.94631
1658.56543	1.99568
1656.63687	2.03641
1654.70830	2.07384
1652.77974	2.12922
1650.85117	2.18322
1648.92261	2.20668
1646.99404	2.23524
1645.06548	2.26375
1643.13691	2.28153
1641.20835	2.29188
1639.27979	2.30145
1637.35122	2.30750
1635.42266	2.30751
1633.49409	2.30109
1631.56553	2.28874
1629.63696	2.27267
1627.70840	2.24459
1625.77983	2.21126
1623.85127	2.17078
1621.92271	2.12208
1619.99414	2.07725
1618.06558	2.03212
1616.13701	1.96946
1614.20845	1.90671
1612.27988	1.85868
1610.35132	1.80809
1608.42275	1.75268
1606.49419	1.69785
1604.56562	1.64733
1602.63706	1.59865
1600.70850	1.55136
1598.77993	1.50773
1596.85137	1.46635
1594.92280	1.42609
1592.99424	1.38739
1591.06567	1.35209
1589.13711	1.31911
1587.20854	1.28834
1585.27998	1.25977
1583.35142	1.23296
1581.42285	1.20858
1579.49429	1.18787
1577.56572	1.16913
1575.63716	1.14669
1573.70859	1.12676
1571.78003	1.11336
1569.85146	1.09997
1567.92290	1.08544
1565.99434	1.07387
1564.06577	1.06468
1562.13721	1.05796
1560.20864	1.05427
1558.28008	1.05014
1556.35151	1.04477
1554.42295	1.04078
1552.49438	1.03742
1550.56582	1.03332
1548.63726	1.02725
1546.70869	1.01973
1544.78013	1.01077
1542.85156	0.99997
1540.92300	0.98485
1538.99443	0.96106
1537.06587	0.94247
1535.13730	0.93009
1533.20874	0.91472
1531.28018	0.89792
1529.35161	0.88518
1527.42305	0.87348
1525.49448	0.86152
1523.56592	0.85107
1521.63735	0.84106
1519.70879	0.83084
1517.78022	0.82205
1515.85166	0.81216
1513.92310	0.80173
1511.99453	0.79286
1510.06597	0.78533
1508.13740	0.77827
1506.20884	0.76682
1504.28027	0.75553
1502.35171	0.74887
1500.42314	0.74347
1498.49458	0.73813
1496.56602	0.73200
1494.63745	0.72546
1492.70889	0.72031
1490.78032	0.71632
1488.85176	0.71191
1486.92319	0.70705
1484.99463	0.70281
1483.06606	0.69960
1481.13750	0.69703
1479.20894	0.69482
1477.28037	0.69336
1475.35181	0.69273
1473.42324	0.69236
1471.49468	0.69071
1469.56611	0.68782
1467.63755	0.68505
1465.70898	0.68278
1463.78042	0.68088
1461.85186	0.67956
1459.92329	0.67908
1457.99473	0.67910
1456.06616	0.67782
1454.13760	0.67495
1452.20903	0.67216
1450.28047	0.66952
1448.35190	0.66694
1446.42334	0.66412
1444.49478	0.66132
1442.56621	0.65888
1440.63765	0.65660
1438.70908	0.65441
1436.78052	0.65204
1434.85195	0.64921
1432.92339	0.64664
1430.99482	0.64479
1429.06626	0.64358
1427.13770	0.64285
1425.20913	0.64277
1423.28057	0.64322
1421.35200	0.64368
1419.42344	0.64398
1417.49487	0.64364
1415.56631	0.64236
1413.63774	0.64117
1411.70918	0.64044
1409.78062	0.64020
1407.85205	0.64042
1405.92349	0.64099
1403.99492	0.64136
1402.06636	0.64095
1400.13779	0.64001
1398.20923	0.63861
1396.28066	0.63654
1394.35210	0.63356
1392.42354	0.62992
1390.49497	0.62642
1388.56641	0.62307
1386.63784	0.61939
1384.70928	0.61546
1382.78071	0.61168
1380.85215	0.60807
1378.92358	0.60489
1376.99502	0.60255
1375.06646	0.60103
1373.13789	0.59985
1371.20933	0.59878
1369.28076	0.59778
1367.35220	0.59658
1365.42363	0.59525
1363.49507	0.59421
1361.56650	0.59322
1359.63794	0.59175
1357.70937	0.59021
1355.78081	0.58901
1353.85225	0.58807
1351.92368	0.58718
1349.99512	0.58630
1348.06655	0.58547
1346.13799	0.58468
1344.20942	0.58389
1342.28086	0.58324
1340.35229	0.58277
1338.42373	0.58201
1336.49517	0.58098
1334.56660	0.58026
1332.63804	0.57992
1330.70947	0.57971
1328.78091	0.57963
1326.85234	0.57981
1324.92378	0.58019
1322.99521	0.58056
1321.06665	0.58088
1319.13809	0.58120
1317.20952	0.58130
1315.28096	0.58101
1313.35239	0.58049
1311.42383	0.57980
1309.49526	0.57899
1307.56670	0.57817
1305.63813	0.57740
1303.70957	0.57665
1301.78101	0.57581
1299.85244	0.57476
1297.92388	0.57363
1295.99531	0.57252
1294.06675	0.57130
1292.13818	0.57002
1290.20962	0.56887
1288.28105	0.56785
1286.35249	0.56688
1284.42393	0.56593
1282.49536	0.56492
1280.56680	0.56382
1278.63823	0.56266
1276.70967	0.56165
1274.78110	0.56093
1272.85254	0.56031
1270.92397	0.55956
1268.99541	0.55880
1267.06685	0.55819
1265.13828	0.55765
1263.20972	0.55713
1261.28115	0.55652
1259.35259	0.55578
1257.42402	0.55516
1255.49546	0.55484
1253.56689	0.55476
1251.63833	0.55470
1249.70977	0.55465
1247.78120	0.55471
1245.85264	0.55473
1243.92407	0.55443
1241.99551	0.55373
1240.06694	0.55269
1238.13838	0.55140
1236.20981	0.54980
1234.28125	0.54798
1232.35269	0.54627
1230.42412	0.54475
1228.49556	0.54328
1226.56699	0.54182
1224.63843	0.54041
1222.70986	0.53909
1220.78130	0.53790
1218.85273	0.53674
1216.92417	0.53553
1214.99561	0.53439
1213.06704	0.53351
1211.13848	0.53289
1209.20991	0.53237
1207.28135	0.53187
1205.35278	0.53126
1203.42422	0.53035
1201.49565	0.52933
1199.56709	0.52853
1197.63853	0.52796
1195.70996	0.52744
1193.78140	0.52691
1191.85283	0.52647
1189.92427	0.52618
1187.99570	0.52591
1186.06714	0.52572
1184.13857	0.52580
1182.21001	0.52613
1180.28145	0.52672
1178.35288	0.52760
1176.42432	0.52863
1174.49575	0.52953
1172.56719	0.53011
1170.63862	0.53042
1168.71006	0.53052
1166.78149	0.53045
1164.85293	0.53020
1162.92437	0.52980
1160.99580	0.52933
1159.06724	0.52877
1157.13867	0.52805
1155.21011	0.52732
1153.28154	0.52635
1151.35298	0.52475
1149.42441	0.52273
1147.49585	0.52064
1145.56729	0.51851
1143.63872	0.51647
1141.71016	0.51465
1139.78159	0.51294
1137.85303	0.51124
1135.92446	0.50965
1133.99590	0.50826
1132.06733	0.50721
1130.13877	0.50641
1128.21021	0.50546
1126.28164	0.50421
1124.35308	0.50300
1122.42451	0.50189
1120.49595	0.50076
1118.56738	0.49986
1116.63882	0.49945
1114.71025	0.49933
1112.78169	0.49930
1110.85312	0.49941
1108.92456	0.49964
1106.99600	0.50008
1105.06743	0.50104
1103.13887	0.50268
1101.21030	0.50469
1099.28174	0.50678
1097.35317	0.50910
1095.42461	0.51201
1093.49604	0.51553
1091.56748	0.51949
1089.63892	0.52417
1087.71035	0.52990
1085.78179	0.53644
1083.85322	0.54317
1081.92466	0.54950
1079.99609	0.55476
1078.06753	0.55816
1076.13896	0.55897
1074.21040	0.55682
1072.28184	0.55208
1070.35327	0.54598
1068.42471	0.53964
1066.49614	0.53317
1064.56758	0.52672
1062.63901	0.52083
1060.71045	0.51558
1058.78188	0.51077
1056.85332	0.50649
1054.92476	0.50295
1052.99619	0.50015
1051.06763	0.49781
1049.13906	0.49565
1047.21050	0.49378
1045.28193	0.49241
1043.35337	0.49137
1041.42480	0.49033
1039.49624	0.48924
1037.56768	0.48846
1035.63911	0.48800
1033.71055	0.48749
1031.78198	0.48688
1029.85342	0.48637
1027.92485	0.48614
1025.99629	0.48610
1024.06772	0.48606
1022.13916	0.48612
1020.21060	0.48655
1018.28203	0.48729
1016.35347	0.48814
1014.42490	0.48905
1012.49634	0.48997
1010.56777	0.49101
1008.63921	0.49230
1006.71064	0.49380
1004.78208	0.49554
1002.85352	0.49769
1000.92495	0.50031
998.99639	0.50349
997.06782	0.50722
995.13926	0.51125
993.21069	0.51534
991.28213	0.51911
989.35356	0.52204
987.42500	0.52382
985.49644	0.52468
983.56787	0.52512
981.63931	0.52570
979.71074	0.52695
977.78218	0.52883
975.85361	0.53107
973.92505	0.53374
971.99648	0.53688
970.06792	0.54030
968.13936	0.54404
966.21079	0.54839
964.28223	0.55326
962.35366	0.55819
960.42510	0.56309
958.49653	0.56826
956.56797	0.57385
954.63940	0.57986
952.71084	0.58620
950.78228	0.59276
948.85371	0.59963
946.92515	0.60656
944.99658	0.61307
943.06802	0.61918
941.13945	0.62518
939.21089	0.63117
937.28232	0.63698
935.35376	0.64254
933.42520	0.64803
931.49663	0.65361
929.56807	0.65954
927.63950	0.66579
925.71094	0.67166
923.78237	0.67736
921.85381	0.68365
919.92524	0.69048
917.99668	0.69794
916.06812	0.70610
914.13955	0.71369
912.21099	0.72026
910.28242	0.72752
908.35386	0.73638
906.42529	0.74565
904.49673	0.75438
902.56816	0.76363
900.63960	0.77391
898.71104	0.78355
896.78247	0.79227
894.85391	0.80156
892.92534	0.81154
890.99678	0.82160
889.06821	0.83209
887.13965	0.84318
885.21108	0.85464
883.28252	0.86698
881.35396	0.87970
879.42539	0.89136
877.49683	0.90281
875.56826	0.91575
873.63970	0.92828
871.71113	0.93883
869.78257	0.94946
867.85400	0.96121
865.92544	0.97287
863.99687	0.98349
862.06831	0.99402
860.13975	1.00567
858.21118	1.01775
856.28262	1.02952
854.35405	1.04131
852.42549	1.05363
850.49692	1.06694
848.56836	1.08011
846.63979	1.09114
844.71123	1.10091
842.78267	1.11208
840.85410	1.12377
838.92554	1.13295
836.99697	1.14108
835.06841	1.15101
833.13984	1.16257
831.21128	1.17350
829.28271	1.18258
827.35415	1.19434
825.42559	1.21278
823.49702	1.23189
821.56846	1.23928
819.63989	1.23885
817.71133	1.24902
815.78276	1.27348
813.85420	1.29664
811.92563	1.30866
809.99707	1.31870
808.06851	1.33095
806.13994	1.34073
804.21138	1.34982
802.28281	1.36328
800.35425	1.36690
798.42568	1.35203
796.49712	1.34796
794.56855	1.37229
792.63999	1.41643
790.71143	1.45859
788.78286	1.47478
786.85430	1.47611
784.92573	1.51355
782.99717	1.58660
781.06860	1.60863
779.14004	1.58194
777.21147	1.56056
775.28291	1.55083
773.35435	1.60704
771.42578	1.68404
769.49722	1.60774
767.56865	1.52048
765.64009	1.43131
763.71152	1.28026
761.78296	1.16783
759.85439	1.14786
757.92583	1.22840
755.99727	1.36853
754.06870	1.45339
752.14014	1.42260
750.21157	1.36159
748.28301	1.34208
746.35444	1.28307
744.42588	1.16432
742.49731	1.13485
740.56875	1.28511
738.64019	1.59963
736.71162	1.47125
734.78306	1.07970
732.85449	0.81800
730.92593	0.67107
728.99736	0.53576
727.06880	0.41059
725.14023	0.39419
723.21167	0.44242
721.28311	0.34643
719.35454	0.22681
717.42598	0.32814
715.49741	0.64358
713.56885	0.51995
711.64028	0.25490
709.71172	0.10032
707.78315	-0.11861
705.85459	-0.23571
703.92603	-0.01132
701.99746	0.18708
700.06890	0.38010
698.14033	0.60321
696.21177	0.83042
694.28320	0.87370
692.35464	0.74487
690.42607	0.57502
688.49751	0.48170
686.56895	0.53166
684.64038	0.49011
682.71182	0.38589
680.78325	0.41289
678.85469	0.56865
676.92612	0.59646
674.99756	0.35777
673.06899	0.25071
671.14043	0.28370
669.21187	0.24265
667.28330	0.12817
665.35474	0.14002
663.42617	0.25612
661.49761	0.32364
659.56904	0.32108
657.64048	0.34044
655.71191	0.34358
653.78335	0.37383
651.85479	0.44253
649.92622	0.39273
647.99766	0.30371
646.06909	0.26355
644.14053	0.25503
642.21196	0.27128
640.28340	0.34229
638.35483	0.38069
636.42627	0.33267
634.49771	0.29672
632.56914	0.33585
630.64058	0.43472
628.71201	0.39980
626.78345	0.29111
624.85488	0.30226
622.92632	0.40669
620.99775	0.50404
619.06919	0.40322
617.14062	0.23879
615.21206	0.18728
613.28350	0.28354
611.35493	0.43444
609.42637	0.47020
607.49780	0.41192
605.56924	0.29231
603.64067	0.21284
601.71211	0.22622
599.78354	0.32517
597.85498	0.45302
595.92642	0.36673
593.99785	0.26094
592.06929	0.23135
590.14072	0.21911
588.21216	0.22491
586.28359	0.24854
584.35503	0.26405
582.42646	0.31145
580.49790	0.34693
578.56934	0.29297
576.64077	0.24684
574.71221	0.25009
572.78364	0.25095
570.85508	0.22857
568.92651	0.26173
566.99795	0.37723
565.06938	0.37060
563.14082	0.29462
561.21226	0.26435
559.28369	0.25038
557.35513	0.26868
555.42656	0.30938
553.49800	0.33223
551.56943	0.34275
549.64087	0.31378
547.71230	0.26057
545.78374	0.23676
543.85518	0.21646
541.92661	0.23809
539.99805	0.35529
538.06948	0.43702
536.14092	0.37658
534.21235	0.34559
532.28379	0.35884
530.35522	0.33943
528.42666	0.24490
526.49810	0.18816
524.56953	0.23197
522.64097	0.30439
520.71240	0.30306
518.78384	0.29893
516.85527	0.30174
514.92671	0.28579
512.99814	0.28067
511.06958	0.27698
509.14102	0.26731
507.21245	0.27108
505.28389	0.27877
503.35532	0.26867
501.42676	0.26015
499.49819	0.25857
