3997.91411	0.05373
3995.98555	0.05479
3994.05698	0.05577
3992.12842	0.05618
3990.19985	0.05611
3988.27129	0.05591
3986.34272	0.05603
3984.41416	0.05638
3982.48560	0.05656
3980.55703	0.05685
3978.62847	0.05730
3976.69990	0.05743
3974.77134	0.05742
3972.84277	0.05786
3970.91421	0.05858
3968.98564	0.05899
3967.05708	0.05880
3965.12852	0.05853
3963.19995	0.05883
3961.27139	0.05940
3959.34282	0.05974
3957.41426	0.05993
3955.48569	0.06003
3953.55713	0.05999
3951.62856	0.06016
3949.70000	0.06078
3947.77144	0.06130
3945.84287	0.06123
3943.91431	0.06097
3941.98574	0.06100
3940.05718	0.06079
3938.12861	0.06000
3936.20005	0.05930
3934.27148	0.05932
3932.34292	0.06024
3930.41436	0.06144
3928.48579	0.06167
3926.55723	0.06124
3924.62866	0.06120
3922.70010	0.06120
3920.77153	0.06086
3918.84297	0.06068
3916.91440	0.06084
3914.98584	0.06090
3913.05728	0.06035
3911.12871	0.05961
3909.20015	0.05923
3907.27158	0.05945
3905.34302	0.06067
3903.41445	0.06274
3901.48589	0.06421
3899.55732	0.06418
3897.62876	0.06305
3895.70020	0.06164
3893.77163	0.06114
3891.84307	0.06217
3889.91450	0.06299
3887.98594	0.06229
3886.05737	0.06225
3884.12881	0.06340
3882.20024	0.06423
3880.27168	0.06487
3878.34312	0.06460
3876.41455	0.06329
3874.48599	0.06311
3872.55742	0.06429
3870.62886	0.06571
3868.70029	0.06661
3866.77173	0.06627
3864.84316	0.06639
3862.91460	0.06732
3860.98604	0.06690
3859.05747	0.06584
3857.12891	0.06595
3855.20034	0.06786
3853.27178	0.07195
3851.34321	0.07410
3849.41465	0.07105
3847.48608	0.06816
3845.55752	0.06763
3843.62896	0.06895
3841.70039	0.07121
3839.77183	0.07394
3837.84326	0.07630
3835.91470	0.07634
3833.98613	0.07491
3832.05757	0.07420
3830.12900	0.07406
3828.20044	0.07418
3826.27187	0.07497
3824.34331	0.07600
3822.41475	0.07777
3820.48618	0.08113
3818.55762	0.08281
3816.62905	0.08250
3814.70049	0.08241
3812.77192	0.08165
3810.84336	0.08082
3808.91479	0.08138
3806.98623	0.08386
3805.05767	0.08667
3803.12910	0.08839
3801.20054	0.09052
3799.27197	0.09193
3797.34341	0.09166
3795.41484	0.09149
3793.48628	0.09126
3791.55771	0.09123
3789.62915	0.09230
3787.70059	0.09414
3785.77202	0.09613
3783.84346	0.09778
3781.91489	0.09904
3779.98633	0.10104
3778.05776	0.10347
3776.12920	0.10441
3774.20063	0.10495
3772.27207	0.10683
3770.34351	0.11022
3768.41494	0.11355
3766.48638	0.11530
3764.55781	0.11664
3762.62925	0.11796
3760.70068	0.11991
3758.77212	0.12335
3756.84355	0.12656
3754.91499	0.12869
3752.98643	0.13207
3751.05786	0.13830
3749.12930	0.14421
3747.20073	0.14581
3745.27217	0.14729
3743.34360	0.15165
3741.41504	0.15525
3739.48647	0.15741
3737.55791	0.16151
3735.62935	0.16914
3733.70078	0.17730
3731.77222	0.18137
3729.84365	0.18391
3727.91509	0.18778
3725.98652	0.19352
3724.05796	0.20030
3722.12939	0.20675
3720.20083	0.21260
3718.27227	0.21792
3716.34370	0.22344
3714.41514	0.23023
3712.48657	0.24054
3710.55801	0.25584
3708.62944	0.27080
3706.70088	0.28170
3704.77231	0.29208
3702.84375	0.30519
3700.91519	0.32248
3698.98662	0.34067
3697.05806	0.35764
3695.12949	0.37606
3693.20093	0.39623
3691.27236	0.41876
3689.34380	0.44721
3687.41523	0.48027
3685.48667	0.50924
3683.55811	0.53495
3681.62954	0.56293
3679.70098	0.59485
3677.77241	0.62921
3675.84385	0.67012
3673.91528	0.72282
3671.98672	0.76549
3670.05815	0.80433
3668.12959	0.85710
3666.20103	0.90523
3664.27246	0.94589
3662.34390	0.98967
3660.41533	1.03689
3658.48677	1.08373
3656.55820	1.13420
3654.62964	1.19044
3652.70107	1.23822
3650.77251	1.28088
3648.84395	1.33850
3646.91538	1.40572
3644.98682	1.45468
3643.05825	1.49317
3641.12969	1.53316
3639.20112	1.57736
3637.27256	1.62224
3635.34399	1.66645
3633.41543	1.71091
3631.48687	1.75319
3629.55830	1.79744
3627.62974	1.85370
3625.70117	1.90330
3623.77261	1.93617
3621.84404	1.96903
3619.91548	2.00834
3617.98691	2.05480
3616.05835	2.09775
3614.12979	2.13361
3612.20122	2.17247
3610.27266	2.21303
3608.34409	2.25433
3606.41553	2.29738
3604.48696	2.33696
3602.55840	2.37306
3600.62983	2.41269
3598.70127	2.45582
3596.77271	2.49668
3594.84414	2.53612
3592.91558	2.57737
3590.98701	2.61734
3589.05845	2.65405
3587.12988	2.69685
3585.20132	2.74405
3583.27275	2.78470
3581.34419	2.82265
3579.41562	2.86364
3577.48706	2.90729
3575.55850	2.95105
3573.62993	2.99433
3571.70137	3.03634
3569.77280	3.07891
3567.84424	3.12554
3565.91567	3.17994
3563.98711	3.23094
3562.05854	3.27238
3560.12998	3.31329
3558.20142	3.35648
3556.27285	3.40063
3554.34429	3.44476
3552.41572	3.49140
3550.48716	3.53985
3548.55859	3.58601
3546.63003	3.62990
3544.70146	3.67691
3542.77290	3.72756
3540.84434	3.77730
3538.91577	3.82466
3536.98721	3.87035
3535.05864	3.91887
3533.13008	3.96993
3531.20151	4.02104
3529.27295	4.07053
3527.34438	4.11804
3525.41582	4.16388
3523.48726	4.20982
3521.55869	4.25918
3519.63013	4.30810
3517.70156	4.35555
3515.77300	4.40416
3513.84443	4.45234
3511.91587	4.49854
3509.98730	4.54754
3508.05874	4.60161
3506.13018	4.65273
3504.20161	4.69875
3502.27305	4.74697
3500.34448	4.79591
3498.41592	4.84094
3496.48735	4.88849
3494.55879	4.93871
3492.63022	4.98489
3490.70166	5.03265
3488.77310	5.08817
3486.84453	5.14134
3484.91597	5.18441
3482.98740	5.22735
3481.05884	5.28180
3479.13027	5.34320
3477.20171	5.39960
3475.27314	5.44873
3473.34458	5.49183
3471.41602	5.53488
3469.48745	5.58514
3467.55889	5.63415
3465.63032	5.67527
3463.70176	5.72231
3461.77319	5.77632
3459.84463	5.82603
3457.91606	5.87443
3455.98750	5.92475
3454.05894	5.97507
3452.13037	6.02882
3450.20181	6.08297
3448.27324	6.13509
3446.34468	6.19147
3444.41611	6.24696
3442.48755	6.30337
3440.55898	6.35807
3438.63042	6.40060
3436.70186	6.43882
3434.77329	6.48541
3432.84473	6.53463
3430.91616	6.57824
3428.98760	6.63061
3427.05903	6.68469
3425.13047	6.72439
3423.20190	6.75754
3421.27334	6.80491
3419.34478	6.87226
3417.41621	6.94321
3415.48765	6.99256
3413.55908	7.01444
3411.63052	7.04285
3409.70195	7.09535
3407.77339	7.17210
3405.84482	7.24012
3403.91626	7.27036
3401.98770	7.29207
3400.05913	7.32828
3398.13057	7.35769
3396.20200	7.37653
3394.27344	7.41418
3392.34487	7.46246
3390.41631	7.51776
3388.48774	7.57074
3386.55918	7.61461
3384.63062	7.63712
3382.70205	7.63815
3380.77349	7.65371
3378.84492	7.68708
3376.91636	7.75332
3374.98779	7.82401
3373.05923	7.84948
3371.13066	7.84902
3369.20210	7.84685
3367.27354	7.85166
3365.34497	7.90649
3363.41641	8.00426
3361.48784	8.05334
3359.55928	8.03554
3357.63071	7.99307
3355.70215	7.97662
3353.77358	8.04360
3351.84502	8.16486
3349.91646	8.22237
3347.98789	8.22194
3346.05933	8.21788
3344.13076	8.19774
3342.20220	8.17518
3340.27363	8.20370
3338.34507	8.29005
3336.41650	8.32642
3334.48794	8.30152
3332.55937	8.25656
3330.63081	8.18913
3328.70225	8.11078
3326.77368	8.07345
3324.84512	8.13305
3322.91655	8.24269
3320.98799	8.32661
3319.05942	8.33928
3317.13086	8.31821
3315.20229	8.30426
3313.27373	8.29417
3311.34517	8.30655
3309.41660	8.31827
3307.48804	8.28231
3305.55947	8.20918
3303.63091	8.13797
3301.70234	8.11287
3299.77378	8.16069
3297.84521	8.21645
3295.91665	8.26761
3293.98809	8.33819
3292.05952	8.36197
3290.13096	8.33603
3288.20239	8.34018
3286.27383	8.37342
3284.34526	8.38584
3282.41670	8.42464
3280.48813	8.47304
3278.55957	8.40688
3276.63101	8.21792
3274.70244	8.08082
3272.77388	8.11020
3270.84531	8.22989
3268.91675	8.32025
3266.98818	8.33213
3265.05962	8.31315
3263.13105	8.32647
3261.20249	8.34987
3259.27393	8.34218
3257.34536	8.32311
3255.41680	8.30484
3253.48823	8.25823
3251.55967	8.20470
3249.63110	8.17088
3247.70254	8.15067
3245.77397	8.18551
3243.84541	8.27301
3241.91685	8.35143
3239.98828	8.42792
3238.05972	8.46417
3236.13115	8.41139
3234.20259	8.32398
3232.27402	8.24957
3230.34546	8.20923
3228.41689	8.20965
3226.48833	8.23670
3224.55977	8.24968
3222.63120	8.20977
3220.70264	8.12936
3218.77407	8.05046
3216.84551	8.00545
3214.91694	8.03443
3212.98838	8.09001
3211.05981	8.06948
3209.13125	8.03774
3207.20269	8.02931
3205.27412	7.94162
3203.34556	7.82966
3201.41699	7.80072
3199.48843	7.79091
3197.55986	7.74876
3195.63130	7.73478
3193.70273	7.73914
3191.77417	7.70007
3189.84561	7.64719
3187.91704	7.60119
3185.98848	7.54918
3184.05991	7.52373
3182.13135	7.51969
3180.20278	7.49602
3178.27422	7.41580
3176.34565	7.29859
3174.41709	7.20474
3172.48853	7.13485
3170.55996	7.07559
3168.63140	7.02941
3166.70283	6.98617
3164.77427	6.92717
3162.84570	6.86521
3160.91714	6.82576
3158.98857	6.78586
3157.06001	6.72231
3155.13145	6.65132
3153.20288	6.58441
3151.27432	6.51541
3149.34575	6.44028
3147.41719	6.36779
3145.48862	6.29425
3143.56006	6.20624
3141.63149	6.11986
3139.70293	6.05613
3137.77437	6.00837
3135.84580	5.95773
3133.91724	5.88545
3131.98867	5.78658
3130.06011	5.68926
3128.13154	5.61864
3126.20298	5.56173
3124.27441	5.49606
3122.34585	5.42427
3120.41729	5.35798
3118.48872	5.29438
3116.56016	5.22928
3114.63159	5.16039
3112.70303	5.08578
3110.77446	5.00807
3108.84590	4.93471
3106.91733	4.87244
3104.98877	4.81211
3103.06021	4.74228
3101.13164	4.66846
3099.20308	4.60062
3097.27451	4.53642
3095.34595	4.46993
3093.41738	4.40358
3091.48882	4.33920
3089.56025	4.27567
3087.63169	4.21369
3085.70312	4.15189
3083.77456	4.08831
3081.84600	4.02432
3079.91743	3.96084
3077.98887	3.89876
3076.06030	3.83876
3074.13174	3.77955
3072.20317	3.72081
3070.27461	3.66312
3068.34604	3.60578
3066.41748	3.54847
3064.48892	3.49272
3062.56035	3.43750
3060.63179	3.38194
3058.70322	3.32736
3056.77466	3.27285
3054.84609	3.21819
3052.91753	3.16591
3050.98896	3.11635
3049.06040	3.06583
3047.13184	3.01350
3045.20327	2.96226
3043.27471	2.91273
3041.34614	2.86412
3039.41758	2.81633
3037.48901	2.76909
3035.56045	2.72214
3033.63188	2.67636
3031.70332	2.63172
3029.77476	2.58678
3027.84619	2.54190
3025.91763	2.49789
3023.98906	2.45433
3022.06050	2.41149
3020.13193	2.36958
3018.20337	2.32832
3016.27480	2.28780
3014.34624	2.24824
3012.41768	2.20935
3010.48911	2.17040
3008.56055	2.13141
3006.63198	2.09351
3004.70342	2.05732
3002.77485	2.02227
3000.84629	1.98732
2998.91772	1.95252
2996.98916	1.91895
2995.06060	1.88692
2993.13203	1.85579
2991.20347	1.82495
2989.27490	1.79430
2987.34634	1.76424
2985.41777	1.73491
2983.48921	1.70595
2981.56064	1.67735
2979.63208	1.64977
2977.70352	1.62319
2975.77495	1.59689
2973.84639	1.57047
2971.91782	1.54405
2969.98926	1.51829
2968.06069	1.49341
2966.13213	1.46890
2964.20356	1.44436
2962.27500	1.41955
2960.34644	1.39454
2958.41787	1.36989
2956.48931	1.34582
2954.56074	1.32202
2952.63218	1.29845
2950.70361	1.27501
2948.77505	1.25172
2946.84648	1.22900
2944.91792	1.20696
2942.98936	1.18530
2941.06079	1.16390
2939.13223	1.14278
2937.20366	1.12197
2935.27510	1.10136
2933.34653	1.08108
2931.41797	1.06129
2929.48940	1.04161
2927.56084	1.02181
2925.63228	1.00231
2923.70371	0.98325
2921.77515	0.96431
2919.84658	0.94583
2917.91802	0.92823
2915.98945	0.91141
2914.06089	0.89544
2912.13232	0.88032
2910.20376	0.86537
2908.27520	0.85024
2906.34663	0.83542
2904.41807	0.82135
2902.48950	0.80774
2900.56094	0.79422
2898.63237	0.78093
2896.70381	0.76810
2894.77524	0.75553
2892.84668	0.74307
2890.91812	0.73117
2888.98955	0.71994
2887.06099	0.70882
2885.13242	0.69779
2883.20386	0.68731
2881.27529	0.67720
2879.34673	0.66712
2877.41816	0.65717
2875.48960	0.64720
2873.56104	0.63687
2871.63247	0.62622
2869.70391	0.61524
2867.77534	0.60367
2865.84678	0.59150
2863.91821	0.57931
2861.98965	0.56763
2860.06108	0.55668
2858.13252	0.54622
2856.20396	0.53587
2854.27539	0.52569
2852.34683	0.51576
2850.41826	0.50623
2848.48970	0.49731
2846.56113	0.48909
2844.63257	0.48184
2842.70400	0.47544
2840.77544	0.46931
2838.84687	0.46343
2836.91831	0.45793
2834.98975	0.45243
2833.06118	0.44666
2831.13262	0.44072
2829.20405	0.43480
2827.27549	0.42893
2825.34692	0.42300
2823.41836	0.41696
2821.48979	0.41092
2819.56123	0.40505
2817.63267	0.39929
2815.70410	0.39343
2813.77554	0.38746
2811.84697	0.38165
2809.91841	0.37615
2807.98984	0.37078
2806.06128	0.36537
2804.13271	0.35996
2802.20415	0.35465
2800.27559	0.34955
2798.34702	0.34463
2796.41846	0.33977
2794.48989	0.33494
2792.56133	0.33017
2790.63276	0.32543
2788.70420	0.32065
2786.77563	0.31600
2784.84707	0.31153
2782.91851	0.30709
2780.98994	0.30274
2779.06138	0.29865
2777.13281	0.29469
2775.20425	0.29075
2773.27568	0.28691
2771.34712	0.28308
2769.41855	0.27913
2767.48999	0.27529
2765.56143	0.27179
2763.63286	0.26847
2761.70430	0.26508
2759.77573	0.26159
2757.84717	0.25809
2755.91860	0.25480
2753.99004	0.25183
2752.06147	0.24896
2750.13291	0.24604
2748.20435	0.24308
2746.27578	0.24002
2744.34722	0.23694
2742.41865	0.23409
2740.49009	0.23146
2738.56152	0.22885
2736.63296	0.22629
2734.70439	0.22385
2732.77583	0.22134
2730.84727	0.21871
2728.91870	0.21610
2726.99014	0.21371
2725.06157	0.21155
2723.13301	0.20950
2721.20444	0.20740
2719.27588	0.20522
2717.34731	0.20314
2715.41875	0.20123
2713.49019	0.19935
2711.56162	0.19744
2709.63306	0.19555
2707.70449	0.19366
2705.77593	0.19187
2703.84736	0.19033
2701.91880	0.18898
2699.99023	0.18755
2698.06167	0.18593
2696.13311	0.18435
2694.20454	0.18287
2692.27598	0.18140
2690.34741	0.17990
2688.41885	0.17837
2686.49028	0.17693
2684.56172	0.17563
2682.63315	0.17448
2680.70459	0.17346
2678.77603	0.17239
2676.84746	0.17124
2674.91890	0.17007
2672.99033	0.16894
2671.06177	0.16784
2669.13320	0.16667
2667.20464	0.16543
2665.27607	0.16434
2663.34751	0.16351
2661.41895	0.16267
2659.49038	0.16178
2657.56182	0.16092
2655.63325	0.16002
2653.70469	0.15911
2651.77612	0.15830
2649.84756	0.15760
2647.91899	0.15690
2645.99043	0.15624
2644.06187	0.15569
2642.13330	0.15517
2640.20474	0.15454
2638.27617	0.15385
2636.34761	0.15324
2634.41904	0.15274
2632.49048	0.15233
2630.56191	0.15193
2628.63335	0.15149
2626.70479	0.15115
2624.77622	0.15093
2622.84766	0.15059
2620.91909	0.15009
2618.99053	0.14968
2617.06196	0.14948
2615.13340	0.14938
2613.20483	0.14924
2611.27627	0.14908
2609.34771	0.14890
2607.41914	0.14863
2605.49058	0.14839
2603.56201	0.14829
2601.63345	0.14832
2599.70488	0.14839
2597.77632	0.14842
2595.84775	0.14844
2593.91919	0.14849
2591.99062	0.14848
2590.06206	0.14841
2588.13350	0.14849
2586.20493	0.14879
2584.27637	0.14912
2582.34780	0.14940
2580.41924	0.14968
2578.49067	0.14996
2576.56211	0.15027
2574.63354	0.15061
2572.70498	0.15090
2570.77642	0.15119
2568.84785	0.15150
2566.91929	0.15172
2564.99072	0.15197
2563.06216	0.15236
2561.13359	0.15281
2559.20503	0.15326
2557.27646	0.15368
2555.34790	0.15414
2553.41934	0.15473
2551.49077	0.15529
2549.56221	0.15581
2547.63364	0.15633
2545.70508	0.15694
2543.77651	0.15758
2541.84795	0.15809
2539.91938	0.15854
2537.99082	0.15909
2536.06226	0.15976
2534.13369	0.16045
2532.20513	0.16110
2530.27656	0.16180
2528.34800	0.16254
2526.41943	0.16320
2524.49087	0.16391
2522.56230	0.16470
2520.63374	0.16539
2518.70518	0.16607
2516.77661	0.16688
2514.84805	0.16776
2512.91948	0.16856
2510.99092	0.16921
2509.06235	0.16986
2507.13379	0.17062
2505.20522	0.17152
2503.27666	0.17248
2501.34810	0.17334
2499.41953	0.17405
2497.49097	0.17476
2495.56240	0.17559
2493.63384	0.17651
2491.70527	0.17740
2489.77671	0.17829
2487.84814	0.17925
2485.91958	0.18008
2483.99102	0.18072
2482.06245	0.18145
2480.13389	0.18236
2478.20532	0.18326
2476.27676	0.18412
2474.34819	0.18507
2472.41963	0.18600
2470.49106	0.18684
2468.56250	0.18777
2466.63394	0.18881
2464.70537	0.18980
2462.77681	0.19073
2460.84824	0.19169
2458.91968	0.19265
2456.99111	0.19357
2455.06255	0.19439
2453.13398	0.19516
2451.20542	0.19609
2449.27686	0.19709
2447.34829	0.19804
2445.41973	0.19904
2443.49116	0.20011
2441.56260	0.20118
2439.63403	0.20217
2437.70547	0.20314
2435.77690	0.20420
2433.84834	0.20524
2431.91978	0.20622
2429.99121	0.20722
2428.06265	0.20825
2426.13408	0.20929
2424.20552	0.21036
2422.27695	0.21150
2420.34839	0.21269
2418.41982	0.21386
2416.49126	0.21497
2414.56270	0.21606
2412.63413	0.21723
2410.70557	0.21847
2408.77700	0.21966
2406.84844	0.22077
2404.91987	0.22190
2402.99131	0.22313
2401.06274	0.22444
2399.13418	0.22568
2397.20562	0.22689
2395.27705	0.22816
2393.34849	0.22946
2391.41992	0.23084
2389.49136	0.23229
2387.56279	0.23406
2385.63423	0.23670
2383.70566	0.24056
2381.77710	0.24568
2379.84854	0.25202
2377.91997	0.25924
2375.99141	0.26704
2374.06284	0.27591
2372.13428	0.28653
2370.20571	0.29852
2368.27715	0.31026
2366.34858	0.32106
2364.42002	0.33095
2362.49146	0.33922
2360.56289	0.34515
2358.63433	0.34714
2356.70576	0.34358
2354.77720	0.33555
2352.84863	0.32538
2350.92007	0.31493
2348.99150	0.30826
2347.06294	0.30857
2345.13437	0.31665
2343.20581	0.32802
2341.27725	0.33462
2339.34868	0.33595
2337.42012	0.33542
2335.49155	0.33492
2333.56299	0.33483
2331.63442	0.33542
2329.70586	0.33589
2327.77729	0.33528
2325.84873	0.33364
2323.92017	0.33142
2321.99160	0.32895
2320.06304	0.32614
2318.13447	0.32313
2316.20591	0.32068
2314.27734	0.31943
2312.34878	0.31933
2310.42021	0.31934
2308.49165	0.31855
2306.56309	0.31730
2304.63452	0.31641
2302.70596	0.31632
2300.77739	0.31677
2298.84883	0.31723
2296.92026	0.31767
2294.99170	0.31834
2293.06313	0.31923
2291.13457	0.32010
2289.20601	0.32091
2287.27744	0.32177
2285.34888	0.32273
2283.42031	0.32402
2281.49175	0.32591
2279.56318	0.32821
2277.63462	0.33058
2275.70605	0.33283
2273.77749	0.33497
2271.84893	0.33707
2269.92036	0.33917
2267.99180	0.34128
2266.06323	0.34343
2264.13467	0.34559
2262.20610	0.34765
2260.27754	0.34961
2258.34897	0.35158
2256.42041	0.35355
2254.49185	0.35545
2252.56328	0.35731
2250.63472	0.35923
2248.70615	0.36130
2246.77759	0.36349
2244.84902	0.36567
2242.92046	0.36776
2240.99189	0.36988
2239.06333	0.37210
2237.13477	0.37430
2235.20620	0.37647
2233.27764	0.37869
2231.34907	0.38087
2229.42051	0.38304
2227.49194	0.38536
2225.56338	0.38772
2223.63481	0.39000
2221.70625	0.39229
2219.77769	0.39450
2217.84912	0.39660
2215.92056	0.39877
2213.99199	0.40100
2212.06343	0.40319
2210.13486	0.40534
2208.20630	0.40740
2206.27773	0.40944
2204.34917	0.41168
2202.42061	0.41397
2200.49204	0.41593
2198.56348	0.41774
2196.63491	0.41970
2194.70635	0.42175
2192.77778	0.42377
2190.84922	0.42577
2188.92065	0.42771
2186.99209	0.42954
2185.06353	0.43127
2183.13496	0.43299
2181.20640	0.43479
2179.27783	0.43657
2177.34927	0.43826
2175.42070	0.43985
2173.49214	0.44135
2171.56357	0.44274
2169.63501	0.44415
2167.70645	0.44564
2165.77788	0.44704
2163.84932	0.44822
2161.92075	0.44925
2159.99219	0.45017
2158.06362	0.45107
2156.13506	0.45210
2154.20649	0.45310
2152.27793	0.45398
2150.34937	0.45477
2148.42080	0.45545
2146.49224	0.45603
2144.56367	0.45656
2142.63511	0.45700
2140.70654	0.45746
2138.77798	0.45792
2136.84941	0.45817
2134.92085	0.45811
2132.99229	0.45788
2131.06372	0.45765
2129.13516	0.45749
2127.20659	0.45735
2125.27803	0.45710
2123.34946	0.45670
2121.42090	0.45629
2119.49233	0.45594
2117.56377	0.45549
2115.63521	0.45473
2113.70664	0.45378
2111.77808	0.45290
2109.84951	0.45203
2107.92095	0.45096
2105.99238	0.44977
2104.06382	0.44866
2102.13525	0.44747
2100.20669	0.44612
2098.27812	0.44461
2096.34956	0.44303
2094.42100	0.44154
2092.49243	0.44007
2090.56387	0.43845
2088.63530	0.43666
2086.70674	0.43476
2084.77817	0.43281
2082.84961	0.43086
2080.92104	0.42884
2078.99248	0.42679
2077.06392	0.42477
2075.13535	0.42271
2073.20679	0.42057
2071.27822	0.41832
2069.34966	0.41606
2067.42109	0.41384
2065.49253	0.41157
2063.56396	0.40909
2061.63540	0.40653
2059.70684	0.40404
2057.77827	0.40160
2055.84971	0.39909
2053.92114	0.39640
2051.99258	0.39367
2050.06401	0.39101
2048.13545	0.38839
2046.20688	0.38575
2044.27832	0.38305
2042.34976	0.38038
2040.42119	0.37775
2038.49263	0.37508
2036.56406	0.37234
2034.63550	0.36949
2032.70693	0.36660
2030.77837	0.36388
2028.84980	0.36117
2026.92124	0.35830
2024.99268	0.35540
2023.06411	0.35260
2021.13555	0.34983
2019.20698	0.34712
2017.27842	0.34443
2015.34985	0.34155
2013.42129	0.33861
2011.49272	0.33580
2009.56416	0.33307
2007.63560	0.33030
2005.70703	0.32761
2003.77847	0.32500
2001.84990	0.32233
1999.92134	0.31968
1997.99277	0.31711
1996.06421	0.31452
1994.13564	0.31204
1992.20708	0.30967
1990.27852	0.30710
1988.34995	0.30438
1986.42139	0.30181
1984.49282	0.29941
1982.56426	0.29702
1980.63569	0.29459
1978.70713	0.29223
1976.77856	0.28996
1974.85000	0.28770
1972.92144	0.28543
1970.99287	0.28323
1969.06431	0.28128
1967.13574	0.27947
1965.20718	0.27747
1963.27861	0.27534
1961.35005	0.27331
1959.42148	0.27134
1957.49292	0.26944
1955.56436	0.26763
1953.63579	0.26588
1951.70723	0.26418
1949.77866	0.26256
1947.85010	0.26098
1945.92153	0.25951
1943.99297	0.25824
1942.06440	0.25695
1940.13584	0.25526
1938.20728	0.25348
1936.27871	0.25193
1934.35015	0.25051
1932.42158	0.24916
1930.49302	0.24795
1928.56445	0.24691
1926.63589	0.24595
1924.70732	0.24517
1922.77876	0.24449
1920.85020	0.24355
1918.92163	0.24253
1916.99307	0.24147
1915.06450	0.24024
1913.13594	0.23922
1911.20737	0.23870
1909.27881	0.23828
1907.35024	0.23754
1905.42168	0.23664
1903.49312	0.23589
1901.56455	0.23532
1899.63599	0.23483
1897.70742	0.23445
1895.77886	0.23426
1893.85029	0.23410
1891.92173	0.23376
1889.99316	0.23363
1888.06460	0.23346
1886.13604	0.23294
1884.20747	0.23241
1882.27891	0.23213
1880.35034	0.23210
1878.42178	0.23208
1876.49321	0.23197
1874.56465	0.23186
1872.63608	0.23203
1870.70752	0.23272
1868.77896	0.23385
1866.85039	0.23424
1864.92183	0.23365
1862.99326	0.23325
1861.06470	0.23331
1859.13613	0.23361
1857.20757	0.23395
1855.27900	0.23437
1853.35044	0.23479
1851.42187	0.23532
1849.49331	0.23605
1847.56475	0.23706
1845.63618	0.23838
1843.70762	0.23965
1841.77905	0.24016
1839.85049	0.24028
1837.92192	0.24094
1835.99336	0.24186
1834.06479	0.24272
1832.13623	0.24383
1830.20767	0.24567
1828.27910	0.24736
1826.35054	0.24826
1824.42197	0.24935
1822.49341	0.25041
1820.56484	0.25140
1818.63628	0.25269
1816.70771	0.25435
1814.77915	0.25606
1812.85059	0.25799
1810.92202	0.26026
1808.99346	0.26235
1807.06489	0.26415
1805.13633	0.26604
1803.20776	0.26851
1801.27920	0.27141
1799.35063	0.27429
1797.42207	0.27670
1795.49351	0.27911
1793.56494	0.28219
1791.63638	0.28612
1789.70781	0.28932
1787.77925	0.29145
1785.85068	0.29439
1783.92212	0.29817
1781.99355	0.30230
1780.06499	0.30665
1778.13643	0.31099
1776.20786	0.31511
1774.27930	0.31982
1772.35073	0.32619
1770.42217	0.33249
1768.49360	0.33728
1766.56504	0.34196
1764.63647	0.34712
1762.70791	0.35317
1760.77935	0.36077
1758.85078	0.36786
1756.92222	0.37493
1754.99365	0.38246
1753.06509	0.38951
1751.13652	0.39834
1749.20796	0.40910
1747.27939	0.41892
1745.35083	0.42743
1743.42227	0.43684
1741.49370	0.44754
1739.56514	0.46002
1737.63657	0.47241
1735.70801	0.48368
1733.77944	0.50048
1731.85088	0.51964
1729.92231	0.53462
1727.99375	0.55003
1726.06519	0.56693
1724.13662	0.58573
1722.20806	0.60627
1720.27949	0.62574
1718.35093	0.64874
1716.42236	0.68103
1714.49380	0.71080
1712.56523	0.73531
1710.63667	0.75956
1708.70811	0.78590
1706.77954	0.81601
1704.85098	0.85165
1702.92241	0.88371
1700.99385	0.91600
1699.06528	0.96289
1697.13672	1.00564
1695.20815	1.04978
1693.27959	1.09373
1691.35103	1.12992
1689.42246	1.17165
1687.49390	1.21591
1685.56533	1.25962
1683.63677	1.32528
1681.70820	1.39218
1679.77964	1.43557
1677.85107	1.47720
1675.92251	1.52566
1673.99395	1.58569
1672.06538	1.63981
1670.13682	1.69264
1668.20825	1.75988
1666.27969	1.81616
1664.35112	1.86567
1662.42256	1.92780
1660.49399	1.99809
1658.56543	2.05374
1656.63687	2.09882
1654.70830	2.13956
1652.77974	2.19708
1650.85117	2.25081
1648.92261	2.27191
1646.99404	2.29776
1645.06548	2.32650
1643.13691	2.34608
1641.20835	2.35429
1639.27979	2.35912
1637.35122	2.36120
1635.42266	2.36026
1633.49409	2.35478
1631.56553	2.34184
1629.63696	2.32434
1627.70840	2.29455
1625.77983	2.25933
1623.85127	2.21592
1621.92271	2.16255
1619.99414	2.11377
1618.06558	2.06720
1616.13701	2.00323
1614.20845	1.93674
1612.27988	1.88431
1610.35132	1.83054
1608.42275	1.77413
1606.49419	1.71909
1604.56562	1.66796
1602.63706	1.61886
1600.70850	1.57128
1598.77993	1.52706
1596.85137	1.48548
1594.92280	1.44563
1592.99424	1.40717
1591.06567	1.37184
1589.13711	1.33899
1587.20854	1.30864
1585.27998	1.28054
1583.35142	1.25418
1581.42285	1.23026
1579.49429	1.21030
1577.56572	1.19324
1575.63716	1.17339
1573.70859	1.15518
1571.78003	1.14287
1569.85146	1.13144
1567.92290	1.11997
1565.99434	1.11177
1564.06577	1.10599
1562.13721	1.10180
1560.20864	1.10061
1558.28008	1.10387
1556.35151	1.10624
1554.42295	1.10646
1552.49438	1.10722
1550.56582	1.10680
1548.63726	1.10345
1546.70869	1.09736
1544.78013	1.08879
1542.85156	1.07762
1540.92300	1.06065
1538.99443	1.03188
1537.06587	1.00863
1535.13730	0.99309
1533.20874	0.97375
1531.28018	0.95255
1529.35161	0.93650
1527.42305	0.92193
1525.49448	0.90735
1523.56592	0.89500
1521.63735	0.88354
1519.70879	0.87176
1517.78022	0.86141
1515.85166	0.84949
1513.92310	0.83658
1511.99453	0.82528
1510.06597	0.81558
1508.13740	0.80667
1506.20884	0.79275
1504.28027	0.77901
1502.35171	0.77086
1500.42314	0.76442
1498.49458	0.75815
1496.56602	0.75084
1494.63745	0.74296
1492.70889	0.73674
1490.78032	0.73202
1488.85176	0.72688
1486.92319	0.72117
1484.99463	0.71643
1483.06606	0.71324
1481.13750	0.71103
1479.20894	0.70944
1477.28037	0.70889
1475.35181	0.70945
1473.42324	0.71047
1471.49468	0.71010
1469.56611	0.70770
1467.63755	0.70502
1465.70898	0.70309
1463.78042	0.70190
1461.85186	0.70141
1459.92329	0.70197
1457.99473	0.70337
1456.06616	0.70299
1454.13760	0.69969
1452.20903	0.69614
1450.28047	0.69298
1448.35190	0.69026
1446.42334	0.68753
1444.49478	0.68477
1442.56621	0.68213
1440.63765	0.67947
1438.70908	0.67694
1436.78052	0.67411
1434.85195	0.67057
1432.92339	0.66752
1430.99482	0.66556
1429.06626	0.66460
1427.13770	0.66445
1425.20913	0.66493
1423.28057	0.66566
1421.35200	0.66625
1419.42344	0.66701
1417.49487	0.66719
1415.56631	0.66602
1413.63774	0.66500
1411.70918	0.66475
1409.78062	0.66507
1407.85205	0.66592
1405.92349	0.66733
1403.99492	0.66861
1402.06636	0.66884
1400.13779	0.66823
1398.20923	0.66682
1396.28066	0.66438
1394.35210	0.66064
1392.42354	0.65592
1390.49497	0.65143
1388.56641	0.64723
1386.63784	0.64249
1384.70928	0.63731
1382.78071	0.63239
1380.85215	0.62790
1378.92358	0.62412
1376.99502	0.62144
1375.06646	0.61992
1373.13789	0.61894
1371.20933	0.61798
1369.28076	0.61722
1367.35220	0.61638
1365.42363	0.61521
1363.49507	0.61391
1361.56650	0.61232
1359.63794	0.61037
1357.70937	0.60865
1355.78081	0.60736
1353.85225	0.60625
1351.92368	0.60521
1349.99512	0.60427
1348.06655	0.60334
1346.13799	0.60232
1344.20942	0.60127
1342.28086	0.60048
1340.35229	0.60005
1338.42373	0.59944
1336.49517	0.59834
1334.56660	0.59732
1332.63804	0.59686
1330.70947	0.59681
1328.78091	0.59700
1326.85234	0.59753
1324.92378	0.59841
1322.99521	0.59933
1321.06665	0.60015
1319.13809	0.60083
1317.20952	0.60122
1315.28096	0.60129
1313.35239	0.60099
1311.42383	0.60026
1309.49526	0.59942
1307.56670	0.59866
1305.63813	0.59783
1303.70957	0.59686
1301.78101	0.59581
1299.85244	0.59464
1297.92388	0.59333
1295.99531	0.59199
1294.06675	0.59071
1292.13818	0.58948
1290.20962	0.58819
1288.28105	0.58682
1286.35249	0.58551
1284.42393	0.58424
1282.49536	0.58286
1280.56680	0.58141
1278.63823	0.57998
1276.70967	0.57863
1274.78110	0.57761
1272.85254	0.57696
1270.92397	0.57627
1268.99541	0.57536
1267.06685	0.57446
1265.13828	0.57366
1263.20972	0.57285
1261.28115	0.57210
1259.35259	0.57159
1257.42402	0.57114
1255.49546	0.57064
1253.56689	0.57042
1251.63833	0.57051
1249.70977	0.57069
1247.78120	0.57076
1245.85264	0.57061
1243.92407	0.57012
1241.99551	0.56922
1240.06694	0.56803
1238.13838	0.56653
1236.20981	0.56448
1234.28125	0.56207
1232.35269	0.55969
1230.42412	0.55743
1228.49556	0.55541
1226.56699	0.55360
1224.63843	0.55178
1222.70986	0.54994
1220.78130	0.54823
1218.85273	0.54666
1216.92417	0.54516
1214.99561	0.54381
1213.06704	0.54278
1211.13848	0.54210
1209.20991	0.54152
1207.28135	0.54083
1205.35278	0.54002
1203.42422	0.53919
1201.49565	0.53834
1199.56709	0.53742
1197.63853	0.53651
1195.70996	0.53566
1193.78140	0.53490
1191.85283	0.53425
1189.92427	0.53376
1187.99570	0.53348
1186.06714	0.53336
1184.13857	0.53334
1182.21001	0.53361
1180.28145	0.53450
1178.35288	0.53590
1176.42432	0.53745
1174.49575	0.53891
1172.56719	0.54011
1170.63862	0.54081
1168.71006	0.54121
1166.78149	0.54167
1164.85293	0.54211
1162.92437	0.54235
1160.99580	0.54245
1159.06724	0.54246
1157.13867	0.54240
1155.21011	0.54202
1153.28154	0.54089
1151.35298	0.53912
1149.42441	0.53704
1147.49585	0.53471
1145.56729	0.53226
1143.63872	0.53002
1141.71016	0.52821
1139.78159	0.52670
1137.85303	0.52535
1135.92446	0.52427
1133.99590	0.52372
1132.06733	0.52357
1130.13877	0.52340
1128.21021	0.52291
1126.28164	0.52224
1124.35308	0.52163
1122.42451	0.52114
1120.49595	0.52088
1118.56738	0.52106
1116.63882	0.52161
1114.71025	0.52218
1112.78169	0.52265
1110.85312	0.52328
1108.92456	0.52425
1106.99600	0.52539
1105.06743	0.52636
1103.13887	0.52716
1101.21030	0.52811
1099.28174	0.52934
1097.35317	0.53100
1095.42461	0.53353
1093.49604	0.53711
1091.56748	0.54189
1089.63892	0.54838
1087.71035	0.55674
1085.78179	0.56607
1083.85322	0.57518
1081.92466	0.58296
1079.99609	0.58835
1078.06753	0.59067
1076.13896	0.58973
1074.21040	0.58566
1072.28184	0.57944
1070.35327	0.57237
1068.42471	0.56511
1066.49614	0.55812
1064.56758	0.55178
1062.63901	0.54634
1060.71045	0.54187
1058.78188	0.53797
1056.85332	0.53422
1054.92476	0.53063
1052.99619	0.52753
1051.06763	0.52521
1049.13906	0.52367
1047.21050	0.52281
1045.28193	0.52259
1043.35337	0.52292
1041.42480	0.52346
1039.49624	0.52381
1037.56768	0.52387
1035.63911	0.52365
1033.71055	0.52296
1031.78198	0.52178
1029.85342	0.52010
1027.92485	0.51789
1025.99629	0.51556
1024.06772	0.51371
1022.13916	0.51240
1020.21060	0.51155
1018.28203	0.51109
1016.35347	0.51069
1014.42490	0.51007
1012.49634	0.50940
1010.56777	0.50902
1008.63921	0.50884
1006.71064	0.50869
1004.78208	0.50901
1002.85352	0.51040
1000.92495	0.51284
998.99639	0.51609
997.06782	0.52020
995.13926	0.52498
993.21069	0.52954
991.28213	0.53298
989.35356	0.53494
987.42500	0.53543
985.49644	0.53499
983.56787	0.53454
981.63931	0.53449
979.71074	0.53485
977.78218	0.53587
975.85361	0.53764
973.92505	0.53982
971.99648	0.54244
970.06792	0.54580
968.13936	0.54966
966.21079	0.55375
964.28223	0.55805
962.35366	0.56271
960.42510	0.56787
958.49653	0.57345
956.56797	0.57922
954.63940	0.58511
952.71084	0.59115
950.78228	0.59738
948.85371	0.60378
946.92515	0.61021
944.99658	0.61662
943.06802	0.62291
941.13945	0.62892
939.21089	0.63468
937.28232	0.64063
935.35376	0.64692
933.42520	0.65318
931.49663	0.65925
929.56807	0.66504
927.63950	0.67058
925.71094	0.67643
923.78237	0.68315
921.85381	0.69030
919.92524	0.69716
917.99668	0.70404
916.06812	0.71100
914.13955	0.71780
912.21099	0.72511
910.28242	0.73333
908.35386	0.74202
906.42529	0.75083
904.49673	0.75979
902.56816	0.76914
900.63960	0.77903
898.71104	0.78923
896.78247	0.79921
894.85391	0.80880
892.92534	0.81826
890.99678	0.82797
889.06821	0.83874
887.13965	0.85052
885.21108	0.86215
883.28252	0.87268
881.35396	0.88210
879.42539	0.89161
877.49683	0.90233
875.56826	0.91450
873.63970	0.92747
871.71113	0.94076
869.78257	0.95426
867.85400	0.96666
865.92544	0.97712
863.99687	0.98680
862.06831	0.99753
860.13975	1.00967
858.21118	1.02224
856.28262	1.03409
854.35405	1.04447
852.42549	1.05482
850.49692	1.06766
848.56836	1.08223
846.63979	1.09536
844.71123	1.10595
842.78267	1.11499
840.85410	1.12538
838.92554	1.13873
836.99697	1.15103
835.06841	1.16023
833.13984	1.17073
831.21128	1.18376
829.28271	1.19636
827.35415	1.20639
825.42559	1.21317
823.49702	1.22010
821.56846	1.22996
819.63989	1.24256
817.71133	1.25923
815.78276	1.27923
813.85420	1.29454
811.92563	1.30305
809.99707	1.31332
808.06851	1.32229
806.13994	1.32004
804.21138	1.31475
802.28281	1.33043
800.35425	1.37397
798.42568	1.41383
796.49712	1.40817
794.56855	1.37532
792.63999	1.37081
790.71143	1.39696
788.78286	1.40552
786.85430	1.39922
784.92573	1.41865
782.99717	1.44765
781.06860	1.47707
779.14004	1.50292
777.21147	1.47252
775.28291	1.41753
773.35435	1.37632
771.42578	1.35358
769.49722	1.35446
767.56865	1.36981
765.64009	1.40440
763.71152	1.44148
761.78296	1.44017
759.85439	1.46207
757.92583	1.50209
755.99727	1.42580
754.06870	1.36308
752.14014	1.37095
750.21157	1.35807
748.28301	1.32349
746.35444	1.24382
744.42588	1.22220
742.49731	1.41837
740.56875	1.57155
738.64019	1.24071
736.71162	1.08118
734.78306	1.08894
732.85449	1.08848
730.92593	0.84641
728.99736	0.68766
727.06880	0.66407
725.14023	0.50796
723.21167	0.30544
721.28311	0.22404
719.35454	0.28148
717.42598	0.42431
715.49741	0.43823
713.56885	0.32197
711.64028	0.21038
709.71172	0.08925
707.78315	-0.07444
705.85459	-0.10112
703.92603	0.09593
701.99746	0.19066
700.06890	0.33466
698.14033	0.58640
696.21177	0.70737
694.28320	0.61476
692.35464	0.55239
690.42607	0.49086
688.49751	0.41435
686.56895	0.33510
684.64038	0.30062
682.71182	0.32191
680.78325	0.33888
678.85469	0.26995
676.92612	0.20290
674.99756	0.25373
673.06899	0.44738
671.14043	0.48638
669.21187	0.32569
667.28330	0.21388
665.35474	0.16572
663.42617	0.16533
661.49761	0.18891
659.56904	0.22721
657.64048	0.31781
655.71191	0.55657
653.78335	0.59137
651.85479	0.36243
649.92622	0.29298
647.99766	0.26482
646.06909	0.26934
644.14053	0.37293
642.21196	0.41846
640.28340	0.31590
638.35483	0.29209
636.42627	0.29932
634.49771	0.28133
632.56914	0.26653
630.64058	0.21971
628.71201	0.18460
626.78345	0.28016
624.85488	0.43198
622.92632	0.40404
620.99775	0.29517
619.06919	0.19221
617.14062	0.14894
615.21206	0.15457
613.28350	0.14007
611.35493	0.12660
609.42637	0.13315
607.49780	0.14379
605.56924	0.17040
603.64067	0.24222
601.71211	0.30059
599.78354	0.27601
597.85498	0.23127
595.92642	0.22502
593.99785	0.24538
592.06929	0.24089
590.14072	0.20469
588.21216	0.20399
586.28359	0.23364
584.35503	0.26086
582.42646	0.30978
580.49790	0.34105
578.56934	0.32263
576.64077	0.33534
574.71221	0.39429
572.78364	0.45310
570.85508	0.42963
568.92651	0.34110
566.99795	0.31218
565.06938	0.31088
563.14082	0.27493
561.21226	0.25566
559.28369	0.29225
557.35513	0.33834
555.42656	0.34478
553.49800	0.41612
551.56943	0.53429
549.64087	0.42957
547.71230	0.25624
545.78374	0.18983
543.85518	0.19541
541.92661	0.19539
539.99805	0.17269
538.06948	0.17249
536.14092	0.20802
534.21235	0.25172
532.28379	0.25517
530.35522	0.21108
528.42666	0.19514
526.49810	0.26631
524.56953	0.36345
522.64097	0.31391
520.71240	0.26102
518.78384	0.27537
516.85527	0.31368
514.92671	0.31314
512.99814	0.24097
511.06958	0.19871
509.14102	0.24107
507.21245	0.30139
505.28389	0.26825
503.35532	0.21660
501.42676	0.18635
499.49819	0.17084
