3997.91411	0.05036
3995.98555	0.05061
3994.05698	0.05119
3992.12842	0.05164
3990.19985	0.05169
3988.27129	0.05163
3986.34272	0.05177
3984.41416	0.05226
3982.48560	0.05313
3980.55703	0.05383
3978.62847	0.05393
3976.69990	0.05390
3974.77134	0.05419
3972.84277	0.05454
3970.91421	0.05451
3968.98564	0.05421
3967.05708	0.05409
3965.12852	0.05407
3963.19995	0.05420
3961.27139	0.05476
3959.34282	0.05535
3957.41426	0.05559
3955.48569	0.05561
3953.55713	0.05558
3951.62856	0.05575
3949.70000	0.05599
3947.77144	0.05584
3945.84287	0.05549
3943.91431	0.05553
3941.98574	0.05584
3940.05718	0.05576
3938.12861	0.05531
3936.20005	0.05516
3934.27148	0.05550
3932.34292	0.05608
3930.41436	0.05653
3928.48579	0.05652
3926.55723	0.05634
3924.62866	0.05644
3922.70010	0.05643
3920.77153	0.05616
3918.84297	0.05615
3916.91440	0.05645
3914.98584	0.05659
3913.05728	0.05633
3911.12871	0.05587
3909.20015	0.05555
3907.27158	0.05557
3905.34302	0.05603
3903.41445	0.05687
3901.48589	0.05736
3899.55732	0.05722
3897.62876	0.05682
3895.70020	0.05626
3893.77163	0.05600
3891.84307	0.05618
3889.91450	0.05637
3887.98594	0.05613
3886.05737	0.05611
3884.12881	0.05656
3882.20024	0.05660
3880.27168	0.05653
3878.34312	0.05673
3876.41455	0.05680
3874.48599	0.05704
3872.55742	0.05744
3870.62886	0.05798
3868.70029	0.05902
3866.77173	0.05965
3864.84316	0.05970
3862.91460	0.06001
3860.98604	0.06034
3859.05747	0.06004
3857.12891	0.05950
3855.20034	0.05975
3853.27178	0.06178
3851.34321	0.06393
3849.41465	0.06351
3847.48608	0.06277
3845.55752	0.06279
3843.62896	0.06340
3841.70039	0.06445
3839.77183	0.06572
3837.84326	0.06737
3835.91470	0.06881
3833.98613	0.06893
3832.05757	0.06873
3830.12900	0.06898
3828.20044	0.06911
3826.27187	0.06943
3824.34331	0.07030
3822.41475	0.07140
3820.48618	0.07321
3818.55762	0.07467
3816.62905	0.07489
3814.70049	0.07530
3812.77192	0.07578
3810.84336	0.07595
3808.91479	0.07665
3806.98623	0.07847
3805.05767	0.08050
3803.12910	0.08175
3801.20054	0.08308
3799.27197	0.08417
3797.34341	0.08452
3795.41484	0.08541
3793.48628	0.08660
3791.55771	0.08744
3789.62915	0.08825
3787.70059	0.08941
3785.77202	0.09109
3783.84346	0.09295
3781.91489	0.09437
3779.98633	0.09578
3778.05776	0.09774
3776.12920	0.09931
3774.20063	0.10024
3772.27207	0.10160
3770.34351	0.10425
3768.41494	0.10764
3766.48638	0.11004
3764.55781	0.11166
3762.62925	0.11317
3760.70068	0.11511
3758.77212	0.11814
3756.84355	0.12138
3754.91499	0.12355
3752.98643	0.12534
3751.05786	0.12840
3749.12930	0.13276
3747.20073	0.13560
3745.27217	0.13792
3743.34360	0.14223
3741.41504	0.14588
3739.48647	0.14758
3737.55791	0.14988
3735.62935	0.15463
3733.70078	0.16135
3731.77222	0.16679
3729.84365	0.17056
3727.91509	0.17430
3725.98652	0.17937
3724.05796	0.18566
3722.12939	0.19221
3720.20083	0.19937
3718.27227	0.20731
3716.34370	0.21551
3714.41514	0.22356
3712.48657	0.23287
3710.55801	0.24597
3708.62944	0.26037
3706.70088	0.27214
3704.77231	0.28331
3702.84375	0.29663
3700.91519	0.31367
3698.98662	0.33220
3697.05806	0.35012
3695.12949	0.36909
3693.20093	0.38905
3691.27236	0.41087
3689.34380	0.43886
3687.41523	0.47313
3685.48667	0.50397
3683.55811	0.53067
3681.62954	0.55909
3679.70098	0.59098
3677.77241	0.62440
3675.84385	0.66398
3673.91528	0.71696
3671.98672	0.76107
3670.05815	0.80042
3668.12959	0.85353
3666.20103	0.90266
3664.27246	0.94403
3662.34390	0.98805
3660.41533	1.03570
3658.48677	1.08289
3656.55820	1.13249
3654.62964	1.18740
3652.70107	1.23445
3650.77251	1.27588
3648.84395	1.33174
3646.91538	1.39915
3644.98682	1.45009
3643.05825	1.49011
3641.12969	1.53091
3639.20112	1.57551
3637.27256	1.62036
3635.34399	1.66370
3633.41543	1.70639
3631.48687	1.74619
3629.55830	1.78690
3627.62974	1.84017
3625.70117	1.89101
3623.77261	1.92644
3621.84404	1.96004
3619.91548	1.99819
3617.98691	2.04364
3616.05835	2.08713
3614.12979	2.12399
3612.20122	2.16325
3610.27266	2.20293
3608.34409	2.24299
3606.41553	2.28617
3604.48696	2.32633
3602.55840	2.36208
3600.62983	2.40062
3598.70127	2.44188
3596.77271	2.48161
3594.84414	2.52229
3592.91558	2.56461
3590.98701	2.60410
3589.05845	2.64072
3587.12988	2.68435
3585.20132	2.73272
3583.27275	2.77404
3581.34419	2.81156
3579.41562	2.85140
3577.48706	2.89467
3575.55850	2.93987
3573.62993	2.98524
3571.70137	3.02704
3569.77280	3.06618
3567.84424	3.10892
3565.91567	3.16092
3563.98711	3.21034
3562.05854	3.25093
3560.12998	3.29261
3558.20142	3.33948
3556.27285	3.38745
3554.34429	3.43134
3552.41572	3.47623
3550.48716	3.52484
3548.55859	3.57215
3546.63003	3.61790
3544.70146	3.66554
3542.77290	3.71297
3540.84434	3.75895
3538.91577	3.80570
3536.98721	3.85236
3535.05864	3.90003
3533.13008	3.94777
3531.20151	3.99451
3529.27295	4.04196
3527.34438	4.09386
3525.41582	4.14672
3523.48726	4.19307
3521.55869	4.23803
3519.63013	4.28485
3517.70156	4.33131
3515.77300	4.37996
3513.84443	4.42959
3511.91587	4.47522
3509.98730	4.52404
3508.05874	4.58117
3506.13018	4.63645
3504.20161	4.68376
3502.27305	4.72425
3500.34448	4.76216
3498.41592	4.80691
3496.48735	4.86166
3494.55879	4.91690
3492.63022	4.96485
3490.70166	5.00863
3488.77310	5.05654
3486.84453	5.10984
3484.91597	5.16165
3482.98740	5.21255
3481.05884	5.26938
3479.13027	5.32564
3477.20171	5.37211
3475.27314	5.41792
3473.34458	5.46705
3471.41602	5.50784
3469.48745	5.54397
3467.55889	5.59216
3465.63032	5.64724
3463.70176	5.69565
3461.77319	5.74379
3459.84463	5.79657
3457.91606	5.84686
3455.98750	5.89632
3454.05894	5.94758
3452.13037	6.00154
3450.20181	6.05805
3448.27324	6.11313
3446.34468	6.16724
3444.41611	6.21572
3442.48755	6.25909
3440.55898	6.29897
3438.63042	6.34374
3436.70186	6.39877
3434.77329	6.45935
3432.84473	6.52319
3430.91616	6.56718
3428.98760	6.58219
3427.05903	6.60116
3425.13047	6.65410
3423.20190	6.72757
3421.27334	6.80352
3419.34478	6.86969
3417.41621	6.91537
3415.48765	6.94935
3413.55908	6.98391
3411.63052	7.03207
3409.70195	7.07170
3407.77339	7.10196
3405.84482	7.14838
3403.91626	7.19460
3401.98770	7.21911
3400.05913	7.24221
3398.13057	7.27782
3396.20200	7.32020
3394.27344	7.37354
3392.34487	7.42754
3390.41631	7.48892
3388.48774	7.54979
3386.55918	7.59271
3384.63062	7.62375
3382.70205	7.67183
3380.77349	7.75138
3378.84492	7.80793
3376.91636	7.79649
3374.98779	7.77099
3373.05923	7.79704
3371.13066	7.82929
3369.20210	7.85542
3367.27354	7.89145
3365.34497	7.92853
3363.41641	7.98684
3361.48784	8.05218
3359.55928	8.09119
3357.63071	8.07084
3355.70215	8.04877
3353.77358	8.11032
3351.84502	8.18977
3349.91646	8.16578
3347.98789	8.11892
3346.05933	8.12019
3344.13076	8.13319
3342.20220	8.14562
3340.27363	8.11999
3338.34507	8.07407
3336.41650	8.05540
3334.48794	8.10261
3332.55937	8.16740
3330.63081	8.15337
3328.70225	8.10158
3326.77368	8.09160
3324.84512	8.12713
3322.91655	8.13792
3320.98799	8.10143
3319.05942	8.06375
3317.13086	8.06371
3315.20229	8.11524
3313.27373	8.20033
3311.34517	8.23386
3309.41660	8.18894
3307.48804	8.18334
3305.55947	8.27124
3303.63091	8.36529
3301.70234	8.38340
3299.77378	8.33236
3297.84521	8.21969
3295.91665	8.12852
3293.98809	8.13432
3292.05952	8.20936
3290.13096	8.30370
3288.20239	8.38107
3286.27383	8.39501
3284.34526	8.34630
3282.41670	8.32151
3280.48813	8.32403
3278.55957	8.30820
3276.63101	8.29096
3274.70244	8.32831
3272.77388	8.42250
3270.84531	8.47801
3268.91675	8.44461
3266.98818	8.39769
3265.05962	8.40206
3263.13105	8.41989
3261.20249	8.39793
3259.27393	8.35203
3257.34536	8.34848
3255.41680	8.36124
3253.48823	8.35020
3251.55967	8.34415
3249.63110	8.28368
3247.70254	8.15738
3245.77397	8.08040
3243.84541	8.12955
3241.91685	8.24401
3239.98828	8.24413
3238.05972	8.12591
3236.13115	8.13066
3234.20259	8.30103
3232.27402	8.40234
3230.34546	8.35854
3228.41689	8.27544
3226.48833	8.18696
3224.55977	8.12059
3222.63120	8.08540
3220.70264	8.08598
3218.77407	8.11899
3216.84551	8.13490
3214.91694	8.12979
3212.98838	8.09925
3211.05981	8.02617
3209.13125	7.98005
3207.20269	7.97883
3205.27412	7.96181
3203.34556	7.94088
3201.41699	7.92729
3199.48843	7.86456
3197.55986	7.78598
3195.63130	7.74763
3193.70273	7.74015
3191.77417	7.74618
3189.84561	7.72789
3187.91704	7.68418
3185.98848	7.63809
3184.05991	7.54721
3182.13135	7.41236
3180.20278	7.31340
3178.27422	7.27454
3176.34565	7.26563
3174.41709	7.23818
3172.48853	7.17578
3170.55996	7.12410
3168.63140	7.09271
3166.70283	7.04636
3164.77427	6.96798
3162.84570	6.87859
3160.91714	6.81301
3158.98857	6.76964
3157.06001	6.72222
3155.13145	6.65811
3153.20288	6.58331
3151.27432	6.51573
3149.34575	6.45082
3147.41719	6.37291
3145.48862	6.29457
3143.56006	6.22586
3141.63149	6.15555
3139.70293	6.07298
3137.77437	5.99067
3135.84580	5.92333
3133.91724	5.86186
3131.98867	5.79286
3130.06011	5.71242
3128.13154	5.62885
3126.20298	5.55863
3124.27441	5.50075
3122.34585	5.43228
3120.41729	5.34842
3118.48872	5.26896
3116.56016	5.20057
3114.63159	5.13354
3112.70303	5.06377
3110.77446	4.99189
3108.84590	4.91972
3106.91733	4.85168
3104.98877	4.78589
3103.06021	4.72080
3101.13164	4.65763
3099.20308	4.59172
3097.27451	4.52190
3095.34595	4.45415
3093.41738	4.39002
3091.48882	4.32536
3089.56025	4.25806
3087.63169	4.18930
3085.70312	4.12149
3083.77456	4.05710
3081.84600	3.99663
3079.91743	3.93807
3077.98887	3.87968
3076.06030	3.82078
3074.13174	3.76051
3072.20317	3.69815
3070.27461	3.63561
3068.34604	3.57623
3066.41748	3.51918
3064.48892	3.46238
3062.56035	3.40657
3060.63179	3.35164
3058.70322	3.29607
3056.77466	3.23989
3054.84609	3.18496
3052.91753	3.13253
3050.98896	3.08139
3049.06040	3.03060
3047.13184	2.98086
3045.20327	2.93140
3043.27471	2.88127
3041.34614	2.83150
3039.41758	2.78296
3037.48901	2.73514
3035.56045	2.68770
3033.63188	2.64146
3031.70332	2.59688
3029.77476	2.55294
3027.84619	2.50852
3025.91763	2.46355
3023.98906	2.41949
3022.06050	2.37742
3020.13193	2.33615
3018.20337	2.29505
3016.27480	2.25466
3014.34624	2.21521
3012.41768	2.17653
3010.48911	2.13792
3008.56055	2.09940
3006.63198	2.06174
3004.70342	2.02512
3002.77485	1.98912
3000.84629	1.95385
2998.91772	1.91962
2996.98916	1.88629
2995.06060	1.85375
2993.13203	1.82161
2991.20347	1.78961
2989.27490	1.75814
2987.34634	1.72731
2985.41777	1.69682
2983.48921	1.66692
2981.56064	1.63777
2979.63208	1.60882
2977.70352	1.57979
2975.77495	1.55108
2973.84639	1.52336
2971.91782	1.49676
2969.98926	1.47060
2968.06069	1.44437
2966.13213	1.41833
2964.20356	1.39267
2962.27500	1.36733
2960.34644	1.34256
2958.41787	1.31844
2956.48931	1.29440
2954.56074	1.27009
2952.63218	1.24604
2950.70361	1.22241
2948.77505	1.19910
2946.84648	1.17651
2944.91792	1.15481
2942.98936	1.13355
2941.06079	1.11247
2939.13223	1.09193
2937.20366	1.07166
2935.27510	1.05117
2933.34653	1.03066
2931.41797	1.01060
2929.48940	0.99101
2927.56084	0.97158
2925.63228	0.95292
2923.70371	0.93550
2921.77515	0.91824
2919.84658	0.90072
2917.91802	0.88383
2915.98945	0.86770
2914.06089	0.85176
2912.13232	0.83608
2910.20376	0.82097
2908.27520	0.80650
2906.34663	0.79276
2904.41807	0.77934
2902.48950	0.76589
2900.56094	0.75261
2898.63237	0.73950
2896.70381	0.72665
2894.77524	0.71422
2892.84668	0.70210
2890.91812	0.69026
2888.98955	0.67869
2887.06099	0.66745
2885.13242	0.65668
2883.20386	0.64619
2881.27529	0.63565
2879.34673	0.62515
2877.41816	0.61496
2875.48960	0.60491
2873.56104	0.59467
2871.63247	0.58410
2869.70391	0.57334
2867.77534	0.56269
2865.84678	0.55199
2863.91821	0.54110
2861.98965	0.53040
2860.06108	0.52025
2858.13252	0.51060
2856.20396	0.50125
2854.27539	0.49205
2852.34683	0.48297
2850.41826	0.47426
2848.48970	0.46618
2846.56113	0.45868
2844.63257	0.45177
2842.70400	0.44543
2840.77544	0.43944
2838.84687	0.43367
2836.91831	0.42799
2834.98975	0.42232
2833.06118	0.41674
2831.13262	0.41118
2829.20405	0.40557
2827.27549	0.39994
2825.34692	0.39431
2823.41836	0.38859
2821.48979	0.38271
2819.56123	0.37683
2817.63267	0.37113
2815.70410	0.36555
2813.77554	0.35998
2811.84697	0.35452
2809.91841	0.34912
2807.98984	0.34374
2806.06128	0.33846
2804.13271	0.33333
2802.20415	0.32834
2800.27559	0.32359
2798.34702	0.31907
2796.41846	0.31455
2794.48989	0.30999
2792.56133	0.30545
2790.63276	0.30094
2788.70420	0.29645
2786.77563	0.29212
2784.84707	0.28804
2782.91851	0.28408
2780.98994	0.28019
2779.06138	0.27639
2777.13281	0.27272
2775.20425	0.26907
2773.27568	0.26521
2771.34712	0.26137
2769.41855	0.25790
2767.48999	0.25462
2765.56143	0.25125
2763.63286	0.24788
2761.70430	0.24470
2759.77573	0.24166
2757.84717	0.23860
2755.91860	0.23551
2753.99004	0.23237
2752.06147	0.22920
2750.13291	0.22628
2748.20435	0.22379
2746.27578	0.22134
2744.34722	0.21870
2742.41865	0.21609
2740.49009	0.21353
2738.56152	0.21091
2736.63296	0.20836
2734.70439	0.20594
2732.77583	0.20357
2730.84727	0.20129
2728.91870	0.19909
2726.99014	0.19694
2725.06157	0.19478
2723.13301	0.19258
2721.20444	0.19048
2719.27588	0.18853
2717.34731	0.18666
2715.41875	0.18488
2713.49019	0.18319
2711.56162	0.18145
2709.63306	0.17970
2707.70449	0.17805
2705.77593	0.17647
2703.84736	0.17488
2701.91880	0.17337
2699.99023	0.17191
2698.06167	0.17039
2696.13311	0.16894
2694.20454	0.16768
2692.27598	0.16645
2690.34741	0.16511
2688.41885	0.16379
2686.49028	0.16261
2684.56172	0.16145
2682.63315	0.16032
2680.70459	0.15923
2678.77603	0.15812
2676.84746	0.15700
2674.91890	0.15595
2672.99033	0.15498
2671.06177	0.15401
2669.13320	0.15305
2667.20464	0.15218
2665.27607	0.15145
2663.34751	0.15070
2661.41895	0.14976
2659.49038	0.14883
2657.56182	0.14810
2655.63325	0.14742
2653.70469	0.14679
2651.77612	0.14632
2649.84756	0.14589
2647.91899	0.14540
2645.99043	0.14483
2644.06187	0.14418
2642.13330	0.14350
2640.20474	0.14291
2638.27617	0.14251
2636.34761	0.14221
2634.41904	0.14185
2632.49048	0.14146
2630.56191	0.14110
2628.63335	0.14077
2626.70479	0.14049
2624.77622	0.14031
2622.84766	0.14009
2620.91909	0.13977
2618.99053	0.13944
2617.06196	0.13920
2615.13340	0.13912
2613.20483	0.13918
2611.27627	0.13916
2609.34771	0.13905
2607.41914	0.13895
2605.49058	0.13892
2603.56201	0.13897
2601.63345	0.13907
2599.70488	0.13922
2597.77632	0.13945
2595.84775	0.13962
2593.91919	0.13966
2591.99062	0.13966
2590.06206	0.13969
2588.13350	0.13986
2586.20493	0.14017
2584.27637	0.14060
2582.34780	0.14098
2580.41924	0.14119
2578.49067	0.14138
2576.56211	0.14168
2574.63354	0.14208
2572.70498	0.14257
2570.77642	0.14301
2568.84785	0.14336
2566.91929	0.14372
2564.99072	0.14409
2563.06216	0.14446
2561.13359	0.14494
2559.20503	0.14556
2557.27646	0.14614
2555.34790	0.14656
2553.41934	0.14699
2551.49077	0.14761
2549.56221	0.14836
2547.63364	0.14917
2545.70508	0.14987
2543.77651	0.15038
2541.84795	0.15092
2539.91938	0.15157
2537.99082	0.15223
2536.06226	0.15289
2534.13369	0.15355
2532.20513	0.15420
2530.27656	0.15487
2528.34800	0.15557
2526.41943	0.15625
2524.49087	0.15701
2522.56230	0.15784
2520.63374	0.15865
2518.70518	0.15950
2516.77661	0.16047
2514.84805	0.16146
2512.91948	0.16231
2510.99092	0.16315
2509.06235	0.16406
2507.13379	0.16493
2505.20522	0.16566
2503.27666	0.16642
2501.34810	0.16731
2499.41953	0.16821
2497.49097	0.16906
2495.56240	0.16997
2493.63384	0.17090
2491.70527	0.17175
2489.77671	0.17260
2487.84814	0.17355
2485.91958	0.17452
2483.99102	0.17546
2482.06245	0.17640
2480.13389	0.17740
2478.20532	0.17843
2476.27676	0.17946
2474.34819	0.18042
2472.41963	0.18125
2470.49106	0.18202
2468.56250	0.18290
2466.63394	0.18388
2464.70537	0.18488
2462.77681	0.18590
2460.84824	0.18699
2458.91968	0.18805
2456.99111	0.18901
2455.06255	0.18995
2453.13398	0.19091
2451.20542	0.19189
2449.27686	0.19292
2447.34829	0.19398
2445.41973	0.19500
2443.49116	0.19598
2441.56260	0.19699
2439.63403	0.19802
2437.70547	0.19906
2435.77690	0.20011
2433.84834	0.20122
2431.91978	0.20246
2429.99121	0.20370
2428.06265	0.20477
2426.13408	0.20577
2424.20552	0.20690
2422.27695	0.20810
2420.34839	0.20925
2418.41982	0.21043
2416.49126	0.21174
2414.56270	0.21304
2412.63413	0.21422
2410.70557	0.21531
2408.77700	0.21634
2406.84844	0.21739
2404.91987	0.21856
2402.99131	0.21988
2401.06274	0.22121
2399.13418	0.22251
2397.20562	0.22375
2395.27705	0.22495
2393.34849	0.22615
2391.41992	0.22737
2389.49136	0.22870
2387.56279	0.23007
2385.63423	0.23138
2383.70566	0.23276
2381.77710	0.23432
2379.84854	0.23591
2377.91997	0.23739
2375.99141	0.23895
2374.06284	0.24072
2372.13428	0.24227
2370.20571	0.24334
2368.27715	0.24443
2366.34858	0.24615
2364.42002	0.24817
2362.49146	0.24984
2360.56289	0.25116
2358.63433	0.25251
2356.70576	0.25395
2354.77720	0.25565
2352.84863	0.25808
2350.92007	0.26002
2348.99150	0.26077
2347.06294	0.26120
2345.13437	0.26246
2343.20581	0.26492
2341.27725	0.26714
2339.34868	0.26863
2337.42012	0.27024
2335.49155	0.27212
2333.56299	0.27391
2331.63442	0.27556
2329.70586	0.27702
2327.77729	0.27838
2325.84873	0.27990
2323.92017	0.28179
2321.99160	0.28393
2320.06304	0.28594
2318.13447	0.28767
2316.20591	0.28914
2314.27734	0.29058
2312.34878	0.29229
2310.42021	0.29420
2308.49165	0.29603
2306.56309	0.29783
2304.63452	0.29964
2302.70596	0.30135
2300.77739	0.30301
2298.84883	0.30472
2296.92026	0.30653
2294.99170	0.30856
2293.06313	0.31076
2291.13457	0.31285
2289.20601	0.31481
2287.27744	0.31675
2285.34888	0.31870
2283.42031	0.32067
2281.49175	0.32259
2279.56318	0.32448
2277.63462	0.32657
2275.70605	0.32885
2273.77749	0.33106
2271.84893	0.33317
2269.92036	0.33527
2267.99180	0.33737
2266.06323	0.33944
2264.13467	0.34158
2262.20610	0.34384
2260.27754	0.34604
2258.34897	0.34819
2256.42041	0.35039
2254.49185	0.35266
2252.56328	0.35491
2250.63472	0.35708
2248.70615	0.35920
2246.77759	0.36135
2244.84902	0.36360
2242.92046	0.36593
2240.99189	0.36823
2239.06333	0.37049
2237.13477	0.37281
2235.20620	0.37512
2233.27764	0.37741
2231.34907	0.37979
2229.42051	0.38210
2227.49194	0.38430
2225.56338	0.38659
2223.63481	0.38895
2221.70625	0.39116
2219.77769	0.39322
2217.84912	0.39535
2215.92056	0.39762
2213.99199	0.39989
2212.06343	0.40210
2210.13486	0.40426
2208.20630	0.40635
2206.27773	0.40847
2204.34917	0.41070
2202.42061	0.41299
2200.49204	0.41518
2198.56348	0.41715
2196.63491	0.41889
2194.70635	0.42066
2192.77778	0.42266
2190.84922	0.42478
2188.92065	0.42678
2186.99209	0.42861
2185.06353	0.43039
2183.13496	0.43223
2181.20640	0.43409
2179.27783	0.43588
2177.34927	0.43753
2175.42070	0.43906
2173.49214	0.44051
2171.56357	0.44189
2169.63501	0.44327
2167.70645	0.44470
2165.77788	0.44612
2163.84932	0.44742
2161.92075	0.44858
2159.99219	0.44971
2158.06362	0.45073
2156.13506	0.45162
2154.20649	0.45252
2152.27793	0.45353
2150.34937	0.45447
2148.42080	0.45517
2146.49224	0.45565
2144.56367	0.45603
2142.63511	0.45648
2140.70654	0.45694
2138.77798	0.45722
2136.84941	0.45735
2134.92085	0.45741
2132.99229	0.45746
2131.06372	0.45759
2129.13516	0.45767
2127.20659	0.45749
2125.27803	0.45706
2123.34946	0.45655
2121.42090	0.45605
2119.49233	0.45554
2117.56377	0.45496
2115.63521	0.45427
2113.70664	0.45349
2111.77808	0.45258
2109.84951	0.45155
2107.92095	0.45055
2105.99238	0.44949
2104.06382	0.44831
2102.13525	0.44703
2100.20669	0.44570
2098.27812	0.44435
2096.34956	0.44295
2094.42100	0.44138
2092.49243	0.43968
2090.56387	0.43796
2088.63530	0.43621
2086.70674	0.43447
2084.77817	0.43274
2082.84961	0.43095
2080.92104	0.42902
2078.99248	0.42694
2077.06392	0.42470
2075.13535	0.42243
2073.20679	0.42030
2071.27822	0.41815
2069.34966	0.41589
2067.42109	0.41359
2065.49253	0.41133
2063.56396	0.40893
2061.63540	0.40644
2059.70684	0.40403
2057.77827	0.40155
2055.84971	0.39890
2053.92114	0.39622
2051.99258	0.39366
2050.06401	0.39114
2048.13545	0.38852
2046.20688	0.38580
2044.27832	0.38307
2042.34976	0.38029
2040.42119	0.37745
2038.49263	0.37469
2036.56406	0.37203
2034.63550	0.36929
2032.70693	0.36650
2030.77837	0.36381
2028.84980	0.36113
2026.92124	0.35841
2024.99268	0.35563
2023.06411	0.35280
2021.13555	0.34993
2019.20698	0.34709
2017.27842	0.34431
2015.34985	0.34151
2013.42129	0.33875
2011.49272	0.33604
2009.56416	0.33329
2007.63560	0.33049
2005.70703	0.32779
2003.77847	0.32513
2001.84990	0.32242
1999.92134	0.31965
1997.99277	0.31689
1996.06421	0.31428
1994.13564	0.31184
1992.20708	0.30947
1990.27852	0.30695
1988.34995	0.30434
1986.42139	0.30178
1984.49282	0.29929
1982.56426	0.29691
1980.63569	0.29457
1978.70713	0.29224
1976.77856	0.28997
1974.85000	0.28777
1972.92144	0.28555
1970.99287	0.28340
1969.06431	0.28141
1967.13574	0.27945
1965.20718	0.27733
1963.27861	0.27519
1961.35005	0.27318
1959.42148	0.27129
1957.49292	0.26943
1955.56436	0.26756
1953.63579	0.26574
1951.70723	0.26399
1949.77866	0.26234
1947.85010	0.26075
1945.92153	0.25924
1943.99297	0.25788
1942.06440	0.25648
1940.13584	0.25490
1938.20728	0.25338
1936.27871	0.25201
1934.35015	0.25063
1932.42158	0.24932
1930.49302	0.24809
1928.56445	0.24690
1926.63589	0.24580
1924.70732	0.24491
1922.77876	0.24402
1920.85020	0.24297
1918.92163	0.24201
1916.99307	0.24118
1915.06450	0.24024
1913.13594	0.23928
1911.20737	0.23853
1909.27881	0.23793
1907.35024	0.23730
1905.42168	0.23660
1903.49312	0.23595
1901.56455	0.23534
1899.63599	0.23480
1897.70742	0.23440
1895.77886	0.23410
1893.85029	0.23377
1891.92173	0.23341
1889.99316	0.23323
1888.06460	0.23298
1886.13604	0.23249
1884.20747	0.23210
1882.27891	0.23195
1880.35034	0.23193
1878.42178	0.23190
1876.49321	0.23192
1874.56465	0.23193
1872.63608	0.23197
1870.70752	0.23221
1868.77896	0.23276
1866.85039	0.23308
1864.92183	0.23295
1862.99326	0.23295
1861.06470	0.23329
1859.13613	0.23380
1857.20757	0.23425
1855.27900	0.23471
1853.35044	0.23513
1851.42187	0.23555
1849.49331	0.23608
1847.56475	0.23684
1845.63618	0.23778
1843.70762	0.23885
1841.77905	0.23964
1839.85049	0.24002
1837.92192	0.24067
1835.99336	0.24163
1834.06479	0.24266
1832.13623	0.24375
1830.20767	0.24528
1828.27910	0.24690
1826.35054	0.24801
1824.42197	0.24921
1822.49341	0.25046
1820.56484	0.25172
1818.63628	0.25311
1816.70771	0.25467
1814.77915	0.25627
1812.85059	0.25810
1810.92202	0.26019
1808.99346	0.26226
1807.06489	0.26421
1805.13633	0.26614
1803.20776	0.26836
1801.27920	0.27096
1799.35063	0.27390
1797.42207	0.27649
1795.49351	0.27886
1793.56494	0.28172
1791.63638	0.28546
1789.70781	0.28897
1787.77925	0.29158
1785.85068	0.29472
1783.92212	0.29854
1781.99355	0.30264
1780.06499	0.30691
1778.13643	0.31128
1776.20786	0.31545
1774.27930	0.31988
1772.35073	0.32569
1770.42217	0.33195
1768.49360	0.33731
1766.56504	0.34256
1764.63647	0.34807
1762.70791	0.35414
1760.77935	0.36165
1758.85078	0.36871
1756.92222	0.37585
1754.99365	0.38369
1753.06509	0.39082
1751.13652	0.39918
1749.20796	0.40960
1747.27939	0.41981
1745.35083	0.42890
1743.42227	0.43859
1741.49370	0.44925
1739.56514	0.46169
1737.63657	0.47420
1735.70801	0.48526
1733.77944	0.50149
1731.85088	0.52080
1729.92231	0.53650
1727.99375	0.55274
1726.06519	0.57032
1724.13662	0.58923
1722.20806	0.60940
1720.27949	0.62815
1718.35093	0.65004
1716.42236	0.68186
1714.49380	0.71256
1712.56523	0.73795
1710.63667	0.76261
1708.70811	0.78890
1706.77954	0.81835
1704.85098	0.85287
1702.92241	0.88386
1700.99385	0.91499
1699.06528	0.96063
1697.13672	1.00230
1695.20815	1.04500
1693.27959	1.08748
1691.35103	1.12193
1689.42246	1.16101
1687.49390	1.20209
1685.56533	1.24211
1683.63677	1.30258
1681.70820	1.36514
1679.77964	1.40592
1677.85107	1.44461
1675.92251	1.48881
1673.99395	1.54321
1672.06538	1.59254
1670.13682	1.64073
1668.20825	1.70172
1666.27969	1.75186
1664.35112	1.79495
1662.42256	1.84833
1660.49399	1.90844
1658.56543	1.95650
1656.63687	1.99569
1654.70830	2.03182
1652.77974	2.08673
1650.85117	2.13759
1648.92261	2.15641
1646.99404	2.18267
1645.06548	2.21541
1643.13691	2.23782
1641.20835	2.24991
1639.27979	2.26019
1637.35122	2.26784
1635.42266	2.27042
1633.49409	2.26404
1631.56553	2.24969
1629.63696	2.23271
1627.70840	2.20619
1625.77983	2.17542
1623.85127	2.13743
1621.92271	2.09043
1619.99414	2.04656
1618.06558	2.00268
1616.13701	1.94141
1614.20845	1.87963
1612.27988	1.83237
1610.35132	1.78240
1608.42275	1.72755
1606.49419	1.67321
1604.56562	1.62302
1602.63706	1.57482
1600.70850	1.52785
1598.77993	1.48445
1596.85137	1.44376
1594.92280	1.40429
1592.99424	1.36593
1591.06567	1.33043
1589.13711	1.29720
1587.20854	1.26670
1585.27998	1.23861
1583.35142	1.21196
1581.42285	1.18719
1579.49429	1.16566
1577.56572	1.14612
1575.63716	1.12290
1573.70859	1.10237
1571.78003	1.08842
1569.85146	1.07389
1567.92290	1.05799
1565.99434	1.04561
1564.06577	1.03570
1562.13721	1.02770
1560.20864	1.02158
1558.28008	1.01356
1556.35151	1.00631
1554.42295	1.00147
1552.49438	0.99657
1550.56582	0.99072
1548.63726	0.98357
1546.70869	0.97582
1544.78013	0.96670
1542.85156	0.95553
1540.92300	0.94108
1538.99443	0.92041
1537.06587	0.90448
1535.13730	0.89340
1533.20874	0.87961
1531.28018	0.86481
1529.35161	0.85343
1527.42305	0.84277
1525.49448	0.83218
1523.56592	0.82315
1521.63735	0.81420
1519.70879	0.80455
1517.78022	0.79624
1515.85166	0.78761
1513.92310	0.77867
1511.99453	0.77062
1510.06597	0.76344
1508.13740	0.75669
1506.20884	0.74672
1504.28027	0.73765
1502.35171	0.73234
1500.42314	0.72784
1498.49458	0.72301
1496.56602	0.71729
1494.63745	0.71158
1492.70889	0.70710
1490.78032	0.70322
1488.85176	0.69881
1486.92319	0.69449
1484.99463	0.69096
1483.06606	0.68814
1481.13750	0.68568
1479.20894	0.68338
1477.28037	0.68148
1475.35181	0.67998
1473.42324	0.67858
1471.49468	0.67642
1469.56611	0.67363
1467.63755	0.67107
1465.70898	0.66891
1463.78042	0.66703
1461.85186	0.66559
1459.92329	0.66465
1457.99473	0.66386
1456.06616	0.66248
1454.13760	0.66034
1452.20903	0.65802
1450.28047	0.65553
1448.35190	0.65300
1446.42334	0.65048
1444.49478	0.64823
1442.56621	0.64628
1440.63765	0.64439
1438.70908	0.64248
1436.78052	0.64027
1434.85195	0.63775
1432.92339	0.63563
1430.99482	0.63420
1429.06626	0.63330
1427.13770	0.63267
1425.20913	0.63231
1423.28057	0.63214
1421.35200	0.63190
1419.42344	0.63167
1417.49487	0.63118
1415.56631	0.63002
1413.63774	0.62878
1411.70918	0.62784
1409.78062	0.62723
1407.85205	0.62694
1405.92349	0.62702
1403.99492	0.62709
1402.06636	0.62645
1400.13779	0.62515
1398.20923	0.62341
1396.28066	0.62140
1394.35210	0.61886
1392.42354	0.61587
1390.49497	0.61293
1388.56641	0.61004
1386.63784	0.60702
1384.70928	0.60390
1382.78071	0.60080
1380.85215	0.59787
1378.92358	0.59542
1376.99502	0.59364
1375.06646	0.59247
1373.13789	0.59157
1371.20933	0.59063
1369.28076	0.58961
1367.35220	0.58848
1365.42363	0.58723
1363.49507	0.58603
1361.56650	0.58485
1359.63794	0.58356
1357.70937	0.58240
1355.78081	0.58149
1353.85225	0.58055
1351.92368	0.57952
1349.99512	0.57863
1348.06655	0.57790
1346.13799	0.57714
1344.20942	0.57630
1342.28086	0.57549
1340.35229	0.57480
1338.42373	0.57412
1336.49517	0.57330
1334.56660	0.57254
1332.63804	0.57202
1330.70947	0.57168
1328.78091	0.57154
1326.85234	0.57156
1324.92378	0.57161
1322.99521	0.57173
1321.06665	0.57187
1319.13809	0.57186
1317.20952	0.57157
1315.28096	0.57109
1313.35239	0.57052
1311.42383	0.56978
1309.49526	0.56893
1307.56670	0.56814
1305.63813	0.56750
1303.70957	0.56681
1301.78101	0.56595
1299.85244	0.56496
1297.92388	0.56382
1295.99531	0.56262
1294.06675	0.56152
1292.13818	0.56049
1290.20962	0.55945
1288.28105	0.55843
1286.35249	0.55740
1284.42393	0.55644
1282.49536	0.55565
1280.56680	0.55490
1278.63823	0.55400
1276.70967	0.55310
1274.78110	0.55238
1272.85254	0.55171
1270.92397	0.55103
1268.99541	0.55045
1267.06685	0.54981
1265.13828	0.54895
1263.20972	0.54830
1261.28115	0.54805
1259.35259	0.54775
1257.42402	0.54727
1255.49546	0.54694
1253.56689	0.54683
1251.63833	0.54675
1249.70977	0.54671
1247.78120	0.54666
1245.85264	0.54652
1243.92407	0.54624
1241.99551	0.54571
1240.06694	0.54492
1238.13838	0.54394
1236.20981	0.54268
1234.28125	0.54117
1232.35269	0.53960
1230.42412	0.53820
1228.49556	0.53693
1226.56699	0.53564
1224.63843	0.53431
1222.70986	0.53314
1220.78130	0.53224
1218.85273	0.53137
1216.92417	0.53027
1214.99561	0.52920
1213.06704	0.52837
1211.13848	0.52767
1209.20991	0.52705
1207.28135	0.52650
1205.35278	0.52591
1203.42422	0.52524
1201.49565	0.52450
1199.56709	0.52376
1197.63853	0.52311
1195.70996	0.52254
1193.78140	0.52207
1191.85283	0.52166
1189.92427	0.52124
1187.99570	0.52094
1186.06714	0.52081
1184.13857	0.52068
1182.21001	0.52070
1180.28145	0.52125
1178.35288	0.52221
1176.42432	0.52323
1174.49575	0.52411
1172.56719	0.52469
1170.63862	0.52489
1168.71006	0.52487
1166.78149	0.52492
1164.85293	0.52509
1162.92437	0.52519
1160.99580	0.52504
1159.06724	0.52462
1157.13867	0.52396
1155.21011	0.52300
1153.28154	0.52168
1151.35298	0.52005
1149.42441	0.51802
1147.49585	0.51559
1145.56729	0.51291
1143.63872	0.51015
1141.71016	0.50756
1139.78159	0.50537
1137.85303	0.50357
1135.92446	0.50211
1133.99590	0.50104
1132.06733	0.50017
1130.13877	0.49950
1128.21021	0.49904
1126.28164	0.49837
1124.35308	0.49736
1122.42451	0.49637
1120.49595	0.49573
1118.56738	0.49547
1116.63882	0.49541
1114.71025	0.49537
1112.78169	0.49546
1110.85312	0.49592
1108.92456	0.49660
1106.99600	0.49731
1105.06743	0.49817
1103.13887	0.49937
1101.21030	0.50110
1099.28174	0.50332
1097.35317	0.50589
1095.42461	0.50889
1093.49604	0.51248
1091.56748	0.51658
1089.63892	0.52117
1087.71035	0.52649
1085.78179	0.53263
1083.85322	0.53941
1081.92466	0.54627
1079.99609	0.55211
1078.06753	0.55595
1076.13896	0.55718
1074.21040	0.55533
1072.28184	0.55085
1070.35327	0.54487
1068.42471	0.53809
1066.49614	0.53112
1064.56758	0.52454
1062.63901	0.51868
1060.71045	0.51368
1058.78188	0.50929
1056.85332	0.50534
1054.92476	0.50199
1052.99619	0.49906
1051.06763	0.49634
1049.13906	0.49391
1047.21050	0.49185
1045.28193	0.49025
1043.35337	0.48913
1041.42480	0.48829
1039.49624	0.48749
1037.56768	0.48673
1035.63911	0.48612
1033.71055	0.48570
1031.78198	0.48553
1029.85342	0.48546
1027.92485	0.48532
1025.99629	0.48521
1024.06772	0.48529
1022.13916	0.48564
1020.21060	0.48613
1018.28203	0.48654
1016.35347	0.48696
1014.42490	0.48767
1012.49634	0.48868
1010.56777	0.48982
1008.63921	0.49110
1006.71064	0.49265
1004.78208	0.49462
1002.85352	0.49697
1000.92495	0.49965
998.99639	0.50283
997.06782	0.50651
995.13926	0.51043
993.21069	0.51429
991.28213	0.51775
989.35356	0.52043
987.42500	0.52208
985.49644	0.52278
983.56787	0.52309
981.63931	0.52370
979.71074	0.52486
977.78218	0.52663
975.85361	0.52903
973.92505	0.53192
971.99648	0.53515
970.06792	0.53862
968.13936	0.54230
966.21079	0.54633
964.28223	0.55086
962.35366	0.55590
960.42510	0.56114
958.49653	0.56646
956.56797	0.57206
954.63940	0.57795
952.71084	0.58402
950.78228	0.59033
948.85371	0.59688
946.92515	0.60343
944.99658	0.60987
943.06802	0.61635
941.13945	0.62262
939.21089	0.62820
937.28232	0.63327
935.35376	0.63869
933.42520	0.64466
931.49663	0.65072
929.56807	0.65694
927.63950	0.66328
925.71094	0.66908
923.78237	0.67455
921.85381	0.68034
919.92524	0.68682
917.99668	0.69425
916.06812	0.70217
914.13955	0.71002
912.21099	0.71777
910.28242	0.72541
908.35386	0.73328
906.42529	0.74164
904.49673	0.75046
902.56816	0.76012
900.63960	0.77040
898.71104	0.78069
896.78247	0.79092
894.85391	0.80037
892.92534	0.80907
890.99678	0.81893
889.06821	0.83082
887.13965	0.84271
885.21108	0.85305
883.28252	0.86318
881.35396	0.87387
879.42539	0.88489
877.49683	0.89691
875.56826	0.91010
873.63970	0.92335
871.71113	0.93562
869.78257	0.94692
867.85400	0.95796
865.92544	0.96907
863.99687	0.97910
862.06831	0.98833
860.13975	0.99985
858.21118	1.01425
856.28262	1.02815
854.35405	1.03940
852.42549	1.04961
850.49692	1.06126
848.56836	1.07399
846.63979	1.08531
844.71123	1.09464
842.78267	1.10373
840.85410	1.11373
838.92554	1.12512
836.99697	1.13778
835.06841	1.14943
833.13984	1.16009
831.21128	1.17211
829.28271	1.18554
827.35415	1.19939
825.42559	1.21226
823.49702	1.22507
821.56846	1.23732
819.63989	1.24921
817.71133	1.26445
815.78276	1.27841
813.85420	1.28612
811.92563	1.29005
809.99707	1.28968
808.06851	1.29081
806.13994	1.29780
804.21138	1.29874
802.28281	1.29671
800.35425	1.30285
798.42568	1.31131
796.49712	1.31490
794.56855	1.32471
792.63999	1.35469
790.71143	1.37762
788.78286	1.37708
786.85430	1.38943
784.92573	1.42181
782.99717	1.46201
781.06860	1.50362
779.14004	1.49218
777.21147	1.44317
775.28291	1.42076
773.35435	1.40484
771.42578	1.35892
769.49722	1.27764
767.56865	1.23504
765.64009	1.29309
763.71152	1.40953
761.78296	1.46582
759.85439	1.45867
757.92583	1.44212
755.99727	1.39784
754.06870	1.29386
752.14014	1.17190
750.21157	1.10742
748.28301	1.11097
746.35444	1.15183
744.42588	1.15026
742.49731	1.03442
740.56875	0.91156
738.64019	0.86692
736.71162	0.86350
734.78306	0.82175
732.85449	0.73510
730.92593	0.63892
728.99736	0.53934
727.06880	0.44095
725.14023	0.38906
723.21167	0.42163
721.28311	0.53730
719.35454	0.71402
717.42598	0.51730
715.49741	0.28279
713.56885	0.19017
711.64028	0.09345
709.71172	-0.00885
707.78315	-0.01576
705.85459	-0.00967
703.92603	0.03415
701.99746	0.16200
700.06890	0.24381
698.14033	0.19010
696.21177	0.18915
694.28320	0.25602
692.35464	0.24919
690.42607	0.18636
688.49751	0.14904
686.56895	0.14950
684.64038	0.14954
682.71182	0.19137
680.78325	0.32906
678.85469	0.47488
676.92612	0.43235
674.99756	0.30839
673.06899	0.25765
671.14043	0.25784
669.21187	0.28094
667.28330	0.31852
665.35474	0.28392
663.42617	0.26873
661.49761	0.35523
659.56904	0.34750
657.64048	0.25296
655.71191	0.21871
653.78335	0.22595
651.85479	0.26767
649.92622	0.31406
647.99766	0.29726
646.06909	0.26612
644.14053	0.29987
642.21196	0.27885
640.28340	0.19655
638.35483	0.18329
636.42627	0.21592
634.49771	0.20226
632.56914	0.13273
630.64058	0.10616
628.71201	0.16637
626.78345	0.25306
624.85488	0.30702
622.92632	0.26874
620.99775	0.17958
619.06919	0.17036
617.14062	0.21930
615.21206	0.19781
613.28350	0.13864
611.35493	0.15968
609.42637	0.20707
607.49780	0.21159
605.56924	0.21201
603.64067	0.19905
601.71211	0.14414
599.78354	0.09492
597.85498	0.11631
595.92642	0.19146
593.99785	0.19722
592.06929	0.17102
590.14072	0.13888
588.21216	0.12563
586.28359	0.17853
584.35503	0.24714
582.42646	0.30543
580.49790	0.38181
578.56934	0.46497
576.64077	0.47445
574.71221	0.38051
572.78364	0.29063
570.85508	0.25604
568.92651	0.23362
566.99795	0.15943
565.06938	0.13114
563.14082	0.19973
561.21226	0.25584
559.28369	0.21267
557.35513	0.16130
555.42656	0.16660
553.49800	0.22999
551.56943	0.26893
549.64087	0.21633
547.71230	0.16117
545.78374	0.16349
543.85518	0.18688
541.92661	0.21943
539.99805	0.24930
538.06948	0.15732
536.14092	0.09210
534.21235	0.11710
532.28379	0.18360
530.35522	0.22810
528.42666	0.21630
526.49810	0.19029
524.56953	0.17010
522.64097	0.14889
520.71240	0.16576
518.78384	0.21805
516.85527	0.26535
514.92671	0.25369
512.99814	0.18543
511.06958	0.14029
509.14102	0.11400
507.21245	0.07983
505.28389	0.06367
503.35532	0.08538
501.42676	0.11542
499.49819	0.12526
