3997.91411	0.05832
3995.98555	0.05895
3994.05698	0.05952
3992.12842	0.05993
3990.19985	0.05996
3988.27129	0.05967
3986.34272	0.05955
3984.41416	0.06003
3982.48560	0.06078
3980.55703	0.06127
3978.62847	0.06151
3976.69990	0.06172
3974.77134	0.06202
3972.84277	0.06236
3970.91421	0.06263
3968.98564	0.06268
3967.05708	0.06262
3965.12852	0.06293
3963.19995	0.06379
3961.27139	0.06466
3959.34282	0.06481
3957.41426	0.06422
3955.48569	0.06369
3953.55713	0.06383
3951.62856	0.06472
3949.70000	0.06593
3947.77144	0.06669
3945.84287	0.06655
3943.91431	0.06643
3941.98574	0.06662
3940.05718	0.06604
3938.12861	0.06521
3936.20005	0.06520
3934.27148	0.06589
3932.34292	0.06677
3930.41436	0.06691
3928.48579	0.06597
3926.55723	0.06540
3924.62866	0.06614
3922.70010	0.06668
3920.77153	0.06630
3918.84297	0.06633
3916.91440	0.06664
3914.98584	0.06595
3913.05728	0.06462
3911.12871	0.06375
3909.20015	0.06379
3907.27158	0.06510
3905.34302	0.06768
3903.41445	0.07029
3901.48589	0.07120
3899.55732	0.07039
3897.62876	0.06853
3895.70020	0.06645
3893.77163	0.06579
3891.84307	0.06709
3889.91450	0.06789
3887.98594	0.06703
3886.05737	0.06713
3884.12881	0.06844
3882.20024	0.06925
3880.27168	0.06941
3878.34312	0.06849
3876.41455	0.06765
3874.48599	0.06886
3872.55742	0.07113
3870.62886	0.07260
3868.70029	0.07262
3866.77173	0.07170
3864.84316	0.07206
3862.91460	0.07301
3860.98604	0.07209
3859.05747	0.07082
3857.12891	0.07143
3855.20034	0.07434
3853.27178	0.07905
3851.34321	0.08003
3849.41465	0.07560
3847.48608	0.07226
3845.55752	0.07194
3843.62896	0.07417
3841.70039	0.07757
3839.77183	0.08107
3837.84326	0.08373
3835.91470	0.08347
3833.98613	0.08137
3832.05757	0.08001
3830.12900	0.07943
3828.20044	0.07936
3826.27187	0.08029
3824.34331	0.08201
3822.41475	0.08461
3820.48618	0.08833
3818.55762	0.08998
3816.62905	0.08948
3814.70049	0.08864
3812.77192	0.08661
3810.84336	0.08496
3808.91479	0.08574
3806.98623	0.08882
3805.05767	0.09178
3803.12910	0.09411
3801.20054	0.09712
3799.27197	0.09852
3797.34341	0.09813
3795.41484	0.09773
3793.48628	0.09656
3791.55771	0.09571
3789.62915	0.09635
3787.70059	0.09801
3785.77202	0.10030
3783.84346	0.10241
3781.91489	0.10392
3779.98633	0.10607
3778.05776	0.10842
3776.12920	0.10922
3774.20063	0.10963
3772.27207	0.11110
3770.34351	0.11405
3768.41494	0.11759
3766.48638	0.11993
3764.55781	0.12152
3762.62925	0.12303
3760.70068	0.12547
3758.77212	0.12924
3756.84355	0.13227
3754.91499	0.13470
3752.98643	0.13903
3751.05786	0.14579
3749.12930	0.15149
3747.20073	0.15318
3745.27217	0.15440
3743.34360	0.15703
3741.41504	0.15914
3739.48647	0.16089
3737.55791	0.16470
3735.62935	0.17201
3733.70078	0.17978
3731.77222	0.18302
3729.84365	0.18424
3727.91509	0.18729
3725.98652	0.19325
3724.05796	0.20055
3722.12939	0.20727
3720.20083	0.21340
3718.27227	0.21920
3716.34370	0.22554
3714.41514	0.23354
3712.48657	0.24509
3710.55801	0.26041
3708.62944	0.27354
3706.70088	0.28261
3704.77231	0.29230
3702.84375	0.30570
3700.91519	0.32326
3698.98662	0.34121
3697.05806	0.35824
3695.12949	0.37727
3693.20093	0.39829
3691.27236	0.42201
3689.34380	0.45212
3687.41523	0.48639
3685.48667	0.51504
3683.55811	0.53991
3681.62954	0.56774
3679.70098	0.60034
3677.77241	0.63586
3675.84385	0.67812
3673.91528	0.73096
3671.98672	0.77311
3670.05815	0.81223
3668.12959	0.86446
3666.20103	0.91127
3664.27246	0.95103
3662.34390	0.99418
3660.41533	1.04135
3658.48677	1.08897
3656.55820	1.13996
3654.62964	1.19588
3652.70107	1.24393
3650.77251	1.28828
3648.84395	1.34774
3646.91538	1.41418
3644.98682	1.46067
3643.05825	1.49728
3641.12969	1.53686
3639.20112	1.58184
3637.27256	1.62732
3635.34399	1.67136
3633.41543	1.71545
3631.48687	1.75734
3629.55830	1.80078
3627.62974	1.85565
3625.70117	1.90419
3623.77261	1.93710
3621.84404	1.97082
3619.91548	2.01146
3617.98691	2.05954
3616.05835	2.10355
3614.12979	2.13920
3612.20122	2.17664
3610.27266	2.21630
3608.34409	2.25855
3606.41553	2.30207
3604.48696	2.34041
3602.55840	2.37509
3600.62983	2.41302
3598.70127	2.45394
3596.77271	2.49442
3594.84414	2.53578
3592.91558	2.57764
3590.98701	2.61588
3589.05845	2.65252
3587.12988	2.69891
3585.20132	2.74980
3583.27275	2.79148
3581.34419	2.82956
3579.41562	2.87068
3577.48706	2.91321
3575.55850	2.95438
3573.62993	2.99694
3571.70137	3.04035
3569.77280	3.08337
3567.84424	3.12922
3565.91567	3.18097
3563.98711	3.22896
3562.05854	3.27082
3560.12998	3.31408
3558.20142	3.35942
3556.27285	3.40485
3554.34429	3.44829
3552.41572	3.49336
3550.48716	3.54190
3548.55859	3.58961
3546.63003	3.63542
3544.70146	3.68266
3542.77290	3.72998
3540.84434	3.77604
3538.91577	3.82354
3536.98721	3.87108
3535.05864	3.91822
3533.13008	3.96577
3531.20151	4.01352
3529.27295	4.06093
3527.34438	4.11050
3525.41582	4.16034
3523.48726	4.20753
3521.55869	4.25705
3519.63013	4.30780
3517.70156	4.35579
3515.77300	4.40108
3513.84443	4.44675
3511.91587	4.49692
3509.98730	4.55268
3508.05874	4.60750
3506.13018	4.65449
3504.20161	4.69518
3502.27305	4.73684
3500.34448	4.78505
3498.41592	4.83567
3496.48735	4.88556
3494.55879	4.93481
3492.63022	4.98399
3490.70166	5.03513
3488.77310	5.08466
3486.84453	5.12887
3484.91597	5.17155
3482.98740	5.21491
3481.05884	5.26443
3479.13027	5.32416
3477.20171	5.37871
3475.27314	5.41908
3473.34458	5.45977
3471.41602	5.50779
3469.48745	5.55409
3467.55889	5.59811
3465.63032	5.64581
3463.70176	5.69812
3461.77319	5.75491
3459.84463	5.81576
3457.91606	5.87141
3455.98750	5.91852
3454.05894	5.96482
3452.13037	6.01446
3450.20181	6.06507
3448.27324	6.10815
3446.34468	6.14438
3444.41611	6.18626
3442.48755	6.24633
3440.55898	6.31746
3438.63042	6.37580
3436.70186	6.41133
3434.77329	6.44791
3432.84473	6.50797
3430.91616	6.57081
3428.98760	6.61135
3427.05903	6.63996
3425.13047	6.67863
3423.20190	6.72600
3421.27334	6.78588
3419.34478	6.85118
3417.41621	6.90216
3415.48765	6.94485
3413.55908	6.98372
3411.63052	7.03202
3409.70195	7.09503
3407.77339	7.15287
3405.84482	7.19013
3403.91626	7.21915
3401.98770	7.25296
3400.05913	7.30536
3398.13057	7.36180
3396.20200	7.38627
3394.27344	7.39745
3392.34487	7.41113
3390.41631	7.41965
3388.48774	7.42553
3386.55918	7.46793
3384.63062	7.55829
3382.70205	7.65848
3380.77349	7.72339
3378.84492	7.73701
3376.91636	7.74231
3374.98779	7.75130
3373.05923	7.74802
3371.13066	7.75209
3369.20210	7.79548
3367.27354	7.84830
3365.34497	7.89062
3363.41641	7.91514
3361.48784	7.94224
3359.55928	8.02761
3357.63071	8.10072
3355.70215	8.10761
3353.77358	8.08870
3351.84502	8.07091
3349.91646	8.05093
3347.98789	8.03386
3346.05933	8.00760
3344.13076	7.97190
3342.20220	7.98436
3340.27363	8.04288
3338.34507	8.09695
3336.41650	8.10531
3334.48794	8.09270
3332.55937	8.10305
3330.63081	8.14007
3328.70225	8.17614
3326.77368	8.17574
3324.84512	8.12874
3322.91655	8.08670
3320.98799	8.11731
3319.05942	8.13998
3317.13086	8.07709
3315.20229	8.01916
3313.27373	8.03743
3311.34517	8.09657
3309.41660	8.15281
3307.48804	8.17603
3305.55947	8.15273
3303.63091	8.11305
3301.70234	8.10194
3299.77378	8.17135
3297.84521	8.26528
3295.91665	8.28864
3293.98809	8.26780
3292.05952	8.26902
3290.13096	8.28800
3288.20239	8.29998
3286.27383	8.25692
3284.34526	8.13354
3282.41670	8.07146
3280.48813	8.11819
3278.55957	8.16573
3276.63101	8.15098
3274.70244	8.07944
3272.77388	8.01647
3270.84531	8.07267
3268.91675	8.23464
3266.98818	8.32186
3265.05962	8.28066
3263.13105	8.25712
3261.20249	8.30699
3259.27393	8.34952
3257.34536	8.32654
3255.41680	8.24981
3253.48823	8.25133
3251.55967	8.38417
3249.63110	8.46603
3247.70254	8.39877
3245.77397	8.30932
3243.84541	8.30933
3241.91685	8.30914
3239.98828	8.24325
3238.05972	8.22340
3236.13115	8.24221
3234.20259	8.23586
3232.27402	8.22696
3230.34546	8.20522
3228.41689	8.17532
3226.48833	8.17559
3224.55977	8.14909
3222.63120	8.08149
3220.70264	8.04336
3218.77407	8.04113
3216.84551	8.01541
3214.91694	7.97144
3212.98838	7.97090
3211.05981	7.98430
3209.13125	7.95610
3207.20269	7.88273
3205.27412	7.81483
3203.34556	7.81588
3201.41699	7.84928
3199.48843	7.81295
3197.55986	7.70685
3195.63130	7.65039
3193.70273	7.68430
3191.77417	7.70708
3189.84561	7.66863
3187.91704	7.61782
3185.98848	7.55701
3184.05991	7.47212
3182.13135	7.39964
3180.20278	7.37018
3178.27422	7.35344
3176.34565	7.31315
3174.41709	7.25670
3172.48853	7.20358
3170.55996	7.14762
3168.63140	7.06889
3166.70283	6.98028
3164.77427	6.90976
3162.84570	6.85782
3160.91714	6.80963
3158.98857	6.76334
3157.06001	6.71875
3155.13145	6.64934
3153.20288	6.54503
3151.27432	6.45004
3149.34575	6.38004
3147.41719	6.31252
3145.48862	6.24565
3143.56006	6.16841
3141.63149	6.07621
3139.70293	5.99975
3137.77437	5.94955
3135.84580	5.90316
3133.91724	5.84658
3131.98867	5.77818
3130.06011	5.69724
3128.13154	5.61770
3126.20298	5.55185
3124.27441	5.48775
3122.34585	5.41805
3120.41729	5.34870
3118.48872	5.27665
3116.56016	5.20267
3114.63159	5.13311
3112.70303	5.06722
3110.77446	4.99836
3108.84590	4.92571
3106.91733	4.85720
3104.98877	4.79238
3103.06021	4.72461
3101.13164	4.65406
3099.20308	4.58747
3097.27451	4.52492
3095.34595	4.46027
3093.41738	4.39296
3091.48882	4.32463
3089.56025	4.25844
3087.63169	4.19714
3085.70312	4.13796
3083.77456	4.07771
3081.84600	4.01664
3079.91743	3.95551
3077.98887	3.89497
3076.06030	3.83629
3074.13174	3.77914
3072.20317	3.72070
3070.27461	3.66093
3068.34604	3.60433
3066.41748	3.55067
3064.48892	3.49579
3062.56035	3.43900
3060.63179	3.38235
3058.70322	3.32798
3056.77466	3.27517
3054.84609	3.22231
3052.91753	3.16995
3050.98896	3.11799
3049.06040	3.06530
3047.13184	3.01224
3045.20327	2.96115
3043.27471	2.91327
3041.34614	2.86605
3039.41758	2.81803
3037.48901	2.77118
3035.56045	2.72558
3033.63188	2.67949
3031.70332	2.63257
3029.77476	2.58595
3027.84619	2.54079
3025.91763	2.49718
3023.98906	2.45432
3022.06050	2.41156
3020.13193	2.36899
3018.20337	2.32744
3016.27480	2.28740
3014.34624	2.24826
3012.41768	2.20949
3010.48911	2.17099
3008.56055	2.13318
3006.63198	2.09662
3004.70342	2.06064
3002.77485	2.02481
3000.84629	1.98990
2998.91772	1.95607
2996.98916	1.92277
2995.06060	1.89005
2993.13203	1.85815
2991.20347	1.82703
2989.27490	1.79654
2987.34634	1.76623
2985.41777	1.73643
2983.48921	1.70796
2981.56064	1.68015
2979.63208	1.65221
2977.70352	1.62485
2975.77495	1.59885
2973.84639	1.57391
2971.91782	1.54892
2969.98926	1.52320
2968.06069	1.49744
2966.13213	1.47261
2964.20356	1.44850
2962.27500	1.42414
2960.34644	1.39913
2958.41787	1.37409
2956.48931	1.34990
2954.56074	1.32635
2952.63218	1.30240
2950.70361	1.27820
2948.77505	1.25457
2946.84648	1.23165
2944.91792	1.20960
2942.98936	1.18838
2941.06079	1.16736
2939.13223	1.14613
2937.20366	1.12458
2935.27510	1.10306
2933.34653	1.08229
2931.41797	1.06216
2929.48940	1.04194
2927.56084	1.02165
2925.63228	1.00200
2923.70371	0.98330
2921.77515	0.96503
2919.84658	0.94726
2917.91802	0.93025
2915.98945	0.91334
2914.06089	0.89636
2912.13232	0.88022
2910.20376	0.86535
2908.27520	0.85105
2906.34663	0.83661
2904.41807	0.82233
2902.48950	0.80849
2900.56094	0.79487
2898.63237	0.78155
2896.70381	0.76865
2894.77524	0.75588
2892.84668	0.74310
2890.91812	0.73079
2888.98955	0.71927
2887.06099	0.70820
2885.13242	0.69748
2883.20386	0.68723
2881.27529	0.67736
2879.34673	0.66755
2877.41816	0.65744
2875.48960	0.64723
2873.56104	0.63695
2871.63247	0.62621
2869.70391	0.61490
2867.77534	0.60311
2865.84678	0.59112
2863.91821	0.57934
2861.98965	0.56778
2860.06108	0.55638
2858.13252	0.54530
2856.20396	0.53504
2854.27539	0.52559
2852.34683	0.51622
2850.41826	0.50683
2848.48970	0.49795
2846.56113	0.49002
2844.63257	0.48321
2842.70400	0.47712
2840.77544	0.47112
2838.84687	0.46505
2836.91831	0.45919
2834.98975	0.45356
2833.06118	0.44774
2831.13262	0.44163
2829.20405	0.43567
2827.27549	0.43006
2825.34692	0.42444
2823.41836	0.41846
2821.48979	0.41212
2819.56123	0.40584
2817.63267	0.39999
2815.70410	0.39440
2813.77554	0.38884
2811.84697	0.38330
2809.91841	0.37776
2807.98984	0.37230
2806.06128	0.36703
2804.13271	0.36190
2802.20415	0.35683
2800.27559	0.35168
2798.34702	0.34646
2796.41846	0.34133
2794.48989	0.33644
2792.56133	0.33178
2790.63276	0.32714
2788.70420	0.32248
2786.77563	0.31791
2784.84707	0.31364
2782.91851	0.30961
2780.98994	0.30541
2779.06138	0.30106
2777.13281	0.29701
2775.20425	0.29324
2773.27568	0.28949
2771.34712	0.28567
2769.41855	0.28179
2767.48999	0.27805
2765.56143	0.27442
2763.63286	0.27084
2761.70430	0.26741
2759.77573	0.26403
2757.84717	0.26060
2755.91860	0.25729
2753.99004	0.25420
2752.06147	0.25118
2750.13291	0.24809
2748.20435	0.24499
2746.27578	0.24201
2744.34722	0.23925
2742.41865	0.23666
2740.49009	0.23399
2738.56152	0.23121
2736.63296	0.22854
2734.70439	0.22599
2732.77583	0.22343
2730.84727	0.22093
2728.91870	0.21857
2726.99014	0.21633
2725.06157	0.21405
2723.13301	0.21179
2721.20444	0.20965
2719.27588	0.20765
2717.34731	0.20568
2715.41875	0.20364
2713.49019	0.20171
2711.56162	0.19996
2709.63306	0.19819
2707.70449	0.19636
2705.77593	0.19463
2703.84736	0.19297
2701.91880	0.19127
2699.99023	0.18962
2698.06167	0.18813
2696.13311	0.18675
2694.20454	0.18537
2692.27598	0.18396
2690.34741	0.18256
2688.41885	0.18126
2686.49028	0.18008
2684.56172	0.17884
2682.63315	0.17742
2680.70459	0.17615
2678.77603	0.17517
2676.84746	0.17420
2674.91890	0.17311
2672.99033	0.17195
2671.06177	0.17079
2669.13320	0.16979
2667.20464	0.16875
2665.27607	0.16752
2663.34751	0.16646
2661.41895	0.16569
2659.49038	0.16494
2657.56182	0.16414
2655.63325	0.16331
2653.70469	0.16246
2651.77612	0.16176
2649.84756	0.16123
2647.91899	0.16060
2645.99043	0.15979
2644.06187	0.15909
2642.13330	0.15860
2640.20474	0.15808
2638.27617	0.15760
2636.34761	0.15731
2634.41904	0.15702
2632.49048	0.15655
2630.56191	0.15598
2628.63335	0.15555
2626.70479	0.15523
2624.77622	0.15480
2622.84766	0.15435
2620.91909	0.15396
2618.99053	0.15366
2617.06196	0.15354
2615.13340	0.15343
2613.20483	0.15313
2611.27627	0.15284
2609.34771	0.15276
2607.41914	0.15275
2605.49058	0.15269
2603.56201	0.15268
2601.63345	0.15270
2599.70488	0.15268
2597.77632	0.15264
2595.84775	0.15262
2593.91919	0.15260
2591.99062	0.15264
2590.06206	0.15279
2588.13350	0.15296
2586.20493	0.15305
2584.27637	0.15311
2582.34780	0.15316
2580.41924	0.15328
2578.49067	0.15350
2576.56211	0.15387
2574.63354	0.15435
2572.70498	0.15477
2570.77642	0.15505
2568.84785	0.15533
2566.91929	0.15568
2564.99072	0.15607
2563.06216	0.15646
2561.13359	0.15691
2559.20503	0.15740
2557.27646	0.15785
2555.34790	0.15825
2553.41934	0.15869
2551.49077	0.15917
2549.56221	0.15968
2547.63364	0.16028
2545.70508	0.16093
2543.77651	0.16153
2541.84795	0.16207
2539.91938	0.16257
2537.99082	0.16312
2536.06226	0.16373
2534.13369	0.16435
2532.20513	0.16497
2530.27656	0.16565
2528.34800	0.16639
2526.41943	0.16712
2524.49087	0.16780
2522.56230	0.16849
2520.63374	0.16927
2518.70518	0.17010
2516.77661	0.17089
2514.84805	0.17161
2512.91948	0.17233
2510.99092	0.17306
2509.06235	0.17376
2507.13379	0.17454
2505.20522	0.17547
2503.27666	0.17639
2501.34810	0.17719
2499.41953	0.17787
2497.49097	0.17855
2495.56240	0.17940
2493.63384	0.18036
2491.70527	0.18127
2489.77671	0.18205
2487.84814	0.18280
2485.91958	0.18366
2483.99102	0.18465
2482.06245	0.18558
2480.13389	0.18633
2478.20532	0.18706
2476.27676	0.18794
2474.34819	0.18889
2472.41963	0.18985
2470.49106	0.19084
2468.56250	0.19177
2466.63394	0.19268
2464.70537	0.19362
2462.77681	0.19447
2460.84824	0.19528
2458.91968	0.19623
2456.99111	0.19727
2455.06255	0.19814
2453.13398	0.19887
2451.20542	0.19968
2449.27686	0.20071
2447.34829	0.20190
2445.41973	0.20305
2443.49116	0.20408
2441.56260	0.20506
2439.63403	0.20604
2437.70547	0.20697
2435.77690	0.20785
2433.84834	0.20885
2431.91978	0.21003
2429.99121	0.21127
2428.06265	0.21239
2426.13408	0.21336
2424.20552	0.21439
2422.27695	0.21551
2420.34839	0.21657
2418.41982	0.21759
2416.49126	0.21869
2414.56270	0.21981
2412.63413	0.22086
2410.70557	0.22195
2408.77700	0.22322
2406.84844	0.22456
2404.91987	0.22583
2402.99131	0.22702
2401.06274	0.22812
2399.13418	0.22911
2397.20562	0.23023
2395.27705	0.23164
2393.34849	0.23308
2391.41992	0.23438
2389.49136	0.23572
2387.56279	0.23720
2385.63423	0.23877
2383.70566	0.24065
2381.77710	0.24300
2379.84854	0.24573
2377.91997	0.24878
2375.99141	0.25206
2374.06284	0.25552
2372.13428	0.25928
2370.20571	0.26322
2368.27715	0.26711
2366.34858	0.27116
2364.42002	0.27478
2362.49146	0.27742
2360.56289	0.28014
2358.63433	0.28239
2356.70576	0.28295
2354.77720	0.28249
2352.84863	0.28134
2350.92007	0.27966
2348.99150	0.27866
2347.06294	0.27947
2345.13437	0.28275
2343.20581	0.28728
2341.27725	0.29025
2339.34868	0.29177
2337.42012	0.29302
2335.49155	0.29411
2333.56299	0.29514
2331.63442	0.29635
2329.70586	0.29750
2327.77729	0.29867
2325.84873	0.29979
2323.92017	0.30063
2321.99160	0.30127
2320.06304	0.30175
2318.13447	0.30215
2316.20591	0.30269
2314.27734	0.30374
2312.34878	0.30512
2310.42021	0.30633
2308.49165	0.30735
2306.56309	0.30835
2304.63452	0.30942
2302.70596	0.31063
2300.77739	0.31198
2298.84883	0.31335
2296.92026	0.31478
2294.99170	0.31637
2293.06313	0.31813
2291.13457	0.31982
2289.20601	0.32138
2287.27744	0.32297
2285.34888	0.32461
2283.42031	0.32630
2281.49175	0.32826
2279.56318	0.33050
2277.63462	0.33275
2275.70605	0.33493
2273.77749	0.33715
2271.84893	0.33937
2269.92036	0.34139
2267.99180	0.34331
2266.06323	0.34540
2264.13467	0.34761
2262.20610	0.34978
2260.27754	0.35185
2258.34897	0.35387
2256.42041	0.35589
2254.49185	0.35801
2252.56328	0.36028
2250.63472	0.36254
2248.70615	0.36472
2246.77759	0.36684
2244.84902	0.36899
2242.92046	0.37124
2240.99189	0.37354
2239.06333	0.37579
2237.13477	0.37805
2235.20620	0.38033
2233.27764	0.38262
2231.34907	0.38487
2229.42051	0.38711
2227.49194	0.38938
2225.56338	0.39166
2223.63481	0.39392
2221.70625	0.39607
2219.77769	0.39815
2217.84912	0.40032
2215.92056	0.40266
2213.99199	0.40497
2212.06343	0.40713
2210.13486	0.40923
2208.20630	0.41134
2206.27773	0.41346
2204.34917	0.41560
2202.42061	0.41775
2200.49204	0.41986
2198.56348	0.42183
2196.63491	0.42371
2194.70635	0.42568
2192.77778	0.42768
2190.84922	0.42962
2188.92065	0.43152
2186.99209	0.43337
2185.06353	0.43515
2183.13496	0.43683
2181.20640	0.43846
2179.27783	0.44014
2177.34927	0.44187
2175.42070	0.44353
2173.49214	0.44505
2171.56357	0.44645
2169.63501	0.44790
2167.70645	0.44941
2165.77788	0.45080
2163.84932	0.45200
2161.92075	0.45313
2159.99219	0.45431
2158.06362	0.45544
2156.13506	0.45634
2154.20649	0.45705
2152.27793	0.45780
2150.34937	0.45858
2148.42080	0.45925
2146.49224	0.45976
2144.56367	0.46020
2142.63511	0.46074
2140.70654	0.46122
2138.77798	0.46148
2136.84941	0.46162
2134.92085	0.46166
2132.99229	0.46161
2131.06372	0.46155
2129.13516	0.46141
2127.20659	0.46111
2125.27803	0.46076
2123.34946	0.46041
2121.42090	0.46004
2119.49233	0.45956
2117.56377	0.45908
2115.63521	0.45851
2113.70664	0.45774
2111.77808	0.45683
2109.84951	0.45584
2107.92095	0.45476
2105.99238	0.45355
2104.06382	0.45227
2102.13525	0.45098
2100.20669	0.44967
2098.27812	0.44827
2096.34956	0.44673
2094.42100	0.44516
2092.49243	0.44366
2090.56387	0.44212
2088.63530	0.44041
2086.70674	0.43853
2084.77817	0.43649
2082.84961	0.43437
2080.92104	0.43230
2078.99248	0.43029
2077.06392	0.42833
2075.13535	0.42632
2073.20679	0.42409
2071.27822	0.42181
2069.34966	0.41964
2067.42109	0.41742
2065.49253	0.41502
2063.56396	0.41246
2061.63540	0.40990
2059.70684	0.40745
2057.77827	0.40505
2055.84971	0.40255
2053.92114	0.39997
2051.99258	0.39738
2050.06401	0.39472
2048.13545	0.39206
2046.20688	0.38939
2044.27832	0.38668
2042.34976	0.38394
2040.42119	0.38120
2038.49263	0.37849
2036.56406	0.37573
2034.63550	0.37284
2032.70693	0.36991
2030.77837	0.36710
2028.84980	0.36438
2026.92124	0.36160
2024.99268	0.35875
2023.06411	0.35596
2021.13555	0.35332
2019.20698	0.35075
2017.27842	0.34811
2015.34985	0.34523
2013.42129	0.34225
2011.49272	0.33930
2009.56416	0.33645
2007.63560	0.33368
2005.70703	0.33098
2003.77847	0.32830
2001.84990	0.32559
1999.92134	0.32294
1997.99277	0.32034
1996.06421	0.31775
1994.13564	0.31536
1992.20708	0.31310
1990.27852	0.31063
1988.34995	0.30799
1986.42139	0.30532
1984.49282	0.30268
1982.56426	0.30018
1980.63569	0.29783
1978.70713	0.29556
1976.77856	0.29327
1974.85000	0.29096
1972.92144	0.28874
1970.99287	0.28670
1969.06431	0.28492
1967.13574	0.28317
1965.20718	0.28102
1963.27861	0.27866
1961.35005	0.27652
1959.42148	0.27453
1957.49292	0.27258
1955.56436	0.27072
1953.63579	0.26896
1951.70723	0.26724
1949.77866	0.26554
1947.85010	0.26395
1945.92153	0.26260
1943.99297	0.26151
1942.06440	0.26027
1940.13584	0.25849
1938.20728	0.25666
1936.27871	0.25513
1934.35015	0.25375
1932.42158	0.25244
1930.49302	0.25120
1928.56445	0.25005
1926.63589	0.24900
1924.70732	0.24826
1922.77876	0.24776
1920.85020	0.24695
1918.92163	0.24600
1916.99307	0.24494
1915.06450	0.24359
1913.13594	0.24247
1911.20737	0.24196
1909.27881	0.24159
1907.35024	0.24086
1905.42168	0.23987
1903.49312	0.23906
1901.56455	0.23843
1899.63599	0.23789
1897.70742	0.23759
1895.77886	0.23749
1893.85029	0.23721
1891.92173	0.23677
1889.99316	0.23666
1888.06460	0.23644
1886.13604	0.23587
1884.20747	0.23546
1882.27891	0.23527
1880.35034	0.23523
1878.42178	0.23519
1876.49321	0.23507
1874.56465	0.23490
1872.63608	0.23505
1870.70752	0.23596
1868.77896	0.23743
1866.85039	0.23784
1864.92183	0.23696
1862.99326	0.23628
1861.06470	0.23627
1859.13613	0.23665
1857.20757	0.23701
1855.27900	0.23734
1853.35044	0.23778
1851.42187	0.23845
1849.49331	0.23931
1847.56475	0.24044
1845.63618	0.24189
1843.70762	0.24319
1841.77905	0.24345
1839.85049	0.24336
1837.92192	0.24396
1835.99336	0.24482
1834.06479	0.24569
1832.13623	0.24705
1830.20767	0.24919
1828.27910	0.25092
1826.35054	0.25170
1824.42197	0.25264
1822.49341	0.25353
1820.56484	0.25445
1818.63628	0.25576
1816.70771	0.25741
1814.77915	0.25909
1812.85059	0.26110
1810.92202	0.26349
1808.99346	0.26556
1807.06489	0.26727
1805.13633	0.26909
1803.20776	0.27155
1801.27920	0.27447
1799.35063	0.27738
1797.42207	0.27981
1795.49351	0.28231
1793.56494	0.28567
1791.63638	0.28969
1789.70781	0.29263
1787.77925	0.29462
1785.85068	0.29758
1783.92212	0.30133
1781.99355	0.30539
1780.06499	0.30970
1778.13643	0.31402
1776.20786	0.31835
1774.27930	0.32357
1772.35073	0.33042
1770.42217	0.33660
1768.49360	0.34096
1766.56504	0.34533
1764.63647	0.35039
1762.70791	0.35652
1760.77935	0.36412
1758.85078	0.37105
1756.92222	0.37813
1754.99365	0.38591
1753.06509	0.39330
1751.13652	0.40251
1749.20796	0.41360
1747.27939	0.42352
1745.35083	0.43186
1743.42227	0.44095
1741.49370	0.45137
1739.56514	0.46369
1737.63657	0.47600
1735.70801	0.48745
1733.77944	0.50465
1731.85088	0.52388
1729.92231	0.53859
1727.99375	0.55372
1726.06519	0.57055
1724.13662	0.58948
1722.20806	0.61012
1720.27949	0.62973
1718.35093	0.65297
1716.42236	0.68530
1714.49380	0.71488
1712.56523	0.73913
1710.63667	0.76329
1708.70811	0.78983
1706.77954	0.82035
1704.85098	0.85626
1702.92241	0.88824
1700.99385	0.92045
1699.06528	0.96774
1697.13672	1.01114
1695.20815	1.05525
1693.27959	1.09871
1691.35103	1.13469
1689.42246	1.17671
1687.49390	1.22159
1685.56533	1.26605
1683.63677	1.33263
1681.70820	1.40006
1679.77964	1.44377
1677.85107	1.48632
1675.92251	1.53564
1673.99395	1.59547
1672.06538	1.64948
1670.13682	1.70288
1668.20825	1.77100
1666.27969	1.82854
1664.35112	1.87959
1662.42256	1.94343
1660.49399	2.01490
1658.56543	2.07121
1656.63687	2.11715
1654.70830	2.15879
1652.77974	2.21695
1650.85117	2.27114
1648.92261	2.29248
1646.99404	2.31758
1645.06548	2.34231
1643.13691	2.35828
1641.20835	2.36732
1639.27979	2.37705
1637.35122	2.38407
1635.42266	2.38223
1633.49409	2.37095
1631.56553	2.35516
1629.63696	2.33820
1627.70840	2.31057
1625.77983	2.27568
1623.85127	2.23019
1621.92271	2.17606
1619.99414	2.12781
1618.06558	2.08099
1616.13701	2.01630
1614.20845	1.94846
1612.27988	1.89455
1610.35132	1.84025
1608.42275	1.78360
1606.49419	1.72785
1604.56562	1.67591
1602.63706	1.62616
1600.70850	1.57820
1598.77993	1.53387
1596.85137	1.49202
1594.92280	1.45180
1592.99424	1.41348
1591.06567	1.37861
1589.13711	1.34608
1587.20854	1.31583
1585.27998	1.28811
1583.35142	1.26293
1581.42285	1.24044
1579.49429	1.22137
1577.56572	1.20477
1575.63716	1.18517
1573.70859	1.16746
1571.78003	1.15630
1569.85146	1.14615
1567.92290	1.13487
1565.99434	1.12652
1564.06577	1.12173
1562.13721	1.11942
1560.20864	1.12015
1558.28008	1.12515
1556.35151	1.12870
1554.42295	1.12982
1552.49438	1.13141
1550.56582	1.13196
1548.63726	1.12964
1546.70869	1.12415
1544.78013	1.11550
1542.85156	1.10346
1540.92300	1.08527
1538.99443	1.05535
1537.06587	1.03097
1535.13730	1.01449
1533.20874	0.99410
1531.28018	0.97187
1529.35161	0.95510
1527.42305	0.93971
1525.49448	0.92406
1523.56592	0.91117
1521.63735	0.89958
1519.70879	0.88736
1517.78022	0.87654
1515.85166	0.86392
1513.92310	0.84991
1511.99453	0.83771
1510.06597	0.82775
1508.13740	0.81909
1506.20884	0.80442
1504.28027	0.78895
1502.35171	0.77987
1500.42314	0.77298
1498.49458	0.76635
1496.56602	0.75844
1494.63745	0.74984
1492.70889	0.74324
1490.78032	0.73836
1488.85176	0.73299
1486.92319	0.72689
1484.99463	0.72157
1483.06606	0.71781
1481.13750	0.71531
1479.20894	0.71367
1477.28037	0.71317
1475.35181	0.71389
1473.42324	0.71493
1471.49468	0.71408
1469.56611	0.71132
1467.63755	0.70884
1465.70898	0.70731
1463.78042	0.70610
1461.85186	0.70526
1459.92329	0.70567
1457.99473	0.70743
1456.06616	0.70761
1454.13760	0.70415
1452.20903	0.70024
1450.28047	0.69682
1448.35190	0.69381
1446.42334	0.69072
1444.49478	0.68767
1442.56621	0.68478
1440.63765	0.68188
1438.70908	0.67922
1436.78052	0.67626
1434.85195	0.67248
1432.92339	0.66928
1430.99482	0.66742
1429.06626	0.66652
1427.13770	0.66615
1425.20913	0.66665
1423.28057	0.66790
1421.35200	0.66908
1419.42344	0.67024
1417.49487	0.67043
1415.56631	0.66897
1413.63774	0.66780
1411.70918	0.66776
1409.78062	0.66849
1407.85205	0.66969
1405.92349	0.67150
1403.99492	0.67322
1402.06636	0.67369
1400.13779	0.67327
1398.20923	0.67217
1396.28066	0.66990
1394.35210	0.66595
1392.42354	0.66083
1390.49497	0.65605
1388.56641	0.65170
1386.63784	0.64661
1384.70928	0.64076
1382.78071	0.63516
1380.85215	0.63018
1378.92358	0.62610
1376.99502	0.62317
1375.06646	0.62130
1373.13789	0.61972
1371.20933	0.61827
1369.28076	0.61743
1367.35220	0.61668
1365.42363	0.61551
1363.49507	0.61424
1361.56650	0.61269
1359.63794	0.61075
1357.70937	0.60904
1355.78081	0.60765
1353.85225	0.60644
1351.92368	0.60552
1349.99512	0.60487
1348.06655	0.60419
1346.13799	0.60330
1344.20942	0.60247
1342.28086	0.60201
1340.35229	0.60185
1338.42373	0.60130
1336.49517	0.60020
1334.56660	0.59925
1332.63804	0.59886
1330.70947	0.59901
1328.78091	0.59958
1326.85234	0.60039
1324.92378	0.60128
1322.99521	0.60218
1321.06665	0.60301
1319.13809	0.60375
1317.20952	0.60428
1315.28096	0.60439
1313.35239	0.60411
1311.42383	0.60352
1309.49526	0.60280
1307.56670	0.60210
1305.63813	0.60142
1303.70957	0.60075
1301.78101	0.60004
1299.85244	0.59903
1297.92388	0.59772
1295.99531	0.59629
1294.06675	0.59492
1292.13818	0.59358
1290.20962	0.59222
1288.28105	0.59089
1286.35249	0.58953
1284.42393	0.58810
1282.49536	0.58665
1280.56680	0.58521
1278.63823	0.58377
1276.70967	0.58236
1274.78110	0.58101
1272.85254	0.57984
1270.92397	0.57897
1268.99541	0.57820
1267.06685	0.57745
1265.13828	0.57673
1263.20972	0.57597
1261.28115	0.57506
1259.35259	0.57417
1257.42402	0.57357
1255.49546	0.57325
1253.56689	0.57319
1251.63833	0.57341
1249.70977	0.57379
1247.78120	0.57395
1245.85264	0.57368
1243.92407	0.57301
1241.99551	0.57206
1240.06694	0.57087
1238.13838	0.56921
1236.20981	0.56700
1234.28125	0.56458
1232.35269	0.56234
1230.42412	0.56016
1228.49556	0.55789
1226.56699	0.55577
1224.63843	0.55382
1222.70986	0.55186
1220.78130	0.55007
1218.85273	0.54858
1216.92417	0.54718
1214.99561	0.54582
1213.06704	0.54480
1211.13848	0.54413
1209.20991	0.54350
1207.28135	0.54272
1205.35278	0.54177
1203.42422	0.54081
1201.49565	0.53992
1199.56709	0.53897
1197.63853	0.53803
1195.70996	0.53727
1193.78140	0.53668
1191.85283	0.53615
1189.92427	0.53566
1187.99570	0.53525
1186.06714	0.53500
1184.13857	0.53501
1182.21001	0.53544
1180.28145	0.53644
1178.35288	0.53778
1176.42432	0.53915
1174.49575	0.54039
1172.56719	0.54136
1170.63862	0.54182
1168.71006	0.54176
1166.78149	0.54143
1164.85293	0.54114
1162.92437	0.54099
1160.99580	0.54072
1159.06724	0.54019
1157.13867	0.53941
1155.21011	0.53840
1153.28154	0.53712
1151.35298	0.53548
1149.42441	0.53335
1147.49585	0.53077
1145.56729	0.52801
1143.63872	0.52535
1141.71016	0.52289
1139.78159	0.52074
1137.85303	0.51918
1135.92446	0.51833
1133.99590	0.51789
1132.06733	0.51747
1130.13877	0.51703
1128.21021	0.51666
1126.28164	0.51635
1124.35308	0.51604
1122.42451	0.51569
1120.49595	0.51523
1118.56738	0.51483
1116.63882	0.51475
1114.71025	0.51487
1112.78169	0.51514
1110.85312	0.51565
1108.92456	0.51620
1106.99600	0.51678
1105.06743	0.51755
1103.13887	0.51850
1101.21030	0.51970
1099.28174	0.52134
1097.35317	0.52359
1095.42461	0.52645
1093.49604	0.52998
1091.56748	0.53433
1089.63892	0.53957
1087.71035	0.54579
1085.78179	0.55289
1083.85322	0.56030
1081.92466	0.56716
1079.99609	0.57233
1078.06753	0.57483
1076.13896	0.57444
1074.21040	0.57148
1072.28184	0.56645
1070.35327	0.55992
1068.42471	0.55277
1066.49614	0.54573
1064.56758	0.53914
1062.63901	0.53346
1060.71045	0.52892
1058.78188	0.52498
1056.85332	0.52116
1054.92476	0.51769
1052.99619	0.51486
1051.06763	0.51253
1049.13906	0.51045
1047.21050	0.50874
1045.28193	0.50762
1043.35337	0.50702
1041.42480	0.50674
1039.49624	0.50650
1037.56768	0.50621
1035.63911	0.50571
1033.71055	0.50485
1031.78198	0.50379
1029.85342	0.50271
1027.92485	0.50164
1025.99629	0.50065
1024.06772	0.49994
1022.13916	0.49957
1020.21060	0.49943
1018.28203	0.49959
1016.35347	0.50010
1014.42490	0.50072
1012.49634	0.50124
1010.56777	0.50170
1008.63921	0.50211
1006.71064	0.50271
1004.78208	0.50390
1002.85352	0.50582
1000.92495	0.50844
998.99639	0.51171
997.06782	0.51555
995.13926	0.51996
993.21069	0.52454
991.28213	0.52839
989.35356	0.53095
987.42500	0.53223
985.49644	0.53243
983.56787	0.53234
981.63931	0.53283
979.71074	0.53397
977.78218	0.53551
975.85361	0.53740
973.92505	0.53983
971.99648	0.54276
970.06792	0.54608
968.13936	0.54982
966.21079	0.55386
964.28223	0.55807
962.35366	0.56260
960.42510	0.56773
958.49653	0.57339
956.56797	0.57929
954.63940	0.58524
952.71084	0.59125
950.78228	0.59747
948.85371	0.60389
946.92515	0.61020
944.99658	0.61652
943.06802	0.62306
941.13945	0.62915
939.21089	0.63476
937.28232	0.64068
935.35376	0.64696
933.42520	0.65300
931.49663	0.65842
929.56807	0.66358
927.63950	0.66923
925.71094	0.67541
923.78237	0.68195
921.85381	0.68862
919.92524	0.69517
917.99668	0.70190
916.06812	0.70932
914.13955	0.71705
912.21099	0.72438
910.28242	0.73188
908.35386	0.74050
906.42529	0.74996
904.49673	0.75930
902.56816	0.76821
900.63960	0.77734
898.71104	0.78684
896.78247	0.79658
894.85391	0.80639
892.92534	0.81624
890.99678	0.82720
889.06821	0.83873
887.13965	0.84866
885.21108	0.85776
883.28252	0.86850
881.35396	0.88102
879.42539	0.89384
877.49683	0.90558
875.56826	0.91646
873.63970	0.92753
871.71113	0.93921
869.78257	0.95127
867.85400	0.96322
865.92544	0.97519
863.99687	0.98728
862.06831	0.99901
860.13975	1.01019
858.21118	1.02107
856.28262	1.03176
854.35405	1.04297
852.42549	1.05506
850.49692	1.06693
848.56836	1.07910
846.63979	1.09189
844.71123	1.10386
842.78267	1.11407
840.85410	1.12261
838.92554	1.13332
836.99697	1.14839
835.06841	1.16230
833.13984	1.17262
831.21128	1.18165
829.28271	1.18890
827.35415	1.19706
825.42559	1.20913
823.49702	1.22227
821.56846	1.23232
819.63989	1.24193
817.71133	1.25736
815.78276	1.27329
813.85420	1.28136
811.92563	1.28800
809.99707	1.30079
808.06851	1.31143
806.13994	1.31138
804.21138	1.31473
802.28281	1.33282
800.35425	1.34249
798.42568	1.33080
796.49712	1.33194
794.56855	1.36635
792.63999	1.40235
790.71143	1.39871
788.78286	1.38036
786.85430	1.38924
784.92573	1.41907
782.99717	1.41283
781.06860	1.36668
779.14004	1.35561
777.21147	1.40446
775.28291	1.48940
773.35435	1.50928
771.42578	1.37700
769.49722	1.26200
767.56865	1.22751
765.64009	1.23403
763.71152	1.26697
761.78296	1.27874
759.85439	1.25065
757.92583	1.23947
755.99727	1.21538
754.06870	1.16109
752.14014	1.12933
750.21157	1.13921
748.28301	1.14637
746.35444	1.16677
744.42588	1.19535
742.49731	1.10568
740.56875	0.99118
738.64019	0.95836
736.71162	0.96960
734.78306	0.99428
732.85449	0.99290
730.92593	0.86230
728.99736	0.68795
727.06880	0.51293
725.14023	0.28945
723.21167	0.09301
721.28311	0.02335
719.35454	0.06491
717.42598	0.02279
715.49741	-0.07096
713.56885	-0.09238
711.64028	-0.03176
709.71172	0.10747
707.78315	0.22854
705.85459	0.20160
703.92603	0.16733
701.99746	0.18348
700.06890	0.27941
698.14033	0.34799
696.21177	0.32686
694.28320	0.27600
692.35464	0.22131
690.42607	0.20290
688.49751	0.24722
686.56895	0.34444
684.64038	0.46062
682.71182	0.52232
680.78325	0.56755
678.85469	0.81735
676.92612	1.85857
674.99756	0.62817
673.06899	0.34816
671.14043	0.29686
669.21187	0.32456
667.28330	0.33626
665.35474	0.33671
663.42617	0.30573
661.49761	0.24416
659.56904	0.19821
657.64048	0.21330
655.71191	0.32393
653.78335	0.43022
651.85479	0.38801
649.92622	0.29980
647.99766	0.28177
646.06909	0.37590
644.14053	0.49354
642.21196	0.45129
640.28340	0.35481
638.35483	0.29837
636.42627	0.28814
634.49771	0.32924
632.56914	0.32989
630.64058	0.29282
628.71201	0.28413
626.78345	0.25958
624.85488	0.25863
622.92632	0.34200
620.99775	0.42669
619.06919	0.37422
617.14062	0.32282
615.21206	0.31099
613.28350	0.27022
611.35493	0.24472
609.42637	0.28129
607.49780	0.32407
605.56924	0.31797
603.64067	0.27359
601.71211	0.25233
599.78354	0.30647
597.85498	0.35157
595.92642	0.29709
593.99785	0.25679
592.06929	0.32970
590.14072	0.51971
588.21216	0.59968
586.28359	0.40725
584.35503	0.34473
582.42646	0.40160
580.49790	0.36951
578.56934	0.26408
576.64077	0.22982
574.71221	0.27171
572.78364	0.32703
570.85508	0.35489
568.92651	0.36677
566.99795	0.36883
565.06938	0.35882
563.14082	0.32160
561.21226	0.28072
559.28369	0.28540
557.35513	0.32864
555.42656	0.36696
553.49800	0.34908
551.56943	0.28058
549.64087	0.25457
547.71230	0.29341
545.78374	0.33881
543.85518	0.36614
541.92661	0.37092
539.99805	0.33221
538.06948	0.29230
536.14092	0.29183
534.21235	0.33950
532.28379	0.40423
530.35522	0.40758
528.42666	0.34759
526.49810	0.28305
524.56953	0.24481
522.64097	0.21951
520.71240	0.19971
518.78384	0.21736
516.85527	0.25078
514.92671	0.25193
512.99814	0.24125
511.06958	0.25651
509.14102	0.32782
507.21245	0.44668
505.28389	0.44818
503.35532	0.34699
501.42676	0.27899
499.49819	0.29719
