3997.91411	0.05870
3995.98555	0.05910
3994.05698	0.05946
3992.12842	0.05984
3990.19985	0.06017
3988.27129	0.06024
3986.34272	0.06040
3984.41416	0.06066
3982.48560	0.06072
3980.55703	0.06107
3978.62847	0.06176
3976.69990	0.06212
3974.77134	0.06204
3972.84277	0.06206
3970.91421	0.06247
3968.98564	0.06292
3967.05708	0.06301
3965.12852	0.06288
3963.19995	0.06287
3961.27139	0.06296
3959.34282	0.06320
3957.41426	0.06358
3955.48569	0.06377
3953.55713	0.06382
3951.62856	0.06401
3949.70000	0.06415
3947.77144	0.06406
3945.84287	0.06394
3943.91431	0.06394
3941.98574	0.06400
3940.05718	0.06401
3938.12861	0.06385
3936.20005	0.06348
3934.27148	0.06313
3932.34292	0.06331
3930.41436	0.06396
3928.48579	0.06410
3926.55723	0.06369
3924.62866	0.06369
3922.70010	0.06401
3920.77153	0.06412
3918.84297	0.06398
3916.91440	0.06379
3914.98584	0.06376
3913.05728	0.06362
3911.12871	0.06348
3909.20015	0.06358
3907.27158	0.06367
3905.34302	0.06403
3903.41445	0.06509
3901.48589	0.06631
3899.55732	0.06678
3897.62876	0.06617
3895.70020	0.06504
3893.77163	0.06442
3891.84307	0.06474
3889.91450	0.06516
3887.98594	0.06484
3886.05737	0.06493
3884.12881	0.06571
3882.20024	0.06612
3880.27168	0.06639
3878.34312	0.06634
3876.41455	0.06568
3874.48599	0.06583
3872.55742	0.06710
3870.62886	0.06838
3868.70029	0.06893
3866.77173	0.06826
3864.84316	0.06780
3862.91460	0.06838
3860.98604	0.06838
3859.05747	0.06793
3857.12891	0.06834
3855.20034	0.06973
3853.27178	0.07223
3851.34321	0.07379
3849.41465	0.07196
3847.48608	0.07008
3845.55752	0.06988
3843.62896	0.07103
3841.70039	0.07281
3839.77183	0.07471
3837.84326	0.07648
3835.91470	0.07715
3833.98613	0.07655
3832.05757	0.07588
3830.12900	0.07580
3828.20044	0.07627
3826.27187	0.07706
3824.34331	0.07786
3822.41475	0.07931
3820.48618	0.08210
3818.55762	0.08385
3816.62905	0.08398
3814.70049	0.08431
3812.77192	0.08431
3810.84336	0.08400
3808.91479	0.08446
3806.98623	0.08629
3805.05767	0.08853
3803.12910	0.08997
3801.20054	0.09166
3799.27197	0.09297
3797.34341	0.09297
3795.41484	0.09316
3793.48628	0.09370
3791.55771	0.09438
3789.62915	0.09548
3787.70059	0.09696
3785.77202	0.09863
3783.84346	0.10012
3781.91489	0.10140
3779.98633	0.10326
3778.05776	0.10572
3776.12920	0.10730
3774.20063	0.10817
3772.27207	0.10953
3770.34351	0.11195
3768.41494	0.11485
3766.48638	0.11697
3764.55781	0.11872
3762.62925	0.12030
3760.70068	0.12218
3758.77212	0.12528
3756.84355	0.12850
3754.91499	0.13071
3752.98643	0.13319
3751.05786	0.13741
3749.12930	0.14206
3747.20073	0.14425
3745.27217	0.14620
3743.34360	0.15040
3741.41504	0.15416
3739.48647	0.15641
3737.55791	0.15963
3735.62935	0.16519
3733.70078	0.17176
3731.77222	0.17643
3729.84365	0.17993
3727.91509	0.18390
3725.98652	0.18939
3724.05796	0.19610
3722.12939	0.20286
3720.20083	0.20967
3718.27227	0.21652
3716.34370	0.22348
3714.41514	0.23080
3712.48657	0.24016
3710.55801	0.25386
3708.62944	0.26848
3706.70088	0.27990
3704.77231	0.29064
3702.84375	0.30378
3700.91519	0.32107
3698.98662	0.33962
3697.05806	0.35696
3695.12949	0.37540
3693.20093	0.39524
3691.27236	0.41725
3689.34380	0.44549
3687.41523	0.47951
3685.48667	0.50987
3683.55811	0.53649
3681.62954	0.56488
3679.70098	0.59666
3677.77241	0.63035
3675.84385	0.67033
3673.91528	0.72290
3671.98672	0.76624
3670.05815	0.80532
3668.12959	0.85836
3666.20103	0.90748
3664.27246	0.94906
3662.34390	0.99311
3660.41533	1.04019
3658.48677	1.08682
3656.55820	1.13658
3654.62964	1.19200
3652.70107	1.23949
3650.77251	1.28162
3648.84395	1.33772
3646.91538	1.40429
3644.98682	1.45463
3643.05825	1.49424
3641.12969	1.53476
3639.20112	1.57945
3637.27256	1.62449
3635.34399	1.66826
3633.41543	1.71196
3631.48687	1.75287
3629.55830	1.79457
3627.62974	1.84893
3625.70117	1.89996
3623.77261	1.93445
3621.84404	1.96696
3619.91548	2.00496
3617.98691	2.05131
3616.05835	2.09531
3614.12979	2.13190
3612.20122	2.17112
3610.27266	2.21199
3608.34409	2.25338
3606.41553	2.29608
3604.48696	2.33539
3602.55840	2.37102
3600.62983	2.40952
3598.70127	2.45167
3596.77271	2.49321
3594.84414	2.53424
3592.91558	2.57578
3590.98701	2.61605
3589.05845	2.65460
3587.12988	2.69886
3585.20132	2.74589
3583.27275	2.78640
3581.34419	2.82455
3579.41562	2.86499
3577.48706	2.90719
3575.55850	2.94994
3573.62993	2.99451
3571.70137	3.03769
3569.77280	3.07786
3567.84424	3.12093
3565.91567	3.17332
3563.98711	3.22382
3562.05854	3.26641
3560.12998	3.30995
3558.20142	3.35588
3556.27285	3.40096
3554.34429	3.44427
3552.41572	3.48936
3550.48716	3.53748
3548.55859	3.58594
3546.63003	3.63173
3544.70146	3.67697
3542.77290	3.72497
3540.84434	3.77439
3538.91577	3.82183
3536.98721	3.86711
3535.05864	3.91546
3533.13008	3.96523
3531.20151	4.01326
3529.27295	4.06060
3527.34438	4.10836
3525.41582	4.15550
3523.48726	4.20304
3521.55869	4.25299
3519.63013	4.30179
3517.70156	4.34936
3515.77300	4.39650
3513.84443	4.44238
3511.91587	4.48861
3509.98730	4.53746
3508.05874	4.58654
3506.13018	4.63493
3504.20161	4.68647
3502.27305	4.73909
3500.34448	4.78766
3498.41592	4.83341
3496.48735	4.88020
3494.55879	4.92826
3492.63022	4.97769
3490.70166	5.02989
3488.77310	5.08409
3486.84453	5.13530
3484.91597	5.18088
3482.98740	5.22746
3481.05884	5.28100
3479.13027	5.33601
3477.20171	5.38204
3475.27314	5.41889
3473.34458	5.46375
3471.41602	5.52365
3469.48745	5.58070
3467.55889	5.62624
3465.63032	5.66524
3463.70176	5.70641
3461.77319	5.75689
3459.84463	5.81340
3457.91606	5.86623
3455.98750	5.91213
3454.05894	5.95535
3452.13037	6.00228
3450.20181	6.05410
3448.27324	6.10307
3446.34468	6.15277
3444.41611	6.21103
3442.48755	6.27597
3440.55898	6.33631
3438.63042	6.38471
3436.70186	6.41488
3434.77329	6.42841
3432.84473	6.45824
3430.91616	6.51901
3428.98760	6.58429
3427.05903	6.63759
3425.13047	6.68714
3423.20190	6.71768
3421.27334	6.74186
3419.34478	6.79502
3417.41621	6.85322
3415.48765	6.90117
3413.55908	6.95912
3411.63052	7.02096
3409.70195	7.06050
3407.77339	7.09612
3405.84482	7.16673
3403.91626	7.24244
3401.98770	7.25660
3400.05913	7.24969
3398.13057	7.29012
3396.20200	7.36060
3394.27344	7.41395
3392.34487	7.43468
3390.41631	7.46909
3388.48774	7.51709
3386.55918	7.53084
3384.63062	7.53773
3382.70205	7.59073
3380.77349	7.64978
3378.84492	7.68679
3376.91636	7.71963
3374.98779	7.72318
3373.05923	7.72046
3371.13066	7.72576
3369.20210	7.73742
3367.27354	7.76808
3365.34497	7.82753
3363.41641	7.89041
3361.48784	7.92850
3359.55928	7.97779
3357.63071	8.02016
3355.70215	8.01333
3353.77358	7.96309
3351.84502	7.91215
3349.91646	7.89792
3347.98789	7.94607
3346.05933	8.01526
3344.13076	8.04096
3342.20220	8.04307
3340.27363	8.03178
3338.34507	8.02491
3336.41650	8.07040
3334.48794	8.16351
3332.55937	8.19640
3330.63081	8.15215
3328.70225	8.09350
3326.77368	8.04951
3324.84512	8.04490
3322.91655	8.03770
3320.98799	8.03578
3319.05942	8.06935
3317.13086	8.09317
3315.20229	8.09220
3313.27373	8.11281
3311.34517	8.14408
3309.41660	8.13053
3307.48804	8.09158
3305.55947	8.12344
3303.63091	8.21661
3301.70234	8.24082
3299.77378	8.18231
3297.84521	8.10046
3295.91665	8.07117
3293.98809	8.08851
3292.05952	8.09376
3290.13096	8.12582
3288.20239	8.21630
3286.27383	8.29828
3284.34526	8.25857
3282.41670	8.17191
3280.48813	8.16580
3278.55957	8.20455
3276.63101	8.18188
3274.70244	8.07615
3272.77388	7.97521
3270.84531	7.97840
3268.91675	8.10190
3266.98818	8.23994
3265.05962	8.26295
3263.13105	8.19657
3261.20249	8.22043
3259.27393	8.34784
3257.34536	8.36466
3255.41680	8.26489
3253.48823	8.22320
3251.55967	8.24329
3249.63110	8.26211
3247.70254	8.23427
3245.77397	8.14509
3243.84541	8.10504
3241.91685	8.14994
3239.98828	8.14775
3238.05972	8.07065
3236.13115	8.07749
3234.20259	8.17671
3232.27402	8.21618
3230.34546	8.21610
3228.41689	8.19408
3226.48833	8.08126
3224.55977	7.97291
3222.63120	7.94369
3220.70264	7.97832
3218.77407	8.07851
3216.84551	8.12185
3214.91694	8.00660
3212.98838	7.91925
3211.05981	7.95137
3209.13125	7.96704
3207.20269	7.91849
3205.27412	7.90434
3203.34556	7.92260
3201.41699	7.87162
3199.48843	7.74006
3197.55986	7.64412
3195.63130	7.65063
3193.70273	7.71006
3191.77417	7.74049
3189.84561	7.70094
3187.91704	7.62586
3185.98848	7.57192
3184.05991	7.52383
3182.13135	7.44359
3180.20278	7.34579
3178.27422	7.26294
3176.34565	7.20680
3174.41709	7.16888
3172.48853	7.14326
3170.55996	7.09580
3168.63140	7.01952
3166.70283	6.96950
3164.77427	6.94477
3162.84570	6.90524
3160.91714	6.83467
3158.98857	6.73862
3157.06001	6.64337
3155.13145	6.57511
3153.20288	6.53336
3151.27432	6.48960
3149.34575	6.42370
3147.41719	6.35047
3145.48862	6.28662
3143.56006	6.22387
3141.63149	6.15573
3139.70293	6.08313
3137.77437	6.00498
3135.84580	5.92850
3133.91724	5.86387
3131.98867	5.79918
3130.06011	5.72001
3128.13154	5.64184
3126.20298	5.57903
3124.27441	5.52326
3122.34585	5.45675
3120.41729	5.37385
3118.48872	5.28840
3116.56016	5.21311
3114.63159	5.14600
3112.70303	5.08066
3110.77446	5.01467
3108.84590	4.94865
3106.91733	4.88273
3104.98877	4.81328
3103.06021	4.74022
3101.13164	4.66818
3099.20308	4.60080
3097.27451	4.53634
3095.34595	4.47036
3093.41738	4.40406
3091.48882	4.34107
3089.56025	4.27973
3087.63169	4.21526
3085.70312	4.14937
3083.77456	4.08663
3081.84600	4.02452
3079.91743	3.96097
3077.98887	3.89983
3076.06030	3.84105
3074.13174	3.78074
3072.20317	3.71934
3070.27461	3.66025
3068.34604	3.60442
3066.41748	3.54913
3064.48892	3.49262
3062.56035	3.43563
3060.63179	3.37930
3058.70322	3.32407
3056.77466	3.27009
3054.84609	3.21809
3052.91753	3.16678
3050.98896	3.11469
3049.06040	3.06295
3047.13184	3.01218
3045.20327	2.96182
3043.27471	2.91243
3041.34614	2.86429
3039.41758	2.81640
3037.48901	2.76838
3035.56045	2.72082
3033.63188	2.67444
3031.70332	2.62892
3029.77476	2.58397
3027.84619	2.54026
3025.91763	2.49701
3023.98906	2.45339
3022.06050	2.41046
3020.13193	2.36836
3018.20337	2.32630
3016.27480	2.28524
3014.34624	2.24614
3012.41768	2.20767
3010.48911	2.16878
3008.56055	2.13021
3006.63198	2.09274
3004.70342	2.05637
3002.77485	2.02086
3000.84629	1.98606
2998.91772	1.95182
2996.98916	1.91830
2995.06060	1.88579
2993.13203	1.85400
2991.20347	1.82277
2989.27490	1.79223
2987.34634	1.76224
2985.41777	1.73280
2983.48921	1.70381
2981.56064	1.67514
2979.63208	1.64727
2977.70352	1.62027
2975.77495	1.59357
2973.84639	1.56720
2971.91782	1.54117
2969.98926	1.51515
2968.06069	1.48947
2966.13213	1.46444
2964.20356	1.43991
2962.27500	1.41557
2960.34644	1.39093
2958.41787	1.36601
2956.48931	1.34131
2954.56074	1.31692
2952.63218	1.29310
2950.70361	1.27018
2948.77505	1.24756
2946.84648	1.22492
2944.91792	1.20270
2942.98936	1.18098
2941.06079	1.15982
2939.13223	1.13936
2937.20366	1.11925
2935.27510	1.09913
2933.34653	1.07879
2931.41797	1.05862
2929.48940	1.03923
2927.56084	1.02011
2925.63228	1.00092
2923.70371	0.98215
2921.77515	0.96347
2919.84658	0.94482
2917.91802	0.92707
2915.98945	0.91034
2914.06089	0.89409
2912.13232	0.87823
2910.20376	0.86315
2908.27520	0.84860
2906.34663	0.83402
2904.41807	0.81956
2902.48950	0.80558
2900.56094	0.79213
2898.63237	0.77928
2896.70381	0.76684
2894.77524	0.75426
2892.84668	0.74167
2890.91812	0.72978
2888.98955	0.71852
2887.06099	0.70738
2885.13242	0.69628
2883.20386	0.68543
2881.27529	0.67498
2879.34673	0.66479
2877.41816	0.65465
2875.48960	0.64449
2873.56104	0.63416
2871.63247	0.62369
2869.70391	0.61295
2867.77534	0.60150
2865.84678	0.58944
2863.91821	0.57777
2861.98965	0.56692
2860.06108	0.55625
2858.13252	0.54553
2856.20396	0.53531
2854.27539	0.52569
2852.34683	0.51627
2850.41826	0.50704
2848.48970	0.49834
2846.56113	0.49026
2844.63257	0.48275
2842.70400	0.47585
2840.77544	0.46944
2838.84687	0.46342
2836.91831	0.45766
2834.98975	0.45184
2833.06118	0.44583
2831.13262	0.43987
2829.20405	0.43410
2827.27549	0.42824
2825.34692	0.42213
2823.41836	0.41599
2821.48979	0.41001
2819.56123	0.40413
2817.63267	0.39826
2815.70410	0.39233
2813.77554	0.38654
2811.84697	0.38098
2809.91841	0.37548
2807.98984	0.37007
2806.06128	0.36469
2804.13271	0.35922
2802.20415	0.35392
2800.27559	0.34906
2798.34702	0.34440
2796.41846	0.33955
2794.48989	0.33461
2792.56133	0.32981
2790.63276	0.32522
2788.70420	0.32064
2786.77563	0.31594
2784.84707	0.31133
2782.91851	0.30696
2780.98994	0.30278
2779.06138	0.29881
2777.13281	0.29499
2775.20425	0.29114
2773.27568	0.28717
2771.34712	0.28320
2769.41855	0.27935
2767.48999	0.27565
2765.56143	0.27206
2763.63286	0.26866
2761.70430	0.26538
2759.77573	0.26206
2757.84717	0.25870
2755.91860	0.25546
2753.99004	0.25238
2752.06147	0.24930
2750.13291	0.24629
2748.20435	0.24347
2746.27578	0.24063
2744.34722	0.23770
2742.41865	0.23485
2740.49009	0.23214
2738.56152	0.22949
2736.63296	0.22692
2734.70439	0.22441
2732.77583	0.22198
2730.84727	0.21961
2728.91870	0.21726
2726.99014	0.21498
2725.06157	0.21275
2723.13301	0.21053
2721.20444	0.20835
2719.27588	0.20624
2717.34731	0.20421
2715.41875	0.20221
2713.49019	0.20021
2711.56162	0.19826
2709.63306	0.19643
2707.70449	0.19470
2705.77593	0.19306
2703.84736	0.19158
2701.91880	0.19014
2699.99023	0.18868
2698.06167	0.18723
2696.13311	0.18563
2694.20454	0.18393
2692.27598	0.18231
2690.34741	0.18078
2688.41885	0.17939
2686.49028	0.17815
2684.56172	0.17687
2682.63315	0.17563
2680.70459	0.17458
2678.77603	0.17356
2676.84746	0.17249
2674.91890	0.17137
2672.99033	0.17015
2671.06177	0.16897
2669.13320	0.16793
2667.20464	0.16705
2665.27607	0.16620
2663.34751	0.16527
2661.41895	0.16420
2659.49038	0.16320
2657.56182	0.16241
2655.63325	0.16166
2653.70469	0.16084
2651.77612	0.16006
2649.84756	0.15934
2647.91899	0.15867
2645.99043	0.15808
2644.06187	0.15753
2642.13330	0.15693
2640.20474	0.15628
2638.27617	0.15560
2636.34761	0.15494
2634.41904	0.15443
2632.49048	0.15406
2630.56191	0.15370
2628.63335	0.15332
2626.70479	0.15298
2624.77622	0.15263
2622.84766	0.15217
2620.91909	0.15171
2618.99053	0.15146
2617.06196	0.15132
2615.13340	0.15116
2613.20483	0.15095
2611.27627	0.15073
2609.34771	0.15062
2607.41914	0.15051
2605.49058	0.15027
2603.56201	0.15001
2601.63345	0.14993
2599.70488	0.15003
2597.77632	0.15015
2595.84775	0.15021
2593.91919	0.15025
2591.99062	0.15030
2590.06206	0.15034
2588.13350	0.15047
2586.20493	0.15076
2584.27637	0.15103
2582.34780	0.15117
2580.41924	0.15135
2578.49067	0.15163
2576.56211	0.15195
2574.63354	0.15226
2572.70498	0.15251
2570.77642	0.15286
2568.84785	0.15332
2566.91929	0.15368
2564.99072	0.15399
2563.06216	0.15444
2561.13359	0.15494
2559.20503	0.15534
2557.27646	0.15570
2555.34790	0.15617
2553.41934	0.15674
2551.49077	0.15732
2549.56221	0.15793
2547.63364	0.15850
2545.70508	0.15900
2543.77651	0.15951
2541.84795	0.15999
2539.91938	0.16046
2537.99082	0.16108
2536.06226	0.16188
2534.13369	0.16263
2532.20513	0.16320
2530.27656	0.16381
2528.34800	0.16461
2526.41943	0.16543
2524.49087	0.16619
2522.56230	0.16692
2520.63374	0.16759
2518.70518	0.16817
2516.77661	0.16880
2514.84805	0.16959
2512.91948	0.17047
2510.99092	0.17129
2509.06235	0.17197
2507.13379	0.17264
2505.20522	0.17347
2503.27666	0.17447
2501.34810	0.17544
2499.41953	0.17618
2497.49097	0.17683
2495.56240	0.17766
2493.63384	0.17862
2491.70527	0.17956
2489.77671	0.18050
2487.84814	0.18139
2485.91958	0.18214
2483.99102	0.18286
2482.06245	0.18375
2480.13389	0.18474
2478.20532	0.18564
2476.27676	0.18648
2474.34819	0.18730
2472.41963	0.18810
2470.49106	0.18897
2468.56250	0.19000
2466.63394	0.19112
2464.70537	0.19210
2462.77681	0.19289
2460.84824	0.19374
2458.91968	0.19475
2456.99111	0.19572
2455.06255	0.19659
2453.13398	0.19757
2451.20542	0.19869
2449.27686	0.19966
2447.34829	0.20048
2445.41973	0.20142
2443.49116	0.20255
2441.56260	0.20363
2439.63403	0.20461
2437.70547	0.20558
2435.77690	0.20661
2433.84834	0.20757
2431.91978	0.20846
2429.99121	0.20945
2428.06265	0.21055
2426.13408	0.21165
2424.20552	0.21279
2422.27695	0.21399
2420.34839	0.21516
2418.41982	0.21627
2416.49126	0.21735
2414.56270	0.21841
2412.63413	0.21955
2410.70557	0.22078
2408.77700	0.22199
2406.84844	0.22317
2404.91987	0.22433
2402.99131	0.22548
2401.06274	0.22675
2399.13418	0.22802
2397.20562	0.22923
2395.27705	0.23049
2393.34849	0.23179
2391.41992	0.23314
2389.49136	0.23448
2387.56279	0.23585
2385.63423	0.23752
2383.70566	0.23965
2381.77710	0.24222
2379.84854	0.24523
2377.91997	0.24841
2375.99141	0.25159
2374.06284	0.25517
2372.13428	0.25953
2370.20571	0.26430
2368.27715	0.26876
2366.34858	0.27265
2364.42002	0.27648
2362.49146	0.28076
2360.56289	0.28459
2358.63433	0.28667
2356.70576	0.28657
2354.77720	0.28481
2352.84863	0.28290
2350.92007	0.28111
2348.99150	0.27995
2347.06294	0.28068
2345.13437	0.28393
2343.20581	0.28836
2341.27725	0.29159
2339.34868	0.29339
2337.42012	0.29438
2335.49155	0.29516
2333.56299	0.29617
2331.63442	0.29747
2329.70586	0.29859
2327.77729	0.29950
2325.84873	0.30041
2323.92017	0.30112
2321.99160	0.30170
2320.06304	0.30233
2318.13447	0.30280
2316.20591	0.30309
2314.27734	0.30363
2312.34878	0.30463
2310.42021	0.30575
2308.49165	0.30675
2306.56309	0.30776
2304.63452	0.30871
2302.70596	0.30967
2300.77739	0.31090
2298.84883	0.31242
2296.92026	0.31399
2294.99170	0.31553
2293.06313	0.31714
2291.13457	0.31879
2289.20601	0.32044
2287.27744	0.32209
2285.34888	0.32370
2283.42031	0.32533
2281.49175	0.32722
2279.56318	0.32939
2277.63462	0.33160
2275.70605	0.33368
2273.77749	0.33564
2271.84893	0.33771
2269.92036	0.33993
2267.99180	0.34218
2266.06323	0.34440
2264.13467	0.34650
2262.20610	0.34852
2260.27754	0.35054
2258.34897	0.35262
2256.42041	0.35477
2254.49185	0.35695
2252.56328	0.35911
2250.63472	0.36123
2248.70615	0.36332
2246.77759	0.36543
2244.84902	0.36762
2242.92046	0.36985
2240.99189	0.37212
2239.06333	0.37443
2237.13477	0.37673
2235.20620	0.37898
2233.27764	0.38126
2231.34907	0.38356
2229.42051	0.38577
2227.49194	0.38788
2225.56338	0.39004
2223.63481	0.39234
2221.70625	0.39464
2219.77769	0.39685
2217.84912	0.39904
2215.92056	0.40134
2213.99199	0.40367
2212.06343	0.40593
2210.13486	0.40808
2208.20630	0.41011
2206.27773	0.41203
2204.34917	0.41405
2202.42061	0.41626
2200.49204	0.41840
2198.56348	0.42044
2196.63491	0.42253
2194.70635	0.42458
2192.77778	0.42650
2190.84922	0.42840
2188.92065	0.43034
2186.99209	0.43222
2185.06353	0.43398
2183.13496	0.43568
2181.20640	0.43742
2179.27783	0.43909
2177.34927	0.44070
2175.42070	0.44236
2173.49214	0.44398
2171.56357	0.44548
2169.63501	0.44690
2167.70645	0.44828
2165.77788	0.44959
2163.84932	0.45094
2161.92075	0.45226
2159.99219	0.45330
2158.06362	0.45413
2156.13506	0.45504
2154.20649	0.45592
2152.27793	0.45666
2150.34937	0.45736
2148.42080	0.45803
2146.49224	0.45866
2144.56367	0.45923
2142.63511	0.45964
2140.70654	0.46004
2138.77798	0.46053
2136.84941	0.46080
2134.92085	0.46075
2132.99229	0.46058
2131.06372	0.46040
2129.13516	0.46022
2127.20659	0.46001
2125.27803	0.45972
2123.34946	0.45934
2121.42090	0.45900
2119.49233	0.45860
2117.56377	0.45800
2115.63521	0.45722
2113.70664	0.45640
2111.77808	0.45556
2109.84951	0.45454
2107.92095	0.45343
2105.99238	0.45242
2104.06382	0.45141
2102.13525	0.45022
2100.20669	0.44890
2098.27812	0.44743
2096.34956	0.44583
2094.42100	0.44420
2092.49243	0.44254
2090.56387	0.44091
2088.63530	0.43923
2086.70674	0.43744
2084.77817	0.43559
2082.84961	0.43370
2080.92104	0.43167
2078.99248	0.42952
2077.06392	0.42734
2075.13535	0.42518
2073.20679	0.42299
2071.27822	0.42075
2069.34966	0.41846
2067.42109	0.41613
2065.49253	0.41382
2063.56396	0.41154
2061.63540	0.40917
2059.70684	0.40664
2057.77827	0.40408
2055.84971	0.40157
2053.92114	0.39902
2051.99258	0.39640
2050.06401	0.39373
2048.13545	0.39109
2046.20688	0.38842
2044.27832	0.38570
2042.34976	0.38301
2040.42119	0.38026
2038.49263	0.37741
2036.56406	0.37465
2034.63550	0.37193
2032.70693	0.36912
2030.77837	0.36629
2028.84980	0.36344
2026.92124	0.36053
2024.99268	0.35770
2023.06411	0.35502
2021.13555	0.35234
2019.20698	0.34966
2017.27842	0.34698
2015.34985	0.34419
2013.42129	0.34132
2011.49272	0.33845
2009.56416	0.33567
2007.63560	0.33289
2005.70703	0.33012
2003.77847	0.32739
2001.84990	0.32472
1999.92134	0.32217
1997.99277	0.31964
1996.06421	0.31702
1994.13564	0.31443
1992.20708	0.31196
1990.27852	0.30939
1988.34995	0.30674
1986.42139	0.30415
1984.49282	0.30173
1982.56426	0.29941
1980.63569	0.29704
1978.70713	0.29461
1976.77856	0.29229
1974.85000	0.29011
1972.92144	0.28794
1970.99287	0.28580
1969.06431	0.28378
1967.13574	0.28182
1965.20718	0.27975
1963.27861	0.27765
1961.35005	0.27565
1959.42148	0.27369
1957.49292	0.27179
1955.56436	0.26999
1953.63579	0.26827
1951.70723	0.26657
1949.77866	0.26490
1947.85010	0.26320
1945.92153	0.26155
1943.99297	0.26014
1942.06440	0.25887
1940.13584	0.25740
1938.20728	0.25585
1936.27871	0.25441
1934.35015	0.25303
1932.42158	0.25169
1930.49302	0.25040
1928.56445	0.24924
1926.63589	0.24818
1924.70732	0.24725
1922.77876	0.24635
1920.85020	0.24536
1918.92163	0.24445
1916.99307	0.24354
1915.06450	0.24251
1913.13594	0.24154
1911.20737	0.24078
1909.27881	0.24011
1907.35024	0.23944
1905.42168	0.23877
1903.49312	0.23814
1901.56455	0.23755
1899.63599	0.23702
1897.70742	0.23666
1895.77886	0.23639
1893.85029	0.23610
1891.92173	0.23573
1889.99316	0.23555
1888.06460	0.23536
1886.13604	0.23495
1884.20747	0.23458
1882.27891	0.23434
1880.35034	0.23420
1878.42178	0.23413
1876.49321	0.23412
1874.56465	0.23407
1872.63608	0.23410
1870.70752	0.23449
1868.77896	0.23530
1866.85039	0.23567
1864.92183	0.23540
1862.99326	0.23522
1861.06470	0.23531
1859.13613	0.23561
1857.20757	0.23601
1855.27900	0.23644
1853.35044	0.23689
1851.42187	0.23749
1849.49331	0.23820
1847.56475	0.23897
1845.63618	0.23991
1843.70762	0.24101
1841.77905	0.24175
1839.85049	0.24213
1837.92192	0.24282
1835.99336	0.24370
1834.06479	0.24463
1832.13623	0.24569
1830.20767	0.24722
1828.27910	0.24872
1826.35054	0.24970
1824.42197	0.25088
1822.49341	0.25212
1820.56484	0.25332
1818.63628	0.25472
1816.70771	0.25640
1814.77915	0.25807
1812.85059	0.25988
1810.92202	0.26201
1808.99346	0.26410
1807.06489	0.26598
1805.13633	0.26789
1803.20776	0.27018
1801.27920	0.27284
1799.35063	0.27570
1797.42207	0.27828
1795.49351	0.28073
1793.56494	0.28364
1791.63638	0.28741
1789.70781	0.29083
1787.77925	0.29328
1785.85068	0.29632
1783.92212	0.30002
1781.99355	0.30398
1780.06499	0.30822
1778.13643	0.31259
1776.20786	0.31669
1774.27930	0.32115
1772.35073	0.32728
1770.42217	0.33376
1768.49360	0.33894
1766.56504	0.34388
1764.63647	0.34909
1762.70791	0.35502
1760.77935	0.36256
1758.85078	0.36966
1756.92222	0.37674
1754.99365	0.38438
1753.06509	0.39140
1751.13652	0.39993
1749.20796	0.41057
1747.27939	0.42079
1745.35083	0.42973
1743.42227	0.43923
1741.49370	0.44982
1739.56514	0.46230
1737.63657	0.47480
1735.70801	0.48586
1733.77944	0.50226
1731.85088	0.52174
1729.92231	0.53733
1727.99375	0.55314
1726.06519	0.57029
1724.13662	0.58907
1722.20806	0.60938
1720.27949	0.62842
1718.35093	0.65062
1716.42236	0.68239
1714.49380	0.71266
1712.56523	0.73768
1710.63667	0.76217
1708.70811	0.78854
1706.77954	0.81834
1704.85098	0.85344
1702.92241	0.88505
1700.99385	0.91689
1699.06528	0.96350
1697.13672	1.00623
1695.20815	1.05003
1693.27959	1.09353
1691.35103	1.12925
1689.42246	1.17034
1687.49390	1.21378
1685.56533	1.25595
1683.63677	1.31927
1681.70820	1.38534
1679.77964	1.42870
1677.85107	1.46959
1675.92251	1.51645
1673.99395	1.57424
1672.06538	1.62665
1670.13682	1.67822
1668.20825	1.74394
1666.27969	1.79842
1664.35112	1.84586
1662.42256	1.90589
1660.49399	1.97344
1658.56543	2.02596
1656.63687	2.06837
1654.70830	2.10693
1652.77974	2.16480
1650.85117	2.22092
1648.92261	2.24134
1646.99404	2.26502
1645.06548	2.29123
1643.13691	2.31026
1641.20835	2.32181
1639.27979	2.33088
1637.35122	2.33521
1635.42266	2.33336
1633.49409	2.32426
1631.56553	2.30852
1629.63696	2.28969
1627.70840	2.26132
1625.77983	2.22855
1623.85127	2.18627
1621.92271	2.13528
1619.99414	2.08956
1618.06558	2.04403
1616.13701	1.98031
1614.20845	1.91533
1612.27988	1.86508
1610.35132	1.81298
1608.42275	1.75690
1606.49419	1.70168
1604.56562	1.65060
1602.63706	1.60129
1600.70850	1.55347
1598.77993	1.50948
1596.85137	1.46794
1594.92280	1.42788
1592.99424	1.38952
1591.06567	1.35428
1589.13711	1.32147
1587.20854	1.29147
1585.27998	1.26388
1583.35142	1.23805
1581.42285	1.21469
1579.49429	1.19485
1577.56572	1.17709
1575.63716	1.15625
1573.70859	1.13798
1571.78003	1.12585
1569.85146	1.11399
1567.92290	1.10157
1565.99434	1.09226
1564.06577	1.08526
1562.13721	1.08008
1560.20864	1.07764
1558.28008	1.07785
1556.35151	1.07791
1554.42295	1.07710
1552.49438	1.07674
1550.56582	1.07534
1548.63726	1.07121
1546.70869	1.06463
1544.78013	1.05569
1542.85156	1.04397
1540.92300	1.02677
1538.99443	1.00037
1537.06587	0.98017
1535.13730	0.96621
1533.20874	0.94841
1531.28018	0.92902
1529.35161	0.91421
1527.42305	0.90054
1525.49448	0.88688
1523.56592	0.87526
1521.63735	0.86427
1519.70879	0.85334
1517.78022	0.84408
1515.85166	0.83312
1513.92310	0.82107
1511.99453	0.81057
1510.06597	0.80150
1508.13740	0.79297
1506.20884	0.78015
1504.28027	0.76805
1502.35171	0.76080
1500.42314	0.75490
1498.49458	0.74895
1496.56602	0.74192
1494.63745	0.73458
1492.70889	0.72875
1490.78032	0.72391
1488.85176	0.71858
1486.92319	0.71336
1484.99463	0.70919
1483.06606	0.70597
1481.13750	0.70330
1479.20894	0.70110
1477.28037	0.69965
1475.35181	0.69913
1473.42324	0.69940
1471.49468	0.69895
1469.56611	0.69683
1467.63755	0.69428
1465.70898	0.69243
1463.78042	0.69151
1461.85186	0.69100
1459.92329	0.69091
1457.99473	0.69145
1456.06616	0.69129
1454.13760	0.68897
1452.20903	0.68606
1450.28047	0.68335
1448.35190	0.68094
1446.42334	0.67845
1444.49478	0.67601
1442.56621	0.67378
1440.63765	0.67148
1438.70908	0.66909
1436.78052	0.66617
1434.85195	0.66287
1432.92339	0.66037
1430.99482	0.65887
1429.06626	0.65795
1427.13770	0.65731
1425.20913	0.65719
1423.28057	0.65766
1421.35200	0.65825
1419.42344	0.65889
1417.49487	0.65896
1415.56631	0.65783
1413.63774	0.65673
1411.70918	0.65626
1409.78062	0.65627
1407.85205	0.65677
1405.92349	0.65790
1403.99492	0.65897
1402.06636	0.65892
1400.13779	0.65791
1398.20923	0.65642
1396.28066	0.65441
1394.35210	0.65110
1392.42354	0.64676
1390.49497	0.64272
1388.56641	0.63895
1386.63784	0.63475
1384.70928	0.63039
1382.78071	0.62633
1380.85215	0.62243
1378.92358	0.61894
1376.99502	0.61635
1375.06646	0.61475
1373.13789	0.61376
1371.20933	0.61303
1369.28076	0.61235
1367.35220	0.61131
1365.42363	0.60989
1363.49507	0.60845
1361.56650	0.60698
1359.63794	0.60543
1357.70937	0.60395
1355.78081	0.60262
1353.85225	0.60146
1351.92368	0.60043
1349.99512	0.59944
1348.06655	0.59846
1346.13799	0.59752
1344.20942	0.59664
1342.28086	0.59584
1340.35229	0.59523
1338.42373	0.59456
1336.49517	0.59368
1334.56660	0.59283
1332.63804	0.59231
1330.70947	0.59219
1328.78091	0.59236
1326.85234	0.59276
1324.92378	0.59332
1322.99521	0.59398
1321.06665	0.59464
1319.13809	0.59510
1317.20952	0.59519
1315.28096	0.59493
1313.35239	0.59451
1311.42383	0.59394
1309.49526	0.59317
1307.56670	0.59229
1305.63813	0.59143
1303.70957	0.59059
1301.78101	0.58961
1299.85244	0.58847
1297.92388	0.58737
1295.99531	0.58633
1294.06675	0.58517
1292.13818	0.58386
1290.20962	0.58261
1288.28105	0.58139
1286.35249	0.58013
1284.42393	0.57895
1282.49536	0.57780
1280.56680	0.57650
1278.63823	0.57508
1276.70967	0.57377
1274.78110	0.57267
1272.85254	0.57172
1270.92397	0.57092
1268.99541	0.57029
1267.06685	0.56977
1265.13828	0.56923
1263.20972	0.56860
1261.28115	0.56786
1259.35259	0.56710
1257.42402	0.56650
1255.49546	0.56616
1253.56689	0.56599
1251.63833	0.56596
1249.70977	0.56604
1247.78120	0.56603
1245.85264	0.56574
1243.92407	0.56520
1241.99551	0.56442
1240.06694	0.56322
1238.13838	0.56160
1236.20981	0.55979
1234.28125	0.55789
1232.35269	0.55583
1230.42412	0.55373
1228.49556	0.55186
1226.56699	0.55022
1224.63843	0.54857
1222.70986	0.54688
1220.78130	0.54520
1218.85273	0.54349
1216.92417	0.54191
1214.99561	0.54079
1213.06704	0.54005
1211.13848	0.53939
1209.20991	0.53876
1207.28135	0.53809
1205.35278	0.53725
1203.42422	0.53640
1201.49565	0.53568
1199.56709	0.53498
1197.63853	0.53414
1195.70996	0.53318
1193.78140	0.53231
1191.85283	0.53166
1189.92427	0.53119
1187.99570	0.53078
1186.06714	0.53050
1184.13857	0.53053
1182.21001	0.53096
1180.28145	0.53173
1178.35288	0.53277
1176.42432	0.53398
1174.49575	0.53519
1172.56719	0.53620
1170.63862	0.53690
1168.71006	0.53729
1166.78149	0.53755
1164.85293	0.53785
1162.92437	0.53820
1160.99580	0.53844
1159.06724	0.53855
1157.13867	0.53842
1155.21011	0.53776
1153.28154	0.53653
1151.35298	0.53499
1149.42441	0.53312
1147.49585	0.53074
1145.56729	0.52814
1143.63872	0.52588
1141.71016	0.52421
1139.78159	0.52278
1137.85303	0.52132
1135.92446	0.52016
1133.99590	0.51948
1132.06733	0.51917
1130.13877	0.51908
1128.21021	0.51895
1126.28164	0.51847
1124.35308	0.51761
1122.42451	0.51673
1120.49595	0.51625
1118.56738	0.51633
1116.63882	0.51682
1114.71025	0.51756
1112.78169	0.51845
1110.85312	0.51933
1108.92456	0.52007
1106.99600	0.52075
1105.06743	0.52153
1103.13887	0.52244
1101.21030	0.52345
1099.28174	0.52472
1097.35317	0.52652
1095.42461	0.52901
1093.49604	0.53239
1091.56748	0.53716
1089.63892	0.54371
1087.71035	0.55167
1085.78179	0.56032
1083.85322	0.56902
1081.92466	0.57684
1079.99609	0.58258
1078.06753	0.58539
1076.13896	0.58488
1074.21040	0.58108
1072.28184	0.57482
1070.35327	0.56755
1068.42471	0.56032
1066.49614	0.55362
1064.56758	0.54769
1062.63901	0.54239
1060.71045	0.53755
1058.78188	0.53335
1056.85332	0.52965
1054.92476	0.52619
1052.99619	0.52316
1051.06763	0.52083
1049.13906	0.51927
1047.21050	0.51839
1045.28193	0.51812
1043.35337	0.51832
1041.42480	0.51857
1039.49624	0.51863
1037.56768	0.51882
1035.63911	0.51905
1033.71055	0.51858
1031.78198	0.51726
1029.85342	0.51549
1027.92485	0.51360
1025.99629	0.51188
1024.06772	0.51044
1022.13916	0.50934
1020.21060	0.50874
1018.28203	0.50851
1016.35347	0.50825
1014.42490	0.50774
1012.49634	0.50715
1010.56777	0.50670
1008.63921	0.50643
1006.71064	0.50658
1004.78208	0.50738
1002.85352	0.50892
1000.92495	0.51127
998.99639	0.51453
997.06782	0.51869
995.13926	0.52328
993.21069	0.52757
991.28213	0.53086
989.35356	0.53266
987.42500	0.53321
985.49644	0.53316
983.56787	0.53301
981.63931	0.53302
979.71074	0.53341
977.78218	0.53456
975.85361	0.53653
973.92505	0.53904
971.99648	0.54198
970.06792	0.54534
968.13936	0.54889
966.21079	0.55266
964.28223	0.55703
962.35366	0.56204
960.42510	0.56732
958.49653	0.57273
956.56797	0.57845
954.63940	0.58442
952.71084	0.59050
950.78228	0.59683
948.85371	0.60323
946.92515	0.60932
944.99658	0.61541
943.06802	0.62186
941.13945	0.62827
939.21089	0.63428
937.28232	0.64000
935.35376	0.64546
933.42520	0.65115
931.49663	0.65750
929.56807	0.66372
927.63950	0.66958
925.71094	0.67571
923.78237	0.68183
921.85381	0.68752
919.92524	0.69339
917.99668	0.70003
916.06812	0.70713
914.13955	0.71469
912.21099	0.72289
910.28242	0.73106
908.35386	0.73886
906.42529	0.74694
904.49673	0.75614
902.56816	0.76615
900.63960	0.77577
898.71104	0.78478
896.78247	0.79409
894.85391	0.80480
892.92534	0.81592
890.99678	0.82529
889.06821	0.83472
887.13965	0.84608
885.21108	0.85769
883.28252	0.86907
881.35396	0.88039
879.42539	0.89130
877.49683	0.90277
875.56826	0.91600
873.63970	0.92984
871.71113	0.94157
869.78257	0.95123
867.85400	0.96155
865.92544	0.97293
863.99687	0.98321
862.06831	0.99293
860.13975	1.00417
858.21118	1.01683
856.28262	1.02985
854.35405	1.04268
852.42549	1.05583
850.49692	1.06885
848.56836	1.07958
846.63979	1.08829
844.71123	1.09800
842.78267	1.11110
840.85410	1.12576
838.92554	1.13787
836.99697	1.14846
835.06841	1.15962
833.13984	1.16985
831.21128	1.17909
829.28271	1.18909
827.35415	1.20009
825.42559	1.21026
823.49702	1.21999
821.56846	1.23075
819.63989	1.24164
817.71133	1.25287
815.78276	1.26647
813.85420	1.27799
811.92563	1.28392
809.99707	1.28938
808.06851	1.29475
806.13994	1.29925
804.21138	1.30130
802.28281	1.30263
800.35425	1.31126
798.42568	1.32383
796.49712	1.32376
794.56855	1.30881
792.63999	1.29839
790.71143	1.30159
788.78286	1.31867
786.85430	1.33762
784.92573	1.34268
782.99717	1.35232
781.06860	1.39662
779.14004	1.46329
777.21147	1.49703
775.28291	1.48434
773.35435	1.42641
771.42578	1.35715
769.49722	1.32198
767.56865	1.31062
765.64009	1.32558
763.71152	1.36900
761.78296	1.35642
759.85439	1.28417
757.92583	1.22972
755.99727	1.21072
754.06870	1.26162
752.14014	1.34780
750.21157	1.28388
748.28301	1.13294
746.35444	1.07573
744.42588	1.14423
742.49731	1.16132
740.56875	1.05072
738.64019	1.06965
736.71162	1.21453
734.78306	1.11767
732.85449	0.86648
730.92593	0.68491
728.99736	0.58477
727.06880	0.54895
725.14023	0.57291
723.21167	0.74147
721.28311	1.23561
719.35454	0.71424
717.42598	0.34368
715.49741	0.19292
713.56885	0.07296
711.64028	0.01940
709.71172	0.03042
707.78315	-0.09373
705.85459	-0.31049
703.92603	-0.15827
701.99746	-0.01209
700.06890	0.08159
698.14033	0.17220
696.21177	0.25962
694.28320	0.30996
692.35464	0.29504
690.42607	0.22550
688.49751	0.15378
686.56895	0.16838
684.64038	0.23971
682.71182	0.36693
680.78325	0.37186
678.85469	0.19166
676.92612	0.11118
674.99756	0.15326
673.06899	0.21185
671.14043	0.22964
669.21187	0.26167
667.28330	0.32016
665.35474	0.33108
663.42617	0.28984
661.49761	0.26918
659.56904	0.24326
657.64048	0.18652
655.71191	0.15660
653.78335	0.23415
651.85479	0.40579
649.92622	0.53516
647.99766	0.55152
646.06909	0.48052
644.14053	0.34933
642.21196	0.20523
640.28340	0.15633
638.35483	0.22537
636.42627	0.25570
634.49771	0.19583
632.56914	0.17589
630.64058	0.13643
628.71201	0.07675
626.78345	0.15016
624.85488	0.32754
622.92632	0.33626
620.99775	0.20889
619.06919	0.14688
617.14062	0.18796
615.21206	0.22305
613.28350	0.19831
611.35493	0.20334
609.42637	0.21244
607.49780	0.19378
605.56924	0.16946
603.64067	0.19563
601.71211	0.27733
599.78354	0.32721
597.85498	0.26918
595.92642	0.23546
593.99785	0.27920
592.06929	0.28924
590.14072	0.20537
588.21216	0.13784
586.28359	0.12872
584.35503	0.14831
582.42646	0.16017
580.49790	0.17008
578.56934	0.17397
576.64077	0.13369
574.71221	0.11253
572.78364	0.18264
570.85508	0.31531
568.92651	0.45301
566.99795	0.36797
565.06938	0.24001
563.14082	0.22163
561.21226	0.25799
559.28369	0.29159
557.35513	0.29403
555.42656	0.30408
553.49800	0.35909
551.56943	0.32033
549.64087	0.17807
547.71230	0.10842
545.78374	0.14492
543.85518	0.21864
541.92661	0.24143
539.99805	0.19380
538.06948	0.14356
536.14092	0.13940
534.21235	0.17234
532.28379	0.20135
530.35522	0.18319
528.42666	0.15879
526.49810	0.14682
524.56953	0.13056
522.64097	0.14408
520.71240	0.17685
518.78384	0.20372
516.85527	0.23459
514.92671	0.26475
512.99814	0.23373
511.06958	0.18122
509.14102	0.15545
507.21245	0.11835
505.28389	0.08920
503.35532	0.10544
501.42676	0.15143
499.49819	0.20451
