3997.91411	0.06557
3995.98555	0.06609
3994.05698	0.06674
3992.12842	0.06728
3990.19985	0.06727
3988.27129	0.06702
3986.34272	0.06712
3984.41416	0.06755
3982.48560	0.06808
3980.55703	0.06878
3978.62847	0.06947
3976.69990	0.06992
3974.77134	0.07001
3972.84277	0.06983
3970.91421	0.06955
3968.98564	0.06932
3967.05708	0.06939
3965.12852	0.06994
3963.19995	0.07061
3961.27139	0.07085
3959.34282	0.07090
3957.41426	0.07122
3955.48569	0.07136
3953.55713	0.07115
3951.62856	0.07131
3949.70000	0.07223
3947.77144	0.07326
3945.84287	0.07353
3943.91431	0.07359
3941.98574	0.07367
3940.05718	0.07257
3938.12861	0.07105
3936.20005	0.07065
3934.27148	0.07149
3932.34292	0.07296
3930.41436	0.07375
3928.48579	0.07316
3926.55723	0.07255
3924.62866	0.07311
3922.70010	0.07383
3920.77153	0.07346
3918.84297	0.07310
3916.91440	0.07355
3914.98584	0.07322
3913.05728	0.07155
3911.12871	0.07012
3909.20015	0.06960
3907.27158	0.07032
3905.34302	0.07325
3903.41445	0.07751
3901.48589	0.07946
3899.55732	0.07832
3897.62876	0.07587
3895.70020	0.07351
3893.77163	0.07294
3891.84307	0.07458
3889.91450	0.07569
3887.98594	0.07472
3886.05737	0.07457
3884.12881	0.07593
3882.20024	0.07675
3880.27168	0.07718
3878.34312	0.07638
3876.41455	0.07437
3874.48599	0.07430
3872.55742	0.07670
3870.62886	0.07937
3868.70029	0.08012
3866.77173	0.07869
3864.84316	0.07865
3862.91460	0.08029
3860.98604	0.07986
3859.05747	0.07824
3857.12891	0.07847
3855.20034	0.08121
3853.27178	0.08645
3851.34321	0.08868
3849.41465	0.08436
3847.48608	0.08049
3845.55752	0.07942
3843.62896	0.08104
3841.70039	0.08444
3839.77183	0.08818
3837.84326	0.09071
3835.91470	0.09050
3833.98613	0.08887
3832.05757	0.08755
3830.12900	0.08655
3828.20044	0.08631
3826.27187	0.08722
3824.34331	0.08858
3822.41475	0.09078
3820.48618	0.09480
3818.55762	0.09675
3816.62905	0.09583
3814.70049	0.09470
3812.77192	0.09278
3810.84336	0.09143
3808.91479	0.09248
3806.98623	0.09569
3805.05767	0.09838
3803.12910	0.10016
3801.20054	0.10340
3799.27197	0.10545
3797.34341	0.10479
3795.41484	0.10411
3793.48628	0.10302
3791.55771	0.10196
3789.62915	0.10222
3787.70059	0.10380
3785.77202	0.10620
3783.84346	0.10854
3781.91489	0.11025
3779.98633	0.11259
3778.05776	0.11516
3776.12920	0.11554
3774.20063	0.11530
3772.27207	0.11680
3770.34351	0.12051
3768.41494	0.12483
3766.48638	0.12710
3764.55781	0.12809
3762.62925	0.12905
3760.70068	0.13097
3758.77212	0.13457
3756.84355	0.13824
3754.91499	0.14104
3752.98643	0.14504
3751.05786	0.15186
3749.12930	0.15828
3747.20073	0.15978
3745.27217	0.16022
3743.34360	0.16288
3741.41504	0.16600
3739.48647	0.16865
3737.55791	0.17321
3735.62935	0.18143
3733.70078	0.18996
3731.77222	0.19295
3729.84365	0.19344
3727.91509	0.19584
3725.98652	0.20159
3724.05796	0.20913
3722.12939	0.21582
3720.20083	0.22163
3718.27227	0.22725
3716.34370	0.23326
3714.41514	0.24033
3712.48657	0.25099
3710.55801	0.26723
3708.62944	0.28221
3706.70088	0.29165
3704.77231	0.30103
3702.84375	0.31416
3700.91519	0.33178
3698.98662	0.34989
3697.05806	0.36671
3695.12949	0.38545
3693.20093	0.40619
3691.27236	0.42942
3689.34380	0.45943
3687.41523	0.49398
3685.48667	0.52238
3683.55811	0.54710
3681.62954	0.57510
3679.70098	0.60819
3677.77241	0.64411
3675.84385	0.68657
3673.91528	0.74099
3671.98672	0.78328
3670.05815	0.82144
3668.12959	0.87434
3666.20103	0.92078
3664.27246	0.95928
3662.34390	1.00224
3660.41533	1.05018
3658.48677	1.09850
3656.55820	1.15014
3654.62964	1.20681
3652.70107	1.25377
3650.77251	1.29559
3648.84395	1.35502
3646.91538	1.42648
3644.98682	1.47603
3643.05825	1.51312
3641.12969	1.55170
3639.20112	1.59486
3637.27256	1.63911
3635.34399	1.68299
3633.41543	1.72756
3631.48687	1.77015
3629.55830	1.81348
3627.62974	1.86914
3625.70117	1.91999
3623.77261	1.95325
3621.84404	1.98507
3619.91548	2.02295
3617.98691	2.06962
3616.05835	2.11407
3614.12979	2.15167
3612.20122	2.19196
3610.27266	2.23160
3608.34409	2.27087
3606.41553	2.31309
3604.48696	2.35250
3602.55840	2.38808
3600.62983	2.42656
3598.70127	2.46814
3596.77271	2.50888
3594.84414	2.55034
3592.91558	2.59250
3590.98701	2.63081
3589.05845	2.66671
3587.12988	2.71174
3585.20132	2.76116
3583.27275	2.80078
3581.34419	2.83714
3579.41562	2.87772
3577.48706	2.92134
3575.55850	2.96434
3573.62993	3.00695
3571.70137	3.04824
3569.77280	3.08915
3567.84424	3.13403
3565.91567	3.18649
3563.98711	3.23393
3562.05854	3.27306
3560.12998	3.31540
3558.20142	3.36105
3556.27285	3.40482
3554.34429	3.44753
3552.41572	3.49482
3550.48716	3.54347
3548.55859	3.58768
3546.63003	3.63048
3544.70146	3.67750
3542.77290	3.72619
3540.84434	3.77138
3538.91577	3.81690
3536.98721	3.86708
3535.05864	3.92082
3533.13008	3.97135
3531.20151	4.01681
3529.27295	4.06096
3527.34438	4.10808
3525.41582	4.15756
3523.48726	4.20754
3521.55869	4.25702
3519.63013	4.30125
3517.70156	4.34291
3515.77300	4.38685
3513.84443	4.43251
3511.91587	4.47971
3509.98730	4.53179
3508.05874	4.58465
3506.13018	4.62989
3504.20161	4.67276
3502.27305	4.72298
3500.34448	4.77560
3498.41592	4.82145
3496.48735	4.87030
3494.55879	4.92569
3492.63022	4.97740
3490.70166	5.02743
3488.77310	5.07274
3486.84453	5.10688
3484.91597	5.14377
3482.98740	5.19515
3481.05884	5.25549
3479.13027	5.30786
3477.20171	5.34703
3475.27314	5.38911
3473.34458	5.44177
3471.41602	5.49933
3469.48745	5.55902
3467.55889	5.61242
3465.63032	5.65267
3463.70176	5.69356
3461.77319	5.74181
3459.84463	5.79137
3457.91606	5.83992
3455.98750	5.89277
3454.05894	5.94611
3452.13037	5.98646
3450.20181	6.02445
3448.27324	6.07505
3446.34468	6.13552
3444.41611	6.19141
3442.48755	6.22549
3440.55898	6.24260
3438.63042	6.27392
3436.70186	6.32866
3434.77329	6.39400
3432.84473	6.46449
3430.91616	6.54256
3428.98760	6.61963
3427.05903	6.67735
3425.13047	6.73032
3423.20190	6.77130
3421.27334	6.79483
3419.34478	6.81884
3417.41621	6.84196
3415.48765	6.87902
3413.55908	6.94096
3411.63052	7.00127
3409.70195	7.03289
3407.77339	7.07146
3405.84482	7.13809
3403.91626	7.20368
3401.98770	7.23781
3400.05913	7.25729
3398.13057	7.28727
3396.20200	7.31438
3394.27344	7.34038
3392.34487	7.36550
3390.41631	7.41189
3388.48774	7.46815
3386.55918	7.49062
3384.63062	7.50552
3382.70205	7.56338
3380.77349	7.63031
3378.84492	7.66751
3376.91636	7.70751
3374.98779	7.71486
3373.05923	7.66611
3371.13066	7.63303
3369.20210	7.68980
3367.27354	7.79602
3365.34497	7.84437
3363.41641	7.80094
3361.48784	7.73907
3359.55928	7.75659
3357.63071	7.84985
3355.70215	7.93836
3353.77358	7.93784
3351.84502	7.88795
3349.91646	7.85275
3347.98789	7.86915
3346.05933	7.96617
3344.13076	8.07196
3342.20220	8.08068
3340.27363	8.03263
3338.34507	8.04607
3336.41650	8.05043
3334.48794	7.97604
3332.55937	7.93364
3330.63081	7.98736
3328.70225	8.08079
3326.77368	8.12512
3324.84512	8.08708
3322.91655	8.04196
3320.98799	8.06597
3319.05942	8.10166
3317.13086	8.06842
3315.20229	7.96196
3313.27373	7.90587
3311.34517	7.97578
3309.41660	8.08898
3307.48804	8.12122
3305.55947	8.06220
3303.63091	8.03811
3301.70234	8.06992
3299.77378	8.09686
3297.84521	8.11835
3295.91665	8.14681
3293.98809	8.15623
3292.05952	8.17607
3290.13096	8.18343
3288.20239	8.09599
3286.27383	7.99709
3284.34526	7.96586
3282.41670	8.01318
3280.48813	8.08463
3278.55957	8.08093
3276.63101	8.02312
3274.70244	8.04070
3272.77388	8.16431
3270.84531	8.23372
3268.91675	8.14491
3266.98818	8.03982
3265.05962	8.06201
3263.13105	8.18316
3261.20249	8.26460
3259.27393	8.20524
3257.34536	8.07254
3255.41680	8.00690
3253.48823	8.07507
3251.55967	8.19285
3249.63110	8.21622
3247.70254	8.17136
3245.77397	8.13928
3243.84541	8.11367
3241.91685	8.05219
3239.98828	8.01098
3238.05972	8.02052
3236.13115	7.98608
3234.20259	7.90645
3232.27402	7.87729
3230.34546	7.92223
3228.41689	7.97321
3226.48833	7.98692
3224.55977	7.95897
3222.63120	7.84720
3220.70264	7.70635
3218.77407	7.66439
3216.84551	7.74410
3214.91694	7.87026
3212.98838	7.92474
3211.05981	7.85910
3209.13125	7.75455
3207.20269	7.68008
3205.27412	7.67126
3203.34556	7.70464
3201.41699	7.70631
3199.48843	7.67252
3197.55986	7.63350
3195.63130	7.58130
3193.70273	7.51699
3191.77417	7.44724
3189.84561	7.36972
3187.91704	7.30382
3185.98848	7.26846
3184.05991	7.24914
3182.13135	7.22586
3180.20278	7.19894
3178.27422	7.17019
3176.34565	7.13743
3174.41709	7.09595
3172.48853	7.03507
3170.55996	6.95192
3168.63140	6.87581
3166.70283	6.82126
3164.77427	6.76679
3162.84570	6.70828
3160.91714	6.64836
3158.98857	6.58257
3157.06001	6.50707
3155.13145	6.43111
3153.20288	6.36348
3151.27432	6.29437
3149.34575	6.22482
3147.41719	6.16068
3145.48862	6.09546
3143.56006	6.02093
3141.63149	5.94124
3139.70293	5.87129
3137.77437	5.81304
3135.84580	5.75093
3133.91724	5.67952
3131.98867	5.60332
3130.06011	5.52319
3128.13154	5.45001
3126.20298	5.39117
3124.27441	5.33356
3122.34585	5.26545
3120.41729	5.18985
3118.48872	5.11451
3116.56016	5.04182
3114.63159	4.96751
3112.70303	4.89507
3110.77446	4.83034
3108.84590	4.76601
3106.91733	4.69943
3104.98877	4.63607
3103.06021	4.57406
3101.13164	4.50992
3099.20308	4.44462
3097.27451	4.37882
3095.34595	4.31159
3093.41738	4.24425
3091.48882	4.17982
3089.56025	4.11842
3087.63169	4.05885
3085.70312	4.00023
3083.77456	3.94152
3081.84600	3.88240
3079.91743	3.82208
3077.98887	3.76151
3076.06030	3.70344
3074.13174	3.64812
3072.20317	3.59329
3070.27461	3.53701
3068.34604	3.47962
3066.41748	3.42217
3064.48892	3.36632
3062.56035	3.31353
3060.63179	3.26228
3058.70322	3.20990
3056.77466	3.15597
3054.84609	3.10266
3052.91753	3.05164
3050.98896	3.00186
3049.06040	2.95221
3047.13184	2.90258
3045.20327	2.85321
3043.27471	2.80526
3041.34614	2.75946
3039.41758	2.71460
3037.48901	2.66891
3035.56045	2.62280
3033.63188	2.57790
3031.70332	2.53385
3029.77476	2.48989
3027.84619	2.44695
3025.91763	2.40556
3023.98906	2.36486
3022.06050	2.32424
3020.13193	2.28367
3018.20337	2.24372
3016.27480	2.20483
3014.34624	2.16676
3012.41768	2.12906
3010.48911	2.09124
3008.56055	2.05391
3006.63198	2.01815
3004.70342	1.98366
3002.77485	1.94936
3000.84629	1.91515
2998.91772	1.88200
2996.98916	1.85016
2995.06060	1.81898
2993.13203	1.78812
2991.20347	1.75774
2989.27490	1.72836
2987.34634	1.70004
2985.41777	1.67204
2983.48921	1.64425
2981.56064	1.61701
2979.63208	1.59008
2977.70352	1.56321
2975.77495	1.53665
2973.84639	1.51094
2971.91782	1.48650
2969.98926	1.46311
2968.06069	1.43997
2966.13213	1.41632
2964.20356	1.39228
2962.27500	1.36870
2960.34644	1.34570
2958.41787	1.32261
2956.48931	1.29937
2954.56074	1.27630
2952.63218	1.25358
2950.70361	1.23135
2948.77505	1.20957
2946.84648	1.18793
2944.91792	1.16662
2942.98936	1.14618
2941.06079	1.12648
2939.13223	1.10691
2937.20366	1.08761
2935.27510	1.06888
2933.34653	1.05004
2931.41797	1.03049
2929.48940	1.01092
2927.56084	0.99235
2925.63228	0.97457
2923.70371	0.95674
2921.77515	0.93916
2919.84658	0.92259
2917.91802	0.90666
2915.98945	0.89059
2914.06089	0.87474
2912.13232	0.85948
2910.20376	0.84416
2908.27520	0.82883
2906.34663	0.81424
2904.41807	0.80027
2902.48950	0.78655
2900.56094	0.77326
2898.63237	0.76070
2896.70381	0.74862
2894.77524	0.73625
2892.84668	0.72371
2890.91812	0.71182
2888.98955	0.70050
2887.06099	0.68950
2885.13242	0.67909
2883.20386	0.66906
2881.27529	0.65905
2879.34673	0.64917
2877.41816	0.63953
2875.48960	0.63006
2873.56104	0.62059
2871.63247	0.61067
2869.70391	0.59995
2867.77534	0.58865
2865.84678	0.57725
2863.91821	0.56597
2861.98965	0.55481
2860.06108	0.54401
2858.13252	0.53390
2856.20396	0.52440
2854.27539	0.51539
2852.34683	0.50689
2850.41826	0.49878
2848.48970	0.49066
2846.56113	0.48261
2844.63257	0.47498
2842.70400	0.46785
2840.77544	0.46131
2838.84687	0.45531
2836.91831	0.44956
2834.98975	0.44380
2833.06118	0.43799
2831.13262	0.43211
2829.20405	0.42621
2827.27549	0.42033
2825.34692	0.41442
2823.41836	0.40843
2821.48979	0.40247
2819.56123	0.39671
2817.63267	0.39097
2815.70410	0.38521
2813.77554	0.37968
2811.84697	0.37430
2809.91841	0.36890
2807.98984	0.36359
2806.06128	0.35843
2804.13271	0.35331
2802.20415	0.34835
2800.27559	0.34365
2798.34702	0.33892
2796.41846	0.33405
2794.48989	0.32929
2792.56133	0.32477
2790.63276	0.32042
2788.70420	0.31605
2786.77563	0.31156
2784.84707	0.30715
2782.91851	0.30308
2780.98994	0.29926
2779.06138	0.29538
2777.13281	0.29131
2775.20425	0.28724
2773.27568	0.28338
2771.34712	0.27974
2769.41855	0.27619
2767.48999	0.27266
2765.56143	0.26922
2763.63286	0.26579
2761.70430	0.26238
2759.77573	0.25920
2757.84717	0.25626
2755.91860	0.25322
2753.99004	0.24992
2752.06147	0.24673
2750.13291	0.24391
2748.20435	0.24124
2746.27578	0.23838
2744.34722	0.23539
2742.41865	0.23258
2740.49009	0.23000
2738.56152	0.22755
2736.63296	0.22516
2734.70439	0.22273
2732.77583	0.22034
2730.84727	0.21794
2728.91870	0.21544
2726.99014	0.21313
2725.06157	0.21117
2723.13301	0.20930
2721.20444	0.20730
2719.27588	0.20519
2717.34731	0.20313
2715.41875	0.20115
2713.49019	0.19916
2711.56162	0.19725
2709.63306	0.19561
2707.70449	0.19421
2705.77593	0.19267
2703.84736	0.19083
2701.91880	0.18909
2699.99023	0.18763
2698.06167	0.18624
2696.13311	0.18480
2694.20454	0.18333
2692.27598	0.18187
2690.34741	0.18052
2688.41885	0.17926
2686.49028	0.17797
2684.56172	0.17665
2682.63315	0.17529
2680.70459	0.17398
2678.77603	0.17292
2676.84746	0.17204
2674.91890	0.17102
2672.99033	0.16980
2671.06177	0.16861
2669.13320	0.16754
2667.20464	0.16660
2665.27607	0.16574
2663.34751	0.16487
2661.41895	0.16400
2659.49038	0.16316
2657.56182	0.16231
2655.63325	0.16147
2653.70469	0.16064
2651.77612	0.15978
2649.84756	0.15899
2647.91899	0.15838
2645.99043	0.15782
2644.06187	0.15720
2642.13330	0.15657
2640.20474	0.15595
2638.27617	0.15535
2636.34761	0.15488
2634.41904	0.15448
2632.49048	0.15402
2630.56191	0.15344
2628.63335	0.15285
2626.70479	0.15235
2624.77622	0.15200
2622.84766	0.15171
2620.91909	0.15135
2618.99053	0.15109
2617.06196	0.15109
2615.13340	0.15108
2613.20483	0.15074
2611.27627	0.15032
2609.34771	0.15006
2607.41914	0.14994
2605.49058	0.14989
2603.56201	0.14984
2601.63345	0.14975
2599.70488	0.14974
2597.77632	0.14978
2595.84775	0.14967
2593.91919	0.14960
2591.99062	0.14977
2590.06206	0.14991
2588.13350	0.14995
2586.20493	0.15013
2584.27637	0.15047
2582.34780	0.15071
2580.41924	0.15079
2578.49067	0.15092
2576.56211	0.15121
2574.63354	0.15144
2572.70498	0.15159
2570.77642	0.15183
2568.84785	0.15215
2566.91929	0.15250
2564.99072	0.15295
2563.06216	0.15342
2561.13359	0.15384
2559.20503	0.15426
2557.27646	0.15468
2555.34790	0.15512
2553.41934	0.15555
2551.49077	0.15597
2549.56221	0.15649
2547.63364	0.15702
2545.70508	0.15743
2543.77651	0.15788
2541.84795	0.15853
2539.91938	0.15927
2537.99082	0.16000
2536.06226	0.16067
2534.13369	0.16117
2532.20513	0.16159
2530.27656	0.16214
2528.34800	0.16283
2526.41943	0.16351
2524.49087	0.16417
2522.56230	0.16487
2520.63374	0.16560
2518.70518	0.16633
2516.77661	0.16703
2514.84805	0.16780
2512.91948	0.16865
2510.99092	0.16940
2509.06235	0.17006
2507.13379	0.17082
2505.20522	0.17159
2503.27666	0.17231
2501.34810	0.17306
2499.41953	0.17388
2497.49097	0.17476
2495.56240	0.17566
2493.63384	0.17649
2491.70527	0.17713
2489.77671	0.17775
2487.84814	0.17855
2485.91958	0.17945
2483.99102	0.18036
2482.06245	0.18126
2480.13389	0.18213
2478.20532	0.18298
2476.27676	0.18373
2474.34819	0.18447
2472.41963	0.18532
2470.49106	0.18623
2468.56250	0.18713
2466.63394	0.18801
2464.70537	0.18888
2462.77681	0.18973
2460.84824	0.19053
2458.91968	0.19126
2456.99111	0.19216
2455.06255	0.19329
2453.13398	0.19432
2451.20542	0.19518
2449.27686	0.19602
2447.34829	0.19689
2445.41973	0.19785
2443.49116	0.19895
2441.56260	0.19994
2439.63403	0.20074
2437.70547	0.20162
2435.77690	0.20276
2433.84834	0.20397
2431.91978	0.20502
2429.99121	0.20594
2428.06265	0.20686
2426.13408	0.20795
2424.20552	0.20910
2422.27695	0.21014
2420.34839	0.21110
2418.41982	0.21219
2416.49126	0.21341
2414.56270	0.21459
2412.63413	0.21564
2410.70557	0.21664
2408.77700	0.21768
2406.84844	0.21879
2404.91987	0.21999
2402.99131	0.22109
2401.06274	0.22211
2399.13418	0.22330
2397.20562	0.22462
2395.27705	0.22583
2393.34849	0.22694
2391.41992	0.22806
2389.49136	0.22929
2387.56279	0.23084
2385.63423	0.23296
2383.70566	0.23579
2381.77710	0.23936
2379.84854	0.24353
2377.91997	0.24810
2375.99141	0.25293
2374.06284	0.25831
2372.13428	0.26445
2370.20571	0.27118
2368.27715	0.27814
2366.34858	0.28460
2364.42002	0.29009
2362.49146	0.29476
2360.56289	0.29796
2358.63433	0.29905
2356.70576	0.29807
2354.77720	0.29512
2352.84863	0.29106
2350.92007	0.28689
2348.99150	0.28442
2347.06294	0.28526
2345.13437	0.29002
2343.20581	0.29644
2341.27725	0.30046
2339.34868	0.30185
2337.42012	0.30209
2335.49155	0.30211
2333.56299	0.30266
2331.63442	0.30425
2329.70586	0.30568
2327.77729	0.30585
2325.84873	0.30538
2323.92017	0.30502
2321.99160	0.30484
2320.06304	0.30450
2318.13447	0.30390
2316.20591	0.30329
2314.27734	0.30312
2312.34878	0.30346
2310.42021	0.30400
2308.49165	0.30446
2306.56309	0.30468
2304.63452	0.30485
2302.70596	0.30546
2300.77739	0.30652
2298.84883	0.30766
2296.92026	0.30871
2294.99170	0.30970
2293.06313	0.31071
2291.13457	0.31189
2289.20601	0.31322
2287.27744	0.31457
2285.34888	0.31591
2283.42031	0.31737
2281.49175	0.31910
2279.56318	0.32111
2277.63462	0.32333
2275.70605	0.32558
2273.77749	0.32772
2271.84893	0.32980
2269.92036	0.33192
2267.99180	0.33398
2266.06323	0.33594
2264.13467	0.33792
2262.20610	0.33988
2260.27754	0.34177
2258.34897	0.34374
2256.42041	0.34580
2254.49185	0.34777
2252.56328	0.34970
2250.63472	0.35169
2248.70615	0.35376
2246.77759	0.35592
2244.84902	0.35810
2242.92046	0.36022
2240.99189	0.36233
2239.06333	0.36449
2237.13477	0.36667
2235.20620	0.36880
2233.27764	0.37091
2231.34907	0.37300
2229.42051	0.37514
2227.49194	0.37736
2225.56338	0.37954
2223.63481	0.38167
2221.70625	0.38381
2219.77769	0.38594
2217.84912	0.38808
2215.92056	0.39030
2213.99199	0.39252
2212.06343	0.39464
2210.13486	0.39668
2208.20630	0.39880
2206.27773	0.40100
2204.34917	0.40314
2202.42061	0.40505
2200.49204	0.40688
2198.56348	0.40885
2196.63491	0.41090
2194.70635	0.41292
2192.77778	0.41493
2190.84922	0.41687
2188.92065	0.41865
2186.99209	0.42033
2185.06353	0.42202
2183.13496	0.42373
2181.20640	0.42545
2179.27783	0.42717
2177.34927	0.42883
2175.42070	0.43036
2173.49214	0.43181
2171.56357	0.43328
2169.63501	0.43474
2167.70645	0.43616
2165.77788	0.43735
2163.84932	0.43834
2161.92075	0.43932
2159.99219	0.44037
2158.06362	0.44147
2156.13506	0.44265
2154.20649	0.44372
2152.27793	0.44452
2150.34937	0.44512
2148.42080	0.44566
2146.49224	0.44630
2144.56367	0.44700
2142.63511	0.44755
2140.70654	0.44792
2138.77798	0.44831
2136.84941	0.44877
2134.92085	0.44909
2132.99229	0.44912
2131.06372	0.44899
2129.13516	0.44892
2127.20659	0.44885
2125.27803	0.44860
2123.34946	0.44808
2121.42090	0.44752
2119.49233	0.44707
2117.56377	0.44657
2115.63521	0.44599
2113.70664	0.44539
2111.77808	0.44466
2109.84951	0.44382
2107.92095	0.44296
2105.99238	0.44197
2104.06382	0.44074
2102.13525	0.43939
2100.20669	0.43813
2098.27812	0.43700
2096.34956	0.43582
2094.42100	0.43443
2092.49243	0.43290
2090.56387	0.43135
2088.63530	0.42975
2086.70674	0.42804
2084.77817	0.42627
2082.84961	0.42452
2080.92104	0.42267
2078.99248	0.42071
2077.06392	0.41869
2075.13535	0.41667
2073.20679	0.41468
2071.27822	0.41261
2069.34966	0.41047
2067.42109	0.40835
2065.49253	0.40619
2063.56396	0.40388
2061.63540	0.40150
2059.70684	0.39907
2057.77827	0.39654
2055.84971	0.39403
2053.92114	0.39161
2051.99258	0.38915
2050.06401	0.38665
2048.13545	0.38417
2046.20688	0.38165
2044.27832	0.37915
2042.34976	0.37668
2040.42119	0.37412
2038.49263	0.37145
2036.56406	0.36876
2034.63550	0.36611
2032.70693	0.36344
2030.77837	0.36066
2028.84980	0.35781
2026.92124	0.35504
2024.99268	0.35237
2023.06411	0.34974
2021.13555	0.34715
2019.20698	0.34465
2017.27842	0.34213
2015.34985	0.33927
2013.42129	0.33624
2011.49272	0.33340
2009.56416	0.33079
2007.63560	0.32816
2005.70703	0.32549
2003.77847	0.32290
2001.84990	0.32035
1999.92134	0.31779
1997.99277	0.31520
1996.06421	0.31267
1994.13564	0.31041
1992.20708	0.30826
1990.27852	0.30570
1988.34995	0.30295
1986.42139	0.30036
1984.49282	0.29792
1982.56426	0.29558
1980.63569	0.29331
1978.70713	0.29108
1976.77856	0.28888
1974.85000	0.28667
1972.92144	0.28444
1970.99287	0.28228
1969.06431	0.28045
1967.13574	0.27877
1965.20718	0.27671
1963.27861	0.27440
1961.35005	0.27234
1959.42148	0.27047
1957.49292	0.26868
1955.56436	0.26696
1953.63579	0.26520
1951.70723	0.26337
1949.77866	0.26164
1947.85010	0.26013
1945.92153	0.25886
1943.99297	0.25774
1942.06440	0.25642
1940.13584	0.25461
1938.20728	0.25273
1936.27871	0.25122
1934.35015	0.24995
1932.42158	0.24873
1930.49302	0.24751
1928.56445	0.24634
1926.63589	0.24527
1924.70732	0.24457
1922.77876	0.24406
1920.85020	0.24313
1918.92163	0.24203
1916.99307	0.24098
1915.06450	0.23973
1913.13594	0.23870
1911.20737	0.23821
1909.27881	0.23779
1907.35024	0.23705
1905.42168	0.23611
1903.49312	0.23529
1901.56455	0.23459
1899.63599	0.23402
1897.70742	0.23371
1895.77886	0.23356
1893.85029	0.23323
1891.92173	0.23284
1889.99316	0.23280
1888.06460	0.23257
1886.13604	0.23199
1884.20747	0.23157
1882.27891	0.23126
1880.35034	0.23101
1878.42178	0.23086
1876.49321	0.23083
1874.56465	0.23086
1872.63608	0.23114
1870.70752	0.23205
1868.77896	0.23348
1866.85039	0.23383
1864.92183	0.23288
1862.99326	0.23223
1861.06470	0.23226
1859.13613	0.23256
1857.20757	0.23280
1855.27900	0.23316
1853.35044	0.23362
1851.42187	0.23415
1849.49331	0.23493
1847.56475	0.23614
1845.63618	0.23771
1843.70762	0.23909
1841.77905	0.23933
1839.85049	0.23903
1837.92192	0.23945
1835.99336	0.24034
1834.06479	0.24127
1832.13623	0.24253
1830.20767	0.24463
1828.27910	0.24648
1826.35054	0.24738
1824.42197	0.24842
1822.49341	0.24925
1820.56484	0.24994
1818.63628	0.25098
1816.70771	0.25246
1814.77915	0.25414
1812.85059	0.25622
1810.92202	0.25868
1808.99346	0.26080
1807.06489	0.26245
1805.13633	0.26415
1803.20776	0.26650
1801.27920	0.26938
1799.35063	0.27230
1797.42207	0.27466
1795.49351	0.27704
1793.56494	0.28019
1791.63638	0.28416
1789.70781	0.28712
1787.77925	0.28894
1785.85068	0.29175
1783.92212	0.29553
1781.99355	0.29954
1780.06499	0.30367
1778.13643	0.30776
1776.20786	0.31174
1774.27930	0.31659
1772.35073	0.32330
1770.42217	0.32964
1768.49360	0.33404
1766.56504	0.33828
1764.63647	0.34313
1762.70791	0.34904
1760.77935	0.35661
1758.85078	0.36348
1756.92222	0.37035
1754.99365	0.37776
1753.06509	0.38473
1751.13652	0.39382
1749.20796	0.40518
1747.27939	0.41532
1745.35083	0.42372
1743.42227	0.43287
1741.49370	0.44318
1739.56514	0.45544
1737.63657	0.46778
1735.70801	0.47891
1733.77944	0.49592
1731.85088	0.51536
1729.92231	0.52980
1727.99375	0.54429
1726.06519	0.56023
1724.13662	0.57828
1722.20806	0.59818
1720.27949	0.61703
1718.35093	0.63977
1716.42236	0.67271
1714.49380	0.70231
1712.56523	0.72549
1710.63667	0.74847
1708.70811	0.77406
1706.77954	0.80382
1704.85098	0.83936
1702.92241	0.87085
1700.99385	0.90232
1699.06528	0.94946
1697.13672	0.99247
1695.20815	1.03611
1693.27959	1.07863
1691.35103	1.11369
1689.42246	1.15516
1687.49390	1.19919
1685.56533	1.24171
1683.63677	1.30774
1681.70820	1.37579
1679.77964	1.41832
1677.85107	1.45899
1675.92251	1.50689
1673.99395	1.56701
1672.06538	1.62035
1670.13682	1.67278
1668.20825	1.74141
1666.27969	1.79633
1664.35112	1.84256
1662.42256	1.90228
1660.49399	1.97119
1658.56543	2.02532
1656.63687	2.06919
1654.70830	2.10864
1652.77974	2.16726
1650.85117	2.22363
1648.92261	2.24469
1646.99404	2.27106
1645.06548	2.30002
1643.13691	2.31942
1641.20835	2.33065
1639.27979	2.34012
1637.35122	2.34588
1635.42266	2.34567
1633.49409	2.33697
1631.56553	2.32164
1629.63696	2.30372
1627.70840	2.27477
1625.77983	2.24006
1623.85127	2.19679
1621.92271	2.14524
1619.99414	2.09972
1618.06558	2.05509
1616.13701	1.98958
1614.20845	1.92114
1612.27988	1.86919
1610.35132	1.81642
1608.42275	1.75984
1606.49419	1.70363
1604.56562	1.65195
1602.63706	1.60283
1600.70850	1.55516
1598.77993	1.51113
1596.85137	1.46970
1594.92280	1.42933
1592.99424	1.38997
1591.06567	1.35393
1589.13711	1.32058
1587.20854	1.28963
1585.27998	1.26092
1583.35142	1.23428
1581.42285	1.21018
1579.49429	1.18997
1577.56572	1.17278
1575.63716	1.15202
1573.70859	1.13275
1571.78003	1.12036
1569.85146	1.10859
1567.92290	1.09550
1565.99434	1.08561
1564.06577	1.07873
1562.13721	1.07419
1560.20864	1.07302
1558.28008	1.07445
1556.35151	1.07409
1554.42295	1.07312
1552.49438	1.07279
1550.56582	1.07138
1548.63726	1.06755
1546.70869	1.06197
1544.78013	1.05493
1542.85156	1.04540
1540.92300	1.02902
1538.99443	1.00000
1537.06587	0.97788
1535.13730	0.96374
1533.20874	0.94548
1531.28018	0.92517
1529.35161	0.91025
1527.42305	0.89673
1525.49448	0.88295
1523.56592	0.87148
1521.63735	0.86067
1519.70879	0.84898
1517.78022	0.83890
1515.85166	0.82716
1513.92310	0.81450
1511.99453	0.80403
1510.06597	0.79572
1508.13740	0.78845
1506.20884	0.77447
1504.28027	0.75974
1502.35171	0.75179
1500.42314	0.74612
1498.49458	0.74060
1496.56602	0.73351
1494.63745	0.72581
1492.70889	0.72030
1490.78032	0.71659
1488.85176	0.71223
1486.92319	0.70671
1484.99463	0.70184
1483.06606	0.69849
1481.13750	0.69634
1479.20894	0.69487
1477.28037	0.69445
1475.35181	0.69543
1473.42324	0.69702
1471.49468	0.69660
1469.56611	0.69386
1467.63755	0.69142
1465.70898	0.68994
1463.78042	0.68867
1461.85186	0.68771
1459.92329	0.68804
1457.99473	0.68960
1456.06616	0.68917
1454.13760	0.68526
1452.20903	0.68141
1450.28047	0.67820
1448.35190	0.67539
1446.42334	0.67227
1444.49478	0.66897
1442.56621	0.66605
1440.63765	0.66351
1438.70908	0.66136
1436.78052	0.65879
1434.85195	0.65506
1432.92339	0.65186
1430.99482	0.64989
1429.06626	0.64858
1427.13770	0.64787
1425.20913	0.64810
1423.28057	0.64893
1421.35200	0.64968
1419.42344	0.65056
1417.49487	0.65061
1415.56631	0.64891
1413.63774	0.64723
1411.70918	0.64648
1409.78062	0.64664
1407.85205	0.64744
1405.92349	0.64879
1403.99492	0.65001
1402.06636	0.65013
1400.13779	0.64947
1398.20923	0.64830
1396.28066	0.64625
1394.35210	0.64278
1392.42354	0.63827
1390.49497	0.63420
1388.56641	0.63070
1386.63784	0.62657
1384.70928	0.62162
1382.78071	0.61693
1380.85215	0.61286
1378.92358	0.60960
1376.99502	0.60740
1375.06646	0.60623
1373.13789	0.60531
1371.20933	0.60419
1369.28076	0.60321
1367.35220	0.60209
1365.42363	0.60078
1363.49507	0.59975
1361.56650	0.59851
1359.63794	0.59661
1357.70937	0.59475
1355.78081	0.59328
1353.85225	0.59209
1351.92368	0.59112
1349.99512	0.59033
1348.06655	0.58961
1346.13799	0.58878
1344.20942	0.58786
1342.28086	0.58725
1340.35229	0.58704
1338.42373	0.58649
1336.49517	0.58528
1334.56660	0.58419
1332.63804	0.58366
1330.70947	0.58357
1328.78091	0.58377
1326.85234	0.58424
1324.92378	0.58491
1322.99521	0.58563
1321.06665	0.58629
1319.13809	0.58690
1317.20952	0.58728
1315.28096	0.58734
1313.35239	0.58706
1311.42383	0.58639
1309.49526	0.58552
1307.56670	0.58471
1305.63813	0.58398
1303.70957	0.58324
1301.78101	0.58237
1299.85244	0.58140
1297.92388	0.58046
1295.99531	0.57945
1294.06675	0.57828
1292.13818	0.57708
1290.20962	0.57588
1288.28105	0.57475
1286.35249	0.57362
1284.42393	0.57240
1282.49536	0.57114
1280.56680	0.56998
1278.63823	0.56886
1276.70967	0.56769
1274.78110	0.56656
1272.85254	0.56565
1270.92397	0.56502
1268.99541	0.56440
1267.06685	0.56365
1265.13828	0.56284
1263.20972	0.56213
1261.28115	0.56150
1259.35259	0.56080
1257.42402	0.56004
1255.49546	0.55950
1253.56689	0.55931
1251.63833	0.55942
1249.70977	0.55957
1247.78120	0.55941
1245.85264	0.55902
1243.92407	0.55852
1241.99551	0.55777
1240.06694	0.55662
1238.13838	0.55507
1236.20981	0.55313
1234.28125	0.55096
1232.35269	0.54885
1230.42412	0.54696
1228.49556	0.54522
1226.56699	0.54345
1224.63843	0.54158
1222.70986	0.53976
1220.78130	0.53823
1218.85273	0.53687
1216.92417	0.53553
1214.99561	0.53439
1213.06704	0.53352
1211.13848	0.53287
1209.20991	0.53238
1207.28135	0.53190
1205.35278	0.53116
1203.42422	0.53021
1201.49565	0.52931
1199.56709	0.52857
1197.63853	0.52792
1195.70996	0.52722
1193.78140	0.52650
1191.85283	0.52596
1189.92427	0.52563
1187.99570	0.52540
1186.06714	0.52520
1184.13857	0.52510
1182.21001	0.52534
1180.28145	0.52606
1178.35288	0.52717
1176.42432	0.52852
1174.49575	0.52991
1172.56719	0.53115
1170.63862	0.53200
1168.71006	0.53245
1166.78149	0.53272
1164.85293	0.53300
1162.92437	0.53336
1160.99580	0.53371
1159.06724	0.53383
1157.13867	0.53367
1155.21011	0.53321
1153.28154	0.53224
1151.35298	0.53049
1149.42441	0.52810
1147.49585	0.52537
1145.56729	0.52253
1143.63872	0.51983
1141.71016	0.51742
1139.78159	0.51551
1137.85303	0.51416
1135.92446	0.51328
1133.99590	0.51286
1132.06733	0.51293
1130.13877	0.51315
1128.21021	0.51308
1126.28164	0.51278
1124.35308	0.51249
1122.42451	0.51223
1120.49595	0.51211
1118.56738	0.51230
1116.63882	0.51280
1114.71025	0.51336
1112.78169	0.51391
1110.85312	0.51464
1108.92456	0.51568
1106.99600	0.51665
1105.06743	0.51740
1103.13887	0.51828
1101.21030	0.51930
1099.28174	0.52052
1097.35317	0.52229
1095.42461	0.52465
1093.49604	0.52786
1091.56748	0.53249
1089.63892	0.53883
1087.71035	0.54689
1085.78179	0.55595
1083.85322	0.56475
1081.92466	0.57232
1079.99609	0.57785
1078.06753	0.58053
1076.13896	0.57997
1074.21040	0.57646
1072.28184	0.57062
1070.35327	0.56332
1068.42471	0.55566
1066.49614	0.54856
1064.56758	0.54226
1062.63901	0.53676
1060.71045	0.53223
1058.78188	0.52844
1056.85332	0.52476
1054.92476	0.52121
1052.99619	0.51817
1051.06763	0.51583
1049.13906	0.51428
1047.21050	0.51351
1045.28193	0.51343
1043.35337	0.51377
1041.42480	0.51415
1039.49624	0.51442
1037.56768	0.51451
1035.63911	0.51429
1033.71055	0.51368
1031.78198	0.51264
1029.85342	0.51103
1027.92485	0.50880
1025.99629	0.50651
1024.06772	0.50487
1022.13916	0.50385
1020.21060	0.50314
1018.28203	0.50274
1016.35347	0.50248
1014.42490	0.50215
1012.49634	0.50174
1010.56777	0.50126
1008.63921	0.50103
1006.71064	0.50129
1004.78208	0.50197
1002.85352	0.50318
1000.92495	0.50534
998.99639	0.50866
997.06782	0.51277
995.13926	0.51722
993.21069	0.52153
991.28213	0.52503
989.35356	0.52725
987.42500	0.52801
985.49644	0.52766
983.56787	0.52706
981.63931	0.52687
979.71074	0.52740
977.78218	0.52852
975.85361	0.52995
973.92505	0.53186
971.99648	0.53444
970.06792	0.53768
968.13936	0.54150
966.21079	0.54558
964.28223	0.54973
962.35366	0.55413
960.42510	0.55888
958.49653	0.56402
956.56797	0.56946
954.63940	0.57508
952.71084	0.58113
950.78228	0.58761
948.85371	0.59386
946.92515	0.59977
944.99658	0.60602
943.06802	0.61252
941.13945	0.61873
939.21089	0.62460
937.28232	0.63025
935.35376	0.63590
933.42520	0.64174
931.49663	0.64765
929.56807	0.65340
927.63950	0.65892
925.71094	0.66447
923.78237	0.67059
921.85381	0.67725
919.92524	0.68356
917.99668	0.68931
916.06812	0.69526
914.13955	0.70191
912.21099	0.70953
910.28242	0.71780
908.35386	0.72598
906.42529	0.73433
904.49673	0.74289
902.56816	0.75054
900.63960	0.75779
898.71104	0.76652
896.78247	0.77708
894.85391	0.78869
892.92534	0.80019
890.99678	0.81081
889.06821	0.82176
887.13965	0.83381
885.21108	0.84510
883.28252	0.85467
881.35396	0.86395
879.42539	0.87430
877.49683	0.88585
875.56826	0.89764
873.63970	0.90805
871.71113	0.91763
869.78257	0.92856
867.85400	0.94035
865.92544	0.95169
863.99687	0.96307
862.06831	0.97478
860.13975	0.98598
858.21118	0.99677
856.28262	1.00919
854.35405	1.02329
852.42549	1.03602
850.49692	1.04612
848.56836	1.05554
846.63979	1.06587
844.71123	1.07734
842.78267	1.08979
840.85410	1.10151
838.92554	1.11041
836.99697	1.11901
835.06841	1.13084
833.13984	1.14463
831.21128	1.15741
829.28271	1.16817
827.35415	1.17606
825.42559	1.18272
823.49702	1.19537
821.56846	1.21219
819.63989	1.22235
817.71133	1.22840
815.78276	1.23687
813.85420	1.24217
811.92563	1.24747
809.99707	1.26286
808.06851	1.28116
806.13994	1.29494
804.21138	1.31163
802.28281	1.32850
800.35425	1.32482
798.42568	1.31283
796.49712	1.32274
794.56855	1.34674
792.63999	1.36441
790.71143	1.38027
788.78286	1.38401
786.85430	1.34720
784.92573	1.32027
782.99717	1.35407
781.06860	1.43406
779.14004	1.49657
777.21147	1.48385
775.28291	1.46802
773.35435	1.49955
771.42578	1.49273
769.49722	1.38648
767.56865	1.36781
765.64009	1.47935
763.71152	1.53542
761.78296	1.51277
759.85439	1.42810
757.92583	1.24767
755.99727	1.13918
754.06870	1.11290
752.14014	1.11834
750.21157	1.10337
748.28301	1.07130
746.35444	1.05035
744.42588	0.98703
742.49731	0.90362
740.56875	0.88290
738.64019	0.88112
736.71162	0.82661
734.78306	0.73547
732.85449	0.64362
730.92593	0.59896
728.99736	0.56029
727.06880	0.43992
725.14023	0.30702
723.21167	0.24440
721.28311	0.20082
719.35454	0.08567
717.42598	-0.03792
715.49741	-0.11875
713.56885	-0.20702
711.64028	-0.32343
709.71172	-0.50692
707.78315	-0.55004
705.85459	-0.35242
703.92603	-0.14708
701.99746	-0.03663
700.06890	0.03189
698.14033	0.09345
696.21177	0.17038
694.28320	0.27932
692.35464	0.30701
690.42607	0.21767
688.49751	0.17352
686.56895	0.18829
684.64038	0.22995
682.71182	0.32343
680.78325	0.32267
678.85469	0.16686
676.92612	0.08730
674.99756	0.09236
673.06899	0.14732
671.14043	0.17891
669.21187	0.15957
667.28330	0.11977
665.35474	0.05351
663.42617	0.02022
661.49761	0.08993
659.56904	0.22001
657.64048	0.28739
655.71191	0.30442
653.78335	0.28636
651.85479	0.18208
649.92622	0.10095
647.99766	0.08485
646.06909	0.14563
644.14053	0.27936
642.21196	0.34523
640.28340	0.29367
638.35483	0.23208
636.42627	0.15972
634.49771	0.09462
632.56914	0.06579
630.64058	0.09130
628.71201	0.19141
626.78345	0.28936
624.85488	0.26020
622.92632	0.18828
620.99775	0.11301
619.06919	0.05639
617.14062	0.11378
615.21206	0.18839
613.28350	0.16228
611.35493	0.15726
609.42637	0.20941
607.49780	0.21009
605.56924	0.15422
603.64067	0.13985
601.71211	0.16926
599.78354	0.17000
597.85498	0.10817
595.92642	0.02741
593.99785	0.02038
592.06929	0.08636
590.14072	0.13505
588.21216	0.13654
586.28359	0.10387
584.35503	0.07361
582.42646	0.07999
580.49790	0.12903
578.56934	0.18186
576.64077	0.19939
574.71221	0.22353
572.78364	0.28176
570.85508	0.30625
568.92651	0.21576
566.99795	0.11657
565.06938	0.08641
563.14082	0.10341
561.21226	0.17438
559.28369	0.32651
557.35513	0.30946
555.42656	0.12618
553.49800	0.06354
551.56943	0.09444
549.64087	0.11935
547.71230	0.09388
545.78374	0.03490
543.85518	0.01828
541.92661	0.07073
539.99805	0.14181
538.06948	0.22230
536.14092	0.31453
534.21235	0.27470
532.28379	0.18167
530.35522	0.18116
528.42666	0.21279
526.49810	0.14040
524.56953	0.01274
522.64097	-0.04785
520.71240	-0.01027
518.78384	0.01989
516.85527	0.01860
514.92671	0.06076
512.99814	0.11851
511.06958	0.11450
509.14102	0.08114
507.21245	0.09368
505.28389	0.13625
503.35532	0.13201
501.42676	0.10369
499.49819	0.11390
