3997.91411	0.06361
3995.98555	0.06412
3994.05698	0.06476
3992.12842	0.06533
3990.19985	0.06561
3988.27129	0.06570
3986.34272	0.06589
3984.41416	0.06618
3982.48560	0.06633
3980.55703	0.06647
3978.62847	0.06680
3976.69990	0.06727
3974.77134	0.06758
3972.84277	0.06753
3970.91421	0.06730
3968.98564	0.06722
3967.05708	0.06757
3965.12852	0.06839
3963.19995	0.06899
3961.27139	0.06890
3959.34282	0.06879
3957.41426	0.06924
3955.48569	0.06964
3953.55713	0.06957
3951.62856	0.06956
3949.70000	0.07022
3947.77144	0.07114
3945.84287	0.07139
3943.91431	0.07128
3941.98574	0.07124
3940.05718	0.07039
3938.12861	0.06931
3936.20005	0.06935
3934.27148	0.07039
3932.34292	0.07172
3930.41436	0.07222
3928.48579	0.07143
3926.55723	0.07097
3924.62866	0.07177
3922.70010	0.07220
3920.77153	0.07128
3918.84297	0.07061
3916.91440	0.07095
3914.98584	0.07078
3913.05728	0.06931
3911.12871	0.06786
3909.20015	0.06747
3907.27158	0.06856
3905.34302	0.07151
3903.41445	0.07523
3901.48589	0.07685
3899.55732	0.07579
3897.62876	0.07361
3895.70020	0.07168
3893.77163	0.07150
3891.84307	0.07322
3889.91450	0.07414
3887.98594	0.07301
3886.05737	0.07294
3884.12881	0.07434
3882.20024	0.07503
3880.27168	0.07527
3878.34312	0.07426
3876.41455	0.07204
3874.48599	0.07199
3872.55742	0.07476
3870.62886	0.07770
3868.70029	0.07853
3866.77173	0.07758
3864.84316	0.07798
3862.91460	0.07919
3860.98604	0.07788
3859.05747	0.07585
3857.12891	0.07618
3855.20034	0.07936
3853.27178	0.08504
3851.34321	0.08746
3849.41465	0.08337
3847.48608	0.07954
3845.55752	0.07812
3843.62896	0.07906
3841.70039	0.08203
3839.77183	0.08613
3837.84326	0.08963
3835.91470	0.08984
3833.98613	0.08768
3832.05757	0.08613
3830.12900	0.08540
3828.20044	0.08503
3826.27187	0.08550
3824.34331	0.08681
3822.41475	0.08953
3820.48618	0.09422
3818.55762	0.09651
3816.62905	0.09569
3814.70049	0.09443
3812.77192	0.09205
3810.84336	0.09002
3808.91479	0.09054
3806.98623	0.09399
3805.05767	0.09750
3803.12910	0.09959
3801.20054	0.10277
3799.27197	0.10462
3797.34341	0.10337
3795.41484	0.10246
3793.48628	0.10181
3791.55771	0.10097
3789.62915	0.10102
3787.70059	0.10243
3785.77202	0.10482
3783.84346	0.10715
3781.91489	0.10887
3779.98633	0.11102
3778.05776	0.11326
3776.12920	0.11370
3774.20063	0.11388
3772.27207	0.11594
3770.34351	0.11997
3768.41494	0.12416
3766.48638	0.12646
3764.55781	0.12765
3762.62925	0.12856
3760.70068	0.13042
3758.77212	0.13406
3756.84355	0.13737
3754.91499	0.13952
3752.98643	0.14328
3751.05786	0.15047
3749.12930	0.15724
3747.20073	0.15886
3745.27217	0.15990
3743.34360	0.16309
3741.41504	0.16583
3739.48647	0.16813
3737.55791	0.17260
3735.62935	0.18051
3733.70078	0.18859
3731.77222	0.19169
3729.84365	0.19274
3727.91509	0.19547
3725.98652	0.20100
3724.05796	0.20813
3722.12939	0.21475
3720.20083	0.22063
3718.27227	0.22629
3716.34370	0.23259
3714.41514	0.24018
3712.48657	0.25126
3710.55801	0.26760
3708.62944	0.28251
3706.70088	0.29210
3704.77231	0.30165
3702.84375	0.31462
3700.91519	0.33198
3698.98662	0.35020
3697.05806	0.36734
3695.12949	0.38635
3693.20093	0.40694
3691.27236	0.42968
3689.34380	0.45964
3687.41523	0.49501
3685.48667	0.52390
3683.55811	0.54844
3681.62954	0.57608
3679.70098	0.60885
3677.77241	0.64459
3675.84385	0.68718
3673.91528	0.74203
3671.98672	0.78486
3670.05815	0.82356
3668.12959	0.87692
3666.20103	0.92374
3664.27246	0.96265
3662.34390	1.00620
3660.41533	1.05461
3658.48677	1.10249
3656.55820	1.15299
3654.62964	1.20917
3652.70107	1.25674
3650.77251	1.29986
3648.84395	1.36112
3646.91538	1.43257
3644.98682	1.48045
3643.05825	1.51675
3641.12969	1.55540
3639.20112	1.59892
3637.27256	1.64335
3635.34399	1.68744
3633.41543	1.73224
3631.48687	1.77484
3629.55830	1.81874
3627.62974	1.87532
3625.70117	1.92572
3623.77261	1.95853
3621.84404	1.99086
3619.91548	2.02939
3617.98691	2.07633
3616.05835	2.12059
3614.12979	2.15737
3612.20122	2.19592
3610.27266	2.23379
3608.34409	2.27275
3606.41553	2.31480
3604.48696	2.35310
3602.55840	2.38862
3600.62983	2.42860
3598.70127	2.47144
3596.77271	2.51283
3594.84414	2.55474
3592.91558	2.59643
3590.98701	2.63345
3589.05845	2.66695
3587.12988	2.70956
3585.20132	2.75971
3583.27275	2.80189
3581.34419	2.83956
3579.41562	2.87914
3577.48706	2.92110
3575.55850	2.96452
3573.62993	3.00854
3571.70137	3.04900
3569.77280	3.08743
3567.84424	3.13235
3565.91567	3.18914
3563.98711	3.23997
3562.05854	3.27835
3560.12998	3.31792
3558.20142	3.36181
3556.27285	3.40637
3554.34429	3.44908
3552.41572	3.49383
3550.48716	3.54074
3548.55859	3.58692
3546.63003	3.63479
3544.70146	3.68562
3542.77290	3.73290
3540.84434	3.77384
3538.91577	3.81532
3536.98721	3.86160
3535.05864	3.91134
3533.13008	3.96024
3531.20151	4.00925
3529.27295	4.06079
3527.34438	4.11185
3525.41582	4.15604
3523.48726	4.19882
3521.55869	4.24846
3519.63013	4.29830
3517.70156	4.34675
3515.77300	4.39510
3513.84443	4.43952
3511.91587	4.48233
3509.98730	4.52987
3508.05874	4.58011
3506.13018	4.62683
3504.20161	4.67063
3502.27305	4.71554
3500.34448	4.76499
3498.41592	4.81719
3496.48735	4.86782
3494.55879	4.91810
3492.63022	4.96952
3490.70166	5.01649
3488.77310	5.06000
3486.84453	5.10814
3484.91597	5.15861
3482.98740	5.20333
3481.05884	5.24660
3479.13027	5.29617
3477.20171	5.34811
3475.27314	5.39898
3473.34458	5.44706
3471.41602	5.48610
3469.48745	5.52067
3467.55889	5.56499
3465.63032	5.62369
3463.70176	5.68793
3461.77319	5.74257
3459.84463	5.78610
3457.91606	5.83107
3455.98750	5.87842
3454.05894	5.91931
3452.13037	5.96356
3450.20181	6.02086
3448.27324	6.07670
3446.34468	6.12280
3444.41611	6.17227
3442.48755	6.23221
3440.55898	6.27995
3438.63042	6.31145
3436.70186	6.33772
3434.77329	6.36222
3432.84473	6.39964
3430.91616	6.45690
3428.98760	6.52993
3427.05903	6.60370
3425.13047	6.66957
3423.20190	6.72852
3421.27334	6.79038
3419.34478	6.84654
3417.41621	6.88183
3415.48765	6.90341
3413.55908	6.92246
3411.63052	6.96154
3409.70195	7.01058
3407.77339	7.04195
3405.84482	7.07649
3403.91626	7.15635
3401.98770	7.22859
3400.05913	7.25426
3398.13057	7.29278
3396.20200	7.34699
3394.27344	7.38917
3392.34487	7.40110
3390.41631	7.38960
3388.48774	7.38983
3386.55918	7.42134
3384.63062	7.45944
3382.70205	7.50491
3380.77349	7.56625
3378.84492	7.62964
3376.91636	7.68545
3374.98779	7.67520
3373.05923	7.63114
3371.13066	7.65187
3369.20210	7.72667
3367.27354	7.75176
3365.34497	7.73516
3363.41641	7.76507
3361.48784	7.85203
3359.55928	7.91870
3357.63071	7.89579
3355.70215	7.87454
3353.77358	7.91632
3351.84502	8.00090
3349.91646	8.07386
3347.98789	8.07896
3346.05933	8.00611
3344.13076	7.91521
3342.20220	7.90442
3340.27363	7.99310
3338.34507	8.07099
3336.41650	8.00884
3334.48794	7.92058
3332.55937	7.90072
3330.63081	7.93195
3328.70225	8.00674
3326.77368	8.08430
3324.84512	8.09670
3322.91655	8.03340
3320.98799	7.99312
3319.05942	8.00825
3317.13086	8.05734
3315.20229	8.13999
3313.27373	8.23448
3311.34517	8.24675
3309.41660	8.19279
3307.48804	8.14931
3305.55947	8.10519
3303.63091	8.10542
3301.70234	8.13836
3299.77378	8.13624
3297.84521	8.07056
3295.91665	8.03460
3293.98809	8.08300
3292.05952	8.13345
3290.13096	8.18928
3288.20239	8.28251
3286.27383	8.32657
3284.34526	8.22093
3282.41670	8.06723
3280.48813	8.01427
3278.55957	8.04970
3276.63101	8.06317
3274.70244	8.08173
3272.77388	8.15627
3270.84531	8.19434
3268.91675	8.18750
3266.98818	8.14762
3265.05962	8.06064
3263.13105	8.00335
3261.20249	8.01516
3259.27393	7.99777
3257.34536	7.93430
3255.41680	7.96792
3253.48823	8.13300
3251.55967	8.27997
3249.63110	8.26756
3247.70254	8.20331
3245.77397	8.20890
3243.84541	8.16889
3241.91685	8.02001
3239.98828	7.92153
3238.05972	7.88684
3236.13115	7.88159
3234.20259	7.94843
3232.27402	7.99086
3230.34546	7.94879
3228.41689	7.89232
3226.48833	7.87046
3224.55977	7.96003
3222.63120	8.13960
3220.70264	8.20010
3218.77407	8.07485
3216.84551	7.93252
3214.91694	7.86365
3212.98838	7.86535
3211.05981	7.88660
3209.13125	7.83993
3207.20269	7.73140
3205.27412	7.65500
3203.34556	7.65061
3201.41699	7.69816
3199.48843	7.73666
3197.55986	7.71285
3195.63130	7.64985
3193.70273	7.58265
3191.77417	7.51340
3189.84561	7.45202
3187.91704	7.40488
3185.98848	7.36233
3184.05991	7.30772
3182.13135	7.24369
3180.20278	7.20737
3178.27422	7.18617
3176.34565	7.13817
3174.41709	7.07541
3172.48853	7.00487
3170.55996	6.93354
3168.63140	6.89262
3166.70283	6.85255
3164.77427	6.77074
3162.84570	6.67726
3160.91714	6.59507
3158.98857	6.52082
3157.06001	6.45732
3155.13145	6.39809
3153.20288	6.33050
3151.27432	6.26521
3149.34575	6.21385
3147.41719	6.15609
3145.48862	6.08398
3143.56006	6.01619
3141.63149	5.95945
3139.70293	5.90674
3137.77437	5.84106
3135.84580	5.75550
3133.91724	5.67700
3131.98867	5.61413
3130.06011	5.54461
3128.13154	5.46325
3126.20298	5.38288
3124.27441	5.31656
3122.34585	5.25672
3120.41729	5.18582
3118.48872	5.10811
3116.56016	5.03543
3114.63159	4.96972
3112.70303	4.91043
3110.77446	4.85104
3108.84590	4.78071
3106.91733	4.70205
3104.98877	4.62881
3103.06021	4.56661
3101.13164	4.50439
3099.20308	4.43464
3097.27451	4.36650
3095.34595	4.30274
3093.41738	4.23745
3091.48882	4.17329
3089.56025	4.11241
3087.63169	4.05034
3085.70312	3.98814
3083.77456	3.92866
3081.84600	3.86867
3079.91743	3.80705
3077.98887	3.74790
3076.06030	3.69125
3074.13174	3.63349
3072.20317	3.57523
3070.27461	3.51794
3068.34604	3.46122
3066.41748	3.40551
3064.48892	3.34952
3062.56035	3.29231
3060.63179	3.23759
3058.70322	3.18579
3056.77466	3.13356
3054.84609	3.08100
3052.91753	3.02960
3050.98896	2.97946
3049.06040	2.93011
3047.13184	2.88095
3045.20327	2.83169
3043.27471	2.78334
3041.34614	2.73640
3039.41758	2.69015
3037.48901	2.64499
3035.56045	2.60042
3033.63188	2.55513
3031.70332	2.51036
3029.77476	2.46749
3027.84619	2.42564
3025.91763	2.38376
3023.98906	2.34175
3022.06050	2.30037
3020.13193	2.26056
3018.20337	2.22174
3016.27480	2.18270
3014.34624	2.14364
3012.41768	2.10554
3010.48911	2.06828
3008.56055	2.03170
3006.63198	1.99625
3004.70342	1.96131
3002.77485	1.92644
3000.84629	1.89236
2998.91772	1.85926
2996.98916	1.82678
2995.06060	1.79468
2993.13203	1.76305
2991.20347	1.73232
2989.27490	1.70238
2987.34634	1.67289
2985.41777	1.64379
2983.48921	1.61527
2981.56064	1.58747
2979.63208	1.55994
2977.70352	1.53246
2975.77495	1.50564
2973.84639	1.47963
2971.91782	1.45409
2969.98926	1.42878
2968.06069	1.40361
2966.13213	1.37886
2964.20356	1.35451
2962.27500	1.32998
2960.34644	1.30517
2958.41787	1.28124
2956.48931	1.25899
2954.56074	1.23730
2952.63218	1.21505
2950.70361	1.19290
2948.77505	1.17142
2946.84648	1.15005
2944.91792	1.12889
2942.98936	1.10844
2941.06079	1.08827
2939.13223	1.06812
2937.20366	1.04846
2935.27510	1.02949
2933.34653	1.01069
2931.41797	0.99179
2929.48940	0.97328
2927.56084	0.95535
2925.63228	0.93803
2923.70371	0.92109
2921.77515	0.90401
2919.84658	0.88758
2917.91802	0.87222
2915.98945	0.85683
2914.06089	0.84105
2912.13232	0.82571
2910.20376	0.81101
2908.27520	0.79675
2906.34663	0.78310
2904.41807	0.76979
2902.48950	0.75653
2900.56094	0.74359
2898.63237	0.73118
2896.70381	0.71923
2894.77524	0.70737
2892.84668	0.69543
2890.91812	0.68372
2888.98955	0.67246
2887.06099	0.66143
2885.13242	0.65057
2883.20386	0.64019
2881.27529	0.63017
2879.34673	0.62027
2877.41816	0.61045
2875.48960	0.60060
2873.56104	0.59080
2871.63247	0.58114
2869.70391	0.57126
2867.77534	0.56098
2865.84678	0.55052
2863.91821	0.54008
2861.98965	0.52967
2860.06108	0.51958
2858.13252	0.51003
2856.20396	0.50096
2854.27539	0.49239
2852.34683	0.48403
2850.41826	0.47577
2848.48970	0.46795
2846.56113	0.46076
2844.63257	0.45406
2842.70400	0.44765
2840.77544	0.44144
2838.84687	0.43543
2836.91831	0.42965
2834.98975	0.42401
2833.06118	0.41826
2831.13262	0.41252
2829.20405	0.40688
2827.27549	0.40116
2825.34692	0.39531
2823.41836	0.38950
2821.48979	0.38387
2819.56123	0.37834
2817.63267	0.37272
2815.70410	0.36710
2813.77554	0.36175
2811.84697	0.35662
2809.91841	0.35150
2807.98984	0.34632
2806.06128	0.34120
2804.13271	0.33618
2802.20415	0.33138
2800.27559	0.32675
2798.34702	0.32215
2796.41846	0.31759
2794.48989	0.31310
2792.56133	0.30868
2790.63276	0.30446
2788.70420	0.30036
2786.77563	0.29623
2784.84707	0.29204
2782.91851	0.28791
2780.98994	0.28393
2779.06138	0.28009
2777.13281	0.27639
2775.20425	0.27290
2773.27568	0.26951
2771.34712	0.26601
2769.41855	0.26247
2767.48999	0.25898
2765.56143	0.25562
2763.63286	0.25241
2761.70430	0.24934
2759.77573	0.24639
2757.84717	0.24349
2755.91860	0.24036
2753.99004	0.23709
2752.06147	0.23410
2750.13291	0.23140
2748.20435	0.22873
2746.27578	0.22598
2744.34722	0.22325
2742.41865	0.22074
2740.49009	0.21842
2738.56152	0.21610
2736.63296	0.21366
2734.70439	0.21129
2732.77583	0.20911
2730.84727	0.20690
2728.91870	0.20454
2726.99014	0.20226
2725.06157	0.20017
2723.13301	0.19816
2721.20444	0.19616
2719.27588	0.19422
2717.34731	0.19240
2715.41875	0.19061
2713.49019	0.18879
2711.56162	0.18696
2709.63306	0.18531
2707.70449	0.18393
2705.77593	0.18250
2703.84736	0.18077
2701.91880	0.17900
2699.99023	0.17754
2698.06167	0.17630
2696.13311	0.17499
2694.20454	0.17350
2692.27598	0.17204
2690.34741	0.17079
2688.41885	0.16962
2686.49028	0.16841
2684.56172	0.16716
2682.63315	0.16587
2680.70459	0.16462
2678.77603	0.16359
2676.84746	0.16277
2674.91890	0.16193
2672.99033	0.16093
2671.06177	0.15988
2669.13320	0.15885
2667.20464	0.15780
2665.27607	0.15677
2663.34751	0.15577
2661.41895	0.15491
2659.49038	0.15424
2657.56182	0.15356
2655.63325	0.15282
2653.70469	0.15219
2651.77612	0.15156
2649.84756	0.15079
2647.91899	0.15010
2645.99043	0.14959
2644.06187	0.14909
2642.13330	0.14847
2640.20474	0.14781
2638.27617	0.14730
2636.34761	0.14693
2634.41904	0.14658
2632.49048	0.14628
2630.56191	0.14591
2628.63335	0.14542
2626.70479	0.14502
2624.77622	0.14473
2622.84766	0.14443
2620.91909	0.14412
2618.99053	0.14391
2617.06196	0.14388
2615.13340	0.14391
2613.20483	0.14376
2611.27627	0.14350
2609.34771	0.14331
2607.41914	0.14321
2605.49058	0.14318
2603.56201	0.14318
2601.63345	0.14313
2599.70488	0.14311
2597.77632	0.14316
2595.84775	0.14326
2593.91919	0.14342
2591.99062	0.14359
2590.06206	0.14363
2588.13350	0.14359
2586.20493	0.14372
2584.27637	0.14396
2582.34780	0.14412
2580.41924	0.14429
2578.49067	0.14461
2576.56211	0.14506
2574.63354	0.14551
2572.70498	0.14584
2570.77642	0.14613
2568.84785	0.14645
2566.91929	0.14680
2564.99072	0.14721
2563.06216	0.14767
2561.13359	0.14806
2559.20503	0.14839
2557.27646	0.14880
2555.34790	0.14934
2553.41934	0.14985
2551.49077	0.15036
2549.56221	0.15097
2547.63364	0.15158
2545.70508	0.15207
2543.77651	0.15261
2541.84795	0.15331
2539.91938	0.15406
2537.99082	0.15476
2536.06226	0.15535
2534.13369	0.15591
2532.20513	0.15650
2530.27656	0.15716
2528.34800	0.15787
2526.41943	0.15857
2524.49087	0.15930
2522.56230	0.16013
2520.63374	0.16094
2518.70518	0.16166
2516.77661	0.16238
2514.84805	0.16311
2512.91948	0.16394
2510.99092	0.16486
2509.06235	0.16573
2507.13379	0.16653
2505.20522	0.16726
2503.27666	0.16791
2501.34810	0.16863
2499.41953	0.16943
2497.49097	0.17020
2495.56240	0.17107
2493.63384	0.17208
2491.70527	0.17298
2489.77671	0.17379
2487.84814	0.17465
2485.91958	0.17554
2483.99102	0.17646
2482.06245	0.17736
2480.13389	0.17819
2478.20532	0.17895
2476.27676	0.17972
2474.34819	0.18062
2472.41963	0.18158
2470.49106	0.18255
2468.56250	0.18358
2466.63394	0.18459
2464.70537	0.18553
2462.77681	0.18640
2460.84824	0.18723
2458.91968	0.18813
2456.99111	0.18909
2455.06255	0.19000
2453.13398	0.19090
2451.20542	0.19188
2449.27686	0.19281
2447.34829	0.19371
2445.41973	0.19478
2443.49116	0.19594
2441.56260	0.19697
2439.63403	0.19776
2437.70547	0.19857
2435.77690	0.19965
2433.84834	0.20083
2431.91978	0.20183
2429.99121	0.20281
2428.06265	0.20393
2426.13408	0.20509
2424.20552	0.20618
2422.27695	0.20724
2420.34839	0.20829
2418.41982	0.20936
2416.49126	0.21050
2414.56270	0.21173
2412.63413	0.21287
2410.70557	0.21393
2408.77700	0.21500
2406.84844	0.21609
2404.91987	0.21726
2402.99131	0.21844
2401.06274	0.21958
2399.13418	0.22083
2397.20562	0.22221
2395.27705	0.22353
2393.34849	0.22470
2391.41992	0.22587
2389.49136	0.22722
2387.56279	0.22882
2385.63423	0.23081
2383.70566	0.23354
2381.77710	0.23717
2379.84854	0.24141
2377.91997	0.24597
2375.99141	0.25093
2374.06284	0.25657
2372.13428	0.26296
2370.20571	0.27003
2368.27715	0.27734
2366.34858	0.28379
2364.42002	0.28901
2362.49146	0.29366
2360.56289	0.29703
2358.63433	0.29852
2356.70576	0.29822
2354.77720	0.29536
2352.84863	0.29058
2350.92007	0.28546
2348.99150	0.28230
2347.06294	0.28306
2345.13437	0.28832
2343.20581	0.29512
2341.27725	0.29895
2339.34868	0.30029
2337.42012	0.30098
2335.49155	0.30148
2333.56299	0.30185
2331.63442	0.30261
2329.70586	0.30354
2327.77729	0.30408
2325.84873	0.30419
2323.92017	0.30401
2321.99160	0.30364
2320.06304	0.30292
2318.13447	0.30186
2316.20591	0.30104
2314.27734	0.30101
2312.34878	0.30158
2310.42021	0.30220
2308.49165	0.30246
2306.56309	0.30249
2304.63452	0.30279
2302.70596	0.30364
2300.77739	0.30476
2298.84883	0.30578
2296.92026	0.30687
2294.99170	0.30817
2293.06313	0.30943
2291.13457	0.31052
2289.20601	0.31164
2287.27744	0.31300
2285.34888	0.31446
2283.42031	0.31594
2281.49175	0.31765
2279.56318	0.31966
2277.63462	0.32181
2275.70605	0.32403
2273.77749	0.32618
2271.84893	0.32832
2269.92036	0.33046
2267.99180	0.33244
2266.06323	0.33431
2264.13467	0.33630
2262.20610	0.33833
2260.27754	0.34027
2258.34897	0.34226
2256.42041	0.34426
2254.49185	0.34622
2252.56328	0.34820
2250.63472	0.35024
2248.70615	0.35235
2246.77759	0.35458
2244.84902	0.35675
2242.92046	0.35882
2240.99189	0.36097
2239.06333	0.36320
2237.13477	0.36536
2235.20620	0.36742
2233.27764	0.36948
2231.34907	0.37164
2229.42051	0.37387
2227.49194	0.37613
2225.56338	0.37826
2223.63481	0.38029
2221.70625	0.38241
2219.77769	0.38467
2217.84912	0.38697
2215.92056	0.38920
2213.99199	0.39127
2212.06343	0.39330
2210.13486	0.39540
2208.20630	0.39754
2206.27773	0.39969
2204.34917	0.40184
2202.42061	0.40393
2200.49204	0.40596
2198.56348	0.40797
2196.63491	0.40999
2194.70635	0.41192
2192.77778	0.41379
2190.84922	0.41570
2188.92065	0.41754
2186.99209	0.41931
2185.06353	0.42109
2183.13496	0.42280
2181.20640	0.42439
2179.27783	0.42600
2177.34927	0.42770
2175.42070	0.42932
2173.49214	0.43080
2171.56357	0.43222
2169.63501	0.43367
2167.70645	0.43510
2165.77788	0.43641
2163.84932	0.43757
2161.92075	0.43862
2159.99219	0.43971
2158.06362	0.44084
2156.13506	0.44190
2154.20649	0.44286
2152.27793	0.44370
2150.34937	0.44441
2148.42080	0.44507
2146.49224	0.44575
2144.56367	0.44647
2142.63511	0.44711
2140.70654	0.44748
2138.77798	0.44771
2136.84941	0.44797
2134.92085	0.44818
2132.99229	0.44819
2131.06372	0.44800
2129.13516	0.44784
2127.20659	0.44782
2125.27803	0.44777
2123.34946	0.44753
2121.42090	0.44715
2119.49233	0.44665
2117.56377	0.44607
2115.63521	0.44549
2113.70664	0.44488
2111.77808	0.44421
2109.84951	0.44350
2107.92095	0.44263
2105.99238	0.44156
2104.06382	0.44040
2102.13525	0.43913
2100.20669	0.43785
2098.27812	0.43667
2096.34956	0.43539
2094.42100	0.43392
2092.49243	0.43244
2090.56387	0.43100
2088.63530	0.42942
2086.70674	0.42771
2084.77817	0.42594
2082.84961	0.42409
2080.92104	0.42220
2078.99248	0.42034
2077.06392	0.41845
2075.13535	0.41648
2073.20679	0.41445
2071.27822	0.41236
2069.34966	0.41027
2067.42109	0.40824
2065.49253	0.40617
2063.56396	0.40388
2061.63540	0.40139
2059.70684	0.39883
2057.77827	0.39630
2055.84971	0.39387
2053.92114	0.39142
2051.99258	0.38894
2050.06401	0.38644
2048.13545	0.38394
2046.20688	0.38140
2044.27832	0.37889
2042.34976	0.37640
2040.42119	0.37387
2038.49263	0.37127
2036.56406	0.36867
2034.63550	0.36606
2032.70693	0.36333
2030.77837	0.36048
2028.84980	0.35764
2026.92124	0.35489
2024.99268	0.35221
2023.06411	0.34951
2021.13555	0.34683
2019.20698	0.34433
2017.27842	0.34178
2015.34985	0.33881
2013.42129	0.33573
2011.49272	0.33299
2009.56416	0.33057
2007.63560	0.32816
2005.70703	0.32558
2003.77847	0.32291
2001.84990	0.32026
1999.92134	0.31763
1997.99277	0.31500
1996.06421	0.31248
1994.13564	0.31024
1992.20708	0.30812
1990.27852	0.30562
1988.34995	0.30279
1986.42139	0.30004
1984.49282	0.29751
1982.56426	0.29522
1980.63569	0.29302
1978.70713	0.29082
1976.77856	0.28861
1974.85000	0.28639
1972.92144	0.28412
1970.99287	0.28192
1969.06431	0.28000
1967.13574	0.27823
1965.20718	0.27620
1963.27861	0.27402
1961.35005	0.27203
1959.42148	0.27013
1957.49292	0.26826
1955.56436	0.26655
1953.63579	0.26492
1951.70723	0.26320
1949.77866	0.26146
1947.85010	0.25986
1945.92153	0.25851
1943.99297	0.25737
1942.06440	0.25603
1940.13584	0.25418
1938.20728	0.25228
1936.27871	0.25070
1934.35015	0.24937
1932.42158	0.24817
1930.49302	0.24703
1928.56445	0.24595
1926.63589	0.24490
1924.70732	0.24413
1922.77876	0.24357
1920.85020	0.24268
1918.92163	0.24164
1916.99307	0.24062
1915.06450	0.23939
1913.13594	0.23828
1911.20737	0.23764
1909.27881	0.23711
1907.35024	0.23630
1905.42168	0.23535
1903.49312	0.23464
1901.56455	0.23409
1899.63599	0.23358
1897.70742	0.23323
1895.77886	0.23301
1893.85029	0.23266
1891.92173	0.23229
1889.99316	0.23224
1888.06460	0.23201
1886.13604	0.23142
1884.20747	0.23099
1882.27891	0.23069
1880.35034	0.23039
1878.42178	0.23020
1876.49321	0.23020
1874.56465	0.23032
1872.63608	0.23065
1870.70752	0.23151
1868.77896	0.23285
1866.85039	0.23312
1864.92183	0.23218
1862.99326	0.23158
1861.06470	0.23169
1859.13613	0.23208
1857.20757	0.23238
1855.27900	0.23274
1853.35044	0.23313
1851.42187	0.23364
1849.49331	0.23444
1847.56475	0.23566
1845.63618	0.23721
1843.70762	0.23852
1841.77905	0.23872
1839.85049	0.23852
1837.92192	0.23907
1835.99336	0.23994
1834.06479	0.24079
1832.13623	0.24206
1830.20767	0.24422
1828.27910	0.24601
1826.35054	0.24679
1824.42197	0.24780
1822.49341	0.24870
1820.56484	0.24944
1818.63628	0.25054
1816.70771	0.25205
1814.77915	0.25370
1812.85059	0.25576
1810.92202	0.25823
1808.99346	0.26037
1807.06489	0.26206
1805.13633	0.26380
1803.20776	0.26619
1801.27920	0.26919
1799.35063	0.27217
1797.42207	0.27445
1795.49351	0.27677
1793.56494	0.27996
1791.63638	0.28390
1789.70781	0.28680
1787.77925	0.28867
1785.85068	0.29150
1783.92212	0.29526
1781.99355	0.29933
1780.06499	0.30348
1778.13643	0.30758
1776.20786	0.31173
1774.27930	0.31682
1772.35073	0.32366
1770.42217	0.32994
1768.49360	0.33427
1766.56504	0.33848
1764.63647	0.34330
1762.70791	0.34923
1760.77935	0.35680
1758.85078	0.36363
1756.92222	0.37051
1754.99365	0.37804
1753.06509	0.38508
1751.13652	0.39408
1749.20796	0.40539
1747.27939	0.41568
1745.35083	0.42419
1743.42227	0.43339
1741.49370	0.44381
1739.56514	0.45613
1737.63657	0.46843
1735.70801	0.47975
1733.77944	0.49707
1731.85088	0.51641
1729.92231	0.53078
1727.99375	0.54553
1726.06519	0.56174
1724.13662	0.57991
1722.20806	0.59989
1720.27949	0.61880
1718.35093	0.64162
1716.42236	0.67450
1714.49380	0.70396
1712.56523	0.72725
1710.63667	0.75036
1708.70811	0.77583
1706.77954	0.80537
1704.85098	0.84082
1702.92241	0.87222
1700.99385	0.90326
1699.06528	0.94969
1697.13672	0.99207
1695.20815	1.03441
1693.27959	1.07483
1691.35103	1.10770
1689.42246	1.14681
1687.49390	1.18881
1685.56533	1.22964
1683.63677	1.29203
1681.70820	1.35548
1679.77964	1.39554
1677.85107	1.43428
1675.92251	1.47919
1673.99395	1.53482
1672.06538	1.58460
1670.13682	1.63330
1668.20825	1.69540
1666.27969	1.74508
1664.35112	1.78754
1662.42256	1.84114
1660.49399	1.90135
1658.56543	1.94851
1656.63687	1.98711
1654.70830	2.02274
1652.77974	2.07967
1650.85117	2.13626
1648.92261	2.15919
1646.99404	2.18859
1645.06548	2.22029
1643.13691	2.23937
1641.20835	2.25009
1639.27979	2.26000
1637.35122	2.26602
1635.42266	2.26716
1633.49409	2.26306
1631.56553	2.25147
1629.63696	2.23666
1627.70840	2.21266
1625.77983	2.18313
1623.85127	2.14280
1621.92271	2.09284
1619.99414	2.04892
1618.06558	2.00581
1616.13701	1.94337
1614.20845	1.87868
1612.27988	1.82944
1610.35132	1.77900
1608.42275	1.72410
1606.49419	1.66925
1604.56562	1.61914
1602.63706	1.57108
1600.70850	1.52350
1598.77993	1.47915
1596.85137	1.43731
1594.92280	1.39693
1592.99424	1.35826
1591.06567	1.32277
1589.13711	1.28902
1587.20854	1.25712
1585.27998	1.22757
1583.35142	1.20002
1581.42285	1.17471
1579.49429	1.15307
1577.56572	1.13396
1575.63716	1.11047
1573.70859	1.08884
1571.78003	1.07454
1569.85146	1.05998
1567.92290	1.04329
1565.99434	1.02989
1564.06577	1.01901
1562.13721	1.01055
1560.20864	1.00529
1558.28008	0.99848
1556.35151	0.99039
1554.42295	0.98426
1552.49438	0.97844
1550.56582	0.97247
1548.63726	0.96551
1546.70869	0.95830
1544.78013	0.95074
1542.85156	0.94197
1540.92300	0.92940
1538.99443	0.90777
1537.06587	0.89052
1535.13730	0.87949
1533.20874	0.86601
1531.28018	0.85103
1529.35161	0.84005
1527.42305	0.83055
1525.49448	0.82097
1523.56592	0.81262
1521.63735	0.80428
1519.70879	0.79460
1517.78022	0.78601
1515.85166	0.77665
1513.92310	0.76708
1511.99453	0.75952
1510.06597	0.75373
1508.13740	0.74898
1506.20884	0.73932
1504.28027	0.72805
1502.35171	0.72159
1500.42314	0.71709
1498.49458	0.71312
1496.56602	0.70808
1494.63745	0.70200
1492.70889	0.69750
1490.78032	0.69486
1488.85176	0.69179
1486.92319	0.68695
1484.99463	0.68228
1483.06606	0.67902
1481.13750	0.67687
1479.20894	0.67532
1477.28037	0.67457
1475.35181	0.67468
1473.42324	0.67492
1471.49468	0.67299
1469.56611	0.66927
1467.63755	0.66631
1465.70898	0.66448
1463.78042	0.66290
1461.85186	0.66149
1459.92329	0.66129
1457.99473	0.66222
1456.06616	0.66094
1454.13760	0.65665
1452.20903	0.65301
1450.28047	0.65021
1448.35190	0.64786
1446.42334	0.64537
1444.49478	0.64269
1442.56621	0.64021
1440.63765	0.63810
1438.70908	0.63646
1436.78052	0.63470
1434.85195	0.63198
1432.92339	0.62929
1430.99482	0.62751
1429.06626	0.62626
1427.13770	0.62520
1425.20913	0.62470
1423.28057	0.62466
1421.35200	0.62463
1419.42344	0.62468
1417.49487	0.62377
1415.56631	0.62152
1413.63774	0.61961
1411.70918	0.61848
1409.78062	0.61784
1407.85205	0.61760
1405.92349	0.61780
1403.99492	0.61798
1402.06636	0.61758
1400.13779	0.61693
1398.20923	0.61588
1396.28066	0.61393
1394.35210	0.61110
1392.42354	0.60791
1390.49497	0.60509
1388.56641	0.60270
1386.63784	0.59999
1384.70928	0.59654
1382.78071	0.59318
1380.85215	0.59052
1378.92358	0.58857
1376.99502	0.58720
1375.06646	0.58634
1373.13789	0.58539
1371.20933	0.58422
1369.28076	0.58332
1367.35220	0.58235
1365.42363	0.58124
1363.49507	0.58042
1361.56650	0.57940
1359.63794	0.57784
1357.70937	0.57644
1355.78081	0.57535
1353.85225	0.57431
1351.92368	0.57322
1349.99512	0.57224
1348.06655	0.57139
1346.13799	0.57057
1344.20942	0.56979
1342.28086	0.56926
1340.35229	0.56902
1338.42373	0.56842
1336.49517	0.56718
1334.56660	0.56597
1332.63804	0.56521
1330.70947	0.56478
1328.78091	0.56443
1326.85234	0.56417
1324.92378	0.56412
1322.99521	0.56425
1321.06665	0.56445
1319.13809	0.56461
1317.20952	0.56447
1315.28096	0.56398
1313.35239	0.56327
1311.42383	0.56230
1309.49526	0.56128
1307.56670	0.56050
1305.63813	0.55992
1303.70957	0.55922
1301.78101	0.55828
1299.85244	0.55727
1297.92388	0.55643
1295.99531	0.55568
1294.06675	0.55489
1292.13818	0.55402
1290.20962	0.55317
1288.28105	0.55242
1286.35249	0.55165
1284.42393	0.55077
1282.49536	0.54981
1280.56680	0.54889
1278.63823	0.54806
1276.70967	0.54720
1274.78110	0.54639
1272.85254	0.54583
1270.92397	0.54539
1268.99541	0.54481
1267.06685	0.54404
1265.13828	0.54326
1263.20972	0.54279
1261.28115	0.54260
1259.35259	0.54228
1257.42402	0.54162
1255.49546	0.54107
1253.56689	0.54094
1251.63833	0.54098
1249.70977	0.54094
1247.78120	0.54077
1245.85264	0.54050
1243.92407	0.54014
1241.99551	0.53952
1240.06694	0.53859
1238.13838	0.53746
1236.20981	0.53616
1234.28125	0.53478
1232.35269	0.53349
1230.42412	0.53226
1228.49556	0.53103
1226.56699	0.52974
1224.63843	0.52840
1222.70986	0.52705
1220.78130	0.52580
1218.85273	0.52478
1216.92417	0.52404
1214.99561	0.52338
1213.06704	0.52254
1211.13848	0.52169
1209.20991	0.52112
1207.28135	0.52073
1205.35278	0.52014
1203.42422	0.51936
1201.49565	0.51862
1199.56709	0.51803
1197.63853	0.51751
1195.70996	0.51701
1193.78140	0.51650
1191.85283	0.51599
1189.92427	0.51551
1187.99570	0.51519
1186.06714	0.51503
1184.13857	0.51491
1182.21001	0.51498
1180.28145	0.51545
1178.35288	0.51623
1176.42432	0.51715
1174.49575	0.51813
1172.56719	0.51900
1170.63862	0.51962
1168.71006	0.52006
1166.78149	0.52047
1164.85293	0.52088
1162.92437	0.52126
1160.99580	0.52166
1159.06724	0.52190
1157.13867	0.52170
1155.21011	0.52103
1153.28154	0.51991
1151.35298	0.51830
1149.42441	0.51630
1147.49585	0.51397
1145.56729	0.51145
1143.63872	0.50895
1141.71016	0.50651
1139.78159	0.50429
1137.85303	0.50251
1135.92446	0.50118
1133.99590	0.50024
1132.06733	0.49958
1130.13877	0.49903
1128.21021	0.49853
1126.28164	0.49802
1124.35308	0.49729
1122.42451	0.49660
1120.49595	0.49625
1118.56738	0.49618
1116.63882	0.49637
1114.71025	0.49685
1112.78169	0.49747
1110.85312	0.49825
1108.92456	0.49923
1106.99600	0.50029
1105.06743	0.50134
1103.13887	0.50250
1101.21030	0.50378
1099.28174	0.50507
1097.35317	0.50659
1095.42461	0.50893
1093.49604	0.51238
1091.56748	0.51706
1089.63892	0.52316
1087.71035	0.53065
1085.78179	0.53900
1083.85322	0.54732
1081.92466	0.55463
1079.99609	0.56007
1078.06753	0.56283
1076.13896	0.56257
1074.21040	0.55955
1072.28184	0.55432
1070.35327	0.54771
1068.42471	0.54062
1066.49614	0.53388
1064.56758	0.52794
1062.63901	0.52260
1060.71045	0.51763
1058.78188	0.51320
1056.85332	0.50933
1054.92476	0.50591
1052.99619	0.50305
1051.06763	0.50092
1049.13906	0.49944
1047.21050	0.49849
1045.28193	0.49815
1043.35337	0.49835
1041.42480	0.49878
1039.49624	0.49908
1037.56768	0.49906
1035.63911	0.49880
1033.71055	0.49823
1031.78198	0.49722
1029.85342	0.49601
1027.92485	0.49482
1025.99629	0.49358
1024.06772	0.49242
1022.13916	0.49172
1020.21060	0.49158
1018.28203	0.49166
1016.35347	0.49180
1014.42490	0.49204
1012.49634	0.49214
1010.56777	0.49205
1008.63921	0.49220
1006.71064	0.49298
1004.78208	0.49428
1002.85352	0.49593
1000.92495	0.49821
998.99639	0.50141
997.06782	0.50536
995.13926	0.50964
993.21069	0.51374
991.28213	0.51702
989.35356	0.51909
987.42500	0.52002
985.49644	0.52022
983.56787	0.52037
981.63931	0.52091
979.71074	0.52185
977.78218	0.52311
975.85361	0.52479
973.92505	0.52714
971.99648	0.53010
970.06792	0.53330
968.13936	0.53676
966.21079	0.54064
964.28223	0.54498
962.35366	0.54978
960.42510	0.55480
958.49653	0.55992
956.56797	0.56536
954.63940	0.57119
952.71084	0.57732
950.78228	0.58367
948.85371	0.58997
946.92515	0.59610
944.99658	0.60228
943.06802	0.60841
941.13945	0.61448
939.21089	0.62051
937.28232	0.62622
935.35376	0.63179
933.42520	0.63739
931.49663	0.64263
929.56807	0.64777
927.63950	0.65330
925.71094	0.65921
923.78237	0.66541
921.85381	0.67169
919.92524	0.67787
917.99668	0.68427
916.06812	0.69133
914.13955	0.69896
912.21099	0.70667
910.28242	0.71432
908.35386	0.72199
906.42529	0.72980
904.49673	0.73800
902.56816	0.74635
900.63960	0.75487
898.71104	0.76399
896.78247	0.77360
894.85391	0.78354
892.92534	0.79396
890.99678	0.80479
889.06821	0.81584
887.13965	0.82718
885.21108	0.83823
883.28252	0.84843
881.35396	0.85844
879.42539	0.86902
877.49683	0.88091
875.56826	0.89382
873.63970	0.90568
871.71113	0.91671
869.78257	0.92883
867.85400	0.94103
865.92544	0.95153
863.99687	0.96094
862.06831	0.97045
860.13975	0.98139
858.21118	0.99355
856.28262	1.00524
854.35405	1.01753
852.42549	1.03042
850.49692	1.04149
848.56836	1.05095
846.63979	1.06056
844.71123	1.07102
842.78267	1.08199
840.85410	1.09406
838.92554	1.10720
836.99697	1.11887
835.06841	1.12911
833.13984	1.14032
831.21128	1.15078
829.28271	1.16143
827.35415	1.17583
825.42559	1.18888
823.49702	1.19815
821.56846	1.21012
819.63989	1.22662
817.71133	1.23743
815.78276	1.23935
813.85420	1.24157
811.92563	1.24536
809.99707	1.25509
808.06851	1.27141
806.13994	1.28431
804.21138	1.29504
802.28281	1.30398
800.35425	1.30319
798.42568	1.31177
796.49712	1.32302
794.56855	1.30146
792.63999	1.25297
790.71143	1.22423
788.78286	1.20920
786.85430	1.16018
784.92573	1.11452
782.99717	1.09940
781.06860	1.10770
779.14004	1.09498
777.21147	1.05993
775.28291	1.03590
773.35435	1.03587
771.42578	1.03914
769.49722	1.00675
767.56865	0.94654
765.64009	0.88688
763.71152	0.84128
761.78296	0.80663
759.85439	0.76981
757.92583	0.73931
755.99727	0.72987
754.06870	0.72671
752.14014	0.71163
750.21157	0.67826
748.28301	0.62239
746.35444	0.56942
744.42588	0.53346
742.49731	0.49916
740.56875	0.46101
738.64019	0.40924
736.71162	0.34608
734.78306	0.29144
732.85449	0.21628
730.92593	0.10683
728.99736	0.01033
727.06880	-0.05332
725.14023	-0.09475
723.21167	-0.12745
721.28311	-0.18753
719.35454	-0.27346
717.42598	-0.31921
715.49741	-0.37962
713.56885	-0.50277
711.64028	-0.63123
709.71172	-0.78469
707.78315	-0.81067
705.85459	-0.61671
703.92603	-0.40266
701.99746	-0.28941
700.06890	-0.27196
698.14033	-0.30609
696.21177	-0.31183
694.28320	-0.27270
692.35464	-0.24956
690.42607	-0.23687
688.49751	-0.20448
686.56895	-0.16944
684.64038	-0.19115
682.71182	-0.26412
680.78325	-0.29016
678.85469	-0.24325
676.92612	-0.20868
674.99756	-0.22944
673.06899	-0.26000
671.14043	-0.25003
669.21187	-0.22632
667.28330	-0.24594
665.35474	-0.30502
663.42617	-0.32985
661.49761	-0.30487
659.56904	-0.28902
657.64048	-0.27601
655.71191	-0.24732
653.78335	-0.24777
651.85479	-0.27479
649.92622	-0.28727
647.99766	-0.26992
646.06909	-0.24131
644.14053	-0.23023
642.21196	-0.22025
640.28340	-0.19297
638.35483	-0.17276
636.42627	-0.17814
634.49771	-0.19997
632.56914	-0.22591
630.64058	-0.24737
628.71201	-0.25023
626.78345	-0.24018
624.85488	-0.24046
622.92632	-0.25314
620.99775	-0.27975
619.06919	-0.30988
617.14062	-0.27499
615.21206	-0.21767
613.28350	-0.19713
611.35493	-0.17427
609.42637	-0.14736
607.49780	-0.15989
605.56924	-0.19870
603.64067	-0.22267
601.71211	-0.21133
599.78354	-0.18006
597.85498	-0.19567
595.92642	-0.25212
593.99785	-0.23996
592.06929	-0.16798
590.14072	-0.13360
588.21216	-0.14299
586.28359	-0.16349
584.35503	-0.17367
582.42646	-0.17508
580.49790	-0.18144
578.56934	-0.17804
576.64077	-0.16199
574.71221	-0.15177
572.78364	-0.15110
570.85508	-0.14342
568.92651	-0.14143
566.99795	-0.15971
565.06938	-0.17703
563.14082	-0.19562
561.21226	-0.20815
559.28369	-0.20342
557.35513	-0.21000
555.42656	-0.23606
553.49800	-0.25026
551.56943	-0.22265
549.64087	-0.18247
547.71230	-0.17615
545.78374	-0.19114
543.85518	-0.18220
541.92661	-0.15393
539.99805	-0.14060
538.06948	-0.14447
536.14092	-0.16058
534.21235	-0.17847
532.28379	-0.17679
530.35522	-0.15489
528.42666	-0.13801
526.49810	-0.15714
524.56953	-0.20956
522.64097	-0.24667
520.71240	-0.22895
518.78384	-0.20027
516.85527	-0.19385
514.92671	-0.16915
512.99814	-0.12912
511.06958	-0.13234
509.14102	-0.16387
507.21245	-0.16162
505.28389	-0.14865
503.35532	-0.15928
501.42676	-0.15941
499.49819	-0.13664
