3997.91411	0.06592
3995.98555	0.06637
3994.05698	0.06683
3992.12842	0.06696
3990.19985	0.06723
3988.27129	0.06789
3986.34272	0.06845
3984.41416	0.06889
3982.48560	0.06926
3980.55703	0.06948
3978.62847	0.06965
3976.69990	0.07003
3974.77134	0.07046
3972.84277	0.07052
3970.91421	0.07040
3968.98564	0.07036
3967.05708	0.07030
3965.12852	0.07047
3963.19995	0.07105
3961.27139	0.07170
3959.34282	0.07211
3957.41426	0.07215
3955.48569	0.07191
3953.55713	0.07175
3951.62856	0.07210
3949.70000	0.07299
3947.77144	0.07352
3945.84287	0.07325
3943.91431	0.07334
3941.98574	0.07382
3940.05718	0.07308
3938.12861	0.07173
3936.20005	0.07118
3934.27148	0.07178
3932.34292	0.07342
3930.41436	0.07476
3928.48579	0.07448
3926.55723	0.07393
3924.62866	0.07451
3922.70010	0.07486
3920.77153	0.07401
3918.84297	0.07361
3916.91440	0.07417
3914.98584	0.07404
3913.05728	0.07272
3911.12871	0.07132
3909.20015	0.07052
3907.27158	0.07122
3905.34302	0.07452
3903.41445	0.07911
3901.48589	0.08097
3899.55732	0.07981
3897.62876	0.07761
3895.70020	0.07533
3893.77163	0.07478
3891.84307	0.07619
3889.91450	0.07657
3887.98594	0.07523
3886.05737	0.07551
3884.12881	0.07738
3882.20024	0.07836
3880.27168	0.07889
3878.34312	0.07792
3876.41455	0.07563
3874.48599	0.07562
3872.55742	0.07826
3870.62886	0.08127
3868.70029	0.08236
3866.77173	0.08125
3864.84316	0.08182
3862.91460	0.08343
3860.98604	0.08190
3859.05747	0.07946
3857.12891	0.07977
3855.20034	0.08361
3853.27178	0.09044
3851.34321	0.09218
3849.41465	0.08621
3847.48608	0.08172
3845.55752	0.08068
3843.62896	0.08252
3841.70039	0.08623
3839.77183	0.09035
3837.84326	0.09332
3835.91470	0.09326
3833.98613	0.09123
3832.05757	0.08968
3830.12900	0.08884
3828.20044	0.08838
3826.27187	0.08887
3824.34331	0.09040
3822.41475	0.09354
3820.48618	0.09862
3818.55762	0.10059
3816.62905	0.09909
3814.70049	0.09723
3812.77192	0.09445
3810.84336	0.09249
3808.91479	0.09359
3806.98623	0.09771
3805.05767	0.10151
3803.12910	0.10392
3801.20054	0.10772
3799.27197	0.10988
3797.34341	0.10844
3795.41484	0.10666
3793.48628	0.10480
3791.55771	0.10349
3789.62915	0.10357
3787.70059	0.10494
3785.77202	0.10753
3783.84346	0.11038
3781.91489	0.11229
3779.98633	0.11446
3778.05776	0.11668
3776.12920	0.11676
3774.20063	0.11663
3772.27207	0.11873
3770.34351	0.12306
3768.41494	0.12758
3766.48638	0.12983
3764.55781	0.13061
3762.62925	0.13128
3760.70068	0.13353
3758.77212	0.13811
3756.84355	0.14203
3754.91499	0.14404
3752.98643	0.14774
3751.05786	0.15530
3749.12930	0.16247
3747.20073	0.16447
3745.27217	0.16594
3743.34360	0.16956
3741.41504	0.17257
3739.48647	0.17522
3737.55791	0.18058
3735.62935	0.19004
3733.70078	0.19953
3731.77222	0.20291
3729.84365	0.20378
3727.91509	0.20665
3725.98652	0.21284
3724.05796	0.22041
3722.12939	0.22655
3720.20083	0.23134
3718.27227	0.23535
3716.34370	0.23964
3714.41514	0.24600
3712.48657	0.25751
3710.55801	0.27568
3708.62944	0.29204
3706.70088	0.30186
3704.77231	0.31122
3702.84375	0.32414
3700.91519	0.34145
3698.98662	0.35948
3697.05806	0.37653
3695.12949	0.39550
3693.20093	0.41644
3691.27236	0.44002
3689.34380	0.47022
3687.41523	0.50434
3685.48667	0.53173
3683.55811	0.55549
3681.62954	0.58306
3679.70098	0.61627
3677.77241	0.65265
3675.84385	0.69578
3673.91528	0.75092
3671.98672	0.79372
3670.05815	0.83215
3668.12959	0.88486
3666.20103	0.93097
3664.27246	0.96917
3662.34390	1.01182
3660.41533	1.05960
3658.48677	1.10772
3656.55820	1.15903
3654.62964	1.21574
3652.70107	1.26333
3650.77251	1.30676
3648.84395	1.36912
3646.91538	1.44070
3644.98682	1.48685
3643.05825	1.52209
3641.12969	1.56126
3639.20112	1.60627
3637.27256	1.65212
3635.34399	1.69704
3633.41543	1.74255
3631.48687	1.78624
3629.55830	1.83132
3627.62974	1.88777
3625.70117	1.93602
3623.77261	1.96690
3621.84404	1.99887
3619.91548	2.03852
3617.98691	2.08605
3616.05835	2.12860
3614.12979	2.16298
3612.20122	2.20116
3610.27266	2.24111
3608.34409	2.28178
3606.41553	2.32433
3604.48696	2.36266
3602.55840	2.39742
3600.62983	2.43671
3598.70127	2.47962
3596.77271	2.51996
3594.84414	2.56025
3592.91558	2.60223
3590.98701	2.64083
3589.05845	2.67610
3587.12988	2.71971
3585.20132	2.76874
3583.27275	2.80929
3581.34419	2.84593
3579.41562	2.88487
3577.48706	2.92491
3575.55850	2.96426
3573.62993	3.00622
3571.70137	3.04976
3569.77280	3.09205
3567.84424	3.13663
3565.91567	3.18992
3563.98711	3.24025
3562.05854	3.28052
3560.12998	3.32026
3558.20142	3.36337
3556.27285	3.40837
3554.34429	3.45218
3552.41572	3.49656
3550.48716	3.54189
3548.55859	3.58701
3546.63003	3.63368
3544.70146	3.68502
3542.77290	3.73683
3540.84434	3.78176
3538.91577	3.82263
3536.98721	3.86580
3535.05864	3.91380
3533.13008	3.96175
3531.20151	4.00824
3529.27295	4.05582
3527.34438	4.10506
3525.41582	4.15394
3523.48726	4.20219
3521.55869	4.25137
3519.63013	4.30060
3517.70156	4.35097
3515.77300	4.39943
3513.84443	4.44396
3511.91587	4.48940
3509.98730	4.53710
3508.05874	4.58399
3506.13018	4.63000
3504.20161	4.67633
3502.27305	4.72514
3500.34448	4.77539
3498.41592	4.82244
3496.48735	4.86898
3494.55879	4.91654
3492.63022	4.96188
3490.70166	5.00586
3488.77310	5.05728
3486.84453	5.11872
3484.91597	5.17437
3482.98740	5.21592
3481.05884	5.25756
3479.13027	5.30771
3477.20171	5.35727
3475.27314	5.40226
3473.34458	5.44685
3471.41602	5.48598
3469.48745	5.51860
3467.55889	5.56163
3465.63032	5.62333
3463.70176	5.68985
3461.77319	5.74921
3459.84463	5.80288
3457.91606	5.84232
3455.98750	5.87361
3454.05894	5.92205
3452.13037	5.98517
3450.20181	6.04579
3448.27324	6.10333
3446.34468	6.15737
3444.41611	6.19412
3442.48755	6.23004
3440.55898	6.27871
3438.63042	6.32103
3436.70186	6.35448
3434.77329	6.40794
3432.84473	6.49336
3430.91616	6.58070
3428.98760	6.65706
3427.05903	6.71642
3425.13047	6.73667
3423.20190	6.73608
3421.27334	6.76553
3419.34478	6.82016
3417.41621	6.87865
3415.48765	6.94537
3413.55908	6.99265
3411.63052	7.00403
3409.70195	7.01731
3407.77339	7.09128
3405.84482	7.18378
3403.91626	7.20482
3401.98770	7.18658
3400.05913	7.22338
3398.13057	7.31216
3396.20200	7.36484
3394.27344	7.37867
3392.34487	7.40134
3390.41631	7.45472
3388.48774	7.51016
3386.55918	7.55405
3384.63062	7.59876
3382.70205	7.62467
3380.77349	7.64449
3378.84492	7.67672
3376.91636	7.70425
3374.98779	7.72180
3373.05923	7.76301
3371.13066	7.81954
3369.20210	7.86583
3367.27354	7.85045
3365.34497	7.79560
3363.41641	7.82737
3361.48784	7.94180
3359.55928	8.04199
3357.63071	8.08912
3355.70215	8.09305
3353.77358	8.04516
3351.84502	8.01553
3349.91646	8.03764
3347.98789	8.03256
3346.05933	8.01117
3344.13076	8.03634
3342.20220	8.06613
3340.27363	8.05438
3338.34507	8.05148
3336.41650	8.06946
3334.48794	8.10687
3332.55937	8.13368
3330.63081	8.10618
3328.70225	8.05945
3326.77368	8.04218
3324.84512	8.06212
3322.91655	8.08481
3320.98799	8.08841
3319.05942	8.09608
3317.13086	8.14667
3315.20229	8.17612
3313.27373	8.12721
3311.34517	8.06398
3309.41660	8.07623
3307.48804	8.20172
3305.55947	8.37484
3303.63091	8.47864
3301.70234	8.40154
3299.77378	8.20261
3297.84521	8.06997
3295.91665	8.08388
3293.98809	8.13852
3292.05952	8.16819
3290.13096	8.25606
3288.20239	8.37356
3286.27383	8.39900
3284.34526	8.31228
3282.41670	8.22284
3280.48813	8.21180
3278.55957	8.24693
3276.63101	8.19948
3274.70244	8.07543
3272.77388	8.02248
3270.84531	8.09845
3268.91675	8.26919
3266.98818	8.36390
3265.05962	8.29276
3263.13105	8.20884
3261.20249	8.14875
3259.27393	8.06460
3257.34536	8.03004
3255.41680	8.09065
3253.48823	8.18015
3251.55967	8.25350
3249.63110	8.28793
3247.70254	8.30494
3245.77397	8.39343
3243.84541	8.46912
3241.91685	8.37200
3239.98828	8.23649
3238.05972	8.22023
3236.13115	8.26793
3234.20259	8.21743
3232.27402	8.10781
3230.34546	8.06761
3228.41689	8.07589
3226.48833	8.09183
3224.55977	8.10621
3222.63120	8.11755
3220.70264	8.08567
3218.77407	7.99946
3216.84551	7.96845
3214.91694	8.00870
3212.98838	8.00408
3211.05981	7.94238
3209.13125	7.90050
3207.20269	7.88540
3205.27412	7.84706
3203.34556	7.75484
3201.41699	7.66161
3199.48843	7.62982
3197.55986	7.66032
3195.63130	7.71750
3193.70273	7.73889
3191.77417	7.67633
3189.84561	7.55316
3187.91704	7.44346
3185.98848	7.40146
3184.05991	7.38090
3182.13135	7.32532
3180.20278	7.26065
3178.27422	7.18762
3176.34565	7.11301
3174.41709	7.06634
3172.48853	7.02181
3170.55996	6.94632
3168.63140	6.87415
3166.70283	6.83660
3164.77427	6.78123
3162.84570	6.68685
3160.91714	6.61668
3158.98857	6.57805
3157.06001	6.51868
3155.13145	6.43366
3153.20288	6.35589
3151.27432	6.30280
3149.34575	6.25525
3147.41719	6.18870
3145.48862	6.11059
3143.56006	6.03118
3141.63149	5.95953
3139.70293	5.89743
3137.77437	5.82862
3135.84580	5.74934
3133.91724	5.67383
3131.98867	5.60710
3130.06011	5.54361
3128.13154	5.47656
3126.20298	5.40110
3124.27441	5.32237
3122.34585	5.24925
3120.41729	5.18265
3118.48872	5.11186
3116.56016	5.03354
3114.63159	4.95857
3112.70303	4.89060
3110.77446	4.82753
3108.84590	4.76929
3106.91733	4.70873
3104.98877	4.63913
3103.06021	4.56770
3101.13164	4.49948
3099.20308	4.43154
3097.27451	4.36516
3095.34595	4.30072
3093.41738	4.23624
3091.48882	4.17288
3089.56025	4.10991
3087.63169	4.04516
3085.70312	3.98193
3083.77456	3.92322
3081.84600	3.86520
3079.91743	3.80339
3077.98887	3.74011
3076.06030	3.67985
3074.13174	3.62198
3072.20317	3.56506
3070.27461	3.51016
3068.34604	3.45597
3066.41748	3.39920
3064.48892	3.34128
3062.56035	3.28625
3060.63179	3.23375
3058.70322	3.18080
3056.77466	3.12706
3054.84609	3.07465
3052.91753	3.02429
3050.98896	2.97442
3049.06040	2.92451
3047.13184	2.87573
3045.20327	2.82794
3043.27471	2.77970
3041.34614	2.73139
3039.41758	2.68444
3037.48901	2.63806
3035.56045	2.59199
3033.63188	2.54767
3031.70332	2.50446
3029.77476	2.46121
3027.84619	2.41826
3025.91763	2.37585
3023.98906	2.33421
3022.06050	2.29330
3020.13193	2.25291
3018.20337	2.21323
3016.27480	2.17433
3014.34624	2.13639
3012.41768	2.09909
3010.48911	2.06200
3008.56055	2.02553
3006.63198	1.99005
3004.70342	1.95564
3002.77485	1.92135
3000.84629	1.88636
2998.91772	1.85171
2996.98916	1.81862
2995.06060	1.78732
2993.13203	1.75684
2991.20347	1.72612
2989.27490	1.69546
2987.34634	1.66551
2985.41777	1.63626
2983.48921	1.60732
2981.56064	1.57861
2979.63208	1.55065
2977.70352	1.52355
2975.77495	1.49700
2973.84639	1.47053
2971.91782	1.44394
2969.98926	1.41797
2968.06069	1.39299
2966.13213	1.36832
2964.20356	1.34370
2962.27500	1.31954
2960.34644	1.29591
2958.41787	1.27257
2956.48931	1.24963
2954.56074	1.22696
2952.63218	1.20409
2950.70361	1.18140
2948.77505	1.15943
2946.84648	1.13800
2944.91792	1.11696
2942.98936	1.09637
2941.06079	1.07621
2939.13223	1.05612
2937.20366	1.03615
2935.27510	1.01659
2933.34653	0.99748
2931.41797	0.97894
2929.48940	0.96057
2927.56084	0.94221
2925.63228	0.92460
2923.70371	0.90772
2921.77515	0.89109
2919.84658	0.87492
2917.91802	0.85932
2915.98945	0.84385
2914.06089	0.82859
2912.13232	0.81380
2910.20376	0.79930
2908.27520	0.78492
2906.34663	0.77104
2904.41807	0.75778
2902.48950	0.74474
2900.56094	0.73186
2898.63237	0.71933
2896.70381	0.70699
2894.77524	0.69468
2892.84668	0.68272
2890.91812	0.67136
2888.98955	0.66034
2887.06099	0.64945
2885.13242	0.63884
2883.20386	0.62840
2881.27529	0.61798
2879.34673	0.60775
2877.41816	0.59788
2875.48960	0.58836
2873.56104	0.57891
2871.63247	0.56919
2869.70391	0.55906
2867.77534	0.54864
2865.84678	0.53826
2863.91821	0.52813
2861.98965	0.51818
2860.06108	0.50845
2858.13252	0.49930
2856.20396	0.49076
2854.27539	0.48234
2852.34683	0.47391
2850.41826	0.46586
2848.48970	0.45831
2846.56113	0.45132
2844.63257	0.44481
2842.70400	0.43841
2840.77544	0.43214
2838.84687	0.42637
2836.91831	0.42099
2834.98975	0.41556
2833.06118	0.40995
2831.13262	0.40427
2829.20405	0.39857
2827.27549	0.39301
2825.34692	0.38751
2823.41836	0.38183
2821.48979	0.37611
2819.56123	0.37060
2817.63267	0.36522
2815.70410	0.35986
2813.77554	0.35457
2811.84697	0.34937
2809.91841	0.34429
2807.98984	0.33941
2806.06128	0.33461
2804.13271	0.32978
2802.20415	0.32508
2800.27559	0.32042
2798.34702	0.31571
2796.41846	0.31107
2794.48989	0.30664
2792.56133	0.30252
2790.63276	0.29857
2788.70420	0.29450
2786.77563	0.29038
2784.84707	0.28637
2782.91851	0.28243
2780.98994	0.27849
2779.06138	0.27463
2777.13281	0.27096
2775.20425	0.26749
2773.27568	0.26412
2771.34712	0.26074
2769.41855	0.25736
2767.48999	0.25398
2765.56143	0.25061
2763.63286	0.24728
2761.70430	0.24400
2759.77573	0.24093
2757.84717	0.23828
2755.91860	0.23566
2753.99004	0.23265
2752.06147	0.22958
2750.13291	0.22685
2748.20435	0.22425
2746.27578	0.22157
2744.34722	0.21889
2742.41865	0.21634
2740.49009	0.21396
2738.56152	0.21160
2736.63296	0.20920
2734.70439	0.20690
2732.77583	0.20472
2730.84727	0.20253
2728.91870	0.20026
2726.99014	0.19811
2725.06157	0.19616
2723.13301	0.19427
2721.20444	0.19233
2719.27588	0.19038
2717.34731	0.18846
2715.41875	0.18660
2713.49019	0.18488
2711.56162	0.18322
2709.63306	0.18161
2707.70449	0.18016
2705.77593	0.17871
2703.84736	0.17709
2701.91880	0.17548
2699.99023	0.17406
2698.06167	0.17277
2696.13311	0.17147
2694.20454	0.17004
2692.27598	0.16871
2690.34741	0.16758
2688.41885	0.16638
2686.49028	0.16513
2684.56172	0.16398
2682.63315	0.16288
2680.70459	0.16185
2678.77603	0.16098
2676.84746	0.16012
2674.91890	0.15911
2672.99033	0.15800
2671.06177	0.15693
2669.13320	0.15593
2667.20464	0.15497
2665.27607	0.15403
2663.34751	0.15324
2661.41895	0.15254
2659.49038	0.15189
2657.56182	0.15133
2655.63325	0.15077
2653.70469	0.15008
2651.77612	0.14931
2649.84756	0.14856
2647.91899	0.14793
2645.99043	0.14749
2644.06187	0.14712
2642.13330	0.14672
2640.20474	0.14621
2638.27617	0.14566
2636.34761	0.14527
2634.41904	0.14499
2632.49048	0.14470
2630.56191	0.14434
2628.63335	0.14385
2626.70479	0.14339
2624.77622	0.14308
2622.84766	0.14289
2620.91909	0.14269
2618.99053	0.14257
2617.06196	0.14262
2615.13340	0.14259
2613.20483	0.14229
2611.27627	0.14205
2609.34771	0.14206
2607.41914	0.14212
2605.49058	0.14211
2603.56201	0.14204
2601.63345	0.14196
2599.70488	0.14198
2597.77632	0.14209
2595.84775	0.14213
2593.91919	0.14223
2591.99062	0.14248
2590.06206	0.14269
2588.13350	0.14278
2586.20493	0.14298
2584.27637	0.14333
2582.34780	0.14361
2580.41924	0.14386
2578.49067	0.14422
2576.56211	0.14460
2574.63354	0.14488
2572.70498	0.14511
2570.77642	0.14545
2568.84785	0.14586
2566.91929	0.14627
2564.99072	0.14673
2563.06216	0.14724
2561.13359	0.14772
2559.20503	0.14821
2557.27646	0.14872
2555.34790	0.14918
2553.41934	0.14958
2551.49077	0.15001
2549.56221	0.15054
2547.63364	0.15114
2545.70508	0.15174
2543.77651	0.15237
2541.84795	0.15313
2539.91938	0.15394
2537.99082	0.15467
2536.06226	0.15528
2534.13369	0.15578
2532.20513	0.15626
2530.27656	0.15692
2528.34800	0.15770
2526.41943	0.15845
2524.49087	0.15920
2522.56230	0.16006
2520.63374	0.16091
2518.70518	0.16167
2516.77661	0.16242
2514.84805	0.16329
2512.91948	0.16422
2510.99092	0.16505
2509.06235	0.16571
2507.13379	0.16634
2505.20522	0.16710
2503.27666	0.16796
2501.34810	0.16881
2499.41953	0.16963
2497.49097	0.17052
2495.56240	0.17155
2493.63384	0.17255
2491.70527	0.17334
2489.77671	0.17406
2487.84814	0.17492
2485.91958	0.17586
2483.99102	0.17681
2482.06245	0.17768
2480.13389	0.17844
2478.20532	0.17925
2476.27676	0.18013
2474.34819	0.18111
2472.41963	0.18219
2470.49106	0.18320
2468.56250	0.18408
2466.63394	0.18498
2464.70537	0.18590
2462.77681	0.18679
2460.84824	0.18770
2458.91968	0.18868
2456.99111	0.18980
2455.06255	0.19088
2453.13398	0.19174
2451.20542	0.19253
2449.27686	0.19338
2447.34829	0.19424
2445.41973	0.19520
2443.49116	0.19633
2441.56260	0.19747
2439.63403	0.19849
2437.70547	0.19946
2435.77690	0.20061
2433.84834	0.20182
2431.91978	0.20285
2429.99121	0.20385
2428.06265	0.20503
2426.13408	0.20625
2424.20552	0.20736
2422.27695	0.20839
2420.34839	0.20941
2418.41982	0.21038
2416.49126	0.21142
2414.56270	0.21264
2412.63413	0.21389
2410.70557	0.21502
2408.77700	0.21609
2406.84844	0.21725
2404.91987	0.21854
2402.99131	0.21977
2401.06274	0.22082
2399.13418	0.22190
2397.20562	0.22317
2395.27705	0.22449
2393.34849	0.22575
2391.41992	0.22707
2389.49136	0.22874
2387.56279	0.23112
2385.63423	0.23462
2383.70566	0.23989
2381.77710	0.24719
2379.84854	0.25603
2377.91997	0.26595
2375.99141	0.27716
2374.06284	0.29002
2372.13428	0.30464
2370.20571	0.32060
2368.27715	0.33671
2366.34858	0.35198
2364.42002	0.36544
2362.49146	0.37531
2360.56289	0.38050
2358.63433	0.38083
2356.70576	0.37578
2354.77720	0.36537
2352.84863	0.35113
2350.92007	0.33614
2348.99150	0.32687
2347.06294	0.32784
2345.13437	0.33913
2343.20581	0.35334
2341.27725	0.36039
2339.34868	0.36114
2337.42012	0.35979
2335.49155	0.35820
2333.56299	0.35750
2331.63442	0.35802
2329.70586	0.35809
2327.77729	0.35623
2325.84873	0.35279
2323.92017	0.34891
2321.99160	0.34499
2320.06304	0.34042
2318.13447	0.33524
2316.20591	0.33079
2314.27734	0.32816
2312.34878	0.32698
2310.42021	0.32591
2308.49165	0.32402
2306.56309	0.32147
2304.63452	0.31910
2302.70596	0.31786
2300.77739	0.31768
2298.84883	0.31767
2296.92026	0.31757
2294.99170	0.31756
2293.06313	0.31752
2291.13457	0.31741
2289.20601	0.31742
2287.27744	0.31768
2285.34888	0.31813
2283.42031	0.31897
2281.49175	0.32056
2279.56318	0.32280
2277.63462	0.32517
2275.70605	0.32748
2273.77749	0.32979
2271.84893	0.33202
2269.92036	0.33415
2267.99180	0.33617
2266.06323	0.33803
2264.13467	0.33988
2262.20610	0.34177
2260.27754	0.34358
2258.34897	0.34538
2256.42041	0.34719
2254.49185	0.34899
2252.56328	0.35078
2250.63472	0.35263
2248.70615	0.35460
2246.77759	0.35662
2244.84902	0.35862
2242.92046	0.36065
2240.99189	0.36279
2239.06333	0.36494
2237.13477	0.36703
2235.20620	0.36910
2233.27764	0.37121
2231.34907	0.37333
2229.42051	0.37546
2227.49194	0.37764
2225.56338	0.37989
2223.63481	0.38218
2221.70625	0.38434
2219.77769	0.38640
2217.84912	0.38849
2215.92056	0.39069
2213.99199	0.39293
2212.06343	0.39512
2210.13486	0.39716
2208.20630	0.39911
2206.27773	0.40110
2204.34917	0.40312
2202.42061	0.40511
2200.49204	0.40723
2198.56348	0.40944
2196.63491	0.41145
2194.70635	0.41325
2192.77778	0.41504
2190.84922	0.41693
2188.92065	0.41887
2186.99209	0.42079
2185.06353	0.42263
2183.13496	0.42431
2181.20640	0.42589
2179.27783	0.42752
2177.34927	0.42917
2175.42070	0.43072
2173.49214	0.43226
2171.56357	0.43391
2169.63501	0.43551
2167.70645	0.43684
2165.77788	0.43792
2163.84932	0.43901
2161.92075	0.44024
2159.99219	0.44142
2158.06362	0.44251
2156.13506	0.44357
2154.20649	0.44453
2152.27793	0.44532
2150.34937	0.44599
2148.42080	0.44668
2146.49224	0.44750
2144.56367	0.44833
2142.63511	0.44889
2140.70654	0.44911
2138.77798	0.44930
2136.84941	0.44961
2134.92085	0.44991
2132.99229	0.45003
2131.06372	0.44992
2129.13516	0.44973
2127.20659	0.44970
2125.27803	0.44964
2123.34946	0.44930
2121.42090	0.44887
2119.49233	0.44843
2117.56377	0.44788
2115.63521	0.44723
2113.70664	0.44659
2111.77808	0.44596
2109.84951	0.44533
2107.92095	0.44459
2105.99238	0.44357
2104.06382	0.44232
2102.13525	0.44094
2100.20669	0.43955
2098.27812	0.43837
2096.34956	0.43727
2094.42100	0.43595
2092.49243	0.43443
2090.56387	0.43291
2088.63530	0.43126
2086.70674	0.42946
2084.77817	0.42768
2082.84961	0.42595
2080.92104	0.42416
2078.99248	0.42225
2077.06392	0.42021
2075.13535	0.41818
2073.20679	0.41620
2071.27822	0.41409
2069.34966	0.41186
2067.42109	0.40974
2065.49253	0.40768
2063.56396	0.40542
2061.63540	0.40300
2059.70684	0.40056
2057.77827	0.39809
2055.84971	0.39560
2053.92114	0.39315
2051.99258	0.39062
2050.06401	0.38803
2048.13545	0.38553
2046.20688	0.38309
2044.27832	0.38063
2042.34976	0.37813
2040.42119	0.37559
2038.49263	0.37288
2036.56406	0.37010
2034.63550	0.36742
2032.70693	0.36481
2030.77837	0.36209
2028.84980	0.35923
2026.92124	0.35645
2024.99268	0.35376
2023.06411	0.35105
2021.13555	0.34846
2019.20698	0.34612
2017.27842	0.34372
2015.34985	0.34090
2013.42129	0.33787
2011.49272	0.33502
2009.56416	0.33238
2007.63560	0.32973
2005.70703	0.32703
2003.77847	0.32440
2001.84990	0.32183
1999.92134	0.31924
1997.99277	0.31661
1996.06421	0.31411
1994.13564	0.31191
1992.20708	0.30977
1990.27852	0.30724
1988.34995	0.30448
1986.42139	0.30177
1984.49282	0.29924
1982.56426	0.29689
1980.63569	0.29467
1978.70713	0.29251
1976.77856	0.29027
1974.85000	0.28798
1972.92144	0.28573
1970.99287	0.28362
1969.06431	0.28177
1967.13574	0.27999
1965.20718	0.27783
1963.27861	0.27551
1961.35005	0.27353
1959.42148	0.27169
1957.49292	0.26980
1955.56436	0.26802
1953.63579	0.26631
1951.70723	0.26458
1949.77866	0.26288
1947.85010	0.26126
1945.92153	0.25990
1943.99297	0.25891
1942.06440	0.25777
1940.13584	0.25590
1938.20728	0.25382
1936.27871	0.25218
1934.35015	0.25088
1932.42158	0.24969
1930.49302	0.24850
1928.56445	0.24739
1926.63589	0.24640
1924.70732	0.24571
1922.77876	0.24513
1920.85020	0.24418
1918.92163	0.24317
1916.99307	0.24219
1915.06450	0.24090
1913.13594	0.23977
1911.20737	0.23921
1909.27881	0.23875
1907.35024	0.23796
1905.42168	0.23702
1903.49312	0.23622
1901.56455	0.23558
1899.63599	0.23507
1897.70742	0.23486
1895.77886	0.23479
1893.85029	0.23442
1891.92173	0.23394
1889.99316	0.23386
1888.06460	0.23359
1886.13604	0.23296
1884.20747	0.23251
1882.27891	0.23219
1880.35034	0.23191
1878.42178	0.23176
1876.49321	0.23171
1874.56465	0.23167
1872.63608	0.23190
1870.70752	0.23288
1868.77896	0.23456
1866.85039	0.23502
1864.92183	0.23390
1862.99326	0.23311
1861.06470	0.23316
1859.13613	0.23349
1857.20757	0.23372
1855.27900	0.23403
1853.35044	0.23448
1851.42187	0.23506
1849.49331	0.23588
1847.56475	0.23717
1845.63618	0.23893
1843.70762	0.24041
1841.77905	0.24048
1839.85049	0.24001
1837.92192	0.24044
1835.99336	0.24139
1834.06479	0.24233
1832.13623	0.24369
1830.20767	0.24596
1828.27910	0.24775
1826.35054	0.24846
1824.42197	0.24936
1822.49341	0.25013
1820.56484	0.25083
1818.63628	0.25202
1816.70771	0.25361
1814.77915	0.25525
1812.85059	0.25729
1810.92202	0.25981
1808.99346	0.26197
1807.06489	0.26353
1805.13633	0.26514
1803.20776	0.26753
1801.27920	0.27062
1799.35063	0.27371
1797.42207	0.27612
1795.49351	0.27858
1793.56494	0.28188
1791.63638	0.28582
1789.70781	0.28852
1787.77925	0.29014
1785.85068	0.29292
1783.92212	0.29678
1781.99355	0.30099
1780.06499	0.30523
1778.13643	0.30928
1776.20786	0.31337
1774.27930	0.31860
1772.35073	0.32568
1770.42217	0.33193
1768.49360	0.33604
1766.56504	0.34009
1764.63647	0.34490
1762.70791	0.35095
1760.77935	0.35864
1758.85078	0.36553
1756.92222	0.37249
1754.99365	0.38005
1753.06509	0.38721
1751.13652	0.39655
1749.20796	0.40818
1747.27939	0.41841
1745.35083	0.42679
1743.42227	0.43596
1741.49370	0.44635
1739.56514	0.45869
1737.63657	0.47099
1735.70801	0.48221
1733.77944	0.49961
1731.85088	0.51908
1729.92231	0.53320
1727.99375	0.54759
1726.06519	0.56368
1724.13662	0.58193
1722.20806	0.60199
1720.27949	0.62103
1718.35093	0.64410
1716.42236	0.67719
1714.49380	0.70658
1712.56523	0.72960
1710.63667	0.75249
1708.70811	0.77802
1706.77954	0.80792
1704.85098	0.84364
1702.92241	0.87497
1700.99385	0.90601
1699.06528	0.95239
1697.13672	0.99420
1695.20815	1.03578
1693.27959	1.07562
1691.35103	1.10820
1689.42246	1.14677
1687.49390	1.18771
1685.56533	1.22760
1683.63677	1.28947
1681.70820	1.35198
1679.77964	1.39034
1677.85107	1.42708
1675.92251	1.47038
1673.99395	1.52488
1672.06538	1.57385
1670.13682	1.62213
1668.20825	1.68366
1666.27969	1.73220
1664.35112	1.77356
1662.42256	1.82652
1660.49399	1.88548
1658.56543	1.93081
1656.63687	1.96888
1654.70830	2.00561
1652.77974	2.06281
1650.85117	2.11777
1648.92261	2.14027
1646.99404	2.16923
1645.06548	2.20018
1643.13691	2.21951
1641.20835	2.23099
1639.27979	2.24110
1637.35122	2.24841
1635.42266	2.25286
1633.49409	2.24811
1631.56553	2.23323
1629.63696	2.21573
1627.70840	2.18932
1625.77983	2.15821
1623.85127	2.11868
1621.92271	2.07110
1619.99414	2.02893
1618.06558	1.98703
1616.13701	1.92561
1614.20845	1.86141
1612.27988	1.81251
1610.35132	1.76232
1608.42275	1.70751
1606.49419	1.65229
1604.56562	1.60119
1602.63706	1.55229
1600.70850	1.50429
1598.77993	1.45989
1596.85137	1.41860
1594.92280	1.37894
1592.99424	1.34050
1591.06567	1.30484
1589.13711	1.27124
1587.20854	1.24005
1585.27998	1.21128
1583.35142	1.18407
1581.42285	1.15892
1579.49429	1.13783
1577.56572	1.11962
1575.63716	1.09653
1573.70859	1.07457
1571.78003	1.06046
1569.85146	1.04669
1567.92290	1.03045
1565.99434	1.01696
1564.06577	1.00594
1562.13721	0.99755
1560.20864	0.99264
1558.28008	0.98546
1556.35151	0.97611
1554.42295	0.96926
1552.49438	0.96288
1550.56582	0.95652
1548.63726	0.94933
1546.70869	0.94212
1544.78013	0.93524
1542.85156	0.92806
1540.92300	0.91742
1538.99443	0.89614
1537.06587	0.87819
1535.13730	0.86742
1533.20874	0.85502
1531.28018	0.84088
1529.35161	0.83034
1527.42305	0.82139
1525.49448	0.81244
1523.56592	0.80476
1521.63735	0.79710
1519.70879	0.78787
1517.78022	0.77965
1515.85166	0.77059
1513.92310	0.76094
1511.99453	0.75334
1510.06597	0.74807
1508.13740	0.74456
1506.20884	0.73556
1504.28027	0.72337
1502.35171	0.71644
1500.42314	0.71190
1498.49458	0.70790
1496.56602	0.70280
1494.63745	0.69659
1492.70889	0.69175
1490.78032	0.68878
1488.85176	0.68553
1486.92319	0.68045
1484.99463	0.67522
1483.06606	0.67129
1481.13750	0.66841
1479.20894	0.66613
1477.28037	0.66480
1475.35181	0.66449
1473.42324	0.66417
1471.49468	0.66117
1469.56611	0.65653
1467.63755	0.65332
1465.70898	0.65162
1463.78042	0.65004
1461.85186	0.64845
1459.92329	0.64821
1457.99473	0.64928
1456.06616	0.64831
1454.13760	0.64439
1452.20903	0.64092
1450.28047	0.63827
1448.35190	0.63634
1446.42334	0.63433
1444.49478	0.63188
1442.56621	0.62959
1440.63765	0.62776
1438.70908	0.62654
1436.78052	0.62529
1434.85195	0.62273
1432.92339	0.61995
1430.99482	0.61821
1429.06626	0.61708
1427.13770	0.61600
1425.20913	0.61529
1423.28057	0.61504
1421.35200	0.61505
1419.42344	0.61535
1417.49487	0.61465
1415.56631	0.61251
1413.63774	0.61068
1411.70918	0.60959
1409.78062	0.60896
1407.85205	0.60876
1405.92349	0.60906
1403.99492	0.60921
1402.06636	0.60872
1400.13779	0.60819
1398.20923	0.60753
1396.28066	0.60617
1394.35210	0.60372
1392.42354	0.60037
1390.49497	0.59742
1388.56641	0.59527
1386.63784	0.59280
1384.70928	0.58940
1382.78071	0.58607
1380.85215	0.58338
1378.92358	0.58125
1376.99502	0.57971
1375.06646	0.57888
1373.13789	0.57789
1371.20933	0.57631
1369.28076	0.57502
1367.35220	0.57398
1365.42363	0.57295
1363.49507	0.57221
1361.56650	0.57128
1359.63794	0.56965
1357.70937	0.56807
1355.78081	0.56695
1353.85225	0.56608
1351.92368	0.56532
1349.99512	0.56472
1348.06655	0.56412
1346.13799	0.56335
1344.20942	0.56258
1342.28086	0.56217
1340.35229	0.56225
1338.42373	0.56191
1336.49517	0.56059
1334.56660	0.55914
1332.63804	0.55827
1330.70947	0.55790
1328.78091	0.55764
1326.85234	0.55740
1324.92378	0.55732
1322.99521	0.55740
1321.06665	0.55753
1319.13809	0.55754
1317.20952	0.55719
1315.28096	0.55669
1313.35239	0.55628
1311.42383	0.55571
1309.49526	0.55488
1307.56670	0.55398
1305.63813	0.55327
1303.70957	0.55270
1301.78101	0.55202
1299.85244	0.55119
1297.92388	0.55039
1295.99531	0.54962
1294.06675	0.54877
1292.13818	0.54794
1290.20962	0.54726
1288.28105	0.54664
1286.35249	0.54594
1284.42393	0.54505
1282.49536	0.54405
1280.56680	0.54322
1278.63823	0.54257
1276.70967	0.54186
1274.78110	0.54111
1272.85254	0.54064
1270.92397	0.54025
1268.99541	0.53959
1267.06685	0.53884
1265.13828	0.53822
1263.20972	0.53776
1261.28115	0.53747
1259.35259	0.53710
1257.42402	0.53648
1255.49546	0.53600
1253.56689	0.53593
1251.63833	0.53596
1249.70977	0.53589
1247.78120	0.53570
1245.85264	0.53547
1243.92407	0.53517
1241.99551	0.53459
1240.06694	0.53375
1238.13838	0.53288
1236.20981	0.53183
1234.28125	0.53053
1232.35269	0.52925
1230.42412	0.52809
1228.49556	0.52707
1226.56699	0.52606
1224.63843	0.52494
1222.70986	0.52389
1220.78130	0.52296
1218.85273	0.52196
1216.92417	0.52103
1214.99561	0.52037
1213.06704	0.51977
1211.13848	0.51914
1209.20991	0.51851
1207.28135	0.51786
1205.35278	0.51720
1203.42422	0.51652
1201.49565	0.51582
1199.56709	0.51513
1197.63853	0.51447
1195.70996	0.51393
1193.78140	0.51358
1191.85283	0.51328
1189.92427	0.51298
1187.99570	0.51277
1186.06714	0.51263
1184.13857	0.51249
1182.21001	0.51248
1180.28145	0.51289
1178.35288	0.51364
1176.42432	0.51429
1174.49575	0.51474
1172.56719	0.51508
1170.63862	0.51517
1168.71006	0.51498
1166.78149	0.51484
1164.85293	0.51479
1162.92437	0.51459
1160.99580	0.51432
1159.06724	0.51407
1157.13867	0.51361
1155.21011	0.51273
1153.28154	0.51148
1151.35298	0.50996
1149.42441	0.50823
1147.49585	0.50627
1145.56729	0.50410
1143.63872	0.50195
1141.71016	0.49986
1139.78159	0.49773
1137.85303	0.49573
1135.92446	0.49407
1133.99590	0.49266
1132.06733	0.49138
1130.13877	0.49032
1128.21021	0.48931
1126.28164	0.48808
1124.35308	0.48704
1122.42451	0.48643
1120.49595	0.48575
1118.56738	0.48501
1116.63882	0.48463
1114.71025	0.48462
1112.78169	0.48491
1110.85312	0.48561
1108.92456	0.48652
1106.99600	0.48733
1105.06743	0.48821
1103.13887	0.48954
1101.21030	0.49134
1099.28174	0.49328
1097.35317	0.49552
1095.42461	0.49853
1093.49604	0.50229
1091.56748	0.50647
1089.63892	0.51126
1087.71035	0.51707
1085.78179	0.52364
1083.85322	0.53044
1081.92466	0.53690
1079.99609	0.54207
1078.06753	0.54511
1076.13896	0.54566
1074.21040	0.54369
1072.28184	0.53953
1070.35327	0.53374
1068.42471	0.52702
1066.49614	0.52013
1064.56758	0.51381
1062.63901	0.50831
1060.71045	0.50330
1058.78188	0.49862
1056.85332	0.49440
1054.92476	0.49073
1052.99619	0.48775
1051.06763	0.48551
1049.13906	0.48375
1047.21050	0.48207
1045.28193	0.48056
1043.35337	0.47937
1041.42480	0.47834
1039.49624	0.47732
1037.56768	0.47652
1035.63911	0.47619
1033.71055	0.47613
1031.78198	0.47599
1029.85342	0.47583
1027.92485	0.47584
1025.99629	0.47586
1024.06772	0.47578
1022.13916	0.47585
1020.21060	0.47644
1018.28203	0.47745
1016.35347	0.47846
1014.42490	0.47937
1012.49634	0.48037
1010.56777	0.48162
1008.63921	0.48309
1006.71064	0.48481
1004.78208	0.48669
1002.85352	0.48874
1000.92495	0.49113
998.99639	0.49409
997.06782	0.49787
995.13926	0.50216
993.21069	0.50622
991.28213	0.50974
989.35356	0.51254
987.42500	0.51430
985.49644	0.51514
983.56787	0.51583
981.63931	0.51684
979.71074	0.51812
977.78218	0.51957
975.85361	0.52139
973.92505	0.52387
971.99648	0.52699
970.06792	0.53039
968.13936	0.53415
966.21079	0.53852
964.28223	0.54333
962.35366	0.54822
960.42510	0.55309
958.49653	0.55833
956.56797	0.56396
954.63940	0.56970
952.71084	0.57568
950.78228	0.58201
948.85371	0.58853
946.92515	0.59506
944.99658	0.60142
943.06802	0.60765
941.13945	0.61379
939.21089	0.61960
937.28232	0.62482
935.35376	0.62974
933.42520	0.63489
931.49663	0.64060
929.56807	0.64654
927.63950	0.65211
925.71094	0.65790
923.78237	0.66443
921.85381	0.67073
919.92524	0.67685
917.99668	0.68322
916.06812	0.68965
914.13955	0.69682
912.21099	0.70487
910.28242	0.71308
908.35386	0.72108
906.42529	0.72926
904.49673	0.73827
902.56816	0.74783
900.63960	0.75695
898.71104	0.76571
896.78247	0.77532
894.85391	0.78554
892.92534	0.79541
890.99678	0.80484
889.06821	0.81400
887.13965	0.82427
885.21108	0.83624
883.28252	0.84894
881.35396	0.86142
879.42539	0.87252
877.49683	0.88198
875.56826	0.89158
873.63970	0.90254
871.71113	0.91418
869.78257	0.92578
867.85400	0.93760
865.92544	0.94939
863.99687	0.96050
862.06831	0.97122
860.13975	0.98254
858.21118	0.99473
856.28262	1.00634
854.35405	1.01708
852.42549	1.02872
850.49692	1.04191
848.56836	1.05500
846.63979	1.06618
844.71123	1.07561
842.78267	1.08472
840.85410	1.09546
838.92554	1.10804
836.99697	1.12095
835.06841	1.13401
833.13984	1.14666
831.21128	1.15675
829.28271	1.16529
827.35415	1.17520
825.42559	1.18494
823.49702	1.19532
821.56846	1.21022
819.63989	1.22767
817.71133	1.24148
815.78276	1.24583
813.85420	1.25103
811.92563	1.26919
809.99707	1.28131
808.06851	1.27890
806.13994	1.28387
804.21138	1.30193
802.28281	1.32830
800.35425	1.35638
798.42568	1.37220
796.49712	1.35438
794.56855	1.31791
792.63999	1.31545
790.71143	1.35704
788.78286	1.39985
786.85430	1.40486
784.92573	1.40671
782.99717	1.46383
781.06860	1.56654
779.14004	1.60299
777.21147	1.56292
775.28291	1.51174
773.35435	1.42386
771.42578	1.33545
769.49722	1.29329
767.56865	1.27607
765.64009	1.27027
763.71152	1.33519
761.78296	1.51688
759.85439	1.69850
757.92583	1.63311
755.99727	1.45171
754.06870	1.27074
752.14014	1.20403
750.21157	1.48257
748.28301	4.48970
746.35444	4.47813
744.42588	4.46656
742.49731	1.53999
740.56875	1.45432
738.64019	4.43184
736.71162	4.42027
734.78306	4.40870
732.85449	0.95555
730.92593	0.90577
728.99736	1.03802
727.06880	0.68392
725.14023	0.40622
723.21167	0.33338
721.28311	0.36264
719.35454	0.43868
717.42598	0.57241
715.49741	0.65836
713.56885	4.28141
711.64028	4.26984
709.71172	0.59126
707.78315	0.19157
705.85459	0.33406
703.92603	0.45416
701.99746	0.39730
700.06890	0.31541
698.14033	0.28893
696.21177	0.29039
694.28320	0.32380
692.35464	0.45158
690.42607	0.67507
688.49751	0.73162
686.56895	0.81723
684.64038	1.19629
682.71182	1.16647
680.78325	0.67218
678.85469	0.50766
676.92612	0.47236
674.99756	0.46613
673.06899	0.44939
671.14043	0.38386
669.21187	0.28934
667.28330	0.19029
665.35474	0.14522
663.42617	0.26085
661.49761	0.38433
659.56904	0.25940
657.64048	0.27104
655.71191	0.49608
653.78335	0.40366
651.85479	0.19718
649.92622	0.14311
647.99766	0.17665
646.06909	0.26554
644.14053	0.37402
642.21196	0.40411
640.28340	0.37036
638.35483	0.39757
636.42627	0.44085
634.49771	0.37693
632.56914	0.33580
630.64058	0.28454
628.71201	0.16722
626.78345	0.16386
624.85488	0.29034
622.92632	0.31005
620.99775	0.14659
619.06919	0.06580
617.14062	0.13833
615.21206	0.26835
613.28350	0.43125
611.35493	0.73835
609.42637	0.85197
607.49780	0.51464
605.56924	0.31539
603.64067	0.22422
601.71211	0.22904
599.78354	0.31793
597.85498	0.38003
595.92642	0.34343
593.99785	0.30022
592.06929	0.31988
590.14072	0.34996
588.21216	0.34989
586.28359	0.29252
584.35503	0.17871
582.42646	0.11508
580.49790	0.17841
578.56934	0.36755
576.64077	0.43060
574.71221	0.26462
572.78364	0.16076
570.85508	0.20875
568.92651	0.45806
566.99795	1.48591
565.06938	0.73874
563.14082	0.48104
561.21226	0.45807
559.28369	0.45617
557.35513	0.36389
555.42656	0.27058
553.49800	0.26606
551.56943	0.34168
549.64087	0.34031
547.71230	0.25451
545.78374	0.17789
543.85518	0.16288
541.92661	0.24396
539.99805	0.37850
538.06948	0.37930
536.14092	0.28958
534.21235	0.24616
532.28379	0.21711
530.35522	0.21140
528.42666	0.25626
526.49810	0.29813
524.56953	0.30727
522.64097	0.28642
520.71240	0.25406
518.78384	0.25023
516.85527	0.21885
514.92671	0.21216
512.99814	0.24105
511.06958	0.23812
509.14102	0.26444
507.21245	0.32408
505.28389	0.22512
503.35532	0.16778
501.42676	0.20231
499.49819	0.22355
