3997.91411	0.06744
3995.98555	0.06818
3994.05698	0.06838
3992.12842	0.06822
3990.19985	0.06859
3988.27129	0.06927
3986.34272	0.06939
3984.41416	0.06923
3982.48560	0.06946
3980.55703	0.06985
3978.62847	0.07026
3976.69990	0.07104
3974.77134	0.07188
3972.84277	0.07218
3970.91421	0.07189
3968.98564	0.07140
3967.05708	0.07134
3965.12852	0.07176
3963.19995	0.07219
3961.27139	0.07247
3959.34282	0.07248
3957.41426	0.07235
3955.48569	0.07237
3953.55713	0.07259
3951.62856	0.07323
3949.70000	0.07434
3947.77144	0.07510
3945.84287	0.07503
3943.91431	0.07504
3941.98574	0.07519
3940.05718	0.07434
3938.12861	0.07317
3936.20005	0.07285
3934.27148	0.07349
3932.34292	0.07487
3930.41436	0.07584
3928.48579	0.07551
3926.55723	0.07504
3924.62866	0.07546
3922.70010	0.07597
3920.77153	0.07591
3918.84297	0.07599
3916.91440	0.07611
3914.98584	0.07500
3913.05728	0.07295
3911.12871	0.07156
3909.20015	0.07148
3907.27158	0.07299
3905.34302	0.07649
3903.41445	0.08105
3901.48589	0.08336
3899.55732	0.08228
3897.62876	0.07934
3895.70020	0.07624
3893.77163	0.07517
3891.84307	0.07646
3889.91450	0.07709
3887.98594	0.07613
3886.05737	0.07704
3884.12881	0.07964
3882.20024	0.08086
3880.27168	0.08081
3878.34312	0.07924
3876.41455	0.07753
3874.48599	0.07854
3872.55742	0.08122
3870.62886	0.08327
3868.70029	0.08386
3866.77173	0.08287
3864.84316	0.08287
3862.91460	0.08365
3860.98604	0.08215
3859.05747	0.08012
3857.12891	0.08076
3855.20034	0.08465
3853.27178	0.09066
3851.34321	0.09192
3849.41465	0.08645
3847.48608	0.08198
3845.55752	0.08073
3843.62896	0.08263
3841.70039	0.08657
3839.77183	0.09096
3837.84326	0.09457
3835.91470	0.09492
3833.98613	0.09239
3832.05757	0.09025
3830.12900	0.08946
3828.20044	0.08957
3826.27187	0.09050
3824.34331	0.09199
3822.41475	0.09469
3820.48618	0.09885
3818.55762	0.10035
3816.62905	0.09931
3814.70049	0.09780
3812.77192	0.09521
3810.84336	0.09366
3808.91479	0.09480
3806.98623	0.09826
3805.05767	0.10149
3803.12910	0.10385
3801.20054	0.10772
3799.27197	0.11026
3797.34341	0.10956
3795.41484	0.10818
3793.48628	0.10599
3791.55771	0.10434
3789.62915	0.10463
3787.70059	0.10640
3785.77202	0.10914
3783.84346	0.11165
3781.91489	0.11293
3779.98633	0.11475
3778.05776	0.11744
3776.12920	0.11833
3774.20063	0.11822
3772.27207	0.11946
3770.34351	0.12266
3768.41494	0.12639
3766.48638	0.12867
3764.55781	0.13028
3762.62925	0.13198
3760.70068	0.13480
3758.77212	0.13919
3756.84355	0.14246
3754.91499	0.14434
3752.98643	0.14872
3751.05786	0.15723
3749.12930	0.16418
3747.20073	0.16501
3745.27217	0.16606
3743.34360	0.16902
3741.41504	0.17041
3739.48647	0.17179
3737.55791	0.17619
3735.62935	0.18422
3733.70078	0.19203
3731.77222	0.19441
3729.84365	0.19457
3727.91509	0.19693
3725.98652	0.20283
3724.05796	0.21053
3722.12939	0.21741
3720.20083	0.22348
3718.27227	0.22940
3716.34370	0.23570
3714.41514	0.24342
3712.48657	0.25509
3710.55801	0.27155
3708.62944	0.28527
3706.70088	0.29393
3704.77231	0.30345
3702.84375	0.31679
3700.91519	0.33434
3698.98662	0.35225
3697.05806	0.36904
3695.12949	0.38793
3693.20093	0.40923
3691.27236	0.43381
3689.34380	0.46528
3687.41523	0.49995
3685.48667	0.52750
3683.55811	0.55182
3681.62954	0.58004
3679.70098	0.61374
3677.77241	0.65029
3675.84385	0.69310
3673.91528	0.74767
3671.98672	0.79000
3670.05815	0.82828
3668.12959	0.88122
3666.20103	0.92755
3664.27246	0.96633
3662.34390	1.01006
3660.41533	1.05847
3658.48677	1.10645
3656.55820	1.15739
3654.62964	1.21359
3652.70107	1.26118
3650.77251	1.30475
3648.84395	1.36587
3646.91538	1.43627
3644.98682	1.48328
3643.05825	1.51968
3641.12969	1.55908
3639.20112	1.60280
3637.27256	1.64712
3635.34399	1.69176
3633.41543	1.73662
3631.48687	1.77817
3629.55830	1.82186
3627.62974	1.87921
3625.70117	1.92942
3623.77261	1.96150
3621.84404	1.99308
3619.91548	2.03115
3617.98691	2.07813
3616.05835	2.12343
3614.12979	2.16180
3612.20122	2.20123
3610.27266	2.23942
3608.34409	2.27864
3606.41553	2.32152
3604.48696	2.36136
3602.55840	2.39686
3600.62983	2.43481
3598.70127	2.47591
3596.77271	2.51569
3594.84414	2.55460
3592.91558	2.59366
3590.98701	2.63169
3589.05845	2.66977
3587.12988	2.71607
3585.20132	2.76564
3583.27275	2.80594
3581.34419	2.84292
3579.41562	2.88357
3577.48706	2.92663
3575.55850	2.96982
3573.62993	3.01324
3571.70137	3.05384
3569.77280	3.09404
3567.84424	3.14077
3565.91567	3.19736
3563.98711	3.24624
3562.05854	3.28202
3560.12998	3.31979
3558.20142	3.36313
3556.27285	3.40880
3554.34429	3.45511
3552.41572	3.50286
3550.48716	3.54947
3548.55859	3.59317
3546.63003	3.63610
3544.70146	3.68252
3542.77290	3.73316
3540.84434	3.78319
3538.91577	3.82855
3536.98721	3.87106
3535.05864	3.91798
3533.13008	3.96728
3531.20151	4.01608
3529.27295	4.06596
3527.34438	4.11546
3525.41582	4.16167
3523.48726	4.20719
3521.55869	4.25556
3519.63013	4.30296
3517.70156	4.35094
3515.77300	4.40169
3513.84443	4.44930
3511.91587	4.49270
3509.98730	4.54023
3508.05874	4.59174
3506.13018	4.63960
3504.20161	4.68659
3502.27305	4.73730
3500.34448	4.78771
3498.41592	4.83455
3496.48735	4.88021
3494.55879	4.92648
3492.63022	4.97483
3490.70166	5.02413
3488.77310	5.07203
3486.84453	5.12013
3484.91597	5.17142
3482.98740	5.22234
3481.05884	5.26734
3479.13027	5.30928
3477.20171	5.35675
3475.27314	5.40937
3473.34458	5.45652
3471.41602	5.49566
3469.48745	5.53661
3467.55889	5.58634
3465.63032	5.64122
3463.70176	5.69754
3461.77319	5.75222
3459.84463	5.80211
3457.91606	5.84942
3455.98750	5.89807
3454.05894	5.94788
3452.13037	5.99434
3450.20181	6.03704
3448.27324	6.08644
3446.34468	6.15088
3444.41611	6.21833
3442.48755	6.27637
3440.55898	6.31665
3438.63042	6.34722
3436.70186	6.38066
3434.77329	6.41289
3432.84473	6.45571
3430.91616	6.52078
3428.98760	6.58660
3427.05903	6.63962
3425.13047	6.69670
3423.20190	6.73617
3421.27334	6.76034
3419.34478	6.80486
3417.41621	6.85159
3415.48765	6.89982
3413.55908	6.97055
3411.63052	7.03929
3409.70195	7.08661
3407.77339	7.14440
3405.84482	7.20226
3403.91626	7.22772
3401.98770	7.21811
3400.05913	7.19721
3398.13057	7.22026
3396.20200	7.29780
3394.27344	7.37014
3392.34487	7.39649
3390.41631	7.40227
3388.48774	7.41973
3386.55918	7.48484
3384.63062	7.55377
3382.70205	7.57204
3380.77349	7.59365
3378.84492	7.64718
3376.91636	7.72644
3374.98779	7.81422
3373.05923	7.85537
3371.13066	7.82982
3369.20210	7.81643
3367.27354	7.83806
3365.34497	7.87249
3363.41641	7.90133
3361.48784	7.91022
3359.55928	7.90509
3357.63071	7.86736
3355.70215	7.84478
3353.77358	7.88031
3351.84502	7.93282
3349.91646	7.95274
3347.98789	7.97134
3346.05933	7.99366
3344.13076	7.99193
3342.20220	7.97684
3340.27363	7.95331
3338.34507	7.96928
3336.41650	8.01675
3334.48794	8.04799
3332.55937	8.09853
3330.63081	8.19068
3328.70225	8.17469
3326.77368	8.05257
3324.84512	8.02859
3322.91655	8.09257
3320.98799	8.14997
3319.05942	8.21928
3317.13086	8.29860
3315.20229	8.27760
3313.27373	8.17655
3311.34517	8.09772
3309.41660	8.06267
3307.48804	8.06739
3305.55947	8.11354
3303.63091	8.13837
3301.70234	8.07783
3299.77378	8.06578
3297.84521	8.15484
3295.91665	8.25057
3293.98809	8.28687
3292.05952	8.27717
3290.13096	8.24473
3288.20239	8.19855
3286.27383	8.22080
3284.34526	8.30888
3282.41670	8.39815
3280.48813	8.47764
3278.55957	8.47877
3276.63101	8.32425
3274.70244	8.17332
3272.77388	8.15566
3270.84531	8.19153
3268.91675	8.19949
3266.98818	8.14944
3265.05962	8.08286
3263.13105	8.11316
3261.20249	8.19017
3259.27393	8.13916
3257.34536	8.08522
3255.41680	8.12376
3253.48823	8.10073
3251.55967	8.03581
3249.63110	8.07794
3247.70254	8.22324
3245.77397	8.28601
3243.84541	8.20181
3241.91685	8.14337
3239.98828	8.17982
3238.05972	8.19342
3236.13115	8.13002
3234.20259	8.11382
3232.27402	8.13911
3230.34546	8.09789
3228.41689	8.05494
3226.48833	8.06592
3224.55977	8.04908
3222.63120	8.01912
3220.70264	8.01176
3218.77407	7.94303
3216.84551	7.80626
3214.91694	7.73128
3212.98838	7.77658
3211.05981	7.85607
3209.13125	7.89471
3207.20269	7.87679
3205.27412	7.79798
3203.34556	7.72723
3201.41699	7.70510
3199.48843	7.70218
3197.55986	7.69203
3195.63130	7.62900
3193.70273	7.51444
3191.77417	7.42311
3189.84561	7.38619
3187.91704	7.37972
3185.98848	7.36652
3184.05991	7.33861
3182.13135	7.29744
3180.20278	7.22405
3178.27422	7.13914
3176.34565	7.07920
3174.41709	7.03256
3172.48853	6.97613
3170.55996	6.90914
3168.63140	6.84275
3166.70283	6.77771
3164.77427	6.71316
3162.84570	6.66345
3160.91714	6.61795
3158.98857	6.54752
3157.06001	6.46604
3155.13145	6.40376
3153.20288	6.35594
3151.27432	6.30127
3149.34575	6.23052
3147.41719	6.16268
3145.48862	6.10867
3143.56006	6.04791
3141.63149	5.97064
3139.70293	5.88599
3137.77437	5.80652
3135.84580	5.73335
3133.91724	5.66142
3131.98867	5.59286
3130.06011	5.52745
3128.13154	5.46079
3126.20298	5.39299
3124.27441	5.32473
3122.34585	5.25076
3120.41729	5.17233
3118.48872	5.09698
3116.56016	5.02923
3114.63159	4.96753
3112.70303	4.90704
3110.77446	4.84183
3108.84590	4.76722
3106.91733	4.69228
3104.98877	4.62623
3103.06021	4.56277
3101.13164	4.49724
3099.20308	4.43498
3097.27451	4.37465
3095.34595	4.30889
3093.41738	4.23949
3091.48882	4.17280
3089.56025	4.11174
3087.63169	4.05400
3085.70312	3.99424
3083.77456	3.93144
3081.84600	3.86925
3079.91743	3.80989
3077.98887	3.75186
3076.06030	3.69368
3074.13174	3.63744
3072.20317	3.58344
3070.27461	3.52921
3068.34604	3.47433
3066.41748	3.41875
3064.48892	3.36257
3062.56035	3.30687
3060.63179	3.25304
3058.70322	3.20140
3056.77466	3.15023
3054.84609	3.09829
3052.91753	3.04681
3050.98896	2.99757
3049.06040	2.94936
3047.13184	2.90013
3045.20327	2.85092
3043.27471	2.80309
3041.34614	2.75636
3039.41758	2.71052
3037.48901	2.66492
3035.56045	2.61905
3033.63188	2.57411
3031.70332	2.53065
3029.77476	2.48745
3027.84619	2.44420
3025.91763	2.40207
3023.98906	2.36108
3022.06050	2.32007
3020.13193	2.27933
3018.20337	2.24000
3016.27480	2.20165
3014.34624	2.16367
3012.41768	2.12621
3010.48911	2.08877
3008.56055	2.05157
3006.63198	2.01585
3004.70342	1.98146
3002.77485	1.94728
3000.84629	1.91337
2998.91772	1.88050
2996.98916	1.84861
2995.06060	1.81732
2993.13203	1.78651
2991.20347	1.75658
2989.27490	1.72762
2987.34634	1.69908
2985.41777	1.67096
2983.48921	1.64318
2981.56064	1.61557
2979.63208	1.58877
2977.70352	1.56294
2975.77495	1.53764
2973.84639	1.51283
2971.91782	1.48866
2969.98926	1.46508
2968.06069	1.44176
2966.13213	1.41883
2964.20356	1.39648
2962.27500	1.37390
2960.34644	1.35065
2958.41787	1.32699
2956.48931	1.30300
2954.56074	1.27903
2952.63218	1.25542
2950.70361	1.23213
2948.77505	1.20947
2946.84648	1.18803
2944.91792	1.16755
2942.98936	1.14718
2941.06079	1.12646
2939.13223	1.10595
2937.20366	1.08660
2935.27510	1.06806
2933.34653	1.04911
2931.41797	1.02978
2929.48940	1.01073
2927.56084	0.99192
2925.63228	0.97370
2923.70371	0.95646
2921.77515	0.93918
2919.84658	0.92140
2917.91802	0.90417
2915.98945	0.88745
2914.06089	0.87049
2912.13232	0.85410
2910.20376	0.83897
2908.27520	0.82435
2906.34663	0.80973
2904.41807	0.79533
2902.48950	0.78137
2900.56094	0.76764
2898.63237	0.75415
2896.70381	0.74125
2894.77524	0.72902
2892.84668	0.71714
2890.91812	0.70534
2888.98955	0.69389
2887.06099	0.68309
2885.13242	0.67285
2883.20386	0.66280
2881.27529	0.65291
2879.34673	0.64335
2877.41816	0.63397
2875.48960	0.62447
2873.56104	0.61469
2871.63247	0.60465
2869.70391	0.59430
2867.77534	0.58339
2865.84678	0.57204
2863.91821	0.56078
2861.98965	0.54982
2860.06108	0.53918
2858.13252	0.52895
2856.20396	0.51922
2854.27539	0.51008
2852.34683	0.50138
2850.41826	0.49292
2848.48970	0.48474
2846.56113	0.47703
2844.63257	0.46973
2842.70400	0.46261
2840.77544	0.45568
2838.84687	0.44929
2836.91831	0.44363
2834.98975	0.43822
2833.06118	0.43257
2831.13262	0.42671
2829.20405	0.42078
2827.27549	0.41487
2825.34692	0.40908
2823.41836	0.40337
2821.48979	0.39764
2819.56123	0.39185
2817.63267	0.38613
2815.70410	0.38068
2813.77554	0.37532
2811.84697	0.36994
2809.91841	0.36464
2807.98984	0.35937
2806.06128	0.35415
2804.13271	0.34908
2802.20415	0.34417
2800.27559	0.33943
2798.34702	0.33476
2796.41846	0.33026
2794.48989	0.32592
2792.56133	0.32146
2790.63276	0.31682
2788.70420	0.31221
2786.77563	0.30778
2784.84707	0.30354
2782.91851	0.29948
2780.98994	0.29551
2779.06138	0.29159
2777.13281	0.28769
2775.20425	0.28393
2773.27568	0.28038
2771.34712	0.27682
2769.41855	0.27315
2767.48999	0.26958
2765.56143	0.26613
2763.63286	0.26263
2761.70430	0.25916
2759.77573	0.25585
2757.84717	0.25267
2755.91860	0.24972
2753.99004	0.24703
2752.06147	0.24427
2750.13291	0.24124
2748.20435	0.23816
2746.27578	0.23525
2744.34722	0.23256
2742.41865	0.22996
2740.49009	0.22745
2738.56152	0.22499
2736.63296	0.22244
2734.70439	0.21979
2732.77583	0.21723
2730.84727	0.21480
2728.91870	0.21253
2726.99014	0.21036
2725.06157	0.20825
2723.13301	0.20622
2721.20444	0.20412
2719.27588	0.20191
2717.34731	0.19990
2715.41875	0.19809
2713.49019	0.19634
2711.56162	0.19474
2709.63306	0.19316
2707.70449	0.19142
2705.77593	0.18960
2703.84736	0.18781
2701.91880	0.18618
2699.99023	0.18475
2698.06167	0.18345
2696.13311	0.18221
2694.20454	0.18096
2692.27598	0.17957
2690.34741	0.17809
2688.41885	0.17673
2686.49028	0.17553
2684.56172	0.17437
2682.63315	0.17332
2680.70459	0.17234
2678.77603	0.17131
2676.84746	0.17020
2674.91890	0.16903
2672.99033	0.16782
2671.06177	0.16669
2669.13320	0.16571
2667.20464	0.16475
2665.27607	0.16393
2663.34751	0.16331
2661.41895	0.16260
2659.49038	0.16166
2657.56182	0.16077
2655.63325	0.16005
2653.70469	0.15940
2651.77612	0.15874
2649.84756	0.15810
2647.91899	0.15749
2645.99043	0.15695
2644.06187	0.15641
2642.13330	0.15586
2640.20474	0.15528
2638.27617	0.15466
2636.34761	0.15410
2634.41904	0.15368
2632.49048	0.15337
2630.56191	0.15301
2628.63335	0.15253
2626.70479	0.15195
2624.77622	0.15146
2622.84766	0.15131
2620.91909	0.15142
2618.99053	0.15136
2617.06196	0.15109
2615.13340	0.15090
2613.20483	0.15074
2611.27627	0.15041
2609.34771	0.15008
2607.41914	0.14995
2605.49058	0.14983
2603.56201	0.14964
2601.63345	0.14958
2599.70488	0.14972
2597.77632	0.14989
2595.84775	0.14994
2593.91919	0.14994
2591.99062	0.14995
2590.06206	0.14999
2588.13350	0.15013
2586.20493	0.15042
2584.27637	0.15073
2582.34780	0.15088
2580.41924	0.15099
2578.49067	0.15120
2576.56211	0.15137
2574.63354	0.15146
2572.70498	0.15167
2570.77642	0.15211
2568.84785	0.15261
2566.91929	0.15295
2564.99072	0.15321
2563.06216	0.15359
2561.13359	0.15406
2559.20503	0.15452
2557.27646	0.15492
2555.34790	0.15530
2553.41934	0.15575
2551.49077	0.15622
2549.56221	0.15662
2547.63364	0.15712
2545.70508	0.15776
2543.77651	0.15840
2541.84795	0.15907
2539.91938	0.15977
2537.99082	0.16043
2536.06226	0.16099
2534.13369	0.16145
2532.20513	0.16190
2530.27656	0.16248
2528.34800	0.16317
2526.41943	0.16380
2524.49087	0.16441
2522.56230	0.16507
2520.63374	0.16574
2518.70518	0.16646
2516.77661	0.16727
2514.84805	0.16801
2512.91948	0.16857
2510.99092	0.16918
2509.06235	0.17000
2507.13379	0.17094
2505.20522	0.17186
2503.27666	0.17282
2501.34810	0.17372
2499.41953	0.17445
2497.49097	0.17515
2495.56240	0.17597
2493.63384	0.17676
2491.70527	0.17754
2489.77671	0.17851
2487.84814	0.17951
2485.91958	0.18029
2483.99102	0.18088
2482.06245	0.18150
2480.13389	0.18233
2478.20532	0.18324
2476.27676	0.18410
2474.34819	0.18497
2472.41963	0.18582
2470.49106	0.18665
2468.56250	0.18749
2466.63394	0.18839
2464.70537	0.18933
2462.77681	0.19028
2460.84824	0.19126
2458.91968	0.19222
2456.99111	0.19309
2455.06255	0.19397
2453.13398	0.19491
2451.20542	0.19578
2449.27686	0.19668
2447.34829	0.19776
2445.41973	0.19891
2443.49116	0.19997
2441.56260	0.20084
2439.63403	0.20167
2437.70547	0.20265
2435.77690	0.20374
2433.84834	0.20483
2431.91978	0.20580
2429.99121	0.20673
2428.06265	0.20770
2426.13408	0.20862
2424.20552	0.20949
2422.27695	0.21043
2420.34839	0.21160
2418.41982	0.21299
2416.49126	0.21427
2414.56270	0.21532
2412.63413	0.21635
2410.70557	0.21740
2408.77700	0.21849
2406.84844	0.21965
2404.91987	0.22080
2402.99131	0.22187
2401.06274	0.22297
2399.13418	0.22416
2397.20562	0.22543
2395.27705	0.22671
2393.34849	0.22797
2391.41992	0.22927
2389.49136	0.23060
2387.56279	0.23198
2385.63423	0.23365
2383.70566	0.23576
2381.77710	0.23831
2379.84854	0.24122
2377.91997	0.24438
2375.99141	0.24769
2374.06284	0.25117
2372.13428	0.25483
2370.20571	0.25881
2368.27715	0.26319
2366.34858	0.26790
2364.42002	0.27220
2362.49146	0.27513
2360.56289	0.27709
2358.63433	0.27874
2356.70576	0.27922
2354.77720	0.27822
2352.84863	0.27680
2350.92007	0.27497
2348.99150	0.27371
2347.06294	0.27466
2345.13437	0.27816
2343.20581	0.28226
2341.27725	0.28469
2339.34868	0.28600
2337.42012	0.28745
2335.49155	0.28907
2333.56299	0.29024
2331.63442	0.29135
2329.70586	0.29262
2327.77729	0.29366
2325.84873	0.29410
2323.92017	0.29426
2321.99160	0.29471
2320.06304	0.29519
2318.13447	0.29559
2316.20591	0.29618
2314.27734	0.29702
2312.34878	0.29822
2310.42021	0.29957
2308.49165	0.30060
2306.56309	0.30138
2304.63452	0.30232
2302.70596	0.30349
2300.77739	0.30480
2298.84883	0.30608
2296.92026	0.30735
2294.99170	0.30870
2293.06313	0.31010
2291.13457	0.31154
2289.20601	0.31299
2287.27744	0.31450
2285.34888	0.31623
2283.42031	0.31812
2281.49175	0.32003
2279.56318	0.32202
2277.63462	0.32404
2275.70605	0.32605
2273.77749	0.32812
2271.84893	0.33023
2269.92036	0.33231
2267.99180	0.33437
2266.06323	0.33646
2264.13467	0.33851
2262.20610	0.34049
2260.27754	0.34244
2258.34897	0.34445
2256.42041	0.34654
2254.49185	0.34864
2252.56328	0.35065
2250.63472	0.35263
2248.70615	0.35475
2246.77759	0.35703
2244.84902	0.35926
2242.92046	0.36137
2240.99189	0.36352
2239.06333	0.36573
2237.13477	0.36786
2235.20620	0.36986
2233.27764	0.37193
2231.34907	0.37415
2229.42051	0.37648
2227.49194	0.37878
2225.56338	0.38096
2223.63481	0.38300
2221.70625	0.38500
2219.77769	0.38710
2217.84912	0.38932
2215.92056	0.39166
2213.99199	0.39401
2212.06343	0.39618
2210.13486	0.39814
2208.20630	0.40011
2206.27773	0.40216
2204.34917	0.40424
2202.42061	0.40631
2200.49204	0.40833
2198.56348	0.41025
2196.63491	0.41214
2194.70635	0.41406
2192.77778	0.41596
2190.84922	0.41782
2188.92065	0.41967
2186.99209	0.42148
2185.06353	0.42320
2183.13496	0.42489
2181.20640	0.42665
2179.27783	0.42845
2177.34927	0.43016
2175.42070	0.43175
2173.49214	0.43325
2171.56357	0.43468
2169.63501	0.43613
2167.70645	0.43751
2165.77788	0.43871
2163.84932	0.43976
2161.92075	0.44084
2159.99219	0.44209
2158.06362	0.44332
2156.13506	0.44438
2154.20649	0.44535
2152.27793	0.44619
2150.34937	0.44683
2148.42080	0.44741
2146.49224	0.44803
2144.56367	0.44864
2142.63511	0.44923
2140.70654	0.44978
2138.77798	0.45016
2136.84941	0.45032
2134.92085	0.45037
2132.99229	0.45037
2131.06372	0.45035
2129.13516	0.45036
2127.20659	0.45028
2125.27803	0.45003
2123.34946	0.44965
2121.42090	0.44918
2119.49233	0.44863
2117.56377	0.44811
2115.63521	0.44763
2113.70664	0.44709
2111.77808	0.44636
2109.84951	0.44545
2107.92095	0.44443
2105.99238	0.44337
2104.06382	0.44234
2102.13525	0.44126
2100.20669	0.44000
2098.27812	0.43854
2096.34956	0.43708
2094.42100	0.43580
2092.49243	0.43453
2090.56387	0.43309
2088.63530	0.43145
2086.70674	0.42965
2084.77817	0.42769
2082.84961	0.42580
2080.92104	0.42401
2078.99248	0.42215
2077.06392	0.42016
2075.13535	0.41824
2073.20679	0.41633
2071.27822	0.41421
2069.34966	0.41192
2067.42109	0.40966
2065.49253	0.40755
2063.56396	0.40536
2061.63540	0.40298
2059.70684	0.40055
2057.77827	0.39813
2055.84971	0.39568
2053.92114	0.39326
2051.99258	0.39085
2050.06401	0.38830
2048.13545	0.38569
2046.20688	0.38303
2044.27832	0.38041
2042.34976	0.37798
2040.42119	0.37551
2038.49263	0.37278
2036.56406	0.37003
2034.63550	0.36744
2032.70693	0.36484
2030.77837	0.36210
2028.84980	0.35930
2026.92124	0.35658
2024.99268	0.35394
2023.06411	0.35130
2021.13555	0.34861
2019.20698	0.34601
2017.27842	0.34350
2015.34985	0.34072
2013.42129	0.33774
2011.49272	0.33491
2009.56416	0.33228
2007.63560	0.32958
2005.70703	0.32680
2003.77847	0.32414
2001.84990	0.32162
1999.92134	0.31917
1997.99277	0.31667
1996.06421	0.31412
1994.13564	0.31181
1992.20708	0.30973
1990.27852	0.30727
1988.34995	0.30450
1986.42139	0.30173
1984.49282	0.29912
1982.56426	0.29673
1980.63569	0.29444
1978.70713	0.29220
1976.77856	0.29004
1974.85000	0.28788
1972.92144	0.28568
1970.99287	0.28358
1969.06431	0.28178
1967.13574	0.28012
1965.20718	0.27801
1963.27861	0.27564
1961.35005	0.27356
1959.42148	0.27176
1957.49292	0.27004
1955.56436	0.26828
1953.63579	0.26643
1951.70723	0.26455
1949.77866	0.26282
1947.85010	0.26135
1945.92153	0.26013
1943.99297	0.25910
1942.06440	0.25778
1940.13584	0.25574
1938.20728	0.25368
1936.27871	0.25220
1934.35015	0.25101
1932.42158	0.24981
1930.49302	0.24858
1928.56445	0.24741
1926.63589	0.24634
1924.70732	0.24567
1922.77876	0.24516
1920.85020	0.24428
1918.92163	0.24341
1916.99307	0.24248
1915.06450	0.24110
1913.13594	0.23987
1911.20737	0.23929
1909.27881	0.23899
1907.35024	0.23832
1905.42168	0.23729
1903.49312	0.23635
1901.56455	0.23564
1899.63599	0.23505
1897.70742	0.23465
1895.77886	0.23456
1893.85029	0.23442
1891.92173	0.23409
1889.99316	0.23404
1888.06460	0.23374
1886.13604	0.23300
1884.20747	0.23251
1882.27891	0.23227
1880.35034	0.23205
1878.42178	0.23191
1876.49321	0.23189
1874.56465	0.23188
1872.63608	0.23223
1870.70752	0.23342
1868.77896	0.23511
1866.85039	0.23534
1864.92183	0.23403
1862.99326	0.23304
1861.06470	0.23296
1859.13613	0.23340
1857.20757	0.23381
1855.27900	0.23420
1853.35044	0.23458
1851.42187	0.23508
1849.49331	0.23591
1847.56475	0.23724
1845.63618	0.23893
1843.70762	0.24024
1841.77905	0.24024
1839.85049	0.23990
1837.92192	0.24049
1835.99336	0.24147
1834.06479	0.24239
1832.13623	0.24375
1830.20767	0.24598
1828.27910	0.24776
1826.35054	0.24854
1824.42197	0.24949
1822.49341	0.25018
1820.56484	0.25075
1818.63628	0.25185
1816.70771	0.25345
1814.77915	0.25512
1812.85059	0.25718
1810.92202	0.25965
1808.99346	0.26170
1807.06489	0.26321
1805.13633	0.26486
1803.20776	0.26735
1801.27920	0.27051
1799.35063	0.27359
1797.42207	0.27596
1795.49351	0.27842
1793.56494	0.28178
1791.63638	0.28565
1789.70781	0.28812
1787.77925	0.28971
1785.85068	0.29256
1783.92212	0.29640
1781.99355	0.30061
1780.06499	0.30495
1778.13643	0.30899
1776.20786	0.31293
1774.27930	0.31800
1772.35073	0.32492
1770.42217	0.33102
1768.49360	0.33515
1766.56504	0.33938
1764.63647	0.34442
1762.70791	0.35064
1760.77935	0.35834
1758.85078	0.36512
1756.92222	0.37192
1754.99365	0.37933
1753.06509	0.38644
1751.13652	0.39584
1749.20796	0.40750
1747.27939	0.41770
1745.35083	0.42600
1743.42227	0.43517
1741.49370	0.44563
1739.56514	0.45781
1737.63657	0.46982
1735.70801	0.48085
1733.77944	0.49807
1731.85088	0.51760
1729.92231	0.53194
1727.99375	0.54628
1726.06519	0.56215
1724.13662	0.58033
1722.20806	0.60050
1720.27949	0.61958
1718.35093	0.64257
1716.42236	0.67556
1714.49380	0.70469
1712.56523	0.72736
1710.63667	0.75015
1708.70811	0.77584
1706.77954	0.80586
1704.85098	0.84175
1702.92241	0.87339
1700.99385	0.90485
1699.06528	0.95209
1697.13672	0.99512
1695.20815	1.03847
1693.27959	1.08059
1691.35103	1.11543
1689.42246	1.15696
1687.49390	1.20143
1685.56533	1.24458
1683.63677	1.31078
1681.70820	1.37852
1679.77964	1.42105
1677.85107	1.46179
1675.92251	1.50936
1673.99395	1.56884
1672.06538	1.62234
1670.13682	1.67564
1668.20825	1.74481
1666.27969	1.80093
1664.35112	1.84978
1662.42256	1.91273
1660.49399	1.98394
1658.56543	2.03958
1656.63687	2.08556
1654.70830	2.12805
1652.77974	2.18878
1650.85117	2.24333
1648.92261	2.26394
1646.99404	2.29147
1645.06548	2.31920
1643.13691	2.33516
1641.20835	2.34352
1639.27979	2.35235
1637.35122	2.35897
1635.42266	2.35773
1633.49409	2.34586
1631.56553	2.32892
1629.63696	2.30959
1627.70840	2.27871
1625.77983	2.24443
1623.85127	2.20274
1621.92271	2.14966
1619.99414	2.10080
1618.06558	2.05372
1616.13701	1.98730
1614.20845	1.91860
1612.27988	1.86619
1610.35132	1.81266
1608.42275	1.75494
1606.49419	1.69740
1604.56562	1.64392
1602.63706	1.59255
1600.70850	1.54310
1598.77993	1.49806
1596.85137	1.45578
1594.92280	1.41455
1592.99424	1.37488
1591.06567	1.33902
1589.13711	1.30612
1587.20854	1.27603
1585.27998	1.24853
1583.35142	1.22308
1581.42285	1.20025
1579.49429	1.18153
1577.56572	1.16587
1575.63716	1.14695
1573.70859	1.12923
1571.78003	1.11816
1569.85146	1.10834
1567.92290	1.09716
1565.99434	1.08872
1564.06577	1.08397
1562.13721	1.08185
1560.20864	1.08327
1558.28008	1.08966
1556.35151	1.09292
1554.42295	1.09317
1552.49438	1.09427
1550.56582	1.09469
1548.63726	1.09288
1546.70869	1.08872
1544.78013	1.08218
1542.85156	1.07283
1540.92300	1.05686
1538.99443	1.02675
1537.06587	1.00240
1535.13730	0.98677
1533.20874	0.96689
1531.28018	0.94445
1529.35161	0.92809
1527.42305	0.91393
1525.49448	0.89974
1523.56592	0.88805
1521.63735	0.87715
1519.70879	0.86485
1517.78022	0.85393
1515.85166	0.84115
1513.92310	0.82717
1511.99453	0.81554
1510.06597	0.80638
1508.13740	0.79853
1506.20884	0.78319
1504.28027	0.76695
1502.35171	0.75816
1500.42314	0.75173
1498.49458	0.74554
1496.56602	0.73757
1494.63745	0.72843
1492.70889	0.72175
1490.78032	0.71735
1488.85176	0.71215
1486.92319	0.70508
1484.99463	0.69863
1483.06606	0.69421
1481.13750	0.69124
1479.20894	0.68919
1477.28037	0.68839
1475.35181	0.68882
1473.42324	0.68972
1471.49468	0.68860
1469.56611	0.68521
1467.63755	0.68233
1465.70898	0.68061
1463.78042	0.67918
1461.85186	0.67826
1459.92329	0.67898
1457.99473	0.68122
1456.06616	0.68153
1454.13760	0.67796
1452.20903	0.67437
1450.28047	0.67168
1448.35190	0.66957
1446.42334	0.66696
1444.49478	0.66393
1442.56621	0.66113
1440.63765	0.65865
1438.70908	0.65673
1436.78052	0.65435
1434.85195	0.65031
1432.92339	0.64674
1430.99482	0.64478
1429.06626	0.64360
1427.13770	0.64279
1425.20913	0.64304
1423.28057	0.64418
1421.35200	0.64525
1419.42344	0.64634
1417.49487	0.64648
1415.56631	0.64496
1413.63774	0.64378
1411.70918	0.64367
1409.78062	0.64448
1407.85205	0.64606
1405.92349	0.64833
1403.99492	0.65031
1402.06636	0.65105
1400.13779	0.65126
1398.20923	0.65089
1396.28066	0.64903
1394.35210	0.64514
1392.42354	0.63992
1390.49497	0.63523
1388.56641	0.63112
1386.63784	0.62615
1384.70928	0.62034
1382.78071	0.61492
1380.85215	0.61019
1378.92358	0.60623
1376.99502	0.60333
1375.06646	0.60145
1373.13789	0.59990
1371.20933	0.59846
1369.28076	0.59734
1367.35220	0.59597
1365.42363	0.59446
1363.49507	0.59341
1361.56650	0.59206
1359.63794	0.58994
1357.70937	0.58815
1355.78081	0.58701
1353.85225	0.58610
1351.92368	0.58527
1349.99512	0.58466
1348.06655	0.58408
1346.13799	0.58330
1344.20942	0.58266
1342.28086	0.58258
1340.35229	0.58291
1338.42373	0.58270
1336.49517	0.58167
1334.56660	0.58073
1332.63804	0.58040
1330.70947	0.58058
1328.78091	0.58102
1326.85234	0.58167
1324.92378	0.58238
1322.99521	0.58309
1321.06665	0.58392
1319.13809	0.58481
1317.20952	0.58532
1315.28096	0.58537
1313.35239	0.58518
1311.42383	0.58472
1309.49526	0.58407
1307.56670	0.58357
1305.63813	0.58330
1303.70957	0.58306
1301.78101	0.58257
1299.85244	0.58180
1297.92388	0.58085
1295.99531	0.57980
1294.06675	0.57868
1292.13818	0.57743
1290.20962	0.57613
1288.28105	0.57487
1286.35249	0.57365
1284.42393	0.57254
1282.49536	0.57145
1280.56680	0.57023
1278.63823	0.56883
1276.70967	0.56747
1274.78110	0.56633
1272.85254	0.56543
1270.92397	0.56474
1268.99541	0.56411
1267.06685	0.56346
1265.13828	0.56276
1263.20972	0.56192
1261.28115	0.56100
1259.35259	0.56009
1257.42402	0.55944
1255.49546	0.55925
1253.56689	0.55918
1251.63833	0.55908
1249.70977	0.55933
1247.78120	0.55970
1245.85264	0.55970
1243.92407	0.55933
1241.99551	0.55855
1240.06694	0.55722
1238.13838	0.55549
1236.20981	0.55343
1234.28125	0.55109
1232.35269	0.54879
1230.42412	0.54671
1228.49556	0.54473
1226.56699	0.54281
1224.63843	0.54113
1222.70986	0.53968
1220.78130	0.53823
1218.85273	0.53673
1216.92417	0.53545
1214.99561	0.53441
1213.06704	0.53346
1211.13848	0.53265
1209.20991	0.53199
1207.28135	0.53129
1205.35278	0.53044
1203.42422	0.52947
1201.49565	0.52850
1199.56709	0.52766
1197.63853	0.52697
1195.70996	0.52637
1193.78140	0.52587
1191.85283	0.52554
1189.92427	0.52525
1187.99570	0.52497
1186.06714	0.52485
1184.13857	0.52493
1182.21001	0.52534
1180.28145	0.52622
1178.35288	0.52746
1176.42432	0.52885
1174.49575	0.53006
1172.56719	0.53064
1170.63862	0.53054
1168.71006	0.53007
1166.78149	0.52953
1164.85293	0.52905
1162.92437	0.52853
1160.99580	0.52781
1159.06724	0.52686
1157.13867	0.52590
1155.21011	0.52500
1153.28154	0.52379
1151.35298	0.52206
1149.42441	0.51987
1147.49585	0.51739
1145.56729	0.51501
1143.63872	0.51290
1141.71016	0.51081
1139.78159	0.50878
1137.85303	0.50705
1135.92446	0.50564
1133.99590	0.50445
1132.06733	0.50344
1130.13877	0.50265
1128.21021	0.50196
1126.28164	0.50108
1124.35308	0.50004
1122.42451	0.49923
1120.49595	0.49884
1118.56738	0.49871
1116.63882	0.49863
1114.71025	0.49860
1112.78169	0.49868
1110.85312	0.49891
1108.92456	0.49944
1106.99600	0.50023
1105.06743	0.50128
1103.13887	0.50276
1101.21030	0.50455
1099.28174	0.50658
1097.35317	0.50916
1095.42461	0.51233
1093.49604	0.51591
1091.56748	0.51991
1089.63892	0.52442
1087.71035	0.52968
1085.78179	0.53562
1083.85322	0.54195
1081.92466	0.54825
1079.99609	0.55363
1078.06753	0.55704
1076.13896	0.55791
1074.21040	0.55600
1072.28184	0.55150
1070.35327	0.54525
1068.42471	0.53823
1066.49614	0.53138
1064.56758	0.52522
1062.63901	0.51955
1060.71045	0.51412
1058.78188	0.50917
1056.85332	0.50492
1054.92476	0.50125
1052.99619	0.49812
1051.06763	0.49549
1049.13906	0.49315
1047.21050	0.49102
1045.28193	0.48893
1043.35337	0.48684
1041.42480	0.48517
1039.49624	0.48399
1037.56768	0.48305
1035.63911	0.48242
1033.71055	0.48209
1031.78198	0.48193
1029.85342	0.48179
1027.92485	0.48160
1025.99629	0.48162
1024.06772	0.48197
1022.13916	0.48230
1020.21060	0.48257
1018.28203	0.48318
1016.35347	0.48409
1014.42490	0.48501
1012.49634	0.48605
1010.56777	0.48715
1008.63921	0.48812
1006.71064	0.48933
1004.78208	0.49121
1002.85352	0.49368
1000.92495	0.49648
998.99639	0.49972
997.06782	0.50349
995.13926	0.50747
993.21069	0.51152
991.28213	0.51536
989.35356	0.51828
987.42500	0.51991
985.49644	0.52058
983.56787	0.52096
981.63931	0.52167
979.71074	0.52293
977.78218	0.52468
975.85361	0.52704
973.92505	0.52977
971.99648	0.53258
970.06792	0.53557
968.13936	0.53911
966.21079	0.54323
964.28223	0.54776
962.35366	0.55260
960.42510	0.55754
958.49653	0.56255
956.56797	0.56791
954.63940	0.57385
952.71084	0.58036
950.78228	0.58695
948.85371	0.59329
946.92515	0.59969
944.99658	0.60632
943.06802	0.61275
941.13945	0.61877
939.21089	0.62450
937.28232	0.63008
935.35376	0.63557
933.42520	0.64114
931.49663	0.64677
929.56807	0.65239
927.63950	0.65806
925.71094	0.66379
923.78237	0.66990
921.85381	0.67631
919.92524	0.68217
917.99668	0.68787
916.06812	0.69455
914.13955	0.70164
912.21099	0.70871
910.28242	0.71691
908.35386	0.72599
906.42529	0.73457
904.49673	0.74312
902.56816	0.75221
900.63960	0.76114
898.71104	0.77010
896.78247	0.77978
894.85391	0.79007
892.92534	0.80069
890.99678	0.81054
889.06821	0.81964
887.13965	0.82974
885.21108	0.84097
883.28252	0.85225
881.35396	0.86395
879.42539	0.87615
877.49683	0.88726
875.56826	0.89806
873.63970	0.90962
871.71113	0.92022
869.78257	0.93060
867.85400	0.94286
865.92544	0.95570
863.99687	0.96729
862.06831	0.97831
860.13975	0.98956
858.21118	1.00034
856.28262	1.01045
854.35405	1.02196
852.42549	1.03560
850.49692	1.04850
848.56836	1.05923
846.63979	1.06941
844.71123	1.07993
842.78267	1.09096
840.85410	1.10235
838.92554	1.11184
836.99697	1.12088
835.06841	1.13401
833.13984	1.15029
831.21128	1.16566
829.28271	1.17671
827.35415	1.18301
825.42559	1.18746
823.49702	1.19211
821.56846	1.19835
819.63989	1.21103
817.71133	1.23368
815.78276	1.25680
813.85420	1.26671
811.92563	1.27045
809.99707	1.28345
808.06851	1.30201
806.13994	1.31588
804.21138	1.32582
802.28281	1.33945
800.35425	1.36058
798.42568	1.36959
796.49712	1.35366
794.56855	1.35154
792.63999	1.37800
790.71143	1.39291
788.78286	1.38200
786.85430	1.37259
784.92573	1.39315
782.99717	1.47710
781.06860	1.58821
779.14004	1.53659
777.21147	1.44012
775.28291	1.44077
773.35435	1.47064
771.42578	1.44320
769.49722	1.36381
767.56865	1.29204
765.64009	1.22445
763.71152	1.20328
761.78296	1.32849
759.85439	1.61499
757.92583	1.59115
755.99727	1.38816
754.06870	1.29941
752.14014	1.19943
750.21157	1.11795
748.28301	1.14197
746.35444	1.30658
744.42588	1.43967
742.49731	1.22632
740.56875	1.06317
738.64019	1.01330
736.71162	0.93513
734.78306	0.82242
732.85449	0.81575
730.92593	0.94053
728.99736	0.83784
727.06880	0.53590
725.14023	0.36365
723.21167	0.23168
721.28311	0.10518
719.35454	0.15536
717.42598	0.47154
715.49741	0.40069
713.56885	0.22626
711.64028	0.22171
709.71172	0.22057
707.78315	0.19927
705.85459	0.30439
703.92603	0.40550
701.99746	0.39537
700.06890	0.36842
698.14033	0.35421
696.21177	0.36335
694.28320	0.40612
692.35464	0.46618
690.42607	0.43691
688.49751	0.34398
686.56895	0.37120
684.64038	0.49637
682.71182	0.55535
680.78325	0.42360
678.85469	0.33054
676.92612	0.30870
674.99756	0.30518
673.06899	0.38032
671.14043	0.58489
669.21187	0.72997
667.28330	0.53382
665.35474	0.41978
663.42617	0.47683
661.49761	0.49729
659.56904	0.36713
657.64048	0.27910
655.71191	0.27547
653.78335	0.29373
651.85479	0.25974
649.92622	0.23603
647.99766	0.28206
646.06909	0.32377
644.14053	0.27619
642.21196	0.23834
640.28340	0.25312
638.35483	0.29552
636.42627	0.34114
634.49771	0.31614
632.56914	0.21966
630.64058	0.17712
628.71201	0.26386
626.78345	0.37551
624.85488	0.36438
622.92632	0.31398
620.99775	0.28194
619.06919	0.21812
617.14062	0.16370
615.21206	0.18471
613.28350	0.25721
611.35493	0.27861
609.42637	0.24287
607.49780	0.23918
605.56924	0.31765
603.64067	0.43157
601.71211	0.55177
599.78354	0.74419
597.85498	0.51177
595.92642	0.31174
593.99785	0.24413
592.06929	0.21698
590.14072	0.18050
588.21216	0.14811
586.28359	0.17154
584.35503	0.22715
582.42646	0.24561
580.49790	0.23809
578.56934	0.24528
576.64077	0.29684
574.71221	0.35378
572.78364	0.35587
570.85508	0.33494
568.92651	0.32747
566.99795	0.41253
565.06938	0.76985
563.14082	3.37884
561.21226	0.70907
559.28369	0.47526
557.35513	0.37564
555.42656	0.35720
553.49800	0.41042
551.56943	0.39595
549.64087	0.28203
547.71230	0.23566
545.78374	0.27058
543.85518	0.28001
541.92661	0.27173
539.99805	0.31802
538.06948	0.40175
536.14092	0.41000
534.21235	0.32575
532.28379	0.29948
530.35522	0.33579
528.42666	0.31764
526.49810	0.26828
524.56953	0.25414
522.64097	0.25568
520.71240	0.25966
518.78384	0.26913
516.85527	0.29078
514.92671	0.32100
512.99814	0.29715
511.06958	0.24495
509.14102	0.22968
507.21245	0.25921
505.28389	0.30641
503.35532	0.27683
501.42676	0.21413
499.49819	0.19277
