3997.91411	0.06255
3995.98555	0.06361
3994.05698	0.06436
3992.12842	0.06448
3990.19985	0.06454
3988.27129	0.06460
3986.34272	0.06443
3984.41416	0.06426
3982.48560	0.06438
3980.55703	0.06471
3978.62847	0.06502
3976.69990	0.06562
3974.77134	0.06670
3972.84277	0.06765
3970.91421	0.06799
3968.98564	0.06773
3967.05708	0.06704
3965.12852	0.06664
3963.19995	0.06714
3961.27139	0.06782
3959.34282	0.06794
3957.41426	0.06796
3955.48569	0.06822
3953.55713	0.06852
3951.62856	0.06923
3949.70000	0.07057
3947.77144	0.07144
3945.84287	0.07129
3943.91431	0.07144
3941.98574	0.07188
3940.05718	0.07084
3938.12861	0.06907
3936.20005	0.06847
3934.27148	0.06948
3932.34292	0.07164
3930.41436	0.07315
3928.48579	0.07246
3926.55723	0.07159
3924.62866	0.07238
3922.70010	0.07283
3920.77153	0.07187
3918.84297	0.07175
3916.91440	0.07240
3914.98584	0.07141
3913.05728	0.06910
3911.12871	0.06773
3909.20015	0.06781
3907.27158	0.06931
3905.34302	0.07309
3903.41445	0.07827
3901.48589	0.08088
3899.55732	0.07957
3897.62876	0.07603
3895.70020	0.07249
3893.77163	0.07147
3891.84307	0.07344
3889.91450	0.07487
3887.98594	0.07394
3886.05737	0.07450
3884.12881	0.07675
3882.20024	0.07759
3880.27168	0.07758
3878.34312	0.07587
3876.41455	0.07336
3874.48599	0.07409
3872.55742	0.07779
3870.62886	0.08151
3868.70029	0.08275
3866.77173	0.08113
3864.84316	0.08096
3862.91460	0.08207
3860.98604	0.08041
3859.05747	0.07805
3857.12891	0.07861
3855.20034	0.08252
3853.27178	0.08902
3851.34321	0.09073
3849.41465	0.08455
3847.48608	0.07944
3845.55752	0.07816
3843.62896	0.08028
3841.70039	0.08447
3839.77183	0.08947
3837.84326	0.09370
3835.91470	0.09367
3833.98613	0.09049
3832.05757	0.08817
3830.12900	0.08703
3828.20044	0.08658
3826.27187	0.08735
3824.34331	0.08910
3822.41475	0.09235
3820.48618	0.09751
3818.55762	0.09937
3816.62905	0.09786
3814.70049	0.09601
3812.77192	0.09287
3810.84336	0.09049
3808.91479	0.09107
3806.98623	0.09485
3805.05767	0.09930
3803.12910	0.10279
3801.20054	0.10710
3799.27197	0.10888
3797.34341	0.10686
3795.41484	0.10478
3793.48628	0.10252
3791.55771	0.10087
3789.62915	0.10091
3787.70059	0.10245
3785.77202	0.10551
3783.84346	0.10864
3781.91489	0.11022
3779.98633	0.11228
3778.05776	0.11506
3776.12920	0.11519
3774.20063	0.11412
3772.27207	0.11538
3770.34351	0.11984
3768.41494	0.12481
3766.48638	0.12726
3764.55781	0.12857
3762.62925	0.12964
3760.70068	0.13188
3758.77212	0.13661
3756.84355	0.14095
3754.91499	0.14342
3752.98643	0.14773
3751.05786	0.15608
3749.12930	0.16353
3747.20073	0.16494
3745.27217	0.16589
3743.34360	0.16908
3741.41504	0.17181
3739.48647	0.17453
3737.55791	0.18027
3735.62935	0.19078
3733.70078	0.20140
3731.77222	0.20424
3729.84365	0.20365
3727.91509	0.20591
3725.98652	0.21240
3724.05796	0.22032
3722.12939	0.22627
3720.20083	0.23030
3718.27227	0.23353
3716.34370	0.23767
3714.41514	0.24442
3712.48657	0.25666
3710.55801	0.27532
3708.62944	0.29076
3706.70088	0.29925
3704.77231	0.30839
3702.84375	0.32193
3700.91519	0.33970
3698.98662	0.35765
3697.05806	0.37436
3695.12949	0.39278
3693.20093	0.41360
3691.27236	0.43821
3689.34380	0.46967
3687.41523	0.50354
3685.48667	0.53022
3683.55811	0.55371
3681.62954	0.58098
3679.70098	0.61401
3677.77241	0.65069
3675.84385	0.69435
3673.91528	0.74931
3671.98672	0.79158
3670.05815	0.82999
3668.12959	0.88227
3666.20103	0.92747
3664.27246	0.96554
3662.34390	1.00876
3660.41533	1.05686
3658.48677	1.10496
3656.55820	1.15656
3654.62964	1.21339
3652.70107	1.26115
3650.77251	1.30575
3648.84395	1.36896
3646.91538	1.43897
3644.98682	1.48338
3643.05825	1.51793
3641.12969	1.55724
3639.20112	1.60261
3637.27256	1.64834
3635.34399	1.69296
3633.41543	1.73822
3631.48687	1.78114
3629.55830	1.82579
3627.62974	1.88295
3625.70117	1.93158
3623.77261	1.96285
3621.84404	1.99535
3619.91548	2.03465
3617.98691	2.08174
3616.05835	2.12578
3614.12979	2.16203
3612.20122	2.19982
3610.27266	2.23791
3608.34409	2.27791
3606.41553	2.32051
3604.48696	2.35796
3602.55840	2.39220
3600.62983	2.43247
3598.70127	2.47633
3596.77271	2.51641
3594.84414	2.55575
3592.91558	2.59626
3590.98701	2.63354
3589.05845	2.66851
3587.12988	2.71230
3585.20132	2.76104
3583.27275	2.80061
3581.34419	2.83640
3579.41562	2.87637
3577.48706	2.91976
3575.55850	2.96195
3573.62993	3.00359
3571.70137	3.04514
3569.77280	3.08694
3567.84424	3.13321
3565.91567	3.18861
3563.98711	3.23796
3562.05854	3.27567
3560.12998	3.31470
3558.20142	3.35725
3556.27285	3.40037
3554.34429	3.44351
3552.41572	3.48920
3550.48716	3.53672
3548.55859	3.58334
3546.63003	3.62759
3544.70146	3.67127
3542.77290	3.71643
3540.84434	3.76270
3538.91577	3.81100
3536.98721	3.86174
3535.05864	3.91368
3533.13008	3.96177
3531.20151	4.00474
3529.27295	4.04615
3527.34438	4.09327
3525.41582	4.14618
3523.48726	4.19638
3521.55869	4.24244
3519.63013	4.28941
3517.70156	4.33926
3515.77300	4.38453
3513.84443	4.42525
3511.91587	4.46973
3509.98730	4.52068
3508.05874	4.57365
3506.13018	4.62058
3504.20161	4.66288
3502.27305	4.71047
3500.34448	4.76226
3498.41592	4.80824
3496.48735	4.85091
3494.55879	4.89527
3492.63022	4.94264
3490.70166	4.99280
3488.77310	5.03972
3486.84453	5.08162
3484.91597	5.12336
3482.98740	5.16998
3481.05884	5.22422
3479.13027	5.27787
3477.20171	5.32347
3475.27314	5.36645
3473.34458	5.41245
3471.41602	5.46085
3469.48745	5.51140
3467.55889	5.55964
3465.63032	5.59731
3463.70176	5.63613
3461.77319	5.69101
3459.84463	5.75515
3457.91606	5.81115
3455.98750	5.85693
3454.05894	5.90375
3452.13037	5.95113
3450.20181	5.99783
3448.27324	6.05178
3446.34468	6.10946
3444.41611	6.15571
3442.48755	6.19055
3440.55898	6.21595
3438.63042	6.23972
3436.70186	6.28225
3434.77329	6.34838
3432.84473	6.40961
3430.91616	6.44234
3428.98760	6.46602
3427.05903	6.50782
3425.13047	6.57910
3423.20190	6.65136
3421.27334	6.69928
3419.34478	6.73566
3417.41621	6.78245
3415.48765	6.84023
3413.55908	6.87970
3411.63052	6.89593
3409.70195	6.92045
3407.77339	6.97667
3405.84482	7.03099
3403.91626	7.05812
3401.98770	7.06614
3400.05913	7.07496
3398.13057	7.10802
3396.20200	7.16400
3394.27344	7.22738
3392.34487	7.26365
3390.41631	7.29111
3388.48774	7.33814
3386.55918	7.37791
3384.63062	7.38014
3382.70205	7.36595
3380.77349	7.37817
3378.84492	7.42947
3376.91636	7.49075
3374.98779	7.51685
3373.05923	7.52387
3371.13066	7.51822
3369.20210	7.52277
3367.27354	7.56476
3365.34497	7.60815
3363.41641	7.63293
3361.48784	7.66474
3359.55928	7.70720
3357.63071	7.72633
3355.70215	7.70333
3353.77358	7.65300
3351.84502	7.64868
3349.91646	7.69672
3347.98789	7.74398
3346.05933	7.76312
3344.13076	7.76732
3342.20220	7.78354
3340.27363	7.78277
3338.34507	7.78740
3336.41650	7.83770
3334.48794	7.91061
3332.55937	7.95186
3330.63081	7.94401
3328.70225	7.88081
3326.77368	7.77852
3324.84512	7.72598
3322.91655	7.78396
3320.98799	7.88826
3319.05942	7.91810
3317.13086	7.90490
3315.20229	7.88192
3313.27373	7.85038
3311.34517	7.83668
3309.41660	7.82727
3307.48804	7.81692
3305.55947	7.81485
3303.63091	7.85461
3301.70234	7.91982
3299.77378	7.93700
3297.84521	7.87702
3295.91665	7.82997
3293.98809	7.84628
3292.05952	7.83970
3290.13096	7.79654
3288.20239	7.79997
3286.27383	7.86521
3284.34526	7.92772
3282.41670	7.94952
3280.48813	7.94038
3278.55957	7.91309
3276.63101	7.85618
3274.70244	7.77200
3272.77388	7.73200
3270.84531	7.76742
3268.91675	7.79731
3266.98818	7.81118
3265.05962	7.86267
3263.13105	7.87797
3261.20249	7.82169
3259.27393	7.77718
3257.34536	7.80546
3255.41680	7.88066
3253.48823	7.90160
3251.55967	7.84497
3249.63110	7.80779
3247.70254	7.81753
3245.77397	7.80288
3243.84541	7.78945
3241.91685	7.83954
3239.98828	7.87322
3238.05972	7.81075
3236.13115	7.71880
3234.20259	7.66348
3232.27402	7.65649
3230.34546	7.67556
3228.41689	7.69202
3226.48833	7.69549
3224.55977	7.67392
3222.63120	7.65126
3220.70264	7.65878
3218.77407	7.70394
3216.84551	7.74725
3214.91694	7.74672
3212.98838	7.70507
3211.05981	7.62570
3209.13125	7.54095
3207.20269	7.48864
3205.27412	7.47970
3203.34556	7.48688
3201.41699	7.47495
3199.48843	7.44918
3197.55986	7.42717
3195.63130	7.38890
3193.70273	7.31901
3191.77417	7.27070
3189.84561	7.26875
3187.91704	7.26311
3185.98848	7.22107
3184.05991	7.15270
3182.13135	7.07425
3180.20278	7.01006
3178.27422	6.96821
3176.34565	6.94375
3174.41709	6.94593
3172.48853	6.95006
3170.55996	6.89929
3168.63140	6.79899
3166.70283	6.71025
3164.77427	6.65392
3162.84570	6.59993
3160.91714	6.54256
3158.98857	6.50069
3157.06001	6.45495
3155.13145	6.37859
3153.20288	6.28822
3151.27432	6.21361
3149.34575	6.15692
3147.41719	6.09967
3145.48862	6.03355
3143.56006	5.96772
3141.63149	5.90371
3139.70293	5.83115
3137.77437	5.75287
3135.84580	5.68086
3133.91724	5.61422
3131.98867	5.54823
3130.06011	5.49047
3128.13154	5.43572
3126.20298	5.37169
3124.27441	5.29870
3122.34585	5.21833
3120.41729	5.14281
3118.48872	5.07999
3116.56016	5.02006
3114.63159	4.95464
3112.70303	4.88458
3110.77446	4.81465
3108.84590	4.74775
3106.91733	4.68443
3104.98877	4.62139
3103.06021	4.55577
3101.13164	4.48860
3099.20308	4.42147
3097.27451	4.35429
3095.34595	4.28953
3093.41738	4.22944
3091.48882	4.16945
3089.56025	4.10673
3087.63169	4.04308
3085.70312	3.97947
3083.77456	3.91551
3081.84600	3.85244
3079.91743	3.79368
3077.98887	3.73839
3076.06030	3.68083
3074.13174	3.62150
3072.20317	3.56545
3070.27461	3.51082
3068.34604	3.45429
3066.41748	3.39737
3064.48892	3.34159
3062.56035	3.28750
3060.63179	3.23490
3058.70322	3.18289
3056.77466	3.13189
3054.84609	3.08056
3052.91753	3.02790
3050.98896	2.97692
3049.06040	2.92803
3047.13184	2.87906
3045.20327	2.82977
3043.27471	2.78096
3041.34614	2.73361
3039.41758	2.68821
3037.48901	2.64374
3035.56045	2.59854
3033.63188	2.55242
3031.70332	2.50679
3029.77476	2.46324
3027.84619	2.42139
3025.91763	2.37972
3023.98906	2.33821
3022.06050	2.29732
3020.13193	2.25708
3018.20337	2.21752
3016.27480	2.17854
3014.34624	2.14028
3012.41768	2.10283
3010.48911	2.06561
3008.56055	2.02865
3006.63198	1.99247
3004.70342	1.95715
3002.77485	1.92279
3000.84629	1.88931
2998.91772	1.85640
2996.98916	1.82399
2995.06060	1.79196
2993.13203	1.76035
2991.20347	1.72943
2989.27490	1.69934
2987.34634	1.66998
2985.41777	1.64099
2983.48921	1.61227
2981.56064	1.58393
2979.63208	1.55603
2977.70352	1.52864
2975.77495	1.50181
2973.84639	1.47537
2971.91782	1.44920
2969.98926	1.42349
2968.06069	1.39822
2966.13213	1.37263
2964.20356	1.34658
2962.27500	1.32110
2960.34644	1.29644
2958.41787	1.27221
2956.48931	1.24861
2954.56074	1.22551
2952.63218	1.20265
2950.70361	1.18042
2948.77505	1.15906
2946.84648	1.13783
2944.91792	1.11603
2942.98936	1.09412
2941.06079	1.07286
2939.13223	1.05203
2937.20366	1.03111
2935.27510	1.01032
2933.34653	0.98979
2931.41797	0.96913
2929.48940	0.94844
2927.56084	0.92837
2925.63228	0.90926
2923.70371	0.89109
2921.77515	0.87407
2919.84658	0.85869
2917.91802	0.84486
2915.98945	0.83181
2914.06089	0.81892
2912.13232	0.80598
2910.20376	0.79302
2908.27520	0.77986
2906.34663	0.76639
2904.41807	0.75324
2902.48950	0.74093
2900.56094	0.72892
2898.63237	0.71668
2896.70381	0.70455
2894.77524	0.69285
2892.84668	0.68149
2890.91812	0.67048
2888.98955	0.65984
2887.06099	0.64933
2885.13242	0.63881
2883.20386	0.62839
2881.27529	0.61832
2879.34673	0.60872
2877.41816	0.59930
2875.48960	0.58967
2873.56104	0.57969
2871.63247	0.56920
2869.70391	0.55827
2867.77534	0.54739
2865.84678	0.53665
2863.91821	0.52587
2861.98965	0.51513
2860.06108	0.50440
2858.13252	0.49356
2856.20396	0.48296
2854.27539	0.47316
2852.34683	0.46448
2850.41826	0.45702
2848.48970	0.45072
2846.56113	0.44533
2844.63257	0.44055
2842.70400	0.43599
2840.77544	0.43125
2838.84687	0.42619
2836.91831	0.42103
2834.98975	0.41579
2833.06118	0.41033
2831.13262	0.40485
2829.20405	0.39939
2827.27549	0.39374
2825.34692	0.38819
2823.41836	0.38273
2821.48979	0.37703
2819.56123	0.37137
2817.63267	0.36606
2815.70410	0.36082
2813.77554	0.35558
2811.84697	0.35047
2809.91841	0.34541
2807.98984	0.34036
2806.06128	0.33541
2804.13271	0.33051
2802.20415	0.32566
2800.27559	0.32092
2798.34702	0.31632
2796.41846	0.31200
2794.48989	0.30788
2792.56133	0.30360
2790.63276	0.29920
2788.70420	0.29500
2786.77563	0.29095
2784.84707	0.28694
2782.91851	0.28301
2780.98994	0.27920
2779.06138	0.27552
2777.13281	0.27189
2775.20425	0.26815
2773.27568	0.26433
2771.34712	0.26067
2769.41855	0.25737
2767.48999	0.25430
2765.56143	0.25119
2763.63286	0.24802
2761.70430	0.24487
2759.77573	0.24177
2757.84717	0.23880
2755.91860	0.23590
2753.99004	0.23294
2752.06147	0.22998
2750.13291	0.22706
2748.20435	0.22427
2746.27578	0.22172
2744.34722	0.21930
2742.41865	0.21673
2740.49009	0.21399
2738.56152	0.21143
2736.63296	0.20923
2734.70439	0.20704
2732.77583	0.20457
2730.84727	0.20217
2728.91870	0.20019
2726.99014	0.19833
2725.06157	0.19625
2723.13301	0.19411
2721.20444	0.19224
2719.27588	0.19055
2717.34731	0.18869
2715.41875	0.18667
2713.49019	0.18468
2711.56162	0.18288
2709.63306	0.18133
2707.70449	0.17983
2705.77593	0.17823
2703.84736	0.17670
2701.91880	0.17531
2699.99023	0.17387
2698.06167	0.17228
2696.13311	0.17076
2694.20454	0.16944
2692.27598	0.16834
2690.34741	0.16723
2688.41885	0.16596
2686.49028	0.16465
2684.56172	0.16345
2682.63315	0.16239
2680.70459	0.16149
2678.77603	0.16065
2676.84746	0.15963
2674.91890	0.15848
2672.99033	0.15740
2671.06177	0.15644
2669.13320	0.15552
2667.20464	0.15462
2665.27607	0.15377
2663.34751	0.15287
2661.41895	0.15203
2659.49038	0.15127
2657.56182	0.15052
2655.63325	0.14976
2653.70469	0.14905
2651.77612	0.14853
2649.84756	0.14807
2647.91899	0.14737
2645.99043	0.14663
2644.06187	0.14611
2642.13330	0.14575
2640.20474	0.14543
2638.27617	0.14510
2636.34761	0.14459
2634.41904	0.14401
2632.49048	0.14356
2630.56191	0.14330
2628.63335	0.14317
2626.70479	0.14291
2624.77622	0.14249
2622.84766	0.14217
2620.91909	0.14200
2618.99053	0.14179
2617.06196	0.14150
2615.13340	0.14134
2613.20483	0.14134
2611.27627	0.14128
2609.34771	0.14108
2607.41914	0.14099
2605.49058	0.14111
2603.56201	0.14119
2601.63345	0.14120
2599.70488	0.14129
2597.77632	0.14141
2595.84775	0.14143
2593.91919	0.14135
2591.99062	0.14130
2590.06206	0.14144
2588.13350	0.14175
2586.20493	0.14206
2584.27637	0.14231
2582.34780	0.14253
2580.41924	0.14275
2578.49067	0.14306
2576.56211	0.14347
2574.63354	0.14384
2572.70498	0.14413
2570.77642	0.14444
2568.84785	0.14480
2566.91929	0.14520
2564.99072	0.14559
2563.06216	0.14597
2561.13359	0.14634
2559.20503	0.14679
2557.27646	0.14742
2555.34790	0.14815
2553.41934	0.14882
2551.49077	0.14929
2549.56221	0.14963
2547.63364	0.14998
2545.70508	0.15047
2543.77651	0.15114
2541.84795	0.15195
2539.91938	0.15269
2537.99082	0.15325
2536.06226	0.15383
2534.13369	0.15451
2532.20513	0.15520
2530.27656	0.15586
2528.34800	0.15652
2526.41943	0.15716
2524.49087	0.15786
2522.56230	0.15876
2520.63374	0.15971
2518.70518	0.16051
2516.77661	0.16119
2514.84805	0.16183
2512.91948	0.16251
2510.99092	0.16330
2509.06235	0.16414
2507.13379	0.16503
2505.20522	0.16592
2503.27666	0.16672
2501.34810	0.16743
2499.41953	0.16818
2497.49097	0.16908
2495.56240	0.17006
2493.63384	0.17099
2491.70527	0.17184
2489.77671	0.17261
2487.84814	0.17334
2485.91958	0.17414
2483.99102	0.17507
2482.06245	0.17599
2480.13389	0.17683
2478.20532	0.17768
2476.27676	0.17859
2474.34819	0.17955
2472.41963	0.18058
2470.49106	0.18164
2468.56250	0.18256
2466.63394	0.18335
2464.70537	0.18425
2462.77681	0.18526
2460.84824	0.18625
2458.91968	0.18722
2456.99111	0.18821
2455.06255	0.18918
2453.13398	0.19019
2451.20542	0.19122
2449.27686	0.19212
2447.34829	0.19298
2445.41973	0.19393
2443.49116	0.19492
2441.56260	0.19598
2439.63403	0.19710
2437.70547	0.19815
2435.77690	0.19913
2433.84834	0.20016
2431.91978	0.20123
2429.99121	0.20225
2428.06265	0.20328
2426.13408	0.20432
2424.20552	0.20533
2422.27695	0.20647
2420.34839	0.20779
2418.41982	0.20903
2416.49126	0.21005
2414.56270	0.21098
2412.63413	0.21200
2410.70557	0.21322
2408.77700	0.21452
2406.84844	0.21566
2404.91987	0.21670
2402.99131	0.21780
2401.06274	0.21901
2399.13418	0.22028
2397.20562	0.22150
2395.27705	0.22274
2393.34849	0.22412
2391.41992	0.22562
2389.49136	0.22732
2387.56279	0.22956
2385.63423	0.23288
2383.70566	0.23804
2381.77710	0.24531
2379.84854	0.25420
2377.91997	0.26418
2375.99141	0.27542
2374.06284	0.28833
2372.13428	0.30279
2370.20571	0.31790
2368.27715	0.33297
2366.34858	0.34780
2364.42002	0.36095
2362.49146	0.37044
2360.56289	0.37626
2358.63433	0.37827
2356.70576	0.37420
2354.77720	0.36362
2352.84863	0.34945
2350.92007	0.33467
2348.99150	0.32505
2347.06294	0.32535
2345.13437	0.33624
2343.20581	0.35084
2341.27725	0.35881
2339.34868	0.36040
2337.42012	0.35971
2335.49155	0.35828
2333.56299	0.35667
2331.63442	0.35578
2329.70586	0.35539
2327.77729	0.35416
2325.84873	0.35137
2323.92017	0.34780
2321.99160	0.34393
2320.06304	0.33921
2318.13447	0.33394
2316.20591	0.32939
2314.27734	0.32659
2312.34878	0.32542
2310.42021	0.32442
2308.49165	0.32247
2306.56309	0.31989
2304.63452	0.31764
2302.70596	0.31639
2300.77739	0.31596
2298.84883	0.31579
2296.92026	0.31570
2294.99170	0.31572
2293.06313	0.31575
2291.13457	0.31577
2289.20601	0.31593
2287.27744	0.31617
2285.34888	0.31648
2283.42031	0.31735
2281.49175	0.31903
2279.56318	0.32123
2277.63462	0.32371
2275.70605	0.32619
2273.77749	0.32838
2271.84893	0.33040
2269.92036	0.33252
2267.99180	0.33462
2266.06323	0.33657
2264.13467	0.33842
2262.20610	0.34020
2260.27754	0.34197
2258.34897	0.34383
2256.42041	0.34562
2254.49185	0.34737
2252.56328	0.34925
2250.63472	0.35120
2248.70615	0.35305
2246.77759	0.35495
2244.84902	0.35705
2242.92046	0.35916
2240.99189	0.36114
2239.06333	0.36318
2237.13477	0.36538
2235.20620	0.36753
2233.27764	0.36960
2231.34907	0.37172
2229.42051	0.37401
2227.49194	0.37636
2225.56338	0.37858
2223.63481	0.38067
2221.70625	0.38275
2219.77769	0.38486
2217.84912	0.38694
2215.92056	0.38906
2213.99199	0.39121
2212.06343	0.39338
2210.13486	0.39556
2208.20630	0.39763
2206.27773	0.39960
2204.34917	0.40162
2202.42061	0.40367
2200.49204	0.40570
2198.56348	0.40781
2196.63491	0.40992
2194.70635	0.41191
2192.77778	0.41377
2190.84922	0.41553
2188.92065	0.41732
2186.99209	0.41913
2185.06353	0.42087
2183.13496	0.42261
2181.20640	0.42446
2179.27783	0.42625
2177.34927	0.42786
2175.42070	0.42938
2173.49214	0.43079
2171.56357	0.43213
2169.63501	0.43358
2167.70645	0.43507
2165.77788	0.43643
2163.84932	0.43767
2161.92075	0.43879
2159.99219	0.43986
2158.06362	0.44094
2156.13506	0.44206
2154.20649	0.44302
2152.27793	0.44382
2150.34937	0.44461
2148.42080	0.44538
2146.49224	0.44606
2144.56367	0.44668
2142.63511	0.44721
2140.70654	0.44757
2138.77798	0.44780
2136.84941	0.44804
2134.92085	0.44831
2132.99229	0.44844
2131.06372	0.44841
2129.13516	0.44833
2127.20659	0.44820
2125.27803	0.44794
2123.34946	0.44758
2121.42090	0.44719
2119.49233	0.44670
2117.56377	0.44610
2115.63521	0.44547
2113.70664	0.44486
2111.77808	0.44419
2109.84951	0.44335
2107.92095	0.44235
2105.99238	0.44124
2104.06382	0.44007
2102.13525	0.43899
2100.20669	0.43797
2098.27812	0.43673
2096.34956	0.43524
2094.42100	0.43377
2092.49243	0.43244
2090.56387	0.43109
2088.63530	0.42950
2086.70674	0.42768
2084.77817	0.42581
2082.84961	0.42394
2080.92104	0.42209
2078.99248	0.42034
2077.06392	0.41849
2075.13535	0.41644
2073.20679	0.41439
2071.27822	0.41237
2069.34966	0.41023
2067.42109	0.40804
2065.49253	0.40593
2063.56396	0.40362
2061.63540	0.40112
2059.70684	0.39867
2057.77827	0.39627
2055.84971	0.39392
2053.92114	0.39156
2051.99258	0.38903
2050.06401	0.38639
2048.13545	0.38378
2046.20688	0.38123
2044.27832	0.37881
2042.34976	0.37645
2040.42119	0.37389
2038.49263	0.37102
2036.56406	0.36815
2034.63550	0.36546
2032.70693	0.36279
2030.77837	0.36005
2028.84980	0.35735
2026.92124	0.35477
2024.99268	0.35213
2023.06411	0.34936
2021.13555	0.34671
2019.20698	0.34431
2017.27842	0.34185
2015.34985	0.33891
2013.42129	0.33582
2011.49272	0.33305
2009.56416	0.33048
2007.63560	0.32783
2005.70703	0.32509
2003.77847	0.32240
2001.84990	0.31980
1999.92134	0.31718
1997.99277	0.31450
1996.06421	0.31201
1994.13564	0.31001
1992.20708	0.30813
1990.27852	0.30562
1988.34995	0.30270
1986.42139	0.29985
1984.49282	0.29719
1982.56426	0.29475
1980.63569	0.29242
1978.70713	0.29014
1976.77856	0.28786
1974.85000	0.28561
1972.92144	0.28349
1970.99287	0.28157
1969.06431	0.27997
1967.13574	0.27837
1965.20718	0.27616
1963.27861	0.27367
1961.35005	0.27151
1959.42148	0.26957
1957.49292	0.26773
1955.56436	0.26602
1953.63579	0.26427
1951.70723	0.26244
1949.77866	0.26076
1947.85010	0.25932
1945.92153	0.25813
1943.99297	0.25722
1942.06440	0.25606
1940.13584	0.25407
1938.20728	0.25196
1936.27871	0.25032
1934.35015	0.24897
1932.42158	0.24773
1930.49302	0.24645
1928.56445	0.24520
1926.63589	0.24422
1924.70732	0.24380
1922.77876	0.24357
1920.85020	0.24275
1918.92163	0.24172
1916.99307	0.24064
1915.06450	0.23908
1913.13594	0.23777
1911.20737	0.23732
1909.27881	0.23712
1907.35024	0.23636
1905.42168	0.23521
1903.49312	0.23432
1901.56455	0.23367
1899.63599	0.23302
1897.70742	0.23259
1895.77886	0.23253
1893.85029	0.23240
1891.92173	0.23214
1889.99316	0.23222
1888.06460	0.23198
1886.13604	0.23119
1884.20747	0.23064
1882.27891	0.23034
1880.35034	0.23008
1878.42178	0.22986
1876.49321	0.22975
1874.56465	0.22977
1872.63608	0.23022
1870.70752	0.23160
1868.77896	0.23364
1866.85039	0.23402
1864.92183	0.23248
1862.99326	0.23134
1861.06470	0.23120
1859.13613	0.23152
1857.20757	0.23185
1855.27900	0.23220
1853.35044	0.23262
1851.42187	0.23320
1849.49331	0.23410
1847.56475	0.23555
1845.63618	0.23746
1843.70762	0.23900
1841.77905	0.23892
1839.85049	0.23831
1837.92192	0.23871
1835.99336	0.23962
1834.06479	0.24054
1832.13623	0.24208
1830.20767	0.24469
1828.27910	0.24666
1826.35054	0.24721
1824.42197	0.24786
1822.49341	0.24839
1820.56484	0.24892
1818.63628	0.25005
1816.70771	0.25166
1814.77915	0.25336
1812.85059	0.25555
1810.92202	0.25824
1808.99346	0.26038
1807.06489	0.26183
1805.13633	0.26346
1803.20776	0.26604
1801.27920	0.26938
1799.35063	0.27253
1797.42207	0.27481
1795.49351	0.27729
1793.56494	0.28086
1791.63638	0.28491
1789.70781	0.28719
1787.77925	0.28845
1785.85068	0.29120
1783.92212	0.29513
1781.99355	0.29945
1780.06499	0.30391
1778.13643	0.30807
1776.20786	0.31220
1774.27930	0.31753
1772.35073	0.32472
1770.42217	0.33092
1768.49360	0.33482
1766.56504	0.33862
1764.63647	0.34331
1762.70791	0.34955
1760.77935	0.35740
1758.85078	0.36408
1756.92222	0.37073
1754.99365	0.37800
1753.06509	0.38499
1751.13652	0.39448
1749.20796	0.40635
1747.27939	0.41646
1745.35083	0.42440
1743.42227	0.43326
1741.49370	0.44366
1739.56514	0.45597
1737.63657	0.46827
1735.70801	0.47983
1733.77944	0.49773
1731.85088	0.51742
1729.92231	0.53153
1727.99375	0.54570
1726.06519	0.56153
1724.13662	0.57976
1722.20806	0.59991
1720.27949	0.61915
1718.35093	0.64289
1716.42236	0.67670
1714.49380	0.70595
1712.56523	0.72846
1710.63667	0.75105
1708.70811	0.77656
1706.77954	0.80654
1704.85098	0.84237
1702.92241	0.87401
1700.99385	0.90560
1699.06528	0.95251
1697.13672	0.99440
1695.20815	1.03565
1693.27959	1.07537
1691.35103	1.10818
1689.42246	1.14732
1687.49390	1.18905
1685.56533	1.22972
1683.63677	1.29179
1681.70820	1.35402
1679.77964	1.39257
1677.85107	1.42990
1675.92251	1.47415
1673.99395	1.52968
1672.06538	1.57931
1670.13682	1.62777
1668.20825	1.68938
1666.27969	1.73877
1664.35112	1.78113
1662.42256	1.83476
1660.49399	1.89547
1658.56543	1.94319
1656.63687	1.98181
1654.70830	2.01695
1652.77974	2.07333
1650.85117	2.13072
1648.92261	2.15356
1646.99404	2.18018
1645.06548	2.20949
1643.13691	2.22972
1641.20835	2.24146
1639.27979	2.24989
1637.35122	2.25385
1635.42266	2.25459
1633.49409	2.25049
1631.56553	2.23825
1629.63696	2.22173
1627.70840	2.19527
1625.77983	2.16491
1623.85127	2.12673
1621.92271	2.07921
1619.99414	2.03643
1618.06558	1.99435
1616.13701	1.93238
1614.20845	1.86749
1612.27988	1.81795
1610.35132	1.76692
1608.42275	1.71164
1606.49419	1.65676
1604.56562	1.60609
1602.63706	1.55733
1600.70850	1.50970
1598.77993	1.46575
1596.85137	1.42477
1594.92280	1.38526
1592.99424	1.34669
1591.06567	1.31103
1589.13711	1.27771
1587.20854	1.24677
1585.27998	1.21842
1583.35142	1.19198
1581.42285	1.16769
1579.49429	1.14738
1577.56572	1.13000
1575.63716	1.10809
1573.70859	1.08712
1571.78003	1.07346
1569.85146	1.05998
1567.92290	1.04403
1565.99434	1.03122
1564.06577	1.02176
1562.13721	1.01514
1560.20864	1.01201
1558.28008	1.00772
1556.35151	0.99984
1554.42295	0.99355
1552.49438	0.98813
1550.56582	0.98265
1548.63726	0.97630
1546.70869	0.96976
1544.78013	0.96297
1542.85156	0.95510
1540.92300	0.94344
1538.99443	0.92124
1537.06587	0.90218
1535.13730	0.89038
1533.20874	0.87650
1531.28018	0.86040
1529.35161	0.84829
1527.42305	0.83829
1525.49448	0.82861
1523.56592	0.82036
1521.63735	0.81251
1519.70879	0.80326
1517.78022	0.79449
1515.85166	0.78443
1513.92310	0.77390
1511.99453	0.76575
1510.06597	0.76016
1508.13740	0.75616
1506.20884	0.74594
1504.28027	0.73258
1502.35171	0.72487
1500.42314	0.71970
1498.49458	0.71527
1496.56602	0.70974
1494.63745	0.70284
1492.70889	0.69755
1490.78032	0.69455
1488.85176	0.69104
1486.92319	0.68522
1484.99463	0.67949
1483.06606	0.67538
1481.13750	0.67240
1479.20894	0.67001
1477.28037	0.66858
1475.35181	0.66824
1473.42324	0.66794
1471.49468	0.66497
1469.56611	0.66019
1467.63755	0.65673
1465.70898	0.65493
1463.78042	0.65347
1461.85186	0.65203
1459.92329	0.65204
1457.99473	0.65372
1456.06616	0.65335
1454.13760	0.64934
1452.20903	0.64586
1450.28047	0.64342
1448.35190	0.64147
1446.42334	0.63906
1444.49478	0.63628
1442.56621	0.63388
1440.63765	0.63197
1438.70908	0.63066
1436.78052	0.62934
1434.85195	0.62681
1432.92339	0.62419
1430.99482	0.62268
1429.06626	0.62154
1427.13770	0.62031
1425.20913	0.61993
1423.28057	0.62032
1421.35200	0.62070
1419.42344	0.62126
1417.49487	0.62079
1415.56631	0.61849
1413.63774	0.61642
1411.70918	0.61533
1409.78062	0.61490
1407.85205	0.61500
1405.92349	0.61573
1403.99492	0.61629
1402.06636	0.61611
1400.13779	0.61585
1398.20923	0.61546
1396.28066	0.61409
1394.35210	0.61116
1392.42354	0.60713
1390.49497	0.60365
1388.56641	0.60102
1386.63784	0.59797
1384.70928	0.59398
1382.78071	0.59022
1380.85215	0.58715
1378.92358	0.58474
1376.99502	0.58317
1375.06646	0.58229
1373.13789	0.58114
1371.20933	0.57963
1369.28076	0.57847
1367.35220	0.57731
1365.42363	0.57620
1363.49507	0.57576
1361.56650	0.57506
1359.63794	0.57323
1357.70937	0.57145
1355.78081	0.57025
1353.85225	0.56933
1351.92368	0.56856
1349.99512	0.56793
1348.06655	0.56716
1346.13799	0.56630
1344.20942	0.56564
1342.28086	0.56533
1340.35229	0.56542
1338.42373	0.56513
1336.49517	0.56388
1334.56660	0.56256
1332.63804	0.56184
1330.70947	0.56145
1328.78091	0.56112
1326.85234	0.56109
1324.92378	0.56133
1322.99521	0.56161
1321.06665	0.56197
1319.13809	0.56228
1317.20952	0.56206
1315.28096	0.56148
1313.35239	0.56096
1311.42383	0.56037
1309.49526	0.55961
1307.56670	0.55878
1305.63813	0.55800
1303.70957	0.55735
1301.78101	0.55670
1299.85244	0.55585
1297.92388	0.55493
1295.99531	0.55408
1294.06675	0.55318
1292.13818	0.55226
1290.20962	0.55147
1288.28105	0.55067
1286.35249	0.54960
1284.42393	0.54844
1282.49536	0.54747
1280.56680	0.54661
1278.63823	0.54570
1276.70967	0.54484
1274.78110	0.54413
1272.85254	0.54360
1270.92397	0.54309
1268.99541	0.54248
1267.06685	0.54188
1265.13828	0.54118
1263.20972	0.54037
1261.28115	0.53971
1259.35259	0.53923
1257.42402	0.53889
1255.49546	0.53873
1253.56689	0.53868
1251.63833	0.53859
1249.70977	0.53847
1247.78120	0.53839
1245.85264	0.53822
1243.92407	0.53776
1241.99551	0.53713
1240.06694	0.53634
1238.13838	0.53533
1236.20981	0.53415
1234.28125	0.53280
1232.35269	0.53125
1230.42412	0.52971
1228.49556	0.52837
1226.56699	0.52715
1224.63843	0.52600
1222.70986	0.52497
1220.78130	0.52397
1218.85273	0.52291
1216.92417	0.52186
1214.99561	0.52094
1213.06704	0.52025
1211.13848	0.51966
1209.20991	0.51890
1207.28135	0.51810
1205.35278	0.51742
1203.42422	0.51677
1201.49565	0.51597
1199.56709	0.51518
1197.63853	0.51460
1195.70996	0.51419
1193.78140	0.51383
1191.85283	0.51352
1189.92427	0.51327
1187.99570	0.51296
1186.06714	0.51259
1184.13857	0.51249
1182.21001	0.51274
1180.28145	0.51317
1178.35288	0.51384
1176.42432	0.51482
1174.49575	0.51565
1172.56719	0.51601
1170.63862	0.51610
1168.71006	0.51611
1166.78149	0.51602
1164.85293	0.51581
1162.92437	0.51558
1160.99580	0.51535
1159.06724	0.51492
1157.13867	0.51417
1155.21011	0.51313
1153.28154	0.51194
1151.35298	0.51051
1149.42441	0.50867
1147.49585	0.50659
1145.56729	0.50436
1143.63872	0.50198
1141.71016	0.49968
1139.78159	0.49776
1137.85303	0.49622
1135.92446	0.49479
1133.99590	0.49353
1132.06733	0.49274
1130.13877	0.49226
1128.21021	0.49158
1126.28164	0.49070
1124.35308	0.48981
1122.42451	0.48888
1120.49595	0.48802
1118.56738	0.48745
1116.63882	0.48725
1114.71025	0.48730
1112.78169	0.48727
1110.85312	0.48733
1108.92456	0.48785
1106.99600	0.48864
1105.06743	0.48966
1103.13887	0.49111
1101.21030	0.49290
1099.28174	0.49500
1097.35317	0.49758
1095.42461	0.50072
1093.49604	0.50422
1091.56748	0.50807
1089.63892	0.51268
1087.71035	0.51821
1085.78179	0.52445
1083.85322	0.53119
1081.92466	0.53768
1079.99609	0.54280
1078.06753	0.54604
1076.13896	0.54709
1074.21040	0.54553
1072.28184	0.54153
1070.35327	0.53565
1068.42471	0.52883
1066.49614	0.52202
1064.56758	0.51576
1062.63901	0.51021
1060.71045	0.50520
1058.78188	0.50061
1056.85332	0.49662
1054.92476	0.49328
1052.99619	0.49026
1051.06763	0.48746
1049.13906	0.48520
1047.21050	0.48355
1045.28193	0.48218
1043.35337	0.48076
1041.42480	0.47944
1039.49624	0.47859
1037.56768	0.47806
1035.63911	0.47756
1033.71055	0.47701
1031.78198	0.47659
1029.85342	0.47633
1027.92485	0.47604
1025.99629	0.47591
1024.06772	0.47598
1022.13916	0.47602
1020.21060	0.47624
1018.28203	0.47684
1016.35347	0.47757
1014.42490	0.47838
1012.49634	0.47956
1010.56777	0.48120
1008.63921	0.48310
1006.71064	0.48500
1004.78208	0.48694
1002.85352	0.48919
1000.92495	0.49183
998.99639	0.49490
997.06782	0.49851
995.13926	0.50244
993.21069	0.50628
991.28213	0.50964
989.35356	0.51214
987.42500	0.51367
985.49644	0.51443
983.56787	0.51498
981.63931	0.51593
979.71074	0.51736
977.78218	0.51906
975.85361	0.52108
973.92505	0.52362
971.99648	0.52668
970.06792	0.53015
968.13936	0.53396
966.21079	0.53790
964.28223	0.54190
962.35366	0.54624
960.42510	0.55105
958.49653	0.55635
956.56797	0.56201
954.63940	0.56791
952.71084	0.57387
950.78228	0.57992
948.85371	0.58632
946.92515	0.59279
944.99658	0.59900
943.06802	0.60493
941.13945	0.61059
939.21089	0.61604
937.28232	0.62151
935.35376	0.62709
933.42520	0.63250
931.49663	0.63780
929.56807	0.64322
927.63950	0.64888
925.71094	0.65481
923.78237	0.66049
921.85381	0.66597
919.92524	0.67270
917.99668	0.68041
916.06812	0.68754
914.13955	0.69427
912.21099	0.70128
910.28242	0.70859
908.35386	0.71621
906.42529	0.72422
904.49673	0.73261
902.56816	0.74106
900.63960	0.74987
898.71104	0.75946
896.78247	0.76926
894.85391	0.77909
892.92534	0.78914
890.99678	0.79887
889.06821	0.80849
887.13965	0.81847
885.21108	0.82884
883.28252	0.83999
881.35396	0.85192
879.42539	0.86400
877.49683	0.87494
875.56826	0.88441
873.63970	0.89398
871.71113	0.90448
869.78257	0.91559
867.85400	0.92723
865.92544	0.93879
863.99687	0.94940
862.06831	0.95896
860.13975	0.96857
858.21118	0.97944
856.28262	0.99056
854.35405	1.00108
852.42549	1.01150
850.49692	1.02324
848.56836	1.03744
846.63979	1.05150
844.71123	1.06268
842.78267	1.07155
840.85410	1.07992
838.92554	1.08875
836.99697	1.09856
835.06841	1.10877
833.13984	1.11728
831.21128	1.12409
829.28271	1.13120
827.35415	1.14015
825.42559	1.14914
823.49702	1.15616
821.56846	1.16142
819.63989	1.16398
817.71133	1.16661
815.78276	1.17323
813.85420	1.18117
811.92563	1.18967
809.99707	1.20149
808.06851	1.21365
806.13994	1.22112
804.21138	1.21860
802.28281	1.20433
800.35425	1.18606
798.42568	1.17799
796.49712	1.17925
794.56855	1.17269
792.63999	1.16697
790.71143	1.17394
788.78286	1.17543
786.85430	1.16309
784.92573	1.14270
782.99717	1.11632
781.06860	1.09599
779.14004	1.08947
777.21147	1.09520
775.28291	1.11199
773.35435	1.14740
771.42578	1.18152
769.49722	1.16249
767.56865	1.12170
765.64009	1.07985
763.71152	1.01618
761.78296	0.95943
759.85439	0.92861
757.92583	0.90346
755.99727	0.87930
754.06870	0.86622
752.14014	0.85208
750.21157	0.83611
748.28301	0.81657
746.35444	0.77505
744.42588	0.72794
742.49731	0.69170
740.56875	0.64166
738.64019	0.58042
736.71162	0.53335
734.78306	0.48390
732.85449	0.41310
730.92593	0.31802
728.99736	0.21671
727.06880	0.14268
725.14023	0.06594
723.21167	-0.01940
721.28311	-0.08498
719.35454	-0.14591
717.42598	-0.22028
715.49741	-0.25260
713.56885	-0.20253
711.64028	-0.18202
709.71172	-0.27426
707.78315	-0.37385
705.85459	-0.34954
703.92603	-0.25689
701.99746	-0.19148
700.06890	-0.14269
698.14033	-0.09139
696.21177	-0.04431
694.28320	-0.03509
692.35464	-0.08164
690.42607	-0.16247
688.49751	-0.18482
686.56895	-0.11701
684.64038	-0.05045
682.71182	-0.03463
680.78325	-0.04605
678.85469	-0.06049
676.92612	-0.08784
674.99756	-0.09330
673.06899	-0.06825
671.14043	-0.06282
669.21187	-0.06444
667.28330	-0.07579
665.35474	-0.10332
663.42617	-0.09851
661.49761	-0.08823
659.56904	-0.09947
657.64048	-0.11579
655.71191	-0.13946
653.78335	-0.16624
651.85479	-0.15778
649.92622	-0.08509
647.99766	-0.02612
646.06909	-0.04289
644.14053	-0.10141
642.21196	-0.15013
640.28340	-0.15376
638.35483	-0.13367
636.42627	-0.15745
634.49771	-0.20580
632.56914	-0.19988
630.64058	-0.16376
628.71201	-0.15874
626.78345	-0.13715
624.85488	-0.09058
622.92632	-0.07273
620.99775	-0.10629
619.06919	-0.16119
617.14062	-0.20964
615.21206	-0.20241
613.28350	-0.11687
611.35493	-0.05964
609.42637	-0.07858
607.49780	-0.10540
605.56924	-0.04845
603.64067	0.01053
601.71211	0.01487
599.78354	0.01408
597.85498	0.00061
595.92642	-0.00639
593.99785	0.02116
592.06929	0.03530
590.14072	0.02094
588.21216	-0.01255
586.28359	-0.06378
584.35503	-0.10496
582.42646	-0.11795
580.49790	-0.11506
578.56934	-0.08179
576.64077	-0.02570
574.71221	0.00870
572.78364	0.01164
570.85508	-0.00864
568.92651	-0.04272
566.99795	-0.05063
565.06938	-0.02446
563.14082	0.02203
561.21226	0.07330
559.28369	0.07092
557.35513	0.04334
555.42656	0.03806
553.49800	0.03307
551.56943	0.01831
549.64087	0.00400
547.71230	-0.00664
545.78374	-0.00172
543.85518	-0.00428
541.92661	-0.03848
539.99805	-0.07454
538.06948	-0.08552
536.14092	-0.06388
534.21235	-0.02610
532.28379	-0.00711
530.35522	0.00013
528.42666	0.00647
526.49810	0.00063
524.56953	-0.03181
522.64097	-0.06661
520.71240	-0.05405
518.78384	0.00079
516.85527	0.02471
514.92671	-0.00283
512.99814	-0.02699
511.06958	-0.03281
509.14102	-0.04903
507.21245	-0.04848
505.28389	-0.01653
503.35532	-0.00878
501.42676	-0.03410
499.49819	-0.05051
