3997.91411	0.06817
3995.98555	0.06868
3994.05698	0.06894
3992.12842	0.06888
3990.19985	0.06894
3988.27129	0.06938
3986.34272	0.06968
3984.41416	0.06985
3982.48560	0.07013
3980.55703	0.07039
3978.62847	0.07042
3976.69990	0.07039
3974.77134	0.07082
3972.84277	0.07161
3970.91421	0.07215
3968.98564	0.07220
3967.05708	0.07193
3965.12852	0.07175
3963.19995	0.07203
3961.27139	0.07236
3959.34282	0.07213
3957.41426	0.07196
3955.48569	0.07228
3953.55713	0.07264
3951.62856	0.07307
3949.70000	0.07369
3947.77144	0.07404
3945.84287	0.07405
3943.91431	0.07407
3941.98574	0.07398
3940.05718	0.07350
3938.12861	0.07306
3936.20005	0.07290
3934.27148	0.07278
3932.34292	0.07286
3930.41436	0.07334
3928.48579	0.07341
3926.55723	0.07303
3924.62866	0.07320
3922.70010	0.07354
3920.77153	0.07341
3918.84297	0.07334
3916.91440	0.07336
3914.98584	0.07314
3913.05728	0.07278
3911.12871	0.07249
3909.20015	0.07226
3907.27158	0.07226
3905.34302	0.07303
3903.41445	0.07459
3901.48589	0.07563
3899.55732	0.07525
3897.62876	0.07417
3895.70020	0.07334
3893.77163	0.07331
3891.84307	0.07391
3889.91450	0.07418
3887.98594	0.07387
3886.05737	0.07424
3884.12881	0.07509
3882.20024	0.07521
3880.27168	0.07516
3878.34312	0.07495
3876.41455	0.07441
3874.48599	0.07461
3872.55742	0.07571
3870.62886	0.07695
3868.70029	0.07738
3866.77173	0.07666
3864.84316	0.07645
3862.91460	0.07729
3860.98604	0.07785
3859.05747	0.07788
3857.12891	0.07831
3855.20034	0.07974
3853.27178	0.08196
3851.34321	0.08225
3849.41465	0.08031
3847.48608	0.07911
3845.55752	0.07917
3843.62896	0.08025
3841.70039	0.08187
3839.77183	0.08370
3837.84326	0.08560
3835.91470	0.08655
3833.98613	0.08640
3832.05757	0.08621
3830.12900	0.08624
3828.20044	0.08637
3826.27187	0.08698
3824.34331	0.08798
3822.41475	0.08927
3820.48618	0.09153
3818.55762	0.09316
3816.62905	0.09332
3814.70049	0.09340
3812.77192	0.09317
3810.84336	0.09285
3808.91479	0.09319
3806.98623	0.09475
3805.05767	0.09698
3803.12910	0.09884
3801.20054	0.10100
3799.27197	0.10250
3797.34341	0.10264
3795.41484	0.10310
3793.48628	0.10362
3791.55771	0.10387
3789.62915	0.10441
3787.70059	0.10555
3785.77202	0.10752
3783.84346	0.10981
3781.91489	0.11148
3779.98633	0.11305
3778.05776	0.11518
3776.12920	0.11656
3774.20063	0.11701
3772.27207	0.11820
3770.34351	0.12094
3768.41494	0.12385
3766.48638	0.12566
3764.55781	0.12757
3762.62925	0.12964
3760.70068	0.13170
3758.77212	0.13453
3756.84355	0.13746
3754.91499	0.13973
3752.98643	0.14265
3751.05786	0.14728
3749.12930	0.15165
3747.20073	0.15359
3745.27217	0.15557
3743.34360	0.15910
3741.41504	0.16263
3739.48647	0.16586
3737.55791	0.16998
3735.62935	0.17567
3733.70078	0.18208
3731.77222	0.18674
3729.84365	0.19001
3727.91509	0.19357
3725.98652	0.19882
3724.05796	0.20577
3722.12939	0.21314
3720.20083	0.22017
3718.27227	0.22671
3716.34370	0.23339
3714.41514	0.24077
3712.48657	0.25063
3710.55801	0.26499
3708.62944	0.27964
3706.70088	0.29103
3704.77231	0.30222
3702.84375	0.31576
3700.91519	0.33319
3698.98662	0.35210
3697.05806	0.37001
3695.12949	0.38884
3693.20093	0.40889
3691.27236	0.43100
3689.34380	0.45985
3687.41523	0.49541
3685.48667	0.52643
3683.55811	0.55278
3681.62954	0.58098
3679.70098	0.61303
3677.77241	0.64722
3675.84385	0.68789
3673.91528	0.74195
3671.98672	0.78584
3670.05815	0.82486
3668.12959	0.87837
3666.20103	0.92701
3664.27246	0.96762
3662.34390	1.01161
3660.41533	1.05947
3658.48677	1.10654
3656.55820	1.15656
3654.62964	1.21265
3652.70107	1.26004
3650.77251	1.30118
3648.84395	1.35785
3646.91538	1.42724
3644.98682	1.47739
3643.05825	1.51597
3641.12969	1.55663
3639.20112	1.60191
3637.27256	1.64685
3635.34399	1.68991
3633.41543	1.73347
3631.48687	1.77480
3629.55830	1.81553
3627.62974	1.86809
3625.70117	1.91960
3623.77261	1.95587
3621.84404	1.98976
3619.91548	2.02806
3617.98691	2.07368
3616.05835	2.11606
3614.12979	2.15151
3612.20122	2.19058
3610.27266	2.23013
3608.34409	2.26915
3606.41553	2.31086
3604.48696	2.34999
3602.55840	2.38514
3600.62983	2.42367
3598.70127	2.46563
3596.77271	2.50550
3594.84414	2.54551
3592.91558	2.58701
3590.98701	2.62488
3589.05845	2.65909
3587.12988	2.70122
3585.20132	2.75088
3583.27275	2.79451
3581.34419	2.83313
3579.41562	2.87339
3577.48706	2.91662
3575.55850	2.95901
3573.62993	2.99993
3571.70137	3.04013
3569.77280	3.08089
3567.84424	3.12559
3565.91567	3.17820
3563.98711	3.22716
3562.05854	3.26753
3560.12998	3.30841
3558.20142	3.35228
3556.27285	3.39753
3554.34429	3.44143
3552.41572	3.48604
3550.48716	3.53209
3548.55859	3.57719
3546.63003	3.62141
3544.70146	3.66729
3542.77290	3.71353
3540.84434	3.75910
3538.91577	3.80720
3536.98721	3.85687
3535.05864	3.90650
3533.13008	3.95372
3531.20151	3.99845
3529.27295	4.04456
3527.34438	4.09453
3525.41582	4.14312
3523.48726	4.18918
3521.55869	4.23939
3519.63013	4.29156
3517.70156	4.34303
3515.77300	4.39303
3513.84443	4.43742
3511.91587	4.47763
3509.98730	4.52088
3508.05874	4.56660
3506.13018	4.61117
3504.20161	4.65700
3502.27305	4.70523
3500.34448	4.75383
3498.41592	4.80279
3496.48735	4.85483
3494.55879	4.90962
3492.63022	4.96222
3490.70166	5.00573
3488.77310	5.04523
3486.84453	5.09201
3484.91597	5.14386
3482.98740	5.19385
3481.05884	5.23837
3479.13027	5.27956
3477.20171	5.32804
3475.27314	5.38507
3473.34458	5.43955
3471.41602	5.48522
3469.48745	5.52780
3467.55889	5.57277
3465.63032	5.61777
3463.70176	5.66361
3461.77319	5.71091
3459.84463	5.75907
3457.91606	5.80825
3455.98750	5.86139
3454.05894	5.91930
3452.13037	5.97112
3450.20181	6.01624
3448.27324	6.06966
3446.34468	6.13403
3444.41611	6.19737
3442.48755	6.25661
3440.55898	6.30241
3438.63042	6.33384
3436.70186	6.36950
3434.77329	6.41902
3432.84473	6.47702
3430.91616	6.53196
3428.98760	6.57854
3427.05903	6.61581
3425.13047	6.65866
3423.20190	6.71177
3421.27334	6.76989
3419.34478	6.81835
3417.41621	6.84997
3415.48765	6.88551
3413.55908	6.93342
3411.63052	7.00284
3409.70195	7.07072
3407.77339	7.10694
3405.84482	7.14609
3403.91626	7.21646
3401.98770	7.27303
3400.05913	7.28400
3398.13057	7.28693
3396.20200	7.34017
3394.27344	7.43973
3392.34487	7.50052
3390.41631	7.51821
3388.48774	7.54298
3386.55918	7.57193
3384.63062	7.58766
3382.70205	7.60308
3380.77349	7.62346
3378.84492	7.64873
3376.91636	7.67977
3374.98779	7.72669
3373.05923	7.79417
3371.13066	7.77548
3369.20210	7.68111
3367.27354	7.64427
3365.34497	7.70591
3363.41641	7.80796
3361.48784	7.88904
3359.55928	7.95126
3357.63071	7.97146
3355.70215	7.96799
3353.77358	7.98008
3351.84502	7.98248
3349.91646	7.94821
3347.98789	7.95238
3346.05933	8.02240
3344.13076	8.07202
3342.20220	8.04589
3340.27363	7.96718
3338.34507	7.92304
3336.41650	7.94438
3334.48794	8.01757
3332.55937	8.07300
3330.63081	8.07147
3328.70225	8.06835
3326.77368	8.08007
3324.84512	8.08650
3322.91655	8.09774
3320.98799	8.15590
3319.05942	8.19580
3317.13086	8.14865
3315.20229	8.06821
3313.27373	8.01745
3311.34517	8.01307
3309.41660	8.06871
3307.48804	8.15144
3305.55947	8.17784
3303.63091	8.17997
3301.70234	8.22575
3299.77378	8.30505
3297.84521	8.36964
3295.91665	8.39697
3293.98809	8.32024
3292.05952	8.17187
3290.13096	8.11744
3288.20239	8.14522
3286.27383	8.12726
3284.34526	8.08349
3282.41670	8.05422
3280.48813	7.99085
3278.55957	7.96136
3276.63101	8.02873
3274.70244	8.15273
3272.77388	8.24776
3270.84531	8.21478
3268.91675	8.15182
3266.98818	8.15544
3265.05962	8.12302
3263.13105	8.07804
3261.20249	8.14749
3259.27393	8.23142
3257.34536	8.20131
3255.41680	8.10953
3253.48823	8.04882
3251.55967	8.07364
3249.63110	8.12744
3247.70254	8.11668
3245.77397	8.08969
3243.84541	8.11234
3241.91685	8.11371
3239.98828	8.08021
3238.05972	8.05589
3236.13115	8.03016
3234.20259	8.01320
3232.27402	8.01527
3230.34546	8.00787
3228.41689	7.98514
3226.48833	7.98777
3224.55977	8.00830
3222.63120	8.00439
3220.70264	7.97510
3218.77407	7.94758
3216.84551	7.93070
3214.91694	7.90546
3212.98838	7.87811
3211.05981	7.89152
3209.13125	7.91910
3207.20269	7.88330
3205.27412	7.81184
3203.34556	7.79125
3201.41699	7.81362
3199.48843	7.76063
3197.55986	7.62487
3195.63130	7.54629
3193.70273	7.56435
3191.77417	7.57499
3189.84561	7.53884
3187.91704	7.50544
3185.98848	7.45785
3184.05991	7.41404
3182.13135	7.38592
3180.20278	7.30254
3178.27422	7.17857
3176.34565	7.07343
3174.41709	6.99771
3172.48853	6.96565
3170.55996	6.96310
3168.63140	6.94495
3166.70283	6.89148
3164.77427	6.81296
3162.84570	6.73336
3160.91714	6.64665
3158.98857	6.55258
3157.06001	6.48601
3155.13145	6.44672
3153.20288	6.39141
3151.27432	6.31836
3149.34575	6.25406
3147.41719	6.18768
3145.48862	6.11360
3143.56006	6.04589
3141.63149	5.98683
3139.70293	5.92113
3137.77437	5.83946
3135.84580	5.75476
3133.91724	5.68101
3131.98867	5.62051
3130.06011	5.55754
3128.13154	5.48409
3126.20298	5.41533
3124.27441	5.35205
3122.34585	5.28385
3120.41729	5.21173
3118.48872	5.13518
3116.56016	5.05591
3114.63159	4.98185
3112.70303	4.91328
3110.77446	4.84595
3108.84590	4.78066
3106.91733	4.71705
3104.98877	4.64889
3103.06021	4.57618
3101.13164	4.50621
3099.20308	4.44303
3097.27451	4.38271
3095.34595	4.31950
3093.41738	4.25185
3091.48882	4.18128
3089.56025	4.11338
3087.63169	4.05119
3085.70312	3.99022
3083.77456	3.92688
3081.84600	3.86319
3079.91743	3.80166
3077.98887	3.74151
3076.06030	3.68179
3074.13174	3.62412
3072.20317	3.56749
3070.27461	3.50849
3068.34604	3.44871
3066.41748	3.39101
3064.48892	3.33466
3062.56035	3.27958
3060.63179	3.22658
3058.70322	3.17376
3056.77466	3.11969
3054.84609	3.06606
3052.91753	3.01398
3050.98896	2.96324
3049.06040	2.91317
3047.13184	2.86333
3045.20327	2.81456
3043.27471	2.76695
3041.34614	2.71952
3039.41758	2.67266
3037.48901	2.62696
3035.56045	2.58160
3033.63188	2.53626
3031.70332	2.49125
3029.77476	2.44726
3027.84619	2.40470
3025.91763	2.36301
3023.98906	2.32193
3022.06050	2.28139
3020.13193	2.24129
3018.20337	2.20162
3016.27480	2.16214
3014.34624	2.12302
3012.41768	2.08471
3010.48911	2.04740
3008.56055	2.01101
3006.63198	1.97519
3004.70342	1.93988
3002.77485	1.90522
3000.84629	1.87111
2998.91772	1.83723
2996.98916	1.80353
2995.06060	1.77043
2993.13203	1.73851
2991.20347	1.70782
2989.27490	1.67749
2987.34634	1.64698
2985.41777	1.61665
2983.48921	1.58656
2981.56064	1.55658
2979.63208	1.52713
2977.70352	1.49859
2975.77495	1.47097
2973.84639	1.44373
2971.91782	1.41614
2969.98926	1.38836
2968.06069	1.36131
2966.13213	1.33541
2964.20356	1.31034
2962.27500	1.28580
2960.34644	1.26178
2958.41787	1.23834
2956.48931	1.21542
2954.56074	1.19299
2952.63218	1.17097
2950.70361	1.14903
2948.77505	1.12744
2946.84648	1.10664
2944.91792	1.08615
2942.98936	1.06544
2941.06079	1.04492
2939.13223	1.02478
2937.20366	1.00458
2935.27510	0.98439
2933.34653	0.96503
2931.41797	0.94690
2929.48940	0.92923
2927.56084	0.91148
2925.63228	0.89389
2923.70371	0.87700
2921.77515	0.86133
2919.84658	0.84635
2917.91802	0.83123
2915.98945	0.81649
2914.06089	0.80248
2912.13232	0.78878
2910.20376	0.77511
2908.27520	0.76132
2906.34663	0.74760
2904.41807	0.73431
2902.48950	0.72156
2900.56094	0.70918
2898.63237	0.69695
2896.70381	0.68515
2894.77524	0.67361
2892.84668	0.66184
2890.91812	0.65006
2888.98955	0.63890
2887.06099	0.62839
2885.13242	0.61770
2883.20386	0.60641
2881.27529	0.59536
2879.34673	0.58515
2877.41816	0.57525
2875.48960	0.56548
2873.56104	0.55594
2871.63247	0.54627
2869.70391	0.53646
2867.77534	0.52675
2865.84678	0.51706
2863.91821	0.50764
2861.98965	0.49877
2860.06108	0.49012
2858.13252	0.48148
2856.20396	0.47310
2854.27539	0.46512
2852.34683	0.45755
2850.41826	0.45033
2848.48970	0.44317
2846.56113	0.43603
2844.63257	0.42942
2842.70400	0.42339
2840.77544	0.41753
2838.84687	0.41179
2836.91831	0.40622
2834.98975	0.40066
2833.06118	0.39504
2831.13262	0.38954
2829.20405	0.38410
2827.27549	0.37854
2825.34692	0.37292
2823.41836	0.36734
2821.48979	0.36180
2819.56123	0.35641
2817.63267	0.35109
2815.70410	0.34576
2813.77554	0.34060
2811.84697	0.33563
2809.91841	0.33068
2807.98984	0.32572
2806.06128	0.32095
2804.13271	0.31630
2802.20415	0.31163
2800.27559	0.30699
2798.34702	0.30248
2796.41846	0.29817
2794.48989	0.29406
2792.56133	0.28996
2790.63276	0.28593
2788.70420	0.28207
2786.77563	0.27828
2784.84707	0.27456
2782.91851	0.27094
2780.98994	0.26734
2779.06138	0.26368
2777.13281	0.25999
2775.20425	0.25642
2773.27568	0.25299
2771.34712	0.24956
2769.41855	0.24629
2767.48999	0.24330
2765.56143	0.24033
2763.63286	0.23726
2761.70430	0.23431
2759.77573	0.23153
2757.84717	0.22879
2755.91860	0.22600
2753.99004	0.22321
2752.06147	0.22053
2750.13291	0.21794
2748.20435	0.21542
2746.27578	0.21298
2744.34722	0.21061
2742.41865	0.20808
2740.49009	0.20541
2738.56152	0.20299
2736.63296	0.20100
2734.70439	0.19910
2732.77583	0.19694
2730.84727	0.19470
2728.91870	0.19267
2726.99014	0.19080
2725.06157	0.18888
2723.13301	0.18691
2721.20444	0.18499
2719.27588	0.18313
2717.34731	0.18136
2715.41875	0.17968
2713.49019	0.17794
2711.56162	0.17623
2709.63306	0.17479
2707.70449	0.17344
2705.77593	0.17196
2703.84736	0.17044
2701.91880	0.16900
2699.99023	0.16760
2698.06167	0.16615
2696.13311	0.16472
2694.20454	0.16344
2692.27598	0.16229
2690.34741	0.16114
2688.41885	0.15994
2686.49028	0.15871
2684.56172	0.15749
2682.63315	0.15642
2680.70459	0.15554
2678.77603	0.15465
2676.84746	0.15368
2674.91890	0.15275
2672.99033	0.15183
2671.06177	0.15086
2669.13320	0.14993
2667.20464	0.14901
2665.27607	0.14811
2663.34751	0.14739
2661.41895	0.14690
2659.49038	0.14635
2657.56182	0.14560
2655.63325	0.14484
2653.70469	0.14433
2651.77612	0.14404
2649.84756	0.14360
2647.91899	0.14292
2645.99043	0.14230
2644.06187	0.14184
2642.13330	0.14147
2640.20474	0.14113
2638.27617	0.14074
2636.34761	0.14030
2634.41904	0.13995
2632.49048	0.13965
2630.56191	0.13938
2628.63335	0.13914
2626.70479	0.13882
2624.77622	0.13849
2622.84766	0.13839
2620.91909	0.13840
2618.99053	0.13834
2617.06196	0.13814
2615.13340	0.13797
2613.20483	0.13798
2611.27627	0.13797
2609.34771	0.13775
2607.41914	0.13762
2605.49058	0.13779
2603.56201	0.13795
2601.63345	0.13798
2599.70488	0.13816
2597.77632	0.13850
2595.84775	0.13866
2593.91919	0.13863
2591.99062	0.13866
2590.06206	0.13886
2588.13350	0.13923
2586.20493	0.13966
2584.27637	0.14003
2582.34780	0.14036
2580.41924	0.14065
2578.49067	0.14092
2576.56211	0.14129
2574.63354	0.14175
2572.70498	0.14218
2570.77642	0.14265
2568.84785	0.14315
2566.91929	0.14357
2564.99072	0.14390
2563.06216	0.14426
2561.13359	0.14468
2559.20503	0.14516
2557.27646	0.14570
2555.34790	0.14630
2553.41934	0.14698
2551.49077	0.14771
2549.56221	0.14831
2547.63364	0.14869
2545.70508	0.14907
2543.77651	0.14971
2541.84795	0.15054
2539.91938	0.15134
2537.99082	0.15205
2536.06226	0.15273
2534.13369	0.15346
2532.20513	0.15424
2530.27656	0.15501
2528.34800	0.15565
2526.41943	0.15621
2524.49087	0.15689
2522.56230	0.15783
2520.63374	0.15893
2518.70518	0.15992
2516.77661	0.16068
2514.84805	0.16134
2512.91948	0.16201
2510.99092	0.16278
2509.06235	0.16369
2507.13379	0.16462
2505.20522	0.16542
2503.27666	0.16617
2501.34810	0.16703
2499.41953	0.16802
2497.49097	0.16899
2495.56240	0.16990
2493.63384	0.17085
2491.70527	0.17184
2489.77671	0.17267
2487.84814	0.17334
2485.91958	0.17416
2483.99102	0.17521
2482.06245	0.17630
2480.13389	0.17727
2478.20532	0.17809
2476.27676	0.17889
2474.34819	0.17982
2472.41963	0.18094
2470.49106	0.18202
2468.56250	0.18296
2466.63394	0.18397
2464.70537	0.18506
2462.77681	0.18608
2460.84824	0.18700
2458.91968	0.18789
2456.99111	0.18888
2455.06255	0.18999
2453.13398	0.19112
2451.20542	0.19217
2449.27686	0.19310
2447.34829	0.19404
2445.41973	0.19503
2443.49116	0.19600
2441.56260	0.19702
2439.63403	0.19812
2437.70547	0.19918
2435.77690	0.20016
2433.84834	0.20118
2431.91978	0.20226
2429.99121	0.20337
2428.06265	0.20454
2426.13408	0.20572
2424.20552	0.20681
2422.27695	0.20788
2420.34839	0.20893
2418.41982	0.20997
2416.49126	0.21110
2414.56270	0.21229
2412.63413	0.21346
2410.70557	0.21469
2408.77700	0.21603
2406.84844	0.21733
2404.91987	0.21851
2402.99131	0.21958
2401.06274	0.22072
2399.13418	0.22202
2397.20562	0.22333
2395.27705	0.22462
2393.34849	0.22600
2391.41992	0.22740
2389.49136	0.22871
2387.56279	0.22999
2385.63423	0.23146
2383.70566	0.23342
2381.77710	0.23594
2379.84854	0.23877
2377.91997	0.24182
2375.99141	0.24514
2374.06284	0.24873
2372.13428	0.25244
2370.20571	0.25608
2368.27715	0.25984
2366.34858	0.26418
2364.42002	0.26847
2362.49146	0.27181
2360.56289	0.27456
2358.63433	0.27697
2356.70576	0.27801
2354.77720	0.27697
2352.84863	0.27474
2350.92007	0.27231
2348.99150	0.27091
2347.06294	0.27160
2345.13437	0.27490
2343.20581	0.27950
2341.27725	0.28276
2339.34868	0.28443
2337.42012	0.28555
2335.49155	0.28655
2333.56299	0.28732
2331.63442	0.28827
2329.70586	0.28964
2327.77729	0.29098
2325.84873	0.29178
2323.92017	0.29220
2321.99160	0.29282
2320.06304	0.29367
2318.13447	0.29419
2316.20591	0.29444
2314.27734	0.29507
2312.34878	0.29623
2310.42021	0.29737
2308.49165	0.29833
2306.56309	0.29947
2304.63452	0.30072
2302.70596	0.30193
2300.77739	0.30322
2298.84883	0.30460
2296.92026	0.30613
2294.99170	0.30789
2293.06313	0.30967
2291.13457	0.31119
2289.20601	0.31259
2287.27744	0.31410
2285.34888	0.31573
2283.42031	0.31751
2281.49175	0.31952
2279.56318	0.32163
2277.63462	0.32373
2275.70605	0.32583
2273.77749	0.32791
2271.84893	0.32991
2269.92036	0.33190
2267.99180	0.33394
2266.06323	0.33603
2264.13467	0.33812
2262.20610	0.34020
2260.27754	0.34233
2258.34897	0.34453
2256.42041	0.34664
2254.49185	0.34864
2252.56328	0.35065
2250.63472	0.35267
2248.70615	0.35478
2246.77759	0.35707
2244.84902	0.35929
2242.92046	0.36129
2240.99189	0.36327
2239.06333	0.36539
2237.13477	0.36765
2235.20620	0.36995
2233.27764	0.37219
2231.34907	0.37440
2229.42051	0.37667
2227.49194	0.37894
2225.56338	0.38114
2223.63481	0.38336
2221.70625	0.38563
2219.77769	0.38782
2217.84912	0.38998
2215.92056	0.39219
2213.99199	0.39433
2212.06343	0.39637
2210.13486	0.39845
2208.20630	0.40053
2206.27773	0.40261
2204.34917	0.40468
2202.42061	0.40670
2200.49204	0.40870
2198.56348	0.41078
2196.63491	0.41288
2194.70635	0.41492
2192.77778	0.41679
2190.84922	0.41849
2188.92065	0.42023
2186.99209	0.42208
2185.06353	0.42392
2183.13496	0.42575
2181.20640	0.42756
2179.27783	0.42930
2177.34927	0.43105
2175.42070	0.43275
2173.49214	0.43425
2171.56357	0.43557
2169.63501	0.43685
2167.70645	0.43819
2165.77788	0.43955
2163.84932	0.44078
2161.92075	0.44191
2159.99219	0.44306
2158.06362	0.44423
2156.13506	0.44532
2154.20649	0.44630
2152.27793	0.44723
2150.34937	0.44806
2148.42080	0.44872
2146.49224	0.44938
2144.56367	0.45004
2142.63511	0.45054
2140.70654	0.45083
2138.77798	0.45104
2136.84941	0.45124
2134.92085	0.45141
2132.99229	0.45152
2131.06372	0.45157
2129.13516	0.45151
2127.20659	0.45128
2125.27803	0.45100
2123.34946	0.45072
2121.42090	0.45050
2119.49233	0.45020
2117.56377	0.44969
2115.63521	0.44906
2113.70664	0.44845
2111.77808	0.44784
2109.84951	0.44705
2107.92095	0.44606
2105.99238	0.44492
2104.06382	0.44365
2102.13525	0.44233
2100.20669	0.44109
2098.27812	0.43985
2096.34956	0.43855
2094.42100	0.43722
2092.49243	0.43584
2090.56387	0.43435
2088.63530	0.43263
2086.70674	0.43083
2084.77817	0.42911
2082.84961	0.42737
2080.92104	0.42553
2078.99248	0.42370
2077.06392	0.42180
2075.13535	0.41969
2073.20679	0.41750
2071.27822	0.41534
2069.34966	0.41320
2067.42109	0.41103
2065.49253	0.40886
2063.56396	0.40658
2061.63540	0.40423
2059.70684	0.40186
2057.77827	0.39942
2055.84971	0.39699
2053.92114	0.39464
2051.99258	0.39224
2050.06401	0.38967
2048.13545	0.38703
2046.20688	0.38443
2044.27832	0.38188
2042.34976	0.37931
2040.42119	0.37670
2038.49263	0.37404
2036.56406	0.37128
2034.63550	0.36855
2032.70693	0.36591
2030.77837	0.36320
2028.84980	0.36043
2026.92124	0.35778
2024.99268	0.35511
2023.06411	0.35239
2021.13555	0.34975
2019.20698	0.34720
2017.27842	0.34457
2015.34985	0.34171
2013.42129	0.33881
2011.49272	0.33606
2009.56416	0.33337
2007.63560	0.33060
2005.70703	0.32781
2003.77847	0.32514
2001.84990	0.32258
1999.92134	0.31999
1997.99277	0.31741
1996.06421	0.31489
1994.13564	0.31246
1992.20708	0.31006
1990.27852	0.30755
1988.34995	0.30496
1986.42139	0.30241
1984.49282	0.30001
1982.56426	0.29770
1980.63569	0.29536
1978.70713	0.29299
1976.77856	0.29061
1974.85000	0.28833
1972.92144	0.28620
1970.99287	0.28415
1969.06431	0.28215
1967.13574	0.28017
1965.20718	0.27813
1963.27861	0.27607
1961.35005	0.27403
1959.42148	0.27205
1957.49292	0.27020
1955.56436	0.26843
1953.63579	0.26665
1951.70723	0.26487
1949.77866	0.26321
1947.85010	0.26166
1945.92153	0.26018
1943.99297	0.25881
1942.06440	0.25737
1940.13584	0.25570
1938.20728	0.25406
1936.27871	0.25261
1934.35015	0.25128
1932.42158	0.25002
1930.49302	0.24879
1928.56445	0.24763
1926.63589	0.24655
1924.70732	0.24563
1922.77876	0.24478
1920.85020	0.24379
1918.92163	0.24279
1916.99307	0.24178
1915.06450	0.24073
1913.13594	0.23983
1911.20737	0.23920
1909.27881	0.23858
1907.35024	0.23783
1905.42168	0.23708
1903.49312	0.23646
1901.56455	0.23589
1899.63599	0.23527
1897.70742	0.23473
1895.77886	0.23432
1893.85029	0.23397
1891.92173	0.23362
1889.99316	0.23341
1888.06460	0.23311
1886.13604	0.23267
1884.20747	0.23240
1882.27891	0.23231
1880.35034	0.23224
1878.42178	0.23210
1876.49321	0.23198
1874.56465	0.23195
1872.63608	0.23211
1870.70752	0.23252
1868.77896	0.23330
1866.85039	0.23367
1864.92183	0.23332
1862.99326	0.23307
1861.06470	0.23313
1859.13613	0.23344
1857.20757	0.23384
1855.27900	0.23429
1853.35044	0.23473
1851.42187	0.23521
1849.49331	0.23573
1847.56475	0.23644
1845.63618	0.23749
1843.70762	0.23867
1841.77905	0.23934
1839.85049	0.23960
1837.92192	0.24022
1835.99336	0.24112
1834.06479	0.24209
1832.13623	0.24319
1830.20767	0.24472
1828.27910	0.24621
1826.35054	0.24719
1824.42197	0.24838
1822.49341	0.24964
1820.56484	0.25080
1818.63628	0.25207
1816.70771	0.25359
1814.77915	0.25515
1812.85059	0.25697
1810.92202	0.25916
1808.99346	0.26125
1807.06489	0.26309
1805.13633	0.26495
1803.20776	0.26713
1801.27920	0.26965
1799.35063	0.27248
1797.42207	0.27504
1795.49351	0.27749
1793.56494	0.28037
1791.63638	0.28396
1789.70781	0.28727
1787.77925	0.28976
1785.85068	0.29282
1783.92212	0.29646
1781.99355	0.30037
1780.06499	0.30455
1778.13643	0.30886
1776.20786	0.31297
1774.27930	0.31747
1772.35073	0.32349
1770.42217	0.32977
1768.49360	0.33493
1766.56504	0.33991
1764.63647	0.34508
1762.70791	0.35090
1760.77935	0.35827
1758.85078	0.36519
1756.92222	0.37219
1754.99365	0.37978
1753.06509	0.38670
1751.13652	0.39518
1749.20796	0.40599
1747.27939	0.41653
1745.35083	0.42567
1743.42227	0.43521
1741.49370	0.44565
1739.56514	0.45795
1737.63657	0.47039
1735.70801	0.48145
1733.77944	0.49806
1731.85088	0.51773
1729.92231	0.53319
1727.99375	0.54891
1726.06519	0.56599
1724.13662	0.58465
1722.20806	0.60465
1720.27949	0.62314
1718.35093	0.64478
1716.42236	0.67640
1714.49380	0.70631
1712.56523	0.73065
1710.63667	0.75440
1708.70811	0.78006
1706.77954	0.80910
1704.85098	0.84331
1702.92241	0.87362
1700.99385	0.90356
1699.06528	0.94806
1697.13672	0.98861
1695.20815	1.02949
1693.27959	1.06907
1691.35103	1.10084
1689.42246	1.13735
1687.49390	1.17566
1685.56533	1.21245
1683.63677	1.26789
1681.70820	1.32458
1679.77964	1.36130
1677.85107	1.39675
1675.92251	1.43746
1673.99395	1.48717
1672.06538	1.53098
1670.13682	1.57359
1668.20825	1.62800
1666.27969	1.67086
1664.35112	1.70613
1662.42256	1.74993
1660.49399	1.79923
1658.56543	1.83812
1656.63687	1.87056
1654.70830	1.90209
1652.77974	1.95491
1650.85117	2.00771
1648.92261	2.03050
1646.99404	2.06121
1645.06548	2.09717
1643.13691	2.12025
1641.20835	2.13392
1639.27979	2.14586
1637.35122	2.15424
1635.42266	2.15810
1633.49409	2.15659
1631.56553	2.14791
1629.63696	2.13540
1627.70840	2.11406
1625.77983	2.08888
1623.85127	2.05585
1621.92271	2.01315
1619.99414	1.97300
1618.06558	1.93174
1616.13701	1.87226
1614.20845	1.81233
1612.27988	1.76721
1610.35132	1.72003
1608.42275	1.66801
1606.49419	1.61543
1604.56562	1.56676
1602.63706	1.51986
1600.70850	1.47298
1598.77993	1.42917
1596.85137	1.38814
1594.92280	1.34832
1592.99424	1.30951
1591.06567	1.27375
1589.13711	1.24020
1587.20854	1.20833
1585.27998	1.17787
1583.35142	1.14877
1581.42285	1.12195
1579.49429	1.09879
1577.56572	1.07745
1575.63716	1.05068
1573.70859	1.02646
1571.78003	1.01017
1569.85146	0.99229
1567.92290	0.97164
1565.99434	0.95513
1564.06577	0.94071
1562.13721	0.92829
1560.20864	0.91786
1558.28008	0.89948
1556.35151	0.88123
1554.42295	0.86969
1552.49438	0.85868
1550.56582	0.84819
1548.63726	0.83772
1546.70869	0.82852
1544.78013	0.82054
1542.85156	0.81304
1540.92300	0.80471
1538.99443	0.79240
1537.06587	0.78292
1535.13730	0.77679
1533.20874	0.76950
1531.28018	0.76169
1529.35161	0.75585
1527.42305	0.75031
1525.49448	0.74452
1523.56592	0.73922
1521.63735	0.73364
1519.70879	0.72733
1517.78022	0.72172
1515.85166	0.71593
1513.92310	0.71040
1511.99453	0.70614
1510.06597	0.70280
1508.13740	0.70008
1506.20884	0.69515
1504.28027	0.68920
1502.35171	0.68535
1500.42314	0.68233
1498.49458	0.67946
1496.56602	0.67608
1494.63745	0.67234
1492.70889	0.66927
1490.78032	0.66679
1488.85176	0.66385
1486.92319	0.66027
1484.99463	0.65679
1483.06606	0.65374
1481.13750	0.65092
1479.20894	0.64820
1477.28037	0.64578
1475.35181	0.64365
1473.42324	0.64137
1471.49468	0.63774
1469.56611	0.63389
1467.63755	0.63109
1465.70898	0.62882
1463.78042	0.62650
1461.85186	0.62448
1459.92329	0.62321
1457.99473	0.62214
1456.06616	0.61952
1454.13760	0.61623
1452.20903	0.61384
1450.28047	0.61183
1448.35190	0.60998
1446.42334	0.60820
1444.49478	0.60661
1442.56621	0.60518
1440.63765	0.60371
1438.70908	0.60240
1436.78052	0.60135
1434.85195	0.60013
1432.92339	0.59856
1430.99482	0.59698
1429.06626	0.59537
1427.13770	0.59384
1425.20913	0.59249
1423.28057	0.59108
1421.35200	0.58975
1419.42344	0.58867
1417.49487	0.58730
1415.56631	0.58542
1413.63774	0.58364
1411.70918	0.58209
1409.78062	0.58072
1407.85205	0.57954
1405.92349	0.57855
1403.99492	0.57744
1402.06636	0.57614
1400.13779	0.57490
1398.20923	0.57381
1396.28066	0.57274
1394.35210	0.57138
1392.42354	0.56971
1390.49497	0.56821
1388.56641	0.56708
1386.63784	0.56614
1384.70928	0.56502
1382.78071	0.56373
1380.85215	0.56246
1378.92358	0.56143
1376.99502	0.56069
1375.06646	0.55998
1373.13789	0.55902
1371.20933	0.55795
1369.28076	0.55695
1367.35220	0.55592
1365.42363	0.55499
1363.49507	0.55426
1361.56650	0.55342
1359.63794	0.55245
1357.70937	0.55159
1355.78081	0.55079
1353.85225	0.54995
1351.92368	0.54909
1349.99512	0.54820
1348.06655	0.54729
1346.13799	0.54644
1344.20942	0.54563
1342.28086	0.54489
1340.35229	0.54428
1338.42373	0.54359
1336.49517	0.54264
1334.56660	0.54160
1332.63804	0.54066
1330.70947	0.53988
1328.78091	0.53919
1326.85234	0.53844
1324.92378	0.53767
1322.99521	0.53697
1321.06665	0.53625
1319.13809	0.53549
1317.20952	0.53466
1315.28096	0.53382
1313.35239	0.53304
1311.42383	0.53230
1309.49526	0.53153
1307.56670	0.53075
1305.63813	0.53004
1303.70957	0.52945
1301.78101	0.52895
1299.85244	0.52834
1297.92388	0.52759
1295.99531	0.52695
1294.06675	0.52641
1292.13818	0.52567
1290.20962	0.52479
1288.28105	0.52419
1286.35249	0.52387
1284.42393	0.52352
1282.49536	0.52312
1280.56680	0.52277
1278.63823	0.52229
1276.70967	0.52173
1274.78110	0.52129
1272.85254	0.52102
1270.92397	0.52072
1268.99541	0.52014
1267.06685	0.51949
1265.13828	0.51906
1263.20972	0.51876
1261.28115	0.51851
1259.35259	0.51826
1257.42402	0.51795
1255.49546	0.51777
1253.56689	0.51775
1251.63833	0.51762
1249.70977	0.51745
1247.78120	0.51734
1245.85264	0.51709
1243.92407	0.51675
1241.99551	0.51649
1240.06694	0.51617
1238.13838	0.51566
1236.20981	0.51498
1234.28125	0.51429
1232.35269	0.51383
1230.42412	0.51344
1228.49556	0.51285
1226.56699	0.51222
1224.63843	0.51170
1222.70986	0.51111
1220.78130	0.51044
1218.85273	0.50992
1216.92417	0.50947
1214.99561	0.50897
1213.06704	0.50849
1211.13848	0.50796
1209.20991	0.50739
1207.28135	0.50686
1205.35278	0.50630
1203.42422	0.50568
1201.49565	0.50505
1199.56709	0.50451
1197.63853	0.50401
1195.70996	0.50351
1193.78140	0.50310
1191.85283	0.50275
1189.92427	0.50248
1187.99570	0.50234
1186.06714	0.50216
1184.13857	0.50190
1182.21001	0.50170
1180.28145	0.50168
1178.35288	0.50194
1176.42432	0.50243
1174.49575	0.50292
1172.56719	0.50327
1170.63862	0.50356
1168.71006	0.50386
1166.78149	0.50402
1164.85293	0.50392
1162.92437	0.50381
1160.99580	0.50375
1159.06724	0.50351
1157.13867	0.50308
1155.21011	0.50240
1153.28154	0.50129
1151.35298	0.49994
1149.42441	0.49848
1147.49585	0.49674
1145.56729	0.49468
1143.63872	0.49247
1141.71016	0.49035
1139.78159	0.48827
1137.85303	0.48601
1135.92446	0.48352
1133.99590	0.48124
1132.06733	0.47958
1130.13877	0.47841
1128.21021	0.47723
1126.28164	0.47584
1124.35308	0.47446
1122.42451	0.47322
1120.49595	0.47231
1118.56738	0.47191
1116.63882	0.47180
1114.71025	0.47192
1112.78169	0.47231
1110.85312	0.47276
1108.92456	0.47335
1106.99600	0.47431
1105.06743	0.47552
1103.13887	0.47689
1101.21030	0.47864
1099.28174	0.48079
1097.35317	0.48323
1095.42461	0.48615
1093.49604	0.48973
1091.56748	0.49386
1089.63892	0.49850
1087.71035	0.50370
1085.78179	0.50955
1083.85322	0.51598
1081.92466	0.52252
1079.99609	0.52826
1078.06753	0.53208
1076.13896	0.53325
1074.21040	0.53172
1072.28184	0.52778
1070.35327	0.52217
1068.42471	0.51582
1066.49614	0.50943
1064.56758	0.50336
1062.63901	0.49779
1060.71045	0.49280
1058.78188	0.48852
1056.85332	0.48483
1054.92476	0.48148
1052.99619	0.47836
1051.06763	0.47559
1049.13906	0.47337
1047.21050	0.47174
1045.28193	0.47054
1043.35337	0.46959
1041.42480	0.46878
1039.49624	0.46806
1037.56768	0.46739
1035.63911	0.46701
1033.71055	0.46696
1031.78198	0.46705
1029.85342	0.46722
1027.92485	0.46750
1025.99629	0.46791
1024.06772	0.46865
1022.13916	0.46962
1020.21060	0.47047
1018.28203	0.47130
1016.35347	0.47223
1014.42490	0.47326
1012.49634	0.47446
1010.56777	0.47592
1008.63921	0.47764
1006.71064	0.47936
1004.78208	0.48117
1002.85352	0.48351
1000.92495	0.48637
998.99639	0.48943
997.06782	0.49279
995.13926	0.49644
993.21069	0.49999
991.28213	0.50310
989.35356	0.50565
987.42500	0.50747
985.49644	0.50866
983.56787	0.50977
981.63931	0.51111
979.71074	0.51260
977.78218	0.51428
975.85361	0.51644
973.92505	0.51927
971.99648	0.52256
970.06792	0.52600
968.13936	0.52956
966.21079	0.53357
964.28223	0.53822
962.35366	0.54323
960.42510	0.54824
958.49653	0.55334
956.56797	0.55883
954.63940	0.56467
952.71084	0.57067
950.78228	0.57681
948.85371	0.58316
946.92515	0.58968
944.99658	0.59628
943.06802	0.60267
941.13945	0.60861
939.21089	0.61429
937.28232	0.61981
935.35376	0.62494
933.42520	0.62970
931.49663	0.63459
929.56807	0.64012
927.63950	0.64617
925.71094	0.65232
923.78237	0.65839
921.85381	0.66434
919.92524	0.67047
917.99668	0.67732
916.06812	0.68457
914.13955	0.69164
912.21099	0.69888
910.28242	0.70694
908.35386	0.71530
906.42529	0.72336
904.49673	0.73171
902.56816	0.74057
900.63960	0.74965
898.71104	0.75909
896.78247	0.76926
894.85391	0.77941
892.92534	0.78914
890.99678	0.79939
889.06821	0.80969
887.13965	0.81988
885.21108	0.83111
883.28252	0.84257
881.35396	0.85311
879.42539	0.86351
877.49683	0.87507
875.56826	0.88799
873.63970	0.90013
871.71113	0.91103
869.78257	0.92280
867.85400	0.93500
865.92544	0.94537
863.99687	0.95396
862.06831	0.96355
860.13975	0.97520
858.21118	0.98750
856.28262	0.99958
854.35405	1.01084
852.42549	1.02162
850.49692	1.03273
848.56836	1.04380
846.63979	1.05428
844.71123	1.06522
842.78267	1.07697
840.85410	1.08762
838.92554	1.09671
836.99697	1.10560
835.06841	1.11511
833.13984	1.12529
831.21128	1.13545
829.28271	1.14637
827.35415	1.15790
825.42559	1.16554
823.49702	1.17241
821.56846	1.18985
819.63989	1.21528
817.71133	1.23058
815.78276	1.23506
813.85420	1.24106
811.92563	1.25107
809.99707	1.26847
808.06851	1.28515
806.13994	1.28586
804.21138	1.28376
802.28281	1.29652
800.35425	1.30240
798.42568	1.28025
796.49712	1.26449
794.56855	1.27983
792.63999	1.31393
790.71143	1.34760
788.78286	1.35776
786.85430	1.34466
784.92573	1.33577
782.99717	1.35437
781.06860	1.39310
779.14004	1.38834
777.21147	1.32988
775.28291	1.26493
773.35435	1.23423
771.42578	1.26294
769.49722	1.32589
767.56865	1.37572
765.64009	1.33820
763.71152	1.24486
761.78296	1.18912
759.85439	1.19010
757.92583	1.19792
755.99727	1.19774
754.06870	1.27112
752.14014	1.37112
750.21157	1.28289
748.28301	1.16620
746.35444	1.07280
744.42588	0.95844
742.49731	0.89964
740.56875	0.87453
738.64019	0.80215
736.71162	0.73234
734.78306	0.76099
732.85449	0.91140
730.92593	1.10580
728.99736	0.92149
727.06880	0.58582
725.14023	0.36467
723.21167	0.22592
721.28311	0.14271
719.35454	0.05427
717.42598	-0.02357
715.49741	-0.00387
713.56885	0.06365
711.64028	0.02637
709.71172	-0.05147
707.78315	-0.08874
705.85459	-0.06990
703.92603	0.00219
701.99746	0.08716
700.06890	0.13459
698.14033	0.13862
696.21177	0.15767
694.28320	0.19407
692.35464	0.20741
690.42607	0.19214
688.49751	0.19491
686.56895	0.20224
684.64038	0.18572
682.71182	0.16919
680.78325	0.18950
678.85469	0.23957
676.92612	0.25605
674.99756	0.25346
673.06899	0.24371
671.14043	0.16031
669.21187	0.09311
667.28330	0.08734
665.35474	0.11363
663.42617	0.15722
661.49761	0.13859
659.56904	0.08921
657.64048	0.08948
655.71191	0.11480
653.78335	0.10230
651.85479	0.06081
649.92622	0.07504
647.99766	0.13855
646.06909	0.19352
644.14053	0.13457
642.21196	0.02521
640.28340	0.01044
638.35483	0.08862
636.42627	0.16039
634.49771	0.12246
632.56914	0.07764
630.64058	0.13795
628.71201	0.14533
626.78345	0.10227
624.85488	0.13366
622.92632	0.16949
620.99775	0.14596
619.06919	0.08717
617.14062	0.01592
615.21206	0.01646
613.28350	0.12778
611.35493	0.20635
609.42637	0.18363
607.49780	0.09815
605.56924	0.07188
603.64067	0.13015
601.71211	0.21114
599.78354	0.28346
597.85498	0.29442
595.92642	0.22706
593.99785	0.20252
592.06929	0.20116
590.14072	0.19235
588.21216	0.22286
586.28359	0.30920
584.35503	0.35497
582.42646	0.31521
580.49790	0.27581
578.56934	0.22788
576.64077	0.18524
574.71221	0.18016
572.78364	0.19431
570.85508	0.20187
568.92651	0.17297
566.99795	0.14250
565.06938	0.15857
563.14082	0.19230
561.21226	0.21101
559.28369	0.21551
557.35513	0.18848
555.42656	0.15639
553.49800	0.16118
551.56943	0.18488
549.64087	0.19844
547.71230	0.20422
545.78374	0.22274
543.85518	0.23971
541.92661	0.20429
539.99805	0.12818
538.06948	0.11170
536.14092	0.19498
534.21235	0.26265
532.28379	0.21665
530.35522	0.17378
528.42666	0.17883
526.49810	0.20032
524.56953	0.18328
522.64097	0.16300
520.71240	0.20651
518.78384	0.24853
516.85527	0.21744
514.92671	0.20591
512.99814	0.23088
511.06958	0.23331
509.14102	0.25134
507.21245	0.36405
505.28389	0.39304
503.35532	0.25397
501.42676	0.15471
499.49819	0.12337
