3997.91411	0.06707
3995.98555	0.06795
3994.05698	0.06855
3992.12842	0.06876
3990.19985	0.06901
3988.27129	0.06938
3986.34272	0.06949
3984.41416	0.06949
3982.48560	0.06974
3980.55703	0.06992
3978.62847	0.07011
3976.69990	0.07071
3974.77134	0.07134
3972.84277	0.07148
3970.91421	0.07117
3968.98564	0.07093
3967.05708	0.07109
3965.12852	0.07141
3963.19995	0.07176
3961.27139	0.07205
3959.34282	0.07204
3957.41426	0.07194
3955.48569	0.07194
3953.55713	0.07201
3951.62856	0.07266
3949.70000	0.07404
3947.77144	0.07514
3945.84287	0.07511
3943.91431	0.07487
3941.98574	0.07492
3940.05718	0.07430
3938.12861	0.07329
3936.20005	0.07298
3934.27148	0.07360
3932.34292	0.07482
3930.41436	0.07566
3928.48579	0.07542
3926.55723	0.07505
3924.62866	0.07541
3922.70010	0.07573
3920.77153	0.07543
3918.84297	0.07529
3916.91440	0.07523
3914.98584	0.07427
3913.05728	0.07273
3911.12871	0.07162
3909.20015	0.07123
3907.27158	0.07214
3905.34302	0.07515
3903.41445	0.07917
3901.48589	0.08101
3899.55732	0.08000
3897.62876	0.07761
3895.70020	0.07523
3893.77163	0.07484
3891.84307	0.07639
3889.91450	0.07670
3887.98594	0.07541
3886.05737	0.07607
3884.12881	0.07834
3882.20024	0.07955
3880.27168	0.07985
3878.34312	0.07868
3876.41455	0.07713
3874.48599	0.07799
3872.55742	0.08046
3870.62886	0.08225
3868.70029	0.08252
3866.77173	0.08174
3864.84316	0.08204
3862.91460	0.08288
3860.98604	0.08172
3859.05747	0.08023
3857.12891	0.08096
3855.20034	0.08395
3853.27178	0.08845
3851.34321	0.08976
3849.41465	0.08580
3847.48608	0.08238
3845.55752	0.08163
3843.62896	0.08357
3841.70039	0.08709
3839.77183	0.09081
3837.84326	0.09355
3835.91470	0.09315
3833.98613	0.09071
3832.05757	0.08911
3830.12900	0.08854
3828.20044	0.08853
3826.27187	0.08953
3824.34331	0.09130
3822.41475	0.09387
3820.48618	0.09734
3818.55762	0.09854
3816.62905	0.09800
3814.70049	0.09711
3812.77192	0.09490
3810.84336	0.09364
3808.91479	0.09481
3806.98623	0.09787
3805.05767	0.10081
3803.12910	0.10322
3801.20054	0.10670
3799.27197	0.10872
3797.34341	0.10828
3795.41484	0.10751
3793.48628	0.10607
3791.55771	0.10510
3789.62915	0.10559
3787.70059	0.10714
3785.77202	0.10965
3783.84346	0.11197
3781.91489	0.11314
3779.98633	0.11497
3778.05776	0.11763
3776.12920	0.11848
3774.20063	0.11846
3772.27207	0.11983
3770.34351	0.12306
3768.41494	0.12702
3766.48638	0.12974
3764.55781	0.13129
3762.62925	0.13255
3760.70068	0.13498
3758.77212	0.13892
3756.84355	0.14190
3754.91499	0.14386
3752.98643	0.14826
3751.05786	0.15620
3749.12930	0.16252
3747.20073	0.16369
3745.27217	0.16533
3743.34360	0.16890
3741.41504	0.17117
3739.48647	0.17306
3737.55791	0.17731
3735.62935	0.18514
3733.70078	0.19356
3731.77222	0.19701
3729.84365	0.19815
3727.91509	0.20098
3725.98652	0.20674
3724.05796	0.21410
3722.12939	0.22065
3720.20083	0.22623
3718.27227	0.23172
3716.34370	0.23788
3714.41514	0.24546
3712.48657	0.25686
3710.55801	0.27347
3708.62944	0.28838
3706.70088	0.29812
3704.77231	0.30787
3702.84375	0.32099
3700.91519	0.33843
3698.98662	0.35679
3697.05806	0.37412
3695.12949	0.39311
3693.20093	0.41422
3691.27236	0.43823
3689.34380	0.46849
3687.41523	0.50248
3685.48667	0.53046
3683.55811	0.55495
3681.62954	0.58299
3679.70098	0.61672
3677.77241	0.65374
3675.84385	0.69719
3673.91528	0.75212
3671.98672	0.79437
3670.05815	0.83200
3668.12959	0.88440
3666.20103	0.93140
3664.27246	0.97089
3662.34390	1.01441
3660.41533	1.06223
3658.48677	1.11000
3656.55820	1.16122
3654.62964	1.21780
3652.70107	1.26515
3650.77251	1.30821
3648.84395	1.36921
3646.91538	1.43990
3644.98682	1.48735
3643.05825	1.52392
3641.12969	1.56341
3639.20112	1.60765
3637.27256	1.65237
3635.34399	1.69707
3633.41543	1.74284
3631.48687	1.78586
3629.55830	1.83017
3627.62974	1.88712
3625.70117	1.93627
3623.77261	1.96787
3621.84404	2.00027
3619.91548	2.03963
3617.98691	2.08692
3616.05835	2.13052
3614.12979	2.16623
3612.20122	2.20416
3610.27266	2.24266
3608.34409	2.28318
3606.41553	2.32760
3604.48696	2.36749
3602.55840	2.40236
3600.62983	2.44087
3598.70127	2.48273
3596.77271	2.52318
3594.84414	2.56441
3592.91558	2.60626
3590.98701	2.64428
3589.05845	2.68020
3587.12988	2.72433
3585.20132	2.77210
3583.27275	2.81142
3581.34419	2.84816
3579.41562	2.88957
3577.48706	2.93418
3575.55850	2.97732
3573.62993	3.01922
3571.70137	3.05837
3569.77280	3.09695
3567.84424	3.14214
3565.91567	3.19716
3563.98711	3.24605
3562.05854	3.28513
3560.12998	3.32636
3558.20142	3.37046
3556.27285	3.41482
3554.34429	3.45878
3552.41572	3.50499
3550.48716	3.55242
3548.55859	3.59788
3546.63003	3.64439
3544.70146	3.69521
3542.77290	3.74361
3540.84434	3.78714
3538.91577	3.83303
3536.98721	3.88208
3535.05864	3.93180
3533.13008	3.97822
3531.20151	4.02227
3529.27295	4.06857
3527.34438	4.11723
3525.41582	4.16404
3523.48726	4.20934
3521.55869	4.25770
3519.63013	4.30558
3517.70156	4.35188
3515.77300	4.40148
3513.84443	4.45237
3511.91587	4.49998
3509.98730	4.54841
3508.05874	4.59733
3506.13018	4.63975
3504.20161	4.68148
3502.27305	4.72874
3500.34448	4.77597
3498.41592	4.82345
3496.48735	4.87595
3494.55879	4.93084
3492.63022	4.98297
3490.70166	5.03064
3488.77310	5.07788
3486.84453	5.12928
3484.91597	5.18416
3482.98740	5.23046
3481.05884	5.26131
3479.13027	5.29210
3477.20171	5.33870
3475.27314	5.39812
3473.34458	5.45555
3471.41602	5.50332
3469.48745	5.54842
3467.55889	5.60221
3465.63032	5.66611
3463.70176	5.72440
3461.77319	5.76527
3459.84463	5.80314
3457.91606	5.84751
3455.98750	5.89278
3454.05894	5.94236
3452.13037	6.00272
3450.20181	6.06618
3448.27324	6.11594
3446.34468	6.15772
3444.41611	6.20810
3442.48755	6.26447
3440.55898	6.31670
3438.63042	6.36373
3436.70186	6.40055
3434.77329	6.43342
3432.84473	6.48163
3430.91616	6.54489
3428.98760	6.60778
3427.05903	6.66428
3425.13047	6.72432
3423.20190	6.76703
3421.27334	6.78872
3419.34478	6.82658
3417.41621	6.89675
3415.48765	6.95895
3413.55908	6.97842
3411.63052	6.99763
3409.70195	7.03466
3407.77339	7.08679
3405.84482	7.14818
3403.91626	7.20356
3401.98770	7.24140
3400.05913	7.26995
3398.13057	7.33504
3396.20200	7.42004
3394.27344	7.45715
3392.34487	7.45497
3390.41631	7.46084
3388.48774	7.46342
3386.55918	7.47510
3384.63062	7.51423
3382.70205	7.57015
3380.77349	7.60747
3378.84492	7.61075
3376.91636	7.64588
3374.98779	7.71157
3373.05923	7.75695
3371.13066	7.78267
3369.20210	7.81716
3367.27354	7.83720
3365.34497	7.83594
3363.41641	7.85769
3361.48784	7.90422
3359.55928	7.94239
3357.63071	7.93491
3355.70215	7.92657
3353.77358	7.94658
3351.84502	7.93777
3349.91646	7.88601
3347.98789	7.89264
3346.05933	7.97043
3344.13076	7.98996
3342.20220	7.93235
3340.27363	7.89298
3338.34507	7.94390
3336.41650	8.05779
3334.48794	8.11475
3332.55937	8.08593
3330.63081	8.07315
3328.70225	8.04725
3326.77368	7.97529
3324.84512	7.95003
3322.91655	7.99231
3320.98799	8.03653
3319.05942	8.02889
3317.13086	8.02027
3315.20229	8.05146
3313.27373	8.12633
3311.34517	8.19551
3309.41660	8.19635
3307.48804	8.14212
3305.55947	8.05446
3303.63091	8.01821
3301.70234	8.07940
3299.77378	8.14540
3297.84521	8.09380
3295.91665	8.02038
3293.98809	8.07773
3292.05952	8.19829
3290.13096	8.19557
3288.20239	8.10104
3286.27383	8.04481
3284.34526	8.00733
3282.41670	8.02127
3280.48813	8.15461
3278.55957	8.31768
3276.63101	8.34734
3274.70244	8.26636
3272.77388	8.17373
3270.84531	8.12837
3268.91675	8.11933
3266.98818	8.08153
3265.05962	8.08122
3263.13105	8.13146
3261.20249	8.13216
3259.27393	8.10786
3257.34536	8.13298
3255.41680	8.14306
3253.48823	8.08618
3251.55967	8.05946
3249.63110	8.11956
3247.70254	8.22947
3245.77397	8.27523
3243.84541	8.19796
3241.91685	8.09295
3239.98828	8.06527
3238.05972	8.11289
3236.13115	8.12927
3234.20259	8.08293
3232.27402	8.05407
3230.34546	8.08770
3228.41689	8.16934
3226.48833	8.21598
3224.55977	8.18551
3222.63120	8.15670
3220.70264	8.11129
3218.77407	8.00611
3216.84551	7.93983
3214.91694	7.93889
3212.98838	7.93088
3211.05981	7.92266
3209.13125	7.92673
3207.20269	7.88883
3205.27412	7.80396
3203.34556	7.74149
3201.41699	7.73891
3199.48843	7.73631
3197.55986	7.69206
3195.63130	7.63888
3193.70273	7.57497
3191.77417	7.49093
3189.84561	7.43334
3187.91704	7.41759
3185.98848	7.39159
3184.05991	7.32734
3182.13135	7.25839
3180.20278	7.22484
3178.27422	7.20468
3176.34565	7.15178
3174.41709	7.08643
3172.48853	7.03751
3170.55996	6.99071
3168.63140	6.93660
3166.70283	6.86794
3164.77427	6.79087
3162.84570	6.71652
3160.91714	6.64564
3158.98857	6.59863
3157.06001	6.54874
3155.13145	6.46397
3153.20288	6.37788
3151.27432	6.30506
3149.34575	6.23877
3147.41719	6.17860
3145.48862	6.12213
3143.56006	6.06660
3141.63149	5.99836
3139.70293	5.91436
3137.77437	5.83840
3135.84580	5.77906
3133.91724	5.72000
3131.98867	5.64680
3130.06011	5.56372
3128.13154	5.48416
3126.20298	5.41292
3124.27441	5.34992
3122.34585	5.28888
3120.41729	5.22306
3118.48872	5.15054
3116.56016	5.07269
3114.63159	4.99621
3112.70303	4.92557
3110.77446	4.86038
3108.84590	4.79627
3106.91733	4.72566
3104.98877	4.64927
3103.06021	4.57624
3101.13164	4.50917
3099.20308	4.44553
3097.27451	4.38282
3095.34595	4.31855
3093.41738	4.25182
3091.48882	4.18445
3089.56025	4.11958
3087.63169	4.05543
3085.70312	3.99076
3083.77456	3.92908
3081.84600	3.86848
3079.91743	3.80414
3077.98887	3.73952
3076.06030	3.67907
3074.13174	3.62100
3072.20317	3.56435
3070.27461	3.50925
3068.34604	3.45367
3066.41748	3.39698
3064.48892	3.34080
3062.56035	3.28632
3060.63179	3.23315
3058.70322	3.17967
3056.77466	3.12554
3054.84609	3.07201
3052.91753	3.01993
3050.98896	2.96906
3049.06040	2.91799
3047.13184	2.86665
3045.20327	2.81696
3043.27471	2.76991
3041.34614	2.72415
3039.41758	2.67741
3037.48901	2.63002
3035.56045	2.58452
3033.63188	2.54074
3031.70332	2.49684
3029.77476	2.45345
3027.84619	2.41129
3025.91763	2.36937
3023.98906	2.32747
3022.06050	2.28663
3020.13193	2.24687
3018.20337	2.20760
3016.27480	2.16885
3014.34624	2.13043
3012.41768	2.09232
3010.48911	2.05466
3008.56055	2.01741
3006.63198	1.98095
3004.70342	1.94559
3002.77485	1.91119
3000.84629	1.87744
2998.91772	1.84421
2996.98916	1.81174
2995.06060	1.77993
2993.13203	1.74811
2991.20347	1.71642
2989.27490	1.68563
2987.34634	1.65534
2985.41777	1.62532
2983.48921	1.59605
2981.56064	1.56741
2979.63208	1.53904
2977.70352	1.51079
2975.77495	1.48291
2973.84639	1.45578
2971.91782	1.42919
2969.98926	1.40295
2968.06069	1.37723
2966.13213	1.35200
2964.20356	1.32716
2962.27500	1.30298
2960.34644	1.27952
2958.41787	1.25619
2956.48931	1.23293
2954.56074	1.21048
2952.63218	1.18893
2950.70361	1.16780
2948.77505	1.14690
2946.84648	1.12608
2944.91792	1.10548
2942.98936	1.08529
2941.06079	1.06541
2939.13223	1.04581
2937.20366	1.02682
2935.27510	1.00881
2933.34653	0.99134
2931.41797	0.97360
2929.48940	0.95567
2927.56084	0.93824
2925.63228	0.92195
2923.70371	0.90659
2921.77515	0.89117
2919.84658	0.87551
2917.91802	0.85964
2915.98945	0.84332
2914.06089	0.82727
2912.13232	0.81229
2910.20376	0.79823
2908.27520	0.78452
2906.34663	0.77083
2904.41807	0.75742
2902.48950	0.74460
2900.56094	0.73202
2898.63237	0.71949
2896.70381	0.70734
2894.77524	0.69570
2892.84668	0.68424
2890.91812	0.67258
2888.98955	0.66099
2887.06099	0.64993
2885.13242	0.63920
2883.20386	0.62849
2881.27529	0.61786
2879.34673	0.60737
2877.41816	0.59694
2875.48960	0.58680
2873.56104	0.57703
2871.63247	0.56735
2869.70391	0.55788
2867.77534	0.54875
2865.84678	0.53949
2863.91821	0.52997
2861.98965	0.52051
2860.06108	0.51125
2858.13252	0.50245
2856.20396	0.49420
2854.27539	0.48618
2852.34683	0.47819
2850.41826	0.47012
2848.48970	0.46192
2846.56113	0.45393
2844.63257	0.44647
2842.70400	0.43965
2840.77544	0.43333
2838.84687	0.42722
2836.91831	0.42125
2834.98975	0.41533
2833.06118	0.40932
2831.13262	0.40328
2829.20405	0.39743
2827.27549	0.39176
2825.34692	0.38602
2823.41836	0.38017
2821.48979	0.37441
2819.56123	0.36878
2817.63267	0.36330
2815.70410	0.35799
2813.77554	0.35254
2811.84697	0.34708
2809.91841	0.34186
2807.98984	0.33682
2806.06128	0.33200
2804.13271	0.32730
2802.20415	0.32265
2800.27559	0.31813
2798.34702	0.31365
2796.41846	0.30920
2794.48989	0.30489
2792.56133	0.30067
2790.63276	0.29637
2788.70420	0.29201
2786.77563	0.28793
2784.84707	0.28423
2782.91851	0.28045
2780.98994	0.27636
2779.06138	0.27240
2777.13281	0.26875
2775.20425	0.26529
2773.27568	0.26207
2771.34712	0.25895
2769.41855	0.25569
2767.48999	0.25245
2765.56143	0.24918
2763.63286	0.24577
2761.70430	0.24252
2759.77573	0.23956
2757.84717	0.23669
2755.91860	0.23382
2753.99004	0.23107
2752.06147	0.22840
2750.13291	0.22572
2748.20435	0.22305
2746.27578	0.22045
2744.34722	0.21792
2742.41865	0.21554
2740.49009	0.21326
2738.56152	0.21106
2736.63296	0.20888
2734.70439	0.20658
2732.77583	0.20417
2730.84727	0.20187
2728.91870	0.19978
2726.99014	0.19783
2725.06157	0.19599
2723.13301	0.19424
2721.20444	0.19232
2719.27588	0.19026
2717.34731	0.18839
2715.41875	0.18672
2713.49019	0.18511
2711.56162	0.18354
2709.63306	0.18192
2707.70449	0.18021
2705.77593	0.17853
2703.84736	0.17702
2701.91880	0.17552
2699.99023	0.17383
2698.06167	0.17218
2696.13311	0.17085
2694.20454	0.16970
2692.27598	0.16850
2690.34741	0.16722
2688.41885	0.16594
2686.49028	0.16453
2684.56172	0.16308
2682.63315	0.16190
2680.70459	0.16097
2678.77603	0.16006
2676.84746	0.15911
2674.91890	0.15805
2672.99033	0.15687
2671.06177	0.15576
2669.13320	0.15478
2667.20464	0.15393
2665.27607	0.15318
2663.34751	0.15234
2661.41895	0.15139
2659.49038	0.15054
2657.56182	0.14985
2655.63325	0.14922
2653.70469	0.14855
2651.77612	0.14781
2649.84756	0.14705
2647.91899	0.14645
2645.99043	0.14606
2644.06187	0.14568
2642.13330	0.14519
2640.20474	0.14467
2638.27617	0.14419
2636.34761	0.14366
2634.41904	0.14314
2632.49048	0.14280
2630.56191	0.14250
2628.63335	0.14201
2626.70479	0.14150
2624.77622	0.14122
2622.84766	0.14116
2620.91909	0.14111
2618.99053	0.14093
2617.06196	0.14066
2615.13340	0.14050
2613.20483	0.14047
2611.27627	0.14046
2609.34771	0.14046
2607.41914	0.14052
2605.49058	0.14054
2603.56201	0.14047
2601.63345	0.14044
2599.70488	0.14050
2597.77632	0.14057
2595.84775	0.14063
2593.91919	0.14076
2591.99062	0.14090
2590.06206	0.14100
2588.13350	0.14123
2586.20493	0.14165
2584.27637	0.14209
2582.34780	0.14241
2580.41924	0.14268
2578.49067	0.14289
2576.56211	0.14304
2574.63354	0.14327
2572.70498	0.14361
2570.77642	0.14409
2568.84785	0.14470
2566.91929	0.14520
2564.99072	0.14549
2563.06216	0.14590
2561.13359	0.14650
2559.20503	0.14705
2557.27646	0.14754
2555.34790	0.14806
2553.41934	0.14861
2551.49077	0.14910
2549.56221	0.14954
2547.63364	0.15010
2545.70508	0.15077
2543.77651	0.15139
2541.84795	0.15203
2539.91938	0.15283
2537.99082	0.15369
2536.06226	0.15442
2534.13369	0.15498
2532.20513	0.15549
2530.27656	0.15611
2528.34800	0.15686
2526.41943	0.15758
2524.49087	0.15827
2522.56230	0.15908
2520.63374	0.15994
2518.70518	0.16078
2516.77661	0.16161
2514.84805	0.16229
2512.91948	0.16290
2510.99092	0.16367
2509.06235	0.16462
2507.13379	0.16560
2505.20522	0.16653
2503.27666	0.16742
2501.34810	0.16825
2499.41953	0.16895
2497.49097	0.16955
2495.56240	0.17023
2493.63384	0.17110
2491.70527	0.17217
2489.77671	0.17338
2487.84814	0.17444
2485.91958	0.17521
2483.99102	0.17590
2482.06245	0.17672
2480.13389	0.17765
2478.20532	0.17864
2476.27676	0.17963
2474.34819	0.18055
2472.41963	0.18135
2470.49106	0.18212
2468.56250	0.18297
2466.63394	0.18397
2464.70537	0.18504
2462.77681	0.18607
2460.84824	0.18703
2458.91968	0.18791
2456.99111	0.18877
2455.06255	0.18976
2453.13398	0.19085
2451.20542	0.19188
2449.27686	0.19283
2447.34829	0.19384
2445.41973	0.19491
2443.49116	0.19600
2441.56260	0.19707
2439.63403	0.19810
2437.70547	0.19909
2435.77690	0.20006
2433.84834	0.20105
2431.91978	0.20205
2429.99121	0.20311
2428.06265	0.20422
2426.13408	0.20529
2424.20552	0.20635
2422.27695	0.20737
2420.34839	0.20840
2418.41982	0.20962
2416.49126	0.21092
2414.56270	0.21215
2412.63413	0.21329
2410.70557	0.21435
2408.77700	0.21546
2406.84844	0.21661
2404.91987	0.21772
2402.99131	0.21885
2401.06274	0.22009
2399.13418	0.22137
2397.20562	0.22264
2395.27705	0.22384
2393.34849	0.22501
2391.41992	0.22631
2389.49136	0.22786
2387.56279	0.22979
2385.63423	0.23232
2383.70566	0.23576
2381.77710	0.24031
2379.84854	0.24575
2377.91997	0.25168
2375.99141	0.25808
2374.06284	0.26515
2372.13428	0.27302
2370.20571	0.28171
2368.27715	0.29075
2366.34858	0.29956
2364.42002	0.30734
2362.49146	0.31258
2360.56289	0.31523
2358.63433	0.31645
2356.70576	0.31601
2354.77720	0.31228
2352.84863	0.30555
2350.92007	0.29819
2348.99150	0.29377
2347.06294	0.29474
2345.13437	0.30135
2343.20581	0.30948
2341.27725	0.31351
2339.34868	0.31410
2337.42012	0.31417
2335.49155	0.31474
2333.56299	0.31537
2331.63442	0.31606
2329.70586	0.31668
2327.77729	0.31672
2325.84873	0.31598
2323.92017	0.31487
2321.99160	0.31379
2320.06304	0.31246
2318.13447	0.31078
2316.20591	0.30955
2314.27734	0.30924
2312.34878	0.30959
2310.42021	0.30983
2308.49165	0.30944
2306.56309	0.30885
2304.63452	0.30862
2302.70596	0.30884
2300.77739	0.30931
2298.84883	0.30983
2296.92026	0.31051
2294.99170	0.31143
2293.06313	0.31232
2291.13457	0.31304
2289.20601	0.31379
2287.27744	0.31476
2285.34888	0.31596
2283.42031	0.31749
2281.49175	0.31930
2279.56318	0.32136
2277.63462	0.32354
2275.70605	0.32564
2273.77749	0.32770
2271.84893	0.32981
2269.92036	0.33192
2267.99180	0.33398
2266.06323	0.33608
2264.13467	0.33821
2262.20610	0.34017
2260.27754	0.34200
2258.34897	0.34396
2256.42041	0.34601
2254.49185	0.34799
2252.56328	0.34991
2250.63472	0.35183
2248.70615	0.35386
2246.77759	0.35602
2244.84902	0.35810
2242.92046	0.36009
2240.99189	0.36217
2239.06333	0.36433
2237.13477	0.36653
2235.20620	0.36874
2233.27764	0.37101
2231.34907	0.37330
2229.42051	0.37549
2227.49194	0.37767
2225.56338	0.37983
2223.63481	0.38189
2221.70625	0.38399
2219.77769	0.38622
2217.84912	0.38843
2215.92056	0.39064
2213.99199	0.39284
2212.06343	0.39492
2210.13486	0.39695
2208.20630	0.39902
2206.27773	0.40112
2204.34917	0.40324
2202.42061	0.40532
2200.49204	0.40722
2198.56348	0.40911
2196.63491	0.41113
2194.70635	0.41319
2192.77778	0.41524
2190.84922	0.41726
2188.92065	0.41911
2186.99209	0.42082
2185.06353	0.42263
2183.13496	0.42448
2181.20640	0.42623
2179.27783	0.42793
2177.34927	0.42969
2175.42070	0.43140
2173.49214	0.43300
2171.56357	0.43443
2169.63501	0.43577
2167.70645	0.43711
2165.77788	0.43842
2163.84932	0.43956
2161.92075	0.44057
2159.99219	0.44171
2158.06362	0.44295
2156.13506	0.44407
2154.20649	0.44501
2152.27793	0.44585
2150.34937	0.44662
2148.42080	0.44736
2146.49224	0.44806
2144.56367	0.44867
2142.63511	0.44924
2140.70654	0.44974
2138.77798	0.45007
2136.84941	0.45025
2134.92085	0.45041
2132.99229	0.45051
2131.06372	0.45051
2129.13516	0.45047
2127.20659	0.45037
2125.27803	0.45010
2123.34946	0.44971
2121.42090	0.44930
2119.49233	0.44887
2117.56377	0.44844
2115.63521	0.44795
2113.70664	0.44732
2111.77808	0.44656
2109.84951	0.44568
2107.92095	0.44475
2105.99238	0.44377
2104.06382	0.44273
2102.13525	0.44158
2100.20669	0.44032
2098.27812	0.43902
2096.34956	0.43772
2094.42100	0.43634
2092.49243	0.43490
2090.56387	0.43346
2088.63530	0.43187
2086.70674	0.43014
2084.77817	0.42840
2082.84961	0.42672
2080.92104	0.42493
2078.99248	0.42295
2077.06392	0.42086
2075.13535	0.41877
2073.20679	0.41666
2071.27822	0.41452
2069.34966	0.41238
2067.42109	0.41028
2065.49253	0.40823
2063.56396	0.40608
2061.63540	0.40381
2059.70684	0.40145
2057.77827	0.39901
2055.84971	0.39657
2053.92114	0.39411
2051.99258	0.39163
2050.06401	0.38908
2048.13545	0.38646
2046.20688	0.38385
2044.27832	0.38133
2042.34976	0.37895
2040.42119	0.37652
2038.49263	0.37386
2036.56406	0.37108
2034.63550	0.36838
2032.70693	0.36571
2030.77837	0.36294
2028.84980	0.36012
2026.92124	0.35739
2024.99268	0.35475
2023.06411	0.35213
2021.13555	0.34952
2019.20698	0.34705
2017.27842	0.34451
2015.34985	0.34161
2013.42129	0.33858
2011.49272	0.33572
2009.56416	0.33306
2007.63560	0.33044
2005.70703	0.32784
2003.77847	0.32523
2001.84990	0.32265
1999.92134	0.32014
1997.99277	0.31761
1996.06421	0.31505
1994.13564	0.31274
1992.20708	0.31062
1990.27852	0.30817
1988.34995	0.30541
1986.42139	0.30266
1984.49282	0.30006
1982.56426	0.29766
1980.63569	0.29539
1978.70713	0.29318
1976.77856	0.29094
1974.85000	0.28868
1972.92144	0.28645
1970.99287	0.28435
1969.06431	0.28250
1967.13574	0.28075
1965.20718	0.27868
1963.27861	0.27637
1961.35005	0.27427
1959.42148	0.27241
1957.49292	0.27065
1955.56436	0.26888
1953.63579	0.26703
1951.70723	0.26513
1949.77866	0.26337
1947.85010	0.26186
1945.92153	0.26064
1943.99297	0.25967
1942.06440	0.25848
1940.13584	0.25657
1938.20728	0.25452
1936.27871	0.25292
1934.35015	0.25163
1932.42158	0.25040
1930.49302	0.24911
1928.56445	0.24786
1926.63589	0.24680
1924.70732	0.24617
1922.77876	0.24564
1920.85020	0.24469
1918.92163	0.24374
1916.99307	0.24284
1915.06450	0.24162
1913.13594	0.24051
1911.20737	0.23987
1909.27881	0.23943
1907.35024	0.23871
1905.42168	0.23771
1903.49312	0.23681
1901.56455	0.23614
1899.63599	0.23562
1897.70742	0.23527
1895.77886	0.23507
1893.85029	0.23479
1891.92173	0.23438
1889.99316	0.23426
1888.06460	0.23402
1886.13604	0.23342
1884.20747	0.23289
1882.27891	0.23254
1880.35034	0.23238
1878.42178	0.23232
1876.49321	0.23227
1874.56465	0.23226
1872.63608	0.23265
1870.70752	0.23369
1868.77896	0.23512
1866.85039	0.23534
1864.92183	0.23421
1862.99326	0.23336
1861.06470	0.23334
1859.13613	0.23379
1857.20757	0.23418
1855.27900	0.23453
1853.35044	0.23496
1851.42187	0.23554
1849.49331	0.23632
1847.56475	0.23751
1845.63618	0.23915
1843.70762	0.24055
1841.77905	0.24064
1839.85049	0.24035
1837.92192	0.24088
1835.99336	0.24172
1834.06479	0.24257
1832.13623	0.24396
1830.20767	0.24617
1828.27910	0.24788
1826.35054	0.24857
1824.42197	0.24946
1822.49341	0.25026
1820.56484	0.25109
1818.63628	0.25234
1816.70771	0.25390
1814.77915	0.25553
1812.85059	0.25756
1810.92202	0.26003
1808.99346	0.26213
1807.06489	0.26369
1805.13633	0.26529
1803.20776	0.26770
1801.27920	0.27083
1799.35063	0.27395
1797.42207	0.27636
1795.49351	0.27874
1793.56494	0.28196
1791.63638	0.28586
1789.70781	0.28862
1787.77925	0.29040
1785.85068	0.29330
1783.92212	0.29721
1781.99355	0.30144
1780.06499	0.30576
1778.13643	0.30988
1776.20786	0.31384
1774.27930	0.31875
1772.35073	0.32561
1770.42217	0.33194
1768.49360	0.33624
1766.56504	0.34054
1764.63647	0.34558
1762.70791	0.35178
1760.77935	0.35960
1758.85078	0.36659
1756.92222	0.37351
1754.99365	0.38106
1753.06509	0.38829
1751.13652	0.39763
1749.20796	0.40921
1747.27939	0.41955
1745.35083	0.42810
1743.42227	0.43735
1741.49370	0.44778
1739.56514	0.46019
1737.63657	0.47257
1735.70801	0.48380
1733.77944	0.50116
1731.85088	0.52086
1729.92231	0.53531
1727.99375	0.54988
1726.06519	0.56602
1724.13662	0.58434
1722.20806	0.60446
1720.27949	0.62331
1718.35093	0.64602
1716.42236	0.67906
1714.49380	0.70862
1712.56523	0.73159
1710.63667	0.75444
1708.70811	0.77986
1706.77954	0.80915
1704.85098	0.84390
1702.92241	0.87451
1700.99385	0.90469
1699.06528	0.94958
1697.13672	0.99031
1695.20815	1.03105
1693.27959	1.06978
1691.35103	1.10099
1689.42246	1.13776
1687.49390	1.17666
1685.56533	1.21408
1683.63677	1.27102
1681.70820	1.32856
1679.77964	1.36474
1677.85107	1.39969
1675.92251	1.44065
1673.99395	1.49177
1672.06538	1.53711
1670.13682	1.58124
1668.20825	1.63664
1666.27969	1.67927
1664.35112	1.71466
1662.42256	1.75868
1660.49399	1.80773
1658.56543	1.84650
1656.63687	1.87933
1654.70830	1.91251
1652.77974	1.97036
1650.85117	2.02424
1648.92261	2.04332
1646.99404	2.07158
1645.06548	2.10729
1643.13691	2.13119
1641.20835	2.14704
1639.27979	2.16172
1637.35122	2.17171
1635.42266	2.17553
1633.49409	2.17245
1631.56553	2.16223
1629.63696	2.14780
1627.70840	2.12329
1625.77983	2.09556
1623.85127	2.06186
1621.92271	2.01937
1619.99414	1.97949
1618.06558	1.93990
1616.13701	1.88325
1614.20845	1.82306
1612.27988	1.77566
1610.35132	1.72668
1608.42275	1.67411
1606.49419	1.62182
1604.56562	1.57314
1602.63706	1.52587
1600.70850	1.47911
1598.77993	1.43581
1596.85137	1.39538
1594.92280	1.35623
1592.99424	1.31821
1591.06567	1.28322
1589.13711	1.25001
1587.20854	1.21846
1585.27998	1.18899
1583.35142	1.16113
1581.42285	1.13522
1579.49429	1.11293
1577.56572	1.09306
1575.63716	1.06733
1573.70859	1.04242
1571.78003	1.02566
1569.85146	1.00810
1567.92290	0.98728
1565.99434	0.97006
1564.06577	0.95524
1562.13721	0.94302
1560.20864	0.93357
1558.28008	0.91569
1556.35151	0.89603
1554.42295	0.88345
1552.49438	0.87181
1550.56582	0.86075
1548.63726	0.84957
1546.70869	0.84005
1544.78013	0.83243
1542.85156	0.82539
1540.92300	0.81755
1538.99443	0.80419
1537.06587	0.79266
1535.13730	0.78605
1533.20874	0.77890
1531.28018	0.77027
1529.35161	0.76371
1527.42305	0.75828
1525.49448	0.75253
1523.56592	0.74723
1521.63735	0.74207
1519.70879	0.73573
1517.78022	0.72988
1515.85166	0.72357
1513.92310	0.71697
1511.99453	0.71209
1510.06597	0.70909
1508.13740	0.70746
1506.20884	0.70249
1504.28027	0.69466
1502.35171	0.68977
1500.42314	0.68658
1498.49458	0.68400
1496.56602	0.68060
1494.63745	0.67620
1492.70889	0.67296
1490.78032	0.67139
1488.85176	0.66954
1486.92319	0.66578
1484.99463	0.66170
1483.06606	0.65857
1481.13750	0.65622
1479.20894	0.65418
1477.28037	0.65248
1475.35181	0.65131
1473.42324	0.65030
1471.49468	0.64749
1469.56611	0.64348
1467.63755	0.64067
1465.70898	0.63901
1463.78042	0.63731
1461.85186	0.63564
1459.92329	0.63511
1457.99473	0.63554
1456.06616	0.63382
1454.13760	0.62965
1452.20903	0.62634
1450.28047	0.62402
1448.35190	0.62222
1446.42334	0.62023
1444.49478	0.61815
1442.56621	0.61646
1440.63765	0.61520
1438.70908	0.61458
1436.78052	0.61420
1434.85195	0.61291
1432.92339	0.61121
1430.99482	0.60999
1429.06626	0.60865
1427.13770	0.60711
1425.20913	0.60614
1423.28057	0.60557
1421.35200	0.60491
1419.42344	0.60428
1417.49487	0.60274
1415.56631	0.60006
1413.63774	0.59775
1411.70918	0.59598
1409.78062	0.59415
1407.85205	0.59235
1405.92349	0.59094
1403.99492	0.58940
1402.06636	0.58758
1400.13779	0.58630
1398.20923	0.58558
1396.28066	0.58467
1394.35210	0.58299
1392.42354	0.58073
1390.49497	0.57901
1388.56641	0.57822
1386.63784	0.57748
1384.70928	0.57615
1382.78071	0.57494
1380.85215	0.57419
1378.92358	0.57358
1376.99502	0.57315
1375.06646	0.57315
1373.13789	0.57286
1371.20933	0.57195
1369.28076	0.57122
1367.35220	0.57069
1365.42363	0.57011
1363.49507	0.56967
1361.56650	0.56878
1359.63794	0.56717
1357.70937	0.56571
1355.78081	0.56461
1353.85225	0.56352
1351.92368	0.56225
1349.99512	0.56100
1348.06655	0.55987
1346.13799	0.55876
1344.20942	0.55776
1342.28086	0.55719
1340.35229	0.55691
1338.42373	0.55606
1336.49517	0.55441
1334.56660	0.55277
1332.63804	0.55160
1330.70947	0.55081
1328.78091	0.55012
1326.85234	0.54943
1324.92378	0.54883
1322.99521	0.54826
1321.06665	0.54766
1319.13809	0.54712
1317.20952	0.54646
1315.28096	0.54565
1313.35239	0.54480
1311.42383	0.54376
1309.49526	0.54255
1307.56670	0.54143
1305.63813	0.54037
1303.70957	0.53931
1301.78101	0.53837
1299.85244	0.53740
1297.92388	0.53638
1295.99531	0.53544
1294.06675	0.53457
1292.13818	0.53384
1290.20962	0.53338
1288.28105	0.53305
1286.35249	0.53260
1284.42393	0.53208
1282.49536	0.53145
1280.56680	0.53073
1278.63823	0.53013
1276.70967	0.52969
1274.78110	0.52929
1272.85254	0.52895
1270.92397	0.52862
1268.99541	0.52815
1267.06685	0.52776
1265.13828	0.52752
1263.20972	0.52718
1261.28115	0.52676
1259.35259	0.52634
1257.42402	0.52586
1255.49546	0.52539
1253.56689	0.52499
1251.63833	0.52461
1249.70977	0.52438
1247.78120	0.52425
1245.85264	0.52393
1243.92407	0.52339
1241.99551	0.52281
1240.06694	0.52225
1238.13838	0.52180
1236.20981	0.52137
1234.28125	0.52077
1232.35269	0.52010
1230.42412	0.51941
1228.49556	0.51868
1226.56699	0.51795
1224.63843	0.51724
1222.70986	0.51654
1220.78130	0.51583
1218.85273	0.51493
1216.92417	0.51381
1214.99561	0.51286
1213.06704	0.51231
1211.13848	0.51198
1209.20991	0.51156
1207.28135	0.51103
1205.35278	0.51045
1203.42422	0.50981
1201.49565	0.50926
1199.56709	0.50880
1197.63853	0.50824
1195.70996	0.50750
1193.78140	0.50676
1191.85283	0.50619
1189.92427	0.50566
1187.99570	0.50504
1186.06714	0.50453
1184.13857	0.50431
1182.21001	0.50438
1180.28145	0.50462
1178.35288	0.50483
1176.42432	0.50516
1174.49575	0.50584
1172.56719	0.50671
1170.63862	0.50756
1168.71006	0.50841
1166.78149	0.50929
1164.85293	0.51030
1162.92437	0.51147
1160.99580	0.51248
1159.06724	0.51302
1157.13867	0.51311
1155.21011	0.51289
1153.28154	0.51221
1151.35298	0.51085
1149.42441	0.50894
1147.49585	0.50669
1145.56729	0.50416
1143.63872	0.50149
1141.71016	0.49910
1139.78159	0.49722
1137.85303	0.49569
1135.92446	0.49447
1133.99590	0.49369
1132.06733	0.49322
1130.13877	0.49287
1128.21021	0.49257
1126.28164	0.49229
1124.35308	0.49204
1122.42451	0.49187
1120.49595	0.49186
1118.56738	0.49193
1116.63882	0.49213
1114.71025	0.49258
1112.78169	0.49325
1110.85312	0.49409
1108.92456	0.49507
1106.99600	0.49611
1105.06743	0.49714
1103.13887	0.49815
1101.21030	0.49909
1099.28174	0.50002
1097.35317	0.50141
1095.42461	0.50387
1093.49604	0.50767
1091.56748	0.51286
1089.63892	0.51950
1087.71035	0.52758
1085.78179	0.53685
1083.85322	0.54652
1081.92466	0.55509
1079.99609	0.56095
1078.06753	0.56352
1076.13896	0.56311
1074.21040	0.55992
1072.28184	0.55439
1070.35327	0.54745
1068.42471	0.53996
1066.49614	0.53288
1064.56758	0.52694
1062.63901	0.52190
1060.71045	0.51741
1058.78188	0.51343
1056.85332	0.50974
1054.92476	0.50645
1052.99619	0.50408
1051.06763	0.50277
1049.13906	0.50210
1047.21050	0.50198
1045.28193	0.50267
1043.35337	0.50389
1041.42480	0.50522
1039.49624	0.50651
1037.56768	0.50749
1035.63911	0.50770
1033.71055	0.50716
1031.78198	0.50609
1029.85342	0.50446
1027.92485	0.50233
1025.99629	0.50008
1024.06772	0.49825
1022.13916	0.49712
1020.21060	0.49639
1018.28203	0.49581
1016.35347	0.49546
1014.42490	0.49509
1012.49634	0.49444
1010.56777	0.49378
1008.63921	0.49346
1006.71064	0.49356
1004.78208	0.49419
1002.85352	0.49559
1000.92495	0.49783
998.99639	0.50097
997.06782	0.50501
995.13926	0.50942
993.21069	0.51344
991.28213	0.51641
989.35356	0.51794
987.42500	0.51827
985.49644	0.51809
983.56787	0.51790
981.63931	0.51798
979.71074	0.51856
977.78218	0.51977
975.85361	0.52164
973.92505	0.52419
971.99648	0.52740
970.06792	0.53091
968.13936	0.53441
966.21079	0.53814
964.28223	0.54238
962.35366	0.54688
960.42510	0.55151
958.49653	0.55657
956.56797	0.56218
954.63940	0.56816
952.71084	0.57423
950.78228	0.58029
948.85371	0.58653
946.92515	0.59290
944.99658	0.59907
943.06802	0.60513
941.13945	0.61112
939.21089	0.61659
937.28232	0.62173
935.35376	0.62745
933.42520	0.63381
931.49663	0.63996
929.56807	0.64553
927.63950	0.65090
925.71094	0.65649
923.78237	0.66248
921.85381	0.66870
919.92524	0.67474
917.99668	0.68123
916.06812	0.68895
914.13955	0.69684
912.21099	0.70378
910.28242	0.71053
908.35386	0.71815
906.42529	0.72639
904.49673	0.73465
902.56816	0.74323
900.63960	0.75262
898.71104	0.76259
896.78247	0.77298
894.85391	0.78376
892.92534	0.79408
890.99678	0.80354
889.06821	0.81315
887.13965	0.82335
885.21108	0.83378
883.28252	0.84450
881.35396	0.85564
879.42539	0.86729
877.49683	0.87895
875.56826	0.88993
873.63970	0.90045
871.71113	0.91123
869.78257	0.92259
867.85400	0.93425
865.92544	0.94525
863.99687	0.95565
862.06831	0.96751
860.13975	0.98143
858.21118	0.99498
856.28262	1.00528
854.35405	1.01387
852.42549	1.02417
850.49692	1.03506
848.56836	1.04556
846.63979	1.05763
844.71123	1.07141
842.78267	1.08307
840.85410	1.09151
838.92554	1.10138
836.99697	1.11367
835.06841	1.12356
833.13984	1.13048
831.21128	1.13950
829.28271	1.15246
827.35415	1.16506
825.42559	1.17488
823.49702	1.18663
821.56846	1.19980
819.63989	1.20787
817.71133	1.21185
815.78276	1.21874
813.85420	1.23291
811.92563	1.24842
809.99707	1.25552
808.06851	1.25967
806.13994	1.27551
804.21138	1.29676
802.28281	1.30397
800.35425	1.30128
798.42568	1.30585
796.49712	1.31200
794.56855	1.31265
792.63999	1.33360
790.71143	1.36706
788.78286	1.36478
786.85430	1.34616
784.92573	1.35634
782.99717	1.38132
781.06860	1.35471
779.14004	1.28281
777.21147	1.26318
775.28291	1.31627
773.35435	1.37788
771.42578	1.39783
769.49722	1.38817
767.56865	1.41667
765.64009	1.46861
763.71152	1.40051
761.78296	1.27841
759.85439	1.23117
757.92583	1.25382
755.99727	1.23937
754.06870	1.13261
752.14014	1.06689
750.21157	1.11548
748.28301	1.17189
746.35444	1.13485
744.42588	1.13337
742.49731	1.19893
740.56875	1.28289
738.64019	1.21883
736.71162	0.97424
734.78306	0.85706
732.85449	0.83244
730.92593	0.71261
728.99736	0.56261
727.06880	0.45002
725.14023	0.33952
723.21167	0.24913
721.28311	0.19994
719.35454	0.20853
717.42598	0.12043
715.49741	-0.03776
713.56885	-0.08750
711.64028	-0.03032
709.71172	0.07917
707.78315	0.10827
705.85459	0.09920
703.92603	0.24692
701.99746	0.42428
700.06890	0.46196
698.14033	0.40157
696.21177	0.34333
694.28320	0.35929
692.35464	0.45981
690.42607	0.62690
688.49751	0.57894
686.56895	0.45709
684.64038	0.42409
682.71182	0.40506
680.78325	0.34906
678.85469	0.26486
676.92612	0.20845
674.99756	0.24355
673.06899	0.39701
671.14043	0.54691
669.21187	0.57559
667.28330	0.63800
665.35474	0.54683
663.42617	0.34421
661.49761	0.27764
659.56904	0.32531
657.64048	0.36143
655.71191	0.31507
653.78335	0.28779
651.85479	0.30892
649.92622	0.35438
647.99766	0.44587
646.06909	0.61692
644.14053	0.67176
642.21196	0.54836
640.28340	0.59058
638.35483	0.89388
636.42627	1.22835
634.49771	0.82296
632.56914	0.61605
630.64058	0.45413
628.71201	0.35458
626.78345	0.34494
624.85488	0.37353
622.92632	0.47236
620.99775	0.70432
619.06919	0.93993
617.14062	0.84331
615.21206	0.54191
613.28350	0.38232
611.35493	0.39718
609.42637	0.45495
607.49780	0.37565
605.56924	0.25301
603.64067	0.18979
601.71211	0.20415
599.78354	0.29965
597.85498	0.39462
595.92642	0.37879
593.99785	0.32219
592.06929	0.25732
590.14072	0.22611
588.21216	0.30483
586.28359	0.53136
584.35503	0.55249
582.42646	0.32538
580.49790	0.21398
578.56934	0.19983
576.64077	0.23910
574.71221	0.30138
572.78364	0.37524
570.85508	0.43846
568.92651	0.42504
566.99795	0.33445
565.06938	0.27908
563.14082	0.28378
561.21226	0.29846
559.28369	0.31380
557.35513	0.37043
555.42656	0.38247
553.49800	0.26073
551.56943	0.19657
549.64087	0.21268
547.71230	0.25155
545.78374	0.28567
543.85518	0.25758
541.92661	0.17978
539.99805	0.13403
538.06948	0.14219
536.14092	0.19232
534.21235	0.25089
532.28379	0.27951
530.35522	0.26670
528.42666	0.27569
526.49810	0.33656
524.56953	0.38728
522.64097	0.36912
520.71240	0.28648
518.78384	0.24328
516.85527	0.29185
514.92671	0.32864
512.99814	0.28709
511.06958	0.23370
509.14102	0.16575
507.21245	0.14705
505.28389	0.23189
503.35532	0.33730
501.42676	0.36225
499.49819	0.34925
