3997.91411	0.06209
3995.98555	0.06296
3994.05698	0.06344
3992.12842	0.06360
3990.19985	0.06399
3988.27129	0.06444
3986.34272	0.06432
3984.41416	0.06411
3982.48560	0.06450
3980.55703	0.06505
3978.62847	0.06555
3976.69990	0.06625
3974.77134	0.06681
3972.84277	0.06713
3970.91421	0.06733
3968.98564	0.06729
3967.05708	0.06712
3965.12852	0.06718
3963.19995	0.06778
3961.27139	0.06847
3959.34282	0.06833
3957.41426	0.06778
3955.48569	0.06766
3953.55713	0.06795
3951.62856	0.06902
3949.70000	0.07081
3947.77144	0.07182
3945.84287	0.07149
3943.91431	0.07138
3941.98574	0.07164
3940.05718	0.07065
3938.12861	0.06892
3936.20005	0.06827
3934.27148	0.06951
3932.34292	0.07225
3930.41436	0.07414
3928.48579	0.07327
3926.55723	0.07183
3924.62866	0.07201
3922.70010	0.07229
3920.77153	0.07168
3918.84297	0.07182
3916.91440	0.07242
3914.98584	0.07125
3913.05728	0.06884
3911.12871	0.06725
3909.20015	0.06689
3907.27158	0.06838
3905.34302	0.07288
3903.41445	0.07894
3901.48589	0.08182
3899.55732	0.08032
3897.62876	0.07662
3895.70020	0.07280
3893.77163	0.07174
3891.84307	0.07370
3889.91450	0.07443
3887.98594	0.07297
3886.05737	0.07398
3884.12881	0.07706
3882.20024	0.07877
3880.27168	0.07943
3878.34312	0.07765
3876.41455	0.07505
3874.48599	0.07611
3872.55742	0.07979
3870.62886	0.08289
3868.70029	0.08351
3866.77173	0.08177
3864.84316	0.08165
3862.91460	0.08255
3860.98604	0.08075
3859.05747	0.07860
3857.12891	0.07969
3855.20034	0.08471
3853.27178	0.09257
3851.34321	0.09384
3849.41465	0.08600
3847.48608	0.07981
3845.55752	0.07815
3843.62896	0.08064
3841.70039	0.08581
3839.77183	0.09186
3837.84326	0.09669
3835.91470	0.09656
3833.98613	0.09268
3832.05757	0.08947
3830.12900	0.08782
3828.20044	0.08752
3826.27187	0.08869
3824.34331	0.09061
3822.41475	0.09419
3820.48618	0.09975
3818.55762	0.10145
3816.62905	0.09962
3814.70049	0.09704
3812.77192	0.09306
3810.84336	0.09081
3808.91479	0.09237
3806.98623	0.09691
3805.05767	0.10093
3803.12910	0.10413
3801.20054	0.10905
3799.27197	0.11104
3797.34341	0.10876
3795.41484	0.10624
3793.48628	0.10317
3791.55771	0.10105
3789.62915	0.10153
3787.70059	0.10395
3785.77202	0.10738
3783.84346	0.11016
3781.91489	0.11142
3779.98633	0.11344
3778.05776	0.11597
3776.12920	0.11583
3774.20063	0.11505
3772.27207	0.11691
3770.34351	0.12159
3768.41494	0.12626
3766.48638	0.12847
3764.55781	0.12953
3762.62925	0.13055
3760.70068	0.13335
3758.77212	0.13858
3756.84355	0.14279
3754.91499	0.14539
3752.98643	0.15076
3751.05786	0.16063
3749.12930	0.16812
3747.20073	0.16828
3745.27217	0.16929
3743.34360	0.17352
3741.41504	0.17618
3739.48647	0.17853
3737.55791	0.18477
3735.62935	0.19608
3733.70078	0.20640
3731.77222	0.20828
3729.84365	0.20760
3727.91509	0.21023
3725.98652	0.21682
3724.05796	0.22447
3722.12939	0.22993
3720.20083	0.23352
3718.27227	0.23661
3716.34370	0.24056
3714.41514	0.24732
3712.48657	0.26020
3710.55801	0.27982
3708.62944	0.29588
3706.70088	0.30447
3704.77231	0.31326
3702.84375	0.32653
3700.91519	0.34463
3698.98662	0.36294
3697.05806	0.37958
3695.12949	0.39806
3693.20093	0.41924
3691.27236	0.44428
3689.34380	0.47586
3687.41523	0.50932
3685.48667	0.53524
3683.55811	0.55824
3681.62954	0.58580
3679.70098	0.61988
3677.77241	0.65792
3675.84385	0.70284
3673.91528	0.75788
3671.98672	0.79940
3670.05815	0.83795
3668.12959	0.89031
3666.20103	0.93473
3664.27246	0.97235
3662.34390	1.01561
3660.41533	1.06385
3658.48677	1.11191
3656.55820	1.16353
3654.62964	1.22102
3652.70107	1.27011
3650.77251	1.31644
3648.84395	1.38125
3646.91538	1.45093
3644.98682	1.49367
3643.05825	1.52735
3641.12969	1.56669
3639.20112	1.61275
3637.27256	1.65915
3635.34399	1.70387
3633.41543	1.74898
3631.48687	1.79187
3629.55830	1.83666
3627.62974	1.89441
3625.70117	1.94313
3623.77261	1.97333
3621.84404	2.00469
3619.91548	2.04383
3617.98691	2.09142
3616.05835	2.13503
3614.12979	2.17029
3612.20122	2.20776
3610.27266	2.24661
3608.34409	2.28764
3606.41553	2.33085
3604.48696	2.36926
3602.55840	2.40417
3600.62983	2.44302
3598.70127	2.48487
3596.77271	2.52513
3594.84414	2.56521
3592.91558	2.60555
3590.98701	2.64361
3589.05845	2.68120
3587.12988	2.72762
3585.20132	2.77457
3583.27275	2.81018
3581.34419	2.84475
3579.41562	2.88438
3577.48706	2.92697
3575.55850	2.97065
3573.62993	3.01476
3571.70137	3.05523
3569.77280	3.09449
3567.84424	3.14075
3565.91567	3.19624
3563.98711	3.24353
3562.05854	3.28030
3560.12998	3.32058
3558.20142	3.36525
3556.27285	3.40982
3554.34429	3.45437
3552.41572	3.50103
3550.48716	3.54646
3548.55859	3.58974
3546.63003	3.63475
3544.70146	3.68443
3542.77290	3.73418
3540.84434	3.77830
3538.91577	3.82023
3536.98721	3.86519
3535.05864	3.91587
3533.13008	3.96643
3531.20151	4.01327
3529.27295	4.05988
3527.34438	4.10752
3525.41582	4.15403
3523.48726	4.20321
3521.55869	4.25689
3519.63013	4.30520
3517.70156	4.34891
3515.77300	4.39577
3513.84443	4.44271
3511.91587	4.48666
3509.98730	4.53525
3508.05874	4.58832
3506.13018	4.63514
3504.20161	4.67756
3502.27305	4.72255
3500.34448	4.76601
3498.41592	4.80816
3496.48735	4.85658
3494.55879	4.90611
3492.63022	4.95068
3490.70166	4.99437
3488.77310	5.04271
3486.84453	5.09899
3484.91597	5.15770
3482.98740	5.20840
3481.05884	5.24846
3479.13027	5.28494
3477.20171	5.33041
3475.27314	5.39201
3473.34458	5.46024
3471.41602	5.51643
3469.48745	5.55776
3467.55889	5.59394
3465.63032	5.63125
3463.70176	5.67554
3461.77319	5.72462
3459.84463	5.77740
3457.91606	5.83746
3455.98750	5.89649
3454.05894	5.94497
3452.13037	5.99369
3450.20181	6.04540
3448.27324	6.08387
3446.34468	6.12602
3444.41611	6.18545
3442.48755	6.23916
3440.55898	6.28082
3438.63042	6.32676
3436.70186	6.38306
3434.77329	6.44518
3432.84473	6.49688
3430.91616	6.53234
3428.98760	6.58126
3427.05903	6.64296
3425.13047	6.69106
3423.20190	6.72647
3421.27334	6.76691
3419.34478	6.80278
3417.41621	6.83906
3415.48765	6.89996
3413.55908	6.96603
3411.63052	7.03081
3409.70195	7.08148
3407.77339	7.10376
3405.84482	7.13908
3403.91626	7.21026
3401.98770	7.27058
3400.05913	7.30341
3398.13057	7.34120
3396.20200	7.40978
3394.27344	7.50221
3392.34487	7.53244
3390.41631	7.50011
3388.48774	7.49884
3386.55918	7.54002
3384.63062	7.57807
3382.70205	7.61243
3380.77349	7.65234
3378.84492	7.69269
3376.91636	7.72564
3374.98779	7.73246
3373.05923	7.76240
3371.13066	7.82953
3369.20210	7.87904
3367.27354	7.89875
3365.34497	7.93706
3363.41641	7.96400
3361.48784	7.91564
3359.55928	7.83110
3357.63071	7.77557
3355.70215	7.80654
3353.77358	7.88828
3351.84502	7.93493
3349.91646	7.92532
3347.98789	7.92708
3346.05933	7.95390
3344.13076	7.96866
3342.20220	8.01770
3340.27363	8.08183
3338.34507	8.06659
3336.41650	7.98570
3334.48794	7.96391
3332.55937	8.01805
3330.63081	8.07958
3328.70225	8.11143
3326.77368	8.09080
3324.84512	8.02106
3322.91655	7.96018
3320.98799	7.95419
3319.05942	7.97106
3317.13086	8.01744
3315.20229	8.08441
3313.27373	8.14273
3311.34517	8.16888
3309.41660	8.14251
3307.48804	8.12806
3305.55947	8.12700
3303.63091	8.10442
3301.70234	8.09844
3299.77378	8.11963
3297.84521	8.11412
3295.91665	8.09058
3293.98809	8.10018
3292.05952	8.16666
3290.13096	8.23162
3288.20239	8.24321
3286.27383	8.26859
3284.34526	8.27168
3282.41670	8.17121
3280.48813	8.08778
3278.55957	8.16399
3276.63101	8.31656
3274.70244	8.32696
3272.77388	8.15305
3270.84531	7.99907
3268.91675	7.98538
3266.98818	8.03868
3265.05962	8.06743
3263.13105	8.04572
3261.20249	8.02977
3259.27393	8.02035
3257.34536	7.94750
3255.41680	7.87541
3253.48823	7.96696
3251.55967	8.19103
3249.63110	8.25003
3247.70254	8.09029
3245.77397	7.96439
3243.84541	8.01326
3241.91685	8.12562
3239.98828	8.10716
3238.05972	8.00095
3236.13115	7.93230
3234.20259	7.93070
3232.27402	7.95790
3230.34546	7.99087
3228.41689	8.02020
3226.48833	8.03527
3224.55977	8.04181
3222.63120	8.03976
3220.70264	8.02871
3218.77407	7.99669
3216.84551	7.91216
3214.91694	7.83511
3212.98838	7.83634
3211.05981	7.88155
3209.13125	7.94960
3207.20269	7.99441
3205.27412	7.92986
3203.34556	7.80739
3201.41699	7.73867
3199.48843	7.74377
3197.55986	7.72626
3195.63130	7.63888
3193.70273	7.56733
3191.77417	7.53460
3189.84561	7.48800
3187.91704	7.40156
3185.98848	7.31199
3184.05991	7.28396
3182.13135	7.28716
3180.20278	7.26126
3178.27422	7.23835
3176.34565	7.22017
3174.41709	7.17638
3172.48853	7.11001
3170.55996	7.00711
3168.63140	6.89328
3166.70283	6.81259
3164.77427	6.74634
3162.84570	6.67967
3160.91714	6.64482
3158.98857	6.63068
3157.06001	6.56700
3155.13145	6.45537
3153.20288	6.36373
3151.27432	6.30981
3149.34575	6.25906
3147.41719	6.19354
3145.48862	6.12251
3143.56006	6.04850
3141.63149	5.97260
3139.70293	5.89168
3137.77437	5.81143
3135.84580	5.75125
3133.91724	5.70440
3131.98867	5.64544
3130.06011	5.56971
3128.13154	5.48770
3126.20298	5.40820
3124.27441	5.33248
3122.34585	5.25718
3120.41729	5.18592
3118.48872	5.11935
3116.56016	5.05205
3114.63159	4.98232
3112.70303	4.91274
3110.77446	4.84227
3108.84590	4.76680
3106.91733	4.69300
3104.98877	4.62843
3103.06021	4.56753
3101.13164	4.50320
3099.20308	4.43475
3097.27451	4.36409
3095.34595	4.29475
3093.41738	4.22809
3091.48882	4.16330
3089.56025	4.10178
3087.63169	4.04251
3085.70312	3.98177
3083.77456	3.91860
3081.84600	3.85540
3079.91743	3.79351
3077.98887	3.73246
3076.06030	3.67229
3074.13174	3.61228
3072.20317	3.55139
3070.27461	3.49126
3068.34604	3.43400
3066.41748	3.37800
3064.48892	3.32261
3062.56035	3.26925
3060.63179	3.21625
3058.70322	3.16215
3056.77466	3.10804
3054.84609	3.05452
3052.91753	3.00191
3050.98896	2.95068
3049.06040	2.90102
3047.13184	2.85299
3045.20327	2.80525
3043.27471	2.75710
3041.34614	2.70980
3039.41758	2.66344
3037.48901	2.61703
3035.56045	2.57101
3033.63188	2.52614
3031.70332	2.48244
3029.77476	2.43889
3027.84619	2.39531
3025.91763	2.35308
3023.98906	2.31200
3022.06050	2.27106
3020.13193	2.23042
3018.20337	2.19076
3016.27480	2.15224
3014.34624	2.11471
3012.41768	2.07781
3010.48911	2.04048
3008.56055	2.00276
3006.63198	1.96600
3004.70342	1.93087
3002.77485	1.89679
3000.84629	1.86275
2998.91772	1.82844
2996.98916	1.79477
2995.06060	1.76268
2993.13203	1.73134
2991.20347	1.69976
2989.27490	1.66823
2987.34634	1.63729
2985.41777	1.60746
2983.48921	1.57841
2981.56064	1.54939
2979.63208	1.52056
2977.70352	1.49215
2975.77495	1.46429
2973.84639	1.43715
2971.91782	1.41063
2969.98926	1.38465
2968.06069	1.35908
2966.13213	1.33348
2964.20356	1.30793
2962.27500	1.28297
2960.34644	1.25890
2958.41787	1.23565
2956.48931	1.21294
2954.56074	1.19063
2952.63218	1.16865
2950.70361	1.14665
2948.77505	1.12467
2946.84648	1.10329
2944.91792	1.08259
2942.98936	1.06208
2941.06079	1.04170
2939.13223	1.02192
2937.20366	1.00318
2935.27510	0.98529
2933.34653	0.96739
2931.41797	0.94930
2929.48940	0.93155
2927.56084	0.91426
2925.63228	0.89762
2923.70371	0.88196
2921.77515	0.86669
2919.84658	0.85101
2917.91802	0.83481
2915.98945	0.81862
2914.06089	0.80311
2912.13232	0.78846
2910.20376	0.77432
2908.27520	0.76036
2906.34663	0.74659
2904.41807	0.73297
2902.48950	0.71960
2900.56094	0.70696
2898.63237	0.69501
2896.70381	0.68314
2894.77524	0.67128
2892.84668	0.65962
2890.91812	0.64797
2888.98955	0.63644
2887.06099	0.62523
2885.13242	0.61432
2883.20386	0.60366
2881.27529	0.59313
2879.34673	0.58274
2877.41816	0.57254
2875.48960	0.56253
2873.56104	0.55268
2871.63247	0.54300
2869.70391	0.53360
2867.77534	0.52450
2865.84678	0.51551
2863.91821	0.50648
2861.98965	0.49752
2860.06108	0.48877
2858.13252	0.48044
2856.20396	0.47251
2854.27539	0.46491
2852.34683	0.45749
2850.41826	0.44977
2848.48970	0.44178
2846.56113	0.43405
2844.63257	0.42676
2842.70400	0.42010
2840.77544	0.41399
2838.84687	0.40805
2836.91831	0.40228
2834.98975	0.39666
2833.06118	0.39092
2831.13262	0.38508
2829.20405	0.37943
2827.27549	0.37397
2825.34692	0.36845
2823.41836	0.36295
2821.48979	0.35755
2819.56123	0.35201
2817.63267	0.34645
2815.70410	0.34126
2813.77554	0.33625
2811.84697	0.33117
2809.91841	0.32605
2807.98984	0.32107
2806.06128	0.31636
2804.13271	0.31177
2802.20415	0.30710
2800.27559	0.30266
2798.34702	0.29848
2796.41846	0.29424
2794.48989	0.29005
2792.56133	0.28608
2790.63276	0.28208
2788.70420	0.27794
2786.77563	0.27389
2784.84707	0.27005
2782.91851	0.26627
2780.98994	0.26247
2779.06138	0.25884
2777.13281	0.25542
2775.20425	0.25209
2773.27568	0.24889
2771.34712	0.24566
2769.41855	0.24234
2767.48999	0.23917
2765.56143	0.23612
2763.63286	0.23294
2761.70430	0.22983
2759.77573	0.22699
2757.84717	0.22429
2755.91860	0.22168
2753.99004	0.21911
2752.06147	0.21642
2750.13291	0.21370
2748.20435	0.21110
2746.27578	0.20853
2744.34722	0.20601
2742.41865	0.20371
2740.49009	0.20152
2738.56152	0.19927
2736.63296	0.19699
2734.70439	0.19475
2732.77583	0.19259
2730.84727	0.19051
2728.91870	0.18851
2726.99014	0.18653
2725.06157	0.18457
2723.13301	0.18272
2721.20444	0.18093
2719.27588	0.17911
2717.34731	0.17740
2715.41875	0.17587
2713.49019	0.17440
2711.56162	0.17284
2709.63306	0.17116
2707.70449	0.16951
2705.77593	0.16792
2703.84736	0.16633
2701.91880	0.16483
2699.99023	0.16342
2698.06167	0.16210
2696.13311	0.16092
2694.20454	0.15973
2692.27598	0.15840
2690.34741	0.15707
2688.41885	0.15588
2686.49028	0.15471
2684.56172	0.15355
2682.63315	0.15256
2680.70459	0.15170
2678.77603	0.15084
2676.84746	0.14992
2674.91890	0.14896
2672.99033	0.14799
2671.06177	0.14708
2669.13320	0.14616
2667.20464	0.14523
2665.27607	0.14455
2663.34751	0.14404
2661.41895	0.14339
2659.49038	0.14274
2657.56182	0.14217
2655.63325	0.14141
2653.70469	0.14059
2651.77612	0.14002
2649.84756	0.13959
2647.91899	0.13908
2645.99043	0.13863
2644.06187	0.13821
2642.13330	0.13768
2640.20474	0.13721
2638.27617	0.13689
2636.34761	0.13663
2634.41904	0.13626
2632.49048	0.13585
2630.56191	0.13556
2628.63335	0.13533
2626.70479	0.13509
2624.77622	0.13488
2622.84766	0.13473
2620.91909	0.13469
2618.99053	0.13470
2617.06196	0.13464
2615.13340	0.13451
2613.20483	0.13439
2611.27627	0.13428
2609.34771	0.13426
2607.41914	0.13440
2605.49058	0.13460
2603.56201	0.13467
2601.63345	0.13461
2599.70488	0.13459
2597.77632	0.13467
2595.84775	0.13484
2593.91919	0.13510
2591.99062	0.13533
2590.06206	0.13553
2588.13350	0.13579
2586.20493	0.13614
2584.27637	0.13653
2582.34780	0.13685
2580.41924	0.13721
2578.49067	0.13762
2576.56211	0.13793
2574.63354	0.13816
2572.70498	0.13848
2570.77642	0.13902
2568.84785	0.13966
2566.91929	0.14013
2564.99072	0.14043
2563.06216	0.14083
2561.13359	0.14139
2559.20503	0.14196
2557.27646	0.14244
2555.34790	0.14294
2553.41934	0.14357
2551.49077	0.14421
2549.56221	0.14478
2547.63364	0.14544
2545.70508	0.14617
2543.77651	0.14681
2541.84795	0.14744
2539.91938	0.14825
2537.99082	0.14913
2536.06226	0.14981
2534.13369	0.15028
2532.20513	0.15079
2530.27656	0.15150
2528.34800	0.15234
2526.41943	0.15312
2524.49087	0.15383
2522.56230	0.15464
2520.63374	0.15552
2518.70518	0.15642
2516.77661	0.15734
2514.84805	0.15813
2512.91948	0.15881
2510.99092	0.15952
2509.06235	0.16034
2507.13379	0.16117
2505.20522	0.16204
2503.27666	0.16309
2501.34810	0.16420
2499.41953	0.16513
2497.49097	0.16584
2495.56240	0.16654
2493.63384	0.16746
2491.70527	0.16848
2489.77671	0.16946
2487.84814	0.17054
2485.91958	0.17166
2483.99102	0.17253
2482.06245	0.17321
2480.13389	0.17404
2478.20532	0.17501
2476.27676	0.17595
2474.34819	0.17687
2472.41963	0.17787
2470.49106	0.17891
2468.56250	0.17993
2466.63394	0.18094
2464.70537	0.18195
2462.77681	0.18292
2460.84824	0.18392
2458.91968	0.18487
2456.99111	0.18577
2455.06255	0.18681
2453.13398	0.18801
2451.20542	0.18908
2449.27686	0.18997
2447.34829	0.19097
2445.41973	0.19214
2443.49116	0.19334
2441.56260	0.19444
2439.63403	0.19540
2437.70547	0.19624
2435.77690	0.19719
2433.84834	0.19833
2431.91978	0.19950
2429.99121	0.20058
2428.06265	0.20159
2426.13408	0.20258
2424.20552	0.20353
2422.27695	0.20458
2420.34839	0.20583
2418.41982	0.20722
2416.49126	0.20858
2414.56270	0.20985
2412.63413	0.21103
2410.70557	0.21213
2408.77700	0.21326
2406.84844	0.21443
2404.91987	0.21555
2402.99131	0.21666
2401.06274	0.21791
2399.13418	0.21924
2397.20562	0.22058
2395.27705	0.22191
2393.34849	0.22322
2391.41992	0.22457
2389.49136	0.22622
2387.56279	0.22864
2385.63423	0.23258
2383.70566	0.23883
2381.77710	0.24767
2379.84854	0.25853
2377.91997	0.27071
2375.99141	0.28450
2374.06284	0.30071
2372.13428	0.31919
2370.20571	0.33896
2368.27715	0.35904
2366.34858	0.37873
2364.42002	0.39687
2362.49146	0.41066
2360.56289	0.41804
2358.63433	0.41865
2356.70576	0.41110
2354.77720	0.39568
2352.84863	0.37580
2350.92007	0.35541
2348.99150	0.34272
2347.06294	0.34358
2345.13437	0.35799
2343.20581	0.37652
2341.27725	0.38551
2339.34868	0.38551
2337.42012	0.38371
2335.49155	0.38262
2333.56299	0.38124
2331.63442	0.37994
2329.70586	0.37838
2327.77729	0.37530
2325.84873	0.37061
2323.92017	0.36525
2321.99160	0.35967
2320.06304	0.35321
2318.13447	0.34633
2316.20591	0.34071
2314.27734	0.33704
2312.34878	0.33490
2310.42021	0.33295
2308.49165	0.32989
2306.56309	0.32606
2304.63452	0.32279
2302.70596	0.32094
2300.77739	0.32008
2298.84883	0.31934
2296.92026	0.31862
2294.99170	0.31812
2293.06313	0.31777
2291.13457	0.31742
2289.20601	0.31721
2287.27744	0.31717
2285.34888	0.31723
2283.42031	0.31787
2281.49175	0.31958
2279.56318	0.32204
2277.63462	0.32455
2275.70605	0.32685
2273.77749	0.32912
2271.84893	0.33143
2269.92036	0.33357
2267.99180	0.33550
2266.06323	0.33741
2264.13467	0.33932
2262.20610	0.34111
2260.27754	0.34277
2258.34897	0.34444
2256.42041	0.34626
2254.49185	0.34818
2252.56328	0.35004
2250.63472	0.35183
2248.70615	0.35370
2246.77759	0.35571
2244.84902	0.35766
2242.92046	0.35947
2240.99189	0.36134
2239.06333	0.36343
2237.13477	0.36563
2235.20620	0.36784
2233.27764	0.37007
2231.34907	0.37231
2229.42051	0.37449
2227.49194	0.37658
2225.56338	0.37866
2223.63481	0.38076
2221.70625	0.38287
2219.77769	0.38506
2217.84912	0.38735
2215.92056	0.38968
2213.99199	0.39198
2212.06343	0.39414
2210.13486	0.39618
2208.20630	0.39824
2206.27773	0.40028
2204.34917	0.40236
2202.42061	0.40450
2200.49204	0.40653
2198.56348	0.40841
2196.63491	0.41031
2194.70635	0.41226
2192.77778	0.41422
2190.84922	0.41619
2188.92065	0.41811
2186.99209	0.42001
2185.06353	0.42191
2183.13496	0.42369
2181.20640	0.42538
2179.27783	0.42717
2177.34927	0.42896
2175.42070	0.43057
2173.49214	0.43211
2171.56357	0.43359
2169.63501	0.43498
2167.70645	0.43631
2165.77788	0.43752
2163.84932	0.43864
2161.92075	0.43976
2159.99219	0.44092
2158.06362	0.44207
2156.13506	0.44323
2154.20649	0.44431
2152.27793	0.44522
2150.34937	0.44598
2148.42080	0.44658
2146.49224	0.44717
2144.56367	0.44790
2142.63511	0.44862
2140.70654	0.44911
2138.77798	0.44942
2136.84941	0.44963
2134.92085	0.44970
2132.99229	0.44969
2131.06372	0.44973
2129.13516	0.44979
2127.20659	0.44972
2125.27803	0.44946
2123.34946	0.44906
2121.42090	0.44860
2119.49233	0.44808
2117.56377	0.44754
2115.63521	0.44706
2113.70664	0.44651
2111.77808	0.44581
2109.84951	0.44499
2107.92095	0.44404
2105.99238	0.44294
2104.06382	0.44181
2102.13525	0.44068
2100.20669	0.43942
2098.27812	0.43809
2096.34956	0.43683
2094.42100	0.43557
2092.49243	0.43418
2090.56387	0.43267
2088.63530	0.43103
2086.70674	0.42931
2084.77817	0.42759
2082.84961	0.42587
2080.92104	0.42409
2078.99248	0.42223
2077.06392	0.42025
2075.13535	0.41814
2073.20679	0.41600
2071.27822	0.41389
2069.34966	0.41182
2067.42109	0.40975
2065.49253	0.40765
2063.56396	0.40538
2061.63540	0.40301
2059.70684	0.40059
2057.77827	0.39806
2055.84971	0.39548
2053.92114	0.39298
2051.99258	0.39055
2050.06401	0.38809
2048.13545	0.38560
2046.20688	0.38307
2044.27832	0.38057
2042.34976	0.37816
2040.42119	0.37564
2038.49263	0.37288
2036.56406	0.37013
2034.63550	0.36746
2032.70693	0.36471
2030.77837	0.36188
2028.84980	0.35904
2026.92124	0.35631
2024.99268	0.35364
2023.06411	0.35095
2021.13555	0.34838
2019.20698	0.34608
2017.27842	0.34374
2015.34985	0.34087
2013.42129	0.33770
2011.49272	0.33470
2009.56416	0.33192
2007.63560	0.32927
2005.70703	0.32669
2003.77847	0.32406
2001.84990	0.32143
1999.92134	0.31888
1997.99277	0.31635
1996.06421	0.31383
1994.13564	0.31166
1992.20708	0.30971
1990.27852	0.30725
1988.34995	0.30441
1986.42139	0.30167
1984.49282	0.29908
1982.56426	0.29662
1980.63569	0.29421
1978.70713	0.29191
1976.77856	0.28978
1974.85000	0.28762
1972.92144	0.28540
1970.99287	0.28332
1969.06431	0.28158
1967.13574	0.27990
1965.20718	0.27760
1963.27861	0.27505
1961.35005	0.27296
1959.42148	0.27116
1957.49292	0.26941
1955.56436	0.26769
1953.63579	0.26589
1951.70723	0.26402
1949.77866	0.26232
1947.85010	0.26090
1945.92153	0.25983
1943.99297	0.25903
1942.06440	0.25785
1940.13584	0.25569
1938.20728	0.25344
1936.27871	0.25183
1934.35015	0.25061
1932.42158	0.24942
1930.49302	0.24811
1928.56445	0.24687
1926.63589	0.24588
1924.70732	0.24537
1922.77876	0.24503
1920.85020	0.24419
1918.92163	0.24327
1916.99307	0.24226
1915.06450	0.24071
1913.13594	0.23941
1911.20737	0.23891
1909.27881	0.23867
1907.35024	0.23796
1905.42168	0.23690
1903.49312	0.23593
1901.56455	0.23511
1899.63599	0.23445
1897.70742	0.23417
1895.77886	0.23424
1893.85029	0.23411
1891.92173	0.23379
1889.99316	0.23387
1888.06460	0.23358
1886.13604	0.23266
1884.20747	0.23201
1882.27891	0.23170
1880.35034	0.23148
1878.42178	0.23133
1876.49321	0.23121
1874.56465	0.23112
1872.63608	0.23159
1870.70752	0.23323
1868.77896	0.23555
1866.85039	0.23589
1864.92183	0.23415
1862.99326	0.23287
1861.06470	0.23275
1859.13613	0.23315
1857.20757	0.23344
1855.27900	0.23373
1853.35044	0.23410
1851.42187	0.23466
1849.49331	0.23562
1847.56475	0.23717
1845.63618	0.23921
1843.70762	0.24078
1841.77905	0.24055
1839.85049	0.23988
1837.92192	0.24034
1835.99336	0.24125
1834.06479	0.24211
1832.13623	0.24375
1830.20767	0.24654
1828.27910	0.24848
1826.35054	0.24896
1824.42197	0.24959
1822.49341	0.24995
1820.56484	0.25037
1818.63628	0.25151
1816.70771	0.25315
1814.77915	0.25484
1812.85059	0.25707
1810.92202	0.25984
1808.99346	0.26197
1807.06489	0.26332
1805.13633	0.26486
1803.20776	0.26753
1801.27920	0.27109
1799.35063	0.27440
1797.42207	0.27674
1795.49351	0.27929
1793.56494	0.28302
1791.63638	0.28716
1789.70781	0.28927
1787.77925	0.29033
1785.85068	0.29305
1783.92212	0.29710
1781.99355	0.30155
1780.06499	0.30604
1778.13643	0.31010
1776.20786	0.31420
1774.27930	0.31983
1772.35073	0.32752
1770.42217	0.33378
1768.49360	0.33738
1766.56504	0.34097
1764.63647	0.34562
1762.70791	0.35192
1760.77935	0.35997
1758.85078	0.36703
1756.92222	0.37407
1754.99365	0.38171
1753.06509	0.38920
1751.13652	0.39928
1749.20796	0.41150
1747.27939	0.42167
1745.35083	0.42981
1743.42227	0.43891
1741.49370	0.44947
1739.56514	0.46202
1737.63657	0.47447
1735.70801	0.48605
1733.77944	0.50395
1731.85088	0.52336
1729.92231	0.53704
1727.99375	0.55098
1726.06519	0.56676
1724.13662	0.58512
1722.20806	0.60555
1720.27949	0.62509
1718.35093	0.64901
1716.42236	0.68308
1714.49380	0.71225
1712.56523	0.73423
1710.63667	0.75647
1708.70811	0.78189
1706.77954	0.81166
1704.85098	0.84700
1702.92241	0.87799
1700.99385	0.90883
1699.06528	0.95469
1697.13672	0.99536
1695.20815	1.03480
1693.27959	1.07201
1691.35103	1.10233
1689.42246	1.13860
1687.49390	1.17731
1685.56533	1.21499
1683.63677	1.27221
1681.70820	1.32926
1679.77964	1.36458
1677.85107	1.39861
1675.92251	1.43861
1673.99395	1.48874
1672.06538	1.53356
1670.13682	1.57757
1668.20825	1.63238
1666.27969	1.67425
1664.35112	1.70988
1662.42256	1.75509
1660.49399	1.80428
1658.56543	1.84244
1656.63687	1.87568
1654.70830	1.90904
1652.77974	1.96401
1650.85117	2.01754
1648.92261	2.03950
1646.99404	2.06875
1645.06548	2.10293
1643.13691	2.12572
1641.20835	2.14075
1639.27979	2.15447
1637.35122	2.16474
1635.42266	2.17098
1633.49409	2.16734
1631.56553	2.15497
1629.63696	2.14173
1627.70840	2.12042
1625.77983	2.09407
1623.85127	2.05956
1621.92271	2.01523
1619.99414	1.97518
1618.06558	1.93746
1616.13701	1.88184
1614.20845	1.82082
1612.27988	1.77303
1610.35132	1.72401
1608.42275	1.67105
1606.49419	1.61815
1604.56562	1.56923
1602.63706	1.52211
1600.70850	1.47516
1598.77993	1.43126
1596.85137	1.39017
1594.92280	1.35025
1592.99424	1.31126
1591.06567	1.27509
1589.13711	1.24071
1587.20854	1.20825
1585.27998	1.17808
1583.35142	1.14956
1581.42285	1.12309
1579.49429	1.10051
1577.56572	1.08051
1575.63716	1.05450
1573.70859	1.02924
1571.78003	1.01256
1569.85146	0.99552
1567.92290	0.97483
1565.99434	0.95723
1564.06577	0.94243
1562.13721	0.93095
1560.20864	0.92320
1558.28008	0.90778
1556.35151	0.88828
1554.42295	0.87485
1552.49438	0.86245
1550.56582	0.85127
1548.63726	0.84061
1546.70869	0.83182
1544.78013	0.82533
1542.85156	0.81994
1540.92300	0.81343
1538.99443	0.79982
1537.06587	0.78739
1535.13730	0.78046
1533.20874	0.77325
1531.28018	0.76456
1529.35161	0.75850
1527.42305	0.75422
1525.49448	0.74955
1523.56592	0.74483
1521.63735	0.73990
1519.70879	0.73333
1517.78022	0.72740
1515.85166	0.72116
1513.92310	0.71431
1511.99453	0.70942
1510.06597	0.70720
1508.13740	0.70724
1506.20884	0.70317
1504.28027	0.69370
1502.35171	0.68772
1500.42314	0.68437
1498.49458	0.68198
1496.56602	0.67841
1494.63745	0.67347
1492.70889	0.67015
1490.78032	0.66922
1488.85176	0.66781
1486.92319	0.66323
1484.99463	0.65789
1483.06606	0.65392
1481.13750	0.65102
1479.20894	0.64846
1477.28037	0.64665
1475.35181	0.64591
1473.42324	0.64521
1471.49468	0.64152
1469.56611	0.63597
1467.63755	0.63224
1465.70898	0.63024
1463.78042	0.62802
1461.85186	0.62569
1459.92329	0.62523
1457.99473	0.62639
1456.06616	0.62436
1454.13760	0.61897
1452.20903	0.61520
1450.28047	0.61292
1448.35190	0.61128
1446.42334	0.60925
1444.49478	0.60690
1442.56621	0.60500
1440.63765	0.60374
1438.70908	0.60340
1436.78052	0.60344
1434.85195	0.60197
1432.92339	0.59968
1430.99482	0.59807
1429.06626	0.59646
1427.13770	0.59451
1425.20913	0.59321
1423.28057	0.59237
1421.35200	0.59162
1419.42344	0.59131
1417.49487	0.58994
1415.56631	0.58677
1413.63774	0.58391
1411.70918	0.58202
1409.78062	0.58070
1407.85205	0.57969
1405.92349	0.57903
1403.99492	0.57804
1402.06636	0.57651
1400.13779	0.57562
1398.20923	0.57541
1396.28066	0.57486
1394.35210	0.57318
1392.42354	0.57054
1390.49497	0.56854
1388.56641	0.56779
1386.63784	0.56703
1384.70928	0.56527
1382.78071	0.56358
1380.85215	0.56256
1378.92358	0.56182
1376.99502	0.56127
1375.06646	0.56103
1373.13789	0.56012
1371.20933	0.55838
1369.28076	0.55700
1367.35220	0.55597
1365.42363	0.55515
1363.49507	0.55489
1361.56650	0.55431
1359.63794	0.55279
1357.70937	0.55140
1355.78081	0.55048
1353.85225	0.54966
1351.92368	0.54879
1349.99512	0.54803
1348.06655	0.54732
1346.13799	0.54650
1344.20942	0.54569
1342.28086	0.54535
1340.35229	0.54552
1338.42373	0.54507
1336.49517	0.54340
1334.56660	0.54161
1332.63804	0.54043
1330.70947	0.53965
1328.78091	0.53887
1326.85234	0.53808
1324.92378	0.53737
1322.99521	0.53671
1321.06665	0.53618
1319.13809	0.53571
1317.20952	0.53492
1315.28096	0.53392
1313.35239	0.53303
1311.42383	0.53216
1309.49526	0.53137
1307.56670	0.53071
1305.63813	0.53008
1303.70957	0.52944
1301.78101	0.52869
1299.85244	0.52788
1297.92388	0.52724
1295.99531	0.52667
1294.06675	0.52607
1292.13818	0.52554
1290.20962	0.52506
1288.28105	0.52456
1286.35249	0.52404
1284.42393	0.52357
1282.49536	0.52314
1280.56680	0.52265
1278.63823	0.52210
1276.70967	0.52161
1274.78110	0.52128
1272.85254	0.52105
1270.92397	0.52074
1268.99541	0.52030
1267.06685	0.51987
1265.13828	0.51944
1263.20972	0.51899
1261.28115	0.51865
1259.35259	0.51835
1257.42402	0.51799
1255.49546	0.51770
1253.56689	0.51754
1251.63833	0.51744
1249.70977	0.51735
1247.78120	0.51714
1245.85264	0.51683
1243.92407	0.51657
1241.99551	0.51628
1240.06694	0.51589
1238.13838	0.51548
1236.20981	0.51499
1234.28125	0.51437
1232.35269	0.51382
1230.42412	0.51346
1228.49556	0.51299
1226.56699	0.51230
1224.63843	0.51174
1222.70986	0.51137
1220.78130	0.51087
1218.85273	0.51012
1216.92417	0.50942
1214.99561	0.50886
1213.06704	0.50823
1211.13848	0.50756
1209.20991	0.50702
1207.28135	0.50650
1205.35278	0.50587
1203.42422	0.50527
1201.49565	0.50479
1199.56709	0.50436
1197.63853	0.50394
1195.70996	0.50355
1193.78140	0.50325
1191.85283	0.50300
1189.92427	0.50278
1187.99570	0.50254
1186.06714	0.50221
1184.13857	0.50192
1182.21001	0.50188
1180.28145	0.50195
1178.35288	0.50193
1176.42432	0.50205
1174.49575	0.50242
1172.56719	0.50284
1170.63862	0.50320
1168.71006	0.50349
1166.78149	0.50371
1164.85293	0.50379
1162.92437	0.50376
1160.99580	0.50366
1159.06724	0.50349
1157.13867	0.50307
1155.21011	0.50224
1153.28154	0.50109
1151.35298	0.49971
1149.42441	0.49800
1147.49585	0.49594
1145.56729	0.49377
1143.63872	0.49164
1141.71016	0.48947
1139.78159	0.48735
1137.85303	0.48530
1135.92446	0.48315
1133.99590	0.48098
1132.06733	0.47909
1130.13877	0.47746
1128.21021	0.47586
1126.28164	0.47436
1124.35308	0.47318
1122.42451	0.47229
1120.49595	0.47168
1118.56738	0.47144
1116.63882	0.47133
1114.71025	0.47109
1112.78169	0.47107
1110.85312	0.47141
1108.92456	0.47195
1106.99600	0.47284
1105.06743	0.47434
1103.13887	0.47616
1101.21030	0.47788
1099.28174	0.47974
1097.35317	0.48223
1095.42461	0.48528
1093.49604	0.48870
1091.56748	0.49277
1089.63892	0.49760
1087.71035	0.50301
1085.78179	0.50894
1083.85322	0.51534
1081.92466	0.52179
1079.99609	0.52756
1078.06753	0.53155
1076.13896	0.53269
1074.21040	0.53087
1072.28184	0.52681
1070.35327	0.52125
1068.42471	0.51490
1066.49614	0.50840
1064.56758	0.50233
1062.63901	0.49700
1060.71045	0.49202
1058.78188	0.48716
1056.85332	0.48288
1054.92476	0.47955
1052.99619	0.47714
1051.06763	0.47523
1049.13906	0.47328
1047.21050	0.47123
1045.28193	0.46934
1043.35337	0.46785
1041.42480	0.46685
1039.49624	0.46623
1037.56768	0.46580
1035.63911	0.46568
1033.71055	0.46587
1031.78198	0.46611
1029.85342	0.46627
1027.92485	0.46648
1025.99629	0.46702
1024.06772	0.46781
1022.13916	0.46864
1020.21060	0.46953
1018.28203	0.47050
1016.35347	0.47141
1014.42490	0.47234
1012.49634	0.47351
1010.56777	0.47495
1008.63921	0.47653
1006.71064	0.47823
1004.78208	0.48015
1002.85352	0.48242
1000.92495	0.48504
998.99639	0.48806
997.06782	0.49149
995.13926	0.49515
993.21069	0.49885
991.28213	0.50229
989.35356	0.50507
987.42500	0.50691
985.49644	0.50797
983.56787	0.50886
981.63931	0.50995
979.71074	0.51149
977.78218	0.51371
975.85361	0.51638
973.92505	0.51919
971.99648	0.52220
970.06792	0.52555
968.13936	0.52930
966.21079	0.53337
964.28223	0.53770
962.35366	0.54250
960.42510	0.54766
958.49653	0.55286
956.56797	0.55831
954.63940	0.56432
952.71084	0.57069
950.78228	0.57725
948.85371	0.58401
946.92515	0.59052
944.99658	0.59633
943.06802	0.60197
941.13945	0.60782
939.21089	0.61371
937.28232	0.61959
935.35376	0.62516
933.42520	0.63036
931.49663	0.63550
929.56807	0.64081
927.63950	0.64665
925.71094	0.65292
923.78237	0.65911
921.85381	0.66508
919.92524	0.67122
917.99668	0.67792
916.06812	0.68503
914.13955	0.69220
912.21099	0.69934
910.28242	0.70695
908.35386	0.71534
906.42529	0.72354
904.49673	0.73130
902.56816	0.74008
900.63960	0.75009
898.71104	0.76008
896.78247	0.76969
894.85391	0.77886
892.92534	0.78812
890.99678	0.79867
889.06821	0.80946
887.13965	0.81890
885.21108	0.82816
883.28252	0.83858
881.35396	0.84985
879.42539	0.86139
877.49683	0.87308
875.56826	0.88482
873.63970	0.89612
871.71113	0.90773
869.78257	0.91981
867.85400	0.93045
865.92544	0.93960
863.99687	0.94929
862.06831	0.96025
860.13975	0.97203
858.21118	0.98448
856.28262	0.99689
854.35405	1.00820
852.42549	1.01909
850.49692	1.03058
848.56836	1.04164
846.63979	1.05123
844.71123	1.06180
842.78267	1.07500
840.85410	1.08838
838.92554	1.10161
836.99697	1.11532
835.06841	1.12666
833.13984	1.13519
831.21128	1.14208
829.28271	1.14838
827.35415	1.15752
825.42559	1.16922
823.49702	1.18169
821.56846	1.19414
819.63989	1.20113
817.71133	1.20366
815.78276	1.21207
813.85420	1.22580
811.92563	1.23845
809.99707	1.24769
808.06851	1.25698
806.13994	1.27102
804.21138	1.28185
802.28281	1.29000
800.35425	1.29664
798.42568	1.29765
796.49712	1.30615
794.56855	1.33006
792.63999	1.35309
790.71143	1.34285
788.78286	1.30487
786.85430	1.28373
784.92573	1.30339
782.99717	1.34173
781.06860	1.35725
779.14004	1.35053
777.21147	1.36180
775.28291	1.36140
773.35435	1.30684
771.42578	1.28214
769.49722	1.31472
767.56865	1.33378
765.64009	1.32613
763.71152	1.35931
761.78296	1.40081
759.85439	1.34562
757.92583	1.25193
755.99727	1.16303
754.06870	1.07421
752.14014	1.03164
750.21157	1.05930
748.28301	1.08939
746.35444	1.07271
744.42588	1.03210
742.49731	0.99853
740.56875	0.98913
738.64019	0.97928
736.71162	0.96071
734.78306	0.89112
732.85449	0.80432
730.92593	0.73907
728.99736	0.67258
727.06880	0.66291
725.14023	0.63488
723.21167	0.44463
721.28311	0.20746
719.35454	0.05086
717.42598	0.04927
715.49741	0.16389
713.56885	0.29855
711.64028	0.42667
709.71172	0.43433
707.78315	0.20528
705.85459	0.12473
703.92603	0.18621
701.99746	0.21349
700.06890	0.19816
698.14033	0.19734
696.21177	0.29289
694.28320	0.44307
692.35464	0.44642
690.42607	0.38480
688.49751	0.42673
686.56895	0.55026
684.64038	0.56943
682.71182	0.46740
680.78325	0.44384
678.85469	0.49050
676.92612	0.39636
674.99756	0.31629
673.06899	0.32821
671.14043	0.34515
669.21187	0.33247
667.28330	0.32261
665.35474	0.29497
663.42617	0.25694
661.49761	0.22455
659.56904	0.22775
657.64048	0.30980
655.71191	0.41822
653.78335	0.47208
651.85479	0.53852
649.92622	0.60766
647.99766	0.55712
646.06909	0.41482
644.14053	0.29349
642.21196	0.24880
640.28340	0.28425
638.35483	0.39007
636.42627	0.45312
634.49771	0.35100
632.56914	0.24310
630.64058	0.21467
628.71201	0.31476
626.78345	0.41070
624.85488	0.37200
622.92632	0.32251
620.99775	0.31393
619.06919	0.33091
617.14062	0.35204
615.21206	0.37510
613.28350	0.45546
611.35493	0.48852
609.42637	0.39440
607.49780	0.33837
605.56924	0.40588
603.64067	0.57978
601.71211	0.61908
599.78354	0.42056
597.85498	0.22560
595.92642	0.15425
593.99785	0.18824
592.06929	0.24803
590.14072	0.25219
588.21216	0.25689
586.28359	0.26019
584.35503	0.23647
582.42646	0.22002
580.49790	0.22311
578.56934	0.25633
576.64077	0.30144
574.71221	0.32497
572.78364	0.32204
570.85508	0.28269
568.92651	0.25518
566.99795	0.27871
565.06938	0.31939
563.14082	0.35296
561.21226	0.34611
559.28369	0.33265
557.35513	0.40474
555.42656	0.48279
553.49800	0.33208
551.56943	0.20526
549.64087	0.16956
547.71230	0.16206
545.78374	0.18245
543.85518	0.31307
541.92661	0.44739
539.99805	0.39910
538.06948	0.33915
536.14092	0.24567
534.21235	0.14607
532.28379	0.12283
530.35522	0.18138
528.42666	0.27125
526.49810	0.29293
524.56953	0.25142
522.64097	0.21977
520.71240	0.19168
518.78384	0.18892
516.85527	0.22354
514.92671	0.23846
512.99814	0.22433
511.06958	0.21949
509.14102	0.22403
507.21245	0.21627
505.28389	0.18789
503.35532	0.17402
501.42676	0.19032
499.49819	0.20016
