3997.91411	0.06956
3995.98555	0.06976
3994.05698	0.06966
3992.12842	0.06984
3990.19985	0.07038
3988.27129	0.07087
3986.34272	0.07100
3984.41416	0.07114
3982.48560	0.07169
3980.55703	0.07235
3978.62847	0.07266
3976.69990	0.07281
3974.77134	0.07316
3972.84277	0.07360
3970.91421	0.07382
3968.98564	0.07370
3967.05708	0.07335
3965.12852	0.07326
3963.19995	0.07343
3961.27139	0.07354
3959.34282	0.07391
3957.41426	0.07462
3955.48569	0.07501
3953.55713	0.07499
3951.62856	0.07514
3949.70000	0.07556
3947.77144	0.07579
3945.84287	0.07543
3943.91431	0.07500
3941.98574	0.07502
3940.05718	0.07496
3938.12861	0.07462
3936.20005	0.07447
3934.27148	0.07450
3932.34292	0.07482
3930.41436	0.07550
3928.48579	0.07572
3926.55723	0.07563
3924.62866	0.07617
3922.70010	0.07659
3920.77153	0.07624
3918.84297	0.07594
3916.91440	0.07594
3914.98584	0.07548
3913.05728	0.07457
3911.12871	0.07406
3909.20015	0.07384
3907.27158	0.07412
3905.34302	0.07573
3903.41445	0.07796
3901.48589	0.07862
3899.55732	0.07789
3897.62876	0.07683
3895.70020	0.07580
3893.77163	0.07566
3891.84307	0.07655
3889.91450	0.07700
3887.98594	0.07649
3886.05737	0.07692
3884.12881	0.07797
3882.20024	0.07796
3880.27168	0.07775
3878.34312	0.07737
3876.41455	0.07666
3874.48599	0.07672
3872.55742	0.07757
3870.62886	0.07860
3868.70029	0.07944
3866.77173	0.07954
3864.84316	0.08017
3862.91460	0.08106
3860.98604	0.08034
3859.05747	0.07956
3857.12891	0.08038
3855.20034	0.08240
3853.27178	0.08501
3851.34321	0.08588
3849.41465	0.08397
3847.48608	0.08232
3845.55752	0.08221
3843.62896	0.08351
3841.70039	0.08520
3839.77183	0.08675
3837.84326	0.08856
3835.91470	0.08958
3833.98613	0.08902
3832.05757	0.08817
3830.12900	0.08779
3828.20044	0.08784
3826.27187	0.08854
3824.34331	0.08995
3822.41475	0.09202
3820.48618	0.09497
3818.55762	0.09650
3816.62905	0.09634
3814.70049	0.09619
3812.77192	0.09543
3810.84336	0.09459
3808.91479	0.09504
3806.98623	0.09745
3805.05767	0.10008
3803.12910	0.10138
3801.20054	0.10322
3799.27197	0.10503
3797.34341	0.10519
3795.41484	0.10509
3793.48628	0.10489
3791.55771	0.10486
3789.62915	0.10579
3787.70059	0.10757
3785.77202	0.10976
3783.84346	0.11171
3781.91489	0.11295
3779.98633	0.11460
3778.05776	0.11716
3776.12920	0.11875
3774.20063	0.11931
3772.27207	0.12050
3770.34351	0.12302
3768.41494	0.12589
3766.48638	0.12789
3764.55781	0.12968
3762.62925	0.13145
3760.70068	0.13365
3758.77212	0.13703
3756.84355	0.14025
3754.91499	0.14241
3752.98643	0.14508
3751.05786	0.14967
3749.12930	0.15470
3747.20073	0.15697
3745.27217	0.15856
3743.34360	0.16198
3741.41504	0.16528
3739.48647	0.16734
3737.55791	0.17028
3735.62935	0.17561
3733.70078	0.18221
3731.77222	0.18642
3729.84365	0.18843
3727.91509	0.19106
3725.98652	0.19632
3724.05796	0.20379
3722.12939	0.21160
3720.20083	0.21916
3718.27227	0.22640
3716.34370	0.23372
3714.41514	0.24145
3712.48657	0.25135
3710.55801	0.26537
3708.62944	0.27940
3706.70088	0.29008
3704.77231	0.30041
3702.84375	0.31357
3700.91519	0.33163
3698.98662	0.35102
3697.05806	0.36845
3695.12949	0.38682
3693.20093	0.40697
3691.27236	0.42941
3689.34380	0.45845
3687.41523	0.49346
3685.48667	0.52365
3683.55811	0.55006
3681.62954	0.57886
3679.70098	0.61128
3677.77241	0.64521
3675.84385	0.68549
3673.91528	0.74027
3671.98672	0.78522
3670.05815	0.82479
3668.12959	0.87816
3666.20103	0.92581
3664.27246	0.96572
3662.34390	1.00970
3660.41533	1.05787
3658.48677	1.10542
3656.55820	1.15572
3654.62964	1.21127
3652.70107	1.25771
3650.77251	1.29904
3648.84395	1.35736
3646.91538	1.42770
3644.98682	1.47817
3643.05825	1.51705
3641.12969	1.55698
3639.20112	1.60087
3637.27256	1.64529
3635.34399	1.68934
3633.41543	1.73422
3631.48687	1.77619
3629.55830	1.81811
3627.62974	1.87243
3625.70117	1.92252
3623.77261	1.95585
3621.84404	1.98852
3619.91548	2.02773
3617.98691	2.07536
3616.05835	2.11997
3614.12979	2.15730
3612.20122	2.19705
3610.27266	2.23669
3608.34409	2.27678
3606.41553	2.31970
3604.48696	2.35890
3602.55840	2.39380
3600.62983	2.43211
3598.70127	2.47354
3596.77271	2.51308
3594.84414	2.55284
3592.91558	2.59427
3590.98701	2.63383
3589.05845	2.67095
3587.12988	2.71469
3585.20132	2.76250
3583.27275	2.80318
3581.34419	2.84060
3579.41562	2.88010
3577.48706	2.92231
3575.55850	2.96587
3573.62993	3.00988
3571.70137	3.05134
3569.77280	3.09157
3567.84424	3.13723
3565.91567	3.19375
3563.98711	3.24585
3562.05854	3.28511
3560.12998	3.32289
3558.20142	3.36483
3556.27285	3.41039
3554.34429	3.45568
3552.41572	3.50120
3550.48716	3.54802
3548.55859	3.59556
3546.63003	3.64514
3544.70146	3.69596
3542.77290	3.74248
3540.84434	3.78633
3538.91577	3.83183
3536.98721	3.87744
3535.05864	3.92356
3533.13008	3.97047
3531.20151	4.01875
3529.27295	4.06694
3527.34438	4.11434
3525.41582	4.16313
3523.48726	4.21245
3521.55869	4.26000
3519.63013	4.30553
3517.70156	4.35210
3515.77300	4.39906
3513.84443	4.44562
3511.91587	4.49484
3509.98730	4.54791
3508.05874	4.59890
3506.13018	4.64243
3504.20161	4.68222
3502.27305	4.72702
3500.34448	4.78059
3498.41592	4.83529
3496.48735	4.88809
3494.55879	4.94103
3492.63022	4.99026
3490.70166	5.03379
3488.77310	5.07702
3486.84453	5.12267
3484.91597	5.16855
3482.98740	5.21337
3481.05884	5.25669
3479.13027	5.30316
3477.20171	5.36264
3475.27314	5.42907
3473.34458	5.48278
3471.41602	5.51907
3469.48745	5.55536
3467.55889	5.60452
3465.63032	5.65459
3463.70176	5.69750
3461.77319	5.74454
3459.84463	5.79703
3457.91606	5.84384
3455.98750	5.89331
3454.05894	5.94851
3452.13037	5.99753
3450.20181	6.04611
3448.27324	6.09682
3446.34468	6.14708
3444.41611	6.19717
3442.48755	6.24948
3440.55898	6.30268
3438.63042	6.35152
3436.70186	6.38375
3434.77329	6.41138
3432.84473	6.47169
3430.91616	6.54102
3428.98760	6.58285
3427.05903	6.62744
3425.13047	6.70223
3423.20190	6.76090
3421.27334	6.77712
3419.34478	6.80206
3417.41621	6.85063
3415.48765	6.89209
3413.55908	6.93346
3411.63052	6.99301
3409.70195	7.05315
3407.77339	7.11647
3405.84482	7.18825
3403.91626	7.24627
3401.98770	7.27089
3400.05913	7.28822
3398.13057	7.32518
3396.20200	7.38449
3394.27344	7.44780
3392.34487	7.44696
3390.41631	7.43959
3388.48774	7.50883
3386.55918	7.59914
3384.63062	7.64644
3382.70205	7.65793
3380.77349	7.66698
3378.84492	7.70649
3376.91636	7.74408
3374.98779	7.72306
3373.05923	7.70319
3371.13066	7.70310
3369.20210	7.71559
3367.27354	7.75797
3365.34497	7.81468
3363.41641	7.86820
3361.48784	7.88074
3359.55928	7.85468
3357.63071	7.84052
3355.70215	7.86611
3353.77358	7.90064
3351.84502	7.90980
3349.91646	7.91053
3347.98789	7.93783
3346.05933	7.98696
3344.13076	8.03986
3342.20220	8.04109
3340.27363	7.97685
3338.34507	7.94978
3336.41650	7.96648
3334.48794	7.96609
3332.55937	7.94441
3330.63081	7.96549
3328.70225	8.01293
3326.77368	8.00830
3324.84512	7.99020
3322.91655	8.02402
3320.98799	8.08948
3319.05942	8.11333
3317.13086	8.10476
3315.20229	8.07730
3313.27373	8.05747
3311.34517	8.06810
3309.41660	8.07346
3307.48804	8.07372
3305.55947	8.05511
3303.63091	8.03004
3301.70234	8.07534
3299.77378	8.20910
3297.84521	8.29027
3295.91665	8.22348
3293.98809	8.09761
3292.05952	8.02121
3290.13096	8.05109
3288.20239	8.14537
3286.27383	8.24557
3284.34526	8.36876
3282.41670	8.46972
3280.48813	8.45739
3278.55957	8.37229
3276.63101	8.25273
3274.70244	8.14835
3272.77388	8.08684
3270.84531	8.06171
3268.91675	8.12814
3266.98818	8.25343
3265.05962	8.30367
3263.13105	8.29297
3261.20249	8.28030
3259.27393	8.19609
3257.34536	8.08712
3255.41680	8.06462
3253.48823	8.13229
3251.55967	8.18592
3249.63110	8.13922
3247.70254	8.06037
3245.77397	8.09670
3243.84541	8.29653
3241.91685	8.40693
3239.98828	8.28637
3238.05972	8.13847
3236.13115	8.03957
3234.20259	8.00161
3232.27402	8.05190
3230.34546	8.11188
3228.41689	8.07504
3226.48833	8.00738
3224.55977	7.97330
3222.63120	7.94577
3220.70264	7.89587
3218.77407	7.86061
3216.84551	7.87180
3214.91694	7.88784
3212.98838	7.89732
3211.05981	7.92626
3209.13125	7.95043
3207.20269	7.91325
3205.27412	7.81447
3203.34556	7.69744
3201.41699	7.61367
3199.48843	7.56260
3197.55986	7.51102
3195.63130	7.46967
3193.70273	7.45501
3191.77417	7.44123
3189.84561	7.40531
3187.91704	7.37702
3185.98848	7.34153
3184.05991	7.29047
3182.13135	7.25975
3180.20278	7.21585
3178.27422	7.15662
3176.34565	7.11781
3174.41709	7.05029
3172.48853	6.94149
3170.55996	6.87842
3168.63140	6.86543
3166.70283	6.81809
3164.77427	6.72451
3162.84570	6.63039
3160.91714	6.56171
3158.98857	6.51621
3157.06001	6.47380
3155.13145	6.42068
3153.20288	6.35621
3151.27432	6.29127
3149.34575	6.22671
3147.41719	6.15085
3145.48862	6.07031
3143.56006	6.00093
3141.63149	5.93558
3139.70293	5.86115
3137.77437	5.78480
3135.84580	5.71397
3133.91724	5.64676
3131.98867	5.58222
3130.06011	5.52416
3128.13154	5.46865
3126.20298	5.40137
3124.27441	5.32016
3122.34585	5.23541
3120.41729	5.15666
3118.48872	5.08763
3116.56016	5.02247
3114.63159	4.95433
3112.70303	4.88720
3110.77446	4.82130
3108.84590	4.75091
3106.91733	4.68140
3104.98877	4.61804
3103.06021	4.55521
3101.13164	4.48856
3099.20308	4.42339
3097.27451	4.36237
3095.34595	4.30079
3093.41738	4.23641
3091.48882	4.17131
3089.56025	4.10838
3087.63169	4.04667
3085.70312	3.98457
3083.77456	3.92377
3081.84600	3.86487
3079.91743	3.80795
3077.98887	3.75286
3076.06030	3.69705
3074.13174	3.63992
3072.20317	3.58218
3070.27461	3.52391
3068.34604	3.46751
3066.41748	3.41436
3064.48892	3.36229
3062.56035	3.30963
3060.63179	3.25696
3058.70322	3.20421
3056.77466	3.15112
3054.84609	3.09908
3052.91753	3.04915
3050.98896	3.00000
3049.06040	2.94960
3047.13184	2.89978
3045.20327	2.85290
3043.27471	2.80645
3041.34614	2.75841
3039.41758	2.71134
3037.48901	2.66653
3035.56045	2.62223
3033.63188	2.57805
3031.70332	2.53428
3029.77476	2.49069
3027.84619	2.44789
3025.91763	2.40616
3023.98906	2.36495
3022.06050	2.32419
3020.13193	2.28391
3018.20337	2.24386
3016.27480	2.20442
3014.34624	2.16639
3012.41768	2.12937
3010.48911	2.09236
3008.56055	2.05547
3006.63198	2.01954
3004.70342	1.98485
3002.77485	1.95097
3000.84629	1.91747
2998.91772	1.88456
2996.98916	1.85277
2995.06060	1.82209
2993.13203	1.79192
2991.20347	1.76197
2989.27490	1.73248
2987.34634	1.70369
2985.41777	1.67554
2983.48921	1.64795
2981.56064	1.62073
2979.63208	1.59386
2977.70352	1.56781
2975.77495	1.54281
2973.84639	1.51834
2971.91782	1.49397
2969.98926	1.46968
2968.06069	1.44544
2966.13213	1.42119
2964.20356	1.39691
2962.27500	1.37254
2960.34644	1.34841
2958.41787	1.32471
2956.48931	1.30116
2954.56074	1.27775
2952.63218	1.25471
2950.70361	1.23227
2948.77505	1.21016
2946.84648	1.18759
2944.91792	1.16456
2942.98936	1.14227
2941.06079	1.12146
2939.13223	1.10102
2937.20366	1.07981
2935.27510	1.05775
2933.34653	1.03507
2931.41797	1.01272
2929.48940	0.99147
2927.56084	0.97086
2925.63228	0.95091
2923.70371	0.93260
2921.77515	0.91626
2919.84658	0.90118
2917.91802	0.88668
2915.98945	0.87241
2914.06089	0.85828
2912.13232	0.84437
2910.20376	0.83078
2908.27520	0.81756
2906.34663	0.80452
2904.41807	0.79140
2902.48950	0.77818
2900.56094	0.76502
2898.63237	0.75208
2896.70381	0.73960
2894.77524	0.72779
2892.84668	0.71644
2890.91812	0.70542
2888.98955	0.69482
2887.06099	0.68443
2885.13242	0.67436
2883.20386	0.66486
2881.27529	0.65556
2879.34673	0.64609
2877.41816	0.63652
2875.48960	0.62688
2873.56104	0.61704
2871.63247	0.60680
2869.70391	0.59575
2867.77534	0.58385
2865.84678	0.57165
2863.91821	0.55941
2861.98965	0.54704
2860.06108	0.53473
2858.13252	0.52290
2856.20396	0.51185
2854.27539	0.50161
2852.34683	0.49233
2850.41826	0.48454
2848.48970	0.47827
2846.56113	0.47278
2844.63257	0.46759
2842.70400	0.46256
2840.77544	0.45759
2838.84687	0.45273
2836.91831	0.44799
2834.98975	0.44298
2833.06118	0.43762
2831.13262	0.43224
2829.20405	0.42670
2827.27549	0.42076
2825.34692	0.41476
2823.41836	0.40919
2821.48979	0.40380
2819.56123	0.39813
2817.63267	0.39235
2815.70410	0.38679
2813.77554	0.38145
2811.84697	0.37626
2809.91841	0.37111
2807.98984	0.36585
2806.06128	0.36070
2804.13271	0.35573
2802.20415	0.35073
2800.27559	0.34570
2798.34702	0.34078
2796.41846	0.33601
2794.48989	0.33153
2792.56133	0.32726
2790.63276	0.32285
2788.70420	0.31834
2786.77563	0.31405
2784.84707	0.31002
2782.91851	0.30601
2780.98994	0.30187
2779.06138	0.29764
2777.13281	0.29358
2775.20425	0.28980
2773.27568	0.28617
2771.34712	0.28255
2769.41855	0.27894
2767.48999	0.27542
2765.56143	0.27201
2763.63286	0.26869
2761.70430	0.26546
2759.77573	0.26217
2757.84717	0.25880
2755.91860	0.25549
2753.99004	0.25231
2752.06147	0.24932
2750.13291	0.24647
2748.20435	0.24354
2746.27578	0.24054
2744.34722	0.23774
2742.41865	0.23522
2740.49009	0.23275
2738.56152	0.23015
2736.63296	0.22748
2734.70439	0.22488
2732.77583	0.22236
2730.84727	0.21993
2728.91870	0.21758
2726.99014	0.21530
2725.06157	0.21306
2723.13301	0.21102
2721.20444	0.20910
2719.27588	0.20703
2717.34731	0.20482
2715.41875	0.20274
2713.49019	0.20097
2711.56162	0.19933
2709.63306	0.19747
2707.70449	0.19554
2705.77593	0.19400
2703.84736	0.19263
2701.91880	0.19101
2699.99023	0.18928
2698.06167	0.18768
2696.13311	0.18630
2694.20454	0.18509
2692.27598	0.18391
2690.34741	0.18271
2688.41885	0.18147
2686.49028	0.18008
2684.56172	0.17865
2682.63315	0.17742
2680.70459	0.17641
2678.77603	0.17547
2676.84746	0.17447
2674.91890	0.17344
2672.99033	0.17231
2671.06177	0.17106
2669.13320	0.16991
2667.20464	0.16889
2665.27607	0.16793
2663.34751	0.16709
2661.41895	0.16642
2659.49038	0.16572
2657.56182	0.16484
2655.63325	0.16396
2653.70469	0.16316
2651.77612	0.16246
2649.84756	0.16192
2647.91899	0.16145
2645.99043	0.16093
2644.06187	0.16027
2642.13330	0.15955
2640.20474	0.15903
2638.27617	0.15857
2636.34761	0.15804
2634.41904	0.15750
2632.49048	0.15697
2630.56191	0.15647
2628.63335	0.15606
2626.70479	0.15567
2624.77622	0.15522
2622.84766	0.15478
2620.91909	0.15452
2618.99053	0.15438
2617.06196	0.15420
2615.13340	0.15396
2613.20483	0.15374
2611.27627	0.15358
2609.34771	0.15346
2607.41914	0.15342
2605.49058	0.15345
2603.56201	0.15337
2601.63345	0.15316
2599.70488	0.15302
2597.77632	0.15308
2595.84775	0.15320
2593.91919	0.15321
2591.99062	0.15310
2590.06206	0.15301
2588.13350	0.15307
2586.20493	0.15328
2584.27637	0.15346
2582.34780	0.15355
2580.41924	0.15371
2578.49067	0.15399
2576.56211	0.15427
2574.63354	0.15446
2572.70498	0.15457
2570.77642	0.15476
2568.84785	0.15512
2566.91929	0.15560
2564.99072	0.15612
2563.06216	0.15644
2561.13359	0.15658
2559.20503	0.15686
2557.27646	0.15732
2555.34790	0.15779
2553.41934	0.15829
2551.49077	0.15886
2549.56221	0.15941
2547.63364	0.15995
2545.70508	0.16049
2543.77651	0.16100
2541.84795	0.16150
2539.91938	0.16199
2537.99082	0.16245
2536.06226	0.16293
2534.13369	0.16361
2532.20513	0.16443
2530.27656	0.16509
2528.34800	0.16560
2526.41943	0.16620
2524.49087	0.16692
2522.56230	0.16753
2520.63374	0.16812
2518.70518	0.16883
2516.77661	0.16953
2514.84805	0.17019
2512.91948	0.17096
2510.99092	0.17184
2509.06235	0.17268
2507.13379	0.17344
2505.20522	0.17410
2503.27666	0.17469
2501.34810	0.17536
2499.41953	0.17614
2497.49097	0.17690
2495.56240	0.17762
2493.63384	0.17844
2491.70527	0.17932
2489.77671	0.18016
2487.84814	0.18102
2485.91958	0.18188
2483.99102	0.18274
2482.06245	0.18359
2480.13389	0.18439
2478.20532	0.18514
2476.27676	0.18590
2474.34819	0.18670
2472.41963	0.18757
2470.49106	0.18851
2468.56250	0.18939
2466.63394	0.19011
2464.70537	0.19085
2462.77681	0.19176
2460.84824	0.19276
2458.91968	0.19372
2456.99111	0.19457
2455.06255	0.19537
2453.13398	0.19622
2451.20542	0.19714
2449.27686	0.19817
2447.34829	0.19931
2445.41973	0.20033
2443.49116	0.20121
2441.56260	0.20215
2439.63403	0.20319
2437.70547	0.20423
2435.77690	0.20520
2433.84834	0.20620
2431.91978	0.20724
2429.99121	0.20825
2428.06265	0.20917
2426.13408	0.21007
2424.20552	0.21100
2422.27695	0.21195
2420.34839	0.21299
2418.41982	0.21413
2416.49126	0.21535
2414.56270	0.21655
2412.63413	0.21768
2410.70557	0.21878
2408.77700	0.21985
2406.84844	0.22086
2404.91987	0.22194
2402.99131	0.22314
2401.06274	0.22427
2399.13418	0.22539
2397.20562	0.22665
2395.27705	0.22791
2393.34849	0.22906
2391.41992	0.23025
2389.49136	0.23143
2387.56279	0.23254
2385.63423	0.23364
2383.70566	0.23465
2381.77710	0.23540
2379.84854	0.23590
2377.91997	0.23620
2375.99141	0.23636
2374.06284	0.23642
2372.13428	0.23628
2370.20571	0.23607
2368.27715	0.23603
2366.34858	0.23621
2364.42002	0.23645
2362.49146	0.23673
2360.56289	0.23774
2358.63433	0.23952
2356.70576	0.24199
2354.77720	0.24534
2352.84863	0.24913
2350.92007	0.25274
2348.99150	0.25516
2347.06294	0.25588
2345.13437	0.25567
2343.20581	0.25598
2341.27725	0.25724
2339.34868	0.25899
2337.42012	0.26066
2335.49155	0.26179
2333.56299	0.26298
2331.63442	0.26522
2329.70586	0.26807
2327.77729	0.27048
2325.84873	0.27233
2323.92017	0.27414
2321.99160	0.27652
2320.06304	0.27933
2318.13447	0.28185
2316.20591	0.28393
2314.27734	0.28593
2312.34878	0.28796
2310.42021	0.28998
2308.49165	0.29200
2306.56309	0.29407
2304.63452	0.29617
2302.70596	0.29820
2300.77739	0.30013
2298.84883	0.30203
2296.92026	0.30396
2294.99170	0.30597
2293.06313	0.30805
2291.13457	0.31013
2289.20601	0.31216
2287.27744	0.31422
2285.34888	0.31634
2283.42031	0.31844
2281.49175	0.32037
2279.56318	0.32219
2277.63462	0.32407
2275.70605	0.32598
2273.77749	0.32783
2271.84893	0.32980
2269.92036	0.33192
2267.99180	0.33393
2266.06323	0.33578
2264.13467	0.33769
2262.20610	0.33979
2260.27754	0.34197
2258.34897	0.34414
2256.42041	0.34633
2254.49185	0.34855
2252.56328	0.35069
2250.63472	0.35270
2248.70615	0.35468
2246.77759	0.35681
2244.84902	0.35911
2242.92046	0.36135
2240.99189	0.36351
2239.06333	0.36571
2237.13477	0.36796
2235.20620	0.37013
2233.27764	0.37222
2231.34907	0.37433
2229.42051	0.37648
2227.49194	0.37870
2225.56338	0.38098
2223.63481	0.38313
2221.70625	0.38517
2219.77769	0.38731
2217.84912	0.38953
2215.92056	0.39176
2213.99199	0.39400
2212.06343	0.39615
2210.13486	0.39815
2208.20630	0.40013
2206.27773	0.40222
2204.34917	0.40439
2202.42061	0.40645
2200.49204	0.40833
2198.56348	0.41021
2196.63491	0.41215
2194.70635	0.41417
2192.77778	0.41627
2190.84922	0.41829
2188.92065	0.42013
2186.99209	0.42186
2185.06353	0.42354
2183.13496	0.42519
2181.20640	0.42681
2179.27783	0.42835
2177.34927	0.42985
2175.42070	0.43137
2173.49214	0.43288
2171.56357	0.43435
2169.63501	0.43578
2167.70645	0.43715
2165.77788	0.43847
2163.84932	0.43968
2161.92075	0.44080
2159.99219	0.44185
2158.06362	0.44281
2156.13506	0.44379
2154.20649	0.44478
2152.27793	0.44568
2150.34937	0.44646
2148.42080	0.44713
2146.49224	0.44774
2144.56367	0.44833
2142.63511	0.44888
2140.70654	0.44929
2138.77798	0.44958
2136.84941	0.44986
2134.92085	0.45011
2132.99229	0.45028
2131.06372	0.45035
2129.13516	0.45025
2127.20659	0.44998
2125.27803	0.44973
2123.34946	0.44950
2121.42090	0.44922
2119.49233	0.44881
2117.56377	0.44819
2115.63521	0.44751
2113.70664	0.44688
2111.77808	0.44616
2109.84951	0.44521
2107.92095	0.44416
2105.99238	0.44315
2104.06382	0.44216
2102.13525	0.44103
2100.20669	0.43967
2098.27812	0.43826
2096.34956	0.43694
2094.42100	0.43565
2092.49243	0.43427
2090.56387	0.43277
2088.63530	0.43114
2086.70674	0.42939
2084.77817	0.42755
2082.84961	0.42568
2080.92104	0.42379
2078.99248	0.42193
2077.06392	0.42006
2075.13535	0.41809
2073.20679	0.41598
2071.27822	0.41385
2069.34966	0.41176
2067.42109	0.40964
2065.49253	0.40747
2063.56396	0.40520
2061.63540	0.40282
2059.70684	0.40043
2057.77827	0.39797
2055.84971	0.39540
2053.92114	0.39292
2051.99258	0.39056
2050.06401	0.38811
2048.13545	0.38557
2046.20688	0.38304
2044.27832	0.38053
2042.34976	0.37799
2040.42119	0.37535
2038.49263	0.37260
2036.56406	0.36985
2034.63550	0.36722
2032.70693	0.36461
2030.77837	0.36199
2028.84980	0.35930
2026.92124	0.35651
2024.99268	0.35369
2023.06411	0.35091
2021.13555	0.34825
2019.20698	0.34577
2017.27842	0.34325
2015.34985	0.34046
2013.42129	0.33761
2011.49272	0.33486
2009.56416	0.33218
2007.63560	0.32947
2005.70703	0.32678
2003.77847	0.32413
2001.84990	0.32151
1999.92134	0.31897
1997.99277	0.31645
1996.06421	0.31385
1994.13564	0.31142
1992.20708	0.30927
1990.27852	0.30697
1988.34995	0.30434
1986.42139	0.30164
1984.49282	0.29916
1982.56426	0.29686
1980.63569	0.29451
1978.70713	0.29216
1976.77856	0.28994
1974.85000	0.28778
1972.92144	0.28562
1970.99287	0.28356
1969.06431	0.28166
1967.13574	0.27978
1965.20718	0.27766
1963.27861	0.27551
1961.35005	0.27359
1959.42148	0.27175
1957.49292	0.26989
1955.56436	0.26808
1953.63579	0.26630
1951.70723	0.26454
1949.77866	0.26287
1947.85010	0.26129
1945.92153	0.25989
1943.99297	0.25866
1942.06440	0.25732
1940.13584	0.25560
1938.20728	0.25382
1936.27871	0.25230
1934.35015	0.25099
1932.42158	0.24977
1930.49302	0.24856
1928.56445	0.24738
1926.63589	0.24627
1924.70732	0.24538
1922.77876	0.24461
1920.85020	0.24375
1918.92163	0.24285
1916.99307	0.24186
1915.06450	0.24071
1913.13594	0.23970
1911.20737	0.23903
1909.27881	0.23849
1907.35024	0.23779
1905.42168	0.23693
1903.49312	0.23614
1901.56455	0.23546
1899.63599	0.23488
1897.70742	0.23451
1895.77886	0.23424
1893.85029	0.23393
1891.92173	0.23368
1889.99316	0.23367
1888.06460	0.23346
1886.13604	0.23291
1884.20747	0.23246
1882.27891	0.23220
1880.35034	0.23207
1878.42178	0.23194
1876.49321	0.23182
1874.56465	0.23178
1872.63608	0.23201
1870.70752	0.23261
1868.77896	0.23356
1866.85039	0.23381
1864.92183	0.23326
1862.99326	0.23291
1861.06470	0.23295
1859.13613	0.23318
1857.20757	0.23343
1855.27900	0.23380
1853.35044	0.23423
1851.42187	0.23476
1849.49331	0.23544
1847.56475	0.23634
1845.63618	0.23753
1843.70762	0.23875
1841.77905	0.23928
1839.85049	0.23936
1837.92192	0.23996
1835.99336	0.24085
1834.06479	0.24173
1832.13623	0.24281
1830.20767	0.24443
1828.27910	0.24595
1826.35054	0.24693
1824.42197	0.24813
1822.49341	0.24925
1820.56484	0.25025
1818.63628	0.25149
1816.70771	0.25306
1814.77915	0.25467
1812.85059	0.25639
1810.92202	0.25845
1808.99346	0.26053
1807.06489	0.26235
1805.13633	0.26411
1803.20776	0.26630
1801.27920	0.26897
1799.35063	0.27188
1797.42207	0.27435
1795.49351	0.27667
1793.56494	0.27956
1791.63638	0.28323
1789.70781	0.28631
1787.77925	0.28847
1785.85068	0.29138
1783.92212	0.29508
1781.99355	0.29912
1780.06499	0.30332
1778.13643	0.30743
1776.20786	0.31130
1774.27930	0.31575
1772.35073	0.32186
1770.42217	0.32800
1768.49360	0.33273
1766.56504	0.33731
1764.63647	0.34229
1762.70791	0.34805
1760.77935	0.35529
1758.85078	0.36192
1756.92222	0.36849
1754.99365	0.37552
1753.06509	0.38195
1751.13652	0.39011
1749.20796	0.40056
1747.27939	0.41036
1745.35083	0.41863
1743.42227	0.42767
1741.49370	0.43814
1739.56514	0.45067
1737.63657	0.46300
1735.70801	0.47385
1733.77944	0.49068
1731.85088	0.51055
1729.92231	0.52563
1727.99375	0.54074
1726.06519	0.55715
1724.13662	0.57525
1722.20806	0.59502
1720.27949	0.61358
1718.35093	0.63548
1716.42236	0.66741
1714.49380	0.69751
1712.56523	0.72191
1710.63667	0.74565
1708.70811	0.77136
1706.77954	0.80085
1704.85098	0.83620
1702.92241	0.86779
1700.99385	0.89967
1699.06528	0.94765
1697.13672	0.99157
1695.20815	1.03638
1693.27959	1.08004
1691.35103	1.11579
1689.42246	1.15805
1687.49390	1.20315
1685.56533	1.24676
1683.63677	1.31402
1681.70820	1.38393
1679.77964	1.42875
1677.85107	1.47158
1675.92251	1.52125
1673.99395	1.58338
1672.06538	1.63911
1670.13682	1.69387
1668.20825	1.76506
1666.27969	1.82327
1664.35112	1.87374
1662.42256	1.93987
1660.49399	2.01737
1658.56543	2.07814
1656.63687	2.12480
1654.70830	2.16438
1652.77974	2.22546
1650.85117	2.28611
1648.92261	2.30696
1646.99404	2.33136
1645.06548	2.35764
1643.13691	2.37478
1641.20835	2.38395
1639.27979	2.39131
1637.35122	2.39296
1635.42266	2.38952
1633.49409	2.38262
1631.56553	2.36805
1629.63696	2.34884
1627.70840	2.31789
1625.77983	2.28096
1623.85127	2.23365
1621.92271	2.17752
1619.99414	2.12873
1618.06558	2.08097
1616.13701	2.01335
1614.20845	1.94523
1612.27988	1.89301
1610.35132	1.83766
1608.42275	1.77769
1606.49419	1.71951
1604.56562	1.66677
1602.63706	1.61619
1600.70850	1.56693
1598.77993	1.52195
1596.85137	1.48007
1594.92280	1.43941
1592.99424	1.39987
1591.06567	1.36336
1589.13711	1.32957
1587.20854	1.29938
1585.27998	1.27228
1583.35142	1.24679
1581.42285	1.22340
1579.49429	1.20391
1577.56572	1.18724
1575.63716	1.16808
1573.70859	1.15181
1571.78003	1.14169
1569.85146	1.13205
1567.92290	1.12204
1565.99434	1.11546
1564.06577	1.11185
1562.13721	1.11000
1560.20864	1.11126
1558.28008	1.11924
1556.35151	1.12647
1554.42295	1.13003
1552.49438	1.13402
1550.56582	1.13659
1548.63726	1.13638
1546.70869	1.13305
1544.78013	1.12600
1542.85156	1.11430
1540.92300	1.09452
1538.99443	1.06233
1537.06587	1.03792
1535.13730	1.02117
1533.20874	0.99902
1531.28018	0.97503
1529.35161	0.95763
1527.42305	0.94146
1525.49448	0.92454
1523.56592	0.91035
1521.63735	0.89774
1519.70879	0.88523
1517.78022	0.87405
1515.85166	0.86040
1513.92310	0.84592
1511.99453	0.83362
1510.06597	0.82299
1508.13740	0.81273
1506.20884	0.79543
1504.28027	0.77949
1502.35171	0.77071
1500.42314	0.76359
1498.49458	0.75637
1496.56602	0.74776
1494.63745	0.73878
1492.70889	0.73189
1490.78032	0.72620
1488.85176	0.71968
1486.92319	0.71320
1484.99463	0.70809
1483.06606	0.70440
1481.13750	0.70167
1479.20894	0.69979
1477.28037	0.69914
1475.35181	0.69962
1473.42324	0.70030
1471.49468	0.69936
1469.56611	0.69674
1467.63755	0.69408
1465.70898	0.69195
1463.78042	0.69037
1461.85186	0.68968
1459.92329	0.69018
1457.99473	0.69160
1456.06616	0.69174
1454.13760	0.68917
1452.20903	0.68627
1450.28047	0.68350
1448.35190	0.68078
1446.42334	0.67786
1444.49478	0.67485
1442.56621	0.67188
1440.63765	0.66898
1438.70908	0.66623
1436.78052	0.66283
1434.85195	0.65850
1432.92339	0.65494
1430.99482	0.65286
1429.06626	0.65201
1427.13770	0.65181
1425.20913	0.65235
1423.28057	0.65371
1421.35200	0.65507
1419.42344	0.65618
1417.49487	0.65648
1415.56631	0.65543
1413.63774	0.65453
1411.70918	0.65465
1409.78062	0.65587
1407.85205	0.65781
1405.92349	0.66031
1403.99492	0.66277
1402.06636	0.66390
1400.13779	0.66386
1398.20923	0.66291
1396.28066	0.66055
1394.35210	0.65641
1392.42354	0.65125
1390.49497	0.64643
1388.56641	0.64180
1386.63784	0.63627
1384.70928	0.62998
1382.78071	0.62386
1380.85215	0.61811
1378.92358	0.61326
1376.99502	0.60983
1375.06646	0.60765
1373.13789	0.60611
1371.20933	0.60493
1369.28076	0.60398
1367.35220	0.60280
1365.42363	0.60135
1363.49507	0.59994
1361.56650	0.59843
1359.63794	0.59663
1357.70937	0.59510
1355.78081	0.59386
1353.85225	0.59272
1351.92368	0.59188
1349.99512	0.59134
1348.06655	0.59084
1346.13799	0.59022
1344.20942	0.58950
1342.28086	0.58892
1340.35229	0.58875
1338.42373	0.58857
1336.49517	0.58804
1334.56660	0.58757
1332.63804	0.58745
1330.70947	0.58782
1328.78091	0.58858
1326.85234	0.58952
1324.92378	0.59054
1322.99521	0.59166
1321.06665	0.59271
1319.13809	0.59352
1317.20952	0.59410
1315.28096	0.59446
1313.35239	0.59449
1311.42383	0.59417
1309.49526	0.59368
1307.56670	0.59317
1305.63813	0.59266
1303.70957	0.59218
1301.78101	0.59182
1299.85244	0.59125
1297.92388	0.59012
1295.99531	0.58867
1294.06675	0.58724
1292.13818	0.58586
1290.20962	0.58447
1288.28105	0.58306
1286.35249	0.58165
1284.42393	0.58017
1282.49536	0.57869
1280.56680	0.57731
1278.63823	0.57590
1276.70967	0.57440
1274.78110	0.57321
1272.85254	0.57250
1270.92397	0.57175
1268.99541	0.57071
1267.06685	0.56976
1265.13828	0.56894
1263.20972	0.56803
1261.28115	0.56711
1259.35259	0.56637
1257.42402	0.56579
1255.49546	0.56540
1253.56689	0.56520
1251.63833	0.56521
1249.70977	0.56539
1247.78120	0.56559
1245.85264	0.56564
1243.92407	0.56534
1241.99551	0.56454
1240.06694	0.56318
1238.13838	0.56132
1236.20981	0.55900
1234.28125	0.55640
1232.35269	0.55388
1230.42412	0.55160
1228.49556	0.54945
1226.56699	0.54737
1224.63843	0.54541
1222.70986	0.54350
1220.78130	0.54174
1218.85273	0.54023
1216.92417	0.53894
1214.99561	0.53781
1213.06704	0.53678
1211.13848	0.53589
1209.20991	0.53523
1207.28135	0.53459
1205.35278	0.53370
1203.42422	0.53262
1201.49565	0.53153
1199.56709	0.53048
1197.63853	0.52958
1195.70996	0.52907
1193.78140	0.52882
1191.85283	0.52848
1189.92427	0.52802
1187.99570	0.52770
1186.06714	0.52768
1184.13857	0.52786
1182.21001	0.52822
1180.28145	0.52926
1178.35288	0.53101
1176.42432	0.53283
1174.49575	0.53425
1172.56719	0.53506
1170.63862	0.53521
1168.71006	0.53496
1166.78149	0.53446
1164.85293	0.53381
1162.92437	0.53325
1160.99580	0.53278
1159.06724	0.53218
1157.13867	0.53130
1155.21011	0.53023
1153.28154	0.52880
1151.35298	0.52688
1149.42441	0.52463
1147.49585	0.52217
1145.56729	0.51958
1143.63872	0.51701
1141.71016	0.51463
1139.78159	0.51261
1137.85303	0.51116
1135.92446	0.51025
1133.99590	0.50966
1132.06733	0.50915
1130.13877	0.50869
1128.21021	0.50815
1126.28164	0.50740
1124.35308	0.50666
1122.42451	0.50604
1120.49595	0.50555
1118.56738	0.50530
1116.63882	0.50523
1114.71025	0.50513
1112.78169	0.50517
1110.85312	0.50563
1108.92456	0.50647
1106.99600	0.50743
1105.06743	0.50861
1103.13887	0.51015
1101.21030	0.51183
1099.28174	0.51346
1097.35317	0.51545
1095.42461	0.51826
1093.49604	0.52181
1091.56748	0.52594
1089.63892	0.53075
1087.71035	0.53632
1085.78179	0.54253
1083.85322	0.54907
1081.92466	0.55525
1079.99609	0.56023
1078.06753	0.56327
1076.13896	0.56381
1074.21040	0.56162
1072.28184	0.55702
1070.35327	0.55103
1068.42471	0.54460
1066.49614	0.53819
1064.56758	0.53197
1062.63901	0.52596
1060.71045	0.52045
1058.78188	0.51580
1056.85332	0.51179
1054.92476	0.50810
1052.99619	0.50474
1051.06763	0.50186
1049.13906	0.49939
1047.21050	0.49724
1045.28193	0.49531
1043.35337	0.49349
1041.42480	0.49184
1039.49624	0.49055
1037.56768	0.48968
1035.63911	0.48911
1033.71055	0.48870
1031.78198	0.48828
1029.85342	0.48773
1027.92485	0.48716
1025.99629	0.48673
1024.06772	0.48656
1022.13916	0.48654
1020.21060	0.48660
1018.28203	0.48692
1016.35347	0.48756
1014.42490	0.48845
1012.49634	0.48952
1010.56777	0.49073
1008.63921	0.49224
1006.71064	0.49402
1004.78208	0.49587
1002.85352	0.49798
1000.92495	0.50062
998.99639	0.50366
997.06782	0.50709
995.13926	0.51105
993.21069	0.51525
991.28213	0.51896
989.35356	0.52168
987.42500	0.52329
985.49644	0.52411
983.56787	0.52475
981.63931	0.52539
979.71074	0.52610
977.78218	0.52724
975.85361	0.52912
973.92505	0.53171
971.99648	0.53460
970.06792	0.53768
968.13936	0.54123
966.21079	0.54525
964.28223	0.54955
962.35366	0.55414
960.42510	0.55896
958.49653	0.56392
956.56797	0.56928
954.63940	0.57515
952.71084	0.58116
950.78228	0.58715
948.85371	0.59345
946.92515	0.59996
944.99658	0.60615
943.06802	0.61213
941.13945	0.61842
939.21089	0.62498
937.28232	0.63104
935.35376	0.63626
933.42520	0.64156
931.49663	0.64741
929.56807	0.65296
927.63950	0.65798
925.71094	0.66311
923.78237	0.66849
921.85381	0.67461
919.92524	0.68170
917.99668	0.68897
916.06812	0.69563
914.13955	0.70175
912.21099	0.70853
910.28242	0.71670
908.35386	0.72599
906.42529	0.73544
904.49673	0.74383
902.56816	0.75155
900.63960	0.75961
898.71104	0.76811
896.78247	0.77774
894.85391	0.78855
892.92534	0.79932
890.99678	0.80959
889.06821	0.81932
887.13965	0.82858
885.21108	0.83856
883.28252	0.85044
881.35396	0.86279
879.42539	0.87415
877.49683	0.88565
875.56826	0.89725
873.63970	0.90813
871.71113	0.91923
869.78257	0.93068
867.85400	0.94160
865.92544	0.95275
863.99687	0.96512
862.06831	0.97797
860.13975	0.98951
858.21118	0.99927
856.28262	1.00959
854.35405	1.02263
852.42549	1.03611
850.49692	1.04778
848.56836	1.05878
846.63979	1.06918
844.71123	1.07978
842.78267	1.09155
840.85410	1.10276
838.92554	1.11272
836.99697	1.12318
835.06841	1.13617
833.13984	1.14988
831.21128	1.15997
829.28271	1.16814
827.35415	1.17905
825.42559	1.19196
823.49702	1.20164
821.56846	1.20522
819.63989	1.21161
817.71133	1.22826
815.78276	1.24706
813.85420	1.26124
811.92563	1.27226
809.99707	1.28066
808.06851	1.28828
806.13994	1.28785
804.21138	1.27575
802.28281	1.27948
800.35425	1.30322
798.42568	1.31993
796.49712	1.35645
794.56855	1.42117
792.63999	1.40722
790.71143	1.33818
788.78286	1.31985
786.85430	1.33711
784.92573	1.34418
782.99717	1.33563
781.06860	1.34702
779.14004	1.37634
777.21147	1.38569
775.28291	1.40381
773.35435	1.46589
771.42578	1.55485
769.49722	1.61502
767.56865	1.59389
765.64009	1.43683
763.71152	1.24579
761.78296	1.15582
759.85439	1.18878
757.92583	1.26838
755.99727	1.24444
754.06870	1.20404
752.14014	1.16642
750.21157	1.06534
748.28301	0.99134
746.35444	0.94211
744.42588	0.87629
742.49731	0.85491
740.56875	0.91110
738.64019	0.96637
736.71162	0.91167
734.78306	0.73141
732.85449	0.55626
730.92593	0.47405
728.99736	0.40929
727.06880	0.22382
725.14023	0.00008
723.21167	-0.18765
721.28311	-0.68420
719.35454	-0.43152
717.42598	0.00302
715.49741	0.16530
713.56885	0.28704
711.64028	0.35198
709.71172	0.39870
707.78315	0.51514
705.85459	0.71144
703.92603	0.85768
701.99746	0.80647
700.06890	0.63512
698.14033	0.56739
696.21177	0.59206
694.28320	0.54288
692.35464	0.45509
690.42607	0.43948
688.49751	0.48249
686.56895	0.46155
684.64038	0.39107
682.71182	0.33385
680.78325	0.32839
678.85469	0.40495
676.92612	0.52514
674.99756	0.55624
673.06899	0.47589
671.14043	0.42384
669.21187	0.46213
667.28330	0.58950
665.35474	0.81554
663.42617	0.96840
661.49761	0.67291
659.56904	0.44226
657.64048	0.38480
655.71191	0.42267
653.78335	0.43871
651.85479	0.42446
649.92622	0.39121
647.99766	0.32888
646.06909	0.29475
644.14053	0.32343
642.21196	0.40944
640.28340	0.51809
638.35483	0.48586
636.42627	0.39014
634.49771	0.35461
632.56914	0.35538
630.64058	0.35383
628.71201	0.35341
626.78345	0.36204
624.85488	0.34564
622.92632	0.30421
620.99775	0.27600
619.06919	0.27425
617.14062	0.28869
615.21206	0.31284
613.28350	0.35276
611.35493	0.40208
609.42637	0.41837
607.49780	0.36868
605.56924	0.32377
603.64067	0.31340
601.71211	0.34088
599.78354	0.40961
597.85498	0.43422
595.92642	0.44691
593.99785	0.57666
592.06929	0.83214
590.14072	0.62349
588.21216	0.40572
586.28359	0.32963
584.35503	0.33405
582.42646	0.36988
580.49790	0.36387
578.56934	0.33029
576.64077	0.31431
574.71221	0.30012
572.78364	0.29462
570.85508	0.33534
568.92651	0.38521
566.99795	0.35249
565.06938	0.29959
563.14082	0.30416
561.21226	0.35288
559.28369	0.42977
557.35513	0.47067
555.42656	0.36633
553.49800	0.28520
551.56943	0.28797
549.64087	0.30108
547.71230	0.28012
545.78374	0.24943
543.85518	0.23292
541.92661	0.26331
539.99805	0.34079
538.06948	0.42420
536.14092	0.45405
534.21235	0.41061
532.28379	0.33770
530.35522	0.31023
528.42666	0.31946
526.49810	0.31210
524.56953	0.31886
522.64097	0.33608
520.71240	0.29189
518.78384	0.26800
516.85527	0.33361
514.92671	0.44490
512.99814	0.46527
511.06958	0.36340
509.14102	0.30606
507.21245	0.33457
505.28389	0.39987
503.35532	0.35021
501.42676	0.23882
499.49819	0.18704
