3997.91411	0.06953
3995.98555	0.06951
3994.05698	0.06947
3992.12842	0.06967
3990.19985	0.06996
3988.27129	0.07044
3986.34272	0.07087
3984.41416	0.07094
3982.48560	0.07098
3980.55703	0.07117
3978.62847	0.07144
3976.69990	0.07197
3974.77134	0.07271
3972.84277	0.07328
3970.91421	0.07343
3968.98564	0.07310
3967.05708	0.07274
3965.12852	0.07295
3963.19995	0.07355
3961.27139	0.07406
3959.34282	0.07449
3957.41426	0.07484
3955.48569	0.07474
3953.55713	0.07434
3951.62856	0.07471
3949.70000	0.07597
3947.77144	0.07661
3945.84287	0.07595
3943.91431	0.07532
3941.98574	0.07548
3940.05718	0.07545
3938.12861	0.07510
3936.20005	0.07511
3934.27148	0.07549
3932.34292	0.07624
3930.41436	0.07695
3928.48579	0.07673
3926.55723	0.07641
3924.62866	0.07715
3922.70010	0.07774
3920.77153	0.07717
3918.84297	0.07679
3916.91440	0.07715
3914.98584	0.07673
3913.05728	0.07523
3911.12871	0.07398
3909.20015	0.07347
3907.27158	0.07412
3905.34302	0.07659
3903.41445	0.07981
3901.48589	0.08141
3899.55732	0.08102
3897.62876	0.07905
3895.70020	0.07675
3893.77163	0.07626
3891.84307	0.07770
3889.91450	0.07832
3887.98594	0.07708
3886.05737	0.07704
3884.12881	0.07864
3882.20024	0.07963
3880.27168	0.07987
3878.34312	0.07896
3876.41455	0.07761
3874.48599	0.07816
3872.55742	0.08025
3870.62886	0.08221
3868.70029	0.08313
3866.77173	0.08253
3864.84316	0.08256
3862.91460	0.08343
3860.98604	0.08264
3859.05747	0.08130
3857.12891	0.08153
3855.20034	0.08363
3853.27178	0.08787
3851.34321	0.09050
3849.41465	0.08781
3847.48608	0.08467
3845.55752	0.08363
3843.62896	0.08506
3841.70039	0.08797
3839.77183	0.09118
3837.84326	0.09394
3835.91470	0.09413
3833.98613	0.09215
3832.05757	0.09074
3830.12900	0.09011
3828.20044	0.08982
3826.27187	0.09053
3824.34331	0.09215
3822.41475	0.09485
3820.48618	0.09901
3818.55762	0.10055
3816.62905	0.09940
3814.70049	0.09836
3812.77192	0.09676
3810.84336	0.09560
3808.91479	0.09634
3806.98623	0.09934
3805.05767	0.10277
3803.12910	0.10517
3801.20054	0.10793
3799.27197	0.10912
3797.34341	0.10800
3795.41484	0.10705
3793.48628	0.10601
3791.55771	0.10528
3789.62915	0.10598
3787.70059	0.10802
3785.77202	0.11078
3783.84346	0.11307
3781.91489	0.11427
3779.98633	0.11596
3778.05776	0.11840
3776.12920	0.11930
3774.20063	0.11936
3772.27207	0.12084
3770.34351	0.12418
3768.41494	0.12784
3766.48638	0.13021
3764.55781	0.13188
3762.62925	0.13315
3760.70068	0.13523
3758.77212	0.13924
3756.84355	0.14283
3754.91499	0.14456
3752.98643	0.14732
3751.05786	0.15364
3749.12930	0.16055
3747.20073	0.16268
3745.27217	0.16384
3743.34360	0.16734
3741.41504	0.17032
3739.48647	0.17212
3737.55791	0.17577
3735.62935	0.18266
3733.70078	0.19035
3731.77222	0.19433
3729.84365	0.19594
3727.91509	0.19874
3725.98652	0.20441
3724.05796	0.21195
3722.12939	0.21916
3720.20083	0.22524
3718.27227	0.23062
3716.34370	0.23676
3714.41514	0.24457
3712.48657	0.25597
3710.55801	0.27214
3708.62944	0.28650
3706.70088	0.29619
3704.77231	0.30614
3702.84375	0.31926
3700.91519	0.33675
3698.98662	0.35528
3697.05806	0.37239
3695.12949	0.39099
3693.20093	0.41161
3691.27236	0.43483
3689.34380	0.46500
3687.41523	0.50009
3685.48667	0.52883
3683.55811	0.55371
3681.62954	0.58166
3679.70098	0.61412
3677.77241	0.64926
3675.84385	0.69151
3673.91528	0.74655
3671.98672	0.78961
3670.05815	0.82827
3668.12959	0.88189
3666.20103	0.92894
3664.27246	0.96764
3662.34390	1.01091
3660.41533	1.05898
3658.48677	1.10643
3656.55820	1.15657
3654.62964	1.21246
3652.70107	1.25987
3650.77251	1.30278
3648.84395	1.36342
3646.91538	1.43435
3644.98682	1.48262
3643.05825	1.51981
3641.12969	1.55960
3639.20112	1.60431
3637.27256	1.64968
3635.34399	1.69384
3633.41543	1.73815
3631.48687	1.78010
3629.55830	1.82287
3627.62974	1.87844
3625.70117	1.92897
3623.77261	1.96156
3621.84404	1.99344
3619.91548	2.03260
3617.98691	2.08083
3616.05835	2.12600
3614.12979	2.16391
3612.20122	2.20423
3610.27266	2.24334
3608.34409	2.28192
3606.41553	2.32403
3604.48696	2.36346
3602.55840	2.39827
3600.62983	2.43536
3598.70127	2.47568
3596.77271	2.51574
3594.84414	2.55680
3592.91558	2.59880
3590.98701	2.63829
3589.05845	2.67592
3587.12988	2.72111
3585.20132	2.77060
3583.27275	2.81157
3581.34419	2.84795
3579.41562	2.88680
3577.48706	2.92904
3575.55850	2.97242
3573.62993	3.01604
3571.70137	3.05779
3569.77280	3.09821
3567.84424	3.14207
3565.91567	3.19559
3563.98711	3.24616
3562.05854	3.28708
3560.12998	3.32725
3558.20142	3.36837
3556.27285	3.41227
3554.34429	3.45873
3552.41572	3.50618
3550.48716	3.55109
3548.55859	3.59192
3546.63003	3.63417
3544.70146	3.68530
3542.77290	3.73970
3540.84434	3.78646
3538.91577	3.82953
3536.98721	3.87369
3535.05864	3.91889
3533.13008	3.96457
3531.20151	4.01201
3529.27295	4.06183
3527.34438	4.11375
3525.41582	4.16489
3523.48726	4.21323
3521.55869	4.26090
3519.63013	4.30771
3517.70156	4.35250
3515.77300	4.39641
3513.84443	4.44391
3511.91587	4.49526
3509.98730	4.54884
3508.05874	4.60314
3506.13018	4.65051
3504.20161	4.69074
3502.27305	4.73664
3500.34448	4.79021
3498.41592	4.83617
3496.48735	4.87218
3494.55879	4.91035
3492.63022	4.95780
3490.70166	5.01149
3488.77310	5.06491
3486.84453	5.11342
3484.91597	5.15905
3482.98740	5.20754
3481.05884	5.25647
3479.13027	5.30265
3477.20171	5.35567
3475.27314	5.41561
3473.34458	5.46832
3471.41602	5.50899
3469.48745	5.54848
3467.55889	5.59707
3465.63032	5.64760
3463.70176	5.69245
3461.77319	5.73485
3459.84463	5.78287
3457.91606	5.84104
3455.98750	5.90266
3454.05894	5.95654
3452.13037	5.99951
3450.20181	6.03730
3448.27324	6.08107
3446.34468	6.13262
3444.41611	6.18011
3442.48755	6.23433
3440.55898	6.29462
3438.63042	6.34696
3436.70186	6.39284
3434.77329	6.43250
3432.84473	6.46621
3430.91616	6.50031
3428.98760	6.54664
3427.05903	6.60035
3425.13047	6.65818
3423.20190	6.70462
3421.27334	6.73292
3419.34478	6.76152
3417.41621	6.80294
3415.48765	6.86886
3413.55908	6.94598
3411.63052	7.01207
3409.70195	7.05536
3407.77339	7.09134
3405.84482	7.11929
3403.91626	7.12663
3401.98770	7.13534
3400.05913	7.16456
3398.13057	7.21068
3396.20200	7.25809
3394.27344	7.30672
3392.34487	7.37862
3390.41631	7.48180
3388.48774	7.55768
3386.55918	7.58118
3384.63062	7.58032
3382.70205	7.56889
3380.77349	7.55818
3378.84492	7.58350
3376.91636	7.66113
3374.98779	7.72368
3373.05923	7.73826
3371.13066	7.71102
3369.20210	7.66553
3367.27354	7.64494
3365.34497	7.68168
3363.41641	7.75422
3361.48784	7.80794
3359.55928	7.85217
3357.63071	7.86988
3355.70215	7.85789
3353.77358	7.85344
3351.84502	7.84506
3349.91646	7.84519
3347.98789	7.89679
3346.05933	7.94870
3344.13076	7.97305
3342.20220	8.00837
3340.27363	8.01311
3338.34507	7.99155
3336.41650	7.99614
3334.48794	8.01027
3332.55937	7.98696
3330.63081	7.96770
3328.70225	8.00229
3326.77368	8.06888
3324.84512	8.10669
3322.91655	8.07760
3320.98799	8.02031
3319.05942	7.97486
3317.13086	7.96498
3315.20229	7.97772
3313.27373	8.01099
3311.34517	8.03061
3309.41660	7.99714
3307.48804	7.95575
3305.55947	7.95111
3303.63091	8.01089
3301.70234	8.12517
3299.77378	8.22269
3297.84521	8.18818
3295.91665	8.08154
3293.98809	8.05412
3292.05952	8.07518
3290.13096	8.02829
3288.20239	7.97219
3286.27383	8.01112
3284.34526	8.09191
3282.41670	8.12149
3280.48813	8.07361
3278.55957	8.06316
3276.63101	8.14745
3274.70244	8.21334
3272.77388	8.21335
3270.84531	8.17462
3268.91675	8.10877
3266.98818	8.05684
3265.05962	8.04444
3263.13105	8.09795
3261.20249	8.19588
3259.27393	8.20836
3257.34536	8.16542
3255.41680	8.15888
3253.48823	8.17517
3251.55967	8.18546
3249.63110	8.17097
3247.70254	8.14940
3245.77397	8.11903
3243.84541	8.10259
3241.91685	8.09956
3239.98828	8.09845
3238.05972	8.11194
3236.13115	8.14835
3234.20259	8.20358
3232.27402	8.17816
3230.34546	8.07782
3228.41689	8.04240
3226.48833	8.04790
3224.55977	7.97046
3222.63120	7.84025
3220.70264	7.76053
3218.77407	7.78466
3216.84551	7.85711
3214.91694	7.86984
3212.98838	7.83955
3211.05981	7.81452
3209.13125	7.80761
3207.20269	7.82310
3205.27412	7.82483
3203.34556	7.79030
3201.41699	7.74133
3199.48843	7.68274
3197.55986	7.61142
3195.63130	7.53912
3193.70273	7.47780
3191.77417	7.43550
3189.84561	7.40663
3187.91704	7.38146
3185.98848	7.33728
3184.05991	7.26899
3182.13135	7.21584
3180.20278	7.18602
3178.27422	7.14342
3176.34565	7.09048
3174.41709	7.06021
3172.48853	7.02343
3170.55996	6.93601
3168.63140	6.84877
3166.70283	6.80281
3164.77427	6.74259
3162.84570	6.65724
3160.91714	6.59652
3158.98857	6.54888
3157.06001	6.48836
3155.13145	6.41777
3153.20288	6.33957
3151.27432	6.25843
3149.34575	6.17940
3147.41719	6.11390
3145.48862	6.05747
3143.56006	5.99542
3141.63149	5.93223
3139.70293	5.86131
3137.77437	5.77846
3135.84580	5.70370
3133.91724	5.64301
3131.98867	5.58079
3130.06011	5.51118
3128.13154	5.44039
3126.20298	5.37323
3124.27441	5.31036
3122.34585	5.24531
3120.41729	5.17460
3118.48872	5.10412
3116.56016	5.03746
3114.63159	4.96931
3112.70303	4.90045
3110.77446	4.83344
3108.84590	4.76091
3106.91733	4.68829
3104.98877	4.62643
3103.06021	4.56626
3101.13164	4.49681
3099.20308	4.42318
3097.27451	4.35453
3095.34595	4.29271
3093.41738	4.23314
3091.48882	4.17229
3089.56025	4.11152
3087.63169	4.05225
3085.70312	3.99259
3083.77456	3.93085
3081.84600	3.86860
3079.91743	3.80734
3077.98887	3.74841
3076.06030	3.69133
3074.13174	3.63373
3072.20317	3.57661
3070.27461	3.52147
3068.34604	3.46666
3066.41748	3.41012
3064.48892	3.35297
3062.56035	3.29766
3060.63179	3.24431
3058.70322	3.19116
3056.77466	3.13844
3054.84609	3.08819
3052.91753	3.03914
3050.98896	2.98861
3049.06040	2.93779
3047.13184	2.88897
3045.20327	2.84122
3043.27471	2.79291
3041.34614	2.74465
3039.41758	2.69798
3037.48901	2.65319
3035.56045	2.60912
3033.63188	2.56503
3031.70332	2.52104
3029.77476	2.47715
3027.84619	2.43357
3025.91763	2.39105
3023.98906	2.35015
3022.06050	2.30984
3020.13193	2.26894
3018.20337	2.22871
3016.27480	2.19004
3014.34624	2.15191
3012.41768	2.11409
3010.48911	2.07712
3008.56055	2.04070
3006.63198	2.00443
3004.70342	1.96886
3002.77485	1.93453
3000.84629	1.90137
2998.91772	1.86911
2996.98916	1.83745
2995.06060	1.80598
2993.13203	1.77459
2991.20347	1.74366
2989.27490	1.71350
2987.34634	1.68442
2985.41777	1.65613
2983.48921	1.62804
2981.56064	1.60005
2979.63208	1.57236
2977.70352	1.54525
2975.77495	1.51875
2973.84639	1.49253
2971.91782	1.46659
2969.98926	1.44117
2968.06069	1.41615
2966.13213	1.39143
2964.20356	1.36676
2962.27500	1.34200
2960.34644	1.31746
2958.41787	1.29354
2956.48931	1.27011
2954.56074	1.24693
2952.63218	1.22465
2950.70361	1.20347
2948.77505	1.18235
2946.84648	1.16082
2944.91792	1.13934
2942.98936	1.11820
2941.06079	1.09715
2939.13223	1.07580
2937.20366	1.05399
2935.27510	1.03186
2933.34653	1.00994
2931.41797	0.98891
2929.48940	0.96879
2927.56084	0.94928
2925.63228	0.93048
2923.70371	0.91301
2921.77515	0.89686
2919.84658	0.88152
2917.91802	0.86744
2915.98945	0.85434
2914.06089	0.84097
2912.13232	0.82761
2910.20376	0.81472
2908.27520	0.80187
2906.34663	0.78920
2904.41807	0.77687
2902.48950	0.76475
2900.56094	0.75280
2898.63237	0.74064
2896.70381	0.72830
2894.77524	0.71672
2892.84668	0.70583
2890.91812	0.69484
2888.98955	0.68385
2887.06099	0.67313
2885.13242	0.66289
2883.20386	0.65328
2881.27529	0.64372
2879.34673	0.63391
2877.41816	0.62420
2875.48960	0.61433
2873.56104	0.60393
2871.63247	0.59337
2869.70391	0.58281
2867.77534	0.57190
2865.84678	0.56052
2863.91821	0.54892
2861.98965	0.53744
2860.06108	0.52595
2858.13252	0.51418
2856.20396	0.50279
2854.27539	0.49275
2852.34683	0.48430
2850.41826	0.47722
2848.48970	0.47124
2846.56113	0.46600
2844.63257	0.46090
2842.70400	0.45562
2840.77544	0.45036
2838.84687	0.44540
2836.91831	0.44069
2834.98975	0.43562
2833.06118	0.43008
2831.13262	0.42459
2829.20405	0.41917
2827.27549	0.41349
2825.34692	0.40771
2823.41836	0.40209
2821.48979	0.39653
2819.56123	0.39085
2817.63267	0.38500
2815.70410	0.37919
2813.77554	0.37361
2811.84697	0.36839
2809.91841	0.36347
2807.98984	0.35848
2806.06128	0.35333
2804.13271	0.34830
2802.20415	0.34343
2800.27559	0.33868
2798.34702	0.33394
2796.41846	0.32914
2794.48989	0.32445
2792.56133	0.32001
2790.63276	0.31565
2788.70420	0.31132
2786.77563	0.30725
2784.84707	0.30337
2782.91851	0.29932
2780.98994	0.29506
2779.06138	0.29091
2777.13281	0.28710
2775.20425	0.28348
2773.27568	0.27981
2771.34712	0.27607
2769.41855	0.27247
2767.48999	0.26908
2765.56143	0.26581
2763.63286	0.26258
2761.70430	0.25941
2759.77573	0.25636
2757.84717	0.25331
2755.91860	0.25014
2753.99004	0.24700
2752.06147	0.24410
2750.13291	0.24132
2748.20435	0.23845
2746.27578	0.23555
2744.34722	0.23284
2742.41865	0.23039
2740.49009	0.22810
2738.56152	0.22574
2736.63296	0.22317
2734.70439	0.22051
2732.77583	0.21805
2730.84727	0.21578
2728.91870	0.21355
2726.99014	0.21139
2725.06157	0.20935
2723.13301	0.20733
2721.20444	0.20537
2719.27588	0.20349
2717.34731	0.20163
2715.41875	0.19968
2713.49019	0.19773
2711.56162	0.19598
2709.63306	0.19427
2707.70449	0.19243
2705.77593	0.19080
2703.84736	0.18935
2701.91880	0.18774
2699.99023	0.18610
2698.06167	0.18457
2696.13311	0.18319
2694.20454	0.18196
2692.27598	0.18069
2690.34741	0.17931
2688.41885	0.17798
2686.49028	0.17663
2684.56172	0.17520
2682.63315	0.17391
2680.70459	0.17290
2678.77603	0.17197
2676.84746	0.17091
2674.91890	0.16975
2672.99033	0.16846
2671.06177	0.16715
2669.13320	0.16607
2667.20464	0.16512
2665.27607	0.16417
2663.34751	0.16336
2661.41895	0.16261
2659.49038	0.16172
2657.56182	0.16073
2655.63325	0.15982
2653.70469	0.15901
2651.77612	0.15831
2649.84756	0.15778
2647.91899	0.15731
2645.99043	0.15680
2644.06187	0.15616
2642.13330	0.15553
2640.20474	0.15499
2638.27617	0.15447
2636.34761	0.15389
2634.41904	0.15321
2632.49048	0.15259
2630.56191	0.15215
2628.63335	0.15179
2626.70479	0.15146
2624.77622	0.15115
2622.84766	0.15089
2620.91909	0.15069
2618.99053	0.15051
2617.06196	0.15037
2615.13340	0.15021
2613.20483	0.14994
2611.27627	0.14964
2609.34771	0.14944
2607.41914	0.14942
2605.49058	0.14944
2603.56201	0.14931
2601.63345	0.14918
2599.70488	0.14920
2597.77632	0.14931
2595.84775	0.14940
2593.91919	0.14944
2591.99062	0.14951
2590.06206	0.14964
2588.13350	0.14975
2586.20493	0.14992
2584.27637	0.15018
2582.34780	0.15039
2580.41924	0.15057
2578.49067	0.15077
2576.56211	0.15094
2574.63354	0.15109
2572.70498	0.15134
2570.77642	0.15171
2568.84785	0.15206
2566.91929	0.15239
2564.99072	0.15280
2563.06216	0.15319
2561.13359	0.15345
2559.20503	0.15374
2557.27646	0.15419
2555.34790	0.15471
2553.41934	0.15527
2551.49077	0.15580
2549.56221	0.15630
2547.63364	0.15694
2545.70508	0.15760
2543.77651	0.15806
2541.84795	0.15849
2539.91938	0.15901
2537.99082	0.15956
2536.06226	0.16018
2534.13369	0.16086
2532.20513	0.16149
2530.27656	0.16202
2528.34800	0.16259
2526.41943	0.16338
2524.49087	0.16426
2522.56230	0.16500
2520.63374	0.16571
2518.70518	0.16646
2516.77661	0.16709
2514.84805	0.16765
2512.91948	0.16840
2510.99092	0.16932
2509.06235	0.17022
2507.13379	0.17102
2505.20522	0.17176
2503.27666	0.17249
2501.34810	0.17324
2499.41953	0.17400
2497.49097	0.17469
2495.56240	0.17541
2493.63384	0.17627
2491.70527	0.17711
2489.77671	0.17790
2487.84814	0.17870
2485.91958	0.17945
2483.99102	0.18021
2482.06245	0.18113
2480.13389	0.18204
2478.20532	0.18280
2476.27676	0.18359
2474.34819	0.18447
2472.41963	0.18531
2470.49106	0.18625
2468.56250	0.18729
2466.63394	0.18817
2464.70537	0.18893
2462.77681	0.18975
2460.84824	0.19063
2458.91968	0.19151
2456.99111	0.19245
2455.06255	0.19341
2453.13398	0.19435
2451.20542	0.19527
2449.27686	0.19624
2447.34829	0.19724
2445.41973	0.19819
2443.49116	0.19916
2441.56260	0.20021
2439.63403	0.20126
2437.70547	0.20230
2435.77690	0.20329
2433.84834	0.20428
2431.91978	0.20538
2429.99121	0.20653
2428.06265	0.20757
2426.13408	0.20854
2424.20552	0.20948
2422.27695	0.21041
2420.34839	0.21139
2418.41982	0.21249
2416.49126	0.21362
2414.56270	0.21471
2412.63413	0.21585
2410.70557	0.21700
2408.77700	0.21810
2406.84844	0.21921
2404.91987	0.22039
2402.99131	0.22168
2401.06274	0.22292
2399.13418	0.22400
2397.20562	0.22507
2395.27705	0.22626
2393.34849	0.22749
2391.41992	0.22871
2389.49136	0.23002
2387.56279	0.23161
2385.63423	0.23361
2383.70566	0.23602
2381.77710	0.23884
2379.84854	0.24202
2377.91997	0.24551
2375.99141	0.24947
2374.06284	0.25393
2372.13428	0.25870
2370.20571	0.26389
2368.27715	0.26952
2366.34858	0.27506
2364.42002	0.27982
2362.49146	0.28320
2360.56289	0.28538
2358.63433	0.28716
2356.70576	0.28783
2354.77720	0.28628
2352.84863	0.28368
2350.92007	0.28091
2348.99150	0.27904
2347.06294	0.27963
2345.13437	0.28317
2343.20581	0.28782
2341.27725	0.29111
2339.34868	0.29315
2337.42012	0.29427
2335.49155	0.29464
2333.56299	0.29501
2331.63442	0.29628
2329.70586	0.29780
2327.77729	0.29851
2325.84873	0.29871
2323.92017	0.29889
2321.99160	0.29915
2320.06304	0.29930
2318.13447	0.29918
2316.20591	0.29916
2314.27734	0.29971
2312.34878	0.30061
2310.42021	0.30133
2308.49165	0.30171
2306.56309	0.30219
2304.63452	0.30303
2302.70596	0.30409
2300.77739	0.30524
2298.84883	0.30643
2296.92026	0.30770
2294.99170	0.30910
2293.06313	0.31054
2291.13457	0.31199
2289.20601	0.31344
2287.27744	0.31488
2285.34888	0.31631
2283.42031	0.31786
2281.49175	0.31970
2279.56318	0.32186
2277.63462	0.32406
2275.70605	0.32607
2273.77749	0.32804
2271.84893	0.33010
2269.92036	0.33213
2267.99180	0.33406
2266.06323	0.33598
2264.13467	0.33795
2262.20610	0.33994
2260.27754	0.34192
2258.34897	0.34398
2256.42041	0.34612
2254.49185	0.34819
2252.56328	0.35010
2250.63472	0.35199
2248.70615	0.35404
2246.77759	0.35622
2244.84902	0.35835
2242.92046	0.36044
2240.99189	0.36264
2239.06333	0.36486
2237.13477	0.36708
2235.20620	0.36930
2233.27764	0.37150
2231.34907	0.37372
2229.42051	0.37594
2227.49194	0.37809
2225.56338	0.38023
2223.63481	0.38239
2221.70625	0.38449
2219.77769	0.38648
2217.84912	0.38844
2215.92056	0.39064
2213.99199	0.39302
2212.06343	0.39519
2210.13486	0.39716
2208.20630	0.39917
2206.27773	0.40135
2204.34917	0.40356
2202.42061	0.40567
2200.49204	0.40769
2198.56348	0.40968
2196.63491	0.41171
2194.70635	0.41376
2192.77778	0.41567
2190.84922	0.41734
2188.92065	0.41897
2186.99209	0.42076
2185.06353	0.42264
2183.13496	0.42445
2181.20640	0.42612
2179.27783	0.42768
2177.34927	0.42919
2175.42070	0.43071
2173.49214	0.43220
2171.56357	0.43360
2169.63501	0.43498
2167.70645	0.43642
2165.77788	0.43787
2163.84932	0.43919
2161.92075	0.44038
2159.99219	0.44144
2158.06362	0.44235
2156.13506	0.44325
2154.20649	0.44423
2152.27793	0.44510
2150.34937	0.44592
2148.42080	0.44680
2146.49224	0.44753
2144.56367	0.44805
2142.63511	0.44852
2140.70654	0.44891
2138.77798	0.44917
2136.84941	0.44938
2134.92085	0.44956
2132.99229	0.44974
2131.06372	0.44986
2129.13516	0.44978
2127.20659	0.44957
2125.27803	0.44938
2123.34946	0.44918
2121.42090	0.44884
2119.49233	0.44827
2117.56377	0.44767
2115.63521	0.44712
2113.70664	0.44642
2111.77808	0.44558
2109.84951	0.44478
2107.92095	0.44392
2105.99238	0.44291
2104.06382	0.44178
2102.13525	0.44050
2100.20669	0.43928
2098.27812	0.43821
2096.34956	0.43697
2094.42100	0.43544
2092.49243	0.43392
2090.56387	0.43250
2088.63530	0.43099
2086.70674	0.42928
2084.77817	0.42743
2082.84961	0.42561
2080.92104	0.42379
2078.99248	0.42197
2077.06392	0.42013
2075.13535	0.41825
2073.20679	0.41622
2071.27822	0.41397
2069.34966	0.41169
2067.42109	0.40953
2065.49253	0.40744
2063.56396	0.40524
2061.63540	0.40294
2059.70684	0.40059
2057.77827	0.39809
2055.84971	0.39550
2053.92114	0.39299
2051.99258	0.39051
2050.06401	0.38800
2048.13545	0.38558
2046.20688	0.38320
2044.27832	0.38078
2042.34976	0.37831
2040.42119	0.37577
2038.49263	0.37309
2036.56406	0.37028
2034.63550	0.36751
2032.70693	0.36488
2030.77837	0.36231
2028.84980	0.35960
2026.92124	0.35680
2024.99268	0.35401
2023.06411	0.35125
2021.13555	0.34853
2019.20698	0.34597
2017.27842	0.34356
2015.34985	0.34091
2013.42129	0.33800
2011.49272	0.33514
2009.56416	0.33239
2007.63560	0.32969
2005.70703	0.32704
2003.77847	0.32440
2001.84990	0.32182
1999.92134	0.31935
1997.99277	0.31685
1996.06421	0.31427
1994.13564	0.31191
1992.20708	0.30979
1990.27852	0.30743
1988.34995	0.30474
1986.42139	0.30195
1984.49282	0.29928
1982.56426	0.29689
1980.63569	0.29469
1978.70713	0.29249
1976.77856	0.29023
1974.85000	0.28799
1972.92144	0.28581
1970.99287	0.28374
1969.06431	0.28191
1967.13574	0.28017
1965.20718	0.27812
1963.27861	0.27601
1961.35005	0.27411
1959.42148	0.27217
1957.49292	0.27025
1955.56436	0.26846
1953.63579	0.26663
1951.70723	0.26475
1949.77866	0.26303
1947.85010	0.26152
1945.92153	0.26022
1943.99297	0.25908
1942.06440	0.25771
1940.13584	0.25584
1938.20728	0.25394
1936.27871	0.25240
1934.35015	0.25110
1932.42158	0.24991
1930.49302	0.24870
1928.56445	0.24753
1926.63589	0.24648
1924.70732	0.24577
1922.77876	0.24526
1920.85020	0.24447
1918.92163	0.24355
1916.99307	0.24244
1915.06450	0.24101
1913.13594	0.23982
1911.20737	0.23919
1909.27881	0.23875
1907.35024	0.23805
1905.42168	0.23715
1903.49312	0.23632
1901.56455	0.23560
1899.63599	0.23497
1897.70742	0.23460
1895.77886	0.23446
1893.85029	0.23427
1891.92173	0.23403
1889.99316	0.23410
1888.06460	0.23390
1886.13604	0.23318
1884.20747	0.23254
1882.27891	0.23217
1880.35034	0.23202
1878.42178	0.23197
1876.49321	0.23195
1874.56465	0.23195
1872.63608	0.23219
1870.70752	0.23302
1868.77896	0.23438
1866.85039	0.23468
1864.92183	0.23373
1862.99326	0.23311
1861.06470	0.23315
1859.13613	0.23343
1857.20757	0.23363
1855.27900	0.23391
1853.35044	0.23431
1851.42187	0.23494
1849.49331	0.23584
1847.56475	0.23700
1845.63618	0.23839
1843.70762	0.23965
1841.77905	0.23993
1839.85049	0.23975
1837.92192	0.24021
1835.99336	0.24100
1834.06479	0.24183
1832.13623	0.24309
1830.20767	0.24518
1828.27910	0.24695
1826.35054	0.24782
1824.42197	0.24886
1822.49341	0.24976
1820.56484	0.25058
1818.63628	0.25176
1816.70771	0.25332
1814.77915	0.25497
1812.85059	0.25693
1810.92202	0.25922
1808.99346	0.26117
1807.06489	0.26275
1805.13633	0.26447
1803.20776	0.26686
1801.27920	0.26980
1799.35063	0.27281
1797.42207	0.27529
1795.49351	0.27775
1793.56494	0.28094
1791.63638	0.28480
1789.70781	0.28754
1787.77925	0.28925
1785.85068	0.29208
1783.92212	0.29591
1781.99355	0.30000
1780.06499	0.30423
1778.13643	0.30834
1776.20786	0.31229
1774.27930	0.31705
1772.35073	0.32360
1770.42217	0.32979
1768.49360	0.33412
1766.56504	0.33833
1764.63647	0.34324
1762.70791	0.34926
1760.77935	0.35673
1758.85078	0.36330
1756.92222	0.36985
1754.99365	0.37691
1753.06509	0.38348
1751.13652	0.39200
1749.20796	0.40286
1747.27939	0.41287
1745.35083	0.42120
1743.42227	0.43025
1741.49370	0.44060
1739.56514	0.45295
1737.63657	0.46527
1735.70801	0.47645
1733.77944	0.49365
1731.85088	0.51337
1729.92231	0.52801
1727.99375	0.54267
1726.06519	0.55892
1724.13662	0.57746
1722.20806	0.59772
1720.27949	0.61647
1718.35093	0.63884
1716.42236	0.67156
1714.49380	0.70126
1712.56523	0.72468
1710.63667	0.74790
1708.70811	0.77361
1706.77954	0.80340
1704.85098	0.83888
1702.92241	0.87013
1700.99385	0.90126
1699.06528	0.94833
1697.13672	0.99147
1695.20815	1.03464
1693.27959	1.07621
1691.35103	1.11026
1689.42246	1.15053
1687.49390	1.19351
1685.56533	1.23528
1683.63677	1.29907
1681.70820	1.36423
1679.77964	1.40543
1677.85107	1.44477
1675.92251	1.49087
1673.99395	1.54935
1672.06538	1.60190
1670.13682	1.65285
1668.20825	1.71786
1666.27969	1.77006
1664.35112	1.81485
1662.42256	1.87232
1660.49399	1.93761
1658.56543	1.98855
1656.63687	2.03014
1654.70830	2.06885
1652.77974	2.12783
1650.85117	2.18279
1648.92261	2.20390
1646.99404	2.23137
1645.06548	2.26045
1643.13691	2.27948
1641.20835	2.29086
1639.27979	2.30106
1637.35122	2.30746
1635.42266	2.30758
1633.49409	2.30094
1631.56553	2.28801
1629.63696	2.27239
1627.70840	2.24626
1625.77983	2.21400
1623.85127	2.17205
1621.92271	2.12090
1619.99414	2.07542
1618.06558	2.03057
1616.13701	1.96656
1614.20845	1.90133
1612.27988	1.85145
1610.35132	1.79958
1608.42275	1.74364
1606.49419	1.68858
1604.56562	1.63846
1602.63706	1.59071
1600.70850	1.54354
1598.77993	1.49937
1596.85137	1.45778
1594.92280	1.41738
1592.99424	1.37804
1591.06567	1.34181
1589.13711	1.30796
1587.20854	1.27641
1585.27998	1.24701
1583.35142	1.21962
1581.42285	1.19497
1579.49429	1.17414
1577.56572	1.15574
1575.63716	1.13319
1573.70859	1.11243
1571.78003	1.09886
1569.85146	1.08563
1567.92290	1.07098
1565.99434	1.05957
1564.06577	1.05075
1562.13721	1.04437
1560.20864	1.04140
1558.28008	1.03837
1556.35151	1.03346
1554.42295	1.02957
1552.49438	1.02623
1550.56582	1.02252
1548.63726	1.01708
1546.70869	1.01034
1544.78013	1.00274
1542.85156	0.99351
1540.92300	0.97855
1538.99443	0.95258
1537.06587	0.93314
1535.13730	0.92100
1533.20874	0.90525
1531.28018	0.88740
1529.35161	0.87443
1527.42305	0.86305
1525.49448	0.85138
1523.56592	0.84146
1521.63735	0.83215
1519.70879	0.82183
1517.78022	0.81262
1515.85166	0.80205
1513.92310	0.79071
1511.99453	0.78139
1510.06597	0.77413
1508.13740	0.76828
1506.20884	0.75727
1504.28027	0.74459
1502.35171	0.73714
1500.42314	0.73175
1498.49458	0.72677
1496.56602	0.72071
1494.63745	0.71391
1492.70889	0.70873
1490.78032	0.70522
1488.85176	0.70148
1486.92319	0.69659
1484.99463	0.69208
1483.06606	0.68905
1481.13750	0.68706
1479.20894	0.68547
1477.28037	0.68468
1475.35181	0.68508
1473.42324	0.68590
1471.49468	0.68440
1469.56611	0.68069
1467.63755	0.67763
1465.70898	0.67583
1463.78042	0.67441
1461.85186	0.67309
1459.92329	0.67290
1457.99473	0.67395
1456.06616	0.67345
1454.13760	0.67005
1452.20903	0.66668
1450.28047	0.66372
1448.35190	0.66097
1446.42334	0.65801
1444.49478	0.65510
1442.56621	0.65271
1440.63765	0.65063
1438.70908	0.64875
1436.78052	0.64658
1434.85195	0.64344
1432.92339	0.64053
1430.99482	0.63876
1429.06626	0.63770
1427.13770	0.63686
1425.20913	0.63678
1423.28057	0.63740
1421.35200	0.63787
1419.42344	0.63814
1417.49487	0.63739
1415.56631	0.63534
1413.63774	0.63370
1411.70918	0.63294
1409.78062	0.63274
1407.85205	0.63297
1405.92349	0.63381
1403.99492	0.63448
1402.06636	0.63412
1400.13779	0.63333
1398.20923	0.63226
1396.28066	0.63046
1394.35210	0.62750
1392.42354	0.62353
1390.49497	0.61993
1388.56641	0.61705
1386.63784	0.61365
1384.70928	0.60932
1382.78071	0.60525
1380.85215	0.60172
1378.92358	0.59879
1376.99502	0.59684
1375.06646	0.59589
1373.13789	0.59517
1371.20933	0.59426
1369.28076	0.59348
1367.35220	0.59266
1365.42363	0.59165
1363.49507	0.59072
1361.56650	0.58948
1359.63794	0.58781
1357.70937	0.58628
1355.78081	0.58501
1353.85225	0.58384
1351.92368	0.58275
1349.99512	0.58184
1348.06655	0.58107
1346.13799	0.58028
1344.20942	0.57945
1342.28086	0.57880
1340.35229	0.57850
1338.42373	0.57794
1336.49517	0.57687
1334.56660	0.57582
1332.63804	0.57505
1330.70947	0.57469
1328.78091	0.57475
1326.85234	0.57502
1324.92378	0.57535
1322.99521	0.57566
1321.06665	0.57601
1319.13809	0.57643
1317.20952	0.57650
1315.28096	0.57612
1313.35239	0.57563
1311.42383	0.57496
1309.49526	0.57406
1307.56670	0.57313
1305.63813	0.57228
1303.70957	0.57149
1301.78101	0.57062
1299.85244	0.56949
1297.92388	0.56829
1295.99531	0.56717
1294.06675	0.56600
1292.13818	0.56479
1290.20962	0.56379
1288.28105	0.56295
1286.35249	0.56206
1284.42393	0.56102
1282.49536	0.55980
1280.56680	0.55856
1278.63823	0.55742
1276.70967	0.55642
1274.78110	0.55568
1272.85254	0.55512
1270.92397	0.55447
1268.99541	0.55355
1267.06685	0.55265
1265.13828	0.55195
1263.20972	0.55139
1261.28115	0.55096
1259.35259	0.55053
1257.42402	0.55003
1255.49546	0.54965
1253.56689	0.54948
1251.63833	0.54937
1249.70977	0.54930
1247.78120	0.54923
1245.85264	0.54899
1243.92407	0.54851
1241.99551	0.54779
1240.06694	0.54673
1238.13838	0.54538
1236.20981	0.54382
1234.28125	0.54202
1232.35269	0.54018
1230.42412	0.53856
1228.49556	0.53717
1226.56699	0.53578
1224.63843	0.53423
1222.70986	0.53256
1220.78130	0.53106
1218.85273	0.52987
1216.92417	0.52882
1214.99561	0.52773
1213.06704	0.52676
1211.13848	0.52613
1209.20991	0.52568
1207.28135	0.52512
1205.35278	0.52440
1203.42422	0.52369
1201.49565	0.52302
1199.56709	0.52222
1197.63853	0.52131
1195.70996	0.52047
1193.78140	0.51979
1191.85283	0.51928
1189.92427	0.51891
1187.99570	0.51857
1186.06714	0.51822
1184.13857	0.51806
1182.21001	0.51827
1180.28145	0.51900
1178.35288	0.52017
1176.42432	0.52154
1174.49575	0.52291
1172.56719	0.52411
1170.63862	0.52497
1168.71006	0.52558
1166.78149	0.52608
1164.85293	0.52664
1162.92437	0.52746
1160.99580	0.52824
1159.06724	0.52855
1157.13867	0.52838
1155.21011	0.52782
1153.28154	0.52673
1151.35298	0.52509
1149.42441	0.52297
1147.49585	0.52044
1145.56729	0.51761
1143.63872	0.51472
1141.71016	0.51205
1139.78159	0.50998
1137.85303	0.50870
1135.92446	0.50795
1133.99590	0.50744
1132.06733	0.50722
1130.13877	0.50733
1128.21021	0.50745
1126.28164	0.50730
1124.35308	0.50699
1122.42451	0.50667
1120.49595	0.50650
1118.56738	0.50667
1116.63882	0.50721
1114.71025	0.50790
1112.78169	0.50856
1110.85312	0.50930
1108.92456	0.51022
1106.99600	0.51130
1105.06743	0.51232
1103.13887	0.51318
1101.21030	0.51415
1099.28174	0.51547
1097.35317	0.51706
1095.42461	0.51920
1093.49604	0.52259
1091.56748	0.52759
1089.63892	0.53411
1087.71035	0.54202
1085.78179	0.55097
1083.85322	0.55996
1081.92466	0.56780
1079.99609	0.57343
1078.06753	0.57580
1076.13896	0.57504
1074.21040	0.57187
1072.28184	0.56651
1070.35327	0.55970
1068.42471	0.55254
1066.49614	0.54565
1064.56758	0.53940
1062.63901	0.53394
1060.71045	0.52914
1058.78188	0.52500
1056.85332	0.52149
1054.92476	0.51827
1052.99619	0.51537
1051.06763	0.51322
1049.13906	0.51198
1047.21050	0.51156
1045.28193	0.51162
1043.35337	0.51180
1041.42480	0.51221
1039.49624	0.51276
1037.56768	0.51300
1035.63911	0.51284
1033.71055	0.51223
1031.78198	0.51097
1029.85342	0.50925
1027.92485	0.50739
1025.99629	0.50540
1024.06772	0.50356
1022.13916	0.50216
1020.21060	0.50134
1018.28203	0.50117
1016.35347	0.50113
1014.42490	0.50082
1012.49634	0.50040
1010.56777	0.50000
1008.63921	0.49971
1006.71064	0.49990
1004.78208	0.50072
1002.85352	0.50221
1000.92495	0.50452
998.99639	0.50775
997.06782	0.51179
995.13926	0.51614
993.21069	0.52027
991.28213	0.52363
989.35356	0.52559
987.42500	0.52617
985.49644	0.52607
983.56787	0.52573
981.63931	0.52553
979.71074	0.52582
977.78218	0.52668
975.85361	0.52829
973.92505	0.53065
971.99648	0.53342
970.06792	0.53647
968.13936	0.53991
966.21079	0.54371
964.28223	0.54798
962.35366	0.55267
960.42510	0.55745
958.49653	0.56226
956.56797	0.56738
954.63940	0.57294
952.71084	0.57896
950.78228	0.58550
948.85371	0.59225
946.92515	0.59856
944.99658	0.60434
943.06802	0.61001
941.13945	0.61556
939.21089	0.62117
937.28232	0.62727
935.35376	0.63330
933.42520	0.63869
931.49663	0.64387
929.56807	0.64929
927.63950	0.65453
925.71094	0.65938
923.78237	0.66473
921.85381	0.67133
919.92524	0.67859
917.99668	0.68532
916.06812	0.69151
914.13955	0.69830
912.21099	0.70627
910.28242	0.71461
908.35386	0.72285
906.42529	0.73157
904.49673	0.74019
902.56816	0.74816
900.63960	0.75675
898.71104	0.76656
896.78247	0.77622
894.85391	0.78482
892.92534	0.79337
890.99678	0.80317
889.06821	0.81433
887.13965	0.82558
885.21108	0.83555
883.28252	0.84519
881.35396	0.85676
879.42539	0.86984
877.49683	0.88237
875.56826	0.89397
873.63970	0.90423
871.71113	0.91359
869.78257	0.92438
867.85400	0.93600
865.92544	0.94688
863.99687	0.95830
862.06831	0.97059
860.13975	0.98245
858.21118	0.99306
856.28262	1.00249
854.35405	1.01305
852.42549	1.02637
850.49692	1.04013
848.56836	1.05108
846.63979	1.06088
844.71123	1.07264
842.78267	1.08437
840.85410	1.09434
838.92554	1.10391
836.99697	1.11379
835.06841	1.12407
833.13984	1.13434
831.21128	1.14525
829.28271	1.15826
827.35415	1.17098
825.42559	1.18117
823.49702	1.19264
821.56846	1.20527
819.63989	1.21132
817.71133	1.21364
815.78276	1.22732
813.85420	1.24784
811.92563	1.25581
809.99707	1.25719
808.06851	1.26902
806.13994	1.28718
804.21138	1.29549
802.28281	1.29689
800.35425	1.30418
798.42568	1.30891
796.49712	1.29957
794.56855	1.30242
792.63999	1.32679
790.71143	1.32779
788.78286	1.31260
786.85430	1.32689
784.92573	1.34814
782.99717	1.32541
781.06860	1.29466
779.14004	1.28533
777.21147	1.27042
775.28291	1.25906
773.35435	1.29158
771.42578	1.39450
769.49722	1.45956
767.56865	1.33464
765.64009	1.22097
763.71152	1.18281
761.78296	1.16299
759.85439	1.17784
757.92583	1.22267
755.99727	1.23226
754.06870	1.24137
752.14014	1.20860
750.21157	1.11605
748.28301	1.05367
746.35444	1.03891
744.42588	1.00961
742.49731	0.89867
740.56875	0.79462
738.64019	0.80424
736.71162	0.95713
734.78306	1.06503
732.85449	0.86923
730.92593	0.63934
728.99736	0.37010
727.06880	0.08414
725.14023	-0.13745
723.21167	-0.27419
721.28311	-0.73676
719.35454	-0.49073
717.42598	-0.00964
715.49741	0.23426
713.56885	0.35895
711.64028	0.36950
709.71172	0.36677
707.78315	0.36479
705.85459	0.35734
703.92603	0.36194
701.99746	0.40007
700.06890	0.44043
698.14033	0.51600
696.21177	0.61094
694.28320	0.54825
692.35464	0.39748
690.42607	0.27803
688.49751	0.24689
686.56895	0.29255
684.64038	0.32267
682.71182	0.34432
680.78325	0.43567
678.85469	0.46569
676.92612	0.40306
674.99756	0.43199
673.06899	0.50492
671.14043	0.44869
669.21187	0.37892
667.28330	0.36772
665.35474	0.40047
663.42617	0.44905
661.49761	0.44043
659.56904	0.42410
657.64048	0.51834
655.71191	0.64780
653.78335	0.56041
651.85479	0.40725
649.92622	0.30711
647.99766	0.26526
646.06909	0.28451
644.14053	0.34256
642.21196	0.38936
640.28340	0.38296
638.35483	0.36743
636.42627	0.41727
634.49771	0.54160
632.56914	0.58194
630.64058	0.45051
628.71201	0.34539
626.78345	0.35165
624.85488	0.42873
622.92632	0.43269
620.99775	0.39792
619.06919	0.36947
617.14062	0.34746
615.21206	0.34654
613.28350	0.35124
611.35493	0.37430
609.42637	0.37191
607.49780	0.32502
605.56924	0.32125
603.64067	0.35012
601.71211	0.33878
599.78354	0.32936
597.85498	0.37613
595.92642	0.41087
593.99785	0.33819
592.06929	0.26559
590.14072	0.27286
588.21216	0.31244
586.28359	0.31841
584.35503	0.32326
582.42646	0.40311
580.49790	0.50334
578.56934	0.49114
576.64077	0.45580
574.71221	0.42498
572.78364	0.33770
570.85508	0.25870
568.92651	0.23706
566.99795	0.24565
565.06938	0.25445
563.14082	0.29586
561.21226	0.35715
559.28369	0.34967
557.35513	0.30102
555.42656	0.29243
553.49800	0.32115
551.56943	0.38796
549.64087	0.45303
547.71230	0.38988
545.78374	0.31177
543.85518	0.33042
541.92661	0.42060
539.99805	0.47365
538.06948	0.48006
536.14092	0.44247
534.21235	0.34834
532.28379	0.28155
530.35522	0.26066
528.42666	0.26535
526.49810	0.29434
524.56953	0.34309
522.64097	0.35229
520.71240	0.29424
518.78384	0.27776
516.85527	0.32941
514.92671	0.35870
512.99814	0.30720
511.06958	0.24187
509.14102	0.20441
507.21245	0.19252
505.28389	0.24037
503.35532	0.33401
501.42676	0.30002
499.49819	0.19390
