3997.91411	0.07079
3995.98555	0.07123
3994.05698	0.07171
3992.12842	0.07204
3990.19985	0.07216
3988.27129	0.07213
3986.34272	0.07238
3984.41416	0.07304
3982.48560	0.07351
3980.55703	0.07372
3978.62847	0.07399
3976.69990	0.07427
3974.77134	0.07440
3972.84277	0.07453
3970.91421	0.07471
3968.98564	0.07468
3967.05708	0.07477
3965.12852	0.07543
3963.19995	0.07603
3961.27139	0.07590
3959.34282	0.07552
3957.41426	0.07564
3955.48569	0.07609
3953.55713	0.07645
3951.62856	0.07670
3949.70000	0.07714
3947.77144	0.07772
3945.84287	0.07784
3943.91431	0.07782
3941.98574	0.07794
3940.05718	0.07742
3938.12861	0.07664
3936.20005	0.07643
3934.27148	0.07684
3932.34292	0.07759
3930.41436	0.07788
3928.48579	0.07736
3926.55723	0.07699
3924.62866	0.07759
3922.70010	0.07828
3920.77153	0.07797
3918.84297	0.07757
3916.91440	0.07784
3914.98584	0.07782
3913.05728	0.07678
3911.12871	0.07557
3909.20015	0.07504
3907.27158	0.07576
3905.34302	0.07823
3903.41445	0.08140
3901.48589	0.08265
3899.55732	0.08177
3897.62876	0.08003
3895.70020	0.07838
3893.77163	0.07812
3891.84307	0.07933
3889.91450	0.07982
3887.98594	0.07887
3886.05737	0.07904
3884.12881	0.08044
3882.20024	0.08106
3880.27168	0.08116
3878.34312	0.08017
3876.41455	0.07858
3874.48599	0.07899
3872.55742	0.08133
3870.62886	0.08340
3868.70029	0.08383
3866.77173	0.08323
3864.84316	0.08397
3862.91460	0.08519
3860.98604	0.08395
3859.05747	0.08198
3857.12891	0.08219
3855.20034	0.08529
3853.27178	0.09057
3851.34321	0.09192
3849.41465	0.08796
3847.48608	0.08512
3845.55752	0.08450
3843.62896	0.08584
3841.70039	0.08853
3839.77183	0.09156
3837.84326	0.09374
3835.91470	0.09371
3833.98613	0.09259
3832.05757	0.09170
3830.12900	0.09113
3828.20044	0.09105
3826.27187	0.09167
3824.34331	0.09292
3822.41475	0.09534
3820.48618	0.09932
3818.55762	0.10127
3816.62905	0.10078
3814.70049	0.09974
3812.77192	0.09776
3810.84336	0.09652
3808.91479	0.09753
3806.98623	0.10046
3805.05767	0.10312
3803.12910	0.10525
3801.20054	0.10860
3799.27197	0.11039
3797.34341	0.10971
3795.41484	0.10923
3793.48628	0.10839
3791.55771	0.10750
3789.62915	0.10772
3787.70059	0.10892
3785.77202	0.11085
3783.84346	0.11321
3781.91489	0.11537
3779.98633	0.11770
3778.05776	0.11990
3776.12920	0.12043
3774.20063	0.12064
3772.27207	0.12245
3770.34351	0.12610
3768.41494	0.13001
3766.48638	0.13223
3764.55781	0.13333
3762.62925	0.13417
3760.70068	0.13604
3758.77212	0.13958
3756.84355	0.14289
3754.91499	0.14532
3752.98643	0.14908
3751.05786	0.15556
3749.12930	0.16191
3747.20073	0.16397
3745.27217	0.16512
3743.34360	0.16809
3741.41504	0.17103
3739.48647	0.17388
3737.55791	0.17885
3735.62935	0.18688
3733.70078	0.19491
3731.77222	0.19845
3729.84365	0.20020
3727.91509	0.20346
3725.98652	0.20917
3724.05796	0.21630
3722.12939	0.22296
3720.20083	0.22885
3718.27227	0.23456
3716.34370	0.24081
3714.41514	0.24801
3712.48657	0.25848
3710.55801	0.27446
3708.62944	0.28977
3706.70088	0.30003
3704.77231	0.31021
3702.84375	0.32399
3700.91519	0.34189
3698.98662	0.36007
3697.05806	0.37707
3695.12949	0.39604
3693.20093	0.41687
3691.27236	0.43991
3689.34380	0.46960
3687.41523	0.50435
3685.48667	0.53312
3683.55811	0.55812
3681.62954	0.58637
3679.70098	0.61947
3677.77241	0.65511
3675.84385	0.69673
3673.91528	0.75065
3671.98672	0.79420
3670.05815	0.83357
3668.12959	0.88730
3666.20103	0.93517
3664.27246	0.97481
3662.34390	1.01824
3660.41533	1.06628
3658.48677	1.11419
3656.55820	1.16509
3654.62964	1.22188
3652.70107	1.27006
3650.77251	1.31262
3648.84395	1.37117
3646.91538	1.44086
3644.98682	1.48995
3643.05825	1.52775
3641.12969	1.56773
3639.20112	1.61246
3637.27256	1.65771
3635.34399	1.70237
3633.41543	1.74765
3631.48687	1.79009
3629.55830	1.83321
3627.62974	1.88908
3625.70117	1.93900
3623.77261	1.97147
3621.84404	2.00342
3619.91548	2.04095
3617.98691	2.08660
3616.05835	2.13021
3614.12979	2.16646
3612.20122	2.20543
3610.27266	2.24548
3608.34409	2.28690
3606.41553	2.33109
3604.48696	2.37040
3602.55840	2.40412
3600.62983	2.44058
3598.70127	2.48148
3596.77271	2.52236
3594.84414	2.56276
3592.91558	2.60343
3590.98701	2.64217
3589.05845	2.67827
3587.12988	2.72135
3585.20132	2.77023
3583.27275	2.81289
3581.34419	2.85253
3579.41562	2.89324
3577.48706	2.93389
3575.55850	2.97434
3573.62993	3.01636
3571.70137	3.05746
3569.77280	3.09662
3567.84424	3.13902
3565.91567	3.19238
3563.98711	3.24316
3562.05854	3.28212
3560.12998	3.32133
3558.20142	3.36428
3556.27285	3.40796
3554.34429	3.45116
3552.41572	3.49768
3550.48716	3.54784
3548.55859	3.59638
3546.63003	3.64209
3544.70146	3.68887
3542.77290	3.73492
3540.84434	3.77863
3538.91577	3.82414
3536.98721	3.87106
3535.05864	3.91888
3533.13008	3.96662
3531.20151	4.01525
3529.27295	4.06550
3527.34438	4.11574
3525.41582	4.16505
3523.48726	4.21206
3521.55869	4.25858
3519.63013	4.30697
3517.70156	4.35455
3515.77300	4.39746
3513.84443	4.43974
3511.91587	4.48769
3509.98730	4.54087
3508.05874	4.59247
3506.13018	4.63929
3504.20161	4.68669
3502.27305	4.73715
3500.34448	4.78767
3498.41592	4.83570
3496.48735	4.87979
3494.55879	4.92247
3492.63022	4.96986
3490.70166	5.02487
3488.77310	5.08209
3486.84453	5.13180
3484.91597	5.17632
3482.98740	5.22265
3481.05884	5.27087
3479.13027	5.31825
3477.20171	5.36277
3475.27314	5.40529
3473.34458	5.44982
3471.41602	5.49506
3469.48745	5.53802
3467.55889	5.58595
3465.63032	5.63963
3463.70176	5.69652
3461.77319	5.75397
3459.84463	5.80222
3457.91606	5.84233
3455.98750	5.88817
3454.05894	5.94135
3452.13037	5.99909
3450.20181	6.05793
3448.27324	6.10180
3446.34468	6.14105
3444.41611	6.19081
3442.48755	6.24249
3440.55898	6.29129
3438.63042	6.33669
3436.70186	6.38155
3434.77329	6.43872
3432.84473	6.50128
3430.91616	6.54326
3428.98760	6.58566
3427.05903	6.65401
3425.13047	6.72343
3423.20190	6.76634
3421.27334	6.79990
3419.34478	6.83640
3417.41621	6.88587
3415.48765	6.95223
3413.55908	6.98589
3411.63052	7.00032
3409.70195	7.04408
3407.77339	7.10426
3405.84482	7.17380
3403.91626	7.25002
3401.98770	7.28288
3400.05913	7.27369
3398.13057	7.28045
3396.20200	7.33928
3394.27344	7.42807
3392.34487	7.46869
3390.41631	7.47677
3388.48774	7.49852
3386.55918	7.53784
3384.63062	7.59110
3382.70205	7.66864
3380.77349	7.76075
3378.84492	7.79109
3376.91636	7.75641
3374.98779	7.74092
3373.05923	7.79903
3371.13066	7.89256
3369.20210	7.95518
3367.27354	7.95003
3365.34497	7.93325
3363.41641	7.95159
3361.48784	7.96627
3359.55928	8.00139
3357.63071	8.06817
3355.70215	8.09839
3353.77358	8.06238
3351.84502	8.04623
3349.91646	8.07097
3347.98789	8.10266
3346.05933	8.12970
3344.13076	8.10966
3342.20220	8.05794
3340.27363	8.06815
3338.34507	8.18209
3336.41650	8.24305
3334.48794	8.16093
3332.55937	8.09023
3330.63081	8.11655
3328.70225	8.16794
3326.77368	8.15640
3324.84512	8.09070
3322.91655	8.08800
3320.98799	8.21286
3319.05942	8.28998
3317.13086	8.22530
3315.20229	8.10901
3313.27373	8.00389
3311.34517	7.99036
3309.41660	8.09642
3307.48804	8.22007
3305.55947	8.23907
3303.63091	8.19865
3301.70234	8.17421
3299.77378	8.19936
3297.84521	8.25141
3295.91665	8.28297
3293.98809	8.32336
3292.05952	8.39614
3290.13096	8.39182
3288.20239	8.28228
3286.27383	8.23730
3284.34526	8.28335
3282.41670	8.29359
3280.48813	8.20975
3278.55957	8.11261
3276.63101	8.02444
3274.70244	7.98081
3272.77388	8.11041
3270.84531	8.30874
3268.91675	8.34387
3266.98818	8.33820
3265.05962	8.37621
3263.13105	8.34995
3261.20249	8.30161
3259.27393	8.28198
3257.34536	8.23554
3255.41680	8.15788
3253.48823	8.17255
3251.55967	8.29078
3249.63110	8.34984
3247.70254	8.32459
3245.77397	8.28151
3243.84541	8.24146
3241.91685	8.19824
3239.98828	8.15468
3238.05972	8.10555
3236.13115	8.06274
3234.20259	8.11203
3232.27402	8.23327
3230.34546	8.30756
3228.41689	8.27108
3226.48833	8.16543
3224.55977	8.15098
3222.63120	8.23541
3220.70264	8.27724
3218.77407	8.28183
3216.84551	8.23314
3214.91694	8.11172
3212.98838	8.02061
3211.05981	8.00175
3209.13125	8.00683
3207.20269	7.97392
3205.27412	7.91668
3203.34556	7.86133
3201.41699	7.78860
3199.48843	7.69486
3197.55986	7.61881
3195.63130	7.59921
3193.70273	7.62103
3191.77417	7.61446
3189.84561	7.53762
3187.91704	7.45788
3185.98848	7.43280
3184.05991	7.41275
3182.13135	7.35299
3180.20278	7.28268
3178.27422	7.21593
3176.34565	7.14051
3174.41709	7.06651
3172.48853	7.01330
3170.55996	6.97685
3168.63140	6.93324
3166.70283	6.85541
3164.77427	6.75513
3162.84570	6.67116
3160.91714	6.60606
3158.98857	6.54699
3157.06001	6.49203
3155.13145	6.44054
3153.20288	6.38188
3151.27432	6.31318
3149.34575	6.25278
3147.41719	6.20210
3145.48862	6.14220
3143.56006	6.06339
3141.63149	5.97126
3139.70293	5.88323
3137.77437	5.81600
3135.84580	5.76193
3133.91724	5.70190
3131.98867	5.62981
3130.06011	5.55359
3128.13154	5.48432
3126.20298	5.41757
3124.27441	5.34125
3122.34585	5.25707
3120.41729	5.17983
3118.48872	5.11474
3116.56016	5.04586
3114.63159	4.96476
3112.70303	4.88880
3110.77446	4.82779
3108.84590	4.77021
3106.91733	4.70767
3104.98877	4.64147
3103.06021	4.57163
3101.13164	4.49861
3099.20308	4.42853
3097.27451	4.36293
3095.34595	4.29871
3093.41738	4.23464
3091.48882	4.17023
3089.56025	4.10645
3087.63169	4.04434
3085.70312	3.98324
3083.77456	3.92067
3081.84600	3.85722
3079.91743	3.79511
3077.98887	3.73290
3076.06030	3.67125
3074.13174	3.61351
3072.20317	3.55691
3070.27461	3.49778
3068.34604	3.43918
3066.41748	3.38223
3064.48892	3.32527
3062.56035	3.26862
3060.63179	3.21366
3058.70322	3.16183
3056.77466	3.11106
3054.84609	3.05832
3052.91753	3.00480
3050.98896	2.95334
3049.06040	2.90437
3047.13184	2.85648
3045.20327	2.80869
3043.27471	2.76085
3041.34614	2.71310
3039.41758	2.66599
3037.48901	2.61968
3035.56045	2.57429
3033.63188	2.53038
3031.70332	2.48671
3029.77476	2.44200
3027.84619	2.39800
3025.91763	2.35634
3023.98906	2.31582
3022.06050	2.27534
3020.13193	2.23581
3018.20337	2.19739
3016.27480	2.15903
3014.34624	2.12090
3012.41768	2.08332
3010.48911	2.04588
3008.56055	2.00890
3006.63198	1.97299
3004.70342	1.93782
3002.77485	1.90302
3000.84629	1.86872
2998.91772	1.83498
2996.98916	1.80176
2995.06060	1.76927
2993.13203	1.73764
2991.20347	1.70674
2989.27490	1.67626
2987.34634	1.64587
2985.41777	1.61553
2983.48921	1.58573
2981.56064	1.55711
2979.63208	1.52911
2977.70352	1.50092
2975.77495	1.47300
2973.84639	1.44578
2971.91782	1.41921
2969.98926	1.39326
2968.06069	1.36801
2966.13213	1.34313
2964.20356	1.31832
2962.27500	1.29405
2960.34644	1.27067
2958.41787	1.24797
2956.48931	1.22549
2954.56074	1.20286
2952.63218	1.18042
2950.70361	1.15881
2948.77505	1.13790
2946.84648	1.11718
2944.91792	1.09676
2942.98936	1.07691
2941.06079	1.05770
2939.13223	1.03898
2937.20366	1.02063
2935.27510	1.00266
2933.34653	0.98470
2931.41797	0.96673
2929.48940	0.94937
2927.56084	0.93293
2925.63228	0.91702
2923.70371	0.90070
2921.77515	0.88384
2919.84658	0.86768
2917.91802	0.85236
2915.98945	0.83674
2914.06089	0.82098
2912.13232	0.80594
2910.20376	0.79146
2908.27520	0.77709
2906.34663	0.76306
2904.41807	0.74968
2902.48950	0.73667
2900.56094	0.72371
2898.63237	0.71108
2896.70381	0.69908
2894.77524	0.68719
2892.84668	0.67521
2890.91812	0.66369
2888.98955	0.65248
2887.06099	0.64114
2885.13242	0.63016
2883.20386	0.61975
2881.27529	0.60928
2879.34673	0.59867
2877.41816	0.58839
2875.48960	0.57844
2873.56104	0.56870
2871.63247	0.55917
2869.70391	0.54972
2867.77534	0.54018
2865.84678	0.53075
2863.91821	0.52183
2861.98965	0.51336
2860.06108	0.50512
2858.13252	0.49701
2856.20396	0.48910
2854.27539	0.48127
2852.34683	0.47321
2850.41826	0.46510
2848.48970	0.45722
2846.56113	0.44951
2844.63257	0.44206
2842.70400	0.43509
2840.77544	0.42849
2838.84687	0.42210
2836.91831	0.41600
2834.98975	0.41011
2833.06118	0.40425
2831.13262	0.39852
2829.20405	0.39304
2827.27549	0.38756
2825.34692	0.38181
2823.41836	0.37586
2821.48979	0.37015
2819.56123	0.36468
2817.63267	0.35905
2815.70410	0.35346
2813.77554	0.34826
2811.84697	0.34326
2809.91841	0.33827
2807.98984	0.33328
2806.06128	0.32832
2804.13271	0.32354
2802.20415	0.31888
2800.27559	0.31432
2798.34702	0.30987
2796.41846	0.30550
2794.48989	0.30123
2792.56133	0.29705
2790.63276	0.29293
2788.70420	0.28886
2786.77563	0.28478
2784.84707	0.28085
2782.91851	0.27720
2780.98994	0.27356
2779.06138	0.26974
2777.13281	0.26602
2775.20425	0.26253
2773.27568	0.25915
2771.34712	0.25579
2769.41855	0.25247
2767.48999	0.24927
2765.56143	0.24627
2763.63286	0.24330
2761.70430	0.24017
2759.77573	0.23707
2757.84717	0.23427
2755.91860	0.23157
2753.99004	0.22885
2752.06147	0.22624
2750.13291	0.22362
2748.20435	0.22096
2746.27578	0.21835
2744.34722	0.21586
2742.41865	0.21350
2740.49009	0.21119
2738.56152	0.20885
2736.63296	0.20647
2734.70439	0.20422
2732.77583	0.20227
2730.84727	0.20030
2728.91870	0.19808
2726.99014	0.19597
2725.06157	0.19419
2723.13301	0.19247
2721.20444	0.19058
2719.27588	0.18863
2717.34731	0.18679
2715.41875	0.18505
2713.49019	0.18341
2711.56162	0.18186
2709.63306	0.18038
2707.70449	0.17898
2705.77593	0.17742
2703.84736	0.17563
2701.91880	0.17393
2699.99023	0.17249
2698.06167	0.17127
2696.13311	0.17001
2694.20454	0.16855
2692.27598	0.16713
2690.34741	0.16595
2688.41885	0.16493
2686.49028	0.16385
2684.56172	0.16262
2682.63315	0.16131
2680.70459	0.16009
2678.77603	0.15906
2676.84746	0.15820
2674.91890	0.15732
2672.99033	0.15642
2671.06177	0.15557
2669.13320	0.15462
2667.20464	0.15355
2665.27607	0.15257
2663.34751	0.15177
2661.41895	0.15109
2659.49038	0.15045
2657.56182	0.14972
2655.63325	0.14896
2653.70469	0.14830
2651.77612	0.14775
2649.84756	0.14725
2647.91899	0.14674
2645.99043	0.14616
2644.06187	0.14559
2642.13330	0.14508
2640.20474	0.14454
2638.27617	0.14403
2636.34761	0.14368
2634.41904	0.14338
2632.49048	0.14305
2630.56191	0.14278
2628.63335	0.14248
2626.70479	0.14213
2624.77622	0.14181
2622.84766	0.14153
2620.91909	0.14122
2618.99053	0.14103
2617.06196	0.14104
2615.13340	0.14106
2613.20483	0.14093
2611.27627	0.14082
2609.34771	0.14079
2607.41914	0.14072
2605.49058	0.14073
2603.56201	0.14081
2601.63345	0.14085
2599.70488	0.14094
2597.77632	0.14107
2595.84775	0.14113
2593.91919	0.14120
2591.99062	0.14142
2590.06206	0.14173
2588.13350	0.14197
2586.20493	0.14219
2584.27637	0.14240
2582.34780	0.14249
2580.41924	0.14265
2578.49067	0.14307
2576.56211	0.14356
2574.63354	0.14393
2572.70498	0.14420
2570.77642	0.14462
2568.84785	0.14511
2566.91929	0.14542
2564.99072	0.14566
2563.06216	0.14603
2561.13359	0.14658
2559.20503	0.14728
2557.27646	0.14801
2555.34790	0.14861
2553.41934	0.14904
2551.49077	0.14948
2549.56221	0.15005
2547.63364	0.15068
2545.70508	0.15129
2543.77651	0.15190
2541.84795	0.15261
2539.91938	0.15334
2537.99082	0.15399
2536.06226	0.15467
2534.13369	0.15540
2532.20513	0.15601
2530.27656	0.15663
2528.34800	0.15730
2526.41943	0.15799
2524.49087	0.15877
2522.56230	0.15961
2520.63374	0.16045
2518.70518	0.16133
2516.77661	0.16222
2514.84805	0.16300
2512.91948	0.16375
2510.99092	0.16455
2509.06235	0.16533
2507.13379	0.16613
2505.20522	0.16700
2503.27666	0.16789
2501.34810	0.16876
2499.41953	0.16962
2497.49097	0.17046
2495.56240	0.17139
2493.63384	0.17234
2491.70527	0.17317
2489.77671	0.17401
2487.84814	0.17493
2485.91958	0.17581
2483.99102	0.17656
2482.06245	0.17735
2480.13389	0.17829
2478.20532	0.17936
2476.27676	0.18040
2474.34819	0.18135
2472.41963	0.18226
2470.49106	0.18314
2468.56250	0.18403
2466.63394	0.18499
2464.70537	0.18598
2462.77681	0.18695
2460.84824	0.18795
2458.91968	0.18897
2456.99111	0.18997
2455.06255	0.19090
2453.13398	0.19178
2451.20542	0.19267
2449.27686	0.19355
2447.34829	0.19454
2445.41973	0.19567
2443.49116	0.19683
2441.56260	0.19789
2439.63403	0.19887
2437.70547	0.19994
2435.77690	0.20117
2433.84834	0.20234
2431.91978	0.20326
2429.99121	0.20417
2428.06265	0.20526
2426.13408	0.20643
2424.20552	0.20758
2422.27695	0.20874
2420.34839	0.20985
2418.41982	0.21082
2416.49126	0.21183
2414.56270	0.21304
2412.63413	0.21421
2410.70557	0.21529
2408.77700	0.21645
2406.84844	0.21771
2404.91987	0.21896
2402.99131	0.22008
2401.06274	0.22111
2399.13418	0.22231
2397.20562	0.22369
2395.27705	0.22505
2393.34849	0.22631
2391.41992	0.22754
2389.49136	0.22888
2387.56279	0.23064
2385.63423	0.23310
2383.70566	0.23649
2381.77710	0.24094
2379.84854	0.24626
2377.91997	0.25228
2375.99141	0.25906
2374.06284	0.26685
2372.13428	0.27570
2370.20571	0.28529
2368.27715	0.29532
2366.34858	0.30492
2364.42002	0.31248
2362.49146	0.31758
2360.56289	0.32085
2358.63433	0.32261
2356.70576	0.32196
2354.77720	0.31710
2352.84863	0.30900
2350.92007	0.30089
2348.99150	0.29635
2347.06294	0.29746
2345.13437	0.30451
2343.20581	0.31367
2341.27725	0.31853
2339.34868	0.31897
2337.42012	0.31842
2335.49155	0.31842
2333.56299	0.31896
2331.63442	0.32009
2329.70586	0.32098
2327.77729	0.32063
2325.84873	0.31915
2323.92017	0.31740
2321.99160	0.31573
2320.06304	0.31390
2318.13447	0.31209
2316.20591	0.31069
2314.27734	0.30982
2312.34878	0.30961
2310.42021	0.30983
2308.49165	0.30973
2306.56309	0.30914
2304.63452	0.30873
2302.70596	0.30900
2300.77739	0.30971
2298.84883	0.31051
2296.92026	0.31137
2294.99170	0.31226
2293.06313	0.31314
2291.13457	0.31401
2289.20601	0.31494
2287.27744	0.31596
2285.34888	0.31704
2283.42031	0.31834
2281.49175	0.32006
2279.56318	0.32210
2277.63462	0.32428
2275.70605	0.32661
2273.77749	0.32901
2271.84893	0.33122
2269.92036	0.33327
2267.99180	0.33530
2266.06323	0.33726
2264.13467	0.33919
2262.20610	0.34117
2260.27754	0.34303
2258.34897	0.34479
2256.42041	0.34664
2254.49185	0.34859
2252.56328	0.35065
2250.63472	0.35279
2248.70615	0.35494
2246.77759	0.35703
2244.84902	0.35908
2242.92046	0.36112
2240.99189	0.36325
2239.06333	0.36551
2237.13477	0.36767
2235.20620	0.36962
2233.27764	0.37155
2231.34907	0.37361
2229.42051	0.37587
2227.49194	0.37822
2225.56338	0.38046
2223.63481	0.38265
2221.70625	0.38480
2219.77769	0.38693
2217.84912	0.38914
2215.92056	0.39134
2213.99199	0.39346
2212.06343	0.39555
2210.13486	0.39763
2208.20630	0.39973
2206.27773	0.40190
2204.34917	0.40408
2202.42061	0.40617
2200.49204	0.40816
2198.56348	0.41006
2196.63491	0.41192
2194.70635	0.41387
2192.77778	0.41588
2190.84922	0.41786
2188.92065	0.41979
2186.99209	0.42165
2185.06353	0.42341
2183.13496	0.42505
2181.20640	0.42664
2179.27783	0.42835
2177.34927	0.43008
2175.42070	0.43169
2173.49214	0.43323
2171.56357	0.43471
2169.63501	0.43612
2167.70645	0.43741
2165.77788	0.43863
2163.84932	0.43990
2161.92075	0.44123
2159.99219	0.44249
2158.06362	0.44362
2156.13506	0.44456
2154.20649	0.44532
2152.27793	0.44606
2150.34937	0.44682
2148.42080	0.44754
2146.49224	0.44833
2144.56367	0.44913
2142.63511	0.44970
2140.70654	0.44994
2138.77798	0.45018
2136.84941	0.45058
2134.92085	0.45091
2132.99229	0.45094
2131.06372	0.45082
2129.13516	0.45073
2127.20659	0.45065
2125.27803	0.45047
2123.34946	0.45008
2121.42090	0.44962
2119.49233	0.44921
2117.56377	0.44879
2115.63521	0.44829
2113.70664	0.44770
2111.77808	0.44701
2109.84951	0.44626
2107.92095	0.44537
2105.99238	0.44425
2104.06382	0.44310
2102.13525	0.44197
2100.20669	0.44078
2098.27812	0.43960
2096.34956	0.43839
2094.42100	0.43705
2092.49243	0.43562
2090.56387	0.43414
2088.63530	0.43249
2086.70674	0.43065
2084.77817	0.42879
2082.84961	0.42701
2080.92104	0.42526
2078.99248	0.42347
2077.06392	0.42158
2075.13535	0.41962
2073.20679	0.41764
2071.27822	0.41555
2069.34966	0.41335
2067.42109	0.41117
2065.49253	0.40908
2063.56396	0.40682
2061.63540	0.40436
2059.70684	0.40193
2057.77827	0.39958
2055.84971	0.39721
2053.92114	0.39476
2051.99258	0.39226
2050.06401	0.38976
2048.13545	0.38727
2046.20688	0.38478
2044.27832	0.38233
2042.34976	0.37988
2040.42119	0.37729
2038.49263	0.37451
2036.56406	0.37174
2034.63550	0.36909
2032.70693	0.36642
2030.77837	0.36367
2028.84980	0.36083
2026.92124	0.35809
2024.99268	0.35554
2023.06411	0.35298
2021.13555	0.35031
2019.20698	0.34771
2017.27842	0.34510
2015.34985	0.34220
2013.42129	0.33928
2011.49272	0.33661
2009.56416	0.33403
2007.63560	0.33138
2005.70703	0.32876
2003.77847	0.32618
2001.84990	0.32357
1999.92134	0.32091
1997.99277	0.31826
1996.06421	0.31573
1994.13564	0.31342
1992.20708	0.31120
1990.27852	0.30868
1988.34995	0.30597
1986.42139	0.30339
1984.49282	0.30094
1982.56426	0.29854
1980.63569	0.29616
1978.70713	0.29385
1976.77856	0.29159
1974.85000	0.28940
1972.92144	0.28727
1970.99287	0.28519
1969.06431	0.28324
1967.13574	0.28137
1965.20718	0.27928
1963.27861	0.27713
1961.35005	0.27510
1959.42148	0.27316
1957.49292	0.27130
1955.56436	0.26951
1953.63579	0.26770
1951.70723	0.26587
1949.77866	0.26415
1947.85010	0.26261
1945.92153	0.26124
1943.99297	0.25999
1942.06440	0.25860
1940.13584	0.25682
1938.20728	0.25506
1936.27871	0.25364
1934.35015	0.25237
1932.42158	0.25118
1930.49302	0.25007
1928.56445	0.24896
1926.63589	0.24779
1924.70732	0.24686
1922.77876	0.24618
1920.85020	0.24531
1918.92163	0.24435
1916.99307	0.24331
1915.06450	0.24203
1913.13594	0.24092
1911.20737	0.24030
1909.27881	0.23983
1907.35024	0.23909
1905.42168	0.23819
1903.49312	0.23737
1901.56455	0.23669
1899.63599	0.23618
1897.70742	0.23583
1895.77886	0.23548
1893.85029	0.23503
1891.92173	0.23464
1889.99316	0.23461
1888.06460	0.23444
1886.13604	0.23390
1884.20747	0.23346
1882.27891	0.23315
1880.35034	0.23292
1878.42178	0.23279
1876.49321	0.23283
1874.56465	0.23289
1872.63608	0.23309
1870.70752	0.23382
1868.77896	0.23510
1866.85039	0.23551
1864.92183	0.23473
1862.99326	0.23419
1861.06470	0.23424
1859.13613	0.23454
1857.20757	0.23475
1855.27900	0.23500
1853.35044	0.23544
1851.42187	0.23609
1849.49331	0.23688
1847.56475	0.23788
1845.63618	0.23920
1843.70762	0.24048
1841.77905	0.24085
1839.85049	0.24076
1837.92192	0.24125
1835.99336	0.24208
1834.06479	0.24301
1832.13623	0.24433
1830.20767	0.24639
1828.27910	0.24817
1826.35054	0.24904
1824.42197	0.25001
1822.49341	0.25084
1820.56484	0.25163
1818.63628	0.25280
1816.70771	0.25434
1814.77915	0.25595
1812.85059	0.25790
1810.92202	0.26025
1808.99346	0.26236
1807.06489	0.26413
1805.13633	0.26594
1803.20776	0.26826
1801.27920	0.27106
1799.35063	0.27399
1797.42207	0.27644
1795.49351	0.27878
1793.56494	0.28173
1791.63638	0.28549
1789.70781	0.28857
1787.77925	0.29073
1785.85068	0.29372
1783.92212	0.29750
1781.99355	0.30157
1780.06499	0.30579
1778.13643	0.30992
1776.20786	0.31393
1774.27930	0.31877
1772.35073	0.32540
1770.42217	0.33169
1768.49360	0.33627
1766.56504	0.34077
1764.63647	0.34578
1762.70791	0.35169
1760.77935	0.35918
1758.85078	0.36615
1756.92222	0.37327
1754.99365	0.38092
1753.06509	0.38800
1751.13652	0.39706
1749.20796	0.40857
1747.27939	0.41914
1745.35083	0.42789
1743.42227	0.43722
1741.49370	0.44775
1739.56514	0.46028
1737.63657	0.47278
1735.70801	0.48391
1733.77944	0.50079
1731.85088	0.52025
1729.92231	0.53500
1727.99375	0.54985
1726.06519	0.56603
1724.13662	0.58423
1722.20806	0.60424
1720.27949	0.62304
1718.35093	0.64555
1716.42236	0.67814
1714.49380	0.70763
1712.56523	0.73094
1710.63667	0.75403
1708.70811	0.77943
1706.77954	0.80863
1704.85098	0.84330
1702.92241	0.87400
1700.99385	0.90442
1699.06528	0.94952
1697.13672	0.99032
1695.20815	1.03114
1693.27959	1.07018
1691.35103	1.10178
1689.42246	1.13881
1687.49390	1.17779
1685.56533	1.21528
1683.63677	1.27306
1681.70820	1.33198
1679.77964	1.36888
1677.85107	1.40431
1675.92251	1.44555
1673.99395	1.49656
1672.06538	1.54144
1670.13682	1.58496
1668.20825	1.64118
1666.27969	1.68564
1664.35112	1.72152
1662.42256	1.76543
1660.49399	1.81501
1658.56543	1.85410
1656.63687	1.88679
1654.70830	1.91984
1652.77974	1.97665
1650.85117	2.02867
1648.92261	2.04807
1646.99404	2.07841
1645.06548	2.11572
1643.13691	2.13911
1641.20835	2.15358
1639.27979	2.16745
1637.35122	2.17820
1635.42266	2.18330
1633.49409	2.18038
1631.56553	2.17097
1629.63696	2.15909
1627.70840	2.13754
1625.77983	2.11084
1623.85127	2.07625
1621.92271	2.03279
1619.99414	1.99274
1618.06558	1.95275
1616.13701	1.89476
1614.20845	1.83444
1612.27988	1.78853
1610.35132	1.74063
1608.42275	1.68799
1606.49419	1.63521
1604.56562	1.58625
1602.63706	1.53932
1600.70850	1.49315
1598.77993	1.44968
1596.85137	1.40825
1594.92280	1.36799
1592.99424	1.32903
1591.06567	1.29308
1589.13711	1.25881
1587.20854	1.22597
1585.27998	1.19468
1583.35142	1.16472
1581.42285	1.13698
1579.49429	1.11323
1577.56572	1.09187
1575.63716	1.06469
1573.70859	1.03927
1571.78003	1.02237
1569.85146	1.00436
1567.92290	0.98284
1565.99434	0.96500
1564.06577	0.94983
1562.13721	0.93742
1560.20864	0.92750
1558.28008	0.90913
1556.35151	0.88986
1554.42295	0.87767
1552.49438	0.86605
1550.56582	0.85482
1548.63726	0.84368
1546.70869	0.83440
1544.78013	0.82709
1542.85156	0.82047
1540.92300	0.81273
1538.99443	0.79934
1537.06587	0.78809
1535.13730	0.78149
1533.20874	0.77448
1531.28018	0.76644
1529.35161	0.76018
1527.42305	0.75464
1525.49448	0.74893
1523.56592	0.74386
1521.63735	0.73865
1519.70879	0.73218
1517.78022	0.72635
1515.85166	0.72035
1513.92310	0.71437
1511.99453	0.71001
1510.06597	0.70715
1508.13740	0.70513
1506.20884	0.69987
1504.28027	0.69281
1502.35171	0.68868
1500.42314	0.68590
1498.49458	0.68342
1496.56602	0.68024
1494.63745	0.67652
1492.70889	0.67384
1490.78032	0.67246
1488.85176	0.67058
1486.92319	0.66694
1484.99463	0.66326
1483.06606	0.66062
1481.13750	0.65858
1479.20894	0.65672
1477.28037	0.65537
1475.35181	0.65452
1473.42324	0.65350
1471.49468	0.65054
1469.56611	0.64656
1467.63755	0.64379
1465.70898	0.64203
1463.78042	0.64000
1461.85186	0.63781
1459.92329	0.63671
1457.99473	0.63625
1456.06616	0.63326
1454.13760	0.62846
1452.20903	0.62516
1450.28047	0.62297
1448.35190	0.62098
1446.42334	0.61852
1444.49478	0.61614
1442.56621	0.61427
1440.63765	0.61270
1438.70908	0.61148
1436.78052	0.61044
1434.85195	0.60882
1432.92339	0.60694
1430.99482	0.60538
1429.06626	0.60380
1427.13770	0.60209
1425.20913	0.60060
1423.28057	0.59926
1421.35200	0.59810
1419.42344	0.59715
1417.49487	0.59558
1415.56631	0.59335
1413.63774	0.59133
1411.70918	0.58957
1409.78062	0.58792
1407.85205	0.58634
1405.92349	0.58493
1403.99492	0.58350
1402.06636	0.58205
1400.13779	0.58102
1398.20923	0.58017
1396.28066	0.57900
1394.35210	0.57740
1392.42354	0.57558
1390.49497	0.57404
1388.56641	0.57305
1386.63784	0.57221
1384.70928	0.57097
1382.78071	0.56968
1380.85215	0.56873
1378.92358	0.56811
1376.99502	0.56769
1375.06646	0.56739
1373.13789	0.56677
1371.20933	0.56568
1369.28076	0.56464
1367.35220	0.56371
1365.42363	0.56288
1363.49507	0.56230
1361.56650	0.56146
1359.63794	0.56013
1357.70937	0.55893
1355.78081	0.55796
1353.85225	0.55698
1351.92368	0.55601
1349.99512	0.55514
1348.06655	0.55423
1346.13799	0.55327
1344.20942	0.55234
1342.28086	0.55159
1340.35229	0.55102
1338.42373	0.55018
1336.49517	0.54890
1334.56660	0.54759
1332.63804	0.54647
1330.70947	0.54550
1328.78091	0.54457
1326.85234	0.54370
1324.92378	0.54301
1322.99521	0.54249
1321.06665	0.54198
1319.13809	0.54138
1317.20952	0.54060
1315.28096	0.53975
1313.35239	0.53894
1311.42383	0.53808
1309.49526	0.53716
1307.56670	0.53624
1305.63813	0.53537
1303.70957	0.53457
1301.78101	0.53373
1299.85244	0.53286
1297.92388	0.53217
1295.99531	0.53154
1294.06675	0.53084
1292.13818	0.53015
1290.20962	0.52961
1288.28105	0.52927
1286.35249	0.52890
1284.42393	0.52836
1282.49536	0.52776
1280.56680	0.52723
1278.63823	0.52678
1276.70967	0.52639
1274.78110	0.52604
1272.85254	0.52566
1270.92397	0.52525
1268.99541	0.52481
1267.06685	0.52442
1265.13828	0.52420
1263.20972	0.52404
1261.28115	0.52375
1259.35259	0.52330
1257.42402	0.52288
1255.49546	0.52260
1253.56689	0.52225
1251.63833	0.52186
1249.70977	0.52167
1247.78120	0.52151
1245.85264	0.52122
1243.92407	0.52090
1241.99551	0.52046
1240.06694	0.51988
1238.13838	0.51936
1236.20981	0.51895
1234.28125	0.51858
1232.35269	0.51814
1230.42412	0.51761
1228.49556	0.51704
1226.56699	0.51639
1224.63843	0.51563
1222.70986	0.51484
1220.78130	0.51409
1218.85273	0.51340
1216.92417	0.51281
1214.99561	0.51229
1213.06704	0.51175
1211.13848	0.51123
1209.20991	0.51076
1207.28135	0.51033
1205.35278	0.50987
1203.42422	0.50935
1201.49565	0.50879
1199.56709	0.50825
1197.63853	0.50784
1195.70996	0.50738
1193.78140	0.50667
1191.85283	0.50605
1189.92427	0.50580
1187.99570	0.50562
1186.06714	0.50531
1184.13857	0.50501
1182.21001	0.50488
1180.28145	0.50506
1178.35288	0.50560
1176.42432	0.50631
1174.49575	0.50688
1172.56719	0.50729
1170.63862	0.50775
1168.71006	0.50841
1166.78149	0.50931
1164.85293	0.51026
1162.92437	0.51105
1160.99580	0.51161
1159.06724	0.51182
1157.13867	0.51163
1155.21011	0.51108
1153.28154	0.51009
1151.35298	0.50860
1149.42441	0.50677
1147.49585	0.50472
1145.56729	0.50242
1143.63872	0.49991
1141.71016	0.49750
1139.78159	0.49531
1137.85303	0.49318
1135.92446	0.49124
1133.99590	0.48970
1132.06733	0.48844
1130.13877	0.48725
1128.21021	0.48617
1126.28164	0.48534
1124.35308	0.48466
1122.42451	0.48406
1120.49595	0.48366
1118.56738	0.48345
1116.63882	0.48346
1114.71025	0.48388
1112.78169	0.48471
1110.85312	0.48555
1108.92456	0.48630
1106.99600	0.48707
1105.06743	0.48789
1103.13887	0.48897
1101.21030	0.49041
1099.28174	0.49196
1097.35317	0.49371
1095.42461	0.49613
1093.49604	0.49951
1091.56748	0.50407
1089.63892	0.50995
1087.71035	0.51705
1085.78179	0.52505
1083.85322	0.53327
1081.92466	0.54072
1079.99609	0.54658
1078.06753	0.55000
1076.13896	0.55034
1074.21040	0.54780
1072.28184	0.54295
1070.35327	0.53649
1068.42471	0.52945
1066.49614	0.52268
1064.56758	0.51648
1062.63901	0.51096
1060.71045	0.50629
1058.78188	0.50236
1056.85332	0.49864
1054.92476	0.49512
1052.99619	0.49238
1051.06763	0.49053
1049.13906	0.48931
1047.21050	0.48857
1045.28193	0.48822
1043.35337	0.48827
1041.42480	0.48862
1039.49624	0.48899
1037.56768	0.48909
1035.63911	0.48881
1033.71055	0.48841
1031.78198	0.48817
1029.85342	0.48784
1027.92485	0.48709
1025.99629	0.48615
1024.06772	0.48540
1022.13916	0.48503
1020.21060	0.48511
1018.28203	0.48560
1016.35347	0.48616
1014.42490	0.48648
1012.49634	0.48668
1010.56777	0.48692
1008.63921	0.48729
1006.71064	0.48797
1004.78208	0.48905
1002.85352	0.49062
1000.92495	0.49291
998.99639	0.49608
997.06782	0.49998
995.13926	0.50420
993.21069	0.50813
991.28213	0.51131
989.35356	0.51348
987.42500	0.51447
985.49644	0.51475
983.56787	0.51502
981.63931	0.51559
979.71074	0.51663
977.78218	0.51815
975.85361	0.52019
973.92505	0.52279
971.99648	0.52586
970.06792	0.52940
968.13936	0.53321
966.21079	0.53702
964.28223	0.54108
962.35366	0.54585
960.42510	0.55114
958.49653	0.55646
956.56797	0.56173
954.63940	0.56732
952.71084	0.57344
950.78228	0.57992
948.85371	0.58641
946.92515	0.59268
944.99658	0.59863
943.06802	0.60458
941.13945	0.61078
939.21089	0.61690
937.28232	0.62259
935.35376	0.62785
933.42520	0.63295
931.49663	0.63836
929.56807	0.64421
927.63950	0.64994
925.71094	0.65529
923.78237	0.66108
921.85381	0.66783
919.92524	0.67500
917.99668	0.68204
916.06812	0.68910
914.13955	0.69649
912.21099	0.70392
910.28242	0.71130
908.35386	0.71897
906.42529	0.72726
904.49673	0.73646
902.56816	0.74609
900.63960	0.75533
898.71104	0.76438
896.78247	0.77321
894.85391	0.78147
892.92534	0.79046
890.99678	0.80054
889.06821	0.81125
887.13965	0.82268
885.21108	0.83350
883.28252	0.84353
881.35396	0.85461
879.42539	0.86673
877.49683	0.87863
875.56826	0.89060
873.63970	0.90195
871.71113	0.91150
869.78257	0.92150
867.85400	0.93320
865.92544	0.94505
863.99687	0.95762
862.06831	0.97099
860.13975	0.98237
858.21118	0.99177
856.28262	1.00248
854.35405	1.01515
852.42549	1.02688
850.49692	1.03774
848.56836	1.05058
846.63979	1.06382
844.71123	1.07448
842.78267	1.08313
840.85410	1.09247
838.92554	1.10241
836.99697	1.11080
835.06841	1.12059
833.13984	1.13526
831.21128	1.15119
829.28271	1.16458
827.35415	1.17636
825.42559	1.18680
823.49702	1.19847
821.56846	1.21259
819.63989	1.22229
817.71133	1.22601
815.78276	1.23306
813.85420	1.24603
811.92563	1.26590
809.99707	1.30217
808.06851	1.34480
806.13994	1.36310
804.21138	1.35733
802.28281	1.35776
800.35425	1.37213
798.42568	1.39466
796.49712	1.41787
794.56855	1.41510
792.63999	1.39577
790.71143	1.41213
788.78286	1.49005
786.85430	1.58529
784.92573	1.62085
782.99717	1.61168
781.06860	1.60014
779.14004	1.59003
777.21147	1.59717
775.28291	1.68479
773.35435	1.91744
771.42578	2.18147
769.49722	1.83974
767.56865	1.67118
765.64009	1.76881
763.71152	1.69374
761.78296	1.49110
759.85439	1.42831
757.92583	1.38267
755.99727	1.31236
754.06870	1.33961
752.14014	1.44168
750.21157	1.42445
748.28301	1.35259
746.35444	1.33740
744.42588	1.34144
742.49731	1.21015
740.56875	1.00814
738.64019	0.89579
736.71162	0.85313
734.78306	0.83940
732.85449	0.75772
730.92593	0.65404
728.99736	0.70357
727.06880	0.98054
725.14023	0.92069
723.21167	0.64151
721.28311	0.56187
719.35454	0.57641
717.42598	0.44643
715.49741	0.26990
713.56885	0.15531
711.64028	-0.02192
709.71172	-0.28738
707.78315	-0.37729
705.85459	-0.19714
703.92603	0.02103
701.99746	0.11574
700.06890	0.14957
698.14033	0.21416
696.21177	0.28441
694.28320	0.30794
692.35464	0.28946
690.42607	0.27063
688.49751	0.30536
686.56895	0.30952
684.64038	0.19768
682.71182	0.08712
680.78325	0.08974
678.85469	0.17439
676.92612	0.24168
674.99756	0.30494
673.06899	0.35717
671.14043	0.35634
669.21187	0.41864
667.28330	0.57169
665.35474	0.56697
663.42617	0.34772
661.49761	0.19291
659.56904	0.13102
657.64048	0.19204
655.71191	0.37334
653.78335	0.46858
651.85479	0.36629
649.92622	0.32276
647.99766	0.37753
646.06909	0.50027
644.14053	0.99406
642.21196	3.85327
640.28340	0.72965
638.35483	0.39884
636.42627	0.28566
634.49771	0.22003
632.56914	0.14589
630.64058	0.11263
628.71201	0.17228
626.78345	0.24959
624.85488	0.22280
622.92632	0.21494
620.99775	0.29192
619.06919	0.36711
617.14062	0.33980
615.21206	0.31899
613.28350	0.34006
611.35493	0.39097
609.42637	0.36795
607.49780	0.28347
605.56924	0.27203
603.64067	0.38730
601.71211	0.57176
599.78354	0.56134
597.85498	0.38031
595.92642	0.23713
593.99785	0.23679
592.06929	0.34157
590.14072	0.42221
588.21216	0.49705
586.28359	0.77633
584.35503	3.50613
582.42646	3.49456
580.49790	0.63863
578.56934	0.60008
576.64077	0.42852
574.71221	0.26494
572.78364	0.20199
570.85508	0.18664
568.92651	0.21098
566.99795	0.28291
565.06938	0.30817
563.14082	0.25277
561.21226	0.28537
559.28369	0.42517
557.35513	0.42562
555.42656	0.33131
553.49800	0.24203
551.56943	0.20181
549.64087	0.27472
547.71230	0.42759
545.78374	0.45636
543.85518	0.28727
541.92661	0.17811
539.99805	0.13167
538.06948	0.12244
536.14092	0.15221
534.21235	0.23396
532.28379	0.32945
530.35522	0.31943
528.42666	0.25606
526.49810	0.20693
524.56953	0.17842
522.64097	0.16509
520.71240	0.14863
518.78384	0.15295
516.85527	0.15786
514.92671	0.16145
512.99814	0.18182
511.06958	0.17680
509.14102	0.13478
507.21245	0.12287
505.28389	0.15628
503.35532	0.17569
501.42676	0.18157
499.49819	0.21043
