3997.91411	0.06872
3995.98555	0.06889
3994.05698	0.06915
3992.12842	0.06956
3990.19985	0.06999
3988.27129	0.07033
3986.34272	0.07069
3984.41416	0.07107
3982.48560	0.07122
3980.55703	0.07128
3978.62847	0.07162
3976.69990	0.07222
3974.77134	0.07271
3972.84277	0.07278
3970.91421	0.07259
3968.98564	0.07258
3967.05708	0.07288
3965.12852	0.07339
3963.19995	0.07397
3961.27139	0.07435
3959.34282	0.07438
3957.41426	0.07427
3955.48569	0.07412
3953.55713	0.07397
3951.62856	0.07438
3949.70000	0.07559
3947.77144	0.07662
3945.84287	0.07654
3943.91431	0.07641
3941.98574	0.07679
3940.05718	0.07613
3938.12861	0.07466
3936.20005	0.07400
3934.27148	0.07472
3932.34292	0.07659
3930.41436	0.07800
3928.48579	0.07757
3926.55723	0.07684
3924.62866	0.07712
3922.70010	0.07715
3920.77153	0.07666
3918.84297	0.07723
3916.91440	0.07822
3914.98584	0.07733
3913.05728	0.07512
3911.12871	0.07375
3909.20015	0.07357
3907.27158	0.07458
3905.34302	0.07777
3903.41445	0.08250
3901.48589	0.08485
3899.55732	0.08342
3897.62876	0.08029
3895.70020	0.07744
3893.77163	0.07679
3891.84307	0.07846
3889.91450	0.07913
3887.98594	0.07758
3886.05737	0.07752
3884.12881	0.07937
3882.20024	0.08049
3880.27168	0.08081
3878.34312	0.07952
3876.41455	0.07752
3874.48599	0.07828
3872.55742	0.08145
3870.62886	0.08451
3868.70029	0.08594
3866.77173	0.08490
3864.84316	0.08436
3862.91460	0.08515
3860.98604	0.08419
3859.05747	0.08199
3857.12891	0.08188
3855.20034	0.08529
3853.27178	0.09137
3851.34321	0.09272
3849.41465	0.08722
3847.48608	0.08278
3845.55752	0.08156
3843.62896	0.08347
3841.70039	0.08732
3839.77183	0.09154
3837.84326	0.09462
3835.91470	0.09430
3833.98613	0.09203
3832.05757	0.09073
3830.12900	0.09036
3828.20044	0.09062
3826.27187	0.09181
3824.34331	0.09315
3822.41475	0.09532
3820.48618	0.09947
3818.55762	0.10125
3816.62905	0.10036
3814.70049	0.09899
3812.77192	0.09610
3810.84336	0.09420
3808.91479	0.09542
3806.98623	0.09922
3805.05767	0.10275
3803.12910	0.10528
3801.20054	0.10875
3799.27197	0.11014
3797.34341	0.10882
3795.41484	0.10756
3793.48628	0.10589
3791.55771	0.10495
3789.62915	0.10581
3787.70059	0.10782
3785.77202	0.11060
3783.84346	0.11319
3781.91489	0.11477
3779.98633	0.11667
3778.05776	0.11856
3776.12920	0.11859
3774.20063	0.11856
3772.27207	0.12039
3770.34351	0.12410
3768.41494	0.12804
3766.48638	0.13016
3764.55781	0.13126
3762.62925	0.13241
3760.70068	0.13495
3758.77212	0.13935
3756.84355	0.14315
3754.91499	0.14552
3752.98643	0.14921
3751.05786	0.15617
3749.12930	0.16283
3747.20073	0.16451
3745.27217	0.16566
3743.34360	0.16874
3741.41504	0.17077
3739.48647	0.17206
3737.55791	0.17555
3735.62935	0.18257
3733.70078	0.18993
3731.77222	0.19230
3729.84365	0.19228
3727.91509	0.19397
3725.98652	0.19897
3724.05796	0.20621
3722.12939	0.21345
3720.20083	0.22050
3718.27227	0.22773
3716.34370	0.23528
3714.41514	0.24346
3712.48657	0.25452
3710.55801	0.27003
3708.62944	0.28339
3706.70088	0.29177
3704.77231	0.30067
3702.84375	0.31357
3700.91519	0.33134
3698.98662	0.34992
3697.05806	0.36712
3695.12949	0.38607
3693.20093	0.40695
3691.27236	0.43100
3689.34380	0.46296
3687.41523	0.49878
3685.48667	0.52653
3683.55811	0.55057
3681.62954	0.57869
3679.70098	0.61249
3677.77241	0.64959
3675.84385	0.69373
3673.91528	0.74948
3671.98672	0.79178
3670.05815	0.82930
3668.12959	0.88130
3666.20103	0.92755
3664.27246	0.96640
3662.34390	1.00962
3660.41533	1.05719
3658.48677	1.10461
3656.55820	1.15609
3654.62964	1.21352
3652.70107	1.26153
3650.77251	1.30537
3648.84395	1.36760
3646.91538	1.43840
3644.98682	1.48427
3643.05825	1.51893
3641.12969	1.55712
3639.20112	1.60138
3637.27256	1.64675
3635.34399	1.69098
3633.41543	1.73534
3631.48687	1.77739
3629.55830	1.82128
3627.62974	1.87757
3625.70117	1.92609
3623.77261	1.95765
3621.84404	1.99019
3619.91548	2.03003
3617.98691	2.07851
3616.05835	2.12409
3614.12979	2.16188
3612.20122	2.20135
3610.27266	2.24060
3608.34409	2.28008
3606.41553	2.32135
3604.48696	2.35899
3602.55840	2.39331
3600.62983	2.43138
3598.70127	2.47351
3596.77271	2.51545
3594.84414	2.55846
3592.91558	2.60202
3590.98701	2.64089
3589.05845	2.67630
3587.12988	2.71955
3585.20132	2.76745
3583.27275	2.80744
3581.34419	2.84424
3579.41562	2.88528
3577.48706	2.93064
3575.55850	2.97499
3573.62993	3.01721
3571.70137	3.05805
3569.77280	3.09959
3567.84424	3.14626
3565.91567	3.20060
3563.98711	3.24808
3562.05854	3.28565
3560.12998	3.32579
3558.20142	3.37090
3556.27285	3.41712
3554.34429	3.46176
3552.41572	3.50861
3550.48716	3.55739
3548.55859	3.60232
3546.63003	3.64581
3544.70146	3.69433
3542.77290	3.74332
3540.84434	3.78801
3538.91577	3.83134
3536.98721	3.87580
3535.05864	3.92376
3533.13008	3.97141
3531.20151	4.01830
3529.27295	4.06690
3527.34438	4.11523
3525.41582	4.16181
3523.48726	4.21112
3521.55869	4.26361
3519.63013	4.31203
3517.70156	4.35815
3515.77300	4.40326
3513.84443	4.44808
3511.91587	4.49826
3509.98730	4.55213
3508.05874	4.60047
3506.13018	4.64085
3504.20161	4.68148
3502.27305	4.73029
3500.34448	4.78459
3498.41592	4.83626
3496.48735	4.88568
3494.55879	4.93404
3492.63022	4.98063
3490.70166	5.02789
3488.77310	5.07664
3486.84453	5.12261
3484.91597	5.16496
3482.98740	5.21071
3481.05884	5.26134
3479.13027	5.31172
3477.20171	5.36359
3475.27314	5.41683
3473.34458	5.46473
3471.41602	5.50798
3469.48745	5.54907
3467.55889	5.58822
3465.63032	5.63614
3463.70176	5.69423
3461.77319	5.74551
3459.84463	5.79352
3457.91606	5.84501
3455.98750	5.89302
3454.05894	5.93666
3452.13037	5.98203
3450.20181	6.03135
3448.27324	6.07993
3446.34468	6.12927
3444.41611	6.17831
3442.48755	6.23500
3440.55898	6.29208
3438.63042	6.33374
3436.70186	6.37445
3434.77329	6.42021
3432.84473	6.45763
3430.91616	6.49983
3428.98760	6.58009
3427.05903	6.66259
3425.13047	6.69565
3423.20190	6.70284
3421.27334	6.73757
3419.34478	6.81616
3417.41621	6.90020
3415.48765	6.94779
3413.55908	6.95827
3411.63052	6.97470
3409.70195	7.00565
3407.77339	7.04478
3405.84482	7.10424
3403.91626	7.16551
3401.98770	7.22179
3400.05913	7.27539
3398.13057	7.28963
3396.20200	7.27852
3394.27344	7.28654
3392.34487	7.31602
3390.41631	7.36931
3388.48774	7.41858
3386.55918	7.44881
3384.63062	7.48703
3382.70205	7.55499
3380.77349	7.62269
3378.84492	7.66146
3376.91636	7.67586
3374.98779	7.65827
3373.05923	7.66363
3371.13066	7.70833
3369.20210	7.75487
3367.27354	7.78403
3365.34497	7.80684
3363.41641	7.85638
3361.48784	7.92612
3359.55928	7.96598
3357.63071	7.96768
3355.70215	7.96574
3353.77358	7.93928
3351.84502	7.93125
3349.91646	7.95186
3347.98789	7.94748
3346.05933	7.95987
3344.13076	8.02626
3342.20220	8.08378
3340.27363	8.09609
3338.34507	8.10225
3336.41650	8.07615
3334.48794	8.04009
3332.55937	8.03659
3330.63081	8.05635
3328.70225	8.07310
3326.77368	8.09918
3324.84512	8.17341
3322.91655	8.23745
3320.98799	8.23224
3319.05942	8.19774
3317.13086	8.19574
3315.20229	8.16077
3313.27373	8.09308
3311.34517	8.10024
3309.41660	8.16758
3307.48804	8.22022
3305.55947	8.20844
3303.63091	8.13456
3301.70234	8.06111
3299.77378	8.08286
3297.84521	8.18819
3295.91665	8.22459
3293.98809	8.14178
3292.05952	8.12403
3290.13096	8.24876
3288.20239	8.35735
3286.27383	8.36036
3284.34526	8.30650
3282.41670	8.22381
3280.48813	8.14034
3278.55957	8.08715
3276.63101	8.07414
3274.70244	8.13089
3272.77388	8.19214
3270.84531	8.18550
3268.91675	8.18245
3266.98818	8.17502
3265.05962	8.16044
3263.13105	8.18439
3261.20249	8.23390
3259.27393	8.28392
3257.34536	8.32550
3255.41680	8.30111
3253.48823	8.19753
3251.55967	8.14784
3249.63110	8.21332
3247.70254	8.30410
3245.77397	8.32826
3243.84541	8.32267
3241.91685	8.30113
3239.98828	8.25211
3238.05972	8.24912
3236.13115	8.26405
3234.20259	8.20610
3232.27402	8.14233
3230.34546	8.11412
3228.41689	8.07948
3226.48833	8.07213
3224.55977	8.08419
3222.63120	8.07055
3220.70264	8.05265
3218.77407	8.01633
3216.84551	7.95593
3214.91694	7.94357
3212.98838	7.98802
3211.05981	7.99019
3209.13125	7.92141
3207.20269	7.85578
3205.27412	7.80188
3203.34556	7.74905
3201.41699	7.70778
3199.48843	7.64841
3197.55986	7.59143
3195.63130	7.57883
3193.70273	7.58102
3191.77417	7.52752
3189.84561	7.42167
3187.91704	7.36848
3185.98848	7.36865
3184.05991	7.33500
3182.13135	7.28017
3180.20278	7.22120
3178.27422	7.15687
3176.34565	7.12342
3174.41709	7.07965
3172.48853	6.98991
3170.55996	6.90910
3168.63140	6.85019
3166.70283	6.78772
3164.77427	6.72356
3162.84570	6.65714
3160.91714	6.58607
3158.98857	6.53125
3157.06001	6.49086
3155.13145	6.43625
3153.20288	6.35983
3151.27432	6.27161
3149.34575	6.17950
3147.41719	6.10046
3145.48862	6.05211
3143.56006	6.01022
3141.63149	5.94532
3139.70293	5.87376
3137.77437	5.80566
3135.84580	5.73679
3133.91724	5.67168
3131.98867	5.60070
3130.06011	5.52505
3128.13154	5.46387
3126.20298	5.41280
3124.27441	5.34902
3122.34585	5.26543
3120.41729	5.17855
3118.48872	5.10325
3116.56016	5.03747
3114.63159	4.96977
3112.70303	4.89832
3110.77446	4.82739
3108.84590	4.75792
3106.91733	4.69448
3104.98877	4.63633
3103.06021	4.57561
3101.13164	4.50896
3099.20308	4.44028
3097.27451	4.37497
3095.34595	4.31218
3093.41738	4.24716
3091.48882	4.18148
3089.56025	4.11841
3087.63169	4.05644
3085.70312	3.99644
3083.77456	3.93829
3081.84600	3.87889
3079.91743	3.81976
3077.98887	3.76320
3076.06030	3.70693
3074.13174	3.64901
3072.20317	3.59037
3070.27461	3.53306
3068.34604	3.47888
3066.41748	3.42598
3064.48892	3.37130
3062.56035	3.31509
3060.63179	3.26098
3058.70322	3.21012
3056.77466	3.15875
3054.84609	3.10556
3052.91753	3.05301
3050.98896	3.00289
3049.06040	2.95444
3047.13184	2.90591
3045.20327	2.85756
3043.27471	2.81022
3041.34614	2.76310
3039.41758	2.71640
3037.48901	2.67107
3035.56045	2.62632
3033.63188	2.58225
3031.70332	2.53900
3029.77476	2.49579
3027.84619	2.45321
3025.91763	2.41138
3023.98906	2.36953
3022.06050	2.32811
3020.13193	2.28784
3018.20337	2.24801
3016.27480	2.20799
3014.34624	2.16866
3012.41768	2.13085
3010.48911	2.09414
3008.56055	2.05802
3006.63198	2.02289
3004.70342	1.98834
3002.77485	1.95374
3000.84629	1.92013
2998.91772	1.88788
2996.98916	1.85610
2995.06060	1.82442
2993.13203	1.79298
2991.20347	1.76204
2989.27490	1.73225
2987.34634	1.70400
2985.41777	1.67665
2983.48921	1.64963
2981.56064	1.62332
2979.63208	1.59740
2977.70352	1.57097
2975.77495	1.54470
2973.84639	1.51964
2971.91782	1.49520
2969.98926	1.47083
2968.06069	1.44677
2966.13213	1.42287
2964.20356	1.39904
2962.27500	1.37558
2960.34644	1.35233
2958.41787	1.32895
2956.48931	1.30547
2954.56074	1.28218
2952.63218	1.25924
2950.70361	1.23679
2948.77505	1.21499
2946.84648	1.19325
2944.91792	1.17149
2942.98936	1.15071
2941.06079	1.13071
2939.13223	1.11044
2937.20366	1.08961
2935.27510	1.06894
2933.34653	1.04896
2931.41797	1.02928
2929.48940	1.00952
2927.56084	0.99007
2925.63228	0.97146
2923.70371	0.95362
2921.77515	0.93639
2919.84658	0.91996
2917.91802	0.90433
2915.98945	0.88946
2914.06089	0.87486
2912.13232	0.86008
2910.20376	0.84546
2908.27520	0.83118
2906.34663	0.81704
2904.41807	0.80290
2902.48950	0.78901
2900.56094	0.77574
2898.63237	0.76316
2896.70381	0.75097
2894.77524	0.73891
2892.84668	0.72691
2890.91812	0.71520
2888.98955	0.70407
2887.06099	0.69340
2885.13242	0.68318
2883.20386	0.67335
2881.27529	0.66366
2879.34673	0.65406
2877.41816	0.64449
2875.48960	0.63480
2873.56104	0.62473
2871.63247	0.61425
2869.70391	0.60355
2867.77534	0.59241
2865.84678	0.58086
2863.91821	0.56917
2861.98965	0.55731
2860.06108	0.54566
2858.13252	0.53482
2856.20396	0.52475
2854.27539	0.51529
2852.34683	0.50666
2850.41826	0.49882
2848.48970	0.49135
2846.56113	0.48426
2844.63257	0.47754
2842.70400	0.47110
2840.77544	0.46515
2838.84687	0.45964
2836.91831	0.45413
2834.98975	0.44842
2833.06118	0.44266
2831.13262	0.43692
2829.20405	0.43117
2827.27549	0.42530
2825.34692	0.41939
2823.41836	0.41348
2821.48979	0.40756
2819.56123	0.40186
2817.63267	0.39630
2815.70410	0.39057
2813.77554	0.38485
2811.84697	0.37944
2809.91841	0.37419
2807.98984	0.36892
2806.06128	0.36376
2804.13271	0.35880
2802.20415	0.35390
2800.27559	0.34892
2798.34702	0.34392
2796.41846	0.33917
2794.48989	0.33475
2792.56133	0.33048
2790.63276	0.32612
2788.70420	0.32157
2786.77563	0.31689
2784.84707	0.31230
2782.91851	0.30802
2780.98994	0.30395
2779.06138	0.29997
2777.13281	0.29615
2775.20425	0.29242
2773.27568	0.28872
2771.34712	0.28502
2769.41855	0.28135
2767.48999	0.27780
2765.56143	0.27433
2763.63286	0.27096
2761.70430	0.26767
2759.77573	0.26434
2757.84717	0.26103
2755.91860	0.25787
2753.99004	0.25486
2752.06147	0.25187
2750.13291	0.24892
2748.20435	0.24606
2746.27578	0.24329
2744.34722	0.24059
2742.41865	0.23794
2740.49009	0.23535
2738.56152	0.23293
2736.63296	0.23054
2734.70439	0.22805
2732.77583	0.22547
2730.84727	0.22294
2728.91870	0.22056
2726.99014	0.21833
2725.06157	0.21613
2723.13301	0.21395
2721.20444	0.21187
2719.27588	0.20981
2717.34731	0.20773
2715.41875	0.20580
2713.49019	0.20398
2711.56162	0.20212
2709.63306	0.20028
2707.70449	0.19866
2705.77593	0.19717
2703.84736	0.19557
2701.91880	0.19390
2699.99023	0.19235
2698.06167	0.19089
2696.13311	0.18947
2694.20454	0.18804
2692.27598	0.18657
2690.34741	0.18514
2688.41885	0.18383
2686.49028	0.18252
2684.56172	0.18115
2682.63315	0.17984
2680.70459	0.17858
2678.77603	0.17734
2676.84746	0.17614
2674.91890	0.17493
2672.99033	0.17380
2671.06177	0.17292
2669.13320	0.17216
2667.20464	0.17124
2665.27607	0.17015
2663.34751	0.16909
2661.41895	0.16821
2659.49038	0.16742
2657.56182	0.16658
2655.63325	0.16572
2653.70469	0.16493
2651.77612	0.16417
2649.84756	0.16356
2647.91899	0.16310
2645.99043	0.16255
2644.06187	0.16183
2642.13330	0.16122
2640.20474	0.16079
2638.27617	0.16030
2636.34761	0.15965
2634.41904	0.15900
2632.49048	0.15850
2630.56191	0.15814
2628.63335	0.15784
2626.70479	0.15742
2624.77622	0.15688
2622.84766	0.15642
2620.91909	0.15615
2618.99053	0.15593
2617.06196	0.15568
2615.13340	0.15545
2613.20483	0.15524
2611.27627	0.15505
2609.34771	0.15489
2607.41914	0.15471
2605.49058	0.15451
2603.56201	0.15437
2601.63345	0.15430
2599.70488	0.15428
2597.77632	0.15432
2595.84775	0.15438
2593.91919	0.15444
2591.99062	0.15448
2590.06206	0.15450
2588.13350	0.15454
2586.20493	0.15453
2584.27637	0.15449
2582.34780	0.15463
2580.41924	0.15494
2578.49067	0.15526
2576.56211	0.15559
2574.63354	0.15583
2572.70498	0.15593
2570.77642	0.15609
2568.84785	0.15654
2566.91929	0.15707
2564.99072	0.15747
2563.06216	0.15778
2561.13359	0.15807
2559.20503	0.15841
2557.27646	0.15876
2555.34790	0.15903
2553.41934	0.15947
2551.49077	0.16018
2549.56221	0.16082
2547.63364	0.16131
2545.70508	0.16178
2543.77651	0.16227
2541.84795	0.16280
2539.91938	0.16331
2537.99082	0.16385
2536.06226	0.16447
2534.13369	0.16507
2532.20513	0.16565
2530.27656	0.16625
2528.34800	0.16695
2526.41943	0.16774
2524.49087	0.16843
2522.56230	0.16890
2520.63374	0.16935
2518.70518	0.17000
2516.77661	0.17079
2514.84805	0.17158
2512.91948	0.17236
2510.99092	0.17323
2509.06235	0.17406
2507.13379	0.17473
2505.20522	0.17539
2503.27666	0.17615
2501.34810	0.17697
2499.41953	0.17770
2497.49097	0.17826
2495.56240	0.17898
2493.63384	0.18003
2491.70527	0.18108
2489.77671	0.18197
2487.84814	0.18275
2485.91958	0.18340
2483.99102	0.18402
2482.06245	0.18472
2480.13389	0.18557
2478.20532	0.18652
2476.27676	0.18733
2474.34819	0.18797
2472.41963	0.18873
2470.49106	0.18970
2468.56250	0.19060
2466.63394	0.19138
2464.70537	0.19219
2462.77681	0.19309
2460.84824	0.19409
2458.91968	0.19510
2456.99111	0.19609
2455.06255	0.19709
2453.13398	0.19806
2451.20542	0.19902
2449.27686	0.19998
2447.34829	0.20092
2445.41973	0.20182
2443.49116	0.20265
2441.56260	0.20350
2439.63403	0.20456
2437.70547	0.20563
2435.77690	0.20649
2433.84834	0.20738
2431.91978	0.20843
2429.99121	0.20945
2428.06265	0.21042
2426.13408	0.21144
2424.20552	0.21248
2422.27695	0.21357
2420.34839	0.21474
2418.41982	0.21586
2416.49126	0.21689
2414.56270	0.21791
2412.63413	0.21897
2410.70557	0.22012
2408.77700	0.22123
2406.84844	0.22227
2404.91987	0.22338
2402.99131	0.22456
2401.06274	0.22574
2399.13418	0.22689
2397.20562	0.22806
2395.27705	0.22927
2393.34849	0.23048
2391.41992	0.23166
2389.49136	0.23280
2387.56279	0.23391
2385.63423	0.23497
2383.70566	0.23588
2381.77710	0.23646
2379.84854	0.23673
2377.91997	0.23691
2375.99141	0.23691
2374.06284	0.23660
2372.13428	0.23620
2370.20571	0.23587
2368.27715	0.23537
2366.34858	0.23463
2364.42002	0.23404
2362.49146	0.23461
2360.56289	0.23629
2358.63433	0.23801
2356.70576	0.24013
2354.77720	0.24319
2352.84863	0.24712
2350.92007	0.25110
2348.99150	0.25369
2347.06294	0.25460
2345.13437	0.25455
2343.20581	0.25458
2341.27725	0.25539
2339.34868	0.25719
2337.42012	0.25939
2335.49155	0.26107
2333.56299	0.26231
2331.63442	0.26402
2329.70586	0.26648
2327.77729	0.26917
2325.84873	0.27178
2323.92017	0.27417
2321.99160	0.27639
2320.06304	0.27883
2318.13447	0.28154
2316.20591	0.28414
2314.27734	0.28639
2312.34878	0.28835
2310.42021	0.29021
2308.49165	0.29221
2306.56309	0.29441
2304.63452	0.29666
2302.70596	0.29889
2300.77739	0.30098
2298.84883	0.30285
2296.92026	0.30471
2294.99170	0.30671
2293.06313	0.30880
2291.13457	0.31091
2289.20601	0.31303
2287.27744	0.31514
2285.34888	0.31724
2283.42031	0.31922
2281.49175	0.32110
2279.56318	0.32310
2277.63462	0.32522
2275.70605	0.32724
2273.77749	0.32913
2271.84893	0.33104
2269.92036	0.33306
2267.99180	0.33518
2266.06323	0.33736
2264.13467	0.33949
2262.20610	0.34148
2260.27754	0.34348
2258.34897	0.34562
2256.42041	0.34783
2254.49185	0.34996
2252.56328	0.35208
2250.63472	0.35431
2248.70615	0.35653
2246.77759	0.35870
2244.84902	0.36086
2242.92046	0.36302
2240.99189	0.36520
2239.06333	0.36741
2237.13477	0.36963
2235.20620	0.37184
2233.27764	0.37402
2231.34907	0.37615
2229.42051	0.37833
2227.49194	0.38054
2225.56338	0.38269
2223.63481	0.38483
2221.70625	0.38703
2219.77769	0.38918
2217.84912	0.39122
2215.92056	0.39327
2213.99199	0.39546
2212.06343	0.39774
2210.13486	0.39991
2208.20630	0.40194
2206.27773	0.40400
2204.34917	0.40601
2202.42061	0.40793
2200.49204	0.40998
2198.56348	0.41212
2196.63491	0.41415
2194.70635	0.41600
2192.77778	0.41779
2190.84922	0.41956
2188.92065	0.42130
2186.99209	0.42309
2185.06353	0.42499
2183.13496	0.42678
2181.20640	0.42839
2179.27783	0.43001
2177.34927	0.43165
2175.42070	0.43320
2173.49214	0.43471
2171.56357	0.43613
2169.63501	0.43745
2167.70645	0.43877
2165.77788	0.44011
2163.84932	0.44145
2161.92075	0.44267
2159.99219	0.44375
2158.06362	0.44482
2156.13506	0.44588
2154.20649	0.44681
2152.27793	0.44767
2150.34937	0.44852
2148.42080	0.44930
2146.49224	0.44993
2144.56367	0.45044
2142.63511	0.45089
2140.70654	0.45126
2138.77798	0.45164
2136.84941	0.45196
2134.92085	0.45208
2132.99229	0.45207
2131.06372	0.45205
2129.13516	0.45198
2127.20659	0.45184
2125.27803	0.45163
2123.34946	0.45136
2121.42090	0.45102
2119.49233	0.45054
2117.56377	0.45005
2115.63521	0.44961
2113.70664	0.44903
2111.77808	0.44824
2109.84951	0.44736
2107.92095	0.44638
2105.99238	0.44533
2104.06382	0.44434
2102.13525	0.44326
2100.20669	0.44200
2098.27812	0.44069
2096.34956	0.43936
2094.42100	0.43791
2092.49243	0.43639
2090.56387	0.43493
2088.63530	0.43343
2086.70674	0.43173
2084.77817	0.42990
2082.84961	0.42809
2080.92104	0.42627
2078.99248	0.42438
2077.06392	0.42237
2075.13535	0.42032
2073.20679	0.41823
2071.27822	0.41605
2069.34966	0.41390
2067.42109	0.41187
2065.49253	0.40990
2063.56396	0.40764
2061.63540	0.40519
2059.70684	0.40282
2057.77827	0.40035
2055.84971	0.39772
2053.92114	0.39517
2051.99258	0.39277
2050.06401	0.39038
2048.13545	0.38790
2046.20688	0.38539
2044.27832	0.38291
2042.34976	0.38030
2040.42119	0.37756
2038.49263	0.37487
2036.56406	0.37228
2034.63550	0.36962
2032.70693	0.36680
2030.77837	0.36400
2028.84980	0.36134
2026.92124	0.35875
2024.99268	0.35604
2023.06411	0.35334
2021.13555	0.35080
2019.20698	0.34834
2017.27842	0.34579
2015.34985	0.34296
2013.42129	0.33997
2011.49272	0.33713
2009.56416	0.33457
2007.63560	0.33203
2005.70703	0.32934
2003.77847	0.32664
2001.84990	0.32404
1999.92134	0.32147
1997.99277	0.31892
1996.06421	0.31642
1994.13564	0.31418
1992.20708	0.31205
1990.27852	0.30956
1988.34995	0.30686
1986.42139	0.30423
1984.49282	0.30170
1982.56426	0.29930
1980.63569	0.29696
1978.70713	0.29473
1976.77856	0.29259
1974.85000	0.29045
1972.92144	0.28828
1970.99287	0.28618
1969.06431	0.28435
1967.13574	0.28267
1965.20718	0.28062
1963.27861	0.27834
1961.35005	0.27622
1959.42148	0.27417
1957.49292	0.27219
1955.56436	0.27046
1953.63579	0.26882
1951.70723	0.26705
1949.77866	0.26528
1947.85010	0.26376
1945.92153	0.26265
1943.99297	0.26178
1942.06440	0.26046
1940.13584	0.25832
1938.20728	0.25621
1936.27871	0.25471
1934.35015	0.25347
1932.42158	0.25223
1930.49302	0.25097
1928.56445	0.24981
1926.63589	0.24885
1924.70732	0.24825
1922.77876	0.24780
1920.85020	0.24700
1918.92163	0.24609
1916.99307	0.24508
1915.06450	0.24370
1913.13594	0.24255
1911.20737	0.24204
1909.27881	0.24164
1907.35024	0.24078
1905.42168	0.23969
1903.49312	0.23886
1901.56455	0.23824
1899.63599	0.23764
1897.70742	0.23726
1895.77886	0.23717
1893.85029	0.23699
1891.92173	0.23673
1889.99316	0.23675
1888.06460	0.23646
1886.13604	0.23574
1884.20747	0.23520
1882.27891	0.23487
1880.35034	0.23463
1878.42178	0.23453
1876.49321	0.23452
1874.56465	0.23450
1872.63608	0.23477
1870.70752	0.23582
1868.77896	0.23741
1866.85039	0.23762
1864.92183	0.23639
1862.99326	0.23563
1861.06470	0.23573
1859.13613	0.23609
1857.20757	0.23633
1855.27900	0.23667
1853.35044	0.23714
1851.42187	0.23775
1849.49331	0.23857
1847.56475	0.23975
1845.63618	0.24132
1843.70762	0.24272
1841.77905	0.24290
1839.85049	0.24257
1837.92192	0.24300
1835.99336	0.24382
1834.06479	0.24468
1832.13623	0.24610
1830.20767	0.24848
1828.27910	0.25031
1826.35054	0.25093
1824.42197	0.25172
1822.49341	0.25238
1820.56484	0.25300
1818.63628	0.25414
1816.70771	0.25575
1814.77915	0.25745
1812.85059	0.25954
1810.92202	0.26196
1808.99346	0.26390
1807.06489	0.26540
1805.13633	0.26713
1803.20776	0.26967
1801.27920	0.27283
1799.35063	0.27583
1797.42207	0.27816
1795.49351	0.28070
1793.56494	0.28415
1791.63638	0.28809
1789.70781	0.29058
1787.77925	0.29204
1785.85068	0.29476
1783.92212	0.29860
1781.99355	0.30282
1780.06499	0.30708
1778.13643	0.31111
1776.20786	0.31516
1774.27930	0.32040
1772.35073	0.32746
1770.42217	0.33366
1768.49360	0.33773
1766.56504	0.34165
1764.63647	0.34630
1762.70791	0.35230
1760.77935	0.35994
1758.85078	0.36672
1756.92222	0.37352
1754.99365	0.38092
1753.06509	0.38799
1751.13652	0.39727
1749.20796	0.40876
1747.27939	0.41889
1745.35083	0.42719
1743.42227	0.43627
1741.49370	0.44655
1739.56514	0.45870
1737.63657	0.47091
1735.70801	0.48213
1733.77944	0.49916
1731.85088	0.51826
1729.92231	0.53254
1727.99375	0.54703
1726.06519	0.56296
1724.13662	0.58102
1722.20806	0.60104
1720.27949	0.62016
1718.35093	0.64330
1716.42236	0.67628
1714.49380	0.70537
1712.56523	0.72815
1710.63667	0.75111
1708.70811	0.77696
1706.77954	0.80698
1704.85098	0.84245
1702.92241	0.87375
1700.99385	0.90561
1699.06528	0.95362
1697.13672	0.99699
1695.20815	1.04046
1693.27959	1.08249
1691.35103	1.11706
1689.42246	1.15836
1687.49390	1.20290
1685.56533	1.24661
1683.63677	1.31331
1681.70820	1.38082
1679.77964	1.42335
1677.85107	1.46433
1675.92251	1.51196
1673.99395	1.57147
1672.06538	1.62554
1670.13682	1.67947
1668.20825	1.74892
1666.27969	1.80564
1664.35112	1.85471
1662.42256	1.91657
1660.49399	1.98713
1658.56543	2.04381
1656.63687	2.09035
1654.70830	2.13320
1652.77974	2.19905
1650.85117	2.25875
1648.92261	2.27870
1646.99404	2.30360
1645.06548	2.32727
1643.13691	2.34091
1641.20835	2.34885
1639.27979	2.35727
1637.35122	2.36218
1635.42266	2.35965
1633.49409	2.34898
1631.56553	2.33288
1629.63696	2.31398
1627.70840	2.28379
1625.77983	2.24954
1623.85127	2.20763
1621.92271	2.15422
1619.99414	2.10432
1618.06558	2.05648
1616.13701	1.98931
1614.20845	1.91953
1612.27988	1.86660
1610.35132	1.81329
1608.42275	1.75632
1606.49419	1.69969
1604.56562	1.64709
1602.63706	1.59660
1600.70850	1.54785
1598.77993	1.50283
1596.85137	1.46000
1594.92280	1.41856
1592.99424	1.37939
1591.06567	1.34420
1589.13711	1.31154
1587.20854	1.28118
1585.27998	1.25316
1583.35142	1.22731
1581.42285	1.20442
1579.49429	1.18584
1577.56572	1.17058
1575.63716	1.15211
1573.70859	1.13413
1571.78003	1.12237
1569.85146	1.11191
1567.92290	1.10075
1565.99434	1.09261
1564.06577	1.08774
1562.13721	1.08546
1560.20864	1.08679
1558.28008	1.09239
1556.35151	1.09531
1554.42295	1.09612
1552.49438	1.09751
1550.56582	1.09781
1548.63726	1.09566
1546.70869	1.09118
1544.78013	1.08455
1542.85156	1.07514
1540.92300	1.05881
1538.99443	1.02847
1537.06587	1.00420
1535.13730	0.98856
1533.20874	0.96882
1531.28018	0.94687
1529.35161	0.93073
1527.42305	0.91647
1525.49448	0.90226
1523.56592	0.89041
1521.63735	0.87902
1519.70879	0.86665
1517.78022	0.85611
1515.85166	0.84368
1513.92310	0.82983
1511.99453	0.81824
1510.06597	0.80926
1508.13740	0.80173
1506.20884	0.78681
1504.28027	0.77047
1502.35171	0.76146
1500.42314	0.75496
1498.49458	0.74868
1496.56602	0.74077
1494.63745	0.73196
1492.70889	0.72547
1490.78032	0.72110
1488.85176	0.71585
1486.92319	0.70904
1484.99463	0.70316
1483.06606	0.69915
1481.13750	0.69633
1479.20894	0.69428
1477.28037	0.69361
1475.35181	0.69437
1473.42324	0.69546
1471.49468	0.69432
1469.56611	0.69094
1467.63755	0.68819
1465.70898	0.68682
1463.78042	0.68587
1461.85186	0.68524
1459.92329	0.68616
1457.99473	0.68879
1456.06616	0.68929
1454.13760	0.68552
1452.20903	0.68178
1450.28047	0.67898
1448.35190	0.67685
1446.42334	0.67449
1444.49478	0.67177
1442.56621	0.66910
1440.63765	0.66663
1438.70908	0.66463
1436.78052	0.66213
1434.85195	0.65809
1432.92339	0.65458
1430.99482	0.65263
1429.06626	0.65145
1427.13770	0.65080
1425.20913	0.65123
1423.28057	0.65235
1421.35200	0.65331
1419.42344	0.65445
1417.49487	0.65470
1415.56631	0.65296
1413.63774	0.65147
1411.70918	0.65145
1409.78062	0.65254
1407.85205	0.65404
1405.92349	0.65589
1403.99492	0.65740
1402.06636	0.65773
1400.13779	0.65766
1398.20923	0.65726
1396.28066	0.65554
1394.35210	0.65177
1392.42354	0.64658
1390.49497	0.64187
1388.56641	0.63785
1386.63784	0.63322
1384.70928	0.62768
1382.78071	0.62233
1380.85215	0.61767
1378.92358	0.61383
1376.99502	0.61117
1375.06646	0.60978
1373.13789	0.60855
1371.20933	0.60709
1369.28076	0.60613
1367.35220	0.60524
1365.42363	0.60397
1363.49507	0.60285
1361.56650	0.60159
1359.63794	0.59964
1357.70937	0.59768
1355.78081	0.59619
1353.85225	0.59509
1351.92368	0.59428
1349.99512	0.59365
1348.06655	0.59297
1346.13799	0.59203
1344.20942	0.59117
1342.28086	0.59080
1340.35229	0.59085
1338.42373	0.59053
1336.49517	0.58955
1334.56660	0.58858
1332.63804	0.58811
1330.70947	0.58811
1328.78091	0.58837
1326.85234	0.58895
1324.92378	0.58990
1322.99521	0.59100
1321.06665	0.59197
1319.13809	0.59267
1317.20952	0.59297
1315.28096	0.59292
1313.35239	0.59271
1311.42383	0.59233
1309.49526	0.59182
1307.56670	0.59120
1305.63813	0.59053
1303.70957	0.58996
1301.78101	0.58941
1299.85244	0.58861
1297.92388	0.58746
1295.99531	0.58617
1294.06675	0.58498
1292.13818	0.58392
1290.20962	0.58295
1288.28105	0.58198
1286.35249	0.58077
1284.42393	0.57934
1282.49536	0.57788
1280.56680	0.57645
1278.63823	0.57501
1276.70967	0.57358
1274.78110	0.57228
1272.85254	0.57134
1270.92397	0.57073
1268.99541	0.57015
1267.06685	0.56937
1265.13828	0.56851
1263.20972	0.56782
1261.28115	0.56720
1259.35259	0.56641
1257.42402	0.56560
1255.49546	0.56514
1253.56689	0.56510
1251.63833	0.56520
1249.70977	0.56521
1247.78120	0.56506
1245.85264	0.56480
1243.92407	0.56443
1241.99551	0.56383
1240.06694	0.56276
1238.13838	0.56106
1236.20981	0.55885
1234.28125	0.55642
1232.35269	0.55404
1230.42412	0.55185
1228.49556	0.54987
1226.56699	0.54807
1224.63843	0.54626
1222.70986	0.54440
1220.78130	0.54266
1218.85273	0.54110
1216.92417	0.53973
1214.99561	0.53851
1213.06704	0.53740
1211.13848	0.53663
1209.20991	0.53617
1207.28135	0.53570
1205.35278	0.53499
1203.42422	0.53404
1201.49565	0.53297
1199.56709	0.53202
1197.63853	0.53132
1195.70996	0.53076
1193.78140	0.53017
1191.85283	0.52947
1189.92427	0.52890
1187.99570	0.52863
1186.06714	0.52853
1184.13857	0.52857
1182.21001	0.52905
1180.28145	0.53000
1178.35288	0.53113
1176.42432	0.53241
1174.49575	0.53369
1172.56719	0.53453
1170.63862	0.53488
1168.71006	0.53500
1166.78149	0.53499
1164.85293	0.53500
1162.92437	0.53508
1160.99580	0.53513
1159.06724	0.53505
1157.13867	0.53462
1155.21011	0.53378
1153.28154	0.53262
1151.35298	0.53111
1149.42441	0.52910
1147.49585	0.52649
1145.56729	0.52356
1143.63872	0.52083
1141.71016	0.51858
1139.78159	0.51684
1137.85303	0.51557
1135.92446	0.51467
1133.99590	0.51417
1132.06733	0.51402
1130.13877	0.51404
1128.21021	0.51408
1126.28164	0.51384
1124.35308	0.51321
1122.42451	0.51277
1120.49595	0.51284
1118.56738	0.51309
1116.63882	0.51337
1114.71025	0.51378
1112.78169	0.51422
1110.85312	0.51479
1108.92456	0.51573
1106.99600	0.51682
1105.06743	0.51785
1103.13887	0.51899
1101.21030	0.52034
1099.28174	0.52198
1097.35317	0.52393
1095.42461	0.52638
1093.49604	0.52977
1091.56748	0.53453
1089.63892	0.54062
1087.71035	0.54760
1085.78179	0.55513
1083.85322	0.56295
1081.92466	0.57018
1079.99609	0.57567
1078.06753	0.57881
1076.13896	0.57911
1074.21040	0.57615
1072.28184	0.57062
1070.35327	0.56384
1068.42471	0.55665
1066.49614	0.54973
1064.56758	0.54348
1062.63901	0.53782
1060.71045	0.53280
1058.78188	0.52848
1056.85332	0.52465
1054.92476	0.52124
1052.99619	0.51826
1051.06763	0.51563
1049.13906	0.51351
1047.21050	0.51221
1045.28193	0.51151
1043.35337	0.51092
1041.42480	0.51036
1039.49624	0.51004
1037.56768	0.50992
1035.63911	0.50972
1033.71055	0.50925
1031.78198	0.50846
1029.85342	0.50735
1027.92485	0.50585
1025.99629	0.50425
1024.06772	0.50307
1022.13916	0.50229
1020.21060	0.50165
1018.28203	0.50132
1016.35347	0.50146
1014.42490	0.50164
1012.49634	0.50164
1010.56777	0.50170
1008.63921	0.50198
1006.71064	0.50257
1004.78208	0.50375
1002.85352	0.50562
1000.92495	0.50802
998.99639	0.51107
997.06782	0.51488
995.13926	0.51916
993.21069	0.52339
991.28213	0.52693
989.35356	0.52921
987.42500	0.53012
985.49644	0.53014
983.56787	0.52993
981.63931	0.52997
979.71074	0.53048
977.78218	0.53164
975.85361	0.53352
973.92505	0.53589
971.99648	0.53861
970.06792	0.54163
968.13936	0.54488
966.21079	0.54852
964.28223	0.55280
962.35366	0.55761
960.42510	0.56258
958.49653	0.56766
956.56797	0.57292
954.63940	0.57856
952.71084	0.58492
950.78228	0.59156
948.85371	0.59776
946.92515	0.60382
944.99658	0.61027
943.06802	0.61682
941.13945	0.62287
939.21089	0.62853
937.28232	0.63423
935.35376	0.64000
933.42520	0.64564
931.49663	0.65106
929.56807	0.65653
927.63950	0.66219
925.71094	0.66762
923.78237	0.67288
921.85381	0.67902
919.92524	0.68638
917.99668	0.69381
916.06812	0.70015
914.13955	0.70604
912.21099	0.71329
910.28242	0.72234
908.35386	0.73174
906.42529	0.74032
904.49673	0.74874
902.56816	0.75760
900.63960	0.76631
898.71104	0.77470
896.78247	0.78387
894.85391	0.79474
892.92534	0.80619
890.99678	0.81621
889.06821	0.82513
887.13965	0.83446
885.21108	0.84492
883.28252	0.85675
881.35396	0.86867
879.42539	0.87950
877.49683	0.89028
875.56826	0.90198
873.63970	0.91390
871.71113	0.92432
869.78257	0.93395
867.85400	0.94596
865.92544	0.96046
863.99687	0.97471
862.06831	0.98702
860.13975	0.99717
858.21118	1.00718
856.28262	1.01800
854.35405	1.02771
852.42549	1.03706
850.49692	1.04838
848.56836	1.06074
846.63979	1.07266
844.71123	1.08505
842.78267	1.09813
840.85410	1.11037
838.92554	1.12150
836.99697	1.13386
835.06841	1.14690
833.13984	1.15706
831.21128	1.16655
829.28271	1.17838
827.35415	1.18729
825.42559	1.19115
823.49702	1.20386
821.56846	1.22864
819.63989	1.24436
817.71133	1.24910
815.78276	1.25752
813.85420	1.26791
811.92563	1.28551
809.99707	1.31351
808.06851	1.33564
806.13994	1.34961
804.21138	1.35314
802.28281	1.34458
800.35425	1.33934
798.42568	1.34080
796.49712	1.35192
794.56855	1.39082
792.63999	1.44655
790.71143	1.43910
788.78286	1.40497
786.85430	1.46644
784.92573	1.58663
782.99717	1.57508
781.06860	1.51246
779.14004	1.51607
777.21147	1.55508
775.28291	1.58812
773.35435	1.58666
771.42578	1.58211
769.49722	1.61076
767.56865	1.58343
765.64009	1.48270
763.71152	1.36862
761.78296	1.29833
759.85439	1.35233
757.92583	1.57752
755.99727	1.65967
754.06870	1.31831
752.14014	1.07287
750.21157	0.96187
748.28301	0.96792
746.35444	1.04766
744.42588	1.09487
742.49731	1.04441
740.56875	0.93341
738.64019	0.80778
736.71162	0.72506
734.78306	0.72405
732.85449	0.73078
730.92593	0.63245
728.99736	0.57524
727.06880	0.59330
725.14023	0.40411
723.21167	0.19838
721.28311	0.09864
719.35454	0.04714
717.42598	0.02076
715.49741	0.03664
713.56885	0.03866
711.64028	-0.05884
709.71172	-0.17956
707.78315	-0.09923
705.85459	0.09847
703.92603	0.11008
701.99746	0.05500
700.06890	0.03082
698.14033	0.07326
696.21177	0.17973
694.28320	0.24436
692.35464	0.25397
690.42607	0.24386
688.49751	0.23564
686.56895	0.27358
684.64038	0.28828
682.71182	0.27150
680.78325	0.33466
678.85469	0.52128
676.92612	0.89214
674.99756	0.92529
673.06899	0.48092
671.14043	0.31582
669.21187	0.28572
667.28330	0.24378
665.35474	0.19956
663.42617	0.21319
661.49761	0.22299
659.56904	0.14546
657.64048	0.09077
655.71191	0.15603
653.78335	0.19120
651.85479	0.15473
649.92622	0.17427
647.99766	0.29053
646.06909	0.41240
644.14053	0.43074
642.21196	0.37028
640.28340	0.31956
638.35483	0.32562
636.42627	0.35097
634.49771	0.31033
632.56914	0.21362
630.64058	0.16506
628.71201	0.20192
626.78345	0.26663
624.85488	0.29936
622.92632	0.33624
620.99775	0.46077
619.06919	0.45529
617.14062	0.26687
615.21206	0.13813
613.28350	0.14737
611.35493	0.21922
609.42637	0.22601
607.49780	0.20233
605.56924	0.21650
603.64067	0.24438
601.71211	0.29167
599.78354	0.36760
597.85498	0.38282
595.92642	0.26638
593.99785	0.18224
592.06929	0.17726
590.14072	0.22896
588.21216	0.29962
586.28359	0.31011
584.35503	0.23835
582.42646	0.19524
580.49790	0.19585
578.56934	0.20188
576.64077	0.18448
574.71221	0.18619
572.78364	0.21950
570.85508	0.21873
568.92651	0.19323
566.99795	0.21095
565.06938	0.24909
563.14082	0.29018
561.21226	0.30917
559.28369	0.25888
557.35513	0.21349
555.42656	0.25097
553.49800	0.32305
551.56943	0.31163
549.64087	0.25915
547.71230	0.20681
545.78374	0.17426
543.85518	0.16170
541.92661	0.14761
539.99805	0.13468
538.06948	0.13808
536.14092	0.16435
534.21235	0.16862
532.28379	0.13899
530.35522	0.17105
528.42666	0.26007
526.49810	0.32182
524.56953	0.37689
522.64097	0.34026
520.71240	0.22033
518.78384	0.18167
516.85527	0.18070
514.92671	0.15172
512.99814	0.13165
511.06958	0.13408
509.14102	0.13524
507.21245	0.15086
505.28389	0.18884
503.35532	0.21007
501.42676	0.18391
499.49819	0.14235
