3997.91411	0.06825
3995.98555	0.06883
3994.05698	0.06959
3992.12842	0.07024
3990.19985	0.07062
3988.27129	0.07073
3986.34272	0.07086
3984.41416	0.07121
3982.48560	0.07135
3980.55703	0.07128
3978.62847	0.07142
3976.69990	0.07181
3974.77134	0.07225
3972.84277	0.07252
3970.91421	0.07271
3968.98564	0.07316
3967.05708	0.07353
3965.12852	0.07341
3963.19995	0.07334
3961.27139	0.07378
3959.34282	0.07426
3957.41426	0.07433
3955.48569	0.07411
3953.55713	0.07401
3951.62856	0.07456
3949.70000	0.07567
3947.77144	0.07632
3945.84287	0.07610
3943.91431	0.07632
3941.98574	0.07696
3940.05718	0.07633
3938.12861	0.07504
3936.20005	0.07448
3934.27148	0.07503
3932.34292	0.07649
3930.41436	0.07738
3928.48579	0.07681
3926.55723	0.07635
3924.62866	0.07683
3922.70010	0.07700
3920.77153	0.07650
3918.84297	0.07681
3916.91440	0.07759
3914.98584	0.07661
3913.05728	0.07430
3911.12871	0.07293
3909.20015	0.07293
3907.27158	0.07419
3905.34302	0.07734
3903.41445	0.08172
3901.48589	0.08413
3899.55732	0.08317
3897.62876	0.08027
3895.70020	0.07759
3893.77163	0.07700
3891.84307	0.07835
3889.91450	0.07871
3887.98594	0.07720
3886.05737	0.07723
3884.12881	0.07913
3882.20024	0.08037
3880.27168	0.08085
3878.34312	0.07976
3876.41455	0.07795
3874.48599	0.07872
3872.55742	0.08175
3870.62886	0.08444
3868.70029	0.08525
3866.77173	0.08409
3864.84316	0.08400
3862.91460	0.08509
3860.98604	0.08401
3859.05747	0.08192
3857.12891	0.08206
3855.20034	0.08526
3853.27178	0.09084
3851.34321	0.09227
3849.41465	0.08708
3847.48608	0.08289
3845.55752	0.08212
3843.62896	0.08448
3841.70039	0.08839
3839.77183	0.09235
3837.84326	0.09541
3835.91470	0.09551
3833.98613	0.09343
3832.05757	0.09157
3830.12900	0.09049
3828.20044	0.09056
3826.27187	0.09201
3824.34331	0.09376
3822.41475	0.09608
3820.48618	0.09985
3818.55762	0.10107
3816.62905	0.10003
3814.70049	0.09905
3812.77192	0.09674
3810.84336	0.09516
3808.91479	0.09638
3806.98623	0.09994
3805.05767	0.10329
3803.12910	0.10587
3801.20054	0.10924
3799.27197	0.11034
3797.34341	0.10886
3795.41484	0.10776
3793.48628	0.10655
3791.55771	0.10601
3789.62915	0.10688
3787.70059	0.10867
3785.77202	0.11136
3783.84346	0.11402
3781.91489	0.11549
3779.98633	0.11711
3778.05776	0.11888
3776.12920	0.11904
3774.20063	0.11923
3772.27207	0.12123
3770.34351	0.12487
3768.41494	0.12846
3766.48638	0.13032
3764.55781	0.13143
3762.62925	0.13270
3760.70068	0.13525
3758.77212	0.13957
3756.84355	0.14328
3754.91499	0.14557
3752.98643	0.14949
3751.05786	0.15688
3749.12930	0.16377
3747.20073	0.16557
3745.27217	0.16661
3743.34360	0.16895
3741.41504	0.17058
3739.48647	0.17251
3737.55791	0.17709
3735.62935	0.18521
3733.70078	0.19336
3731.77222	0.19598
3729.84365	0.19575
3727.91509	0.19725
3725.98652	0.20234
3724.05796	0.20964
3722.12939	0.21653
3720.20083	0.22305
3718.27227	0.22974
3716.34370	0.23685
3714.41514	0.24495
3712.48657	0.25629
3710.55801	0.27246
3708.62944	0.28691
3706.70088	0.29606
3704.77231	0.30527
3702.84375	0.31818
3700.91519	0.33559
3698.98662	0.35371
3697.05806	0.37102
3695.12949	0.39067
3693.20093	0.41243
3691.27236	0.43687
3689.34380	0.46824
3687.41523	0.50345
3685.48667	0.53160
3683.55811	0.55622
3681.62954	0.58448
3679.70098	0.61806
3677.77241	0.65481
3675.84385	0.69830
3673.91528	0.75356
3671.98672	0.79652
3670.05815	0.83515
3668.12959	0.88797
3666.20103	0.93456
3664.27246	0.97367
3662.34390	1.01699
3660.41533	1.06490
3658.48677	1.11309
3656.55820	1.16472
3654.62964	1.22131
3652.70107	1.26844
3650.77251	1.31149
3648.84395	1.37262
3646.91538	1.44339
3644.98682	1.49047
3643.05825	1.52604
3641.12969	1.56473
3639.20112	1.60924
3637.27256	1.65484
3635.34399	1.69964
3633.41543	1.74457
3631.48687	1.78654
3629.55830	1.82885
3627.62974	1.88285
3625.70117	1.93141
3623.77261	1.96399
3621.84404	1.99736
3619.91548	2.03793
3617.98691	2.08667
3616.05835	2.13185
3614.12979	2.16863
3612.20122	2.20662
3610.27266	2.24496
3608.34409	2.28490
3606.41553	2.32743
3604.48696	2.36568
3602.55840	2.39958
3600.62983	2.43701
3598.70127	2.47850
3596.77271	2.51936
3594.84414	2.56064
3592.91558	2.60164
3590.98701	2.63859
3589.05845	2.67425
3587.12988	2.71952
3585.20132	2.76896
3583.27275	2.80872
3581.34419	2.84456
3579.41562	2.88353
3577.48706	2.92638
3575.55850	2.97072
3573.62993	3.01408
3571.70137	3.05437
3569.77280	3.09530
3567.84424	3.14292
3565.91567	3.19977
3563.98711	3.24987
3562.05854	3.28798
3560.12998	3.32588
3558.20142	3.36692
3556.27285	3.41064
3554.34429	3.45608
3552.41572	3.50347
3550.48716	3.55036
3548.55859	3.59546
3546.63003	3.64022
3544.70146	3.68735
3542.77290	3.73537
3540.84434	3.78107
3538.91577	3.82689
3536.98721	3.87304
3535.05864	3.91941
3533.13008	3.96621
3531.20151	4.01368
3529.27295	4.06056
3527.34438	4.10744
3525.41582	4.15664
3523.48726	4.20847
3521.55869	4.25985
3519.63013	4.30755
3517.70156	4.35470
3515.77300	4.40042
3513.84443	4.44513
3511.91587	4.49284
3509.98730	4.54357
3508.05874	4.59305
3506.13018	4.63886
3504.20161	4.68609
3502.27305	4.73815
3500.34448	4.78918
3498.41592	4.83156
3496.48735	4.87259
3494.55879	4.92080
3492.63022	4.97346
3490.70166	5.02749
3488.77310	5.07699
3486.84453	5.11905
3484.91597	5.15906
3482.98740	5.20378
3481.05884	5.25975
3479.13027	5.31665
3477.20171	5.36240
3475.27314	5.40482
3473.34458	5.45032
3471.41602	5.49769
3469.48745	5.54468
3467.55889	5.59674
3465.63032	5.66105
3463.70176	5.72447
3461.77319	5.77365
3459.84463	5.81708
3457.91606	5.86031
3455.98750	5.90817
3454.05894	5.95844
3452.13037	6.00432
3450.20181	6.05416
3448.27324	6.10882
3446.34468	6.16303
3444.41611	6.21419
3442.48755	6.26509
3440.55898	6.31760
3438.63042	6.37123
3436.70186	6.41791
3434.77329	6.45522
3432.84473	6.49568
3430.91616	6.53811
3428.98760	6.57730
3427.05903	6.62539
3425.13047	6.69820
3423.20190	6.76794
3421.27334	6.80745
3419.34478	6.82848
3417.41621	6.87273
3415.48765	6.96326
3413.55908	7.03837
3411.63052	7.05297
3409.70195	7.05829
3407.77339	7.10904
3405.84482	7.17054
3403.91626	7.19683
3401.98770	7.19784
3400.05913	7.20975
3398.13057	7.25470
3396.20200	7.32427
3394.27344	7.42608
3392.34487	7.54705
3390.41631	7.61613
3388.48774	7.60225
3386.55918	7.60082
3384.63062	7.65451
3382.70205	7.70491
3380.77349	7.71348
3378.84492	7.71022
3376.91636	7.72585
3374.98779	7.73903
3373.05923	7.76114
3371.13066	7.78888
3369.20210	7.80364
3367.27354	7.80796
3365.34497	7.82461
3363.41641	7.83234
3361.48784	7.82657
3359.55928	7.87584
3357.63071	7.94593
3355.70215	7.97270
3353.77358	7.97863
3351.84502	7.99920
3349.91646	8.01974
3347.98789	8.04962
3346.05933	8.04808
3344.13076	8.00073
3342.20220	8.01314
3340.27363	8.07454
3338.34507	8.11244
3336.41650	8.09982
3334.48794	8.07350
3332.55937	8.09188
3330.63081	8.17201
3328.70225	8.22821
3326.77368	8.19643
3324.84512	8.14439
3322.91655	8.10070
3320.98799	8.09959
3319.05942	8.15393
3317.13086	8.20369
3315.20229	8.22175
3313.27373	8.26009
3311.34517	8.26917
3309.41660	8.20530
3307.48804	8.18090
3305.55947	8.21117
3303.63091	8.18090
3301.70234	8.05833
3299.77378	7.98836
3297.84521	8.04089
3295.91665	8.13761
3293.98809	8.20228
3292.05952	8.24645
3290.13096	8.22475
3288.20239	8.16515
3286.27383	8.23606
3284.34526	8.30538
3282.41670	8.20138
3280.48813	8.11523
3278.55957	8.09950
3276.63101	8.07682
3274.70244	8.10308
3272.77388	8.14656
3270.84531	8.14926
3268.91675	8.16058
3266.98818	8.13587
3265.05962	8.09513
3263.13105	8.14411
3261.20249	8.26252
3259.27393	8.32336
3257.34536	8.25300
3255.41680	8.09669
3253.48823	8.02006
3251.55967	8.10152
3249.63110	8.18933
3247.70254	8.17500
3245.77397	8.12303
3243.84541	8.09507
3241.91685	8.13837
3239.98828	8.23618
3238.05972	8.25322
3236.13115	8.20075
3234.20259	8.20280
3232.27402	8.20721
3230.34546	8.17385
3228.41689	8.16419
3226.48833	8.21399
3224.55977	8.30579
3222.63120	8.32016
3220.70264	8.17165
3218.77407	7.96562
3216.84551	7.81545
3214.91694	7.79151
3212.98838	7.87726
3211.05981	7.94644
3209.13125	7.93974
3207.20269	7.88746
3205.27412	7.82539
3203.34556	7.75861
3201.41699	7.69510
3199.48843	7.66214
3197.55986	7.65423
3195.63130	7.67062
3193.70273	7.69356
3191.77417	7.66729
3189.84561	7.59112
3187.91704	7.50469
3185.98848	7.42013
3184.05991	7.34749
3182.13135	7.30550
3180.20278	7.28653
3178.27422	7.23825
3176.34565	7.14695
3174.41709	7.08329
3172.48853	7.05528
3170.55996	6.98250
3168.63140	6.87761
3166.70283	6.81880
3164.77427	6.77628
3162.84570	6.68617
3160.91714	6.57237
3158.98857	6.48088
3157.06001	6.43752
3155.13145	6.43047
3153.20288	6.40409
3151.27432	6.35029
3149.34575	6.29280
3147.41719	6.21492
3145.48862	6.12109
3143.56006	6.04488
3141.63149	5.98180
3139.70293	5.91078
3137.77437	5.83780
3135.84580	5.76959
3133.91724	5.70141
3131.98867	5.62478
3130.06011	5.54068
3128.13154	5.46395
3126.20298	5.40056
3124.27441	5.34277
3122.34585	5.27769
3120.41729	5.20429
3118.48872	5.12815
3116.56016	5.05123
3114.63159	4.97902
3112.70303	4.91048
3110.77446	4.83982
3108.84590	4.76786
3106.91733	4.69744
3104.98877	4.62925
3103.06021	4.56251
3101.13164	4.49629
3099.20308	4.42959
3097.27451	4.36168
3095.34595	4.29500
3093.41738	4.23183
3091.48882	4.17097
3089.56025	4.11066
3087.63169	4.04902
3085.70312	3.98445
3083.77456	3.91894
3081.84600	3.85572
3079.91743	3.79491
3077.98887	3.73580
3076.06030	3.67757
3074.13174	3.61917
3072.20317	3.56050
3070.27461	3.50277
3068.34604	3.44779
3066.41748	3.39420
3064.48892	3.33897
3062.56035	3.28236
3060.63179	3.22700
3058.70322	3.17477
3056.77466	3.12459
3054.84609	3.07309
3052.91753	3.01985
3050.98896	2.96781
3049.06040	2.91791
3047.13184	2.86872
3045.20327	2.81945
3043.27471	2.77104
3041.34614	2.72407
3039.41758	2.67784
3037.48901	2.63221
3035.56045	2.58767
3033.63188	2.54349
3031.70332	2.49881
3029.77476	2.45484
3027.84619	2.41296
3025.91763	2.37213
3023.98906	2.33081
3022.06050	2.28949
3020.13193	2.24889
3018.20337	2.20885
3016.27480	2.16974
3014.34624	2.13192
3012.41768	2.09507
3010.48911	2.05848
3008.56055	2.02196
3006.63198	1.98609
3004.70342	1.95088
3002.77485	1.91578
3000.84629	1.88118
2998.91772	1.84753
2996.98916	1.81457
2995.06060	1.78251
2993.13203	1.75134
2991.20347	1.72045
2989.27490	1.68973
2987.34634	1.65951
2985.41777	1.63019
2983.48921	1.60143
2981.56064	1.57280
2979.63208	1.54466
2977.70352	1.51703
2975.77495	1.48967
2973.84639	1.46257
2971.91782	1.43566
2969.98926	1.40910
2968.06069	1.38310
2966.13213	1.35764
2964.20356	1.33244
2962.27500	1.30747
2960.34644	1.28304
2958.41787	1.25900
2956.48931	1.23537
2954.56074	1.21238
2952.63218	1.18987
2950.70361	1.16789
2948.77505	1.14651
2946.84648	1.12536
2944.91792	1.10449
2942.98936	1.08376
2941.06079	1.06259
2939.13223	1.04125
2937.20366	1.02019
2935.27510	0.99967
2933.34653	0.98010
2931.41797	0.96112
2929.48940	0.94197
2927.56084	0.92272
2925.63228	0.90414
2923.70371	0.88696
2921.77515	0.87102
2919.84658	0.85598
2917.91802	0.84160
2915.98945	0.82767
2914.06089	0.81408
2912.13232	0.80043
2910.20376	0.78685
2908.27520	0.77371
2906.34663	0.76080
2904.41807	0.74804
2902.48950	0.73537
2900.56094	0.72275
2898.63237	0.71055
2896.70381	0.69882
2894.77524	0.68731
2892.84668	0.67596
2890.91812	0.66471
2888.98955	0.65367
2887.06099	0.64299
2885.13242	0.63261
2883.20386	0.62235
2881.27529	0.61201
2879.34673	0.60173
2877.41816	0.59185
2875.48960	0.58230
2873.56104	0.57241
2871.63247	0.56196
2869.70391	0.55168
2867.77534	0.54177
2865.84678	0.53177
2863.91821	0.52149
2861.98965	0.51100
2860.06108	0.50053
2858.13252	0.49051
2856.20396	0.48117
2854.27539	0.47259
2852.34683	0.46496
2850.41826	0.45814
2848.48970	0.45174
2846.56113	0.44557
2844.63257	0.43954
2842.70400	0.43381
2840.77544	0.42848
2838.84687	0.42325
2836.91831	0.41801
2834.98975	0.41279
2833.06118	0.40751
2831.13262	0.40214
2829.20405	0.39677
2827.27549	0.39122
2825.34692	0.38549
2823.41836	0.37979
2821.48979	0.37432
2819.56123	0.36905
2817.63267	0.36370
2815.70410	0.35825
2813.77554	0.35298
2811.84697	0.34788
2809.91841	0.34272
2807.98984	0.33764
2806.06128	0.33288
2804.13271	0.32826
2802.20415	0.32357
2800.27559	0.31886
2798.34702	0.31426
2796.41846	0.30979
2794.48989	0.30547
2792.56133	0.30140
2790.63276	0.29740
2788.70420	0.29321
2786.77563	0.28899
2784.84707	0.28495
2782.91851	0.28105
2780.98994	0.27730
2779.06138	0.27382
2777.13281	0.27053
2775.20425	0.26711
2773.27568	0.26357
2771.34712	0.25998
2769.41855	0.25646
2767.48999	0.25315
2765.56143	0.25009
2763.63286	0.24712
2761.70430	0.24405
2759.77573	0.24100
2757.84717	0.23814
2755.91860	0.23538
2753.99004	0.23261
2752.06147	0.22981
2750.13291	0.22698
2748.20435	0.22423
2746.27578	0.22162
2744.34722	0.21916
2742.41865	0.21678
2740.49009	0.21444
2738.56152	0.21216
2736.63296	0.20985
2734.70439	0.20752
2732.77583	0.20537
2730.84727	0.20334
2728.91870	0.20133
2726.99014	0.19931
2725.06157	0.19714
2723.13301	0.19488
2721.20444	0.19278
2719.27588	0.19084
2717.34731	0.18911
2715.41875	0.18756
2713.49019	0.18596
2711.56162	0.18424
2709.63306	0.18247
2707.70449	0.18078
2705.77593	0.17933
2703.84736	0.17801
2701.91880	0.17659
2699.99023	0.17512
2698.06167	0.17370
2696.13311	0.17227
2694.20454	0.17090
2692.27598	0.16960
2690.34741	0.16829
2688.41885	0.16704
2686.49028	0.16590
2684.56172	0.16481
2682.63315	0.16372
2680.70459	0.16261
2678.77603	0.16153
2676.84746	0.16049
2674.91890	0.15947
2672.99033	0.15845
2671.06177	0.15747
2669.13320	0.15661
2667.20464	0.15595
2665.27607	0.15538
2663.34751	0.15468
2661.41895	0.15388
2659.49038	0.15309
2657.56182	0.15236
2655.63325	0.15175
2653.70469	0.15119
2651.77612	0.15058
2649.84756	0.14998
2647.91899	0.14942
2645.99043	0.14877
2644.06187	0.14811
2642.13330	0.14768
2640.20474	0.14747
2638.27617	0.14712
2636.34761	0.14651
2634.41904	0.14603
2632.49048	0.14578
2630.56191	0.14552
2628.63335	0.14515
2626.70479	0.14480
2624.77622	0.14454
2622.84766	0.14433
2620.91909	0.14423
2618.99053	0.14415
2617.06196	0.14402
2615.13340	0.14389
2613.20483	0.14377
2611.27627	0.14363
2609.34771	0.14357
2607.41914	0.14352
2605.49058	0.14344
2603.56201	0.14347
2601.63345	0.14364
2599.70488	0.14382
2597.77632	0.14388
2595.84775	0.14388
2593.91919	0.14400
2591.99062	0.14430
2590.06206	0.14470
2588.13350	0.14497
2586.20493	0.14499
2584.27637	0.14493
2582.34780	0.14514
2580.41924	0.14559
2578.49067	0.14597
2576.56211	0.14621
2574.63354	0.14641
2572.70498	0.14663
2570.77642	0.14702
2568.84785	0.14755
2566.91929	0.14804
2564.99072	0.14851
2563.06216	0.14901
2561.13359	0.14941
2559.20503	0.14981
2557.27646	0.15029
2555.34790	0.15077
2553.41934	0.15141
2551.49077	0.15231
2549.56221	0.15309
2547.63364	0.15353
2545.70508	0.15390
2543.77651	0.15438
2541.84795	0.15499
2539.91938	0.15568
2537.99082	0.15633
2536.06226	0.15686
2534.13369	0.15738
2532.20513	0.15809
2530.27656	0.15900
2528.34800	0.15993
2526.41943	0.16071
2524.49087	0.16138
2522.56230	0.16199
2520.63374	0.16259
2518.70518	0.16326
2516.77661	0.16410
2514.84805	0.16507
2512.91948	0.16590
2510.99092	0.16661
2509.06235	0.16740
2507.13379	0.16829
2505.20522	0.16916
2503.27666	0.16999
2501.34810	0.17082
2499.41953	0.17164
2497.49097	0.17243
2495.56240	0.17330
2493.63384	0.17428
2491.70527	0.17525
2489.77671	0.17619
2487.84814	0.17711
2485.91958	0.17798
2483.99102	0.17883
2482.06245	0.17971
2480.13389	0.18063
2478.20532	0.18154
2476.27676	0.18231
2474.34819	0.18304
2472.41963	0.18397
2470.49106	0.18500
2468.56250	0.18595
2466.63394	0.18688
2464.70537	0.18781
2462.77681	0.18870
2460.84824	0.18972
2458.91968	0.19090
2456.99111	0.19198
2455.06255	0.19283
2453.13398	0.19368
2451.20542	0.19470
2449.27686	0.19579
2447.34829	0.19687
2445.41973	0.19790
2443.49116	0.19886
2441.56260	0.19987
2439.63403	0.20098
2437.70547	0.20202
2435.77690	0.20294
2433.84834	0.20393
2431.91978	0.20506
2429.99121	0.20618
2428.06265	0.20720
2426.13408	0.20816
2424.20552	0.20912
2422.27695	0.21023
2420.34839	0.21151
2418.41982	0.21279
2416.49126	0.21398
2414.56270	0.21510
2412.63413	0.21615
2410.70557	0.21725
2408.77700	0.21846
2406.84844	0.21965
2404.91987	0.22081
2402.99131	0.22202
2401.06274	0.22326
2399.13418	0.22448
2397.20562	0.22570
2395.27705	0.22694
2393.34849	0.22817
2391.41992	0.22939
2389.49136	0.23066
2387.56279	0.23191
2385.63423	0.23323
2383.70566	0.23481
2381.77710	0.23657
2379.84854	0.23834
2377.91997	0.24007
2375.99141	0.24175
2374.06284	0.24337
2372.13428	0.24507
2370.20571	0.24708
2368.27715	0.24944
2366.34858	0.25183
2364.42002	0.25388
2362.49146	0.25618
2360.56289	0.25858
2358.63433	0.25985
2356.70576	0.26100
2354.77720	0.26263
2352.84863	0.26381
2350.92007	0.26431
2348.99150	0.26463
2347.06294	0.26541
2345.13437	0.26713
2343.20581	0.26939
2341.27725	0.27130
2339.34868	0.27284
2337.42012	0.27425
2335.49155	0.27567
2333.56299	0.27707
2331.63442	0.27876
2329.70586	0.28056
2327.77729	0.28200
2325.84873	0.28329
2323.92017	0.28469
2321.99160	0.28625
2320.06304	0.28783
2318.13447	0.28944
2316.20591	0.29104
2314.27734	0.29252
2312.34878	0.29389
2310.42021	0.29530
2308.49165	0.29683
2306.56309	0.29834
2304.63452	0.29982
2302.70596	0.30140
2300.77739	0.30304
2298.84883	0.30457
2296.92026	0.30612
2294.99170	0.30787
2293.06313	0.30979
2291.13457	0.31167
2289.20601	0.31336
2287.27744	0.31501
2285.34888	0.31680
2283.42031	0.31867
2281.49175	0.32061
2279.56318	0.32273
2277.63462	0.32492
2275.70605	0.32697
2273.77749	0.32896
2271.84893	0.33104
2269.92036	0.33317
2267.99180	0.33524
2266.06323	0.33727
2264.13467	0.33933
2262.20610	0.34141
2260.27754	0.34349
2258.34897	0.34561
2256.42041	0.34770
2254.49185	0.34973
2252.56328	0.35182
2250.63472	0.35404
2248.70615	0.35623
2246.77759	0.35833
2244.84902	0.36044
2242.92046	0.36262
2240.99189	0.36483
2239.06333	0.36706
2237.13477	0.36927
2235.20620	0.37140
2233.27764	0.37350
2231.34907	0.37569
2229.42051	0.37790
2227.49194	0.38008
2225.56338	0.38225
2223.63481	0.38443
2221.70625	0.38658
2219.77769	0.38863
2217.84912	0.39066
2215.92056	0.39289
2213.99199	0.39533
2212.06343	0.39764
2210.13486	0.39966
2208.20630	0.40162
2206.27773	0.40375
2204.34917	0.40589
2202.42061	0.40785
2200.49204	0.40979
2198.56348	0.41190
2196.63491	0.41399
2194.70635	0.41592
2192.77778	0.41780
2190.84922	0.41959
2188.92065	0.42130
2186.99209	0.42312
2185.06353	0.42503
2183.13496	0.42686
2181.20640	0.42854
2179.27783	0.43009
2177.34927	0.43167
2175.42070	0.43337
2173.49214	0.43508
2171.56357	0.43659
2169.63501	0.43785
2167.70645	0.43902
2165.77788	0.44031
2163.84932	0.44168
2161.92075	0.44296
2159.99219	0.44411
2158.06362	0.44520
2156.13506	0.44625
2154.20649	0.44719
2152.27793	0.44805
2150.34937	0.44884
2148.42080	0.44954
2146.49224	0.45013
2144.56367	0.45068
2142.63511	0.45119
2140.70654	0.45162
2138.77798	0.45207
2136.84941	0.45245
2134.92085	0.45263
2132.99229	0.45272
2131.06372	0.45281
2129.13516	0.45276
2127.20659	0.45254
2125.27803	0.45232
2123.34946	0.45214
2121.42090	0.45187
2119.49233	0.45142
2117.56377	0.45087
2115.63521	0.45028
2113.70664	0.44958
2111.77808	0.44874
2109.84951	0.44780
2107.92095	0.44684
2105.99238	0.44590
2104.06382	0.44492
2102.13525	0.44380
2100.20669	0.44258
2098.27812	0.44125
2096.34956	0.43984
2094.42100	0.43844
2092.49243	0.43702
2090.56387	0.43557
2088.63530	0.43403
2086.70674	0.43236
2084.77817	0.43055
2082.84961	0.42868
2080.92104	0.42683
2078.99248	0.42499
2077.06392	0.42305
2075.13535	0.42105
2073.20679	0.41903
2071.27822	0.41700
2069.34966	0.41493
2067.42109	0.41287
2065.49253	0.41079
2063.56396	0.40851
2061.63540	0.40610
2059.70684	0.40369
2057.77827	0.40123
2055.84971	0.39873
2053.92114	0.39624
2051.99258	0.39381
2050.06401	0.39138
2048.13545	0.38886
2046.20688	0.38622
2044.27832	0.38363
2042.34976	0.38121
2040.42119	0.37875
2038.49263	0.37606
2036.56406	0.37324
2034.63550	0.37041
2032.70693	0.36756
2030.77837	0.36476
2028.84980	0.36209
2026.92124	0.35949
2024.99268	0.35677
2023.06411	0.35403
2021.13555	0.35144
2019.20698	0.34904
2017.27842	0.34660
2015.34985	0.34378
2013.42129	0.34076
2011.49272	0.33789
2009.56416	0.33524
2007.63560	0.33263
2005.70703	0.33000
2003.77847	0.32741
2001.84990	0.32482
1999.92134	0.32218
1997.99277	0.31954
1996.06421	0.31706
1994.13564	0.31493
1992.20708	0.31288
1990.27852	0.31033
1988.34995	0.30753
1986.42139	0.30491
1984.49282	0.30235
1982.56426	0.29979
1980.63569	0.29739
1978.70713	0.29518
1976.77856	0.29306
1974.85000	0.29090
1972.92144	0.28867
1970.99287	0.28652
1969.06431	0.28465
1967.13574	0.28298
1965.20718	0.28104
1963.27861	0.27883
1961.35005	0.27663
1959.42148	0.27441
1957.49292	0.27236
1955.56436	0.27064
1953.63579	0.26899
1951.70723	0.26722
1949.77866	0.26552
1947.85010	0.26403
1945.92153	0.26289
1943.99297	0.26202
1942.06440	0.26074
1940.13584	0.25863
1938.20728	0.25653
1936.27871	0.25502
1934.35015	0.25384
1932.42158	0.25268
1930.49302	0.25139
1928.56445	0.25014
1926.63589	0.24913
1924.70732	0.24854
1922.77876	0.24805
1920.85020	0.24708
1918.92163	0.24601
1916.99307	0.24499
1915.06450	0.24368
1913.13594	0.24254
1911.20737	0.24203
1909.27881	0.24166
1907.35024	0.24085
1905.42168	0.23979
1903.49312	0.23896
1901.56455	0.23828
1899.63599	0.23764
1897.70742	0.23731
1895.77886	0.23724
1893.85029	0.23699
1891.92173	0.23664
1889.99316	0.23666
1888.06460	0.23641
1886.13604	0.23566
1884.20747	0.23508
1882.27891	0.23480
1880.35034	0.23465
1878.42178	0.23454
1876.49321	0.23448
1874.56465	0.23444
1872.63608	0.23473
1870.70752	0.23579
1868.77896	0.23742
1866.85039	0.23772
1864.92183	0.23654
1862.99326	0.23578
1861.06470	0.23589
1859.13613	0.23623
1857.20757	0.23641
1855.27900	0.23670
1853.35044	0.23718
1851.42187	0.23783
1849.49331	0.23874
1847.56475	0.23999
1845.63618	0.24154
1843.70762	0.24284
1841.77905	0.24293
1839.85049	0.24258
1837.92192	0.24305
1835.99336	0.24394
1834.06479	0.24489
1832.13623	0.24633
1830.20767	0.24858
1828.27910	0.25030
1826.35054	0.25098
1824.42197	0.25186
1822.49341	0.25255
1820.56484	0.25319
1818.63628	0.25443
1816.70771	0.25612
1814.77915	0.25777
1812.85059	0.25972
1810.92202	0.26206
1808.99346	0.26403
1807.06489	0.26563
1805.13633	0.26746
1803.20776	0.27002
1801.27920	0.27310
1799.35063	0.27609
1797.42207	0.27844
1795.49351	0.28093
1793.56494	0.28436
1791.63638	0.28843
1789.70781	0.29111
1787.77925	0.29265
1785.85068	0.29535
1783.92212	0.29915
1781.99355	0.30331
1780.06499	0.30757
1778.13643	0.31168
1776.20786	0.31580
1774.27930	0.32102
1772.35073	0.32812
1770.42217	0.33445
1768.49360	0.33854
1766.56504	0.34246
1764.63647	0.34724
1762.70791	0.35339
1760.77935	0.36117
1758.85078	0.36802
1756.92222	0.37478
1754.99365	0.38212
1753.06509	0.38925
1751.13652	0.39866
1749.20796	0.41028
1747.27939	0.42058
1745.35083	0.42907
1743.42227	0.43819
1741.49370	0.44847
1739.56514	0.46072
1737.63657	0.47305
1735.70801	0.48439
1733.77944	0.50177
1731.85088	0.52120
1729.92231	0.53552
1727.99375	0.55015
1726.06519	0.56636
1724.13662	0.58457
1722.20806	0.60446
1720.27949	0.62338
1718.35093	0.64663
1716.42236	0.68008
1714.49380	0.70942
1712.56523	0.73219
1710.63667	0.75504
1708.70811	0.78061
1706.77954	0.81030
1704.85098	0.84561
1702.92241	0.87678
1700.99385	0.90777
1699.06528	0.95379
1697.13672	0.99532
1695.20815	1.03651
1693.27959	1.07578
1691.35103	1.10790
1689.42246	1.14614
1687.49390	1.18683
1685.56533	1.22614
1683.63677	1.28602
1681.70820	1.34638
1679.77964	1.38426
1677.85107	1.42123
1675.92251	1.46464
1673.99395	1.51785
1672.06538	1.56442
1670.13682	1.61029
1668.20825	1.66997
1666.27969	1.71743
1664.35112	1.75688
1662.42256	1.80657
1660.49399	1.86325
1658.56543	1.90795
1656.63687	1.94425
1654.70830	1.97877
1652.77974	2.03676
1650.85117	2.09281
1648.92261	2.11432
1646.99404	2.14269
1645.06548	2.17441
1643.13691	2.19437
1641.20835	2.20630
1639.27979	2.21783
1637.35122	2.22658
1635.42266	2.22859
1633.49409	2.22252
1631.56553	2.21128
1629.63696	2.19735
1627.70840	2.17274
1625.77983	2.14281
1623.85127	2.10496
1621.92271	2.05820
1619.99414	2.01548
1618.06558	1.97371
1616.13701	1.91444
1614.20845	1.85198
1612.27988	1.80326
1610.35132	1.75281
1608.42275	1.69788
1606.49419	1.64315
1604.56562	1.59289
1602.63706	1.54456
1600.70850	1.49674
1598.77993	1.45239
1596.85137	1.41096
1594.92280	1.37091
1592.99424	1.33212
1591.06567	1.29634
1589.13711	1.26249
1587.20854	1.23066
1585.27998	1.20108
1583.35142	1.17325
1581.42285	1.14773
1579.49429	1.12602
1577.56572	1.10683
1575.63716	1.08262
1573.70859	1.05975
1571.78003	1.04486
1569.85146	1.02999
1567.92290	1.01244
1565.99434	0.99802
1564.06577	0.98644
1562.13721	0.97771
1560.20864	0.97222
1558.28008	0.96214
1556.35151	0.94922
1554.42295	0.94057
1552.49438	0.93278
1550.56582	0.92513
1548.63726	0.91692
1546.70869	0.90932
1544.78013	0.90242
1542.85156	0.89511
1540.92300	0.88515
1538.99443	0.86696
1537.06587	0.85150
1535.13730	0.84205
1533.20874	0.83126
1531.28018	0.81896
1529.35161	0.80979
1527.42305	0.80194
1525.49448	0.79389
1523.56592	0.78701
1521.63735	0.78050
1519.70879	0.77247
1517.78022	0.76507
1515.85166	0.75708
1513.92310	0.74869
1511.99453	0.74212
1510.06597	0.73750
1508.13740	0.73439
1506.20884	0.72678
1504.28027	0.71594
1502.35171	0.70938
1500.42314	0.70514
1498.49458	0.70159
1496.56602	0.69686
1494.63745	0.69106
1492.70889	0.68677
1490.78032	0.68428
1488.85176	0.68113
1486.92319	0.67595
1484.99463	0.67096
1483.06606	0.66738
1481.13750	0.66458
1479.20894	0.66204
1477.28037	0.66036
1475.35181	0.65983
1473.42324	0.65937
1471.49468	0.65601
1469.56611	0.65090
1467.63755	0.64730
1465.70898	0.64529
1463.78042	0.64341
1461.85186	0.64151
1459.92329	0.64102
1457.99473	0.64186
1456.06616	0.64062
1454.13760	0.63659
1452.20903	0.63332
1450.28047	0.63102
1448.35190	0.62926
1446.42334	0.62721
1444.49478	0.62484
1442.56621	0.62278
1440.63765	0.62118
1438.70908	0.62023
1436.78052	0.61935
1434.85195	0.61718
1432.92339	0.61462
1430.99482	0.61287
1429.06626	0.61146
1427.13770	0.61017
1425.20913	0.60949
1423.28057	0.60920
1421.35200	0.60893
1419.42344	0.60886
1417.49487	0.60773
1415.56631	0.60531
1413.63774	0.60346
1411.70918	0.60232
1409.78062	0.60138
1407.85205	0.60073
1405.92349	0.60064
1403.99492	0.60050
1402.06636	0.59991
1400.13779	0.59944
1398.20923	0.59883
1396.28066	0.59750
1394.35210	0.59524
1392.42354	0.59228
1390.49497	0.58973
1388.56641	0.58792
1386.63784	0.58585
1384.70928	0.58302
1382.78071	0.58027
1380.85215	0.57803
1378.92358	0.57615
1376.99502	0.57473
1375.06646	0.57398
1373.13789	0.57309
1371.20933	0.57158
1369.28076	0.57028
1367.35220	0.56933
1365.42363	0.56850
1363.49507	0.56795
1361.56650	0.56707
1359.63794	0.56549
1357.70937	0.56408
1355.78081	0.56301
1353.85225	0.56206
1351.92368	0.56130
1349.99512	0.56072
1348.06655	0.56004
1346.13799	0.55916
1344.20942	0.55833
1342.28086	0.55799
1340.35229	0.55812
1338.42373	0.55772
1336.49517	0.55639
1334.56660	0.55511
1332.63804	0.55426
1330.70947	0.55364
1328.78091	0.55325
1326.85234	0.55307
1324.92378	0.55291
1322.99521	0.55265
1321.06665	0.55241
1319.13809	0.55216
1317.20952	0.55165
1315.28096	0.55097
1313.35239	0.55029
1311.42383	0.54957
1309.49526	0.54889
1307.56670	0.54837
1305.63813	0.54782
1303.70957	0.54718
1301.78101	0.54652
1299.85244	0.54579
1297.92388	0.54499
1295.99531	0.54418
1294.06675	0.54342
1292.13818	0.54265
1290.20962	0.54185
1288.28105	0.54107
1286.35249	0.54023
1284.42393	0.53949
1282.49536	0.53889
1280.56680	0.53825
1278.63823	0.53753
1276.70967	0.53686
1274.78110	0.53627
1272.85254	0.53579
1270.92397	0.53532
1268.99541	0.53476
1267.06685	0.53418
1265.13828	0.53360
1263.20972	0.53308
1261.28115	0.53269
1259.35259	0.53239
1257.42402	0.53208
1255.49546	0.53182
1253.56689	0.53165
1251.63833	0.53151
1249.70977	0.53137
1247.78120	0.53124
1245.85264	0.53117
1243.92407	0.53106
1241.99551	0.53066
1240.06694	0.52995
1238.13838	0.52908
1236.20981	0.52804
1234.28125	0.52695
1232.35269	0.52599
1230.42412	0.52510
1228.49556	0.52423
1226.56699	0.52337
1224.63843	0.52251
1222.70986	0.52159
1220.78130	0.52065
1218.85273	0.51982
1216.92417	0.51913
1214.99561	0.51846
1213.06704	0.51775
1211.13848	0.51703
1209.20991	0.51629
1207.28135	0.51557
1205.35278	0.51483
1203.42422	0.51408
1201.49565	0.51348
1199.56709	0.51302
1197.63853	0.51259
1195.70996	0.51215
1193.78140	0.51184
1191.85283	0.51145
1189.92427	0.51095
1187.99570	0.51066
1186.06714	0.51068
1184.13857	0.51077
1182.21001	0.51081
1180.28145	0.51096
1178.35288	0.51140
1176.42432	0.51204
1174.49575	0.51263
1172.56719	0.51309
1170.63862	0.51337
1168.71006	0.51352
1166.78149	0.51361
1164.85293	0.51354
1162.92437	0.51335
1160.99580	0.51312
1159.06724	0.51271
1157.13867	0.51197
1155.21011	0.51098
1153.28154	0.50990
1151.35298	0.50856
1149.42441	0.50685
1147.49585	0.50495
1145.56729	0.50285
1143.63872	0.50064
1141.71016	0.49847
1139.78159	0.49634
1137.85303	0.49432
1135.92446	0.49252
1133.99590	0.49091
1132.06733	0.48946
1130.13877	0.48813
1128.21021	0.48692
1126.28164	0.48578
1124.35308	0.48461
1122.42451	0.48358
1120.49595	0.48300
1118.56738	0.48273
1116.63882	0.48250
1114.71025	0.48236
1112.78169	0.48243
1110.85312	0.48275
1108.92456	0.48338
1106.99600	0.48429
1105.06743	0.48540
1103.13887	0.48680
1101.21030	0.48860
1099.28174	0.49075
1097.35317	0.49327
1095.42461	0.49629
1093.49604	0.49984
1091.56748	0.50407
1089.63892	0.50905
1087.71035	0.51458
1085.78179	0.52043
1083.85322	0.52665
1081.92466	0.53309
1079.99609	0.53878
1078.06753	0.54251
1076.13896	0.54361
1074.21040	0.54187
1072.28184	0.53786
1070.35327	0.53245
1068.42471	0.52612
1066.49614	0.51951
1064.56758	0.51314
1062.63901	0.50723
1060.71045	0.50207
1058.78188	0.49763
1056.85332	0.49375
1054.92476	0.49041
1052.99619	0.48744
1051.06763	0.48475
1049.13906	0.48230
1047.21050	0.48010
1045.28193	0.47849
1043.35337	0.47737
1041.42480	0.47628
1039.49624	0.47529
1037.56768	0.47466
1035.63911	0.47424
1033.71055	0.47397
1031.78198	0.47393
1029.85342	0.47394
1027.92485	0.47402
1025.99629	0.47437
1024.06772	0.47482
1022.13916	0.47531
1020.21060	0.47597
1018.28203	0.47683
1016.35347	0.47781
1014.42490	0.47893
1012.49634	0.48022
1010.56777	0.48169
1008.63921	0.48321
1006.71064	0.48490
1004.78208	0.48702
1002.85352	0.48951
1000.92495	0.49224
998.99639	0.49530
997.06782	0.49878
995.13926	0.50250
993.21069	0.50605
991.28213	0.50925
989.35356	0.51202
987.42500	0.51415
985.49644	0.51539
983.56787	0.51602
981.63931	0.51676
979.71074	0.51809
977.78218	0.51999
975.85361	0.52232
973.92505	0.52496
971.99648	0.52785
970.06792	0.53105
968.13936	0.53477
966.21079	0.53894
964.28223	0.54339
962.35366	0.54818
960.42510	0.55331
958.49653	0.55877
956.56797	0.56459
954.63940	0.57052
952.71084	0.57635
950.78228	0.58241
948.85371	0.58888
946.92515	0.59532
944.99658	0.60141
943.06802	0.60727
941.13945	0.61293
939.21089	0.61838
937.28232	0.62393
935.35376	0.62961
933.42520	0.63503
931.49663	0.64033
929.56807	0.64599
927.63950	0.65188
925.71094	0.65792
923.78237	0.66422
921.85381	0.67066
919.92524	0.67702
917.99668	0.68320
916.06812	0.68981
914.13955	0.69759
912.21099	0.70601
910.28242	0.71394
908.35386	0.72164
906.42529	0.72995
904.49673	0.73859
902.56816	0.74699
900.63960	0.75539
898.71104	0.76437
896.78247	0.77369
894.85391	0.78345
892.92534	0.79436
890.99678	0.80531
889.06821	0.81468
887.13965	0.82405
885.21108	0.83591
883.28252	0.84934
881.35396	0.86151
879.42539	0.87256
877.49683	0.88412
875.56826	0.89587
873.63970	0.90672
871.71113	0.91707
869.78257	0.92780
867.85400	0.93857
865.92544	0.94906
863.99687	0.95955
862.06831	0.96987
860.13975	0.98009
858.21118	0.99198
856.28262	1.00585
854.35405	1.01896
852.42549	1.03044
850.49692	1.04158
848.56836	1.05306
846.63979	1.06449
844.71123	1.07533
842.78267	1.08760
840.85410	1.10153
838.92554	1.11264
836.99697	1.11995
835.06841	1.12793
833.13984	1.13979
831.21128	1.15405
829.28271	1.16930
827.35415	1.18351
825.42559	1.19021
823.49702	1.19464
821.56846	1.20672
819.63989	1.22031
817.71133	1.23133
815.78276	1.24903
813.85420	1.26902
811.92563	1.27532
809.99707	1.27609
808.06851	1.28387
806.13994	1.28920
804.21138	1.29092
802.28281	1.30798
800.35425	1.34467
798.42568	1.37252
796.49712	1.36183
794.56855	1.34548
792.63999	1.36829
790.71143	1.40824
788.78286	1.42835
786.85430	1.44268
784.92573	1.47120
782.99717	1.49171
781.06860	1.46853
779.14004	1.47183
777.21147	1.56418
775.28291	1.67614
773.35435	1.78416
771.42578	1.76513
769.49722	1.51855
767.56865	1.39966
765.64009	1.40482
763.71152	1.49096
761.78296	1.67537
759.85439	1.82161
757.92583	1.57824
755.99727	1.39534
754.06870	1.54906
752.14014	2.13647
750.21157	1.58508
748.28301	1.26082
746.35444	1.15646
744.42588	1.18358
742.49731	1.32495
740.56875	1.43936
738.64019	1.32053
736.71162	1.10266
734.78306	0.89925
732.85449	0.71656
730.92593	0.57563
728.99736	0.56001
727.06880	0.73099
725.14023	0.96991
723.21167	1.34926
721.28311	2.06826
719.35454	0.58118
717.42598	0.28323
715.49741	0.23436
713.56885	0.28009
711.64028	0.24415
709.71172	-0.01795
707.78315	-0.16603
705.85459	-0.10362
703.92603	-0.00013
701.99746	0.14654
700.06890	0.30532
698.14033	0.35649
696.21177	0.46530
694.28320	0.70872
692.35464	0.76516
690.42607	0.49585
688.49751	0.35478
686.56895	0.33826
684.64038	0.33264
682.71182	0.27979
680.78325	0.19844
678.85469	0.15237
676.92612	0.17333
674.99756	0.24988
673.06899	0.35437
671.14043	0.39678
669.21187	0.37400
667.28330	0.35589
665.35474	0.33536
663.42617	0.29416
661.49761	0.23435
659.56904	0.16656
657.64048	0.12519
655.71191	0.15412
653.78335	0.22188
651.85479	0.33118
649.92622	0.45732
647.99766	0.59701
646.06909	0.73328
644.14053	0.65778
642.21196	0.49175
640.28340	0.36826
638.35483	0.28576
636.42627	0.24791
634.49771	0.24783
632.56914	0.24776
630.64058	0.25647
628.71201	0.29495
626.78345	0.32631
624.85488	0.35860
622.92632	0.37581
620.99775	0.26262
619.06919	0.14768
617.14062	0.12112
615.21206	0.19022
613.28350	0.33558
611.35493	0.41054
609.42637	0.35473
607.49780	0.33591
605.56924	0.47117
603.64067	0.74933
601.71211	0.75094
599.78354	0.47197
597.85498	0.27929
595.92642	0.19960
593.99785	0.19595
592.06929	0.24113
590.14072	0.29914
588.21216	0.32977
586.28359	0.34569
584.35503	0.35883
582.42646	0.33304
580.49790	0.29608
578.56934	0.29090
576.64077	0.28965
574.71221	0.33959
572.78364	0.45139
570.85508	0.33517
568.92651	0.17975
566.99795	0.17020
565.06938	0.20687
563.14082	0.17537
561.21226	0.15410
559.28369	0.20495
557.35513	0.30219
555.42656	0.31765
553.49800	0.29295
551.56943	0.30311
549.64087	0.30805
547.71230	0.27215
545.78374	0.21039
543.85518	0.16678
541.92661	0.16711
539.99805	0.19797
538.06948	0.28086
536.14092	0.47662
534.21235	0.72475
532.28379	0.51760
530.35522	0.36394
528.42666	0.33555
526.49810	0.33324
524.56953	0.33803
522.64097	0.34867
520.71240	0.33128
518.78384	0.30052
516.85527	0.27447
514.92671	0.20546
512.99814	0.13971
511.06958	0.15160
509.14102	0.21943
507.21245	0.23128
505.28389	0.18787
503.35532	0.18950
501.42676	0.21207
499.49819	0.17541
