3997.91411	0.06636
3995.98555	0.06701
3994.05698	0.06699
3992.12842	0.06683
3990.19985	0.06698
3988.27129	0.06741
3986.34272	0.06782
3984.41416	0.06807
3982.48560	0.06832
3980.55703	0.06860
3978.62847	0.06884
3976.69990	0.06928
3974.77134	0.06980
3972.84277	0.07003
3970.91421	0.06993
3968.98564	0.06979
3967.05708	0.06972
3965.12852	0.06973
3963.19995	0.06988
3961.27139	0.07005
3959.34282	0.07035
3957.41426	0.07083
3955.48569	0.07110
3953.55713	0.07121
3951.62856	0.07176
3949.70000	0.07270
3947.77144	0.07312
3945.84287	0.07248
3943.91431	0.07173
3941.98574	0.07181
3940.05718	0.07199
3938.12861	0.07176
3936.20005	0.07162
3934.27148	0.07179
3932.34292	0.07222
3930.41436	0.07254
3928.48579	0.07247
3926.55723	0.07263
3924.62866	0.07329
3922.70010	0.07332
3920.77153	0.07267
3918.84297	0.07248
3916.91440	0.07266
3914.98584	0.07239
3913.05728	0.07148
3911.12871	0.07069
3909.20015	0.07048
3907.27158	0.07105
3905.34302	0.07280
3903.41445	0.07501
3901.48589	0.07576
3899.55732	0.07505
3897.62876	0.07389
3895.70020	0.07274
3893.77163	0.07270
3891.84307	0.07393
3889.91450	0.07422
3887.98594	0.07315
3886.05737	0.07331
3884.12881	0.07454
3882.20024	0.07508
3880.27168	0.07537
3878.34312	0.07481
3876.41455	0.07357
3874.48599	0.07372
3872.55742	0.07537
3870.62886	0.07712
3868.70029	0.07780
3866.77173	0.07746
3864.84316	0.07789
3862.91460	0.07844
3860.98604	0.07738
3859.05747	0.07656
3857.12891	0.07763
3855.20034	0.08010
3853.27178	0.08302
3851.34321	0.08387
3849.41465	0.08200
3847.48608	0.08034
3845.55752	0.07994
3843.62896	0.08101
3841.70039	0.08325
3839.77183	0.08573
3837.84326	0.08756
3835.91470	0.08774
3833.98613	0.08666
3832.05757	0.08571
3830.12900	0.08539
3828.20044	0.08563
3826.27187	0.08647
3824.34331	0.08765
3822.41475	0.08953
3820.48618	0.09266
3818.55762	0.09398
3816.62905	0.09317
3814.70049	0.09268
3812.77192	0.09212
3810.84336	0.09164
3808.91479	0.09242
3806.98623	0.09507
3805.05767	0.09794
3803.12910	0.09957
3801.20054	0.10167
3799.27197	0.10333
3797.34341	0.10305
3795.41484	0.10256
3793.48628	0.10226
3791.55771	0.10229
3789.62915	0.10313
3787.70059	0.10476
3785.77202	0.10698
3783.84346	0.10916
3781.91489	0.11049
3779.98633	0.11190
3778.05776	0.11416
3776.12920	0.11566
3774.20063	0.11629
3772.27207	0.11771
3770.34351	0.12064
3768.41494	0.12391
3766.48638	0.12589
3764.55781	0.12718
3762.62925	0.12842
3760.70068	0.13064
3758.77212	0.13439
3756.84355	0.13774
3754.91499	0.13983
3752.98643	0.14271
3751.05786	0.14803
3749.12930	0.15413
3747.20073	0.15721
3745.27217	0.15945
3743.34360	0.16324
3741.41504	0.16643
3739.48647	0.16891
3737.55791	0.17307
3735.62935	0.17986
3733.70078	0.18711
3731.77222	0.19147
3729.84365	0.19447
3727.91509	0.19831
3725.98652	0.20405
3724.05796	0.21122
3722.12939	0.21819
3720.20083	0.22439
3718.27227	0.22998
3716.34370	0.23569
3714.41514	0.24250
3712.48657	0.25294
3710.55801	0.26904
3708.62944	0.28476
3706.70088	0.29598
3704.77231	0.30660
3702.84375	0.31956
3700.91519	0.33648
3698.98662	0.35482
3697.05806	0.37225
3695.12949	0.39113
3693.20093	0.41166
3691.27236	0.43422
3689.34380	0.46292
3687.41523	0.49732
3685.48667	0.52719
3683.55811	0.55332
3681.62954	0.58182
3679.70098	0.61412
3677.77241	0.64860
3675.84385	0.68988
3673.91528	0.74404
3671.98672	0.78704
3670.05815	0.82552
3668.12959	0.87895
3666.20103	0.92761
3664.27246	0.96855
3662.34390	1.01285
3660.41533	1.06055
3658.48677	1.10712
3656.55820	1.15644
3654.62964	1.21250
3652.70107	1.26097
3650.77251	1.30337
3648.84395	1.36084
3646.91538	1.43078
3644.98682	1.48181
3643.05825	1.52092
3641.12969	1.56101
3639.20112	1.60516
3637.27256	1.64990
3635.34399	1.69433
3633.41543	1.73996
3631.48687	1.78346
3629.55830	1.82754
3627.62974	1.88358
3625.70117	1.93344
3623.77261	1.96623
3621.84404	1.99868
3619.91548	2.03677
3617.98691	2.08212
3616.05835	2.12461
3614.12979	2.16116
3612.20122	2.20129
3610.27266	2.24128
3608.34409	2.28152
3606.41553	2.32497
3604.48696	2.36480
3602.55840	2.40042
3600.62983	2.43946
3598.70127	2.48101
3596.77271	2.52003
3594.84414	2.55929
3592.91558	2.59998
3590.98701	2.63790
3589.05845	2.67340
3587.12988	2.71660
3585.20132	2.76448
3583.27275	2.80522
3581.34419	2.84330
3579.41562	2.88441
3577.48706	2.92820
3575.55850	2.97191
3573.62993	3.01522
3571.70137	3.05612
3569.77280	3.09477
3567.84424	3.13752
3565.91567	3.19099
3563.98711	3.24042
3562.05854	3.28007
3560.12998	3.32251
3558.20142	3.36814
3556.27285	3.41206
3554.34429	3.45393
3552.41572	3.49752
3550.48716	3.54263
3548.55859	3.58762
3546.63003	3.63276
3544.70146	3.67947
3542.77290	3.72787
3540.84434	3.77501
3538.91577	3.82026
3536.98721	3.86643
3535.05864	3.91512
3533.13008	3.96260
3531.20151	4.00820
3529.27295	4.05344
3527.34438	4.10174
3525.41582	4.15452
3523.48726	4.20901
3521.55869	4.25972
3519.63013	4.30395
3517.70156	4.35059
3515.77300	4.39946
3513.84443	4.44426
3511.91587	4.48817
3509.98730	4.53661
3508.05874	4.58784
3506.13018	4.63511
3504.20161	4.67806
3502.27305	4.72297
3500.34448	4.77269
3498.41592	4.82205
3496.48735	4.87056
3494.55879	4.92163
3492.63022	4.97159
3490.70166	5.01848
3488.77310	5.06782
3486.84453	5.11983
3484.91597	5.16985
3482.98740	5.21811
3481.05884	5.26775
3479.13027	5.32162
3477.20171	5.37762
3475.27314	5.42292
3473.34458	5.45731
3471.41602	5.49856
3469.48745	5.54618
3467.55889	5.59201
3465.63032	5.63887
3463.70176	5.68730
3461.77319	5.73750
3459.84463	5.78637
3457.91606	5.82436
3455.98750	5.86630
3454.05894	5.93004
3452.13037	5.99658
3450.20181	6.04082
3448.27324	6.07636
3446.34468	6.13443
3444.41611	6.20416
3442.48755	6.26465
3440.55898	6.31281
3438.63042	6.35061
3436.70186	6.38925
3434.77329	6.43303
3432.84473	6.47877
3430.91616	6.52543
3428.98760	6.58333
3427.05903	6.65218
3425.13047	6.71629
3423.20190	6.75888
3421.27334	6.79150
3419.34478	6.83624
3417.41621	6.88489
3415.48765	6.92020
3413.55908	6.94785
3411.63052	6.99166
3409.70195	7.05465
3407.77339	7.11775
3405.84482	7.16717
3403.91626	7.21619
3401.98770	7.23969
3400.05913	7.24230
3398.13057	7.27891
3396.20200	7.32954
3394.27344	7.37929
3392.34487	7.44522
3390.41631	7.51483
3388.48774	7.56188
3386.55918	7.58037
3384.63062	7.55548
3382.70205	7.52490
3380.77349	7.55661
3378.84492	7.63224
3376.91636	7.70707
3374.98779	7.78713
3373.05923	7.85311
3371.13066	7.83554
3369.20210	7.81189
3367.27354	7.85920
3365.34497	7.93925
3363.41641	8.00544
3361.48784	8.00319
3359.55928	7.93003
3357.63071	7.87479
3355.70215	7.88712
3353.77358	7.91524
3351.84502	7.94466
3349.91646	7.96111
3347.98789	7.96473
3346.05933	7.96271
3344.13076	7.93052
3342.20220	7.92975
3340.27363	7.99763
3338.34507	8.05172
3336.41650	8.02522
3334.48794	8.00745
3332.55937	8.04746
3330.63081	8.05622
3328.70225	7.95649
3326.77368	7.89780
3324.84512	8.02460
3322.91655	8.18390
3320.98799	8.22728
3319.05942	8.25786
3317.13086	8.29657
3315.20229	8.22446
3313.27373	8.09887
3311.34517	8.04985
3309.41660	8.09595
3307.48804	8.18428
3305.55947	8.22082
3303.63091	8.19538
3301.70234	8.16707
3299.77378	8.13041
3297.84521	8.07437
3295.91665	8.06906
3293.98809	8.09416
3292.05952	8.13377
3290.13096	8.24456
3288.20239	8.32378
3286.27383	8.24293
3284.34526	8.10212
3282.41670	8.02527
3280.48813	7.99309
3278.55957	7.98101
3276.63101	8.01593
3274.70244	8.14010
3272.77388	8.26246
3270.84531	8.25051
3268.91675	8.18707
3266.98818	8.11952
3265.05962	8.05057
3263.13105	7.99968
3261.20249	8.01356
3259.27393	8.14350
3257.34536	8.31320
3255.41680	8.37404
3253.48823	8.30782
3251.55967	8.22709
3249.63110	8.21682
3247.70254	8.21288
3245.77397	8.16311
3243.84541	8.16010
3241.91685	8.15607
3239.98828	8.08854
3238.05972	8.07573
3236.13115	8.18679
3234.20259	8.32150
3232.27402	8.32986
3230.34546	8.27243
3228.41689	8.21509
3226.48833	8.12901
3224.55977	8.06965
3222.63120	8.05962
3220.70264	8.04723
3218.77407	8.04721
3216.84551	8.08958
3214.91694	8.11201
3212.98838	8.04950
3211.05981	7.97254
3209.13125	7.93627
3207.20269	7.86580
3205.27412	7.77328
3203.34556	7.76582
3201.41699	7.81311
3199.48843	7.79585
3197.55986	7.70422
3195.63130	7.60406
3193.70273	7.54285
3191.77417	7.49947
3189.84561	7.43250
3187.91704	7.36633
3185.98848	7.34155
3184.05991	7.35107
3182.13135	7.32428
3180.20278	7.23908
3178.27422	7.14945
3176.34565	7.08477
3174.41709	7.05395
3172.48853	7.03910
3170.55996	7.00073
3168.63140	6.92963
3166.70283	6.83617
3164.77427	6.73400
3162.84570	6.65609
3160.91714	6.61010
3158.98857	6.55018
3157.06001	6.46474
3155.13145	6.39672
3153.20288	6.34460
3151.27432	6.27896
3149.34575	6.20914
3147.41719	6.15849
3145.48862	6.11459
3143.56006	6.05031
3141.63149	5.97825
3139.70293	5.91373
3137.77437	5.84978
3135.84580	5.78424
3133.91724	5.71229
3131.98867	5.62601
3130.06011	5.53758
3128.13154	5.46221
3126.20298	5.39347
3124.27441	5.32715
3122.34585	5.26662
3120.41729	5.20082
3118.48872	5.12250
3116.56016	5.04800
3114.63159	4.98182
3112.70303	4.91057
3110.77446	4.83568
3108.84590	4.76365
3106.91733	4.69302
3104.98877	4.62288
3103.06021	4.55440
3101.13164	4.48810
3099.20308	4.42340
3097.27451	4.35956
3095.34595	4.29695
3093.41738	4.23530
3091.48882	4.17193
3089.56025	4.10567
3087.63169	4.03986
3085.70312	3.97765
3083.77456	3.91752
3081.84600	3.85678
3079.91743	3.79526
3077.98887	3.73442
3076.06030	3.67395
3074.13174	3.61419
3072.20317	3.55709
3070.27461	3.50001
3068.34604	3.44044
3066.41748	3.38180
3064.48892	3.32667
3062.56035	3.27270
3060.63179	3.21864
3058.70322	3.16523
3056.77466	3.11227
3054.84609	3.06033
3052.91753	3.00947
3050.98896	2.95910
3049.06040	2.90962
3047.13184	2.86082
3045.20327	2.81239
3043.27471	2.76453
3041.34614	2.71729
3039.41758	2.67097
3037.48901	2.62526
3035.56045	2.57981
3033.63188	2.53559
3031.70332	2.49220
3029.77476	2.44835
3027.84619	2.40494
3025.91763	2.36280
3023.98906	2.32180
3022.06050	2.28165
3020.13193	2.24163
3018.20337	2.20181
3016.27480	2.16301
3014.34624	2.12504
3012.41768	2.08682
3010.48911	2.04845
3008.56055	2.01115
3006.63198	1.97522
3004.70342	1.93999
3002.77485	1.90549
3000.84629	1.87210
2998.91772	1.83925
2996.98916	1.80656
2995.06060	1.77421
2993.13203	1.74201
2991.20347	1.71021
2989.27490	1.67943
2987.34634	1.64953
2985.41777	1.61982
2983.48921	1.59024
2981.56064	1.56115
2979.63208	1.53241
2977.70352	1.50384
2975.77495	1.47585
2973.84639	1.44855
2971.91782	1.42150
2969.98926	1.39453
2968.06069	1.36770
2966.13213	1.34118
2964.20356	1.31518
2962.27500	1.29001
2960.34644	1.26579
2958.41787	1.24189
2956.48931	1.21826
2954.56074	1.19581
2952.63218	1.17429
2950.70361	1.15287
2948.77505	1.13175
2946.84648	1.11118
2944.91792	1.09033
2942.98936	1.06864
2941.06079	1.04706
2939.13223	1.02614
2937.20366	1.00526
2935.27510	0.98404
2933.34653	0.96289
2931.41797	0.94223
2929.48940	0.92192
2927.56084	0.90209
2925.63228	0.88338
2923.70371	0.86631
2921.77515	0.85090
2919.84658	0.83708
2917.91802	0.82473
2915.98945	0.81275
2914.06089	0.80009
2912.13232	0.78722
2910.20376	0.77484
2908.27520	0.76283
2906.34663	0.75093
2904.41807	0.73902
2902.48950	0.72703
2900.56094	0.71504
2898.63237	0.70331
2896.70381	0.69195
2894.77524	0.68103
2892.84668	0.67027
2890.91812	0.65943
2888.98955	0.64867
2887.06099	0.63801
2885.13242	0.62737
2883.20386	0.61689
2881.27529	0.60660
2879.34673	0.59634
2877.41816	0.58620
2875.48960	0.57619
2873.56104	0.56598
2871.63247	0.55576
2869.70391	0.54593
2867.77534	0.53624
2865.84678	0.52619
2863.91821	0.51587
2861.98965	0.50551
2860.06108	0.49489
2858.13252	0.48421
2856.20396	0.47400
2854.27539	0.46464
2852.34683	0.45645
2850.41826	0.44956
2848.48970	0.44374
2846.56113	0.43858
2844.63257	0.43374
2842.70400	0.42892
2840.77544	0.42415
2838.84687	0.41961
2836.91831	0.41511
2834.98975	0.41013
2833.06118	0.40455
2831.13262	0.39886
2829.20405	0.39340
2827.27549	0.38796
2825.34692	0.38249
2823.41836	0.37710
2821.48979	0.37168
2819.56123	0.36611
2817.63267	0.36055
2815.70410	0.35514
2813.77554	0.34990
2811.84697	0.34481
2809.91841	0.33983
2807.98984	0.33485
2806.06128	0.32993
2804.13271	0.32529
2802.20415	0.32089
2800.27559	0.31642
2798.34702	0.31175
2796.41846	0.30708
2794.48989	0.30269
2792.56133	0.29852
2790.63276	0.29439
2788.70420	0.29040
2786.77563	0.28663
2784.84707	0.28288
2782.91851	0.27898
2780.98994	0.27497
2779.06138	0.27116
2777.13281	0.26767
2775.20425	0.26434
2773.27568	0.26097
2771.34712	0.25744
2769.41855	0.25391
2767.48999	0.25057
2765.56143	0.24744
2763.63286	0.24439
2761.70430	0.24135
2759.77573	0.23844
2757.84717	0.23569
2755.91860	0.23300
2753.99004	0.23015
2752.06147	0.22714
2750.13291	0.22426
2748.20435	0.22156
2746.27578	0.21888
2744.34722	0.21635
2742.41865	0.21414
2740.49009	0.21202
2738.56152	0.20978
2736.63296	0.20736
2734.70439	0.20493
2732.77583	0.20266
2730.84727	0.20060
2728.91870	0.19863
2726.99014	0.19662
2725.06157	0.19461
2723.13301	0.19271
2721.20444	0.19085
2719.27588	0.18899
2717.34731	0.18714
2715.41875	0.18532
2713.49019	0.18363
2711.56162	0.18209
2709.63306	0.18043
2707.70449	0.17865
2705.77593	0.17707
2703.84736	0.17566
2701.91880	0.17415
2699.99023	0.17258
2698.06167	0.17109
2696.13311	0.16975
2694.20454	0.16849
2692.27598	0.16723
2690.34741	0.16602
2688.41885	0.16488
2686.49028	0.16362
2684.56172	0.16215
2682.63315	0.16085
2680.70459	0.15999
2678.77603	0.15927
2676.84746	0.15837
2674.91890	0.15733
2672.99033	0.15623
2671.06177	0.15507
2669.13320	0.15392
2667.20464	0.15282
2665.27607	0.15183
2663.34751	0.15104
2661.41895	0.15037
2659.49038	0.14967
2657.56182	0.14899
2655.63325	0.14829
2653.70469	0.14754
2651.77612	0.14693
2649.84756	0.14643
2647.91899	0.14587
2645.99043	0.14536
2644.06187	0.14489
2642.13330	0.14435
2640.20474	0.14386
2638.27617	0.14349
2636.34761	0.14315
2634.41904	0.14271
2632.49048	0.14213
2630.56191	0.14171
2628.63335	0.14149
2626.70479	0.14120
2624.77622	0.14084
2622.84766	0.14058
2620.91909	0.14050
2618.99053	0.14039
2617.06196	0.14016
2615.13340	0.14000
2613.20483	0.13988
2611.27627	0.13976
2609.34771	0.13976
2607.41914	0.13988
2605.49058	0.13994
2603.56201	0.13983
2601.63345	0.13973
2599.70488	0.13975
2597.77632	0.13976
2595.84775	0.13983
2593.91919	0.14012
2591.99062	0.14039
2590.06206	0.14049
2588.13350	0.14066
2586.20493	0.14104
2584.27637	0.14140
2582.34780	0.14159
2580.41924	0.14172
2578.49067	0.14196
2576.56211	0.14236
2574.63354	0.14279
2572.70498	0.14316
2570.77642	0.14350
2568.84785	0.14388
2566.91929	0.14432
2564.99072	0.14483
2563.06216	0.14527
2561.13359	0.14560
2559.20503	0.14600
2557.27646	0.14650
2555.34790	0.14702
2553.41934	0.14760
2551.49077	0.14823
2549.56221	0.14883
2547.63364	0.14942
2545.70508	0.15008
2543.77651	0.15073
2541.84795	0.15130
2539.91938	0.15180
2537.99082	0.15236
2536.06226	0.15308
2534.13369	0.15391
2532.20513	0.15462
2530.27656	0.15514
2528.34800	0.15574
2526.41943	0.15658
2524.49087	0.15743
2522.56230	0.15812
2520.63374	0.15888
2518.70518	0.15980
2516.77661	0.16061
2514.84805	0.16127
2512.91948	0.16200
2510.99092	0.16282
2509.06235	0.16374
2507.13379	0.16466
2505.20522	0.16544
2503.27666	0.16613
2501.34810	0.16688
2499.41953	0.16773
2497.49097	0.16858
2495.56240	0.16938
2493.63384	0.17021
2491.70527	0.17115
2489.77671	0.17215
2487.84814	0.17310
2485.91958	0.17402
2483.99102	0.17498
2482.06245	0.17590
2480.13389	0.17669
2478.20532	0.17745
2476.27676	0.17826
2474.34819	0.17907
2472.41963	0.17999
2470.49106	0.18113
2468.56250	0.18232
2466.63394	0.18331
2464.70537	0.18417
2462.77681	0.18507
2460.84824	0.18604
2458.91968	0.18697
2456.99111	0.18786
2455.06255	0.18881
2453.13398	0.18985
2451.20542	0.19088
2449.27686	0.19188
2447.34829	0.19282
2445.41973	0.19371
2443.49116	0.19466
2441.56260	0.19565
2439.63403	0.19663
2437.70547	0.19772
2435.77690	0.19890
2433.84834	0.20007
2431.91978	0.20120
2429.99121	0.20222
2428.06265	0.20318
2426.13408	0.20424
2424.20552	0.20529
2422.27695	0.20619
2420.34839	0.20709
2418.41982	0.20828
2416.49126	0.20962
2414.56270	0.21085
2412.63413	0.21201
2410.70557	0.21325
2408.77700	0.21446
2406.84844	0.21556
2404.91987	0.21670
2402.99131	0.21791
2401.06274	0.21910
2399.13418	0.22024
2397.20562	0.22143
2395.27705	0.22259
2393.34849	0.22379
2391.41992	0.22520
2389.49136	0.22674
2387.56279	0.22858
2385.63423	0.23108
2383.70566	0.23456
2381.77710	0.23916
2379.84854	0.24475
2377.91997	0.25108
2375.99141	0.25826
2374.06284	0.26659
2372.13428	0.27594
2370.20571	0.28566
2368.27715	0.29480
2366.34858	0.30318
2364.42002	0.31092
2362.49146	0.31715
2360.56289	0.32117
2358.63433	0.32287
2356.70576	0.32157
2354.77720	0.31719
2352.84863	0.31043
2350.92007	0.30253
2348.99150	0.29736
2347.06294	0.29786
2345.13437	0.30443
2343.20581	0.31340
2341.27725	0.31893
2339.34868	0.32062
2337.42012	0.32070
2335.49155	0.32033
2333.56299	0.31996
2331.63442	0.32026
2329.70586	0.32074
2327.77729	0.32033
2325.84873	0.31881
2323.92017	0.31687
2321.99160	0.31539
2320.06304	0.31419
2318.13447	0.31262
2316.20591	0.31090
2314.27734	0.30978
2312.34878	0.30937
2310.42021	0.30922
2308.49165	0.30880
2306.56309	0.30807
2304.63452	0.30749
2302.70596	0.30748
2300.77739	0.30797
2298.84883	0.30870
2296.92026	0.30952
2294.99170	0.31040
2293.06313	0.31130
2291.13457	0.31211
2289.20601	0.31282
2287.27744	0.31360
2285.34888	0.31458
2283.42031	0.31589
2281.49175	0.31771
2279.56318	0.32001
2277.63462	0.32246
2275.70605	0.32482
2273.77749	0.32702
2271.84893	0.32908
2269.92036	0.33104
2267.99180	0.33293
2266.06323	0.33471
2264.13467	0.33653
2262.20610	0.33854
2260.27754	0.34058
2258.34897	0.34246
2256.42041	0.34434
2254.49185	0.34632
2252.56328	0.34827
2250.63472	0.35021
2248.70615	0.35232
2246.77759	0.35455
2244.84902	0.35664
2242.92046	0.35864
2240.99189	0.36071
2239.06333	0.36272
2237.13477	0.36468
2235.20620	0.36673
2233.27764	0.36891
2231.34907	0.37124
2229.42051	0.37358
2227.49194	0.37582
2225.56338	0.37799
2223.63481	0.38009
2221.70625	0.38220
2219.77769	0.38434
2217.84912	0.38651
2215.92056	0.38879
2213.99199	0.39112
2212.06343	0.39334
2210.13486	0.39543
2208.20630	0.39746
2206.27773	0.39947
2204.34917	0.40150
2202.42061	0.40359
2200.49204	0.40563
2198.56348	0.40760
2196.63491	0.40950
2194.70635	0.41141
2192.77778	0.41333
2190.84922	0.41524
2188.92065	0.41725
2186.99209	0.41939
2185.06353	0.42133
2183.13496	0.42297
2181.20640	0.42449
2179.27783	0.42597
2177.34927	0.42750
2175.42070	0.42914
2173.49214	0.43083
2171.56357	0.43238
2169.63501	0.43374
2167.70645	0.43502
2165.77788	0.43639
2163.84932	0.43776
2161.92075	0.43899
2159.99219	0.44009
2158.06362	0.44101
2156.13506	0.44180
2154.20649	0.44267
2152.27793	0.44363
2150.34937	0.44449
2148.42080	0.44528
2146.49224	0.44602
2144.56367	0.44655
2142.63511	0.44703
2140.70654	0.44760
2138.77798	0.44812
2136.84941	0.44842
2134.92085	0.44853
2132.99229	0.44853
2131.06372	0.44853
2129.13516	0.44848
2127.20659	0.44838
2125.27803	0.44827
2123.34946	0.44804
2121.42090	0.44770
2119.49233	0.44727
2117.56377	0.44679
2115.63521	0.44617
2113.70664	0.44541
2111.77808	0.44461
2109.84951	0.44377
2107.92095	0.44279
2105.99238	0.44177
2104.06382	0.44082
2102.13525	0.43976
2100.20669	0.43854
2098.27812	0.43719
2096.34956	0.43578
2094.42100	0.43439
2092.49243	0.43302
2090.56387	0.43155
2088.63530	0.42993
2086.70674	0.42819
2084.77817	0.42639
2082.84961	0.42458
2080.92104	0.42280
2078.99248	0.42101
2077.06392	0.41913
2075.13535	0.41710
2073.20679	0.41502
2071.27822	0.41293
2069.34966	0.41083
2067.42109	0.40869
2065.49253	0.40659
2063.56396	0.40445
2061.63540	0.40214
2059.70684	0.39973
2057.77827	0.39723
2055.84971	0.39462
2053.92114	0.39208
2051.99258	0.38966
2050.06401	0.38716
2048.13545	0.38465
2046.20688	0.38225
2044.27832	0.37992
2042.34976	0.37756
2040.42119	0.37497
2038.49263	0.37213
2036.56406	0.36932
2034.63550	0.36669
2032.70693	0.36405
2030.77837	0.36132
2028.84980	0.35856
2026.92124	0.35582
2024.99268	0.35302
2023.06411	0.35023
2021.13555	0.34758
2019.20698	0.34511
2017.27842	0.34269
2015.34985	0.34001
2013.42129	0.33717
2011.49272	0.33440
2009.56416	0.33171
2007.63560	0.32900
2005.70703	0.32631
2003.77847	0.32365
2001.84990	0.32107
1999.92134	0.31854
1997.99277	0.31597
1996.06421	0.31339
1994.13564	0.31101
1992.20708	0.30875
1990.27852	0.30629
1988.34995	0.30362
1986.42139	0.30096
1984.49282	0.29848
1982.56426	0.29615
1980.63569	0.29382
1978.70713	0.29152
1976.77856	0.28924
1974.85000	0.28692
1972.92144	0.28468
1970.99287	0.28265
1969.06431	0.28077
1967.13574	0.27894
1965.20718	0.27691
1963.27861	0.27481
1961.35005	0.27283
1959.42148	0.27081
1957.49292	0.26883
1955.56436	0.26706
1953.63579	0.26540
1951.70723	0.26369
1949.77866	0.26198
1947.85010	0.26038
1945.92153	0.25898
1943.99297	0.25775
1942.06440	0.25639
1940.13584	0.25462
1938.20728	0.25279
1936.27871	0.25129
1934.35015	0.25005
1932.42158	0.24891
1930.49302	0.24772
1928.56445	0.24650
1926.63589	0.24534
1924.70732	0.24443
1922.77876	0.24364
1920.85020	0.24269
1918.92163	0.24177
1916.99307	0.24087
1915.06450	0.23974
1913.13594	0.23864
1911.20737	0.23793
1909.27881	0.23742
1907.35024	0.23673
1905.42168	0.23584
1903.49312	0.23501
1901.56455	0.23432
1899.63599	0.23376
1897.70742	0.23335
1895.77886	0.23306
1893.85029	0.23277
1891.92173	0.23254
1889.99316	0.23257
1888.06460	0.23235
1886.13604	0.23177
1884.20747	0.23129
1882.27891	0.23099
1880.35034	0.23080
1878.42178	0.23065
1876.49321	0.23055
1874.56465	0.23052
1872.63608	0.23074
1870.70752	0.23139
1868.77896	0.23241
1866.85039	0.23271
1864.92183	0.23215
1862.99326	0.23177
1861.06470	0.23183
1859.13613	0.23212
1857.20757	0.23239
1855.27900	0.23270
1853.35044	0.23305
1851.42187	0.23361
1849.49331	0.23443
1847.56475	0.23540
1845.63618	0.23654
1843.70762	0.23764
1841.77905	0.23811
1839.85049	0.23820
1837.92192	0.23875
1835.99336	0.23962
1834.06479	0.24054
1832.13623	0.24171
1830.20767	0.24354
1828.27910	0.24518
1826.35054	0.24608
1824.42197	0.24714
1822.49341	0.24810
1820.56484	0.24896
1818.63628	0.25018
1816.70771	0.25182
1814.77915	0.25354
1812.85059	0.25545
1810.92202	0.25769
1808.99346	0.25980
1807.06489	0.26159
1805.13633	0.26334
1803.20776	0.26561
1801.27920	0.26836
1799.35063	0.27129
1797.42207	0.27381
1795.49351	0.27620
1793.56494	0.27914
1791.63638	0.28296
1789.70781	0.28615
1787.77925	0.28824
1785.85068	0.29107
1783.92212	0.29472
1781.99355	0.29869
1780.06499	0.30291
1778.13643	0.30718
1776.20786	0.31133
1774.27930	0.31602
1772.35073	0.32223
1770.42217	0.32840
1768.49360	0.33312
1766.56504	0.33766
1764.63647	0.34267
1762.70791	0.34857
1760.77935	0.35599
1758.85078	0.36269
1756.92222	0.36922
1754.99365	0.37627
1753.06509	0.38292
1751.13652	0.39137
1749.20796	0.40208
1747.27939	0.41207
1745.35083	0.42048
1743.42227	0.42962
1741.49370	0.44010
1739.56514	0.45261
1737.63657	0.46512
1735.70801	0.47627
1733.77944	0.49338
1731.85088	0.51343
1729.92231	0.52860
1727.99375	0.54374
1726.06519	0.56015
1724.13662	0.57846
1722.20806	0.59852
1720.27949	0.61719
1718.35093	0.63932
1716.42236	0.67195
1714.49380	0.70217
1712.56523	0.72591
1710.63667	0.74902
1708.70811	0.77440
1706.77954	0.80368
1704.85098	0.83865
1702.92241	0.86970
1700.99385	0.90019
1699.06528	0.94536
1697.13672	0.98670
1695.20815	1.02842
1693.27959	1.06839
1691.35103	1.10052
1689.42246	1.13799
1687.49390	1.17756
1685.56533	1.21565
1683.63677	1.27414
1681.70820	1.33423
1679.77964	1.37239
1677.85107	1.40907
1675.92251	1.45138
1673.99395	1.50336
1672.06538	1.54958
1670.13682	1.59510
1668.20825	1.65289
1666.27969	1.69778
1664.35112	1.73542
1662.42256	1.78319
1660.49399	1.83603
1658.56543	1.87675
1656.63687	1.91115
1654.70830	1.94551
1652.77974	2.00234
1650.85117	2.05595
1648.92261	2.07708
1646.99404	2.10655
1645.06548	2.14104
1643.13691	2.16416
1641.20835	2.17904
1639.27979	2.19209
1637.35122	2.20101
1635.42266	2.20514
1633.49409	2.20240
1631.56553	2.19180
1629.63696	2.17807
1627.70840	2.15438
1625.77983	2.12538
1623.85127	2.08899
1621.92271	2.04426
1619.99414	2.00349
1618.06558	1.96289
1616.13701	1.90358
1614.20845	1.84182
1612.27988	1.79498
1610.35132	1.74623
1608.42275	1.69264
1606.49419	1.63937
1604.56562	1.59035
1602.63706	1.54244
1600.70850	1.49465
1598.77993	1.45073
1596.85137	1.40997
1594.92280	1.37025
1592.99424	1.33097
1591.06567	1.29408
1589.13711	1.25898
1587.20854	1.22593
1585.27998	1.19505
1583.35142	1.16592
1581.42285	1.13929
1579.49429	1.11640
1577.56572	1.09529
1575.63716	1.06862
1573.70859	1.04439
1571.78003	1.02841
1569.85146	1.01141
1567.92290	0.99155
1565.99434	0.97540
1564.06577	0.96165
1562.13721	0.95026
1560.20864	0.94102
1558.28008	0.92504
1556.35151	0.90954
1554.42295	0.89993
1552.49438	0.89060
1550.56582	0.88136
1548.63726	0.87170
1546.70869	0.86302
1544.78013	0.85525
1542.85156	0.84713
1540.92300	0.83702
1538.99443	0.82214
1537.06587	0.81078
1535.13730	0.80340
1533.20874	0.79432
1531.28018	0.78409
1529.35161	0.77669
1527.42305	0.77060
1525.49448	0.76429
1523.56592	0.75811
1521.63735	0.75171
1519.70879	0.74475
1517.78022	0.73863
1515.85166	0.73204
1513.92310	0.72534
1511.99453	0.72000
1510.06597	0.71603
1508.13740	0.71321
1506.20884	0.70719
1504.28027	0.69932
1502.35171	0.69458
1500.42314	0.69120
1498.49458	0.68804
1496.56602	0.68404
1494.63745	0.67965
1492.70889	0.67652
1490.78032	0.67449
1488.85176	0.67194
1486.92319	0.66827
1484.99463	0.66469
1483.06606	0.66191
1481.13750	0.65970
1479.20894	0.65768
1477.28037	0.65608
1475.35181	0.65501
1473.42324	0.65375
1471.49468	0.65065
1469.56611	0.64664
1467.63755	0.64347
1465.70898	0.64114
1463.78042	0.63920
1461.85186	0.63763
1459.92329	0.63679
1457.99473	0.63621
1456.06616	0.63385
1454.13760	0.63022
1452.20903	0.62741
1450.28047	0.62521
1448.35190	0.62326
1446.42334	0.62119
1444.49478	0.61907
1442.56621	0.61716
1440.63765	0.61549
1438.70908	0.61426
1436.78052	0.61319
1434.85195	0.61146
1432.92339	0.60945
1430.99482	0.60774
1429.06626	0.60602
1427.13770	0.60437
1425.20913	0.60322
1423.28057	0.60226
1421.35200	0.60117
1419.42344	0.60017
1417.49487	0.59868
1415.56631	0.59645
1413.63774	0.59456
1411.70918	0.59333
1409.78062	0.59224
1407.85205	0.59104
1405.92349	0.59010
1403.99492	0.58919
1402.06636	0.58799
1400.13779	0.58694
1398.20923	0.58601
1396.28066	0.58482
1394.35210	0.58312
1392.42354	0.58103
1390.49497	0.57923
1388.56641	0.57790
1386.63784	0.57639
1384.70928	0.57448
1382.78071	0.57266
1380.85215	0.57115
1378.92358	0.56998
1376.99502	0.56914
1375.06646	0.56874
1373.13789	0.56834
1371.20933	0.56735
1369.28076	0.56626
1367.35220	0.56535
1365.42363	0.56449
1363.49507	0.56378
1361.56650	0.56301
1359.63794	0.56183
1357.70937	0.56058
1355.78081	0.55948
1353.85225	0.55852
1351.92368	0.55769
1349.99512	0.55687
1348.06655	0.55598
1346.13799	0.55504
1344.20942	0.55402
1342.28086	0.55312
1340.35229	0.55260
1338.42373	0.55200
1336.49517	0.55084
1334.56660	0.54957
1332.63804	0.54862
1330.70947	0.54785
1328.78091	0.54715
1326.85234	0.54656
1324.92378	0.54604
1322.99521	0.54552
1321.06665	0.54501
1319.13809	0.54452
1317.20952	0.54383
1315.28096	0.54295
1313.35239	0.54214
1311.42383	0.54134
1309.49526	0.54052
1307.56670	0.53977
1305.63813	0.53900
1303.70957	0.53816
1301.78101	0.53733
1299.85244	0.53656
1297.92388	0.53582
1295.99531	0.53509
1294.06675	0.53431
1292.13818	0.53346
1290.20962	0.53267
1288.28105	0.53209
1286.35249	0.53173
1284.42393	0.53132
1282.49536	0.53065
1280.56680	0.52984
1278.63823	0.52919
1276.70967	0.52873
1274.78110	0.52833
1272.85254	0.52787
1270.92397	0.52726
1268.99541	0.52662
1267.06685	0.52610
1265.13828	0.52576
1263.20972	0.52555
1261.28115	0.52536
1259.35259	0.52515
1257.42402	0.52483
1255.49546	0.52445
1253.56689	0.52418
1251.63833	0.52400
1249.70977	0.52389
1247.78120	0.52374
1245.85264	0.52347
1243.92407	0.52307
1241.99551	0.52266
1240.06694	0.52226
1238.13838	0.52177
1236.20981	0.52107
1234.28125	0.52021
1232.35269	0.51927
1230.42412	0.51836
1228.49556	0.51756
1226.56699	0.51684
1224.63843	0.51606
1222.70986	0.51514
1220.78130	0.51427
1218.85273	0.51358
1216.92417	0.51297
1214.99561	0.51242
1213.06704	0.51188
1211.13848	0.51129
1209.20991	0.51061
1207.28135	0.50994
1205.35278	0.50936
1203.42422	0.50891
1201.49565	0.50845
1199.56709	0.50790
1197.63853	0.50730
1195.70996	0.50669
1193.78140	0.50611
1191.85283	0.50550
1189.92427	0.50491
1187.99570	0.50453
1186.06714	0.50440
1184.13857	0.50440
1182.21001	0.50442
1180.28145	0.50461
1178.35288	0.50511
1176.42432	0.50581
1174.49575	0.50662
1172.56719	0.50747
1170.63862	0.50831
1168.71006	0.50914
1166.78149	0.50991
1164.85293	0.51064
1162.92437	0.51138
1160.99580	0.51199
1159.06724	0.51231
1157.13867	0.51228
1155.21011	0.51179
1153.28154	0.51074
1151.35298	0.50928
1149.42441	0.50739
1147.49585	0.50504
1145.56729	0.50238
1143.63872	0.49960
1141.71016	0.49709
1139.78159	0.49508
1137.85303	0.49341
1135.92446	0.49189
1133.99590	0.49049
1132.06733	0.48930
1130.13877	0.48824
1128.21021	0.48712
1126.28164	0.48603
1124.35308	0.48534
1122.42451	0.48514
1120.49595	0.48509
1118.56738	0.48504
1116.63882	0.48528
1114.71025	0.48592
1112.78169	0.48677
1110.85312	0.48762
1108.92456	0.48838
1106.99600	0.48923
1105.06743	0.49038
1103.13887	0.49168
1101.21030	0.49308
1099.28174	0.49462
1097.35317	0.49645
1095.42461	0.49887
1093.49604	0.50230
1091.56748	0.50704
1089.63892	0.51317
1087.71035	0.52062
1085.78179	0.52893
1083.85322	0.53730
1081.92466	0.54497
1079.99609	0.55114
1078.06753	0.55469
1076.13896	0.55481
1074.21040	0.55173
1072.28184	0.54634
1070.35327	0.53978
1068.42471	0.53294
1066.49614	0.52643
1064.56758	0.52062
1062.63901	0.51537
1060.71045	0.51057
1058.78188	0.50632
1056.85332	0.50254
1054.92476	0.49927
1052.99619	0.49657
1051.06763	0.49437
1049.13906	0.49276
1047.21050	0.49193
1045.28193	0.49178
1043.35337	0.49190
1041.42480	0.49202
1039.49624	0.49212
1037.56768	0.49220
1035.63911	0.49214
1033.71055	0.49187
1031.78198	0.49132
1029.85342	0.49034
1027.92485	0.48910
1025.99629	0.48803
1024.06772	0.48724
1022.13916	0.48659
1020.21060	0.48624
1018.28203	0.48618
1016.35347	0.48624
1014.42490	0.48637
1012.49634	0.48662
1010.56777	0.48709
1008.63921	0.48782
1006.71064	0.48882
1004.78208	0.49017
1002.85352	0.49190
1000.92495	0.49418
998.99639	0.49736
997.06782	0.50135
995.13926	0.50545
993.21069	0.50927
991.28213	0.51248
989.35356	0.51446
987.42500	0.51516
985.49644	0.51529
983.56787	0.51537
981.63931	0.51576
979.71074	0.51686
977.78218	0.51845
975.85361	0.52033
973.92505	0.52271
971.99648	0.52556
970.06792	0.52893
968.13936	0.53292
966.21079	0.53720
964.28223	0.54142
962.35366	0.54549
960.42510	0.54984
958.49653	0.55513
956.56797	0.56099
954.63940	0.56670
952.71084	0.57251
950.78228	0.57874
948.85371	0.58516
946.92515	0.59145
944.99658	0.59740
943.06802	0.60309
941.13945	0.60912
939.21089	0.61530
937.28232	0.62087
935.35376	0.62591
933.42520	0.63104
931.49663	0.63644
929.56807	0.64219
927.63950	0.64837
925.71094	0.65430
923.78237	0.65971
921.85381	0.66523
919.92524	0.67155
917.99668	0.67898
916.06812	0.68690
914.13955	0.69483
912.21099	0.70254
910.28242	0.70936
908.35386	0.71620
906.42529	0.72451
904.49673	0.73402
902.56816	0.74386
900.63960	0.75314
898.71104	0.76123
896.78247	0.76925
894.85391	0.77858
892.92534	0.78910
890.99678	0.80014
889.06821	0.81092
887.13965	0.82053
885.21108	0.82941
883.28252	0.83914
881.35396	0.85069
879.42539	0.86409
877.49683	0.87710
875.56826	0.88830
873.63970	0.89929
871.71113	0.91024
869.78257	0.92007
867.85400	0.92996
865.92544	0.94139
863.99687	0.95331
862.06831	0.96404
860.13975	0.97411
858.21118	0.98547
856.28262	0.99791
854.35405	1.00958
852.42549	1.01979
850.49692	1.02992
848.56836	1.04205
846.63979	1.05513
844.71123	1.06742
842.78267	1.07905
840.85410	1.09037
838.92554	1.10241
836.99697	1.11546
835.06841	1.12664
833.13984	1.13436
831.21128	1.14172
829.28271	1.14956
827.35415	1.15645
825.42559	1.16469
823.49702	1.17580
821.56846	1.18649
819.63989	1.19696
817.71133	1.21253
815.78276	1.22922
813.85420	1.23963
811.92563	1.24939
809.99707	1.25776
808.06851	1.25712
806.13994	1.25737
804.21138	1.26975
802.28281	1.28829
800.35425	1.30292
798.42568	1.31856
796.49712	1.33962
794.56855	1.37102
792.63999	1.41241
790.71143	1.43680
788.78286	1.42673
786.85430	1.38264
784.92573	1.36366
782.99717	1.41619
781.06860	1.46033
779.14004	1.39218
777.21147	1.30514
775.28291	1.28914
773.35435	1.34559
771.42578	1.43238
769.49722	1.45778
767.56865	1.39780
765.64009	1.34988
763.71152	1.34509
761.78296	1.35897
759.85439	1.37497
757.92583	1.36778
755.99727	1.33187
754.06870	1.28063
752.14014	1.24286
750.21157	1.23463
748.28301	1.19923
746.35444	1.09446
744.42588	0.99991
742.49731	0.90178
740.56875	0.77057
738.64019	0.70639
736.71162	0.67409
734.78306	0.57887
732.85449	0.52595
730.92593	0.56174
728.99736	0.54659
727.06880	0.34538
725.14023	0.09658
723.21167	-0.07483
721.28311	-0.58850
719.35454	-0.43767
717.42598	0.02881
715.49741	0.42570
713.56885	0.70938
711.64028	0.62021
709.71172	0.67679
707.78315	0.90913
705.85459	1.10659
703.92603	0.99242
701.99746	0.86566
700.06890	0.70877
698.14033	0.56976
696.21177	0.53034
694.28320	0.62405
692.35464	0.72234
690.42607	0.63351
688.49751	0.55639
686.56895	0.54369
684.64038	0.53111
682.71182	0.55430
680.78325	0.55875
678.85469	0.49976
676.92612	0.50337
674.99756	0.58260
673.06899	0.67203
671.14043	0.78823
669.21187	0.77551
667.28330	0.54942
665.35474	0.43281
663.42617	0.47647
661.49761	0.52080
659.56904	0.40890
657.64048	0.34107
655.71191	0.43823
653.78335	0.64006
651.85479	0.57862
649.92622	0.37386
647.99766	0.28195
646.06909	0.32210
644.14053	0.43282
642.21196	0.46317
640.28340	0.44674
638.35483	0.56691
636.42627	0.90921
634.49771	0.68732
632.56914	0.41277
630.64058	0.35617
628.71201	0.41729
626.78345	0.54010
624.85488	0.62756
622.92632	0.53481
620.99775	0.43038
619.06919	0.42284
617.14062	0.52075
615.21206	0.63666
613.28350	0.59729
611.35493	0.54541
609.42637	0.53088
607.49780	0.46593
605.56924	0.36224
603.64067	0.32373
601.71211	0.38487
599.78354	0.47983
597.85498	0.51107
595.92642	0.51242
593.99785	0.53099
592.06929	0.68134
590.14072	0.90877
588.21216	0.67318
586.28359	0.55062
584.35503	0.57264
582.42646	0.62736
580.49790	0.63965
578.56934	0.63053
576.64077	0.55058
574.71221	0.47304
572.78364	0.47612
570.85508	0.56618
568.92651	0.77853
566.99795	1.25951
565.06938	0.78352
563.14082	0.50450
561.21226	0.44512
559.28369	0.45487
557.35513	0.46199
555.42656	0.49168
553.49800	0.51861
551.56943	0.47212
549.64087	0.41953
547.71230	0.43002
545.78374	0.48981
543.85518	0.49912
541.92661	0.42551
539.99805	0.36172
538.06948	0.35144
536.14092	0.36665
534.21235	0.37246
532.28379	0.42186
530.35522	0.56803
528.42666	0.65801
526.49810	0.49694
524.56953	0.40506
522.64097	0.45571
520.71240	0.56703
518.78384	0.48690
516.85527	0.40868
514.92671	0.40637
512.99814	0.41614
511.06958	0.37862
509.14102	0.32586
507.21245	0.32851
505.28389	0.40836
503.35532	0.51289
501.42676	0.50401
499.49819	0.43526
