3997.91411	0.06405
3995.98555	0.06449
3994.05698	0.06505
3992.12842	0.06534
3990.19985	0.06546
3988.27129	0.06575
3986.34272	0.06613
3984.41416	0.06635
3982.48560	0.06641
3980.55703	0.06665
3978.62847	0.06709
3976.69990	0.06759
3974.77134	0.06807
3972.84277	0.06821
3970.91421	0.06815
3968.98564	0.06824
3967.05708	0.06845
3965.12852	0.06880
3963.19995	0.06920
3961.27139	0.06935
3959.34282	0.06931
3957.41426	0.06936
3955.48569	0.06949
3953.55713	0.06952
3951.62856	0.06964
3949.70000	0.07026
3947.77144	0.07096
3945.84287	0.07103
3943.91431	0.07100
3941.98574	0.07100
3940.05718	0.07007
3938.12861	0.06894
3936.20005	0.06866
3934.27148	0.06907
3932.34292	0.06993
3930.41436	0.07063
3928.48579	0.07048
3926.55723	0.07016
3924.62866	0.07057
3922.70010	0.07105
3920.77153	0.07076
3918.84297	0.07052
3916.91440	0.07084
3914.98584	0.07065
3913.05728	0.06967
3911.12871	0.06877
3909.20015	0.06824
3907.27158	0.06845
3905.34302	0.07024
3903.41445	0.07309
3901.48589	0.07440
3899.55732	0.07374
3897.62876	0.07250
3895.70020	0.07115
3893.77163	0.07068
3891.84307	0.07168
3889.91450	0.07256
3887.98594	0.07210
3886.05737	0.07208
3884.12881	0.07290
3882.20024	0.07342
3880.27168	0.07374
3878.34312	0.07294
3876.41455	0.07123
3874.48599	0.07104
3872.55742	0.07287
3870.62886	0.07513
3868.70029	0.07586
3866.77173	0.07509
3864.84316	0.07562
3862.91460	0.07694
3860.98604	0.07611
3859.05747	0.07455
3857.12891	0.07465
3855.20034	0.07688
3853.27178	0.08127
3851.34321	0.08375
3849.41465	0.08119
3847.48608	0.07851
3845.55752	0.07744
3843.62896	0.07821
3841.70039	0.08062
3839.77183	0.08326
3837.84326	0.08482
3835.91470	0.08489
3833.98613	0.08433
3832.05757	0.08404
3830.12900	0.08387
3828.20044	0.08364
3826.27187	0.08408
3824.34331	0.08540
3822.41475	0.08748
3820.48618	0.09070
3818.55762	0.09253
3816.62905	0.09227
3814.70049	0.09157
3812.77192	0.09030
3810.84336	0.08968
3808.91479	0.09067
3806.98623	0.09296
3805.05767	0.09508
3803.12910	0.09676
3801.20054	0.09953
3799.27197	0.10140
3797.34341	0.10108
3795.41484	0.10106
3793.48628	0.10118
3791.55771	0.10095
3789.62915	0.10122
3787.70059	0.10243
3785.77202	0.10448
3783.84346	0.10666
3781.91489	0.10838
3779.98633	0.11038
3778.05776	0.11262
3776.12920	0.11362
3774.20063	0.11406
3772.27207	0.11541
3770.34351	0.11845
3768.41494	0.12225
3766.48638	0.12462
3764.55781	0.12597
3762.62925	0.12728
3760.70068	0.12932
3758.77212	0.13273
3756.84355	0.13605
3754.91499	0.13820
3752.98643	0.14128
3751.05786	0.14689
3749.12930	0.15268
3747.20073	0.15488
3745.27217	0.15612
3743.34360	0.15926
3741.41504	0.16268
3739.48647	0.16528
3737.55791	0.16900
3735.62935	0.17540
3733.70078	0.18244
3731.77222	0.18590
3729.84365	0.18791
3727.91509	0.19131
3725.98652	0.19715
3724.05796	0.20444
3722.12939	0.21125
3720.20083	0.21777
3718.27227	0.22446
3716.34370	0.23128
3714.41514	0.23850
3712.48657	0.24851
3710.55801	0.26373
3708.62944	0.27892
3706.70088	0.28967
3704.77231	0.29972
3702.84375	0.31253
3700.91519	0.32977
3698.98662	0.34836
3697.05806	0.36597
3695.12949	0.38525
3693.20093	0.40618
3691.27236	0.42901
3689.34380	0.45818
3687.41523	0.49285
3685.48667	0.52229
3683.55811	0.54785
3681.62954	0.57615
3679.70098	0.60876
3677.77241	0.64344
3675.84385	0.68428
3673.91528	0.73842
3671.98672	0.78209
3670.05815	0.82088
3668.12959	0.87470
3666.20103	0.92323
3664.27246	0.96273
3662.34390	1.00535
3660.41533	1.05301
3658.48677	1.10149
3656.55820	1.15295
3654.62964	1.20914
3652.70107	1.25599
3650.77251	1.29767
3648.84395	1.35631
3646.91538	1.42687
3644.98682	1.47681
3643.05825	1.51498
3641.12969	1.55469
3639.20112	1.59880
3637.27256	1.64329
3635.34399	1.68646
3633.41543	1.72986
3631.48687	1.77164
3629.55830	1.81520
3627.62974	1.87145
3625.70117	1.92195
3623.77261	1.95486
3621.84404	1.98665
3619.91548	2.02425
3617.98691	2.07115
3616.05835	2.11690
3614.12979	2.15491
3612.20122	2.19442
3610.27266	2.23431
3608.34409	2.27512
3606.41553	2.31791
3604.48696	2.35602
3602.55840	2.39000
3600.62983	2.42797
3598.70127	2.46966
3596.77271	2.50967
3594.84414	2.54925
3592.91558	2.58972
3590.98701	2.62827
3589.05845	2.66462
3587.12988	2.70894
3585.20132	2.75873
3583.27275	2.79967
3581.34419	2.83639
3579.41562	2.87623
3577.48706	2.91832
3575.55850	2.95998
3573.62993	3.00308
3571.70137	3.04665
3569.77280	3.08845
3567.84424	3.13160
3565.91567	3.18356
3563.98711	3.23457
3562.05854	3.27637
3560.12998	3.31605
3558.20142	3.35707
3556.27285	3.40060
3554.34429	3.44514
3552.41572	3.49164
3550.48716	3.53983
3548.55859	3.58661
3546.63003	3.63225
3544.70146	3.68059
3542.77290	3.72836
3540.84434	3.77209
3538.91577	3.81698
3536.98721	3.86337
3535.05864	3.90922
3533.13008	3.95429
3531.20151	4.00084
3529.27295	4.05031
3527.34438	4.10181
3525.41582	4.15138
3523.48726	4.19814
3521.55869	4.24515
3519.63013	4.29127
3517.70156	4.33751
3515.77300	4.38344
3513.84443	4.42895
3511.91587	4.47710
3509.98730	4.52815
3508.05874	4.57905
3506.13018	4.62674
3504.20161	4.67453
3502.27305	4.72684
3500.34448	4.77780
3498.41592	4.82208
3496.48735	4.86288
3494.55879	4.90318
3492.63022	4.94694
3490.70166	4.99761
3488.77310	5.05384
3486.84453	5.11077
3484.91597	5.16481
3482.98740	5.21488
3481.05884	5.26090
3479.13027	5.30495
3477.20171	5.35211
3475.27314	5.40239
3473.34458	5.44907
3471.41602	5.48678
3469.48745	5.52072
3467.55889	5.56612
3465.63032	5.62232
3463.70176	5.67553
3461.77319	5.72432
3459.84463	5.77185
3457.91606	5.81631
3455.98750	5.86861
3454.05894	5.93209
3452.13037	5.98788
3450.20181	6.03018
3448.27324	6.06838
3446.34468	6.11265
3444.41611	6.15874
3442.48755	6.20231
3440.55898	6.25453
3438.63042	6.31535
3436.70186	6.36279
3434.77329	6.39802
3432.84473	6.44969
3430.91616	6.51706
3428.98760	6.57560
3427.05903	6.62435
3425.13047	6.67613
3423.20190	6.71306
3421.27334	6.74436
3419.34478	6.79282
3417.41621	6.85093
3415.48765	6.89994
3413.55908	6.93078
3411.63052	6.98080
3409.70195	7.04348
3407.77339	7.07459
3405.84482	7.07673
3403.91626	7.08603
3401.98770	7.12679
3400.05913	7.19941
3398.13057	7.27918
3396.20200	7.33167
3394.27344	7.36203
3392.34487	7.37832
3390.41631	7.38047
3388.48774	7.38340
3386.55918	7.42887
3384.63062	7.51075
3382.70205	7.57319
3380.77349	7.59490
3378.84492	7.60450
3376.91636	7.62893
3374.98779	7.64249
3373.05923	7.65639
3371.13066	7.68246
3369.20210	7.71030
3367.27354	7.73506
3365.34497	7.74308
3363.41641	7.74677
3361.48784	7.78657
3359.55928	7.82758
3357.63071	7.80015
3355.70215	7.78591
3353.77358	7.85611
3351.84502	7.95594
3349.91646	8.00235
3347.98789	8.01594
3346.05933	8.00184
3344.13076	7.93144
3342.20220	7.92498
3340.27363	8.00725
3338.34507	8.02186
3336.41650	7.98207
3334.48794	8.00693
3332.55937	8.01873
3330.63081	8.00743
3328.70225	8.05027
3326.77368	8.09276
3324.84512	8.08913
3322.91655	8.08526
3320.98799	8.10086
3319.05942	8.11269
3317.13086	8.12752
3315.20229	8.10928
3313.27373	8.06056
3311.34517	8.00763
3309.41660	7.98279
3307.48804	8.02197
3305.55947	8.05298
3303.63091	8.06991
3301.70234	8.16836
3299.77378	8.27737
3297.84521	8.20584
3295.91665	8.07734
3293.98809	8.05779
3292.05952	8.12338
3290.13096	8.21181
3288.20239	8.24304
3286.27383	8.18336
3284.34526	8.08423
3282.41670	8.05586
3280.48813	8.12986
3278.55957	8.20902
3276.63101	8.22587
3274.70244	8.23326
3272.77388	8.24717
3270.84531	8.23795
3268.91675	8.19152
3266.98818	8.14761
3265.05962	8.15135
3263.13105	8.10309
3261.20249	8.00599
3259.27393	7.94335
3257.34536	7.90617
3255.41680	7.92084
3253.48823	7.97203
3251.55967	7.95927
3249.63110	7.88348
3247.70254	7.85894
3245.77397	7.95969
3243.84541	8.11561
3241.91685	8.14388
3239.98828	8.04919
3238.05972	7.97896
3236.13115	7.96151
3234.20259	7.96127
3232.27402	7.97302
3230.34546	7.98904
3228.41689	8.02490
3226.48833	8.08469
3224.55977	8.10351
3222.63120	8.08788
3220.70264	8.06451
3218.77407	8.04165
3216.84551	8.04516
3214.91694	8.01479
3212.98838	7.90834
3211.05981	7.83590
3209.13125	7.83666
3207.20269	7.81916
3205.27412	7.76684
3203.34556	7.72044
3201.41699	7.68393
3199.48843	7.62133
3197.55986	7.54277
3195.63130	7.51927
3193.70273	7.53397
3191.77417	7.51279
3189.84561	7.46034
3187.91704	7.40600
3185.98848	7.34236
3184.05991	7.28466
3182.13135	7.25722
3180.20278	7.22522
3178.27422	7.14726
3176.34565	7.06765
3174.41709	7.02433
3172.48853	6.99449
3170.55996	6.96043
3168.63140	6.91659
3166.70283	6.86805
3164.77427	6.81701
3162.84570	6.74318
3160.91714	6.64448
3158.98857	6.55540
3157.06001	6.48600
3155.13145	6.42075
3153.20288	6.35293
3151.27432	6.28173
3149.34575	6.20842
3147.41719	6.13062
3145.48862	6.06105
3143.56006	6.00858
3141.63149	5.95012
3139.70293	5.87729
3137.77437	5.80823
3135.84580	5.74203
3133.91724	5.66515
3131.98867	5.57901
3130.06011	5.50065
3128.13154	5.43805
3126.20298	5.37949
3124.27441	5.31803
3122.34585	5.24931
3120.41729	5.17035
3118.48872	5.09481
3116.56016	5.03359
3114.63159	4.97384
3112.70303	4.90312
3110.77446	4.83177
3108.84590	4.76604
3106.91733	4.70007
3104.98877	4.63394
3103.06021	4.56895
3101.13164	4.50087
3099.20308	4.43156
3097.27451	4.36790
3095.34595	4.30654
3093.41738	4.24071
3091.48882	4.17321
3089.56025	4.10845
3087.63169	4.04453
3085.70312	3.98081
3083.77456	3.91937
3081.84600	3.86068
3079.91743	3.80444
3077.98887	3.74706
3076.06030	3.68572
3074.13174	3.62425
3072.20317	3.56582
3070.27461	3.50970
3068.34604	3.45468
3066.41748	3.39938
3064.48892	3.34424
3062.56035	3.29054
3060.63179	3.23787
3058.70322	3.18601
3056.77466	3.13396
3054.84609	3.08103
3052.91753	3.02914
3050.98896	2.97913
3049.06040	2.92953
3047.13184	2.88037
3045.20327	2.83253
3043.27471	2.78502
3041.34614	2.73724
3039.41758	2.69016
3037.48901	2.64411
3035.56045	2.59922
3033.63188	2.55574
3031.70332	2.51202
3029.77476	2.46717
3027.84619	2.42354
3025.91763	2.38178
3023.98906	2.34006
3022.06050	2.29826
3020.13193	2.25754
3018.20337	2.21849
3016.27480	2.18040
3014.34624	2.14236
3012.41768	2.10440
3010.48911	2.06707
3008.56055	2.03095
3006.63198	1.99607
3004.70342	1.96187
3002.77485	1.92755
3000.84629	1.89306
2998.91772	1.85905
2996.98916	1.82594
2995.06060	1.79390
2993.13203	1.76286
2991.20347	1.73261
2989.27490	1.70284
2987.34634	1.67339
2985.41777	1.64447
2983.48921	1.61628
2981.56064	1.58846
2979.63208	1.56068
2977.70352	1.53330
2975.77495	1.50669
2973.84639	1.48083
2971.91782	1.45545
2969.98926	1.43035
2968.06069	1.40540
2966.13213	1.38039
2964.20356	1.35558
2962.27500	1.33191
2960.34644	1.30921
2958.41787	1.28639
2956.48931	1.26324
2954.56074	1.24031
2952.63218	1.21775
2950.70361	1.19539
2948.77505	1.17345
2946.84648	1.15231
2944.91792	1.13213
2942.98936	1.11248
2941.06079	1.09266
2939.13223	1.07265
2937.20366	1.05301
2935.27510	1.03375
2933.34653	1.01477
2931.41797	0.99636
2929.48940	0.97835
2927.56084	0.96046
2925.63228	0.94288
2923.70371	0.92548
2921.77515	0.90835
2919.84658	0.89209
2917.91802	0.87628
2915.98945	0.86026
2914.06089	0.84452
2912.13232	0.82955
2910.20376	0.81506
2908.27520	0.80049
2906.34663	0.78599
2904.41807	0.77205
2902.48950	0.75862
2900.56094	0.74561
2898.63237	0.73310
2896.70381	0.72115
2894.77524	0.70945
2892.84668	0.69759
2890.91812	0.68586
2888.98955	0.67458
2887.06099	0.66366
2885.13242	0.65319
2883.20386	0.64287
2881.27529	0.63235
2879.34673	0.62199
2877.41816	0.61227
2875.48960	0.60294
2873.56104	0.59338
2871.63247	0.58352
2869.70391	0.57346
2867.77534	0.56298
2865.84678	0.55225
2863.91821	0.54179
2861.98965	0.53156
2860.06108	0.52153
2858.13252	0.51211
2856.20396	0.50335
2854.27539	0.49491
2852.34683	0.48646
2850.41826	0.47803
2848.48970	0.46983
2846.56113	0.46225
2844.63257	0.45537
2842.70400	0.44866
2840.77544	0.44199
2838.84687	0.43585
2836.91831	0.43041
2834.98975	0.42508
2833.06118	0.41940
2831.13262	0.41356
2829.20405	0.40779
2827.27549	0.40204
2825.34692	0.39613
2823.41836	0.39018
2821.48979	0.38454
2819.56123	0.37915
2817.63267	0.37361
2815.70410	0.36798
2813.77554	0.36253
2811.84697	0.35712
2809.91841	0.35165
2807.98984	0.34634
2806.06128	0.34128
2804.13271	0.33650
2802.20415	0.33201
2800.27559	0.32759
2798.34702	0.32301
2796.41846	0.31827
2794.48989	0.31352
2792.56133	0.30905
2790.63276	0.30491
2788.70420	0.30076
2786.77563	0.29651
2784.84707	0.29237
2782.91851	0.28834
2780.98994	0.28433
2779.06138	0.28040
2777.13281	0.27672
2775.20425	0.27328
2773.27568	0.26985
2771.34712	0.26640
2769.41855	0.26297
2767.48999	0.25948
2765.56143	0.25603
2763.63286	0.25272
2761.70430	0.24948
2759.77573	0.24646
2757.84717	0.24362
2755.91860	0.24056
2753.99004	0.23736
2752.06147	0.23441
2750.13291	0.23177
2748.20435	0.22919
2746.27578	0.22649
2744.34722	0.22378
2742.41865	0.22118
2740.49009	0.21874
2738.56152	0.21639
2736.63296	0.21399
2734.70439	0.21157
2732.77583	0.20933
2730.84727	0.20723
2728.91870	0.20500
2726.99014	0.20264
2725.06157	0.20038
2723.13301	0.19837
2721.20444	0.19650
2719.27588	0.19465
2717.34731	0.19278
2715.41875	0.19086
2713.49019	0.18894
2711.56162	0.18724
2709.63306	0.18579
2707.70449	0.18438
2705.77593	0.18273
2703.84736	0.18083
2701.91880	0.17901
2699.99023	0.17752
2698.06167	0.17621
2696.13311	0.17490
2694.20454	0.17357
2692.27598	0.17221
2690.34741	0.17086
2688.41885	0.16967
2686.49028	0.16858
2684.56172	0.16738
2682.63315	0.16604
2680.70459	0.16479
2678.77603	0.16383
2676.84746	0.16296
2674.91890	0.16196
2672.99033	0.16093
2671.06177	0.15987
2669.13320	0.15879
2667.20464	0.15775
2665.27607	0.15677
2663.34751	0.15592
2661.41895	0.15519
2659.49038	0.15445
2657.56182	0.15365
2655.63325	0.15282
2653.70469	0.15208
2651.77612	0.15147
2649.84756	0.15091
2647.91899	0.15028
2645.99043	0.14964
2644.06187	0.14915
2642.13330	0.14876
2640.20474	0.14816
2638.27617	0.14744
2636.34761	0.14689
2634.41904	0.14648
2632.49048	0.14609
2630.56191	0.14575
2628.63335	0.14539
2626.70479	0.14499
2624.77622	0.14461
2622.84766	0.14419
2620.91909	0.14382
2618.99053	0.14373
2617.06196	0.14385
2615.13340	0.14389
2613.20483	0.14360
2611.27627	0.14322
2609.34771	0.14311
2607.41914	0.14315
2605.49058	0.14320
2603.56201	0.14324
2601.63345	0.14324
2599.70488	0.14324
2597.77632	0.14330
2595.84775	0.14334
2593.91919	0.14336
2591.99062	0.14348
2590.06206	0.14368
2588.13350	0.14391
2586.20493	0.14417
2584.27637	0.14440
2582.34780	0.14445
2580.41924	0.14448
2578.49067	0.14472
2576.56211	0.14510
2574.63354	0.14545
2572.70498	0.14571
2570.77642	0.14598
2568.84785	0.14634
2566.91929	0.14672
2564.99072	0.14714
2563.06216	0.14760
2561.13359	0.14810
2559.20503	0.14858
2557.27646	0.14905
2555.34790	0.14958
2553.41934	0.15012
2551.49077	0.15056
2549.56221	0.15100
2547.63364	0.15156
2545.70508	0.15216
2543.77651	0.15278
2541.84795	0.15349
2539.91938	0.15416
2537.99082	0.15471
2536.06226	0.15524
2534.13369	0.15580
2532.20513	0.15634
2530.27656	0.15699
2528.34800	0.15781
2526.41943	0.15856
2524.49087	0.15921
2522.56230	0.15988
2520.63374	0.16063
2518.70518	0.16141
2516.77661	0.16216
2514.84805	0.16294
2512.91948	0.16387
2510.99092	0.16487
2509.06235	0.16576
2507.13379	0.16650
2505.20522	0.16722
2503.27666	0.16789
2501.34810	0.16848
2499.41953	0.16915
2497.49097	0.17003
2495.56240	0.17104
2493.63384	0.17204
2491.70527	0.17288
2489.77671	0.17360
2487.84814	0.17443
2485.91958	0.17537
2483.99102	0.17622
2482.06245	0.17704
2480.13389	0.17792
2478.20532	0.17876
2476.27676	0.17963
2474.34819	0.18061
2472.41963	0.18153
2470.49106	0.18227
2468.56250	0.18303
2466.63394	0.18394
2464.70537	0.18498
2462.77681	0.18604
2460.84824	0.18696
2458.91968	0.18778
2456.99111	0.18868
2455.06255	0.18967
2453.13398	0.19066
2451.20542	0.19161
2449.27686	0.19247
2447.34829	0.19327
2445.41973	0.19420
2443.49116	0.19534
2441.56260	0.19641
2439.63403	0.19729
2437.70547	0.19821
2435.77690	0.19931
2433.84834	0.20046
2431.91978	0.20135
2429.99121	0.20216
2428.06265	0.20329
2426.13408	0.20463
2424.20552	0.20581
2422.27695	0.20692
2420.34839	0.20805
2418.41982	0.20907
2416.49126	0.21007
2414.56270	0.21122
2412.63413	0.21246
2410.70557	0.21367
2408.77700	0.21483
2406.84844	0.21590
2404.91987	0.21696
2402.99131	0.21807
2401.06274	0.21927
2399.13418	0.22053
2397.20562	0.22182
2395.27705	0.22310
2393.34849	0.22432
2391.41992	0.22550
2389.49136	0.22675
2387.56279	0.22826
2385.63423	0.23004
2383.70566	0.23212
2381.77710	0.23474
2379.84854	0.23797
2377.91997	0.24158
2375.99141	0.24539
2374.06284	0.24944
2372.13428	0.25363
2370.20571	0.25795
2368.27715	0.26282
2366.34858	0.26799
2364.42002	0.27263
2362.49146	0.27621
2360.56289	0.27808
2358.63433	0.27923
2356.70576	0.28045
2354.77720	0.27988
2352.84863	0.27744
2350.92007	0.27462
2348.99150	0.27297
2347.06294	0.27366
2345.13437	0.27730
2343.20581	0.28259
2341.27725	0.28612
2339.34868	0.28710
2337.42012	0.28728
2335.49155	0.28787
2333.56299	0.28889
2331.63442	0.29031
2329.70586	0.29154
2327.77729	0.29214
2325.84873	0.29257
2323.92017	0.29322
2321.99160	0.29395
2320.06304	0.29435
2318.13447	0.29444
2316.20591	0.29459
2314.27734	0.29511
2312.34878	0.29601
2310.42021	0.29714
2308.49165	0.29816
2306.56309	0.29880
2304.63452	0.29939
2302.70596	0.30044
2300.77739	0.30180
2298.84883	0.30310
2296.92026	0.30444
2294.99170	0.30590
2293.06313	0.30734
2291.13457	0.30866
2289.20601	0.31001
2287.27744	0.31155
2285.34888	0.31327
2283.42031	0.31496
2281.49175	0.31663
2279.56318	0.31857
2277.63462	0.32066
2275.70605	0.32270
2273.77749	0.32478
2271.84893	0.32694
2269.92036	0.32909
2267.99180	0.33115
2266.06323	0.33313
2264.13467	0.33515
2262.20610	0.33718
2260.27754	0.33916
2258.34897	0.34116
2256.42041	0.34318
2254.49185	0.34517
2252.56328	0.34718
2250.63472	0.34928
2248.70615	0.35146
2246.77759	0.35366
2244.84902	0.35586
2242.92046	0.35809
2240.99189	0.36030
2239.06333	0.36237
2237.13477	0.36433
2235.20620	0.36631
2233.27764	0.36843
2231.34907	0.37069
2229.42051	0.37298
2227.49194	0.37521
2225.56338	0.37741
2223.63481	0.37964
2221.70625	0.38189
2219.77769	0.38406
2217.84912	0.38616
2215.92056	0.38828
2213.99199	0.39040
2212.06343	0.39248
2210.13486	0.39448
2208.20630	0.39650
2206.27773	0.39865
2204.34917	0.40083
2202.42061	0.40293
2200.49204	0.40499
2198.56348	0.40707
2196.63491	0.40910
2194.70635	0.41103
2192.77778	0.41291
2190.84922	0.41480
2188.92065	0.41665
2186.99209	0.41847
2185.06353	0.42029
2183.13496	0.42204
2181.20640	0.42359
2179.27783	0.42504
2177.34927	0.42659
2175.42070	0.42828
2173.49214	0.43002
2171.56357	0.43165
2169.63501	0.43310
2167.70645	0.43438
2165.77788	0.43551
2163.84932	0.43658
2161.92075	0.43760
2159.99219	0.43864
2158.06362	0.43977
2156.13506	0.44092
2154.20649	0.44201
2152.27793	0.44299
2150.34937	0.44376
2148.42080	0.44442
2146.49224	0.44511
2144.56367	0.44574
2142.63511	0.44626
2140.70654	0.44663
2138.77798	0.44691
2136.84941	0.44710
2134.92085	0.44722
2132.99229	0.44728
2131.06372	0.44726
2129.13516	0.44720
2127.20659	0.44721
2125.27803	0.44717
2123.34946	0.44689
2121.42090	0.44644
2119.49233	0.44599
2117.56377	0.44549
2115.63521	0.44488
2113.70664	0.44418
2111.77808	0.44346
2109.84951	0.44271
2107.92095	0.44179
2105.99238	0.44067
2104.06382	0.43957
2102.13525	0.43847
2100.20669	0.43730
2098.27812	0.43607
2096.34956	0.43479
2094.42100	0.43342
2092.49243	0.43198
2090.56387	0.43048
2088.63530	0.42888
2086.70674	0.42718
2084.77817	0.42539
2082.84961	0.42355
2080.92104	0.42168
2078.99248	0.41980
2077.06392	0.41787
2075.13535	0.41592
2073.20679	0.41392
2071.27822	0.41185
2069.34966	0.40971
2067.42109	0.40750
2065.49253	0.40532
2063.56396	0.40304
2061.63540	0.40064
2059.70684	0.39821
2057.77827	0.39579
2055.84971	0.39338
2053.92114	0.39098
2051.99258	0.38861
2050.06401	0.38617
2048.13545	0.38365
2046.20688	0.38106
2044.27832	0.37842
2042.34976	0.37575
2040.42119	0.37308
2038.49263	0.37048
2036.56406	0.36790
2034.63550	0.36524
2032.70693	0.36256
2030.77837	0.35992
2028.84980	0.35721
2026.92124	0.35451
2024.99268	0.35185
2023.06411	0.34917
2021.13555	0.34650
2019.20698	0.34393
2017.27842	0.34126
2015.34985	0.33834
2013.42129	0.33545
2011.49272	0.33274
2009.56416	0.33012
2007.63560	0.32753
2005.70703	0.32494
2003.77847	0.32237
2001.84990	0.31979
1999.92134	0.31719
1997.99277	0.31459
1996.06421	0.31211
1994.13564	0.30979
1992.20708	0.30756
1990.27852	0.30509
1988.34995	0.30246
1986.42139	0.29986
1984.49282	0.29731
1982.56426	0.29486
1980.63569	0.29253
1978.70713	0.29034
1976.77856	0.28823
1974.85000	0.28613
1972.92144	0.28399
1970.99287	0.28185
1969.06431	0.27977
1967.13574	0.27776
1965.20718	0.27569
1963.27861	0.27361
1961.35005	0.27170
1959.42148	0.26985
1957.49292	0.26794
1955.56436	0.26609
1953.63579	0.26433
1951.70723	0.26258
1949.77866	0.26093
1947.85010	0.25943
1945.92153	0.25808
1943.99297	0.25678
1942.06440	0.25535
1940.13584	0.25364
1938.20728	0.25193
1936.27871	0.25040
1934.35015	0.24903
1932.42158	0.24781
1930.49302	0.24664
1928.56445	0.24551
1926.63589	0.24442
1924.70732	0.24350
1922.77876	0.24277
1920.85020	0.24185
1918.92163	0.24085
1916.99307	0.23987
1915.06450	0.23877
1913.13594	0.23774
1911.20737	0.23709
1909.27881	0.23663
1907.35024	0.23597
1905.42168	0.23508
1903.49312	0.23431
1901.56455	0.23373
1899.63599	0.23325
1897.70742	0.23289
1895.77886	0.23256
1893.85029	0.23216
1891.92173	0.23178
1889.99316	0.23165
1888.06460	0.23143
1886.13604	0.23097
1884.20747	0.23058
1882.27891	0.23027
1880.35034	0.23000
1878.42178	0.22985
1876.49321	0.22984
1874.56465	0.22989
1872.63608	0.23009
1870.70752	0.23066
1868.77896	0.23164
1866.85039	0.23196
1864.92183	0.23140
1862.99326	0.23109
1861.06470	0.23124
1859.13613	0.23150
1857.20757	0.23170
1855.27900	0.23206
1853.35044	0.23258
1851.42187	0.23319
1849.49331	0.23390
1847.56475	0.23484
1845.63618	0.23607
1843.70762	0.23728
1841.77905	0.23771
1839.85049	0.23763
1837.92192	0.23813
1835.99336	0.23908
1834.06479	0.24011
1832.13623	0.24131
1830.20767	0.24314
1828.27910	0.24484
1826.35054	0.24578
1824.42197	0.24689
1822.49341	0.24792
1820.56484	0.24881
1818.63628	0.24997
1816.70771	0.25150
1814.77915	0.25316
1812.85059	0.25511
1810.92202	0.25738
1808.99346	0.25943
1807.06489	0.26113
1805.13633	0.26283
1803.20776	0.26508
1801.27920	0.26785
1799.35063	0.27080
1797.42207	0.27327
1795.49351	0.27571
1793.56494	0.27876
1791.63638	0.28257
1789.70781	0.28572
1787.77925	0.28778
1785.85068	0.29057
1783.92212	0.29428
1781.99355	0.29839
1780.06499	0.30255
1778.13643	0.30661
1776.20786	0.31062
1774.27930	0.31535
1772.35073	0.32174
1770.42217	0.32798
1768.49360	0.33266
1766.56504	0.33724
1764.63647	0.34230
1762.70791	0.34820
1760.77935	0.35570
1758.85078	0.36266
1756.92222	0.36959
1754.99365	0.37704
1753.06509	0.38398
1751.13652	0.39277
1749.20796	0.40370
1747.27939	0.41377
1745.35083	0.42246
1743.42227	0.43196
1741.49370	0.44243
1739.56514	0.45465
1737.63657	0.46700
1735.70801	0.47805
1733.77944	0.49479
1731.85088	0.51431
1729.92231	0.52918
1727.99375	0.54411
1726.06519	0.56042
1724.13662	0.57875
1722.20806	0.59872
1720.27949	0.61726
1718.35093	0.63926
1716.42236	0.67165
1714.49380	0.70182
1712.56523	0.72565
1710.63667	0.74873
1708.70811	0.77400
1706.77954	0.80320
1704.85098	0.83817
1702.92241	0.86914
1700.99385	0.89968
1699.06528	0.94545
1697.13672	0.98751
1695.20815	1.03025
1693.27959	1.07150
1691.35103	1.10473
1689.42246	1.14346
1687.49390	1.18444
1685.56533	1.22390
1683.63677	1.28510
1681.70820	1.34850
1679.77964	1.38887
1677.85107	1.42766
1675.92251	1.47228
1673.99395	1.52690
1672.06538	1.57527
1670.13682	1.62305
1668.20825	1.68543
1666.27969	1.73623
1664.35112	1.77945
1662.42256	1.83416
1660.49399	1.89615
1658.56543	1.94394
1656.63687	1.98227
1654.70830	2.01818
1652.77974	2.07509
1650.85117	2.12961
1648.92261	2.15099
1646.99404	2.17872
1645.06548	2.20877
1643.13691	2.22780
1641.20835	2.23945
1639.27979	2.25028
1637.35122	2.25691
1635.42266	2.25696
1633.49409	2.25049
1631.56553	2.23800
1629.63696	2.22178
1627.70840	2.19497
1625.77983	2.16383
1623.85127	2.12460
1621.92271	2.07659
1619.99414	2.03423
1618.06558	1.99210
1616.13701	1.92893
1614.20845	1.86363
1612.27988	1.81505
1610.35132	1.76494
1608.42275	1.71020
1606.49419	1.65563
1604.56562	1.60504
1602.63706	1.55627
1600.70850	1.50858
1598.77993	1.46435
1596.85137	1.42276
1594.92280	1.38287
1592.99424	1.34456
1591.06567	1.30931
1589.13711	1.27650
1587.20854	1.24596
1585.27998	1.21737
1583.35142	1.19064
1581.42285	1.16650
1579.49429	1.14599
1577.56572	1.12730
1575.63716	1.10391
1573.70859	1.08316
1571.78003	1.06985
1569.85146	1.05605
1567.92290	1.04016
1565.99434	1.02742
1564.06577	1.01732
1562.13721	1.00969
1560.20864	1.00454
1558.28008	0.99652
1556.35151	0.98826
1554.42295	0.98339
1552.49438	0.97878
1550.56582	0.97323
1548.63726	0.96610
1546.70869	0.95865
1544.78013	0.95072
1542.85156	0.94121
1540.92300	0.92784
1538.99443	0.90647
1537.06587	0.89000
1535.13730	0.87914
1533.20874	0.86545
1531.28018	0.85044
1529.35161	0.83947
1527.42305	0.82963
1525.49448	0.81941
1523.56592	0.81047
1521.63735	0.80202
1519.70879	0.79290
1517.78022	0.78472
1515.85166	0.77529
1513.92310	0.76549
1511.99453	0.75772
1510.06597	0.75166
1508.13740	0.74631
1506.20884	0.73634
1504.28027	0.72577
1502.35171	0.71961
1500.42314	0.71481
1498.49458	0.71017
1496.56602	0.70474
1494.63745	0.69881
1492.70889	0.69415
1490.78032	0.69063
1488.85176	0.68655
1486.92319	0.68169
1484.99463	0.67730
1483.06606	0.67380
1481.13750	0.67099
1479.20894	0.66870
1477.28037	0.66718
1475.35181	0.66645
1473.42324	0.66592
1471.49468	0.66395
1469.56611	0.66088
1467.63755	0.65838
1465.70898	0.65683
1463.78042	0.65571
1461.85186	0.65466
1459.92329	0.65434
1457.99473	0.65487
1456.06616	0.65404
1454.13760	0.65088
1452.20903	0.64788
1450.28047	0.64546
1448.35190	0.64347
1446.42334	0.64134
1444.49478	0.63904
1442.56621	0.63695
1440.63765	0.63511
1438.70908	0.63362
1436.78052	0.63199
1434.85195	0.62949
1432.92339	0.62698
1430.99482	0.62525
1429.06626	0.62411
1427.13770	0.62332
1425.20913	0.62303
1423.28057	0.62312
1421.35200	0.62314
1419.42344	0.62319
1417.49487	0.62267
1415.56631	0.62100
1413.63774	0.61931
1411.70918	0.61818
1409.78062	0.61757
1407.85205	0.61730
1405.92349	0.61732
1403.99492	0.61732
1402.06636	0.61688
1400.13779	0.61629
1398.20923	0.61540
1396.28066	0.61361
1394.35210	0.61081
1392.42354	0.60748
1390.49497	0.60447
1388.56641	0.60197
1386.63784	0.59926
1384.70928	0.59596
1382.78071	0.59287
1380.85215	0.59034
1378.92358	0.58829
1376.99502	0.58673
1375.06646	0.58563
1373.13789	0.58460
1371.20933	0.58356
1369.28076	0.58274
1367.35220	0.58184
1365.42363	0.58076
1363.49507	0.57985
1361.56650	0.57891
1359.63794	0.57755
1357.70937	0.57613
1355.78081	0.57488
1353.85225	0.57381
1351.92368	0.57299
1349.99512	0.57230
1348.06655	0.57145
1346.13799	0.57040
1344.20942	0.56941
1342.28086	0.56875
1340.35229	0.56841
1338.42373	0.56772
1336.49517	0.56645
1334.56660	0.56541
1332.63804	0.56495
1330.70947	0.56475
1328.78091	0.56463
1326.85234	0.56463
1324.92378	0.56461
1322.99521	0.56448
1321.06665	0.56446
1319.13809	0.56461
1317.20952	0.56460
1315.28096	0.56430
1313.35239	0.56377
1311.42383	0.56299
1309.49526	0.56204
1307.56670	0.56112
1305.63813	0.56028
1303.70957	0.55941
1301.78101	0.55857
1299.85244	0.55777
1297.92388	0.55682
1295.99531	0.55578
1294.06675	0.55482
1292.13818	0.55393
1290.20962	0.55310
1288.28105	0.55232
1286.35249	0.55136
1284.42393	0.55032
1282.49536	0.54944
1280.56680	0.54866
1278.63823	0.54781
1276.70967	0.54696
1274.78110	0.54621
1272.85254	0.54561
1270.92397	0.54514
1268.99541	0.54449
1267.06685	0.54372
1265.13828	0.54313
1263.20972	0.54270
1261.28115	0.54223
1259.35259	0.54167
1257.42402	0.54113
1255.49546	0.54069
1253.56689	0.54038
1251.63833	0.54023
1249.70977	0.54026
1247.78120	0.54034
1245.85264	0.54022
1243.92407	0.53983
1241.99551	0.53907
1240.06694	0.53797
1238.13838	0.53688
1236.20981	0.53573
1234.28125	0.53431
1232.35269	0.53283
1230.42412	0.53152
1228.49556	0.53035
1226.56699	0.52907
1224.63843	0.52769
1222.70986	0.52645
1220.78130	0.52537
1218.85273	0.52430
1216.92417	0.52328
1214.99561	0.52237
1213.06704	0.52151
1211.13848	0.52077
1209.20991	0.52024
1207.28135	0.51979
1205.35278	0.51920
1203.42422	0.51852
1201.49565	0.51785
1199.56709	0.51717
1197.63853	0.51651
1195.70996	0.51583
1193.78140	0.51510
1191.85283	0.51443
1189.92427	0.51397
1187.99570	0.51355
1186.06714	0.51306
1184.13857	0.51283
1182.21001	0.51317
1180.28145	0.51388
1178.35288	0.51467
1176.42432	0.51548
1174.49575	0.51623
1172.56719	0.51678
1170.63862	0.51720
1168.71006	0.51762
1166.78149	0.51804
1164.85293	0.51841
1162.92437	0.51869
1160.99580	0.51886
1159.06724	0.51894
1157.13867	0.51874
1155.21011	0.51801
1153.28154	0.51685
1151.35298	0.51551
1149.42441	0.51389
1147.49585	0.51177
1145.56729	0.50931
1143.63872	0.50682
1141.71016	0.50452
1139.78159	0.50261
1137.85303	0.50118
1135.92446	0.50012
1133.99590	0.49934
1132.06733	0.49886
1130.13877	0.49859
1128.21021	0.49834
1126.28164	0.49789
1124.35308	0.49726
1122.42451	0.49669
1120.49595	0.49643
1118.56738	0.49656
1116.63882	0.49686
1114.71025	0.49718
1112.78169	0.49756
1110.85312	0.49802
1108.92456	0.49863
1106.99600	0.49947
1105.06743	0.50049
1103.13887	0.50163
1101.21030	0.50287
1099.28174	0.50436
1097.35317	0.50626
1095.42461	0.50871
1093.49604	0.51209
1091.56748	0.51668
1089.63892	0.52257
1087.71035	0.52997
1085.78179	0.53855
1083.85322	0.54720
1081.92466	0.55464
1079.99609	0.55995
1078.06753	0.56268
1076.13896	0.56261
1074.21040	0.55971
1072.28184	0.55439
1070.35327	0.54751
1068.42471	0.54013
1066.49614	0.53321
1064.56758	0.52713
1062.63901	0.52172
1060.71045	0.51690
1058.78188	0.51267
1056.85332	0.50887
1054.92476	0.50537
1052.99619	0.50237
1051.06763	0.50022
1049.13906	0.49902
1047.21050	0.49848
1045.28193	0.49832
1043.35337	0.49848
1041.42480	0.49871
1039.49624	0.49870
1037.56768	0.49859
1035.63911	0.49852
1033.71055	0.49826
1031.78198	0.49753
1029.85342	0.49638
1027.92485	0.49494
1025.99629	0.49333
1024.06772	0.49195
1022.13916	0.49113
1020.21060	0.49084
1018.28203	0.49095
1016.35347	0.49126
1014.42490	0.49148
1012.49634	0.49164
1010.56777	0.49183
1008.63921	0.49210
1006.71064	0.49254
1004.78208	0.49338
1002.85352	0.49490
1000.92495	0.49722
998.99639	0.50041
997.06782	0.50445
995.13926	0.50887
993.21069	0.51305
991.28213	0.51643
989.35356	0.51852
987.42500	0.51923
985.49644	0.51916
983.56787	0.51919
981.63931	0.51972
979.71074	0.52076
977.78218	0.52220
975.85361	0.52404
973.92505	0.52634
971.99648	0.52914
970.06792	0.53242
968.13936	0.53612
966.21079	0.54009
964.28223	0.54438
962.35366	0.54900
960.42510	0.55384
958.49653	0.55905
956.56797	0.56471
954.63940	0.57060
952.71084	0.57653
950.78228	0.58273
948.85371	0.58920
946.92515	0.59547
944.99658	0.60141
943.06802	0.60754
941.13945	0.61400
939.21089	0.62006
937.28232	0.62549
935.35376	0.63087
933.42520	0.63619
931.49663	0.64143
929.56807	0.64708
927.63950	0.65295
925.71094	0.65875
923.78237	0.66495
921.85381	0.67144
919.92524	0.67812
917.99668	0.68521
916.06812	0.69212
914.13955	0.69907
912.21099	0.70671
910.28242	0.71428
908.35386	0.72126
906.42529	0.72879
904.49673	0.73764
902.56816	0.74713
900.63960	0.75706
898.71104	0.76673
896.78247	0.77520
894.85391	0.78399
892.92534	0.79453
890.99678	0.80555
889.06821	0.81623
887.13965	0.82741
885.21108	0.83849
883.28252	0.84807
881.35396	0.85658
879.42539	0.86581
877.49683	0.87751
875.56826	0.89142
873.63970	0.90470
871.71113	0.91588
869.78257	0.92606
867.85400	0.93643
865.92544	0.94790
863.99687	0.95997
862.06831	0.97134
860.13975	0.98163
858.21118	0.99136
856.28262	1.00229
854.35405	1.01536
852.42549	1.02981
850.49692	1.04436
848.56836	1.05616
846.63979	1.06497
844.71123	1.07458
842.78267	1.08561
840.85410	1.09645
838.92554	1.10786
836.99697	1.12187
835.06841	1.13790
833.13984	1.15221
831.21128	1.16271
829.28271	1.17208
827.35415	1.18454
825.42559	1.19780
823.49702	1.20703
821.56846	1.21249
819.63989	1.21708
817.71133	1.22351
815.78276	1.23249
813.85420	1.24394
811.92563	1.26222
809.99707	1.28593
808.06851	1.29755
806.13994	1.29453
804.21138	1.30013
802.28281	1.32547
800.35425	1.34527
798.42568	1.33273
796.49712	1.30643
794.56855	1.30464
792.63999	1.35135
790.71143	1.41001
788.78286	1.41941
786.85430	1.39493
784.92573	1.36128
782.99717	1.34520
781.06860	1.37124
779.14004	1.42524
777.21147	1.48902
775.28291	1.53426
773.35435	1.50383
771.42578	1.45004
769.49722	1.45063
767.56865	1.45883
765.64009	1.37559
763.71152	1.30227
761.78296	1.32003
759.85439	1.30568
757.92583	1.23718
755.99727	1.23275
754.06870	1.19082
752.14014	1.08701
750.21157	1.03040
748.28301	0.99244
746.35444	0.94815
744.42588	0.93979
742.49731	0.99548
740.56875	1.07723
738.64019	1.16977
736.71162	1.22239
734.78306	0.93727
732.85449	0.72867
730.92593	0.68536
728.99736	0.64031
727.06880	0.59677
725.14023	0.63559
723.21167	0.50973
721.28311	0.24837
719.35454	0.07450
717.42598	0.05331
715.49741	0.02814
713.56885	-0.15058
711.64028	-0.35734
709.71172	-0.52614
707.78315	-0.48446
705.85459	-0.19472
703.92603	0.04350
701.99746	0.14777
700.06890	0.19117
698.14033	0.19899
696.21177	0.24651
694.28320	0.34146
692.35464	0.29638
690.42607	0.19196
688.49751	0.19950
686.56895	0.26917
684.64038	0.26838
682.71182	0.21780
680.78325	0.23587
678.85469	0.27292
676.92612	0.26345
674.99756	0.24454
673.06899	0.25700
671.14043	0.32515
669.21187	0.37459
667.28330	0.37761
665.35474	0.36462
663.42617	0.39798
661.49761	0.45823
659.56904	0.32312
657.64048	0.19046
655.71191	0.21205
653.78335	0.26142
651.85479	0.21113
649.92622	0.17158
647.99766	0.21568
646.06909	0.24434
644.14053	0.24810
642.21196	0.33840
640.28340	0.41376
638.35483	0.42419
636.42627	0.40271
634.49771	0.28131
632.56914	0.19944
630.64058	0.18356
628.71201	0.17158
626.78345	0.18545
624.85488	0.23959
622.92632	0.27052
620.99775	0.22469
619.06919	0.17005
617.14062	0.21502
615.21206	0.29880
613.28350	0.29137
611.35493	0.24638
609.42637	0.23020
607.49780	0.20377
605.56924	0.18911
603.64067	0.20416
601.71211	0.20333
599.78354	0.20036
597.85498	0.17347
595.92642	0.12198
593.99785	0.15354
592.06929	0.26096
590.14072	0.30679
588.21216	0.24934
586.28359	0.19857
584.35503	0.23271
582.42646	0.33765
580.49790	0.41482
578.56934	0.34200
576.64077	0.21911
574.71221	0.17495
572.78364	0.20595
570.85508	0.23665
568.92651	0.22801
566.99795	0.21748
565.06938	0.18720
563.14082	0.12329
561.21226	0.07928
559.28369	0.07109
557.35513	0.07067
555.42656	0.08066
553.49800	0.12288
551.56943	0.18833
549.64087	0.20820
547.71230	0.18978
545.78374	0.18164
543.85518	0.16166
541.92661	0.12505
539.99805	0.11198
538.06948	0.11074
536.14092	0.12150
534.21235	0.18734
532.28379	0.27467
530.35522	0.25557
528.42666	0.20391
526.49810	0.17520
524.56953	0.14318
522.64097	0.08717
520.71240	0.06928
518.78384	0.11165
516.85527	0.16473
514.92671	0.24507
512.99814	0.27826
511.06958	0.20273
509.14102	0.17603
507.21245	0.28657
505.28389	0.32392
503.35532	0.19999
501.42676	0.13126
499.49819	0.13066
