3997.91411	0.06262
3995.98555	0.06272
3994.05698	0.06267
3992.12842	0.06301
3990.19985	0.06356
3988.27129	0.06429
3986.34272	0.06491
3984.41416	0.06501
3982.48560	0.06496
3980.55703	0.06508
3978.62847	0.06528
3976.69990	0.06572
3974.77134	0.06631
3972.84277	0.06662
3970.91421	0.06674
3968.98564	0.06678
3967.05708	0.06674
3965.12852	0.06673
3963.19995	0.06668
3961.27139	0.06656
3959.34282	0.06682
3957.41426	0.06749
3955.48569	0.06788
3953.55713	0.06783
3951.62856	0.06792
3949.70000	0.06835
3947.77144	0.06852
3945.84287	0.06795
3943.91431	0.06758
3941.98574	0.06797
3940.05718	0.06808
3938.12861	0.06766
3936.20005	0.06728
3934.27148	0.06715
3932.34292	0.06740
3930.41436	0.06792
3928.48579	0.06825
3926.55723	0.06840
3924.62866	0.06888
3922.70010	0.06929
3920.77153	0.06888
3918.84297	0.06828
3916.91440	0.06818
3914.98584	0.06787
3913.05728	0.06729
3911.12871	0.06725
3909.20015	0.06731
3907.27158	0.06723
3905.34302	0.06790
3903.41445	0.06910
3901.48589	0.06939
3899.55732	0.06896
3897.62876	0.06840
3895.70020	0.06768
3893.77163	0.06749
3891.84307	0.06817
3889.91450	0.06874
3887.98594	0.06865
3886.05737	0.06901
3884.12881	0.06963
3882.20024	0.06970
3880.27168	0.06985
3878.34312	0.06971
3876.41455	0.06893
3874.48599	0.06874
3872.55742	0.06964
3870.62886	0.07080
3868.70029	0.07136
3866.77173	0.07116
3864.84316	0.07140
3862.91460	0.07217
3860.98604	0.07210
3859.05747	0.07168
3857.12891	0.07203
3855.20034	0.07306
3853.27178	0.07444
3851.34321	0.07564
3849.41465	0.07561
3847.48608	0.07506
3845.55752	0.07493
3843.62896	0.07568
3841.70039	0.07701
3839.77183	0.07840
3837.84326	0.07987
3835.91470	0.08067
3833.98613	0.08036
3832.05757	0.08008
3830.12900	0.08022
3828.20044	0.08036
3826.27187	0.08078
3824.34331	0.08162
3822.41475	0.08277
3820.48618	0.08470
3818.55762	0.08617
3816.62905	0.08654
3814.70049	0.08694
3812.77192	0.08716
3810.84336	0.08723
3808.91479	0.08784
3806.98623	0.08941
3805.05767	0.09129
3803.12910	0.09267
3801.20054	0.09441
3799.27197	0.09610
3797.34341	0.09673
3795.41484	0.09723
3793.48628	0.09754
3791.55771	0.09767
3789.62915	0.09841
3787.70059	0.09996
3785.77202	0.10198
3783.84346	0.10395
3781.91489	0.10554
3779.98633	0.10728
3778.05776	0.10957
3776.12920	0.11122
3774.20063	0.11204
3772.27207	0.11317
3770.34351	0.11524
3768.41494	0.11785
3766.48638	0.12007
3764.55781	0.12195
3762.62925	0.12358
3760.70068	0.12557
3758.77212	0.12857
3756.84355	0.13141
3754.91499	0.13318
3752.98643	0.13525
3751.05786	0.13911
3749.12930	0.14400
3747.20073	0.14703
3745.27217	0.14955
3743.34360	0.15428
3741.41504	0.15905
3739.48647	0.16195
3737.55791	0.16518
3735.62935	0.17065
3733.70078	0.17814
3731.77222	0.18443
3729.84365	0.18876
3727.91509	0.19276
3725.98652	0.19811
3724.05796	0.20487
3722.12939	0.21160
3720.20083	0.21799
3718.27227	0.22412
3716.34370	0.23006
3714.41514	0.23633
3712.48657	0.24554
3710.55801	0.26049
3708.62944	0.27666
3706.70088	0.28922
3704.77231	0.30053
3702.84375	0.31345
3700.91519	0.33051
3698.98662	0.34928
3697.05806	0.36651
3695.12949	0.38454
3693.20093	0.40411
3691.27236	0.42538
3689.34380	0.45244
3687.41523	0.48659
3685.48667	0.51789
3683.55811	0.54489
3681.62954	0.57320
3679.70098	0.60493
3677.77241	0.63844
3675.84385	0.67802
3673.91528	0.73132
3671.98672	0.77510
3670.05815	0.81375
3668.12959	0.86662
3666.20103	0.91517
3664.27246	0.95639
3662.34390	1.00112
3660.41533	1.04925
3658.48677	1.09604
3656.55820	1.14532
3654.62964	1.20045
3652.70107	1.24710
3650.77251	1.28781
3648.84395	1.34393
3646.91538	1.41307
3644.98682	1.46452
3643.05825	1.50458
3641.12969	1.54565
3639.20112	1.59068
3637.27256	1.63572
3635.34399	1.67946
3633.41543	1.72372
3631.48687	1.76519
3629.55830	1.80634
3627.62974	1.86106
3625.70117	1.91413
3623.77261	1.94977
3621.84404	1.98238
3619.91548	2.01928
3617.98691	2.06421
3616.05835	2.10726
3614.12979	2.14269
3612.20122	2.18098
3610.27266	2.22148
3608.34409	2.26313
3606.41553	2.30725
3604.48696	2.34761
3602.55840	2.38289
3600.62983	2.42073
3598.70127	2.46205
3596.77271	2.50216
3594.84414	2.54220
3592.91558	2.58363
3590.98701	2.62284
3589.05845	2.65817
3587.12988	2.69997
3585.20132	2.74817
3583.27275	2.78955
3581.34419	2.82692
3579.41562	2.86635
3577.48706	2.90822
3575.55850	2.95131
3573.62993	2.99557
3571.70137	3.03849
3569.77280	3.07916
3567.84424	3.12063
3565.91567	3.17040
3563.98711	3.22039
3562.05854	3.26073
3560.12998	3.30014
3558.20142	3.34435
3556.27285	3.39048
3554.34429	3.43436
3552.41572	3.48044
3550.48716	3.52902
3548.55859	3.57324
3546.63003	3.61476
3544.70146	3.66165
3542.77290	3.71314
3540.84434	3.76234
3538.91577	3.80838
3536.98721	3.85325
3535.05864	3.89953
3533.13008	3.94689
3531.20151	3.99518
3529.27295	4.04358
3527.34438	4.09171
3525.41582	4.13852
3523.48726	4.18511
3521.55869	4.23533
3519.63013	4.28514
3517.70156	4.33083
3515.77300	4.37335
3513.84443	4.41643
3511.91587	4.46485
3509.98730	4.51904
3508.05874	4.57125
3506.13018	4.61714
3504.20161	4.66111
3502.27305	4.70520
3500.34448	4.75231
3498.41592	4.80412
3496.48735	4.85572
3494.55879	4.89958
3492.63022	4.93773
3490.70166	4.98398
3488.77310	5.03974
3486.84453	5.09066
3484.91597	5.13045
3482.98740	5.16620
3481.05884	5.20950
3479.13027	5.26326
3477.20171	5.32124
3475.27314	5.37813
3473.34458	5.42658
3471.41602	5.46535
3469.48745	5.50523
3467.55889	5.54989
3465.63032	5.59514
3463.70176	5.64863
3461.77319	5.70786
3459.84463	5.75891
3457.91606	5.80335
3455.98750	5.85078
3454.05894	5.89929
3452.13037	5.94348
3450.20181	5.98512
3448.27324	6.01824
3446.34468	6.05285
3444.41611	6.10462
3442.48755	6.15823
3440.55898	6.20105
3438.63042	6.24522
3436.70186	6.29676
3434.77329	6.35580
3432.84473	6.41838
3430.91616	6.46591
3428.98760	6.51019
3427.05903	6.56983
3425.13047	6.62887
3423.20190	6.67015
3421.27334	6.71269
3419.34478	6.77421
3417.41621	6.82502
3415.48765	6.83776
3413.55908	6.84985
3411.63052	6.90102
3409.70195	6.96196
3407.77339	7.01723
3405.84482	7.07074
3403.91626	7.10428
3401.98770	7.12481
3400.05913	7.17717
3398.13057	7.25374
3396.20200	7.28187
3394.27344	7.26103
3392.34487	7.27326
3390.41631	7.37811
3388.48774	7.48645
3386.55918	7.49800
3384.63062	7.48462
3382.70205	7.48928
3380.77349	7.48748
3378.84492	7.51689
3376.91636	7.58129
3374.98779	7.62289
3373.05923	7.65512
3371.13066	7.68420
3369.20210	7.69401
3367.27354	7.70705
3365.34497	7.74817
3363.41641	7.77967
3361.48784	7.75828
3359.55928	7.71403
3357.63071	7.70626
3355.70215	7.76160
3353.77358	7.82090
3351.84502	7.90268
3349.91646	8.02236
3347.98789	8.06814
3346.05933	8.04102
3344.13076	8.01903
3342.20220	8.00032
3340.27363	7.98820
3338.34507	7.99974
3336.41650	7.97760
3334.48794	7.90943
3332.55937	7.85452
3330.63081	7.84805
3328.70225	7.89274
3326.77368	7.98104
3324.84512	8.05537
3322.91655	8.05557
3320.98799	8.00032
3319.05942	7.93812
3317.13086	7.93703
3315.20229	7.97058
3313.27373	7.96384
3311.34517	7.91665
3309.41660	7.90592
3307.48804	7.98431
3305.55947	8.07342
3303.63091	8.09383
3301.70234	8.09862
3299.77378	8.13564
3297.84521	8.14034
3295.91665	8.06776
3293.98809	7.97478
3292.05952	7.99270
3290.13096	8.10546
3288.20239	8.14554
3286.27383	8.10950
3284.34526	8.05261
3282.41670	7.99355
3280.48813	7.97681
3278.55957	8.01881
3276.63101	8.04063
3274.70244	8.00170
3272.77388	7.97438
3270.84531	7.99698
3268.91675	8.07194
3266.98818	8.17006
3265.05962	8.22389
3263.13105	8.25150
3261.20249	8.28413
3259.27393	8.22762
3257.34536	8.13535
3255.41680	8.07471
3253.48823	8.00347
3251.55967	7.98668
3249.63110	8.05489
3247.70254	8.10917
3245.77397	8.08649
3243.84541	8.04564
3241.91685	8.03723
3239.98828	8.07763
3238.05972	8.15396
3236.13115	8.21328
3234.20259	8.19742
3232.27402	8.10374
3230.34546	7.99186
3228.41689	7.90085
3226.48833	7.87182
3224.55977	7.88921
3222.63120	7.90222
3220.70264	7.90117
3218.77407	7.85578
3216.84551	7.78581
3214.91694	7.75174
3212.98838	7.72864
3211.05981	7.69081
3209.13125	7.69274
3207.20269	7.75818
3205.27412	7.81719
3203.34556	7.80597
3201.41699	7.74062
3199.48843	7.64958
3197.55986	7.56383
3195.63130	7.51017
3193.70273	7.46903
3191.77417	7.41318
3189.84561	7.36237
3187.91704	7.33689
3185.98848	7.31415
3184.05991	7.27581
3182.13135	7.23049
3180.20278	7.17705
3178.27422	7.09646
3176.34565	7.01157
3174.41709	6.96308
3172.48853	6.92445
3170.55996	6.85109
3168.63140	6.77792
3166.70283	6.73884
3164.77427	6.69255
3162.84570	6.62597
3160.91714	6.56293
3158.98857	6.49679
3157.06001	6.42599
3155.13145	6.35929
3153.20288	6.29022
3151.27432	6.22079
3149.34575	6.16455
3147.41719	6.11416
3145.48862	6.05064
3143.56006	5.97748
3141.63149	5.90603
3139.70293	5.83576
3137.77437	5.76954
3135.84580	5.70678
3133.91724	5.63975
3131.98867	5.56687
3130.06011	5.49177
3128.13154	5.41561
3126.20298	5.34025
3124.27441	5.26978
3122.34585	5.20104
3120.41729	5.13234
3118.48872	5.06460
3116.56016	4.99610
3114.63159	4.92746
3112.70303	4.85935
3110.77446	4.79074
3108.84590	4.72119
3106.91733	4.65619
3104.98877	4.59875
3103.06021	4.53956
3101.13164	4.47250
3099.20308	4.40434
3097.27451	4.33961
3095.34595	4.27682
3093.41738	4.21444
3091.48882	4.15079
3089.56025	4.08737
3087.63169	4.02530
3085.70312	3.96353
3083.77456	3.90341
3081.84600	3.84472
3079.91743	3.78432
3077.98887	3.72305
3076.06030	3.66468
3074.13174	3.60957
3072.20317	3.55497
3070.27461	3.49913
3068.34604	3.44378
3066.41748	3.39081
3064.48892	3.33801
3062.56035	3.28364
3060.63179	3.22963
3058.70322	3.17717
3056.77466	3.12570
3054.84609	3.07427
3052.91753	3.02284
3050.98896	2.97249
3049.06040	2.92273
3047.13184	2.87290
3045.20327	2.82435
3043.27471	2.77767
3041.34614	2.73210
3039.41758	2.68735
3037.48901	2.64339
3035.56045	2.59934
3033.63188	2.55411
3031.70332	2.50836
3029.77476	2.46420
3027.84619	2.42226
3025.91763	2.38147
3023.98906	2.34096
3022.06050	2.30052
3020.13193	2.25970
3018.20337	2.21865
3016.27480	2.17896
3014.34624	2.14142
3012.41768	2.10491
3010.48911	2.06851
3008.56055	2.03234
3006.63198	1.99644
3004.70342	1.96080
3002.77485	1.92649
3000.84629	1.89397
2998.91772	1.86186
2996.98916	1.82976
2995.06060	1.79831
2993.13203	1.76741
2991.20347	1.73706
2989.27490	1.70767
2987.34634	1.67921
2985.41777	1.65120
2983.48921	1.62347
2981.56064	1.59629
2979.63208	1.56961
2977.70352	1.54334
2975.77495	1.51769
2973.84639	1.49256
2971.91782	1.46813
2969.98926	1.44470
2968.06069	1.42142
2966.13213	1.39768
2964.20356	1.37385
2962.27500	1.35019
2960.34644	1.32692
2958.41787	1.30408
2956.48931	1.28119
2954.56074	1.25828
2952.63218	1.23582
2950.70361	1.21373
2948.77505	1.19171
2946.84648	1.16953
2944.91792	1.14763
2942.98936	1.12699
2941.06079	1.10744
2939.13223	1.08805
2937.20366	1.06858
2935.27510	1.04899
2933.34653	1.02915
2931.41797	1.00950
2929.48940	0.99063
2927.56084	0.97236
2925.63228	0.95443
2923.70371	0.93738
2921.77515	0.92087
2919.84658	0.90415
2917.91802	0.88777
2915.98945	0.87221
2914.06089	0.85693
2912.13232	0.84161
2910.20376	0.82668
2908.27520	0.81240
2906.34663	0.79851
2904.41807	0.78480
2902.48950	0.77140
2900.56094	0.75837
2898.63237	0.74562
2896.70381	0.73322
2894.77524	0.72119
2892.84668	0.70941
2890.91812	0.69783
2888.98955	0.68655
2887.06099	0.67561
2885.13242	0.66501
2883.20386	0.65477
2881.27529	0.64495
2879.34673	0.63548
2877.41816	0.62599
2875.48960	0.61623
2873.56104	0.60642
2871.63247	0.59658
2869.70391	0.58629
2867.77534	0.57537
2865.84678	0.56415
2863.91821	0.55306
2861.98965	0.54222
2860.06108	0.53160
2858.13252	0.52134
2856.20396	0.51178
2854.27539	0.50302
2852.34683	0.49461
2850.41826	0.48642
2848.48970	0.47864
2846.56113	0.47113
2844.63257	0.46395
2842.70400	0.45723
2840.77544	0.45076
2838.84687	0.44467
2836.91831	0.43911
2834.98975	0.43356
2833.06118	0.42778
2831.13262	0.42204
2829.20405	0.41633
2827.27549	0.41039
2825.34692	0.40429
2823.41836	0.39850
2821.48979	0.39308
2819.56123	0.38760
2817.63267	0.38193
2815.70410	0.37620
2813.77554	0.37053
2811.84697	0.36508
2809.91841	0.36002
2807.98984	0.35502
2806.06128	0.34985
2804.13271	0.34477
2802.20415	0.33989
2800.27559	0.33498
2798.34702	0.33007
2796.41846	0.32542
2794.48989	0.32105
2792.56133	0.31673
2790.63276	0.31230
2788.70420	0.30777
2786.77563	0.30337
2784.84707	0.29934
2782.91851	0.29545
2780.98994	0.29143
2779.06138	0.28746
2777.13281	0.28364
2775.20425	0.27993
2773.27568	0.27631
2771.34712	0.27263
2769.41855	0.26884
2767.48999	0.26512
2765.56143	0.26166
2763.63286	0.25852
2761.70430	0.25554
2759.77573	0.25252
2757.84717	0.24939
2755.91860	0.24628
2753.99004	0.24325
2752.06147	0.24031
2750.13291	0.23745
2748.20435	0.23450
2746.27578	0.23146
2744.34722	0.22866
2742.41865	0.22625
2740.49009	0.22400
2738.56152	0.22159
2736.63296	0.21906
2734.70439	0.21652
2732.77583	0.21402
2730.84727	0.21168
2728.91870	0.20953
2726.99014	0.20737
2725.06157	0.20516
2723.13301	0.20310
2721.20444	0.20116
2719.27588	0.19910
2717.34731	0.19702
2715.41875	0.19500
2713.49019	0.19319
2711.56162	0.19168
2709.63306	0.19003
2707.70449	0.18814
2705.77593	0.18652
2703.84736	0.18515
2701.91880	0.18366
2699.99023	0.18205
2698.06167	0.18046
2696.13311	0.17899
2694.20454	0.17766
2692.27598	0.17645
2690.34741	0.17533
2688.41885	0.17413
2686.49028	0.17271
2684.56172	0.17129
2682.63315	0.17007
2680.70459	0.16906
2678.77603	0.16816
2676.84746	0.16711
2674.91890	0.16586
2672.99033	0.16454
2671.06177	0.16331
2669.13320	0.16238
2667.20464	0.16163
2665.27607	0.16075
2663.34751	0.15979
2661.41895	0.15889
2659.49038	0.15804
2657.56182	0.15723
2655.63325	0.15644
2653.70469	0.15568
2651.77612	0.15505
2649.84756	0.15456
2647.91899	0.15406
2645.99043	0.15351
2644.06187	0.15286
2642.13330	0.15218
2640.20474	0.15166
2638.27617	0.15123
2636.34761	0.15078
2634.41904	0.15024
2632.49048	0.14958
2630.56191	0.14902
2628.63335	0.14868
2626.70479	0.14844
2624.77622	0.14819
2622.84766	0.14788
2620.91909	0.14752
2618.99053	0.14721
2617.06196	0.14697
2615.13340	0.14668
2613.20483	0.14637
2611.27627	0.14619
2609.34771	0.14618
2607.41914	0.14621
2605.49058	0.14611
2603.56201	0.14595
2601.63345	0.14598
2599.70488	0.14609
2597.77632	0.14608
2595.84775	0.14603
2593.91919	0.14607
2591.99062	0.14613
2590.06206	0.14615
2588.13350	0.14621
2586.20493	0.14631
2584.27637	0.14654
2582.34780	0.14688
2580.41924	0.14716
2578.49067	0.14736
2576.56211	0.14759
2574.63354	0.14782
2572.70498	0.14804
2570.77642	0.14833
2568.84785	0.14869
2566.91929	0.14905
2564.99072	0.14941
2563.06216	0.14968
2561.13359	0.14990
2559.20503	0.15025
2557.27646	0.15071
2555.34790	0.15120
2553.41934	0.15177
2551.49077	0.15239
2549.56221	0.15298
2547.63364	0.15340
2545.70508	0.15377
2543.77651	0.15428
2541.84795	0.15492
2539.91938	0.15550
2537.99082	0.15603
2536.06226	0.15665
2534.13369	0.15732
2532.20513	0.15794
2530.27656	0.15851
2528.34800	0.15912
2526.41943	0.15984
2524.49087	0.16065
2522.56230	0.16135
2520.63374	0.16200
2518.70518	0.16280
2516.77661	0.16350
2514.84805	0.16407
2512.91948	0.16478
2510.99092	0.16563
2509.06235	0.16647
2507.13379	0.16730
2505.20522	0.16803
2503.27666	0.16864
2501.34810	0.16930
2499.41953	0.17011
2497.49097	0.17097
2495.56240	0.17175
2493.63384	0.17243
2491.70527	0.17311
2489.77671	0.17392
2487.84814	0.17496
2485.91958	0.17609
2483.99102	0.17706
2482.06245	0.17783
2480.13389	0.17848
2478.20532	0.17914
2476.27676	0.17993
2474.34819	0.18078
2472.41963	0.18164
2470.49106	0.18258
2468.56250	0.18355
2466.63394	0.18441
2464.70537	0.18524
2462.77681	0.18614
2460.84824	0.18707
2458.91968	0.18799
2456.99111	0.18895
2455.06255	0.18994
2453.13398	0.19087
2451.20542	0.19169
2449.27686	0.19256
2447.34829	0.19354
2445.41973	0.19446
2443.49116	0.19537
2441.56260	0.19637
2439.63403	0.19732
2437.70547	0.19822
2435.77690	0.19924
2433.84834	0.20040
2431.91978	0.20157
2429.99121	0.20261
2428.06265	0.20349
2426.13408	0.20432
2424.20552	0.20528
2422.27695	0.20637
2420.34839	0.20749
2418.41982	0.20863
2416.49126	0.20977
2414.56270	0.21092
2412.63413	0.21211
2410.70557	0.21328
2408.77700	0.21439
2406.84844	0.21543
2404.91987	0.21641
2402.99131	0.21753
2401.06274	0.21877
2399.13418	0.21995
2397.20562	0.22112
2395.27705	0.22229
2393.34849	0.22347
2391.41992	0.22480
2389.49136	0.22633
2387.56279	0.22828
2385.63423	0.23098
2383.70566	0.23468
2381.77710	0.23954
2379.84854	0.24546
2377.91997	0.25218
2375.99141	0.25968
2374.06284	0.26829
2372.13428	0.27808
2370.20571	0.28881
2368.27715	0.29991
2366.34858	0.31064
2364.42002	0.31999
2362.49146	0.32632
2360.56289	0.32987
2358.63433	0.33185
2356.70576	0.33059
2354.77720	0.32452
2352.84863	0.31525
2350.92007	0.30557
2348.99150	0.29980
2347.06294	0.30073
2345.13437	0.30836
2343.20581	0.31821
2341.27725	0.32377
2339.34868	0.32510
2337.42012	0.32515
2335.49155	0.32491
2333.56299	0.32445
2331.63442	0.32450
2329.70586	0.32472
2327.77729	0.32430
2325.84873	0.32289
2323.92017	0.32084
2321.99160	0.31891
2320.06304	0.31686
2318.13447	0.31426
2316.20591	0.31184
2314.27734	0.31044
2312.34878	0.30982
2310.42021	0.30931
2308.49165	0.30864
2306.56309	0.30788
2304.63452	0.30729
2302.70596	0.30717
2300.77739	0.30753
2298.84883	0.30809
2296.92026	0.30867
2294.99170	0.30929
2293.06313	0.30999
2291.13457	0.31078
2289.20601	0.31165
2287.27744	0.31258
2285.34888	0.31362
2283.42031	0.31493
2281.49175	0.31665
2279.56318	0.31873
2277.63462	0.32087
2275.70605	0.32299
2273.77749	0.32516
2271.84893	0.32727
2269.92036	0.32924
2267.99180	0.33114
2266.06323	0.33300
2264.13467	0.33481
2262.20610	0.33672
2260.27754	0.33874
2258.34897	0.34067
2256.42041	0.34248
2254.49185	0.34425
2252.56328	0.34610
2250.63472	0.34803
2248.70615	0.35004
2246.77759	0.35221
2244.84902	0.35442
2242.92046	0.35645
2240.99189	0.35838
2239.06333	0.36046
2237.13477	0.36267
2235.20620	0.36491
2233.27764	0.36716
2231.34907	0.36937
2229.42051	0.37146
2227.49194	0.37352
2225.56338	0.37567
2223.63481	0.37786
2221.70625	0.38007
2219.77769	0.38225
2217.84912	0.38433
2215.92056	0.38640
2213.99199	0.38851
2212.06343	0.39067
2210.13486	0.39274
2208.20630	0.39473
2206.27773	0.39687
2204.34917	0.39914
2202.42061	0.40126
2200.49204	0.40316
2198.56348	0.40506
2196.63491	0.40703
2194.70635	0.40897
2192.77778	0.41081
2190.84922	0.41260
2188.92065	0.41440
2186.99209	0.41624
2185.06353	0.41808
2183.13496	0.41991
2181.20640	0.42167
2179.27783	0.42327
2177.34927	0.42474
2175.42070	0.42624
2173.49214	0.42784
2171.56357	0.42938
2169.63501	0.43081
2167.70645	0.43217
2165.77788	0.43346
2163.84932	0.43470
2161.92075	0.43584
2159.99219	0.43687
2158.06362	0.43785
2156.13506	0.43881
2154.20649	0.43970
2152.27793	0.44056
2150.34937	0.44140
2148.42080	0.44215
2146.49224	0.44282
2144.56367	0.44340
2142.63511	0.44389
2140.70654	0.44433
2138.77798	0.44476
2136.84941	0.44507
2134.92085	0.44517
2132.99229	0.44514
2131.06372	0.44512
2129.13516	0.44507
2127.20659	0.44497
2125.27803	0.44477
2123.34946	0.44450
2121.42090	0.44423
2119.49233	0.44385
2117.56377	0.44334
2115.63521	0.44279
2113.70664	0.44216
2111.77808	0.44136
2109.84951	0.44040
2107.92095	0.43937
2105.99238	0.43843
2104.06382	0.43749
2102.13525	0.43627
2100.20669	0.43493
2098.27812	0.43367
2096.34956	0.43235
2094.42100	0.43096
2092.49243	0.42962
2090.56387	0.42825
2088.63530	0.42669
2086.70674	0.42493
2084.77817	0.42309
2082.84961	0.42128
2080.92104	0.41944
2078.99248	0.41758
2077.06392	0.41571
2075.13535	0.41372
2073.20679	0.41163
2071.27822	0.40954
2069.34966	0.40746
2067.42109	0.40527
2065.49253	0.40300
2063.56396	0.40077
2061.63540	0.39857
2059.70684	0.39629
2057.77827	0.39387
2055.84971	0.39138
2053.92114	0.38894
2051.99258	0.38649
2050.06401	0.38391
2048.13545	0.38136
2046.20688	0.37890
2044.27832	0.37645
2042.34976	0.37390
2040.42119	0.37122
2038.49263	0.36855
2036.56406	0.36597
2034.63550	0.36339
2032.70693	0.36079
2030.77837	0.35818
2028.84980	0.35547
2026.92124	0.35270
2024.99268	0.34991
2023.06411	0.34710
2021.13555	0.34439
2019.20698	0.34187
2017.27842	0.33935
2015.34985	0.33663
2013.42129	0.33387
2011.49272	0.33119
2009.56416	0.32853
2007.63560	0.32587
2005.70703	0.32324
2003.77847	0.32055
2001.84990	0.31789
1999.92134	0.31530
1997.99277	0.31270
1996.06421	0.31015
1994.13564	0.30775
1992.20708	0.30539
1990.27852	0.30290
1988.34995	0.30043
1986.42139	0.29797
1984.49282	0.29551
1982.56426	0.29315
1980.63569	0.29087
1978.70713	0.28867
1976.77856	0.28650
1974.85000	0.28429
1972.92144	0.28212
1970.99287	0.28008
1969.06431	0.27810
1967.13574	0.27606
1965.20718	0.27400
1963.27861	0.27201
1961.35005	0.27013
1959.42148	0.26827
1957.49292	0.26647
1955.56436	0.26475
1953.63579	0.26298
1951.70723	0.26119
1949.77866	0.25949
1947.85010	0.25788
1945.92153	0.25638
1943.99297	0.25494
1942.06440	0.25337
1940.13584	0.25168
1938.20728	0.25011
1936.27871	0.24877
1934.35015	0.24751
1932.42158	0.24628
1930.49302	0.24511
1928.56445	0.24399
1926.63589	0.24288
1924.70732	0.24195
1922.77876	0.24106
1920.85020	0.24008
1918.92163	0.23917
1916.99307	0.23820
1915.06450	0.23715
1913.13594	0.23625
1911.20737	0.23558
1909.27881	0.23492
1907.35024	0.23418
1905.42168	0.23346
1903.49312	0.23283
1901.56455	0.23219
1899.63599	0.23151
1897.70742	0.23101
1895.77886	0.23066
1893.85029	0.23036
1891.92173	0.23013
1889.99316	0.23005
1888.06460	0.22981
1886.13604	0.22937
1884.20747	0.22901
1882.27891	0.22874
1880.35034	0.22856
1878.42178	0.22845
1876.49321	0.22840
1874.56465	0.22836
1872.63608	0.22847
1870.70752	0.22885
1868.77896	0.22945
1866.85039	0.22970
1864.92183	0.22950
1862.99326	0.22941
1861.06470	0.22955
1859.13613	0.22982
1857.20757	0.23008
1855.27900	0.23046
1853.35044	0.23088
1851.42187	0.23138
1849.49331	0.23204
1847.56475	0.23286
1845.63618	0.23384
1843.70762	0.23492
1841.77905	0.23553
1839.85049	0.23578
1837.92192	0.23645
1835.99336	0.23738
1834.06479	0.23828
1832.13623	0.23930
1830.20767	0.24074
1828.27910	0.24220
1826.35054	0.24322
1824.42197	0.24439
1822.49341	0.24556
1820.56484	0.24667
1818.63628	0.24794
1816.70771	0.24950
1814.77915	0.25113
1812.85059	0.25292
1810.92202	0.25498
1808.99346	0.25697
1807.06489	0.25877
1805.13633	0.26055
1803.20776	0.26269
1801.27920	0.26516
1799.35063	0.26798
1797.42207	0.27055
1795.49351	0.27292
1793.56494	0.27566
1791.63638	0.27922
1789.70781	0.28252
1787.77925	0.28495
1785.85068	0.28798
1783.92212	0.29170
1781.99355	0.29564
1780.06499	0.29971
1778.13643	0.30389
1776.20786	0.30788
1774.27930	0.31220
1772.35073	0.31804
1770.42217	0.32427
1768.49360	0.32935
1766.56504	0.33425
1764.63647	0.33944
1762.70791	0.34521
1760.77935	0.35245
1758.85078	0.35923
1756.92222	0.36606
1754.99365	0.37357
1753.06509	0.38039
1751.13652	0.38853
1749.20796	0.39889
1747.27939	0.40906
1745.35083	0.41784
1743.42227	0.42715
1741.49370	0.43754
1739.56514	0.44981
1737.63657	0.46199
1735.70801	0.47256
1733.77944	0.48869
1731.85088	0.50824
1729.92231	0.52366
1727.99375	0.53911
1726.06519	0.55564
1724.13662	0.57371
1722.20806	0.59339
1720.27949	0.61173
1718.35093	0.63305
1716.42236	0.66422
1714.49380	0.69403
1712.56523	0.71849
1710.63667	0.74244
1708.70811	0.76828
1706.77954	0.79749
1704.85098	0.83222
1702.92241	0.86326
1700.99385	0.89415
1699.06528	0.94040
1697.13672	0.98318
1695.20815	1.02739
1693.27959	1.07056
1691.35103	1.10543
1689.42246	1.14604
1687.49390	1.18903
1685.56533	1.22996
1683.63677	1.29356
1681.70820	1.36125
1679.77964	1.40473
1677.85107	1.44568
1675.92251	1.49287
1673.99395	1.55159
1672.06538	1.60418
1670.13682	1.65559
1668.20825	1.72238
1666.27969	1.77767
1664.35112	1.82582
1662.42256	1.88703
1660.49399	1.95577
1658.56543	2.00846
1656.63687	2.05019
1654.70830	2.08798
1652.77974	2.14796
1650.85117	2.20502
1648.92261	2.22227
1646.99404	2.24369
1645.06548	2.27305
1643.13691	2.29584
1641.20835	2.30873
1639.27979	2.31795
1637.35122	2.32154
1635.42266	2.32052
1633.49409	2.31460
1631.56553	2.30088
1629.63696	2.28320
1627.70840	2.25474
1625.77983	2.22075
1623.85127	2.17755
1621.92271	2.12596
1619.99414	2.07943
1618.06558	2.03256
1616.13701	1.96722
1614.20845	1.90206
1612.27988	1.85223
1610.35132	1.79956
1608.42275	1.74191
1606.49419	1.68521
1604.56562	1.63337
1602.63706	1.58330
1600.70850	1.53478
1598.77993	1.49079
1596.85137	1.44942
1594.92280	1.40883
1592.99424	1.36948
1591.06567	1.33350
1589.13711	1.29994
1587.20854	1.26869
1585.27998	1.23981
1583.35142	1.21291
1581.42285	1.18852
1579.49429	1.16801
1577.56572	1.15017
1575.63716	1.12919
1573.70859	1.11061
1571.78003	1.09839
1569.85146	1.08622
1567.92290	1.07331
1565.99434	1.06394
1564.06577	1.05734
1562.13721	1.05277
1560.20864	1.05036
1558.28008	1.04980
1556.35151	1.05055
1554.42295	1.05104
1552.49438	1.05139
1550.56582	1.05047
1548.63726	1.04733
1546.70869	1.04184
1544.78013	1.03343
1542.85156	1.02185
1540.92300	1.00469
1538.99443	0.97817
1537.06587	0.95867
1535.13730	0.94521
1533.20874	0.92727
1531.28018	0.90815
1529.35161	0.89439
1527.42305	0.88136
1525.49448	0.86756
1523.56592	0.85594
1521.63735	0.84512
1519.70879	0.83388
1517.78022	0.82432
1515.85166	0.81338
1513.92310	0.80174
1511.99453	0.79159
1510.06597	0.78247
1508.13740	0.77354
1506.20884	0.75994
1504.28027	0.74822
1502.35171	0.74157
1500.42314	0.73581
1498.49458	0.72982
1496.56602	0.72266
1494.63745	0.71524
1492.70889	0.70950
1490.78032	0.70470
1488.85176	0.69935
1486.92319	0.69415
1484.99463	0.68991
1483.06606	0.68670
1481.13750	0.68434
1479.20894	0.68259
1477.28037	0.68145
1475.35181	0.68095
1473.42324	0.68081
1471.49468	0.67979
1469.56611	0.67767
1467.63755	0.67547
1465.70898	0.67362
1463.78042	0.67221
1461.85186	0.67131
1459.92329	0.67101
1457.99473	0.67123
1456.06616	0.67052
1454.13760	0.66804
1452.20903	0.66543
1450.28047	0.66297
1448.35190	0.66067
1446.42334	0.65830
1444.49478	0.65584
1442.56621	0.65335
1440.63765	0.65076
1438.70908	0.64813
1436.78052	0.64498
1434.85195	0.64132
1432.92339	0.63838
1430.99482	0.63647
1429.06626	0.63537
1427.13770	0.63477
1425.20913	0.63465
1423.28057	0.63503
1421.35200	0.63538
1419.42344	0.63545
1417.49487	0.63492
1415.56631	0.63375
1413.63774	0.63295
1411.70918	0.63294
1409.78062	0.63357
1407.85205	0.63453
1405.92349	0.63577
1403.99492	0.63691
1402.06636	0.63721
1400.13779	0.63683
1398.20923	0.63587
1396.28066	0.63406
1394.35210	0.63093
1392.42354	0.62684
1390.49497	0.62287
1388.56641	0.61910
1386.63784	0.61492
1384.70928	0.61039
1382.78071	0.60601
1380.85215	0.60190
1378.92358	0.59848
1376.99502	0.59593
1375.06646	0.59405
1373.13789	0.59265
1371.20933	0.59165
1369.28076	0.59083
1367.35220	0.58974
1365.42363	0.58832
1363.49507	0.58688
1361.56650	0.58545
1359.63794	0.58401
1357.70937	0.58269
1355.78081	0.58156
1353.85225	0.58064
1351.92368	0.57992
1349.99512	0.57924
1348.06655	0.57844
1346.13799	0.57755
1344.20942	0.57667
1342.28086	0.57589
1340.35229	0.57538
1338.42373	0.57502
1336.49517	0.57452
1334.56660	0.57390
1332.63804	0.57352
1330.70947	0.57360
1328.78091	0.57395
1326.85234	0.57436
1324.92378	0.57476
1322.99521	0.57514
1321.06665	0.57558
1319.13809	0.57611
1317.20952	0.57646
1315.28096	0.57632
1313.35239	0.57581
1311.42383	0.57525
1309.49526	0.57477
1307.56670	0.57436
1305.63813	0.57391
1303.70957	0.57330
1301.78101	0.57268
1299.85244	0.57200
1297.92388	0.57104
1295.99531	0.56993
1294.06675	0.56886
1292.13818	0.56777
1290.20962	0.56662
1288.28105	0.56545
1286.35249	0.56425
1284.42393	0.56303
1282.49536	0.56186
1280.56680	0.56068
1278.63823	0.55941
1276.70967	0.55829
1274.78110	0.55748
1272.85254	0.55682
1270.92397	0.55612
1268.99541	0.55536
1267.06685	0.55459
1265.13828	0.55391
1263.20972	0.55333
1261.28115	0.55266
1259.35259	0.55188
1257.42402	0.55124
1255.49546	0.55090
1253.56689	0.55091
1251.63833	0.55108
1249.70977	0.55116
1247.78120	0.55111
1245.85264	0.55101
1243.92407	0.55070
1241.99551	0.54999
1240.06694	0.54881
1238.13838	0.54734
1236.20981	0.54571
1234.28125	0.54386
1232.35269	0.54186
1230.42412	0.53999
1228.49556	0.53829
1226.56699	0.53652
1224.63843	0.53464
1222.70986	0.53295
1220.78130	0.53158
1218.85273	0.53037
1216.92417	0.52926
1214.99561	0.52822
1213.06704	0.52730
1211.13848	0.52657
1209.20991	0.52602
1207.28135	0.52554
1205.35278	0.52500
1203.42422	0.52430
1201.49565	0.52346
1199.56709	0.52252
1197.63853	0.52164
1195.70996	0.52099
1193.78140	0.52052
1191.85283	0.52012
1189.92427	0.51970
1187.99570	0.51931
1186.06714	0.51908
1184.13857	0.51907
1182.21001	0.51943
1180.28145	0.52042
1178.35288	0.52183
1176.42432	0.52326
1174.49575	0.52460
1172.56719	0.52557
1170.63862	0.52605
1168.71006	0.52627
1166.78149	0.52634
1164.85293	0.52631
1162.92437	0.52626
1160.99580	0.52612
1159.06724	0.52573
1157.13867	0.52503
1155.21011	0.52413
1153.28154	0.52298
1151.35298	0.52130
1149.42441	0.51916
1147.49585	0.51674
1145.56729	0.51409
1143.63872	0.51152
1141.71016	0.50920
1139.78159	0.50710
1137.85303	0.50536
1135.92446	0.50401
1133.99590	0.50307
1132.06733	0.50261
1130.13877	0.50231
1128.21021	0.50168
1126.28164	0.50074
1124.35308	0.49989
1122.42451	0.49939
1120.49595	0.49926
1118.56738	0.49937
1116.63882	0.49970
1114.71025	0.50019
1112.78169	0.50081
1110.85312	0.50158
1108.92456	0.50247
1106.99600	0.50336
1105.06743	0.50439
1103.13887	0.50568
1101.21030	0.50723
1099.28174	0.50896
1097.35317	0.51090
1095.42461	0.51339
1093.49604	0.51678
1091.56748	0.52123
1089.63892	0.52686
1087.71035	0.53356
1085.78179	0.54103
1083.85322	0.54882
1081.92466	0.55601
1079.99609	0.56132
1078.06753	0.56391
1076.13896	0.56381
1074.21040	0.56115
1072.28184	0.55630
1070.35327	0.55002
1068.42471	0.54317
1066.49614	0.53648
1064.56758	0.53033
1062.63901	0.52467
1060.71045	0.51952
1058.78188	0.51512
1056.85332	0.51122
1054.92476	0.50754
1052.99619	0.50448
1051.06763	0.50214
1049.13906	0.50022
1047.21050	0.49883
1045.28193	0.49785
1043.35337	0.49682
1041.42480	0.49589
1039.49624	0.49539
1037.56768	0.49516
1035.63911	0.49496
1033.71055	0.49454
1031.78198	0.49393
1029.85342	0.49323
1027.92485	0.49239
1025.99629	0.49156
1024.06772	0.49091
1022.13916	0.49053
1020.21060	0.49051
1018.28203	0.49073
1016.35347	0.49087
1014.42490	0.49095
1012.49634	0.49118
1010.56777	0.49166
1008.63921	0.49242
1006.71064	0.49336
1004.78208	0.49458
1002.85352	0.49633
1000.92495	0.49872
998.99639	0.50184
997.06782	0.50567
995.13926	0.50987
993.21069	0.51395
991.28213	0.51724
989.35356	0.51928
987.42500	0.52022
985.49644	0.52061
983.56787	0.52095
981.63931	0.52155
979.71074	0.52249
977.78218	0.52374
975.85361	0.52535
973.92505	0.52751
971.99648	0.53028
970.06792	0.53352
968.13936	0.53719
966.21079	0.54136
964.28223	0.54580
962.35366	0.55030
960.42510	0.55490
958.49653	0.55982
956.56797	0.56524
954.63940	0.57118
952.71084	0.57727
950.78228	0.58338
948.85371	0.58984
946.92515	0.59633
944.99658	0.60224
943.06802	0.60780
941.13945	0.61342
939.21089	0.61902
937.28232	0.62444
935.35376	0.62989
933.42520	0.63536
931.49663	0.64114
929.56807	0.64744
927.63950	0.65344
925.71094	0.65866
923.78237	0.66405
921.85381	0.67021
919.92524	0.67687
917.99668	0.68399
916.06812	0.69102
914.13955	0.69800
912.21099	0.70570
910.28242	0.71330
908.35386	0.72071
906.42529	0.72881
904.49673	0.73733
902.56816	0.74608
900.63960	0.75596
898.71104	0.76655
896.78247	0.77538
894.85391	0.78282
892.92534	0.79206
890.99678	0.80341
889.06821	0.81481
887.13965	0.82550
885.21108	0.83594
883.28252	0.84604
881.35396	0.85635
879.42539	0.86718
877.49683	0.87743
875.56826	0.88838
873.63970	0.90119
871.71113	0.91383
869.78257	0.92488
867.85400	0.93490
865.92544	0.94468
863.99687	0.95502
862.06831	0.96694
860.13975	0.97898
858.21118	0.98944
856.28262	1.00048
854.35405	1.01398
852.42549	1.02752
850.49692	1.03826
848.56836	1.04821
846.63979	1.06059
844.71123	1.07436
842.78267	1.08594
840.85410	1.09412
838.92554	1.10245
836.99697	1.11392
835.06841	1.12612
833.13984	1.13713
831.21128	1.14792
829.28271	1.15899
827.35415	1.17061
825.42559	1.18122
823.49702	1.19068
821.56846	1.20366
819.63989	1.22224
817.71133	1.23286
815.78276	1.22845
813.85420	1.22955
811.92563	1.24234
809.99707	1.25066
808.06851	1.25762
806.13994	1.27719
804.21138	1.29914
802.28281	1.30823
800.35425	1.31177
798.42568	1.32140
796.49712	1.33808
794.56855	1.38169
792.63999	1.45385
790.71143	1.45226
788.78286	1.38303
786.85430	1.35862
784.92573	1.36906
782.99717	1.35726
781.06860	1.31367
779.14004	1.25945
777.21147	1.22240
775.28291	1.21467
773.35435	1.21470
771.42578	1.21380
769.49722	1.23666
767.56865	1.27795
765.64009	1.26956
763.71152	1.23774
761.78296	1.24731
759.85439	1.22862
757.92583	1.15118
755.99727	1.07026
754.06870	1.00839
752.14014	1.01038
750.21157	1.10620
748.28301	1.23678
746.35444	1.27717
744.42588	1.21945
742.49731	1.08574
740.56875	0.91692
738.64019	0.80373
736.71162	0.78813
734.78306	0.84780
732.85449	0.73303
730.92593	0.43096
728.99736	0.22687
727.06880	0.15398
725.14023	0.06570
723.21167	-0.13090
721.28311	-0.68590
719.35454	-0.51967
717.42598	-0.08685
715.49741	0.14350
713.56885	0.25205
711.64028	0.27767
709.71172	0.34158
707.78315	0.38384
705.85459	0.36692
703.92603	0.38532
701.99746	0.44660
700.06890	0.41667
698.14033	0.37473
696.21177	0.39899
694.28320	0.40215
692.35464	0.37664
690.42607	0.42972
688.49751	0.54600
686.56895	0.54499
684.64038	0.47823
682.71182	0.38790
680.78325	0.32133
678.85469	0.33602
676.92612	0.37724
674.99756	0.38512
673.06899	0.41279
671.14043	0.44555
669.21187	0.46343
667.28330	0.51589
665.35474	0.55150
663.42617	0.50744
661.49761	0.45394
659.56904	0.39917
657.64048	0.39290
655.71191	0.50136
653.78335	0.58521
651.85479	0.44065
649.92622	0.31156
647.99766	0.29701
646.06909	0.37364
644.14053	0.43805
642.21196	0.40198
640.28340	0.36549
638.35483	0.43773
636.42627	0.55178
634.49771	0.46934
632.56914	0.34012
630.64058	0.29814
628.71201	0.31155
626.78345	0.33960
624.85488	0.37617
622.92632	0.43351
620.99775	0.52672
619.06919	0.62770
617.14062	0.61750
615.21206	0.48778
613.28350	0.37555
611.35493	0.32733
609.42637	0.35755
607.49780	0.47935
605.56924	0.58280
603.64067	0.49744
601.71211	0.42618
599.78354	0.42312
597.85498	0.40824
595.92642	0.40362
593.99785	0.44940
592.06929	0.44505
590.14072	0.37401
588.21216	0.34118
586.28359	0.32297
584.35503	0.32867
582.42646	0.38385
580.49790	0.36430
578.56934	0.29501
576.64077	0.29877
574.71221	0.34860
572.78364	0.37121
570.85508	0.36119
568.92651	0.34683
566.99795	0.37061
565.06938	0.43097
563.14082	0.43500
561.21226	0.40894
559.28369	0.36716
557.35513	0.31166
555.42656	0.31899
553.49800	0.37113
551.56943	0.37439
549.64087	0.35916
547.71230	0.36348
545.78374	0.35605
543.85518	0.35918
541.92661	0.39473
539.99805	0.38877
538.06948	0.35407
536.14092	0.32487
534.21235	0.28236
532.28379	0.27061
530.35522	0.31014
528.42666	0.34701
526.49810	0.33824
524.56953	0.33324
522.64097	0.40799
520.71240	0.65202
518.78384	0.64801
516.85527	0.33968
514.92671	0.23129
512.99814	0.26028
511.06958	0.37735
509.14102	0.38921
507.21245	0.31506
505.28389	0.30083
503.35532	0.33573
501.42676	0.34993
499.49819	0.26518
