3997.91411	0.06774
3995.98555	0.06838
3994.05698	0.06876
3992.12842	0.06890
3990.19985	0.06911
3988.27129	0.06928
3986.34272	0.06909
3984.41416	0.06901
3982.48560	0.06935
3980.55703	0.06982
3978.62847	0.07058
3976.69990	0.07153
3974.77134	0.07204
3972.84277	0.07220
3970.91421	0.07227
3968.98564	0.07208
3967.05708	0.07176
3965.12852	0.07182
3963.19995	0.07238
3961.27139	0.07286
3959.34282	0.07276
3957.41426	0.07236
3955.48569	0.07216
3953.55713	0.07235
3951.62856	0.07345
3949.70000	0.07526
3947.77144	0.07622
3945.84287	0.07590
3943.91431	0.07586
3941.98574	0.07615
3940.05718	0.07521
3938.12861	0.07371
3936.20005	0.07325
3934.27148	0.07425
3932.34292	0.07606
3930.41436	0.07698
3928.48579	0.07628
3926.55723	0.07577
3924.62866	0.07653
3922.70010	0.07701
3920.77153	0.07653
3918.84297	0.07648
3916.91440	0.07670
3914.98584	0.07543
3913.05728	0.07305
3911.12871	0.07148
3909.20015	0.07136
3907.27158	0.07313
3905.34302	0.07757
3903.41445	0.08318
3901.48589	0.08569
3899.55732	0.08428
3897.62876	0.08099
3895.70020	0.07766
3893.77163	0.07676
3891.84307	0.07841
3889.91450	0.07882
3887.98594	0.07740
3886.05737	0.07843
3884.12881	0.08122
3882.20024	0.08251
3880.27168	0.08274
3878.34312	0.08105
3876.41455	0.07915
3874.48599	0.08060
3872.55742	0.08377
3870.62886	0.08595
3868.70029	0.08643
3866.77173	0.08539
3864.84316	0.08563
3862.91460	0.08629
3860.98604	0.08414
3859.05747	0.08180
3857.12891	0.08286
3855.20034	0.08768
3853.27178	0.09458
3851.34321	0.09545
3849.41465	0.08886
3847.48608	0.08375
3845.55752	0.08266
3843.62896	0.08534
3841.70039	0.08994
3839.77183	0.09481
3837.84326	0.09884
3835.91470	0.09898
3833.98613	0.09591
3832.05757	0.09319
3830.12900	0.09164
3828.20044	0.09133
3826.27187	0.09243
3824.34331	0.09430
3822.41475	0.09764
3820.48618	0.10267
3818.55762	0.10415
3816.62905	0.10269
3814.70049	0.10082
3812.77192	0.09735
3810.84336	0.09493
3808.91479	0.09590
3806.98623	0.09983
3805.05767	0.10356
3803.12910	0.10670
3801.20054	0.11150
3799.27197	0.11392
3797.34341	0.11265
3795.41484	0.11076
3793.48628	0.10797
3791.55771	0.10605
3789.62915	0.10638
3787.70059	0.10829
3785.77202	0.11133
3783.84346	0.11399
3781.91489	0.11512
3779.98633	0.11710
3778.05776	0.12011
3776.12920	0.12078
3774.20063	0.12028
3772.27207	0.12161
3770.34351	0.12549
3768.41494	0.12996
3766.48638	0.13249
3764.55781	0.13381
3762.62925	0.13488
3760.70068	0.13753
3758.77212	0.14238
3756.84355	0.14624
3754.91499	0.14876
3752.98643	0.15404
3751.05786	0.16357
3749.12930	0.17091
3747.20073	0.17130
3745.27217	0.17206
3743.34360	0.17527
3741.41504	0.17725
3739.48647	0.17946
3737.55791	0.18515
3735.62935	0.19533
3733.70078	0.20558
3731.77222	0.20877
3729.84365	0.20853
3727.91509	0.21070
3725.98652	0.21671
3724.05796	0.22407
3722.12939	0.22982
3720.20083	0.23418
3718.27227	0.23812
3716.34370	0.24282
3714.41514	0.24998
3712.48657	0.26267
3710.55801	0.28150
3708.62944	0.29681
3706.70088	0.30540
3704.77231	0.31454
3702.84375	0.32783
3700.91519	0.34555
3698.98662	0.36368
3697.05806	0.38054
3695.12949	0.39946
3693.20093	0.42108
3691.27236	0.44608
3689.34380	0.47729
3687.41523	0.51101
3685.48667	0.53786
3683.55811	0.56170
3681.62954	0.58953
3679.70098	0.62320
3677.77241	0.66064
3675.84385	0.70528
3673.91528	0.76070
3671.98672	0.80250
3670.05815	0.84087
3668.12959	0.89418
3666.20103	0.94034
3664.27246	0.97860
3662.34390	1.02159
3660.41533	1.06965
3658.48677	1.11828
3656.55820	1.17052
3654.62964	1.22748
3652.70107	1.27495
3650.77251	1.31908
3648.84395	1.38208
3646.91538	1.45321
3644.98682	1.49885
3643.05825	1.53372
3641.12969	1.57234
3639.20112	1.61684
3637.27256	1.66267
3635.34399	1.70800
3633.41543	1.75436
3631.48687	1.79889
3629.55830	1.84450
3627.62974	1.90162
3625.70117	1.94990
3623.77261	1.98021
3621.84404	2.01152
3619.91548	2.05031
3617.98691	2.09798
3616.05835	2.14237
3614.12979	2.17828
3612.20122	2.21633
3610.27266	2.25456
3608.34409	2.29404
3606.41553	2.33751
3604.48696	2.37681
3602.55840	2.41122
3600.62983	2.44991
3598.70127	2.49257
3596.77271	2.53298
3594.84414	2.57304
3592.91558	2.61427
3590.98701	2.65239
3589.05845	2.68836
3587.12988	2.73348
3585.20132	2.78184
3583.27275	2.81992
3581.34419	2.85515
3579.41562	2.89338
3577.48706	2.93394
3575.55850	2.97597
3573.62993	3.01999
3571.70137	3.06308
3569.77280	3.10492
3567.84424	3.15107
3565.91567	3.20692
3563.98711	3.25603
3562.05854	3.29153
3560.12998	3.32884
3558.20142	3.37299
3556.27285	3.41881
3554.34429	3.46402
3552.41572	3.51248
3550.48716	3.55960
3548.55859	3.60151
3546.63003	3.64618
3544.70146	3.69872
3542.77290	3.75038
3540.84434	3.79412
3538.91577	3.83420
3536.98721	3.87576
3535.05864	3.92210
3533.13008	3.97020
3531.20151	4.01912
3529.27295	4.07101
3527.34438	4.12405
3525.41582	4.17259
3523.48726	4.21744
3521.55869	4.26378
3519.63013	4.31170
3517.70156	4.36072
3515.77300	4.40585
3513.84443	4.44741
3511.91587	4.49247
3509.98730	4.54445
3508.05874	4.60263
3506.13018	4.65697
3504.20161	4.69891
3502.27305	4.73558
3500.34448	4.77909
3498.41592	4.82867
3496.48735	4.87896
3494.55879	4.93251
3492.63022	4.99066
3490.70166	5.04494
3488.77310	5.09213
3486.84453	5.13661
3484.91597	5.18197
3482.98740	5.22995
3481.05884	5.27683
3479.13027	5.32259
3477.20171	5.37278
3475.27314	5.42556
3473.34458	5.48014
3471.41602	5.53351
3469.48745	5.57445
3467.55889	5.60716
3465.63032	5.65055
3463.70176	5.70849
3461.77319	5.76400
3459.84463	5.81528
3457.91606	5.87518
3455.98750	5.93667
3454.05894	5.97865
3452.13037	6.01203
3450.20181	6.06392
3448.27324	6.12648
3446.34468	6.18654
3444.41611	6.23851
3442.48755	6.28235
3440.55898	6.32026
3438.63042	6.35793
3436.70186	6.41139
3434.77329	6.48186
3432.84473	6.54213
3430.91616	6.57735
3428.98760	6.60817
3427.05903	6.64875
3425.13047	6.71532
3423.20190	6.79776
3421.27334	6.87296
3419.34478	6.93012
3417.41621	6.95606
3415.48765	6.97014
3413.55908	6.99932
3411.63052	7.06183
3409.70195	7.13673
3407.77339	7.19226
3405.84482	7.25008
3403.91626	7.31916
3401.98770	7.33520
3400.05913	7.31026
3398.13057	7.33227
3396.20200	7.41054
3394.27344	7.49684
3392.34487	7.55208
3390.41631	7.57782
3388.48774	7.56299
3386.55918	7.56784
3384.63062	7.63340
3382.70205	7.68145
3380.77349	7.69304
3378.84492	7.71772
3376.91636	7.77819
3374.98779	7.83200
3373.05923	7.83384
3371.13066	7.81474
3369.20210	7.83812
3367.27354	7.88292
3365.34497	7.89351
3363.41641	7.86008
3361.48784	7.81850
3359.55928	7.85038
3357.63071	7.97264
3355.70215	8.08511
3353.77358	8.10244
3351.84502	8.12006
3349.91646	8.14679
3347.98789	8.09502
3346.05933	8.06161
3344.13076	8.13578
3342.20220	8.20565
3340.27363	8.19321
3338.34507	8.17673
3336.41650	8.13024
3334.48794	8.09956
3332.55937	8.17941
3330.63081	8.26578
3328.70225	8.22811
3326.77368	8.15814
3324.84512	8.15620
3322.91655	8.18879
3320.98799	8.21120
3319.05942	8.19785
3317.13086	8.18805
3315.20229	8.22644
3313.27373	8.29978
3311.34517	8.33392
3309.41660	8.34318
3307.48804	8.38201
3305.55947	8.36314
3303.63091	8.31395
3301.70234	8.29855
3299.77378	8.25265
3297.84521	8.21399
3295.91665	8.30409
3293.98809	8.37275
3292.05952	8.25851
3290.13096	8.19608
3288.20239	8.30047
3286.27383	8.36756
3284.34526	8.28443
3282.41670	8.23274
3280.48813	8.25076
3278.55957	8.26650
3276.63101	8.29667
3274.70244	8.30796
3272.77388	8.26443
3270.84531	8.26245
3268.91675	8.29142
3266.98818	8.23887
3265.05962	8.19561
3263.13105	8.24564
3261.20249	8.33432
3259.27393	8.36739
3257.34536	8.35528
3255.41680	8.42768
3253.48823	8.54907
3251.55967	8.50534
3249.63110	8.31826
3247.70254	8.20697
3245.77397	8.18817
3243.84541	8.14503
3241.91685	8.13393
3239.98828	8.26311
3238.05972	8.37795
3236.13115	8.29388
3234.20259	8.14202
3232.27402	8.01876
3230.34546	7.94134
3228.41689	7.99599
3226.48833	8.13007
3224.55977	8.13361
3222.63120	8.05833
3220.70264	8.07843
3218.77407	8.18288
3216.84551	8.24643
3214.91694	8.20795
3212.98838	8.13588
3211.05981	8.08548
3209.13125	8.02903
3207.20269	7.91692
3205.27412	7.81880
3203.34556	7.82415
3201.41699	7.85949
3199.48843	7.83111
3197.55986	7.78927
3195.63130	7.78499
3193.70273	7.78025
3191.77417	7.70917
3189.84561	7.61345
3187.91704	7.57916
3185.98848	7.57862
3184.05991	7.54276
3182.13135	7.47919
3180.20278	7.42910
3178.27422	7.36914
3176.34565	7.26618
3174.41709	7.15417
3172.48853	7.06798
3170.55996	7.00311
3168.63140	6.94502
3166.70283	6.89583
3164.77427	6.84878
3162.84570	6.78802
3160.91714	6.71966
3158.98857	6.64215
3157.06001	6.55967
3155.13145	6.49509
3153.20288	6.43367
3151.27432	6.35247
3149.34575	6.26269
3147.41719	6.18860
3145.48862	6.13676
3143.56006	6.07871
3141.63149	6.00221
3139.70293	5.93018
3137.77437	5.86504
3135.84580	5.79088
3133.91724	5.71296
3131.98867	5.63886
3130.06011	5.56467
3128.13154	5.49184
3126.20298	5.42212
3124.27441	5.35181
3122.34585	5.27846
3120.41729	5.20252
3118.48872	5.12627
3116.56016	5.05605
3114.63159	4.99196
3112.70303	4.92475
3110.77446	4.84867
3108.84590	4.77050
3106.91733	4.69924
3104.98877	4.63332
3103.06021	4.56787
3101.13164	4.49794
3099.20308	4.42675
3097.27451	4.36100
3095.34595	4.29596
3093.41738	4.22821
3091.48882	4.16174
3089.56025	4.09810
3087.63169	4.03492
3085.70312	3.97224
3083.77456	3.91193
3081.84600	3.85229
3079.91743	3.79132
3077.98887	3.72977
3076.06030	3.66859
3074.13174	3.60885
3072.20317	3.55076
3070.27461	3.49277
3068.34604	3.43354
3066.41748	3.37387
3064.48892	3.31716
3062.56035	3.26376
3060.63179	3.21092
3058.70322	3.15864
3056.77466	3.10672
3054.84609	3.05343
3052.91753	3.00033
3050.98896	2.94994
3049.06040	2.90084
3047.13184	2.85101
3045.20327	2.80134
3043.27471	2.75363
3041.34614	2.70795
3039.41758	2.66253
3037.48901	2.61577
3035.56045	2.56857
3033.63188	2.52326
3031.70332	2.47983
3029.77476	2.43650
3027.84619	2.39345
3025.91763	2.35134
3023.98906	2.30971
3022.06050	2.26902
3020.13193	2.22952
3018.20337	2.19061
3016.27480	2.15232
3014.34624	2.11476
3012.41768	2.07759
3010.48911	2.04024
3008.56055	2.00299
3006.63198	1.96687
3004.70342	1.93155
3002.77485	1.89610
3000.84629	1.86131
2998.91772	1.82828
2996.98916	1.79626
2995.06060	1.76447
2993.13203	1.73289
2991.20347	1.70151
2989.27490	1.67051
2987.34634	1.63989
2985.41777	1.60960
2983.48921	1.57989
2981.56064	1.55078
2979.63208	1.52209
2977.70352	1.49372
2975.77495	1.46578
2973.84639	1.43842
2971.91782	1.41150
2969.98926	1.38498
2968.06069	1.35921
2966.13213	1.33393
2964.20356	1.30862
2962.27500	1.28366
2960.34644	1.25962
2958.41787	1.23605
2956.48931	1.21271
2954.56074	1.19038
2952.63218	1.16893
2950.70361	1.14733
2948.77505	1.12549
2946.84648	1.10394
2944.91792	1.08284
2942.98936	1.06195
2941.06079	1.04139
2939.13223	1.02172
2937.20366	1.00297
2935.27510	0.98444
2933.34653	0.96581
2931.41797	0.94795
2929.48940	0.93127
2927.56084	0.91471
2925.63228	0.89769
2923.70371	0.88090
2921.77515	0.86491
2919.84658	0.84938
2917.91802	0.83386
2915.98945	0.81855
2914.06089	0.80364
2912.13232	0.78897
2910.20376	0.77456
2908.27520	0.76052
2906.34663	0.74695
2904.41807	0.73374
2902.48950	0.72084
2900.56094	0.70833
2898.63237	0.69625
2896.70381	0.68449
2894.77524	0.67275
2892.84668	0.66107
2890.91812	0.64947
2888.98955	0.63806
2887.06099	0.62703
2885.13242	0.61635
2883.20386	0.60579
2881.27529	0.59535
2879.34673	0.58511
2877.41816	0.57493
2875.48960	0.56464
2873.56104	0.55459
2871.63247	0.54506
2869.70391	0.53584
2867.77534	0.52664
2865.84678	0.51718
2863.91821	0.50782
2861.98965	0.49917
2860.06108	0.49095
2858.13252	0.48259
2856.20396	0.47410
2854.27539	0.46595
2852.34683	0.45837
2850.41826	0.45099
2848.48970	0.44355
2846.56113	0.43612
2844.63257	0.42895
2842.70400	0.42238
2840.77544	0.41637
2838.84687	0.41057
2836.91831	0.40498
2834.98975	0.39957
2833.06118	0.39405
2831.13262	0.38836
2829.20405	0.38273
2827.27549	0.37719
2825.34692	0.37155
2823.41836	0.36595
2821.48979	0.36055
2819.56123	0.35508
2817.63267	0.34955
2815.70410	0.34420
2813.77554	0.33898
2811.84697	0.33396
2809.91841	0.32918
2807.98984	0.32443
2806.06128	0.31962
2804.13271	0.31481
2802.20415	0.31016
2800.27559	0.30582
2798.34702	0.30159
2796.41846	0.29741
2794.48989	0.29326
2792.56133	0.28914
2790.63276	0.28506
2788.70420	0.28091
2786.77563	0.27685
2784.84707	0.27306
2782.91851	0.26936
2780.98994	0.26558
2779.06138	0.26188
2777.13281	0.25837
2775.20425	0.25512
2773.27568	0.25206
2771.34712	0.24891
2769.41855	0.24558
2767.48999	0.24234
2765.56143	0.23928
2763.63286	0.23608
2761.70430	0.23277
2759.77573	0.22972
2757.84717	0.22695
2755.91860	0.22433
2753.99004	0.22186
2752.06147	0.21945
2750.13291	0.21688
2748.20435	0.21413
2746.27578	0.21143
2744.34722	0.20894
2742.41865	0.20657
2740.49009	0.20429
2738.56152	0.20216
2736.63296	0.20006
2734.70439	0.19785
2732.77583	0.19565
2730.84727	0.19356
2728.91870	0.19152
2726.99014	0.18952
2725.06157	0.18767
2723.13301	0.18590
2721.20444	0.18402
2719.27588	0.18206
2717.34731	0.18028
2715.41875	0.17861
2713.49019	0.17699
2711.56162	0.17558
2709.63306	0.17421
2707.70449	0.17255
2705.77593	0.17070
2703.84736	0.16903
2701.91880	0.16758
2699.99023	0.16616
2698.06167	0.16476
2696.13311	0.16353
2694.20454	0.16239
2692.27598	0.16115
2690.34741	0.15991
2688.41885	0.15888
2686.49028	0.15789
2684.56172	0.15672
2682.63315	0.15560
2680.70459	0.15463
2678.77603	0.15370
2676.84746	0.15277
2674.91890	0.15181
2672.99033	0.15081
2671.06177	0.14984
2669.13320	0.14889
2667.20464	0.14798
2665.27607	0.14725
2663.34751	0.14673
2661.41895	0.14613
2659.49038	0.14539
2657.56182	0.14465
2655.63325	0.14397
2653.70469	0.14342
2651.77612	0.14297
2649.84756	0.14238
2647.91899	0.14174
2645.99043	0.14132
2644.06187	0.14096
2642.13330	0.14048
2640.20474	0.14004
2638.27617	0.13971
2636.34761	0.13930
2634.41904	0.13881
2632.49048	0.13844
2630.56191	0.13823
2628.63335	0.13807
2626.70479	0.13789
2624.77622	0.13770
2622.84766	0.13759
2620.91909	0.13759
2618.99053	0.13745
2617.06196	0.13717
2615.13340	0.13700
2613.20483	0.13697
2611.27627	0.13699
2609.34771	0.13699
2607.41914	0.13697
2605.49058	0.13694
2603.56201	0.13694
2601.63345	0.13697
2599.70488	0.13709
2597.77632	0.13730
2595.84775	0.13745
2593.91919	0.13752
2591.99062	0.13764
2590.06206	0.13789
2588.13350	0.13819
2586.20493	0.13855
2584.27637	0.13894
2582.34780	0.13926
2580.41924	0.13959
2578.49067	0.13989
2576.56211	0.14008
2574.63354	0.14035
2572.70498	0.14083
2570.77642	0.14139
2568.84785	0.14189
2566.91929	0.14228
2564.99072	0.14264
2563.06216	0.14308
2561.13359	0.14357
2559.20503	0.14417
2557.27646	0.14480
2555.34790	0.14530
2553.41934	0.14579
2551.49077	0.14637
2549.56221	0.14696
2547.63364	0.14761
2545.70508	0.14833
2543.77651	0.14896
2541.84795	0.14955
2539.91938	0.15025
2537.99082	0.15104
2536.06226	0.15183
2534.13369	0.15252
2532.20513	0.15317
2530.27656	0.15389
2528.34800	0.15462
2526.41943	0.15524
2524.49087	0.15585
2522.56230	0.15661
2520.63374	0.15750
2518.70518	0.15846
2516.77661	0.15942
2514.84805	0.16020
2512.91948	0.16079
2510.99092	0.16142
2509.06235	0.16230
2507.13379	0.16327
2505.20522	0.16418
2503.27666	0.16522
2501.34810	0.16631
2499.41953	0.16721
2497.49097	0.16802
2495.56240	0.16883
2493.63384	0.16963
2491.70527	0.17051
2489.77671	0.17155
2487.84814	0.17257
2485.91958	0.17348
2483.99102	0.17433
2482.06245	0.17517
2480.13389	0.17597
2478.20532	0.17682
2476.27676	0.17782
2474.34819	0.17892
2472.41963	0.17996
2470.49106	0.18091
2468.56250	0.18185
2466.63394	0.18283
2464.70537	0.18380
2462.77681	0.18470
2460.84824	0.18564
2458.91968	0.18670
2456.99111	0.18782
2455.06255	0.18899
2453.13398	0.19007
2451.20542	0.19097
2449.27686	0.19182
2447.34829	0.19275
2445.41973	0.19383
2443.49116	0.19491
2441.56260	0.19588
2439.63403	0.19688
2437.70547	0.19800
2435.77690	0.19917
2433.84834	0.20028
2431.91978	0.20129
2429.99121	0.20232
2428.06265	0.20341
2426.13408	0.20447
2424.20552	0.20544
2422.27695	0.20650
2420.34839	0.20781
2418.41982	0.20916
2416.49126	0.21036
2414.56270	0.21150
2412.63413	0.21266
2410.70557	0.21369
2408.77700	0.21473
2406.84844	0.21593
2404.91987	0.21714
2402.99131	0.21833
2401.06274	0.21959
2399.13418	0.22085
2397.20562	0.22202
2395.27705	0.22326
2393.34849	0.22467
2391.41992	0.22618
2389.49136	0.22779
2387.56279	0.22995
2385.63423	0.23329
2383.70566	0.23834
2381.77710	0.24532
2379.84854	0.25379
2377.91997	0.26314
2375.99141	0.27361
2374.06284	0.28571
2372.13428	0.29946
2370.20571	0.31456
2368.27715	0.33000
2366.34858	0.34508
2364.42002	0.35907
2362.49146	0.36951
2360.56289	0.37498
2358.63433	0.37622
2356.70576	0.37179
2354.77720	0.36093
2352.84863	0.34660
2350.92007	0.33191
2348.99150	0.32267
2347.06294	0.32336
2345.13437	0.33417
2343.20581	0.34801
2341.27725	0.35513
2339.34868	0.35591
2337.42012	0.35479
2335.49155	0.35380
2333.56299	0.35310
2331.63442	0.35294
2329.70586	0.35258
2327.77729	0.35120
2325.84873	0.34853
2323.92017	0.34492
2321.99160	0.34097
2320.06304	0.33649
2318.13447	0.33165
2316.20591	0.32759
2314.27734	0.32518
2312.34878	0.32425
2310.42021	0.32344
2308.49165	0.32163
2306.56309	0.31937
2304.63452	0.31761
2302.70596	0.31672
2300.77739	0.31648
2298.84883	0.31643
2296.92026	0.31639
2294.99170	0.31630
2293.06313	0.31620
2291.13457	0.31631
2289.20601	0.31668
2287.27744	0.31708
2285.34888	0.31755
2283.42031	0.31849
2281.49175	0.32022
2279.56318	0.32256
2277.63462	0.32496
2275.70605	0.32713
2273.77749	0.32928
2271.84893	0.33149
2269.92036	0.33359
2267.99180	0.33551
2266.06323	0.33746
2264.13467	0.33947
2262.20610	0.34136
2260.27754	0.34316
2258.34897	0.34499
2256.42041	0.34685
2254.49185	0.34874
2252.56328	0.35059
2250.63472	0.35245
2248.70615	0.35448
2246.77759	0.35661
2244.84902	0.35863
2242.92046	0.36055
2240.99189	0.36252
2239.06333	0.36466
2237.13477	0.36685
2235.20620	0.36903
2233.27764	0.37126
2231.34907	0.37351
2229.42051	0.37571
2227.49194	0.37792
2225.56338	0.38006
2223.63481	0.38212
2221.70625	0.38422
2219.77769	0.38639
2217.84912	0.38860
2215.92056	0.39090
2213.99199	0.39319
2212.06343	0.39535
2210.13486	0.39741
2208.20630	0.39941
2206.27773	0.40143
2204.34917	0.40354
2202.42061	0.40565
2200.49204	0.40764
2198.56348	0.40956
2196.63491	0.41152
2194.70635	0.41348
2192.77778	0.41541
2190.84922	0.41739
2188.92065	0.41933
2186.99209	0.42116
2185.06353	0.42290
2183.13496	0.42463
2181.20640	0.42636
2179.27783	0.42809
2177.34927	0.42980
2175.42070	0.43147
2173.49214	0.43306
2171.56357	0.43447
2169.63501	0.43581
2167.70645	0.43719
2165.77788	0.43851
2163.84932	0.43969
2161.92075	0.44084
2159.99219	0.44205
2158.06362	0.44326
2156.13506	0.44432
2154.20649	0.44518
2152.27793	0.44600
2150.34937	0.44680
2148.42080	0.44749
2146.49224	0.44812
2144.56367	0.44877
2142.63511	0.44937
2140.70654	0.44989
2138.77798	0.45026
2136.84941	0.45041
2134.92085	0.45053
2132.99229	0.45071
2131.06372	0.45077
2129.13516	0.45067
2127.20659	0.45050
2125.27803	0.45033
2123.34946	0.45015
2121.42090	0.44986
2119.49233	0.44934
2117.56377	0.44875
2115.63521	0.44824
2113.70664	0.44770
2111.77808	0.44699
2109.84951	0.44609
2107.92095	0.44512
2105.99238	0.44418
2104.06382	0.44324
2102.13525	0.44217
2100.20669	0.44096
2098.27812	0.43958
2096.34956	0.43815
2094.42100	0.43681
2092.49243	0.43547
2090.56387	0.43399
2088.63530	0.43235
2086.70674	0.43064
2084.77817	0.42891
2082.84961	0.42713
2080.92104	0.42521
2078.99248	0.42314
2077.06392	0.42106
2075.13535	0.41913
2073.20679	0.41726
2071.27822	0.41522
2069.34966	0.41304
2067.42109	0.41097
2065.49253	0.40905
2063.56396	0.40689
2061.63540	0.40445
2059.70684	0.40193
2057.77827	0.39945
2055.84971	0.39702
2053.92114	0.39459
2051.99258	0.39209
2050.06401	0.38961
2048.13545	0.38720
2046.20688	0.38473
2044.27832	0.38217
2042.34976	0.37960
2040.42119	0.37696
2038.49263	0.37415
2036.56406	0.37135
2034.63550	0.36872
2032.70693	0.36615
2030.77837	0.36349
2028.84980	0.36075
2026.92124	0.35807
2024.99268	0.35544
2023.06411	0.35275
2021.13555	0.35002
2019.20698	0.34756
2017.27842	0.34525
2015.34985	0.34247
2013.42129	0.33927
2011.49272	0.33630
2009.56416	0.33359
2007.63560	0.33088
2005.70703	0.32830
2003.77847	0.32581
2001.84990	0.32326
1999.92134	0.32071
1997.99277	0.31812
1996.06421	0.31554
1994.13564	0.31336
1992.20708	0.31144
1990.27852	0.30900
1988.34995	0.30609
1986.42139	0.30328
1984.49282	0.30073
1982.56426	0.29830
1980.63569	0.29584
1978.70713	0.29350
1976.77856	0.29135
1974.85000	0.28925
1972.92144	0.28709
1970.99287	0.28498
1969.06431	0.28312
1967.13574	0.28139
1965.20718	0.27922
1963.27861	0.27674
1961.35005	0.27456
1959.42148	0.27265
1957.49292	0.27091
1955.56436	0.26925
1953.63579	0.26747
1951.70723	0.26558
1949.77866	0.26389
1947.85010	0.26246
1945.92153	0.26129
1943.99297	0.26039
1942.06440	0.25916
1940.13584	0.25706
1938.20728	0.25487
1936.27871	0.25323
1934.35015	0.25196
1932.42158	0.25078
1930.49302	0.24954
1928.56445	0.24838
1926.63589	0.24743
1924.70732	0.24695
1922.77876	0.24655
1920.85020	0.24557
1918.92163	0.24455
1916.99307	0.24360
1915.06450	0.24223
1913.13594	0.24099
1911.20737	0.24042
1909.27881	0.24009
1907.35024	0.23934
1905.42168	0.23829
1903.49312	0.23737
1901.56455	0.23664
1899.63599	0.23602
1897.70742	0.23564
1895.77886	0.23554
1893.85029	0.23531
1891.92173	0.23497
1889.99316	0.23507
1888.06460	0.23484
1886.13604	0.23401
1884.20747	0.23340
1882.27891	0.23304
1880.35034	0.23276
1878.42178	0.23262
1876.49321	0.23264
1874.56465	0.23269
1872.63608	0.23312
1870.70752	0.23445
1868.77896	0.23638
1866.85039	0.23668
1864.92183	0.23520
1862.99326	0.23414
1861.06470	0.23406
1859.13613	0.23448
1857.20757	0.23487
1855.27900	0.23519
1853.35044	0.23550
1851.42187	0.23602
1849.49331	0.23694
1847.56475	0.23840
1845.63618	0.24024
1843.70762	0.24163
1841.77905	0.24144
1839.85049	0.24091
1837.92192	0.24145
1835.99336	0.24241
1834.06479	0.24329
1832.13623	0.24479
1830.20767	0.24726
1828.27910	0.24906
1826.35054	0.24967
1824.42197	0.25045
1822.49341	0.25099
1820.56484	0.25161
1818.63628	0.25287
1816.70771	0.25449
1814.77915	0.25611
1812.85059	0.25821
1810.92202	0.26081
1808.99346	0.26283
1807.06489	0.26420
1805.13633	0.26586
1803.20776	0.26856
1801.27920	0.27202
1799.35063	0.27520
1797.42207	0.27741
1795.49351	0.27977
1793.56494	0.28328
1791.63638	0.28741
1789.70781	0.28988
1787.77925	0.29129
1785.85068	0.29412
1783.92212	0.29808
1781.99355	0.30241
1780.06499	0.30687
1778.13643	0.31103
1776.20786	0.31511
1774.27930	0.32043
1772.35073	0.32768
1770.42217	0.33387
1768.49360	0.33776
1766.56504	0.34169
1764.63647	0.34654
1762.70791	0.35287
1760.77935	0.36086
1758.85078	0.36782
1756.92222	0.37474
1754.99365	0.38233
1753.06509	0.38974
1751.13652	0.39958
1749.20796	0.41164
1747.27939	0.42192
1745.35083	0.43016
1743.42227	0.43917
1741.49370	0.44951
1739.56514	0.46194
1737.63657	0.47442
1735.70801	0.48595
1733.77944	0.50377
1731.85088	0.52331
1729.92231	0.53714
1727.99375	0.55123
1726.06519	0.56719
1724.13662	0.58553
1722.20806	0.60571
1720.27949	0.62504
1718.35093	0.64894
1716.42236	0.68302
1714.49380	0.71207
1712.56523	0.73410
1710.63667	0.75651
1708.70811	0.78205
1706.77954	0.81198
1704.85098	0.84740
1702.92241	0.87837
1700.99385	0.90919
1699.06528	0.95524
1697.13672	0.99629
1695.20815	1.03609
1693.27959	1.07378
1691.35103	1.10474
1689.42246	1.14176
1687.49390	1.18105
1685.56533	1.21935
1683.63677	1.27763
1681.70820	1.33548
1679.77964	1.37172
1677.85107	1.40717
1675.92251	1.44862
1673.99395	1.49978
1672.06538	1.54488
1670.13682	1.58890
1668.20825	1.64379
1666.27969	1.68584
1664.35112	1.72175
1662.42256	1.76734
1660.49399	1.81753
1658.56543	1.85640
1656.63687	1.88922
1654.70830	1.92198
1652.77974	1.97759
1650.85117	2.03076
1648.92261	2.05220
1646.99404	2.08334
1645.06548	2.11933
1643.13691	2.14184
1641.20835	2.15700
1639.27979	2.17228
1637.35122	2.18521
1635.42266	2.19206
1633.49409	2.18692
1631.56553	2.17546
1629.63696	2.16444
1627.70840	2.14445
1625.77983	2.11683
1623.85127	2.07976
1621.92271	2.03557
1619.99414	1.99743
1618.06558	1.96023
1616.13701	1.90303
1614.20845	1.84034
1612.27988	1.79243
1610.35132	1.74377
1608.42275	1.69117
1606.49419	1.63876
1604.56562	1.59002
1602.63706	1.54287
1600.70850	1.49654
1598.77993	1.45363
1596.85137	1.41306
1594.92280	1.37339
1592.99424	1.33464
1591.06567	1.29864
1589.13711	1.26423
1587.20854	1.23140
1585.27998	1.20048
1583.35142	1.17107
1581.42285	1.14394
1579.49429	1.12117
1577.56572	1.10116
1575.63716	1.07449
1573.70859	1.04809
1571.78003	1.03059
1569.85146	1.01277
1567.92290	0.99114
1565.99434	0.97296
1564.06577	0.95780
1562.13721	0.94577
1560.20864	0.93729
1558.28008	0.92057
1556.35151	0.89984
1554.42295	0.88602
1552.49438	0.87329
1550.56582	0.86129
1548.63726	0.84962
1546.70869	0.84031
1544.78013	0.83372
1542.85156	0.82821
1540.92300	0.82124
1538.99443	0.80691
1537.06587	0.79410
1535.13730	0.78705
1533.20874	0.77991
1531.28018	0.77124
1529.35161	0.76482
1527.42305	0.76000
1525.49448	0.75502
1523.56592	0.75021
1521.63735	0.74496
1519.70879	0.73792
1517.78022	0.73171
1515.85166	0.72553
1513.92310	0.71910
1511.99453	0.71447
1510.06597	0.71207
1508.13740	0.71151
1506.20884	0.70685
1504.28027	0.69762
1502.35171	0.69187
1500.42314	0.68870
1498.49458	0.68667
1496.56602	0.68354
1494.63745	0.67890
1492.70889	0.67569
1490.78032	0.67462
1488.85176	0.67316
1486.92319	0.66900
1484.99463	0.66434
1483.06606	0.66105
1481.13750	0.65886
1479.20894	0.65701
1477.28037	0.65569
1475.35181	0.65505
1473.42324	0.65436
1471.49468	0.65099
1469.56611	0.64580
1467.63755	0.64226
1465.70898	0.64026
1463.78042	0.63790
1461.85186	0.63530
1459.92329	0.63436
1457.99473	0.63489
1456.06616	0.63256
1454.13760	0.62709
1452.20903	0.62296
1450.28047	0.62018
1448.35190	0.61797
1446.42334	0.61541
1444.49478	0.61268
1442.56621	0.61043
1440.63765	0.60871
1438.70908	0.60780
1436.78052	0.60741
1434.85195	0.60607
1432.92339	0.60414
1430.99482	0.60282
1429.06626	0.60137
1427.13770	0.59947
1425.20913	0.59820
1423.28057	0.59759
1421.35200	0.59716
1419.42344	0.59695
1417.49487	0.59547
1415.56631	0.59231
1413.63774	0.58959
1411.70918	0.58770
1409.78062	0.58605
1407.85205	0.58465
1405.92349	0.58375
1403.99492	0.58250
1402.06636	0.58074
1400.13779	0.57978
1398.20923	0.57951
1396.28066	0.57872
1394.35210	0.57687
1392.42354	0.57441
1390.49497	0.57261
1388.56641	0.57184
1386.63784	0.57091
1384.70928	0.56895
1382.78071	0.56703
1380.85215	0.56587
1378.92358	0.56514
1376.99502	0.56465
1375.06646	0.56434
1373.13789	0.56347
1371.20933	0.56205
1369.28076	0.56094
1367.35220	0.55998
1365.42363	0.55915
1363.49507	0.55889
1361.56650	0.55824
1359.63794	0.55660
1357.70937	0.55519
1355.78081	0.55438
1353.85225	0.55356
1351.92368	0.55258
1349.99512	0.55172
1348.06655	0.55092
1346.13799	0.54999
1344.20942	0.54914
1342.28086	0.54879
1340.35229	0.54883
1338.42373	0.54825
1336.49517	0.54669
1334.56660	0.54508
1332.63804	0.54391
1330.70947	0.54302
1328.78091	0.54218
1326.85234	0.54147
1324.92378	0.54100
1322.99521	0.54064
1321.06665	0.54032
1319.13809	0.53995
1317.20952	0.53922
1315.28096	0.53828
1313.35239	0.53745
1311.42383	0.53656
1309.49526	0.53563
1307.56670	0.53472
1305.63813	0.53369
1303.70957	0.53274
1301.78101	0.53209
1299.85244	0.53145
1297.92388	0.53069
1295.99531	0.52982
1294.06675	0.52890
1292.13818	0.52813
1290.20962	0.52760
1288.28105	0.52709
1286.35249	0.52645
1284.42393	0.52587
1282.49536	0.52550
1280.56680	0.52513
1278.63823	0.52467
1276.70967	0.52420
1274.78110	0.52378
1272.85254	0.52350
1270.92397	0.52328
1268.99541	0.52289
1267.06685	0.52238
1265.13828	0.52193
1263.20972	0.52162
1261.28115	0.52136
1259.35259	0.52101
1257.42402	0.52063
1255.49546	0.52031
1253.56689	0.51994
1251.63833	0.51954
1249.70977	0.51937
1247.78120	0.51924
1245.85264	0.51891
1243.92407	0.51859
1241.99551	0.51839
1240.06694	0.51808
1238.13838	0.51758
1236.20981	0.51700
1234.28125	0.51647
1232.35269	0.51602
1230.42412	0.51550
1228.49556	0.51485
1226.56699	0.51415
1224.63843	0.51356
1222.70986	0.51308
1220.78130	0.51266
1218.85273	0.51225
1216.92417	0.51172
1214.99561	0.51098
1213.06704	0.51019
1211.13848	0.50955
1209.20991	0.50903
1207.28135	0.50853
1205.35278	0.50798
1203.42422	0.50733
1201.49565	0.50675
1199.56709	0.50641
1197.63853	0.50616
1195.70996	0.50580
1193.78140	0.50541
1191.85283	0.50509
1189.92427	0.50475
1187.99570	0.50443
1186.06714	0.50421
1184.13857	0.50413
1182.21001	0.50422
1180.28145	0.50441
1178.35288	0.50454
1176.42432	0.50466
1174.49575	0.50506
1172.56719	0.50569
1170.63862	0.50626
1168.71006	0.50671
1166.78149	0.50709
1164.85293	0.50738
1162.92437	0.50743
1160.99580	0.50728
1159.06724	0.50698
1157.13867	0.50647
1155.21011	0.50567
1153.28154	0.50451
1151.35298	0.50288
1149.42441	0.50097
1147.49585	0.49908
1145.56729	0.49710
1143.63872	0.49486
1141.71016	0.49261
1139.78159	0.49056
1137.85303	0.48859
1135.92446	0.48667
1133.99590	0.48489
1132.06733	0.48326
1130.13877	0.48183
1128.21021	0.48070
1126.28164	0.47967
1124.35308	0.47859
1122.42451	0.47766
1120.49595	0.47684
1118.56738	0.47604
1116.63882	0.47551
1114.71025	0.47518
1112.78169	0.47496
1110.85312	0.47503
1108.92456	0.47535
1106.99600	0.47587
1105.06743	0.47675
1103.13887	0.47816
1101.21030	0.48006
1099.28174	0.48231
1097.35317	0.48483
1095.42461	0.48768
1093.49604	0.49123
1091.56748	0.49555
1089.63892	0.50040
1087.71035	0.50575
1085.78179	0.51156
1083.85322	0.51767
1081.92466	0.52386
1079.99609	0.52948
1078.06753	0.53335
1076.13896	0.53455
1074.21040	0.53295
1072.28184	0.52900
1070.35327	0.52336
1068.42471	0.51685
1066.49614	0.51029
1064.56758	0.50412
1062.63901	0.49845
1060.71045	0.49340
1058.78188	0.48899
1056.85332	0.48513
1054.92476	0.48185
1052.99619	0.47925
1051.06763	0.47726
1049.13906	0.47567
1047.21050	0.47423
1045.28193	0.47289
1043.35337	0.47185
1041.42480	0.47116
1039.49624	0.47055
1037.56768	0.47008
1035.63911	0.46987
1033.71055	0.46954
1031.78198	0.46910
1029.85342	0.46901
1027.92485	0.46933
1025.99629	0.46978
1024.06772	0.47024
1022.13916	0.47076
1020.21060	0.47146
1018.28203	0.47235
1016.35347	0.47321
1014.42490	0.47411
1012.49634	0.47539
1010.56777	0.47695
1008.63921	0.47850
1006.71064	0.48016
1004.78208	0.48210
1002.85352	0.48442
1000.92495	0.48712
998.99639	0.49012
997.06782	0.49349
995.13926	0.49714
993.21069	0.50075
991.28213	0.50403
989.35356	0.50661
987.42500	0.50829
985.49644	0.50934
983.56787	0.51023
981.63931	0.51130
979.71074	0.51284
977.78218	0.51503
975.85361	0.51772
973.92505	0.52072
971.99648	0.52383
970.06792	0.52705
968.13936	0.53074
966.21079	0.53505
964.28223	0.53960
962.35366	0.54420
960.42510	0.54905
958.49653	0.55431
956.56797	0.56001
954.63940	0.56614
952.71084	0.57251
950.78228	0.57884
948.85371	0.58514
946.92515	0.59149
944.99658	0.59786
943.06802	0.60402
941.13945	0.60981
939.21089	0.61525
937.28232	0.62059
935.35376	0.62624
933.42520	0.63217
931.49663	0.63779
929.56807	0.64294
927.63950	0.64841
925.71094	0.65436
923.78237	0.66042
921.85381	0.66654
919.92524	0.67293
917.99668	0.67988
916.06812	0.68690
914.13955	0.69362
912.21099	0.70084
910.28242	0.70897
908.35386	0.71700
906.42529	0.72434
904.49673	0.73204
902.56816	0.74113
900.63960	0.75096
898.71104	0.76016
896.78247	0.76948
894.85391	0.77981
892.92534	0.78983
890.99678	0.79917
889.06821	0.80885
887.13965	0.81865
885.21108	0.82825
883.28252	0.83887
881.35396	0.85129
879.42539	0.86470
877.49683	0.87763
875.56826	0.88953
873.63970	0.90069
871.71113	0.91177
869.78257	0.92368
867.85400	0.93530
865.92544	0.94560
863.99687	0.95588
862.06831	0.96643
860.13975	0.97740
858.21118	0.98956
856.28262	1.00161
854.35405	1.01270
852.42549	1.02382
850.49692	1.03571
848.56836	1.04781
846.63979	1.05839
844.71123	1.06745
842.78267	1.07815
840.85410	1.09220
838.92554	1.10733
836.99697	1.12231
835.06841	1.13424
833.13984	1.14162
831.21128	1.15151
829.28271	1.16510
827.35415	1.17698
825.42559	1.18962
823.49702	1.20583
821.56846	1.21799
819.63989	1.22652
817.71133	1.23785
815.78276	1.24761
813.85420	1.25938
811.92563	1.27918
809.99707	1.29495
808.06851	1.29971
806.13994	1.30861
804.21138	1.32349
802.28281	1.33198
800.35425	1.34037
798.42568	1.36523
796.49712	1.40250
794.56855	1.42836
792.63999	1.43329
790.71143	1.42018
788.78286	1.40890
786.85430	1.41228
784.92573	1.43337
782.99717	1.47110
781.06860	1.48262
779.14004	1.43863
777.21147	1.38840
775.28291	1.40488
773.35435	1.50203
771.42578	1.61864
769.49722	1.61803
767.56865	1.50703
765.64009	1.48260
763.71152	1.68643
761.78296	4.57070
759.85439	4.55913
757.92583	2.52682
755.99727	1.56690
754.06870	1.53079
752.14014	1.70336
750.21157	1.82526
748.28301	1.59238
746.35444	1.34544
744.42588	1.27688
742.49731	1.39614
740.56875	1.66916
738.64019	1.59810
736.71162	1.46930
734.78306	1.41035
732.85449	1.12400
730.92593	0.87513
728.99736	0.74300
727.06880	0.56615
725.14023	0.36869
723.21167	0.29573
721.28311	0.30520
719.35454	0.45222
717.42598	0.55772
715.49741	0.28686
713.56885	0.22194
711.64028	0.32927
709.71172	0.41191
707.78315	0.24967
705.85459	0.16222
703.92603	0.28583
701.99746	0.47023
700.06890	0.54695
698.14033	0.51476
696.21177	0.54378
694.28320	0.54280
692.35464	0.42606
690.42607	0.35039
688.49751	0.33484
686.56895	0.36762
684.64038	0.49191
682.71182	0.73870
680.78325	0.67230
678.85469	0.51662
676.92612	0.71409
674.99756	4.04999
673.06899	1.19682
671.14043	0.62442
669.21187	0.59429
667.28330	4.00370
665.35474	3.99213
663.42617	0.77944
661.49761	0.42359
659.56904	0.39551
657.64048	0.38143
655.71191	0.30961
653.78335	0.32733
651.85479	0.45378
649.92622	0.49928
647.99766	0.39822
646.06909	0.32056
644.14053	0.30335
642.21196	0.32752
640.28340	0.36630
638.35483	0.43036
636.42627	0.48689
634.49771	0.41309
632.56914	0.26357
630.64058	0.17112
628.71201	0.19235
626.78345	0.25399
624.85488	0.28476
622.92632	0.28162
620.99775	0.24644
619.06919	0.22940
617.14062	0.29509
615.21206	0.41072
613.28350	0.43313
611.35493	0.42617
609.42637	0.40573
607.49780	0.36543
605.56924	0.38669
603.64067	0.38533
601.71211	0.29386
599.78354	0.29063
597.85498	0.36772
595.92642	0.32486
593.99785	0.27655
592.06929	0.30600
590.14072	0.39190
588.21216	0.46146
586.28359	0.46286
584.35503	0.44459
582.42646	0.37662
580.49790	0.34811
578.56934	0.44056
576.64077	0.44665
574.71221	0.28588
572.78364	0.19824
570.85508	0.19040
568.92651	0.22754
566.99795	0.26161
565.06938	0.27219
563.14082	0.27059
561.21226	0.26634
559.28369	0.25908
557.35513	0.24568
555.42656	0.25330
553.49800	0.30310
551.56943	0.30884
549.64087	0.25446
547.71230	0.23341
545.78374	0.28202
543.85518	0.33768
541.92661	0.32167
539.99805	0.27776
538.06948	0.24124
536.14092	0.24637
534.21235	0.27439
532.28379	0.29157
530.35522	0.30225
528.42666	0.28409
526.49810	0.22760
524.56953	0.19953
522.64097	0.22786
520.71240	0.24628
518.78384	0.21470
516.85527	0.22335
514.92671	0.31593
512.99814	0.38280
511.06958	0.30053
509.14102	0.19821
507.21245	0.14840
505.28389	0.16299
503.35532	0.22299
501.42676	0.31246
499.49819	0.31529
