3997.91411	0.06626
3995.98555	0.06663
3994.05698	0.06737
3992.12842	0.06794
3990.19985	0.06794
3988.27129	0.06772
3986.34272	0.06773
3984.41416	0.06807
3982.48560	0.06842
3980.55703	0.06862
3978.62847	0.06895
3976.69990	0.06954
3974.77134	0.07011
3972.84277	0.07023
3970.91421	0.07011
3968.98564	0.07047
3967.05708	0.07105
3965.12852	0.07112
3963.19995	0.07103
3961.27139	0.07135
3959.34282	0.07172
3957.41426	0.07184
3955.48569	0.07162
3953.55713	0.07130
3951.62856	0.07182
3949.70000	0.07352
3947.77144	0.07481
3945.84287	0.07441
3943.91431	0.07405
3941.98574	0.07458
3940.05718	0.07390
3938.12861	0.07218
3936.20005	0.07137
3934.27148	0.07216
3932.34292	0.07427
3930.41436	0.07585
3928.48579	0.07539
3926.55723	0.07471
3924.62866	0.07527
3922.70010	0.07565
3920.77153	0.07527
3918.84297	0.07561
3916.91440	0.07623
3914.98584	0.07505
3913.05728	0.07246
3911.12871	0.07076
3909.20015	0.07079
3907.27158	0.07244
3905.34302	0.07619
3903.41445	0.08125
3901.48589	0.08377
3899.55732	0.08247
3897.62876	0.07939
3895.70020	0.07614
3893.77163	0.07493
3891.84307	0.07651
3889.91450	0.07739
3887.98594	0.07579
3886.05737	0.07601
3884.12881	0.07883
3882.20024	0.08058
3880.27168	0.08051
3878.34312	0.07833
3876.41455	0.07607
3874.48599	0.07724
3872.55742	0.08065
3870.62886	0.08360
3868.70029	0.08496
3866.77173	0.08400
3864.84316	0.08380
3862.91460	0.08475
3860.98604	0.08330
3859.05747	0.08078
3857.12891	0.08078
3855.20034	0.08443
3853.27178	0.09143
3851.34321	0.09385
3849.41465	0.08764
3847.48608	0.08215
3845.55752	0.08053
3843.62896	0.08264
3841.70039	0.08698
3839.77183	0.09158
3837.84326	0.09485
3835.91470	0.09447
3833.98613	0.09182
3832.05757	0.08995
3830.12900	0.08906
3828.20044	0.08900
3826.27187	0.09018
3824.34331	0.09185
3822.41475	0.09457
3820.48618	0.09931
3818.55762	0.10119
3816.62905	0.10011
3814.70049	0.09862
3812.77192	0.09513
3810.84336	0.09246
3808.91479	0.09336
3806.98623	0.09752
3805.05767	0.10172
3803.12910	0.10492
3801.20054	0.10938
3799.27197	0.11102
3797.34341	0.10853
3795.41484	0.10610
3793.48628	0.10405
3791.55771	0.10323
3789.62915	0.10402
3787.70059	0.10555
3785.77202	0.10808
3783.84346	0.11101
3781.91489	0.11289
3779.98633	0.11500
3778.05776	0.11723
3776.12920	0.11706
3774.20063	0.11632
3772.27207	0.11776
3770.34351	0.12185
3768.41494	0.12644
3766.48638	0.12864
3764.55781	0.12955
3762.62925	0.13059
3760.70068	0.13300
3758.77212	0.13766
3756.84355	0.14201
3754.91499	0.14460
3752.98643	0.14855
3751.05786	0.15666
3749.12930	0.16475
3747.20073	0.16621
3745.27217	0.16635
3743.34360	0.16854
3741.41504	0.17027
3739.48647	0.17189
3737.55791	0.17648
3735.62935	0.18556
3733.70078	0.19424
3731.77222	0.19574
3729.84365	0.19473
3727.91509	0.19651
3725.98652	0.20232
3724.05796	0.21013
3722.12939	0.21686
3720.20083	0.22269
3718.27227	0.22859
3716.34370	0.23497
3714.41514	0.24266
3712.48657	0.25433
3710.55801	0.27128
3708.62944	0.28558
3706.70088	0.29377
3704.77231	0.30247
3702.84375	0.31556
3700.91519	0.33326
3698.98662	0.35115
3697.05806	0.36774
3695.12949	0.38646
3693.20093	0.40767
3691.27236	0.43242
3689.34380	0.46469
3687.41523	0.50012
3685.48667	0.52732
3683.55811	0.55067
3681.62954	0.57777
3679.70098	0.61069
3677.77241	0.64753
3675.84385	0.69192
3673.91528	0.74787
3671.98672	0.79048
3670.05815	0.82897
3668.12959	0.88120
3666.20103	0.92613
3664.27246	0.96419
3662.34390	1.00741
3660.41533	1.05508
3658.48677	1.10276
3656.55820	1.15455
3654.62964	1.21192
3652.70107	1.25985
3650.77251	1.30396
3648.84395	1.36653
3646.91538	1.43724
3644.98682	1.48302
3643.05825	1.51795
3641.12969	1.55640
3639.20112	1.60023
3637.27256	1.64464
3635.34399	1.68812
3633.41543	1.73249
3631.48687	1.77548
3629.55830	1.82069
3627.62974	1.87863
3625.70117	1.92754
3623.77261	1.95747
3621.84404	1.98851
3619.91548	2.02841
3617.98691	2.07774
3616.05835	2.12311
3614.12979	2.16037
3612.20122	2.19926
3610.27266	2.23729
3608.34409	2.27661
3606.41553	2.31944
3604.48696	2.35797
3602.55840	2.39224
3600.62983	2.43144
3598.70127	2.47526
3596.77271	2.51611
3594.84414	2.55545
3592.91558	2.59639
3590.98701	2.63521
3589.05845	2.67278
3587.12988	2.72052
3585.20132	2.77062
3583.27275	2.80764
3581.34419	2.84110
3579.41562	2.87983
3577.48706	2.92257
3575.55850	2.96515
3573.62993	3.00813
3571.70137	3.05093
3569.77280	3.09357
3567.84424	3.14075
3565.91567	3.19556
3563.98711	3.24274
3562.05854	3.28040
3560.12998	3.32159
3558.20142	3.36740
3556.27285	3.41367
3554.34429	3.45893
3552.41572	3.50596
3550.48716	3.55284
3548.55859	3.59729
3546.63003	3.64228
3544.70146	3.69018
3542.77290	3.73754
3540.84434	3.78198
3538.91577	3.82574
3536.98721	3.87162
3535.05864	3.92179
3533.13008	3.97139
3531.20151	4.01932
3529.27295	4.06814
3527.34438	4.11755
3525.41582	4.16403
3523.48726	4.20667
3521.55869	4.25187
3519.63013	4.30163
3517.70156	4.35236
3515.77300	4.39958
3513.84443	4.44343
3511.91587	4.48683
3509.98730	4.53342
3508.05874	4.58523
3506.13018	4.63678
3504.20161	4.68185
3502.27305	4.72479
3500.34448	4.77346
3498.41592	4.82293
3496.48735	4.86773
3494.55879	4.91138
3492.63022	4.95916
3490.70166	5.01210
3488.77310	5.06485
3486.84453	5.10742
3484.91597	5.13995
3482.98740	5.17915
3481.05884	5.23477
3479.13027	5.29684
3477.20171	5.35424
3475.27314	5.40432
3473.34458	5.44557
3471.41602	5.47969
3469.48745	5.51561
3467.55889	5.56463
3465.63032	5.62719
3463.70176	5.68725
3461.77319	5.73423
3459.84463	5.78028
3457.91606	5.82812
3455.98750	5.87490
3454.05894	5.92715
3452.13037	5.98112
3450.20181	6.02031
3448.27324	6.04763
3446.34468	6.09522
3444.41611	6.15724
3442.48755	6.20802
3440.55898	6.24990
3438.63042	6.29618
3436.70186	6.35273
3434.77329	6.40268
3432.84473	6.44573
3430.91616	6.51060
3428.98760	6.59223
3427.05903	6.64700
3425.13047	6.68057
3423.20190	6.71448
3421.27334	6.74646
3419.34478	6.78280
3417.41621	6.82204
3415.48765	6.84841
3413.55908	6.86896
3411.63052	6.90424
3409.70195	6.95368
3407.77339	7.01887
3405.84482	7.07139
3403.91626	7.09654
3401.98770	7.11688
3400.05913	7.15969
3398.13057	7.23818
3396.20200	7.32284
3394.27344	7.37542
3392.34487	7.36334
3390.41631	7.33824
3388.48774	7.36218
3386.55918	7.42345
3384.63062	7.47209
3382.70205	7.48446
3380.77349	7.49713
3378.84492	7.55186
3376.91636	7.63084
3374.98779	7.64501
3373.05923	7.61738
3371.13066	7.61693
3369.20210	7.63011
3367.27354	7.63397
3365.34497	7.64836
3363.41641	7.68262
3361.48784	7.72985
3359.55928	7.80594
3357.63071	7.84479
3355.70215	7.80077
3353.77358	7.74695
3351.84502	7.74544
3349.91646	7.78264
3347.98789	7.83524
3346.05933	7.89827
3344.13076	7.92701
3342.20220	7.88853
3340.27363	7.85234
3338.34507	7.86188
3336.41650	7.83967
3334.48794	7.80567
3332.55937	7.82577
3330.63081	7.85302
3328.70225	7.85451
3326.77368	7.88383
3324.84512	7.92735
3322.91655	7.92040
3320.98799	7.93674
3319.05942	8.03676
3317.13086	8.13881
3315.20229	8.13143
3313.27373	8.05594
3311.34517	7.99315
3309.41660	7.94517
3307.48804	7.90361
3305.55947	7.88813
3303.63091	7.92327
3301.70234	7.94955
3299.77378	7.92809
3297.84521	7.92393
3295.91665	7.97938
3293.98809	8.04628
3292.05952	8.06581
3290.13096	8.03718
3288.20239	8.00578
3286.27383	7.99636
3284.34526	7.97578
3282.41670	7.94736
3280.48813	7.95972
3278.55957	8.01312
3276.63101	8.03623
3274.70244	8.02864
3272.77388	8.01138
3270.84531	7.96215
3268.91675	7.92131
3266.98818	7.92027
3265.05962	7.96674
3263.13105	8.08375
3261.20249	8.19414
3259.27393	8.16152
3257.34536	8.09058
3255.41680	8.07230
3253.48823	8.02546
3251.55967	7.96813
3249.63110	7.97499
3247.70254	8.01164
3245.77397	8.02354
3243.84541	8.03863
3241.91685	8.02695
3239.98828	7.94531
3238.05972	7.83621
3236.13115	7.76239
3234.20259	7.76741
3232.27402	7.83911
3230.34546	7.92418
3228.41689	7.95777
3226.48833	7.90386
3224.55977	7.83501
3222.63120	7.83970
3220.70264	7.82652
3218.77407	7.73584
3216.84551	7.68722
3214.91694	7.70303
3212.98838	7.73986
3211.05981	7.75486
3209.13125	7.71358
3207.20269	7.68727
3205.27412	7.71194
3203.34556	7.72041
3201.41699	7.63269
3199.48843	7.47285
3197.55986	7.39291
3195.63130	7.43247
3193.70273	7.45372
3191.77417	7.39629
3189.84561	7.36378
3187.91704	7.38743
3185.98848	7.39045
3184.05991	7.34229
3182.13135	7.25815
3180.20278	7.16618
3178.27422	7.10008
3176.34565	7.03639
3174.41709	6.94933
3172.48853	6.88820
3170.55996	6.85782
3168.63140	6.80058
3166.70283	6.72409
3164.77427	6.65538
3162.84570	6.58982
3160.91714	6.53482
3158.98857	6.49585
3157.06001	6.44385
3155.13145	6.36469
3153.20288	6.29823
3151.27432	6.26823
3149.34575	6.23369
3147.41719	6.14951
3145.48862	6.04704
3143.56006	5.97571
3141.63149	5.92312
3139.70293	5.85350
3137.77437	5.77082
3135.84580	5.70228
3133.91724	5.64631
3131.98867	5.57926
3130.06011	5.50535
3128.13154	5.43889
3126.20298	5.37234
3124.27441	5.30136
3122.34585	5.23153
3120.41729	5.16770
3118.48872	5.11001
3116.56016	5.05111
3114.63159	4.98493
3112.70303	4.91593
3110.77446	4.84536
3108.84590	4.77024
3106.91733	4.69697
3104.98877	4.62929
3103.06021	4.56388
3101.13164	4.49741
3099.20308	4.43022
3097.27451	4.36630
3095.34595	4.30646
3093.41738	4.24635
3091.48882	4.18201
3089.56025	4.11787
3087.63169	4.05791
3085.70312	3.99842
3083.77456	3.93681
3081.84600	3.87447
3079.91743	3.81394
3077.98887	3.75554
3076.06030	3.69778
3074.13174	3.64220
3072.20317	3.58917
3070.27461	3.53487
3068.34604	3.47909
3066.41748	3.42474
3064.48892	3.37067
3062.56035	3.31491
3060.63179	3.25962
3058.70322	3.20660
3056.77466	3.15494
3054.84609	3.10397
3052.91753	3.05409
3050.98896	3.00517
3049.06040	2.95607
3047.13184	2.90669
3045.20327	2.85815
3043.27471	2.81049
3041.34614	2.76268
3039.41758	2.71555
3037.48901	2.67021
3035.56045	2.62570
3033.63188	2.58189
3031.70332	2.53855
3029.77476	2.49510
3027.84619	2.45247
3025.91763	2.41066
3023.98906	2.36920
3022.06050	2.32817
3020.13193	2.28701
3018.20337	2.24622
3016.27480	2.20721
3014.34624	2.16969
3012.41768	2.13232
3010.48911	2.09460
3008.56055	2.05733
3006.63198	2.02162
3004.70342	1.98739
3002.77485	1.95371
3000.84629	1.92000
2998.91772	1.88666
2996.98916	1.85442
2995.06060	1.82309
2993.13203	1.79215
2991.20347	1.76202
2989.27490	1.73280
2987.34634	1.70402
2985.41777	1.67591
2983.48921	1.64871
2981.56064	1.62220
2979.63208	1.59623
2977.70352	1.57034
2975.77495	1.54460
2973.84639	1.51945
2971.91782	1.49475
2969.98926	1.47019
2968.06069	1.44589
2966.13213	1.42207
2964.20356	1.39817
2962.27500	1.37393
2960.34644	1.34993
2958.41787	1.32612
2956.48931	1.30244
2954.56074	1.27932
2952.63218	1.25663
2950.70361	1.23408
2948.77505	1.21200
2946.84648	1.19055
2944.91792	1.16954
2942.98936	1.14874
2941.06079	1.12789
2939.13223	1.10721
2937.20366	1.08683
2935.27510	1.06652
2933.34653	1.04617
2931.41797	1.02594
2929.48940	1.00625
2927.56084	0.98711
2925.63228	0.96833
2923.70371	0.94992
2921.77515	0.93197
2919.84658	0.91514
2917.91802	0.89970
2915.98945	0.88500
2914.06089	0.87065
2912.13232	0.85645
2910.20376	0.84216
2908.27520	0.82784
2906.34663	0.81380
2904.41807	0.80008
2902.48950	0.78628
2900.56094	0.77265
2898.63237	0.75981
2896.70381	0.74741
2894.77524	0.73511
2892.84668	0.72337
2890.91812	0.71214
2888.98955	0.70092
2887.06099	0.69001
2885.13242	0.68001
2883.20386	0.67062
2881.27529	0.66110
2879.34673	0.65141
2877.41816	0.64185
2875.48960	0.63238
2873.56104	0.62255
2871.63247	0.61202
2869.70391	0.60095
2867.77534	0.58948
2865.84678	0.57770
2863.91821	0.56572
2861.98965	0.55381
2860.06108	0.54254
2858.13252	0.53197
2856.20396	0.52174
2854.27539	0.51199
2852.34683	0.50317
2850.41826	0.49535
2848.48970	0.48808
2846.56113	0.48106
2844.63257	0.47437
2842.70400	0.46808
2840.77544	0.46224
2838.84687	0.45676
2836.91831	0.45123
2834.98975	0.44550
2833.06118	0.43970
2831.13262	0.43392
2829.20405	0.42818
2827.27549	0.42243
2825.34692	0.41663
2823.41836	0.41077
2821.48979	0.40496
2819.56123	0.39931
2817.63267	0.39365
2815.70410	0.38803
2813.77554	0.38266
2811.84697	0.37745
2809.91841	0.37220
2807.98984	0.36689
2806.06128	0.36158
2804.13271	0.35639
2802.20415	0.35144
2800.27559	0.34662
2798.34702	0.34180
2796.41846	0.33695
2794.48989	0.33221
2792.56133	0.32772
2790.63276	0.32321
2788.70420	0.31860
2786.77563	0.31426
2784.84707	0.31020
2782.91851	0.30608
2780.98994	0.30185
2779.06138	0.29785
2777.13281	0.29422
2775.20425	0.29056
2773.27568	0.28671
2771.34712	0.28293
2769.41855	0.27938
2767.48999	0.27592
2765.56143	0.27239
2763.63286	0.26883
2761.70430	0.26538
2759.77573	0.26215
2757.84717	0.25907
2755.91860	0.25599
2753.99004	0.25284
2752.06147	0.24970
2750.13291	0.24673
2748.20435	0.24396
2746.27578	0.24119
2744.34722	0.23840
2742.41865	0.23565
2740.49009	0.23293
2738.56152	0.23039
2736.63296	0.22797
2734.70439	0.22551
2732.77583	0.22307
2730.84727	0.22075
2728.91870	0.21849
2726.99014	0.21623
2725.06157	0.21395
2723.13301	0.21169
2721.20444	0.20959
2719.27588	0.20768
2717.34731	0.20577
2715.41875	0.20385
2713.49019	0.20200
2711.56162	0.20010
2709.63306	0.19811
2707.70449	0.19632
2705.77593	0.19486
2703.84736	0.19349
2701.91880	0.19199
2699.99023	0.19046
2698.06167	0.18899
2696.13311	0.18748
2694.20454	0.18597
2692.27598	0.18454
2690.34741	0.18313
2688.41885	0.18176
2686.49028	0.18052
2684.56172	0.17934
2682.63315	0.17811
2680.70459	0.17678
2678.77603	0.17543
2676.84746	0.17425
2674.91890	0.17325
2672.99033	0.17227
2671.06177	0.17123
2669.13320	0.17019
2667.20464	0.16916
2665.27607	0.16814
2663.34751	0.16725
2661.41895	0.16649
2659.49038	0.16569
2657.56182	0.16481
2655.63325	0.16401
2653.70469	0.16340
2651.77612	0.16282
2649.84756	0.16209
2647.91899	0.16131
2645.99043	0.16061
2644.06187	0.16001
2642.13330	0.15951
2640.20474	0.15912
2638.27617	0.15864
2636.34761	0.15800
2634.41904	0.15739
2632.49048	0.15691
2630.56191	0.15650
2628.63335	0.15611
2626.70479	0.15577
2624.77622	0.15546
2622.84766	0.15516
2620.91909	0.15488
2618.99053	0.15453
2617.06196	0.15411
2615.13340	0.15383
2613.20483	0.15364
2611.27627	0.15345
2609.34771	0.15332
2607.41914	0.15316
2605.49058	0.15300
2603.56201	0.15293
2601.63345	0.15298
2599.70488	0.15308
2597.77632	0.15311
2595.84775	0.15306
2593.91919	0.15310
2591.99062	0.15323
2590.06206	0.15337
2588.13350	0.15349
2586.20493	0.15349
2584.27637	0.15333
2582.34780	0.15330
2580.41924	0.15362
2578.49067	0.15407
2576.56211	0.15442
2574.63354	0.15462
2572.70498	0.15468
2570.77642	0.15483
2568.84785	0.15518
2566.91929	0.15550
2564.99072	0.15581
2563.06216	0.15630
2561.13359	0.15682
2559.20503	0.15722
2557.27646	0.15757
2555.34790	0.15797
2553.41934	0.15852
2551.49077	0.15921
2549.56221	0.15974
2547.63364	0.16007
2545.70508	0.16053
2543.77651	0.16113
2541.84795	0.16171
2539.91938	0.16223
2537.99082	0.16280
2536.06226	0.16332
2534.13369	0.16376
2532.20513	0.16432
2530.27656	0.16500
2528.34800	0.16569
2526.41943	0.16642
2524.49087	0.16719
2522.56230	0.16785
2520.63374	0.16845
2518.70518	0.16916
2516.77661	0.16995
2514.84805	0.17066
2512.91948	0.17131
2510.99092	0.17203
2509.06235	0.17282
2507.13379	0.17357
2505.20522	0.17424
2503.27666	0.17492
2501.34810	0.17568
2499.41953	0.17649
2497.49097	0.17725
2495.56240	0.17801
2493.63384	0.17883
2491.70527	0.17971
2489.77671	0.18067
2487.84814	0.18158
2485.91958	0.18233
2483.99102	0.18298
2482.06245	0.18368
2480.13389	0.18457
2478.20532	0.18565
2476.27676	0.18661
2474.34819	0.18730
2472.41963	0.18798
2470.49106	0.18883
2468.56250	0.18970
2466.63394	0.19045
2464.70537	0.19118
2462.77681	0.19207
2460.84824	0.19312
2458.91968	0.19416
2456.99111	0.19519
2455.06255	0.19624
2453.13398	0.19722
2451.20542	0.19812
2449.27686	0.19900
2447.34829	0.19996
2445.41973	0.20089
2443.49116	0.20166
2441.56260	0.20246
2439.63403	0.20344
2437.70547	0.20440
2435.77690	0.20529
2433.84834	0.20632
2431.91978	0.20743
2429.99121	0.20850
2428.06265	0.20958
2426.13408	0.21068
2424.20552	0.21169
2422.27695	0.21265
2420.34839	0.21369
2418.41982	0.21481
2416.49126	0.21597
2414.56270	0.21709
2412.63413	0.21811
2410.70557	0.21924
2408.77700	0.22048
2406.84844	0.22166
2404.91987	0.22281
2402.99131	0.22393
2401.06274	0.22504
2399.13418	0.22618
2397.20562	0.22736
2395.27705	0.22857
2393.34849	0.22978
2391.41992	0.23103
2389.49136	0.23228
2387.56279	0.23364
2385.63423	0.23534
2383.70566	0.23748
2381.77710	0.23992
2379.84854	0.24251
2377.91997	0.24525
2375.99141	0.24817
2374.06284	0.25121
2372.13428	0.25445
2370.20571	0.25794
2368.27715	0.26138
2366.34858	0.26452
2364.42002	0.26739
2362.49146	0.26995
2360.56289	0.27218
2358.63433	0.27436
2356.70576	0.27593
2354.77720	0.27620
2352.84863	0.27568
2350.92007	0.27471
2348.99150	0.27394
2347.06294	0.27440
2345.13437	0.27674
2343.20581	0.28027
2341.27725	0.28296
2339.34868	0.28431
2337.42012	0.28557
2335.49155	0.28714
2333.56299	0.28833
2331.63442	0.28948
2329.70586	0.29093
2327.77729	0.29250
2325.84873	0.29382
2323.92017	0.29462
2321.99160	0.29509
2320.06304	0.29568
2318.13447	0.29639
2316.20591	0.29708
2314.27734	0.29805
2312.34878	0.29935
2310.42021	0.30059
2308.49165	0.30164
2306.56309	0.30261
2304.63452	0.30359
2302.70596	0.30475
2300.77739	0.30614
2298.84883	0.30753
2296.92026	0.30885
2294.99170	0.31020
2293.06313	0.31158
2291.13457	0.31307
2289.20601	0.31476
2287.27744	0.31653
2285.34888	0.31809
2283.42031	0.31953
2281.49175	0.32129
2279.56318	0.32351
2277.63462	0.32569
2275.70605	0.32760
2273.77749	0.32944
2271.84893	0.33140
2269.92036	0.33346
2267.99180	0.33557
2266.06323	0.33766
2264.13467	0.33969
2262.20610	0.34169
2260.27754	0.34371
2258.34897	0.34580
2256.42041	0.34798
2254.49185	0.35009
2252.56328	0.35204
2250.63472	0.35404
2248.70615	0.35623
2246.77759	0.35844
2244.84902	0.36055
2242.92046	0.36264
2240.99189	0.36474
2239.06333	0.36686
2237.13477	0.36899
2235.20620	0.37115
2233.27764	0.37340
2231.34907	0.37569
2229.42051	0.37794
2227.49194	0.38009
2225.56338	0.38224
2223.63481	0.38440
2221.70625	0.38653
2219.77769	0.38859
2217.84912	0.39066
2215.92056	0.39286
2213.99199	0.39507
2212.06343	0.39719
2210.13486	0.39933
2208.20630	0.40148
2206.27773	0.40357
2204.34917	0.40562
2202.42061	0.40760
2200.49204	0.40956
2198.56348	0.41156
2196.63491	0.41360
2194.70635	0.41561
2192.77778	0.41751
2190.84922	0.41932
2188.92065	0.42117
2186.99209	0.42303
2185.06353	0.42489
2183.13496	0.42660
2181.20640	0.42812
2179.27783	0.42969
2177.34927	0.43143
2175.42070	0.43315
2173.49214	0.43471
2171.56357	0.43612
2169.63501	0.43743
2167.70645	0.43870
2165.77788	0.43991
2163.84932	0.44112
2161.92075	0.44233
2159.99219	0.44348
2158.06362	0.44456
2156.13506	0.44553
2154.20649	0.44636
2152.27793	0.44722
2150.34937	0.44815
2148.42080	0.44898
2146.49224	0.44959
2144.56367	0.45001
2142.63511	0.45040
2140.70654	0.45085
2138.77798	0.45131
2136.84941	0.45161
2134.92085	0.45177
2132.99229	0.45191
2131.06372	0.45196
2129.13516	0.45179
2127.20659	0.45147
2125.27803	0.45116
2123.34946	0.45097
2121.42090	0.45079
2119.49233	0.45040
2117.56377	0.44981
2115.63521	0.44921
2113.70664	0.44855
2111.77808	0.44775
2109.84951	0.44686
2107.92095	0.44600
2105.99238	0.44507
2104.06382	0.44397
2102.13525	0.44274
2100.20669	0.44147
2098.27812	0.44009
2096.34956	0.43863
2094.42100	0.43719
2092.49243	0.43581
2090.56387	0.43441
2088.63530	0.43287
2086.70674	0.43114
2084.77817	0.42925
2082.84961	0.42728
2080.92104	0.42537
2078.99248	0.42358
2077.06392	0.42178
2075.13535	0.41987
2073.20679	0.41788
2071.27822	0.41574
2069.34966	0.41346
2067.42109	0.41129
2065.49253	0.40934
2063.56396	0.40717
2061.63540	0.40471
2059.70684	0.40226
2057.77827	0.39987
2055.84971	0.39743
2053.92114	0.39491
2051.99258	0.39238
2050.06401	0.38990
2048.13545	0.38742
2046.20688	0.38482
2044.27832	0.38225
2042.34976	0.37976
2040.42119	0.37718
2038.49263	0.37439
2036.56406	0.37156
2034.63550	0.36885
2032.70693	0.36619
2030.77837	0.36346
2028.84980	0.36079
2026.92124	0.35824
2024.99268	0.35561
2023.06411	0.35295
2021.13555	0.35041
2019.20698	0.34797
2017.27842	0.34539
2015.34985	0.34244
2013.42129	0.33937
2011.49272	0.33650
2009.56416	0.33386
2007.63560	0.33127
2005.70703	0.32862
2003.77847	0.32597
2001.84990	0.32333
1999.92134	0.32079
1997.99277	0.31832
1996.06421	0.31586
1994.13564	0.31371
1992.20708	0.31176
1990.27852	0.30936
1988.34995	0.30656
1986.42139	0.30371
1984.49282	0.30102
1982.56426	0.29865
1980.63569	0.29646
1978.70713	0.29425
1976.77856	0.29199
1974.85000	0.28975
1972.92144	0.28754
1970.99287	0.28549
1969.06431	0.28377
1967.13574	0.28217
1965.20718	0.28014
1963.27861	0.27782
1961.35005	0.27564
1959.42148	0.27354
1957.49292	0.27157
1955.56436	0.26983
1953.63579	0.26816
1951.70723	0.26638
1949.77866	0.26468
1947.85010	0.26332
1945.92153	0.26229
1943.99297	0.26144
1942.06440	0.26018
1940.13584	0.25803
1938.20728	0.25585
1936.27871	0.25428
1934.35015	0.25301
1932.42158	0.25180
1930.49302	0.25056
1928.56445	0.24934
1926.63589	0.24834
1924.70732	0.24785
1922.77876	0.24750
1920.85020	0.24658
1918.92163	0.24556
1916.99307	0.24464
1915.06450	0.24329
1913.13594	0.24204
1911.20737	0.24152
1909.27881	0.24125
1907.35024	0.24046
1905.42168	0.23930
1903.49312	0.23843
1901.56455	0.23784
1899.63599	0.23726
1897.70742	0.23687
1895.77886	0.23678
1893.85029	0.23658
1891.92173	0.23628
1889.99316	0.23638
1888.06460	0.23613
1886.13604	0.23533
1884.20747	0.23478
1882.27891	0.23445
1880.35034	0.23414
1878.42178	0.23395
1876.49321	0.23395
1874.56465	0.23401
1872.63608	0.23438
1870.70752	0.23563
1868.77896	0.23755
1866.85039	0.23783
1864.92183	0.23632
1862.99326	0.23534
1861.06470	0.23537
1859.13613	0.23572
1857.20757	0.23589
1855.27900	0.23608
1853.35044	0.23644
1851.42187	0.23713
1849.49331	0.23820
1847.56475	0.23959
1845.63618	0.24130
1843.70762	0.24283
1841.77905	0.24290
1839.85049	0.24237
1837.92192	0.24273
1835.99336	0.24356
1834.06479	0.24442
1832.13623	0.24593
1830.20767	0.24849
1828.27910	0.25040
1826.35054	0.25102
1824.42197	0.25177
1822.49341	0.25231
1820.56484	0.25284
1818.63628	0.25397
1816.70771	0.25554
1814.77915	0.25715
1812.85059	0.25924
1810.92202	0.26181
1808.99346	0.26383
1807.06489	0.26525
1805.13633	0.26693
1803.20776	0.26956
1801.27920	0.27285
1799.35063	0.27591
1797.42207	0.27813
1795.49351	0.28057
1793.56494	0.28414
1791.63638	0.28830
1789.70781	0.29068
1787.77925	0.29192
1785.85068	0.29459
1783.92212	0.29844
1781.99355	0.30262
1780.06499	0.30692
1778.13643	0.31098
1776.20786	0.31505
1774.27930	0.32046
1772.35073	0.32787
1770.42217	0.33414
1768.49360	0.33786
1766.56504	0.34148
1764.63647	0.34611
1762.70791	0.35229
1760.77935	0.36006
1758.85078	0.36678
1756.92222	0.37352
1754.99365	0.38088
1753.06509	0.38796
1751.13652	0.39744
1749.20796	0.40914
1747.27939	0.41913
1745.35083	0.42722
1743.42227	0.43623
1741.49370	0.44655
1739.56514	0.45884
1737.63657	0.47110
1735.70801	0.48238
1733.77944	0.49988
1731.85088	0.51926
1729.92231	0.53315
1727.99375	0.54715
1726.06519	0.56290
1724.13662	0.58107
1722.20806	0.60114
1720.27949	0.62025
1718.35093	0.64372
1716.42236	0.67712
1714.49380	0.70610
1712.56523	0.72870
1710.63667	0.75160
1708.70811	0.77740
1706.77954	0.80760
1704.85098	0.84353
1702.92241	0.87499
1700.99385	0.90666
1699.06528	0.95483
1697.13672	0.99859
1695.20815	1.04175
1693.27959	1.08326
1691.35103	1.11799
1689.42246	1.15982
1687.49390	1.20429
1685.56533	1.24703
1683.63677	1.31308
1681.70820	1.38100
1679.77964	1.42339
1677.85107	1.46407
1675.92251	1.51253
1673.99395	1.57347
1672.06538	1.62747
1670.13682	1.68061
1668.20825	1.74989
1666.27969	1.80605
1664.35112	1.85460
1662.42256	1.91746
1660.49399	1.98889
1658.56543	2.04445
1656.63687	2.09000
1654.70830	2.13273
1652.77974	2.19591
1650.85117	2.25266
1648.92261	2.27329
1646.99404	2.30115
1645.06548	2.33004
1643.13691	2.34456
1641.20835	2.34982
1639.27979	2.35629
1637.35122	2.36116
1635.42266	2.35931
1633.49409	2.34881
1631.56553	2.33285
1629.63696	2.31394
1627.70840	2.28320
1625.77983	2.24793
1623.85127	2.20389
1621.92271	2.14939
1619.99414	2.10120
1618.06558	2.05519
1616.13701	1.98985
1614.20845	1.92206
1612.27988	1.86966
1610.35132	1.81606
1608.42275	1.75886
1606.49419	1.70204
1604.56562	1.64921
1602.63706	1.59841
1600.70850	1.54913
1598.77993	1.50386
1596.85137	1.46170
1594.92280	1.42110
1592.99424	1.38193
1591.06567	1.34633
1589.13711	1.31349
1587.20854	1.28321
1585.27998	1.25554
1583.35142	1.23027
1581.42285	1.20787
1579.49429	1.18949
1577.56572	1.17424
1575.63716	1.15556
1573.70859	1.13729
1571.78003	1.12564
1569.85146	1.11587
1567.92290	1.10540
1565.99434	1.09754
1564.06577	1.09284
1562.13721	1.09045
1560.20864	1.09203
1558.28008	1.09954
1556.35151	1.10322
1554.42295	1.10320
1552.49438	1.10393
1550.56582	1.10390
1548.63726	1.10171
1546.70869	1.09747
1544.78013	1.09128
1542.85156	1.08212
1540.92300	1.06545
1538.99443	1.03476
1537.06587	1.01033
1535.13730	0.99434
1533.20874	0.97400
1531.28018	0.95160
1529.35161	0.93560
1527.42305	0.92173
1525.49448	0.90746
1523.56592	0.89517
1521.63735	0.88361
1519.70879	0.87120
1517.78022	0.86046
1515.85166	0.84777
1513.92310	0.83373
1511.99453	0.82200
1510.06597	0.81286
1508.13740	0.80529
1506.20884	0.79036
1504.28027	0.77361
1502.35171	0.76409
1500.42314	0.75721
1498.49458	0.75081
1496.56602	0.74276
1494.63745	0.73361
1492.70889	0.72703
1490.78032	0.72288
1488.85176	0.71771
1486.92319	0.71042
1484.99463	0.70405
1483.06606	0.69987
1481.13750	0.69703
1479.20894	0.69489
1477.28037	0.69412
1475.35181	0.69521
1473.42324	0.69713
1471.49468	0.69626
1469.56611	0.69234
1467.63755	0.68918
1465.70898	0.68779
1463.78042	0.68680
1461.85186	0.68581
1459.92329	0.68662
1457.99473	0.68982
1456.06616	0.69104
1454.13760	0.68709
1452.20903	0.68299
1450.28047	0.67999
1448.35190	0.67764
1446.42334	0.67493
1444.49478	0.67194
1442.56621	0.66924
1440.63765	0.66684
1438.70908	0.66481
1436.78052	0.66220
1434.85195	0.65815
1432.92339	0.65470
1430.99482	0.65281
1429.06626	0.65176
1427.13770	0.65118
1425.20913	0.65174
1423.28057	0.65314
1421.35200	0.65431
1419.42344	0.65545
1417.49487	0.65551
1415.56631	0.65358
1413.63774	0.65202
1411.70918	0.65191
1409.78062	0.65286
1407.85205	0.65451
1405.92349	0.65682
1403.99492	0.65881
1402.06636	0.65942
1400.13779	0.65944
1398.20923	0.65883
1396.28066	0.65674
1394.35210	0.65285
1392.42354	0.64776
1390.49497	0.64318
1388.56641	0.63927
1386.63784	0.63448
1384.70928	0.62851
1382.78071	0.62276
1380.85215	0.61774
1378.92358	0.61372
1376.99502	0.61111
1375.06646	0.60971
1373.13789	0.60837
1371.20933	0.60681
1369.28076	0.60572
1367.35220	0.60474
1365.42363	0.60362
1363.49507	0.60270
1361.56650	0.60125
1359.63794	0.59903
1357.70937	0.59715
1355.78081	0.59583
1353.85225	0.59474
1351.92368	0.59386
1349.99512	0.59321
1348.06655	0.59256
1346.13799	0.59172
1344.20942	0.59087
1342.28086	0.59054
1340.35229	0.59092
1338.42373	0.59094
1336.49517	0.58989
1334.56660	0.58871
1332.63804	0.58814
1330.70947	0.58820
1328.78091	0.58865
1326.85234	0.58925
1324.92378	0.58992
1322.99521	0.59082
1321.06665	0.59199
1319.13809	0.59312
1317.20952	0.59366
1315.28096	0.59361
1313.35239	0.59332
1311.42383	0.59272
1309.49526	0.59190
1307.56670	0.59120
1305.63813	0.59068
1303.70957	0.59023
1301.78101	0.58975
1299.85244	0.58906
1297.92388	0.58795
1295.99531	0.58652
1294.06675	0.58518
1292.13818	0.58411
1290.20962	0.58318
1288.28105	0.58220
1286.35249	0.58091
1284.42393	0.57927
1282.49536	0.57756
1280.56680	0.57609
1278.63823	0.57492
1276.70967	0.57388
1274.78110	0.57285
1272.85254	0.57189
1270.92397	0.57097
1268.99541	0.57012
1267.06685	0.56938
1265.13828	0.56861
1263.20972	0.56768
1261.28115	0.56675
1259.35259	0.56607
1257.42402	0.56565
1255.49546	0.56534
1253.56689	0.56515
1251.63833	0.56515
1249.70977	0.56530
1247.78120	0.56546
1245.85264	0.56538
1243.92407	0.56486
1241.99551	0.56393
1240.06694	0.56265
1238.13838	0.56097
1236.20981	0.55895
1234.28125	0.55675
1232.35269	0.55439
1230.42412	0.55201
1228.49556	0.55000
1226.56699	0.54836
1224.63843	0.54663
1222.70986	0.54472
1220.78130	0.54291
1218.85273	0.54133
1216.92417	0.53996
1214.99561	0.53872
1213.06704	0.53771
1211.13848	0.53694
1209.20991	0.53616
1207.28135	0.53543
1205.35278	0.53480
1203.42422	0.53402
1201.49565	0.53308
1199.56709	0.53221
1197.63853	0.53143
1195.70996	0.53061
1193.78140	0.52980
1191.85283	0.52921
1189.92427	0.52889
1187.99570	0.52872
1186.06714	0.52873
1184.13857	0.52885
1182.21001	0.52909
1180.28145	0.52971
1178.35288	0.53092
1176.42432	0.53244
1174.49575	0.53372
1172.56719	0.53446
1170.63862	0.53470
1168.71006	0.53467
1166.78149	0.53460
1164.85293	0.53464
1162.92437	0.53466
1160.99580	0.53446
1159.06724	0.53401
1157.13867	0.53323
1155.21011	0.53211
1153.28154	0.53075
1151.35298	0.52922
1149.42441	0.52740
1147.49585	0.52507
1145.56729	0.52235
1143.63872	0.51976
1141.71016	0.51758
1139.78159	0.51582
1137.85303	0.51454
1135.92446	0.51373
1133.99590	0.51321
1132.06733	0.51295
1130.13877	0.51290
1128.21021	0.51281
1126.28164	0.51232
1124.35308	0.51153
1122.42451	0.51102
1120.49595	0.51093
1118.56738	0.51100
1116.63882	0.51123
1114.71025	0.51164
1112.78169	0.51209
1110.85312	0.51253
1108.92456	0.51320
1106.99600	0.51427
1105.06743	0.51554
1103.13887	0.51677
1101.21030	0.51797
1099.28174	0.51939
1097.35317	0.52150
1095.42461	0.52445
1093.49604	0.52805
1091.56748	0.53238
1089.63892	0.53781
1087.71035	0.54436
1085.78179	0.55173
1083.85322	0.55940
1081.92466	0.56630
1079.99609	0.57145
1078.06753	0.57430
1076.13896	0.57444
1074.21040	0.57169
1072.28184	0.56657
1070.35327	0.56007
1068.42471	0.55303
1066.49614	0.54619
1064.56758	0.53996
1062.63901	0.53438
1060.71045	0.52939
1058.78188	0.52493
1056.85332	0.52105
1054.92476	0.51758
1052.99619	0.51440
1051.06763	0.51174
1049.13906	0.50959
1047.21050	0.50783
1045.28193	0.50662
1043.35337	0.50589
1041.42480	0.50530
1039.49624	0.50472
1037.56768	0.50429
1035.63911	0.50408
1033.71055	0.50371
1031.78198	0.50281
1029.85342	0.50159
1027.92485	0.50035
1025.99629	0.49913
1024.06772	0.49814
1022.13916	0.49760
1020.21060	0.49739
1018.28203	0.49737
1016.35347	0.49760
1014.42490	0.49807
1012.49634	0.49856
1010.56777	0.49901
1008.63921	0.49962
1006.71064	0.50046
1004.78208	0.50162
1002.85352	0.50341
1000.92495	0.50592
998.99639	0.50914
997.06782	0.51311
995.13926	0.51752
993.21069	0.52172
991.28213	0.52506
989.35356	0.52717
987.42500	0.52824
985.49644	0.52862
983.56787	0.52867
981.63931	0.52888
979.71074	0.52960
977.78218	0.53087
975.85361	0.53264
973.92505	0.53490
971.99648	0.53767
970.06792	0.54088
968.13936	0.54429
966.21079	0.54790
964.28223	0.55202
962.35366	0.55666
960.42510	0.56171
958.49653	0.56709
956.56797	0.57253
954.63940	0.57808
952.71084	0.58413
950.78228	0.59057
948.85371	0.59669
946.92515	0.60245
944.99658	0.60852
943.06802	0.61507
941.13945	0.62163
939.21089	0.62779
937.28232	0.63332
935.35376	0.63857
933.42520	0.64418
931.49663	0.64987
929.56807	0.65521
927.63950	0.66038
925.71094	0.66576
923.78237	0.67152
921.85381	0.67759
919.92524	0.68353
917.99668	0.68929
916.06812	0.69560
914.13955	0.70306
912.21099	0.71149
910.28242	0.71993
908.35386	0.72760
906.42529	0.73493
904.49673	0.74254
902.56816	0.75101
900.63960	0.76116
898.71104	0.77246
896.78247	0.78293
894.85391	0.79193
892.92534	0.80076
890.99678	0.81054
889.06821	0.82162
887.13965	0.83335
885.21108	0.84400
883.28252	0.85300
881.35396	0.86191
879.42539	0.87225
877.49683	0.88435
875.56826	0.89757
873.63970	0.91032
871.71113	0.92161
869.78257	0.93202
867.85400	0.94321
865.92544	0.95601
863.99687	0.96834
862.06831	0.97855
860.13975	0.98858
858.21118	1.00033
856.28262	1.01168
854.35405	1.02059
852.42549	1.03002
850.49692	1.04335
848.56836	1.05851
846.63979	1.07106
844.71123	1.08066
842.78267	1.08981
840.85410	1.10015
838.92554	1.11070
836.99697	1.11923
835.06841	1.12711
833.13984	1.13917
831.21128	1.15420
829.28271	1.16471
827.35415	1.17126
825.42559	1.17842
823.49702	1.18352
821.56846	1.18565
819.63989	1.19515
817.71133	1.21799
815.78276	1.24254
813.85420	1.24917
811.92563	1.23514
809.99707	1.22758
808.06851	1.24200
806.13994	1.26230
804.21138	1.27300
802.28281	1.27679
800.35425	1.27638
798.42568	1.26448
796.49712	1.24349
794.56855	1.20453
792.63999	1.14659
790.71143	1.09841
788.78286	1.05242
786.85430	1.00645
784.92573	0.97249
782.99717	0.94476
781.06860	0.91919
779.14004	0.90031
777.21147	0.88319
775.28291	0.85913
773.35435	0.83870
771.42578	0.82745
769.49722	0.81746
767.56865	0.80306
765.64009	0.77726
763.71152	0.74103
761.78296	0.70744
759.85439	0.67850
757.92583	0.64450
755.99727	0.61365
754.06870	0.59462
752.14014	0.57508
750.21157	0.55036
748.28301	0.52669
746.35444	0.48857
744.42588	0.42742
742.49731	0.37172
740.56875	0.34104
738.64019	0.31800
736.71162	0.27027
734.78306	0.19404
732.85449	0.10130
730.92593	0.00653
728.99736	-0.07975
727.06880	-0.17317
725.14023	-0.27760
723.21167	-0.35136
721.28311	-0.39833
719.35454	-0.42954
717.42598	-0.44691
715.49741	-0.44699
713.56885	-0.46620
711.64028	-0.54890
709.71172	-0.67735
707.78315	-0.69569
705.85459	-0.60100
703.92603	-0.54650
701.99746	-0.52490
700.06890	-0.50167
698.14033	-0.46402
696.21177	-0.38779
694.28320	-0.30975
692.35464	-0.28749
690.42607	-0.32565
688.49751	-0.36186
686.56895	-0.36462
684.64038	-0.36375
682.71182	-0.36252
680.78325	-0.36014
678.85469	-0.36032
676.92612	-0.33734
674.99756	-0.31423
673.06899	-0.31291
671.14043	-0.29682
669.21187	-0.26834
667.28330	-0.26391
665.35474	-0.28807
663.42617	-0.31603
661.49761	-0.33549
659.56904	-0.37221
657.64048	-0.40004
655.71191	-0.35712
653.78335	-0.32118
651.85479	-0.33124
649.92622	-0.34759
647.99766	-0.32262
646.06909	-0.25851
644.14053	-0.22555
642.21196	-0.24957
640.28340	-0.28067
638.35483	-0.27951
636.42627	-0.26448
634.49771	-0.27151
632.56914	-0.30615
630.64058	-0.30390
628.71201	-0.25090
626.78345	-0.22718
624.85488	-0.25155
622.92632	-0.29016
620.99775	-0.29174
619.06919	-0.26972
617.14062	-0.27834
615.21206	-0.30407
613.28350	-0.28734
611.35493	-0.25183
609.42637	-0.25110
607.49780	-0.26425
605.56924	-0.24820
603.64067	-0.21946
601.71211	-0.21205
599.78354	-0.24095
597.85498	-0.28473
595.92642	-0.29064
593.99785	-0.26305
592.06929	-0.23085
590.14072	-0.20716
588.21216	-0.20543
586.28359	-0.22356
584.35503	-0.23082
582.42646	-0.22704
580.49790	-0.24573
578.56934	-0.27277
576.64077	-0.27353
574.71221	-0.25944
572.78364	-0.26454
570.85508	-0.29030
568.92651	-0.31005
566.99795	-0.30383
565.06938	-0.27503
563.14082	-0.23225
561.21226	-0.20095
559.28369	-0.20507
557.35513	-0.23195
555.42656	-0.25440
553.49800	-0.24644
551.56943	-0.22610
549.64087	-0.22556
547.71230	-0.23280
545.78374	-0.24540
543.85518	-0.25651
541.92661	-0.24970
539.99805	-0.24289
538.06948	-0.23213
536.14092	-0.21137
534.21235	-0.21473
532.28379	-0.24504
530.35522	-0.26213
528.42666	-0.25900
526.49810	-0.24064
524.56953	-0.22231
522.64097	-0.23506
520.71240	-0.25669
518.78384	-0.24040
516.85527	-0.21512
514.92671	-0.21790
512.99814	-0.23405
511.06958	-0.23425
509.14102	-0.21341
507.21245	-0.19817
505.28389	-0.19523
503.35532	-0.19019
501.42676	-0.19476
499.49819	-0.22470
