3997.91411	0.06714
3995.98555	0.06796
3994.05698	0.06843
3992.12842	0.06842
3990.19985	0.06849
3988.27129	0.06866
3986.34272	0.06869
3984.41416	0.06901
3982.48560	0.06968
3980.55703	0.07012
3978.62847	0.07041
3976.69990	0.07089
3974.77134	0.07147
3972.84277	0.07174
3970.91421	0.07151
3968.98564	0.07124
3967.05708	0.07131
3965.12852	0.07153
3963.19995	0.07187
3961.27139	0.07222
3959.34282	0.07219
3957.41426	0.07192
3955.48569	0.07195
3953.55713	0.07234
3951.62856	0.07316
3949.70000	0.07415
3947.77144	0.07445
3945.84287	0.07397
3943.91431	0.07375
3941.98574	0.07392
3940.05718	0.07351
3938.12861	0.07268
3936.20005	0.07220
3934.27148	0.07256
3932.34292	0.07377
3930.41436	0.07467
3928.48579	0.07445
3926.55723	0.07402
3924.62866	0.07406
3922.70010	0.07398
3920.77153	0.07349
3918.84297	0.07325
3916.91440	0.07334
3914.98584	0.07299
3913.05728	0.07213
3911.12871	0.07139
3909.20015	0.07105
3907.27158	0.07160
3905.34302	0.07361
3903.41445	0.07648
3901.48589	0.07797
3899.55732	0.07731
3897.62876	0.07556
3895.70020	0.07376
3893.77163	0.07311
3891.84307	0.07384
3889.91450	0.07419
3887.98594	0.07349
3886.05737	0.07393
3884.12881	0.07550
3882.20024	0.07640
3880.27168	0.07683
3878.34312	0.07652
3876.41455	0.07575
3874.48599	0.07612
3872.55742	0.07757
3870.62886	0.07896
3868.70029	0.07964
3866.77173	0.07929
3864.84316	0.07905
3862.91460	0.07913
3860.98604	0.07848
3859.05747	0.07770
3857.12891	0.07802
3855.20034	0.07980
3853.27178	0.08314
3851.34321	0.08506
3849.41465	0.08279
3847.48608	0.08035
3845.55752	0.07966
3843.62896	0.08090
3841.70039	0.08347
3839.77183	0.08624
3837.84326	0.08838
3835.91470	0.08872
3833.98613	0.08762
3832.05757	0.08680
3830.12900	0.08676
3828.20044	0.08720
3826.27187	0.08796
3824.34331	0.08885
3822.41475	0.09043
3820.48618	0.09315
3818.55762	0.09426
3816.62905	0.09356
3814.70049	0.09314
3812.77192	0.09270
3810.84336	0.09240
3808.91479	0.09309
3806.98623	0.09524
3805.05767	0.09790
3803.12910	0.10000
3801.20054	0.10258
3799.27197	0.10455
3797.34341	0.10490
3795.41484	0.10481
3793.48628	0.10406
3791.55771	0.10360
3789.62915	0.10436
3787.70059	0.10590
3785.77202	0.10800
3783.84346	0.11020
3781.91489	0.11161
3779.98633	0.11328
3778.05776	0.11571
3776.12920	0.11699
3774.20063	0.11737
3772.27207	0.11844
3770.34351	0.12080
3768.41494	0.12393
3766.48638	0.12641
3764.55781	0.12822
3762.62925	0.12989
3760.70068	0.13223
3758.77212	0.13553
3756.84355	0.13841
3754.91499	0.14077
3752.98643	0.14466
3751.05786	0.15068
3749.12930	0.15543
3747.20073	0.15665
3745.27217	0.15835
3743.34360	0.16228
3741.41504	0.16537
3739.48647	0.16751
3737.55791	0.17132
3735.62935	0.17778
3733.70078	0.18464
3731.77222	0.18807
3729.84365	0.19025
3727.91509	0.19398
3725.98652	0.20006
3724.05796	0.20731
3722.12939	0.21376
3720.20083	0.21997
3718.27227	0.22680
3716.34370	0.23396
3714.41514	0.24140
3712.48657	0.25149
3710.55801	0.26628
3708.62944	0.28081
3706.70088	0.29156
3704.77231	0.30191
3702.84375	0.31481
3700.91519	0.33196
3698.98662	0.35054
3697.05806	0.36810
3695.12949	0.38699
3693.20093	0.40737
3691.27236	0.42990
3689.34380	0.45902
3687.41523	0.49377
3685.48667	0.52326
3683.55811	0.54853
3681.62954	0.57651
3679.70098	0.60921
3677.77241	0.64432
3675.84385	0.68565
3673.91528	0.73966
3671.98672	0.78246
3670.05815	0.82033
3668.12959	0.87344
3666.20103	0.92221
3664.27246	0.96287
3662.34390	1.00666
3660.41533	1.05437
3658.48677	1.10189
3656.55820	1.15246
3654.62964	1.20819
3652.70107	1.25493
3650.77251	1.29705
3648.84395	1.35675
3646.91538	1.42780
3644.98682	1.47618
3643.05825	1.51273
3641.12969	1.55270
3639.20112	1.59820
3637.27256	1.64357
3635.34399	1.68744
3633.41543	1.73173
3631.48687	1.77350
3629.55830	1.81552
3627.62974	1.87012
3625.70117	1.92119
3623.77261	1.95526
3621.84404	1.98765
3619.91548	2.02583
3617.98691	2.07334
3616.05835	2.11866
3614.12979	2.15556
3612.20122	2.19432
3610.27266	2.23324
3608.34409	2.27254
3606.41553	2.31496
3604.48696	2.35431
3602.55840	2.38963
3600.62983	2.42830
3598.70127	2.47008
3596.77271	2.51047
3594.84414	2.55149
3592.91558	2.59369
3590.98701	2.63283
3589.05845	2.66949
3587.12988	2.71492
3585.20132	2.76443
3583.27275	2.80414
3581.34419	2.84103
3579.41562	2.88117
3577.48706	2.92338
3575.55850	2.96609
3573.62993	3.00912
3571.70137	3.05001
3569.77280	3.08968
3567.84424	3.13373
3565.91567	3.18824
3563.98711	3.23888
3562.05854	3.27761
3560.12998	3.31796
3558.20142	3.36444
3556.27285	3.41055
3554.34429	3.45275
3552.41572	3.49757
3550.48716	3.54448
3548.55859	3.58795
3546.63003	3.63158
3544.70146	3.68199
3542.77290	3.73527
3540.84434	3.78302
3538.91577	3.82648
3536.98721	3.87064
3535.05864	3.91795
3533.13008	3.96474
3531.20151	4.01177
3529.27295	4.06192
3527.34438	4.11264
3525.41582	4.15991
3523.48726	4.20512
3521.55869	4.25118
3519.63013	4.29764
3517.70156	4.34689
3515.77300	4.39942
3513.84443	4.45285
3511.91587	4.50388
3509.98730	4.55108
3508.05874	4.59609
3506.13018	4.64039
3504.20161	4.68372
3502.27305	4.72804
3500.34448	4.77687
3498.41592	4.82707
3496.48735	4.87421
3494.55879	4.91734
3492.63022	4.96213
3490.70166	5.01323
3488.77310	5.06614
3486.84453	5.11829
3484.91597	5.16890
3482.98740	5.21640
3481.05884	5.26214
3479.13027	5.30527
3477.20171	5.35310
3475.27314	5.40859
3473.34458	5.45924
3471.41602	5.50399
3469.48745	5.54989
3467.55889	5.59841
3465.63032	5.65090
3463.70176	5.70202
3461.77319	5.74023
3459.84463	5.77311
3457.91606	5.81416
3455.98750	5.86643
3454.05894	5.92631
3452.13037	5.98291
3450.20181	6.03259
3448.27324	6.08022
3446.34468	6.13576
3444.41611	6.19360
3442.48755	6.24068
3440.55898	6.28539
3438.63042	6.33952
3436.70186	6.38602
3434.77329	6.41698
3432.84473	6.45670
3430.91616	6.50649
3428.98760	6.55948
3427.05903	6.61472
3425.13047	6.65902
3423.20190	6.68110
3421.27334	6.70507
3419.34478	6.76674
3417.41621	6.85682
3415.48765	6.91163
3413.55908	6.92768
3411.63052	6.98086
3409.70195	7.05917
3407.77339	7.13139
3405.84482	7.20010
3403.91626	7.22523
3401.98770	7.21939
3400.05913	7.26925
3398.13057	7.36450
3396.20200	7.41371
3394.27344	7.42423
3392.34487	7.41863
3390.41631	7.40677
3388.48774	7.42502
3386.55918	7.48244
3384.63062	7.56208
3382.70205	7.63622
3380.77349	7.65256
3378.84492	7.62120
3376.91636	7.62283
3374.98779	7.66439
3373.05923	7.72673
3371.13066	7.79665
3369.20210	7.84176
3367.27354	7.83761
3365.34497	7.82144
3363.41641	7.80935
3361.48784	7.77830
3359.55928	7.79026
3357.63071	7.87336
3355.70215	7.93424
3353.77358	7.91077
3351.84502	7.87914
3349.91646	7.89397
3347.98789	7.94974
3346.05933	8.00310
3344.13076	8.02159
3342.20220	8.03622
3340.27363	8.08750
3338.34507	8.17099
3336.41650	8.21236
3334.48794	8.19104
3332.55937	8.12975
3330.63081	8.11965
3328.70225	8.17621
3326.77368	8.14595
3324.84512	8.05668
3322.91655	8.05720
3320.98799	8.10941
3319.05942	8.12713
3317.13086	8.14696
3315.20229	8.15306
3313.27373	8.13795
3311.34517	8.14054
3309.41660	8.17827
3307.48804	8.23286
3305.55947	8.24512
3303.63091	8.21345
3301.70234	8.12824
3299.77378	8.07293
3297.84521	8.12152
3295.91665	8.15951
3293.98809	8.12983
3292.05952	8.12746
3290.13096	8.15368
3288.20239	8.13175
3286.27383	8.06907
3284.34526	8.04024
3282.41670	8.06743
3280.48813	8.15523
3278.55957	8.31217
3276.63101	8.37496
3274.70244	8.29440
3272.77388	8.27798
3270.84531	8.37969
3268.91675	8.41052
3266.98818	8.28713
3265.05962	8.20755
3263.13105	8.21108
3261.20249	8.19605
3259.27393	8.16130
3257.34536	8.14811
3255.41680	8.12127
3253.48823	8.10067
3251.55967	8.15673
3249.63110	8.22942
3247.70254	8.24985
3245.77397	8.27377
3243.84541	8.31988
3241.91685	8.30626
3239.98828	8.25260
3238.05972	8.19396
3236.13115	8.13004
3234.20259	8.06344
3232.27402	7.99275
3230.34546	8.01404
3228.41689	8.14295
3226.48833	8.20443
3224.55977	8.09997
3222.63120	7.96422
3220.70264	7.91051
3218.77407	7.94825
3216.84551	8.03072
3214.91694	8.04312
3212.98838	7.94941
3211.05981	7.89620
3209.13125	7.93894
3207.20269	7.94062
3205.27412	7.84752
3203.34556	7.77921
3201.41699	7.82233
3199.48843	7.89148
3197.55986	7.82574
3195.63130	7.67162
3193.70273	7.56262
3191.77417	7.51646
3189.84561	7.47744
3187.91704	7.42650
3185.98848	7.38870
3184.05991	7.34857
3182.13135	7.29822
3180.20278	7.24519
3178.27422	7.15686
3176.34565	7.05784
3174.41709	7.00015
3172.48853	6.96270
3170.55996	6.92335
3168.63140	6.89169
3166.70283	6.84876
3164.77427	6.78259
3162.84570	6.72443
3160.91714	6.67584
3158.98857	6.60622
3157.06001	6.51792
3155.13145	6.43659
3153.20288	6.37132
3151.27432	6.31239
3149.34575	6.24762
3147.41719	6.18675
3145.48862	6.13139
3143.56006	6.06412
3141.63149	5.99091
3139.70293	5.91691
3137.77437	5.84618
3135.84580	5.78554
3133.91724	5.72237
3131.98867	5.64976
3130.06011	5.57180
3128.13154	5.49079
3126.20298	5.41069
3124.27441	5.33407
3122.34585	5.26048
3120.41729	5.19163
3118.48872	5.12672
3116.56016	5.06258
3114.63159	4.99604
3112.70303	4.92539
3110.77446	4.85359
3108.84590	4.78202
3106.91733	4.71222
3104.98877	4.64495
3103.06021	4.57896
3101.13164	4.51688
3099.20308	4.45641
3097.27451	4.39137
3095.34595	4.32494
3093.41738	4.26057
3091.48882	4.19528
3089.56025	4.12963
3087.63169	4.06773
3085.70312	4.00667
3083.77456	3.94209
3081.84600	3.87881
3079.91743	3.81816
3077.98887	3.75617
3076.06030	3.69558
3074.13174	3.63923
3072.20317	3.58389
3070.27461	3.52735
3068.34604	3.47025
3066.41748	3.41189
3064.48892	3.35409
3062.56035	3.30035
3060.63179	3.24874
3058.70322	3.19596
3056.77466	3.14262
3054.84609	3.08967
3052.91753	3.03701
3050.98896	2.98630
3049.06040	2.93790
3047.13184	2.88997
3045.20327	2.84170
3043.27471	2.79259
3041.34614	2.74347
3039.41758	2.69617
3037.48901	2.65039
3035.56045	2.60508
3033.63188	2.56023
3031.70332	2.51602
3029.77476	2.47267
3027.84619	2.43028
3025.91763	2.38842
3023.98906	2.34673
3022.06050	2.30584
3020.13193	2.26631
3018.20337	2.22716
3016.27480	2.18741
3014.34624	2.14790
3012.41768	2.10988
3010.48911	2.07287
3008.56055	2.03616
3006.63198	2.00028
3004.70342	1.96530
3002.77485	1.93050
3000.84629	1.89600
2998.91772	1.86279
2996.98916	1.83106
2995.06060	1.80008
2993.13203	1.76927
2991.20347	1.73848
2989.27490	1.70786
2987.34634	1.67757
2985.41777	1.64797
2983.48921	1.61936
2981.56064	1.59114
2979.63208	1.56326
2977.70352	1.53618
2975.77495	1.50930
2973.84639	1.48244
2971.91782	1.45645
2969.98926	1.43132
2968.06069	1.40666
2966.13213	1.38248
2964.20356	1.35830
2962.27500	1.33403
2960.34644	1.31017
2958.41787	1.28666
2956.48931	1.26342
2954.56074	1.24099
2952.63218	1.21928
2950.70361	1.19743
2948.77505	1.17545
2946.84648	1.15437
2944.91792	1.13447
2942.98936	1.11477
2941.06079	1.09486
2939.13223	1.07546
2937.20366	1.05661
2935.27510	1.03789
2933.34653	1.01921
2931.41797	1.00068
2929.48940	0.98253
2927.56084	0.96487
2925.63228	0.94763
2923.70371	0.93093
2921.77515	0.91489
2919.84658	0.89933
2917.91802	0.88356
2915.98945	0.86739
2914.06089	0.85149
2912.13232	0.83626
2910.20376	0.82158
2908.27520	0.80731
2906.34663	0.79331
2904.41807	0.77949
2902.48950	0.76593
2900.56094	0.75293
2898.63237	0.74064
2896.70381	0.72861
2894.77524	0.71659
2892.84668	0.70466
2890.91812	0.69288
2888.98955	0.68152
2887.06099	0.67087
2885.13242	0.66051
2883.20386	0.64988
2881.27529	0.63929
2879.34673	0.62930
2877.41816	0.61952
2875.48960	0.60941
2873.56104	0.59923
2871.63247	0.58929
2869.70391	0.57936
2867.77534	0.56929
2865.84678	0.55911
2863.91821	0.54889
2861.98965	0.53883
2860.06108	0.52922
2858.13252	0.52009
2856.20396	0.51104
2854.27539	0.50204
2852.34683	0.49362
2850.41826	0.48559
2848.48970	0.47758
2846.56113	0.46986
2844.63257	0.46258
2842.70400	0.45557
2840.77544	0.44879
2838.84687	0.44237
2836.91831	0.43640
2834.98975	0.43073
2833.06118	0.42499
2831.13262	0.41892
2829.20405	0.41270
2827.27549	0.40670
2825.34692	0.40086
2823.41836	0.39505
2821.48979	0.38928
2819.56123	0.38355
2817.63267	0.37785
2815.70410	0.37229
2813.77554	0.36680
2811.84697	0.36143
2809.91841	0.35633
2807.98984	0.35123
2806.06128	0.34595
2804.13271	0.34077
2802.20415	0.33592
2800.27559	0.33136
2798.34702	0.32682
2796.41846	0.32226
2794.48989	0.31788
2792.56133	0.31359
2790.63276	0.30922
2788.70420	0.30477
2786.77563	0.30039
2784.84707	0.29623
2782.91851	0.29224
2780.98994	0.28831
2779.06138	0.28449
2777.13281	0.28076
2775.20425	0.27717
2773.27568	0.27373
2771.34712	0.27023
2769.41855	0.26666
2767.48999	0.26317
2765.56143	0.25975
2763.63286	0.25631
2761.70430	0.25299
2759.77573	0.24994
2757.84717	0.24703
2755.91860	0.24418
2753.99004	0.24139
2752.06147	0.23856
2750.13291	0.23567
2748.20435	0.23278
2746.27578	0.22997
2744.34722	0.22734
2742.41865	0.22485
2740.49009	0.22244
2738.56152	0.22005
2736.63296	0.21771
2734.70439	0.21542
2732.77583	0.21309
2730.84727	0.21073
2728.91870	0.20847
2726.99014	0.20639
2725.06157	0.20454
2723.13301	0.20272
2721.20444	0.20070
2719.27588	0.19859
2717.34731	0.19660
2715.41875	0.19465
2713.49019	0.19283
2711.56162	0.19128
2709.63306	0.18974
2707.70449	0.18804
2705.77593	0.18632
2703.84736	0.18472
2701.91880	0.18314
2699.99023	0.18148
2698.06167	0.17988
2696.13311	0.17848
2694.20454	0.17711
2692.27598	0.17569
2690.34741	0.17432
2688.41885	0.17303
2686.49028	0.17177
2684.56172	0.17052
2682.63315	0.16930
2680.70459	0.16814
2678.77603	0.16707
2676.84746	0.16598
2674.91890	0.16470
2672.99033	0.16346
2671.06177	0.16245
2669.13320	0.16150
2667.20464	0.16051
2665.27607	0.15973
2663.34751	0.15907
2661.41895	0.15818
2659.49038	0.15715
2657.56182	0.15629
2655.63325	0.15557
2653.70469	0.15491
2651.77612	0.15422
2649.84756	0.15341
2647.91899	0.15255
2645.99043	0.15183
2644.06187	0.15128
2642.13330	0.15078
2640.20474	0.15024
2638.27617	0.14967
2636.34761	0.14919
2634.41904	0.14877
2632.49048	0.14837
2630.56191	0.14805
2628.63335	0.14778
2626.70479	0.14735
2624.77622	0.14684
2622.84766	0.14653
2620.91909	0.14638
2618.99053	0.14617
2617.06196	0.14596
2615.13340	0.14580
2613.20483	0.14564
2611.27627	0.14542
2609.34771	0.14514
2607.41914	0.14497
2605.49058	0.14498
2603.56201	0.14502
2601.63345	0.14505
2599.70488	0.14515
2597.77632	0.14522
2595.84775	0.14515
2593.91919	0.14511
2591.99062	0.14521
2590.06206	0.14536
2588.13350	0.14554
2586.20493	0.14574
2584.27637	0.14591
2582.34780	0.14609
2580.41924	0.14639
2578.49067	0.14676
2576.56211	0.14708
2574.63354	0.14732
2572.70498	0.14752
2570.77642	0.14786
2568.84785	0.14835
2566.91929	0.14878
2564.99072	0.14914
2563.06216	0.14951
2561.13359	0.14994
2559.20503	0.15045
2557.27646	0.15091
2555.34790	0.15126
2553.41934	0.15166
2551.49077	0.15213
2549.56221	0.15260
2547.63364	0.15320
2545.70508	0.15390
2543.77651	0.15451
2541.84795	0.15516
2539.91938	0.15598
2537.99082	0.15678
2536.06226	0.15736
2534.13369	0.15783
2532.20513	0.15842
2530.27656	0.15911
2528.34800	0.15972
2526.41943	0.16028
2524.49087	0.16099
2522.56230	0.16188
2520.63374	0.16271
2518.70518	0.16344
2516.77661	0.16421
2514.84805	0.16485
2512.91948	0.16537
2510.99092	0.16612
2509.06235	0.16712
2507.13379	0.16803
2505.20522	0.16880
2503.27666	0.16968
2501.34810	0.17055
2499.41953	0.17132
2497.49097	0.17213
2495.56240	0.17295
2493.63384	0.17373
2491.70527	0.17460
2489.77671	0.17560
2487.84814	0.17658
2485.91958	0.17738
2483.99102	0.17805
2482.06245	0.17877
2480.13389	0.17962
2478.20532	0.18053
2476.27676	0.18143
2474.34819	0.18233
2472.41963	0.18326
2470.49106	0.18415
2468.56250	0.18492
2466.63394	0.18572
2464.70537	0.18667
2462.77681	0.18767
2460.84824	0.18860
2458.91968	0.18946
2456.99111	0.19038
2455.06255	0.19139
2453.13398	0.19237
2451.20542	0.19330
2449.27686	0.19420
2447.34829	0.19514
2445.41973	0.19619
2443.49116	0.19723
2441.56260	0.19815
2439.63403	0.19904
2437.70547	0.20005
2435.77690	0.20112
2433.84834	0.20213
2431.91978	0.20312
2429.99121	0.20422
2428.06265	0.20534
2426.13408	0.20624
2424.20552	0.20702
2422.27695	0.20796
2420.34839	0.20913
2418.41982	0.21042
2416.49126	0.21171
2414.56270	0.21288
2412.63413	0.21404
2410.70557	0.21517
2408.77700	0.21616
2406.84844	0.21715
2404.91987	0.21829
2402.99131	0.21949
2401.06274	0.22072
2399.13418	0.22195
2397.20562	0.22315
2395.27705	0.22435
2393.34849	0.22564
2391.41992	0.22701
2389.49136	0.22837
2387.56279	0.22976
2385.63423	0.23144
2383.70566	0.23363
2381.77710	0.23643
2379.84854	0.23975
2377.91997	0.24339
2375.99141	0.24720
2374.06284	0.25126
2372.13428	0.25581
2370.20571	0.26076
2368.27715	0.26577
2366.34858	0.27084
2364.42002	0.27549
2362.49146	0.27881
2360.56289	0.28094
2358.63433	0.28210
2356.70576	0.28196
2354.77720	0.28041
2352.84863	0.27824
2350.92007	0.27612
2348.99150	0.27492
2347.06294	0.27592
2345.13437	0.27962
2343.20581	0.28432
2341.27725	0.28737
2339.34868	0.28860
2337.42012	0.28924
2335.49155	0.29011
2333.56299	0.29114
2331.63442	0.29253
2329.70586	0.29405
2327.77729	0.29506
2325.84873	0.29534
2323.92017	0.29528
2321.99160	0.29558
2320.06304	0.29607
2318.13447	0.29623
2316.20591	0.29643
2314.27734	0.29704
2312.34878	0.29797
2310.42021	0.29900
2308.49165	0.29976
2306.56309	0.30042
2304.63452	0.30130
2302.70596	0.30245
2300.77739	0.30380
2298.84883	0.30513
2296.92026	0.30632
2294.99170	0.30749
2293.06313	0.30877
2291.13457	0.31014
2289.20601	0.31161
2287.27744	0.31313
2285.34888	0.31472
2283.42031	0.31654
2281.49175	0.31853
2279.56318	0.32050
2277.63462	0.32245
2275.70605	0.32452
2273.77749	0.32669
2271.84893	0.32885
2269.92036	0.33092
2267.99180	0.33294
2266.06323	0.33502
2264.13467	0.33713
2262.20610	0.33912
2260.27754	0.34105
2258.34897	0.34309
2256.42041	0.34521
2254.49185	0.34723
2252.56328	0.34917
2250.63472	0.35117
2248.70615	0.35328
2246.77759	0.35547
2244.84902	0.35766
2242.92046	0.35978
2240.99189	0.36185
2239.06333	0.36398
2237.13477	0.36621
2235.20620	0.36844
2233.27764	0.37071
2231.34907	0.37304
2229.42051	0.37531
2227.49194	0.37746
2225.56338	0.37952
2223.63481	0.38161
2221.70625	0.38376
2219.77769	0.38590
2217.84912	0.38798
2215.92056	0.39010
2213.99199	0.39237
2212.06343	0.39466
2210.13486	0.39680
2208.20630	0.39883
2206.27773	0.40090
2204.34917	0.40303
2202.42061	0.40508
2200.49204	0.40695
2198.56348	0.40881
2196.63491	0.41081
2194.70635	0.41283
2192.77778	0.41481
2190.84922	0.41676
2188.92065	0.41862
2186.99209	0.42043
2185.06353	0.42219
2183.13496	0.42387
2181.20640	0.42553
2179.27783	0.42728
2177.34927	0.42905
2175.42070	0.43074
2173.49214	0.43237
2171.56357	0.43384
2169.63501	0.43514
2167.70645	0.43640
2165.77788	0.43764
2163.84932	0.43873
2161.92075	0.43975
2159.99219	0.44101
2158.06362	0.44239
2156.13506	0.44348
2154.20649	0.44433
2152.27793	0.44513
2150.34937	0.44579
2148.42080	0.44639
2146.49224	0.44714
2144.56367	0.44785
2142.63511	0.44832
2140.70654	0.44868
2138.77798	0.44896
2136.84941	0.44910
2134.92085	0.44922
2132.99229	0.44938
2131.06372	0.44946
2129.13516	0.44935
2127.20659	0.44917
2125.27803	0.44906
2123.34946	0.44883
2121.42090	0.44837
2119.49233	0.44785
2117.56377	0.44740
2115.63521	0.44696
2113.70664	0.44636
2111.77808	0.44553
2109.84951	0.44459
2107.92095	0.44365
2105.99238	0.44266
2104.06382	0.44157
2102.13525	0.44039
2100.20669	0.43918
2098.27812	0.43785
2096.34956	0.43640
2094.42100	0.43499
2092.49243	0.43358
2090.56387	0.43211
2088.63530	0.43061
2086.70674	0.42910
2084.77817	0.42745
2082.84961	0.42564
2080.92104	0.42374
2078.99248	0.42181
2077.06392	0.41983
2075.13535	0.41782
2073.20679	0.41572
2071.27822	0.41357
2069.34966	0.41140
2067.42109	0.40919
2065.49253	0.40706
2063.56396	0.40493
2061.63540	0.40266
2059.70684	0.40021
2057.77827	0.39769
2055.84971	0.39522
2053.92114	0.39285
2051.99258	0.39049
2050.06401	0.38793
2048.13545	0.38521
2046.20688	0.38247
2044.27832	0.37989
2042.34976	0.37750
2040.42119	0.37502
2038.49263	0.37233
2036.56406	0.36959
2034.63550	0.36690
2032.70693	0.36419
2030.77837	0.36145
2028.84980	0.35868
2026.92124	0.35598
2024.99268	0.35334
2023.06411	0.35067
2021.13555	0.34798
2019.20698	0.34540
2017.27842	0.34284
2015.34985	0.34004
2013.42129	0.33714
2011.49272	0.33441
2009.56416	0.33183
2007.63560	0.32920
2005.70703	0.32651
2003.77847	0.32380
2001.84990	0.32116
1999.92134	0.31864
1997.99277	0.31607
1996.06421	0.31341
1994.13564	0.31100
1992.20708	0.30881
1990.27852	0.30643
1988.34995	0.30382
1986.42139	0.30119
1984.49282	0.29868
1982.56426	0.29634
1980.63569	0.29407
1978.70713	0.29182
1976.77856	0.28959
1974.85000	0.28736
1972.92144	0.28515
1970.99287	0.28303
1969.06431	0.28107
1967.13574	0.27916
1965.20718	0.27702
1963.27861	0.27477
1961.35005	0.27274
1959.42148	0.27095
1957.49292	0.26929
1955.56436	0.26757
1953.63579	0.26572
1951.70723	0.26386
1949.77866	0.26215
1947.85010	0.26064
1945.92153	0.25930
1943.99297	0.25810
1942.06440	0.25681
1940.13584	0.25507
1938.20728	0.25320
1936.27871	0.25170
1934.35015	0.25045
1932.42158	0.24919
1930.49302	0.24790
1928.56445	0.24674
1926.63589	0.24567
1924.70732	0.24483
1922.77876	0.24408
1920.85020	0.24309
1918.92163	0.24215
1916.99307	0.24129
1915.06450	0.24019
1913.13594	0.23911
1911.20737	0.23844
1909.27881	0.23792
1907.35024	0.23719
1905.42168	0.23630
1903.49312	0.23549
1901.56455	0.23482
1899.63599	0.23429
1897.70742	0.23394
1895.77886	0.23374
1893.85029	0.23353
1891.92173	0.23317
1889.99316	0.23293
1888.06460	0.23261
1886.13604	0.23210
1884.20747	0.23171
1882.27891	0.23147
1880.35034	0.23130
1878.42178	0.23115
1876.49321	0.23107
1874.56465	0.23104
1872.63608	0.23127
1870.70752	0.23199
1868.77896	0.23307
1866.85039	0.23334
1864.92183	0.23267
1862.99326	0.23221
1861.06470	0.23232
1859.13613	0.23278
1857.20757	0.23317
1855.27900	0.23351
1853.35044	0.23389
1851.42187	0.23439
1849.49331	0.23505
1847.56475	0.23598
1845.63618	0.23721
1843.70762	0.23843
1841.77905	0.23896
1839.85049	0.23910
1837.92192	0.23973
1835.99336	0.24056
1834.06479	0.24139
1832.13623	0.24256
1830.20767	0.24437
1828.27910	0.24593
1826.35054	0.24680
1824.42197	0.24789
1822.49341	0.24888
1820.56484	0.24981
1818.63628	0.25108
1816.70771	0.25267
1814.77915	0.25427
1812.85059	0.25612
1810.92202	0.25837
1808.99346	0.26057
1807.06489	0.26241
1805.13633	0.26410
1803.20776	0.26624
1801.27920	0.26894
1799.35063	0.27191
1797.42207	0.27440
1795.49351	0.27677
1793.56494	0.27979
1791.63638	0.28361
1789.70781	0.28669
1787.77925	0.28884
1785.85068	0.29189
1783.92212	0.29574
1781.99355	0.29979
1780.06499	0.30394
1778.13643	0.30810
1776.20786	0.31209
1774.27930	0.31665
1772.35073	0.32290
1770.42217	0.32913
1768.49360	0.33390
1766.56504	0.33859
1764.63647	0.34363
1762.70791	0.34947
1760.77935	0.35699
1758.85078	0.36407
1756.92222	0.37123
1754.99365	0.37890
1753.06509	0.38581
1751.13652	0.39437
1749.20796	0.40535
1747.27939	0.41581
1745.35083	0.42477
1743.42227	0.43437
1741.49370	0.44502
1739.56514	0.45733
1737.63657	0.46948
1735.70801	0.48031
1733.77944	0.49703
1731.85088	0.51671
1729.92231	0.53164
1727.99375	0.54657
1726.06519	0.56289
1724.13662	0.58117
1722.20806	0.60111
1720.27949	0.61962
1718.35093	0.64160
1716.42236	0.67395
1714.49380	0.70396
1712.56523	0.72798
1710.63667	0.75165
1708.70811	0.77727
1706.77954	0.80630
1704.85098	0.84089
1702.92241	0.87162
1700.99385	0.90205
1699.06528	0.94801
1697.13672	0.99041
1695.20815	1.03325
1693.27959	1.07461
1691.35103	1.10803
1689.42246	1.14709
1687.49390	1.18867
1685.56533	1.22867
1683.63677	1.28924
1681.70820	1.35129
1679.77964	1.39109
1677.85107	1.42970
1675.92251	1.47458
1673.99395	1.53002
1672.06538	1.57868
1670.13682	1.62551
1668.20825	1.68632
1666.27969	1.73535
1664.35112	1.77592
1662.42256	1.82655
1660.49399	1.88447
1658.56543	1.92992
1656.63687	1.96666
1654.70830	2.00074
1652.77974	2.05564
1650.85117	2.11101
1648.92261	2.13389
1646.99404	2.16121
1645.06548	2.19127
1643.13691	2.21304
1641.20835	2.22727
1639.27979	2.23935
1637.35122	2.24822
1635.42266	2.25410
1633.49409	2.25272
1631.56553	2.24109
1629.63696	2.22477
1627.70840	2.19886
1625.77983	2.16945
1623.85127	2.13143
1621.92271	2.08336
1619.99414	2.04012
1618.06558	1.99804
1616.13701	1.93770
1614.20845	1.87505
1612.27988	1.82731
1610.35132	1.77788
1608.42275	1.72404
1606.49419	1.67092
1604.56562	1.62227
1602.63706	1.57511
1600.70850	1.52873
1598.77993	1.48596
1596.85137	1.44535
1594.92280	1.40544
1592.99424	1.36663
1591.06567	1.33050
1589.13711	1.29584
1587.20854	1.26316
1585.27998	1.23292
1583.35142	1.20449
1581.42285	1.17822
1579.49429	1.15579
1577.56572	1.13586
1575.63716	1.11065
1573.70859	1.08712
1571.78003	1.07171
1569.85146	1.05599
1567.92290	1.03742
1565.99434	1.02205
1564.06577	1.00947
1562.13721	0.99960
1560.20864	0.99232
1558.28008	0.98034
1556.35151	0.96797
1554.42295	0.96012
1552.49438	0.95249
1550.56582	0.94433
1548.63726	0.93537
1546.70869	0.92690
1544.78013	0.91837
1542.85156	0.90893
1540.92300	0.89723
1538.99443	0.87869
1537.06587	0.86372
1535.13730	0.85402
1533.20874	0.84239
1531.28018	0.82951
1529.35161	0.81983
1527.42305	0.81109
1525.49448	0.80209
1523.56592	0.79410
1521.63735	0.78624
1519.70879	0.77799
1517.78022	0.77103
1515.85166	0.76312
1513.92310	0.75463
1511.99453	0.74768
1510.06597	0.74226
1508.13740	0.73775
1506.20884	0.72945
1504.28027	0.72031
1502.35171	0.71487
1500.42314	0.71070
1498.49458	0.70685
1496.56602	0.70246
1494.63745	0.69769
1492.70889	0.69406
1490.78032	0.69167
1488.85176	0.68917
1486.92319	0.68577
1484.99463	0.68247
1483.06606	0.68006
1481.13750	0.67837
1479.20894	0.67704
1477.28037	0.67618
1475.35181	0.67593
1473.42324	0.67595
1471.49468	0.67468
1469.56611	0.67209
1467.63755	0.66979
1465.70898	0.66817
1463.78042	0.66675
1461.85186	0.66542
1459.92329	0.66485
1457.99473	0.66476
1456.06616	0.66264
1454.13760	0.65856
1452.20903	0.65499
1450.28047	0.65183
1448.35190	0.64886
1446.42334	0.64591
1444.49478	0.64326
1442.56621	0.64096
1440.63765	0.63879
1438.70908	0.63704
1436.78052	0.63530
1434.85195	0.63281
1432.92339	0.63050
1430.99482	0.62890
1429.06626	0.62741
1427.13770	0.62611
1425.20913	0.62557
1423.28057	0.62537
1421.35200	0.62487
1419.42344	0.62437
1417.49487	0.62339
1415.56631	0.62145
1413.63774	0.61955
1411.70918	0.61805
1409.78062	0.61679
1407.85205	0.61581
1405.92349	0.61519
1403.99492	0.61438
1402.06636	0.61308
1400.13779	0.61192
1398.20923	0.61084
1396.28066	0.60926
1394.35210	0.60687
1392.42354	0.60410
1390.49497	0.60182
1388.56641	0.60003
1386.63784	0.59790
1384.70928	0.59528
1382.78071	0.59299
1380.85215	0.59115
1378.92358	0.58958
1376.99502	0.58850
1375.06646	0.58801
1373.13789	0.58749
1371.20933	0.58667
1369.28076	0.58597
1367.35220	0.58536
1365.42363	0.58464
1363.49507	0.58381
1361.56650	0.58254
1359.63794	0.58082
1357.70937	0.57931
1355.78081	0.57813
1353.85225	0.57703
1351.92368	0.57584
1349.99512	0.57469
1348.06655	0.57365
1346.13799	0.57262
1344.20942	0.57158
1342.28086	0.57077
1340.35229	0.57030
1338.42373	0.56958
1336.49517	0.56825
1334.56660	0.56685
1332.63804	0.56586
1330.70947	0.56528
1328.78091	0.56490
1326.85234	0.56463
1324.92378	0.56455
1322.99521	0.56464
1321.06665	0.56471
1319.13809	0.56455
1317.20952	0.56410
1315.28096	0.56346
1313.35239	0.56268
1311.42383	0.56166
1309.49526	0.56051
1307.56670	0.55942
1305.63813	0.55842
1303.70957	0.55751
1301.78101	0.55659
1299.85244	0.55555
1297.92388	0.55447
1295.99531	0.55335
1294.06675	0.55224
1292.13818	0.55132
1290.20962	0.55059
1288.28105	0.54985
1286.35249	0.54906
1284.42393	0.54833
1282.49536	0.54768
1280.56680	0.54702
1278.63823	0.54626
1276.70967	0.54537
1274.78110	0.54442
1272.85254	0.54363
1270.92397	0.54314
1268.99541	0.54280
1267.06685	0.54246
1265.13828	0.54202
1263.20972	0.54154
1261.28115	0.54108
1259.35259	0.54053
1257.42402	0.54001
1255.49546	0.53972
1253.56689	0.53955
1251.63833	0.53931
1249.70977	0.53907
1247.78120	0.53880
1245.85264	0.53848
1243.92407	0.53811
1241.99551	0.53758
1240.06694	0.53676
1238.13838	0.53568
1236.20981	0.53448
1234.28125	0.53330
1232.35269	0.53223
1230.42412	0.53123
1228.49556	0.53021
1226.56699	0.52914
1224.63843	0.52786
1222.70986	0.52639
1220.78130	0.52505
1218.85273	0.52403
1216.92417	0.52323
1214.99561	0.52250
1213.06704	0.52173
1211.13848	0.52097
1209.20991	0.52034
1207.28135	0.51983
1205.35278	0.51937
1203.42422	0.51884
1201.49565	0.51832
1199.56709	0.51790
1197.63853	0.51739
1195.70996	0.51665
1193.78140	0.51583
1191.85283	0.51511
1189.92427	0.51445
1187.99570	0.51396
1186.06714	0.51374
1184.13857	0.51371
1182.21001	0.51393
1180.28145	0.51444
1178.35288	0.51515
1176.42432	0.51608
1174.49575	0.51724
1172.56719	0.51851
1170.63862	0.51975
1168.71006	0.52085
1166.78149	0.52182
1164.85293	0.52283
1162.92437	0.52389
1160.99580	0.52483
1159.06724	0.52544
1157.13867	0.52561
1155.21011	0.52537
1153.28154	0.52472
1151.35298	0.52342
1149.42441	0.52132
1147.49585	0.51858
1145.56729	0.51552
1143.63872	0.51253
1141.71016	0.50992
1139.78159	0.50786
1137.85303	0.50630
1135.92446	0.50508
1133.99590	0.50432
1132.06733	0.50423
1130.13877	0.50446
1128.21021	0.50460
1126.28164	0.50444
1124.35308	0.50410
1122.42451	0.50401
1120.49595	0.50422
1118.56738	0.50459
1116.63882	0.50515
1114.71025	0.50593
1112.78169	0.50697
1110.85312	0.50801
1108.92456	0.50872
1106.99600	0.50913
1105.06743	0.50950
1103.13887	0.51002
1101.21030	0.51073
1099.28174	0.51168
1097.35317	0.51319
1095.42461	0.51563
1093.49604	0.51928
1091.56748	0.52438
1089.63892	0.53133
1087.71035	0.54025
1085.78179	0.55036
1083.85322	0.56035
1081.92466	0.56882
1079.99609	0.57458
1078.06753	0.57717
1076.13896	0.57650
1074.21040	0.57273
1072.28184	0.56665
1070.35327	0.55936
1068.42471	0.55184
1066.49614	0.54473
1064.56758	0.53848
1062.63901	0.53319
1060.71045	0.52871
1058.78188	0.52497
1056.85332	0.52163
1054.92476	0.51841
1052.99619	0.51568
1051.06763	0.51385
1049.13906	0.51301
1047.21050	0.51327
1045.28193	0.51445
1043.35337	0.51582
1041.42480	0.51697
1039.49624	0.51796
1037.56768	0.51884
1035.63911	0.51935
1033.71055	0.51892
1031.78198	0.51747
1029.85342	0.51538
1027.92485	0.51294
1025.99629	0.51033
1024.06772	0.50792
1022.13916	0.50626
1020.21060	0.50530
1018.28203	0.50450
1016.35347	0.50367
1014.42490	0.50287
1012.49634	0.50199
1010.56777	0.50114
1008.63921	0.50062
1006.71064	0.50038
1004.78208	0.50050
1002.85352	0.50146
1000.92495	0.50355
998.99639	0.50674
997.06782	0.51079
995.13926	0.51518
993.21069	0.51930
991.28213	0.52258
989.35356	0.52445
987.42500	0.52477
985.49644	0.52413
983.56787	0.52347
981.63931	0.52327
979.71074	0.52350
977.78218	0.52434
975.85361	0.52607
973.92505	0.52839
971.99648	0.53110
970.06792	0.53428
968.13936	0.53791
966.21079	0.54179
964.28223	0.54590
962.35366	0.55028
960.42510	0.55501
958.49653	0.56027
956.56797	0.56609
954.63940	0.57209
952.71084	0.57791
950.78228	0.58388
948.85371	0.59035
946.92515	0.59694
944.99658	0.60332
943.06802	0.60945
941.13945	0.61519
939.21089	0.62077
937.28232	0.62649
935.35376	0.63207
933.42520	0.63743
931.49663	0.64253
929.56807	0.64781
927.63950	0.65390
925.71094	0.66005
923.78237	0.66585
921.85381	0.67205
919.92524	0.67877
917.99668	0.68564
916.06812	0.69245
914.13955	0.69914
912.21099	0.70618
910.28242	0.71406
908.35386	0.72237
906.42529	0.73057
904.49673	0.73873
902.56816	0.74779
900.63960	0.75790
898.71104	0.76770
896.78247	0.77686
894.85391	0.78655
892.92534	0.79691
890.99678	0.80640
889.06821	0.81542
887.13965	0.82545
885.21108	0.83559
883.28252	0.84611
881.35396	0.85822
879.42539	0.87051
877.49683	0.88215
875.56826	0.89386
873.63970	0.90442
871.71113	0.91403
869.78257	0.92535
867.85400	0.93813
865.92544	0.94959
863.99687	0.95981
862.06831	0.97076
860.13975	0.98199
858.21118	0.99350
856.28262	1.00558
854.35405	1.01828
852.42549	1.03234
850.49692	1.04478
848.56836	1.05390
846.63979	1.06380
844.71123	1.07543
842.78267	1.08638
840.85410	1.09743
838.92554	1.10948
836.99697	1.12197
835.06841	1.13418
833.13984	1.14426
831.21128	1.15200
829.28271	1.16128
827.35415	1.17534
825.42559	1.18757
823.49702	1.19194
821.56846	1.19623
819.63989	1.20943
817.71133	1.22830
815.78276	1.24184
813.85420	1.24694
811.92563	1.25702
809.99707	1.27877
808.06851	1.28578
806.13994	1.27498
804.21138	1.28964
802.28281	1.33423
800.35425	1.36350
798.42568	1.36051
796.49712	1.35298
794.56855	1.37214
792.63999	1.41485
790.71143	1.41857
788.78286	1.37500
786.85430	1.35081
784.92573	1.37477
782.99717	1.40774
781.06860	1.39948
779.14004	1.37660
777.21147	1.40075
775.28291	1.45716
773.35435	1.44970
771.42578	1.43446
769.49722	1.50824
767.56865	1.58743
765.64009	1.45841
763.71152	1.32629
761.78296	1.31964
759.85439	1.36489
757.92583	1.38545
755.99727	1.41333
754.06870	1.46436
752.14014	1.51114
750.21157	1.52130
748.28301	1.39852
746.35444	1.28557
744.42588	1.20801
742.49731	1.07946
740.56875	0.98263
738.64019	0.97971
736.71162	1.06760
734.78306	1.10938
732.85449	1.02563
730.92593	1.10284
728.99736	1.01979
727.06880	0.63163
725.14023	0.50672
723.21167	0.61158
721.28311	0.65432
719.35454	0.54865
717.42598	0.60053
715.49741	0.67928
713.56885	0.48381
711.64028	0.31231
709.71172	0.15837
707.78315	0.01016
705.85459	-0.00342
703.92603	0.15359
701.99746	0.40785
700.06890	0.75206
698.14033	0.77544
696.21177	0.41291
694.28320	0.25156
692.35464	0.24802
690.42607	0.36107
688.49751	0.50702
686.56895	0.51275
684.64038	0.41788
682.71182	0.33471
680.78325	0.33254
678.85469	0.47540
676.92612	0.79270
674.99756	0.82414
673.06899	0.57643
671.14043	0.48076
669.21187	0.48839
667.28330	0.52733
665.35474	0.56151
663.42617	0.66299
661.49761	0.66411
659.56904	0.43950
657.64048	0.32667
655.71191	0.32500
653.78335	0.34869
651.85479	0.38633
649.92622	0.46004
647.99766	0.56126
646.06909	0.68797
644.14053	0.67424
642.21196	0.52683
640.28340	0.49039
638.35483	0.55585
636.42627	0.60321
634.49771	0.64159
632.56914	0.70432
630.64058	0.67929
628.71201	0.63417
626.78345	0.50844
624.85488	0.40941
622.92632	0.43807
620.99775	0.51206
619.06919	0.47395
617.14062	0.45946
615.21206	0.39365
613.28350	0.27626
611.35493	0.22856
609.42637	0.21739
607.49780	0.23014
605.56924	0.27817
603.64067	0.26930
601.71211	0.19511
599.78354	0.16850
597.85498	0.25785
595.92642	0.42199
593.99785	0.37363
592.06929	0.25629
590.14072	0.26896
588.21216	0.34468
586.28359	0.36181
584.35503	0.35955
582.42646	0.40532
580.49790	0.47830
578.56934	0.51219
576.64077	0.55109
574.71221	0.57949
572.78364	0.48797
570.85508	0.41890
568.92651	0.47539
566.99795	0.57319
565.06938	0.63710
563.14082	1.18093
561.21226	3.36727
559.28369	0.64101
557.35513	0.34437
555.42656	0.26549
553.49800	0.27927
551.56943	0.27812
549.64087	0.24125
547.71230	0.23276
545.78374	0.24621
543.85518	0.22763
541.92661	0.21773
539.99805	0.25184
538.06948	0.34405
536.14092	0.54754
534.21235	0.76476
532.28379	0.64512
530.35522	0.55466
528.42666	0.57314
526.49810	0.63361
524.56953	0.48032
522.64097	0.34319
520.71240	0.35052
518.78384	0.54445
516.85527	3.10113
514.92671	0.72125
512.99814	0.36349
511.06958	0.25818
509.14102	0.19516
507.21245	0.14124
505.28389	0.16682
503.35532	0.29054
501.42676	0.47650
499.49819	0.52282
