3997.91411	0.05275
3995.98555	0.05344
3994.05698	0.05400
3992.12842	0.05442
3990.19985	0.05488
3988.27129	0.05495
3986.34272	0.05469
3984.41416	0.05494
3982.48560	0.05571
3980.55703	0.05642
3978.62847	0.05674
3976.69990	0.05684
3974.77134	0.05719
3972.84277	0.05754
3970.91421	0.05760
3968.98564	0.05763
3967.05708	0.05752
3965.12852	0.05721
3963.19995	0.05740
3961.27139	0.05806
3959.34282	0.05831
3957.41426	0.05823
3955.48569	0.05822
3953.55713	0.05820
3951.62856	0.05838
3949.70000	0.05929
3947.77144	0.06055
3945.84287	0.06070
3943.91431	0.06014
3941.98574	0.06028
3940.05718	0.06025
3938.12861	0.05953
3936.20005	0.05895
3934.27148	0.05919
3932.34292	0.06053
3930.41436	0.06195
3928.48579	0.06183
3926.55723	0.06075
3924.62866	0.06042
3922.70010	0.06059
3920.77153	0.06027
3918.84297	0.06041
3916.91440	0.06113
3914.98584	0.06063
3913.05728	0.05877
3911.12871	0.05747
3909.20015	0.05751
3907.27158	0.05876
3905.34302	0.06150
3903.41445	0.06468
3901.48589	0.06560
3899.55732	0.06466
3897.62876	0.06295
3895.70020	0.06064
3893.77163	0.05980
3891.84307	0.06156
3889.91450	0.06290
3887.98594	0.06161
3886.05737	0.06110
3884.12881	0.06262
3882.20024	0.06382
3880.27168	0.06432
3878.34312	0.06365
3876.41455	0.06219
3874.48599	0.06268
3872.55742	0.06494
3870.62886	0.06684
3868.70029	0.06768
3866.77173	0.06727
3864.84316	0.06749
3862.91460	0.06837
3860.98604	0.06706
3859.05747	0.06499
3857.12891	0.06503
3855.20034	0.06758
3853.27178	0.07229
3851.34321	0.07427
3849.41465	0.07078
3847.48608	0.06761
3845.55752	0.06661
3843.62896	0.06796
3841.70039	0.07104
3839.77183	0.07474
3837.84326	0.07768
3835.91470	0.07776
3833.98613	0.07628
3832.05757	0.07522
3830.12900	0.07428
3828.20044	0.07384
3826.27187	0.07488
3824.34331	0.07675
3822.41475	0.07926
3820.48618	0.08314
3818.55762	0.08458
3816.62905	0.08350
3814.70049	0.08273
3812.77192	0.08115
3810.84336	0.08011
3808.91479	0.08122
3806.98623	0.08421
3805.05767	0.08712
3803.12910	0.08903
3801.20054	0.09180
3799.27197	0.09358
3797.34341	0.09308
3795.41484	0.09256
3793.48628	0.09186
3791.55771	0.09136
3789.62915	0.09169
3787.70059	0.09279
3785.77202	0.09499
3783.84346	0.09773
3781.91489	0.09971
3779.98633	0.10171
3778.05776	0.10369
3776.12920	0.10367
3774.20063	0.10339
3772.27207	0.10518
3770.34351	0.10902
3768.41494	0.11317
3766.48638	0.11567
3764.55781	0.11706
3762.62925	0.11801
3760.70068	0.12008
3758.77212	0.12437
3756.84355	0.12826
3754.91499	0.13001
3752.98643	0.13243
3751.05786	0.13838
3749.12930	0.14589
3747.20073	0.14880
3745.27217	0.15024
3743.34360	0.15379
3741.41504	0.15645
3739.48647	0.15810
3737.55791	0.16228
3735.62935	0.17040
3733.70078	0.17858
3731.77222	0.18152
3729.84365	0.18204
3727.91509	0.18388
3725.98652	0.18889
3724.05796	0.19629
3722.12939	0.20348
3720.20083	0.20970
3718.27227	0.21537
3716.34370	0.22133
3714.41514	0.22832
3712.48657	0.23879
3710.55801	0.25505
3708.62944	0.27010
3706.70088	0.27949
3704.77231	0.28893
3702.84375	0.30227
3700.91519	0.32026
3698.98662	0.33852
3697.05806	0.35520
3695.12949	0.37370
3693.20093	0.39427
3691.27236	0.41766
3689.34380	0.44832
3687.41523	0.48363
3685.48667	0.51170
3683.55811	0.53572
3681.62954	0.56307
3679.70098	0.59541
3677.77241	0.63064
3675.84385	0.67341
3673.91528	0.72972
3671.98672	0.77239
3670.05815	0.81044
3668.12959	0.86433
3666.20103	0.91096
3664.27246	0.94901
3662.34390	0.99141
3660.41533	1.03870
3658.48677	1.08631
3656.55820	1.13753
3654.62964	1.19396
3652.70107	1.24011
3650.77251	1.28112
3648.84395	1.34083
3646.91538	1.41278
3644.98682	1.46107
3643.05825	1.49792
3641.12969	1.53728
3639.20112	1.58057
3637.27256	1.62392
3635.34399	1.66757
3633.41543	1.71232
3631.48687	1.75438
3629.55830	1.79815
3627.62974	1.85547
3625.70117	1.90511
3623.77261	1.93625
3621.84404	1.96718
3619.91548	2.00539
3617.98691	2.05402
3616.05835	2.09987
3614.12979	2.13711
3612.20122	2.17779
3610.27266	2.21866
3608.34409	2.25759
3606.41553	2.29840
3604.48696	2.33661
3602.55840	2.37068
3600.62983	2.40814
3598.70127	2.44970
3596.77271	2.48998
3594.84414	2.53135
3592.91558	2.57500
3590.98701	2.61426
3589.05845	2.64881
3587.12988	2.69207
3585.20132	2.74245
3583.27275	2.78301
3581.34419	2.81864
3579.41562	2.85917
3577.48706	2.90327
3575.55850	2.94533
3573.62993	2.98804
3571.70137	3.03222
3569.77280	3.07397
3567.84424	3.11574
3565.91567	3.16725
3563.98711	3.21712
3562.05854	3.25740
3560.12998	3.30015
3558.20142	3.34625
3556.27285	3.39108
3554.34429	3.43462
3552.41572	3.48075
3550.48716	3.52733
3548.55859	3.57210
3546.63003	3.61794
3544.70146	3.66579
3542.77290	3.71399
3540.84434	3.76208
3538.91577	3.80835
3536.98721	3.85091
3535.05864	3.89590
3533.13008	3.94571
3531.20151	3.99577
3529.27295	4.04358
3527.34438	4.09167
3525.41582	4.14192
3523.48726	4.19164
3521.55869	4.23991
3519.63013	4.28563
3517.70156	4.32921
3515.77300	4.37516
3513.84443	4.42604
3511.91587	4.47720
3509.98730	4.52796
3508.05874	4.58034
3506.13018	4.62833
3504.20161	4.66948
3502.27305	4.70848
3500.34448	4.75093
3498.41592	4.79938
3496.48735	4.85006
3494.55879	4.90191
3492.63022	4.95439
3490.70166	5.00029
3488.77310	5.04305
3486.84453	5.09263
3484.91597	5.14784
3482.98740	5.20055
3481.05884	5.24557
3479.13027	5.28800
3477.20171	5.34006
3475.27314	5.39931
3473.34458	5.44520
3471.41602	5.47095
3469.48745	5.50319
3467.55889	5.56178
3465.63032	5.62632
3463.70176	5.67588
3461.77319	5.71916
3459.84463	5.76554
3457.91606	5.80992
3455.98750	5.85772
3454.05894	5.91205
3452.13037	5.95841
3450.20181	5.99661
3448.27324	6.04104
3446.34468	6.09806
3444.41611	6.15812
3442.48755	6.21403
3440.55898	6.25891
3438.63042	6.29417
3436.70186	6.33516
3434.77329	6.39384
3432.84473	6.45649
3430.91616	6.50545
3428.98760	6.56228
3427.05903	6.63303
3425.13047	6.69338
3423.20190	6.71507
3421.27334	6.71421
3419.34478	6.72585
3417.41621	6.75521
3415.48765	6.81001
3413.55908	6.89062
3411.63052	6.97491
3409.70195	7.03322
3407.77339	7.07473
3405.84482	7.11240
3403.91626	7.13966
3401.98770	7.15480
3400.05913	7.18382
3398.13057	7.23223
3396.20200	7.27274
3394.27344	7.31367
3392.34487	7.34932
3390.41631	7.38138
3388.48774	7.42867
3386.55918	7.50309
3384.63062	7.57655
3382.70205	7.58893
3380.77349	7.52955
3378.84492	7.47048
3376.91636	7.49171
3374.98779	7.57507
3373.05923	7.63426
3371.13066	7.61146
3369.20210	7.59724
3367.27354	7.68400
3365.34497	7.83053
3363.41641	7.90738
3361.48784	7.86668
3359.55928	7.80475
3357.63071	7.76881
3355.70215	7.74385
3353.77358	7.70725
3351.84502	7.70755
3349.91646	7.77200
3347.98789	7.85171
3346.05933	7.86992
3344.13076	7.83610
3342.20220	7.87735
3340.27363	8.00233
3338.34507	8.07694
3336.41650	8.00500
3334.48794	7.90027
3332.55937	7.87395
3330.63081	7.88260
3328.70225	7.87783
3326.77368	7.87923
3324.84512	7.86776
3322.91655	7.84750
3320.98799	7.89779
3319.05942	7.96798
3317.13086	7.97461
3315.20229	7.98123
3313.27373	8.04206
3311.34517	8.08491
3309.41660	8.06682
3307.48804	8.04780
3305.55947	8.06242
3303.63091	8.08006
3301.70234	8.11036
3299.77378	8.17520
3297.84521	8.16500
3295.91665	8.09389
3293.98809	8.04659
3292.05952	8.00990
3290.13096	7.95579
3288.20239	7.93166
3286.27383	7.99675
3284.34526	8.04192
3282.41670	8.01009
3280.48813	7.99740
3278.55957	8.03700
3276.63101	8.06425
3274.70244	8.06040
3272.77388	8.01411
3270.84531	7.91802
3268.91675	7.87352
3266.98818	7.89421
3265.05962	7.95181
3263.13105	8.09557
3261.20249	8.27359
3259.27393	8.29863
3257.34536	8.22999
3255.41680	8.20302
3253.48823	8.13753
3251.55967	8.03750
3249.63110	8.02948
3247.70254	8.09455
3245.77397	8.12295
3243.84541	8.10479
3241.91685	8.04522
3239.98828	7.99433
3238.05972	7.98406
3236.13115	7.98392
3234.20259	8.01026
3232.27402	8.04771
3230.34546	8.07583
3228.41689	8.06806
3226.48833	8.00188
3224.55977	7.94718
3222.63120	7.95433
3220.70264	7.97191
3218.77407	7.93931
3216.84551	7.85829
3214.91694	7.75349
3212.98838	7.67830
3211.05981	7.68411
3209.13125	7.74007
3207.20269	7.73975
3205.27412	7.67035
3203.34556	7.63442
3201.41699	7.64670
3199.48843	7.64162
3197.55986	7.61004
3195.63130	7.56480
3193.70273	7.49255
3191.77417	7.42135
3189.84561	7.37998
3187.91704	7.34542
3185.98848	7.32448
3184.05991	7.30711
3182.13135	7.23766
3180.20278	7.16655
3178.27422	7.15741
3176.34565	7.16213
3174.41709	7.13312
3172.48853	7.08765
3170.55996	7.02104
3168.63140	6.93149
3166.70283	6.85960
3164.77427	6.80532
3162.84570	6.73491
3160.91714	6.66437
3158.98857	6.62907
3157.06001	6.60300
3155.13145	6.52892
3153.20288	6.40429
3151.27432	6.28820
3149.34575	6.22265
3147.41719	6.18912
3145.48862	6.14876
3143.56006	6.08411
3141.63149	6.01360
3139.70293	5.95514
3137.77437	5.88946
3135.84580	5.80860
3133.91724	5.73431
3131.98867	5.66820
3130.06011	5.59828
3128.13154	5.52730
3126.20298	5.45902
3124.27441	5.39069
3122.34585	5.32487
3120.41729	5.26311
3118.48872	5.19408
3116.56016	5.11661
3114.63159	5.04273
3112.70303	4.97624
3110.77446	4.91568
3108.84590	4.85673
3106.91733	4.78927
3104.98877	4.71367
3103.06021	4.64447
3101.13164	4.58538
3099.20308	4.52818
3097.27451	4.46751
3095.34595	4.40250
3093.41738	4.33416
3091.48882	4.26536
3089.56025	4.19901
3087.63169	4.13498
3085.70312	4.07353
3083.77456	4.01380
3081.84600	3.95365
3079.91743	3.89342
3077.98887	3.83200
3076.06030	3.76886
3074.13174	3.70770
3072.20317	3.65010
3070.27461	3.59444
3068.34604	3.53990
3066.41748	3.48629
3064.48892	3.43235
3062.56035	3.37678
3060.63179	3.32071
3058.70322	3.26586
3056.77466	3.21305
3054.84609	3.16168
3052.91753	3.11052
3050.98896	3.05964
3049.06040	3.00871
3047.13184	2.95835
3045.20327	2.91071
3043.27471	2.86441
3041.34614	2.81624
3039.41758	2.76767
3037.48901	2.72085
3035.56045	2.67451
3033.63188	2.62880
3031.70332	2.58474
3029.77476	2.54161
3027.84619	2.49878
3025.91763	2.45599
3023.98906	2.41274
3022.06050	2.36997
3020.13193	2.32935
3018.20337	2.29049
3016.27480	2.25162
3014.34624	2.21210
3012.41768	2.17300
3010.48911	2.13507
3008.56055	2.09809
3006.63198	2.06211
3004.70342	2.02671
3002.77485	1.99114
3000.84629	1.95600
2998.91772	1.92218
2996.98916	1.88954
2995.06060	1.85761
2993.13203	1.82624
2991.20347	1.79529
2989.27490	1.76468
2987.34634	1.73473
2985.41777	1.70582
2983.48921	1.67803
2981.56064	1.65073
2979.63208	1.62313
2977.70352	1.59533
2975.77495	1.56821
2973.84639	1.54225
2971.91782	1.51678
2969.98926	1.49117
2968.06069	1.46595
2966.13213	1.44154
2964.20356	1.41714
2962.27500	1.39227
2960.34644	1.36755
2958.41787	1.34355
2956.48931	1.32016
2954.56074	1.29708
2952.63218	1.27413
2950.70361	1.25138
2948.77505	1.22882
2946.84648	1.20632
2944.91792	1.18425
2942.98936	1.16295
2941.06079	1.14246
2939.13223	1.12262
2937.20366	1.10270
2935.27510	1.08225
2933.34653	1.06151
2931.41797	1.04074
2929.48940	1.02061
2927.56084	1.00166
2925.63228	0.98319
2923.70371	0.96499
2921.77515	0.94776
2919.84658	0.93118
2917.91802	0.91476
2915.98945	0.89873
2914.06089	0.88294
2912.13232	0.86722
2910.20376	0.85222
2908.27520	0.83805
2906.34663	0.82381
2904.41807	0.80918
2902.48950	0.79502
2900.56094	0.78178
2898.63237	0.76907
2896.70381	0.75648
2894.77524	0.74393
2892.84668	0.73171
2890.91812	0.71987
2888.98955	0.70835
2887.06099	0.69727
2885.13242	0.68685
2883.20386	0.67681
2881.27529	0.66672
2879.34673	0.65642
2877.41816	0.64602
2875.48960	0.63594
2873.56104	0.62589
2871.63247	0.61529
2869.70391	0.60444
2867.77534	0.59347
2865.84678	0.58216
2863.91821	0.57080
2861.98965	0.55947
2860.06108	0.54804
2858.13252	0.53684
2856.20396	0.52627
2854.27539	0.51670
2852.34683	0.50791
2850.41826	0.49951
2848.48970	0.49166
2846.56113	0.48427
2844.63257	0.47716
2842.70400	0.47046
2840.77544	0.46421
2838.84687	0.45827
2836.91831	0.45246
2834.98975	0.44668
2833.06118	0.44091
2831.13262	0.43517
2829.20405	0.42944
2827.27549	0.42352
2825.34692	0.41747
2823.41836	0.41149
2821.48979	0.40552
2819.56123	0.39962
2817.63267	0.39387
2815.70410	0.38816
2813.77554	0.38250
2811.84697	0.37697
2809.91841	0.37155
2807.98984	0.36627
2806.06128	0.36116
2804.13271	0.35605
2802.20415	0.35086
2800.27559	0.34575
2798.34702	0.34090
2796.41846	0.33612
2794.48989	0.33129
2792.56133	0.32659
2790.63276	0.32203
2788.70420	0.31746
2786.77563	0.31302
2784.84707	0.30875
2782.91851	0.30452
2780.98994	0.30044
2779.06138	0.29654
2777.13281	0.29263
2775.20425	0.28863
2773.27568	0.28463
2771.34712	0.28067
2769.41855	0.27684
2767.48999	0.27311
2765.56143	0.26948
2763.63286	0.26601
2761.70430	0.26269
2759.77573	0.25952
2757.84717	0.25648
2755.91860	0.25339
2753.99004	0.25007
2752.06147	0.24673
2750.13291	0.24362
2748.20435	0.24068
2746.27578	0.23799
2744.34722	0.23540
2742.41865	0.23259
2740.49009	0.22980
2738.56152	0.22727
2736.63296	0.22478
2734.70439	0.22226
2732.77583	0.21978
2730.84727	0.21732
2728.91870	0.21493
2726.99014	0.21269
2725.06157	0.21051
2723.13301	0.20837
2721.20444	0.20636
2719.27588	0.20437
2717.34731	0.20232
2715.41875	0.20038
2713.49019	0.19858
2711.56162	0.19673
2709.63306	0.19479
2707.70449	0.19291
2705.77593	0.19124
2703.84736	0.18974
2701.91880	0.18825
2699.99023	0.18668
2698.06167	0.18501
2696.13311	0.18335
2694.20454	0.18186
2692.27598	0.18050
2690.34741	0.17917
2688.41885	0.17784
2686.49028	0.17654
2684.56172	0.17526
2682.63315	0.17391
2680.70459	0.17256
2678.77603	0.17140
2676.84746	0.17042
2674.91890	0.16945
2672.99033	0.16845
2671.06177	0.16744
2669.13320	0.16630
2667.20464	0.16512
2665.27607	0.16407
2663.34751	0.16317
2661.41895	0.16226
2659.49038	0.16128
2657.56182	0.16033
2655.63325	0.15950
2653.70469	0.15875
2651.77612	0.15807
2649.84756	0.15744
2647.91899	0.15684
2645.99043	0.15626
2644.06187	0.15571
2642.13330	0.15524
2640.20474	0.15476
2638.27617	0.15415
2636.34761	0.15348
2634.41904	0.15280
2632.49048	0.15225
2630.56191	0.15186
2628.63335	0.15153
2626.70479	0.15118
2624.77622	0.15090
2622.84766	0.15063
2620.91909	0.15018
2618.99053	0.14968
2617.06196	0.14946
2615.13340	0.14942
2613.20483	0.14935
2611.27627	0.14917
2609.34771	0.14895
2607.41914	0.14884
2605.49058	0.14879
2603.56201	0.14867
2601.63345	0.14858
2599.70488	0.14857
2597.77632	0.14867
2595.84775	0.14879
2593.91919	0.14881
2591.99062	0.14891
2590.06206	0.14908
2588.13350	0.14916
2586.20493	0.14924
2584.27637	0.14943
2582.34780	0.14966
2580.41924	0.14996
2578.49067	0.15024
2576.56211	0.15043
2574.63354	0.15060
2572.70498	0.15084
2570.77642	0.15118
2568.84785	0.15165
2566.91929	0.15218
2564.99072	0.15268
2563.06216	0.15309
2561.13359	0.15348
2559.20503	0.15394
2557.27646	0.15439
2555.34790	0.15478
2553.41934	0.15520
2551.49077	0.15575
2549.56221	0.15634
2547.63364	0.15684
2545.70508	0.15731
2543.77651	0.15789
2541.84795	0.15855
2539.91938	0.15925
2537.99082	0.15997
2536.06226	0.16063
2534.13369	0.16115
2532.20513	0.16162
2530.27656	0.16214
2528.34800	0.16273
2526.41943	0.16340
2524.49087	0.16416
2522.56230	0.16490
2520.63374	0.16562
2518.70518	0.16645
2516.77661	0.16737
2514.84805	0.16821
2512.91948	0.16898
2510.99092	0.16976
2509.06235	0.17059
2507.13379	0.17144
2505.20522	0.17224
2503.27666	0.17297
2501.34810	0.17365
2499.41953	0.17431
2497.49097	0.17504
2495.56240	0.17587
2493.63384	0.17678
2491.70527	0.17775
2489.77671	0.17876
2487.84814	0.17977
2485.91958	0.18063
2483.99102	0.18142
2482.06245	0.18221
2480.13389	0.18300
2478.20532	0.18391
2476.27676	0.18489
2474.34819	0.18583
2472.41963	0.18678
2470.49106	0.18772
2468.56250	0.18856
2466.63394	0.18929
2464.70537	0.19007
2462.77681	0.19097
2460.84824	0.19192
2458.91968	0.19285
2456.99111	0.19379
2455.06255	0.19478
2453.13398	0.19584
2451.20542	0.19692
2449.27686	0.19794
2447.34829	0.19892
2445.41973	0.19989
2443.49116	0.20072
2441.56260	0.20145
2439.63403	0.20232
2437.70547	0.20343
2435.77690	0.20467
2433.84834	0.20579
2431.91978	0.20674
2429.99121	0.20769
2428.06265	0.20877
2426.13408	0.21003
2424.20552	0.21135
2422.27695	0.21253
2420.34839	0.21361
2418.41982	0.21474
2416.49126	0.21590
2414.56270	0.21707
2412.63413	0.21821
2410.70557	0.21926
2408.77700	0.22031
2406.84844	0.22142
2404.91987	0.22261
2402.99131	0.22383
2401.06274	0.22494
2399.13418	0.22602
2397.20562	0.22724
2395.27705	0.22857
2393.34849	0.22993
2391.41992	0.23131
2389.49136	0.23264
2387.56279	0.23399
2385.63423	0.23563
2383.70566	0.23782
2381.77710	0.24054
2379.84854	0.24358
2377.91997	0.24693
2375.99141	0.25069
2374.06284	0.25485
2372.13428	0.25949
2370.20571	0.26478
2368.27715	0.26972
2366.34858	0.27347
2364.42002	0.27762
2362.49146	0.28254
2360.56289	0.28570
2358.63433	0.28672
2356.70576	0.28678
2354.77720	0.28570
2352.84863	0.28385
2350.92007	0.28129
2348.99150	0.27918
2347.06294	0.27943
2345.13437	0.28318
2343.20581	0.28886
2341.27725	0.29254
2339.34868	0.29407
2337.42012	0.29536
2335.49155	0.29706
2333.56299	0.29830
2331.63442	0.29872
2329.70586	0.29904
2327.77729	0.29977
2325.84873	0.30054
2323.92017	0.30112
2321.99160	0.30157
2320.06304	0.30200
2318.13447	0.30231
2316.20591	0.30249
2314.27734	0.30301
2312.34878	0.30402
2310.42021	0.30502
2308.49165	0.30573
2306.56309	0.30638
2304.63452	0.30716
2302.70596	0.30819
2300.77739	0.30957
2298.84883	0.31108
2296.92026	0.31260
2294.99170	0.31416
2293.06313	0.31553
2291.13457	0.31677
2289.20601	0.31816
2287.27744	0.31970
2285.34888	0.32134
2283.42031	0.32314
2281.49175	0.32514
2279.56318	0.32725
2277.63462	0.32933
2275.70605	0.33141
2273.77749	0.33358
2271.84893	0.33583
2269.92036	0.33808
2267.99180	0.34027
2266.06323	0.34234
2264.13467	0.34435
2262.20610	0.34647
2260.27754	0.34856
2258.34897	0.35058
2256.42041	0.35270
2254.49185	0.35483
2252.56328	0.35686
2250.63472	0.35897
2248.70615	0.36114
2246.77759	0.36326
2244.84902	0.36540
2242.92046	0.36758
2240.99189	0.36973
2239.06333	0.37194
2237.13477	0.37424
2235.20620	0.37657
2233.27764	0.37888
2231.34907	0.38117
2229.42051	0.38349
2227.49194	0.38583
2225.56338	0.38815
2223.63481	0.39044
2221.70625	0.39269
2219.77769	0.39491
2217.84912	0.39709
2215.92056	0.39918
2213.99199	0.40125
2212.06343	0.40336
2210.13486	0.40552
2208.20630	0.40769
2206.27773	0.40978
2204.34917	0.41182
2202.42061	0.41383
2200.49204	0.41585
2198.56348	0.41794
2196.63491	0.42004
2194.70635	0.42214
2192.77778	0.42415
2190.84922	0.42593
2188.92065	0.42763
2186.99209	0.42948
2185.06353	0.43148
2183.13496	0.43341
2181.20640	0.43509
2179.27783	0.43660
2177.34927	0.43816
2175.42070	0.43978
2173.49214	0.44132
2171.56357	0.44274
2169.63501	0.44415
2167.70645	0.44554
2165.77788	0.44679
2163.84932	0.44799
2161.92075	0.44917
2159.99219	0.45027
2158.06362	0.45132
2156.13506	0.45227
2154.20649	0.45311
2152.27793	0.45388
2150.34937	0.45464
2148.42080	0.45540
2146.49224	0.45604
2144.56367	0.45652
2142.63511	0.45698
2140.70654	0.45735
2138.77798	0.45760
2136.84941	0.45790
2134.92085	0.45820
2132.99229	0.45824
2131.06372	0.45806
2129.13516	0.45789
2127.20659	0.45773
2125.27803	0.45750
2123.34946	0.45724
2121.42090	0.45685
2119.49233	0.45625
2117.56377	0.45555
2115.63521	0.45482
2113.70664	0.45407
2111.77808	0.45331
2109.84951	0.45246
2107.92095	0.45140
2105.99238	0.45025
2104.06382	0.44913
2102.13525	0.44788
2100.20669	0.44647
2098.27812	0.44503
2096.34956	0.44356
2094.42100	0.44202
2092.49243	0.44044
2090.56387	0.43883
2088.63530	0.43718
2086.70674	0.43548
2084.77817	0.43365
2082.84961	0.43161
2080.92104	0.42942
2078.99248	0.42731
2077.06392	0.42530
2075.13535	0.42322
2073.20679	0.42109
2071.27822	0.41895
2069.34966	0.41681
2067.42109	0.41464
2065.49253	0.41246
2063.56396	0.41015
2061.63540	0.40767
2059.70684	0.40506
2057.77827	0.40243
2055.84971	0.39988
2053.92114	0.39731
2051.99258	0.39467
2050.06401	0.39204
2048.13545	0.38942
2046.20688	0.38673
2044.27832	0.38409
2042.34976	0.38157
2040.42119	0.37894
2038.49263	0.37606
2036.56406	0.37319
2034.63550	0.37046
2032.70693	0.36770
2030.77837	0.36493
2028.84980	0.36225
2026.92124	0.35959
2024.99268	0.35680
2023.06411	0.35393
2021.13555	0.35104
2019.20698	0.34824
2017.27842	0.34553
2015.34985	0.34270
2013.42129	0.33982
2011.49272	0.33707
2009.56416	0.33442
2007.63560	0.33169
2005.70703	0.32889
2003.77847	0.32612
2001.84990	0.32340
1999.92134	0.32079
1997.99277	0.31826
1996.06421	0.31574
1994.13564	0.31339
1992.20708	0.31120
1990.27852	0.30881
1988.34995	0.30621
1986.42139	0.30354
1984.49282	0.30087
1982.56426	0.29833
1980.63569	0.29594
1978.70713	0.29368
1976.77856	0.29140
1974.85000	0.28905
1972.92144	0.28676
1970.99287	0.28469
1969.06431	0.28286
1967.13574	0.28109
1965.20718	0.27896
1963.27861	0.27673
1961.35005	0.27477
1959.42148	0.27284
1957.49292	0.27086
1955.56436	0.26897
1953.63579	0.26716
1951.70723	0.26538
1949.77866	0.26368
1947.85010	0.26213
1945.92153	0.26083
1943.99297	0.25979
1942.06440	0.25845
1940.13584	0.25639
1938.20728	0.25436
1936.27871	0.25283
1934.35015	0.25158
1932.42158	0.25041
1930.49302	0.24918
1928.56445	0.24798
1926.63589	0.24698
1924.70732	0.24643
1922.77876	0.24604
1920.85020	0.24517
1918.92163	0.24411
1916.99307	0.24308
1915.06450	0.24178
1913.13594	0.24071
1911.20737	0.24016
1909.27881	0.23965
1907.35024	0.23886
1905.42168	0.23795
1903.49312	0.23710
1901.56455	0.23634
1899.63599	0.23579
1897.70742	0.23550
1895.77886	0.23538
1893.85029	0.23516
1891.92173	0.23478
1889.99316	0.23467
1888.06460	0.23442
1886.13604	0.23375
1884.20747	0.23322
1882.27891	0.23296
1880.35034	0.23281
1878.42178	0.23277
1876.49321	0.23279
1874.56465	0.23275
1872.63608	0.23289
1870.70752	0.23372
1868.77896	0.23523
1866.85039	0.23569
1864.92183	0.23474
1862.99326	0.23408
1861.06470	0.23412
1859.13613	0.23449
1857.20757	0.23482
1855.27900	0.23509
1853.35044	0.23541
1851.42187	0.23602
1849.49331	0.23696
1847.56475	0.23812
1845.63618	0.23953
1843.70762	0.24091
1841.77905	0.24124
1839.85049	0.24105
1837.92192	0.24159
1835.99336	0.24255
1834.06479	0.24347
1832.13623	0.24476
1830.20767	0.24693
1828.27910	0.24875
1826.35054	0.24949
1824.42197	0.25044
1822.49341	0.25133
1820.56484	0.25216
1818.63628	0.25344
1816.70771	0.25508
1814.77915	0.25671
1812.85059	0.25869
1810.92202	0.26116
1808.99346	0.26331
1807.06489	0.26499
1805.13633	0.26669
1803.20776	0.26901
1801.27920	0.27200
1799.35063	0.27518
1797.42207	0.27774
1795.49351	0.28018
1793.56494	0.28340
1791.63638	0.28744
1789.70781	0.29028
1787.77925	0.29195
1785.85068	0.29468
1783.92212	0.29849
1781.99355	0.30279
1780.06499	0.30734
1778.13643	0.31159
1776.20786	0.31553
1774.27930	0.32044
1772.35073	0.32744
1770.42217	0.33387
1768.49360	0.33812
1766.56504	0.34236
1764.63647	0.34729
1762.70791	0.35349
1760.77935	0.36141
1758.85078	0.36825
1756.92222	0.37506
1754.99365	0.38259
1753.06509	0.38950
1751.13652	0.39841
1749.20796	0.41000
1747.27939	0.42054
1745.35083	0.42899
1743.42227	0.43802
1741.49370	0.44833
1739.56514	0.46067
1737.63657	0.47305
1735.70801	0.48413
1733.77944	0.50129
1731.85088	0.52115
1729.92231	0.53585
1727.99375	0.55079
1726.06519	0.56716
1724.13662	0.58559
1722.20806	0.60581
1720.27949	0.62464
1718.35093	0.64737
1716.42236	0.68143
1714.49380	0.71205
1712.56523	0.73526
1710.63667	0.75807
1708.70811	0.78329
1706.77954	0.81276
1704.85098	0.84870
1702.92241	0.88029
1700.99385	0.91077
1699.06528	0.95729
1697.13672	1.00020
1695.20815	1.04357
1693.27959	1.08511
1691.35103	1.11834
1689.42246	1.15777
1687.49390	1.20007
1685.56533	1.24057
1683.63677	1.30428
1681.70820	1.37075
1679.77964	1.41142
1677.85107	1.44999
1675.92251	1.49461
1673.99395	1.55156
1672.06538	1.60268
1670.13682	1.65230
1668.20825	1.71889
1666.27969	1.77283
1664.35112	1.81816
1662.42256	1.87579
1660.49399	1.94215
1658.56543	1.99313
1656.63687	2.03470
1654.70830	2.07295
1652.77974	2.13267
1650.85117	2.19098
1648.92261	2.21017
1646.99404	2.23321
1645.06548	2.25894
1643.13691	2.27942
1641.20835	2.29145
1639.27979	2.30275
1637.35122	2.31031
1635.42266	2.30748
1633.49409	2.29687
1631.56553	2.28392
1629.63696	2.26850
1627.70840	2.24057
1625.77983	2.20762
1623.85127	2.16610
1621.92271	2.11487
1619.99414	2.06821
1618.06558	2.02282
1616.13701	1.95908
1614.20845	1.89462
1612.27988	1.84559
1610.35132	1.79403
1608.42275	1.73789
1606.49419	1.68257
1604.56562	1.63259
1602.63706	1.58449
1600.70850	1.53699
1598.77993	1.49343
1596.85137	1.45245
1594.92280	1.41215
1592.99424	1.37355
1591.06567	1.33907
1589.13711	1.30707
1587.20854	1.27718
1585.27998	1.24955
1583.35142	1.22403
1581.42285	1.20106
1579.49429	1.18182
1577.56572	1.16523
1575.63716	1.14477
1573.70859	1.12599
1571.78003	1.11411
1569.85146	1.10263
1567.92290	1.08965
1565.99434	1.07999
1564.06577	1.07319
1562.13721	1.06814
1560.20864	1.06581
1558.28008	1.06683
1556.35151	1.06734
1554.42295	1.06555
1552.49438	1.06370
1550.56582	1.06117
1548.63726	1.05692
1546.70869	1.05128
1544.78013	1.04393
1542.85156	1.03401
1540.92300	1.01777
1538.99443	0.98886
1537.06587	0.96763
1535.13730	0.95438
1533.20874	0.93669
1531.28018	0.91698
1529.35161	0.90290
1527.42305	0.89056
1525.49448	0.87817
1523.56592	0.86764
1521.63735	0.85697
1519.70879	0.84499
1517.78022	0.83492
1515.85166	0.82349
1513.92310	0.81153
1511.99453	0.80178
1510.06597	0.79381
1508.13740	0.78663
1506.20884	0.77311
1504.28027	0.75976
1502.35171	0.75255
1500.42314	0.74707
1498.49458	0.74179
1496.56602	0.73507
1494.63745	0.72742
1492.70889	0.72182
1490.78032	0.71807
1488.85176	0.71358
1486.92319	0.70778
1484.99463	0.70274
1483.06606	0.69912
1481.13750	0.69646
1479.20894	0.69451
1477.28037	0.69368
1475.35181	0.69391
1473.42324	0.69435
1471.49468	0.69290
1469.56611	0.68978
1467.63755	0.68726
1465.70898	0.68589
1463.78042	0.68499
1461.85186	0.68423
1459.92329	0.68440
1457.99473	0.68574
1456.06616	0.68534
1454.13760	0.68189
1452.20903	0.67878
1450.28047	0.67619
1448.35190	0.67368
1446.42334	0.67093
1444.49478	0.66831
1442.56621	0.66602
1440.63765	0.66389
1438.70908	0.66200
1436.78052	0.65971
1434.85195	0.65656
1432.92339	0.65382
1430.99482	0.65207
1429.06626	0.65096
1427.13770	0.65030
1425.20913	0.65044
1423.28057	0.65121
1421.35200	0.65186
1419.42344	0.65257
1417.49487	0.65267
1415.56631	0.65120
1413.63774	0.64973
1411.70918	0.64909
1409.78062	0.64909
1407.85205	0.64954
1405.92349	0.65053
1403.99492	0.65143
1402.06636	0.65137
1400.13779	0.65068
1398.20923	0.64944
1396.28066	0.64731
1394.35210	0.64387
1392.42354	0.63951
1390.49497	0.63567
1388.56641	0.63240
1386.63784	0.62849
1384.70928	0.62376
1382.78071	0.61934
1380.85215	0.61559
1378.92358	0.61252
1376.99502	0.61029
1375.06646	0.60899
1373.13789	0.60798
1371.20933	0.60691
1369.28076	0.60605
1367.35220	0.60502
1365.42363	0.60377
1363.49507	0.60274
1361.56650	0.60151
1359.63794	0.59967
1357.70937	0.59793
1355.78081	0.59656
1353.85225	0.59545
1351.92368	0.59455
1349.99512	0.59382
1348.06655	0.59301
1346.13799	0.59195
1344.20942	0.59081
1342.28086	0.59011
1340.35229	0.59000
1338.42373	0.58952
1336.49517	0.58822
1334.56660	0.58708
1332.63804	0.58656
1330.70947	0.58652
1328.78091	0.58672
1326.85234	0.58708
1324.92378	0.58760
1322.99521	0.58825
1321.06665	0.58891
1319.13809	0.58948
1317.20952	0.58983
1315.28096	0.58987
1313.35239	0.58949
1311.42383	0.58850
1309.49526	0.58722
1307.56670	0.58619
1305.63813	0.58550
1303.70957	0.58486
1301.78101	0.58403
1299.85244	0.58303
1297.92388	0.58200
1295.99531	0.58092
1294.06675	0.57974
1292.13818	0.57857
1290.20962	0.57747
1288.28105	0.57630
1286.35249	0.57494
1284.42393	0.57353
1282.49536	0.57229
1280.56680	0.57113
1278.63823	0.56988
1276.70967	0.56855
1274.78110	0.56726
1272.85254	0.56620
1270.92397	0.56549
1268.99541	0.56494
1267.06685	0.56426
1265.13828	0.56353
1263.20972	0.56294
1261.28115	0.56244
1259.35259	0.56178
1257.42402	0.56095
1255.49546	0.56036
1253.56689	0.56024
1251.63833	0.56036
1249.70977	0.56042
1247.78120	0.56037
1245.85264	0.56023
1243.92407	0.55988
1241.99551	0.55912
1240.06694	0.55786
1238.13838	0.55613
1236.20981	0.55412
1234.28125	0.55205
1232.35269	0.55008
1230.42412	0.54826
1228.49556	0.54659
1226.56699	0.54491
1224.63843	0.54317
1222.70986	0.54144
1220.78130	0.53978
1218.85273	0.53835
1216.92417	0.53720
1214.99561	0.53611
1213.06704	0.53511
1211.13848	0.53435
1209.20991	0.53385
1207.28135	0.53335
1205.35278	0.53260
1203.42422	0.53169
1201.49565	0.53080
1199.56709	0.52996
1197.63853	0.52908
1195.70996	0.52823
1193.78140	0.52760
1191.85283	0.52709
1189.92427	0.52653
1187.99570	0.52604
1186.06714	0.52573
1184.13857	0.52561
1182.21001	0.52578
1180.28145	0.52641
1178.35288	0.52757
1176.42432	0.52907
1174.49575	0.53050
1172.56719	0.53149
1170.63862	0.53202
1168.71006	0.53237
1166.78149	0.53271
1164.85293	0.53306
1162.92437	0.53341
1160.99580	0.53353
1159.06724	0.53333
1157.13867	0.53299
1155.21011	0.53233
1153.28154	0.53119
1151.35298	0.52967
1149.42441	0.52759
1147.49585	0.52490
1145.56729	0.52199
1143.63872	0.51924
1141.71016	0.51681
1139.78159	0.51482
1137.85303	0.51345
1135.92446	0.51269
1133.99590	0.51241
1132.06733	0.51242
1130.13877	0.51237
1128.21021	0.51206
1126.28164	0.51165
1124.35308	0.51141
1122.42451	0.51132
1120.49595	0.51110
1118.56738	0.51091
1116.63882	0.51128
1114.71025	0.51211
1112.78169	0.51297
1110.85312	0.51385
1108.92456	0.51482
1106.99600	0.51573
1105.06743	0.51665
1103.13887	0.51766
1101.21030	0.51851
1099.28174	0.51940
1097.35317	0.52108
1095.42461	0.52375
1093.49604	0.52728
1091.56748	0.53205
1089.63892	0.53838
1087.71035	0.54608
1085.78179	0.55465
1083.85322	0.56319
1081.92466	0.57065
1079.99609	0.57609
1078.06753	0.57863
1076.13896	0.57802
1074.21040	0.57479
1072.28184	0.56939
1070.35327	0.56238
1068.42471	0.55490
1066.49614	0.54786
1064.56758	0.54173
1062.63901	0.53642
1060.71045	0.53174
1058.78188	0.52770
1056.85332	0.52396
1054.92476	0.52055
1052.99619	0.51784
1051.06763	0.51578
1049.13906	0.51430
1047.21050	0.51349
1045.28193	0.51330
1043.35337	0.51349
1041.42480	0.51379
1039.49624	0.51397
1037.56768	0.51410
1035.63911	0.51413
1033.71055	0.51369
1031.78198	0.51264
1029.85342	0.51112
1027.92485	0.50923
1025.99629	0.50726
1024.06772	0.50565
1022.13916	0.50464
1020.21060	0.50413
1018.28203	0.50392
1016.35347	0.50363
1014.42490	0.50308
1012.49634	0.50257
1010.56777	0.50231
1008.63921	0.50230
1006.71064	0.50263
1004.78208	0.50344
1002.85352	0.50489
1000.92495	0.50731
998.99639	0.51081
997.06782	0.51501
995.13926	0.51937
993.21069	0.52345
991.28213	0.52674
989.35356	0.52883
987.42500	0.52959
985.49644	0.52931
983.56787	0.52880
981.63931	0.52890
979.71074	0.52969
977.78218	0.53097
975.85361	0.53273
973.92505	0.53485
971.99648	0.53738
970.06792	0.54066
968.13936	0.54453
966.21079	0.54854
964.28223	0.55269
962.35366	0.55704
960.42510	0.56161
958.49653	0.56664
956.56797	0.57214
954.63940	0.57812
952.71084	0.58444
950.78228	0.59066
948.85371	0.59689
946.92515	0.60346
944.99658	0.61006
943.06802	0.61632
941.13945	0.62212
939.21089	0.62771
937.28232	0.63359
935.35376	0.63952
933.42520	0.64489
931.49663	0.65010
929.56807	0.65552
927.63950	0.66115
925.71094	0.66741
923.78237	0.67410
921.85381	0.68054
919.92524	0.68711
917.99668	0.69436
916.06812	0.70180
914.13955	0.70907
912.21099	0.71646
910.28242	0.72433
908.35386	0.73296
906.42529	0.74194
904.49673	0.75026
902.56816	0.75821
900.63960	0.76725
898.71104	0.77715
896.78247	0.78701
894.85391	0.79729
892.92534	0.80766
890.99678	0.81771
889.06821	0.82815
887.13965	0.83905
885.21108	0.84974
883.28252	0.86016
881.35396	0.87084
879.42539	0.88165
877.49683	0.89242
875.56826	0.90400
873.63970	0.91609
871.71113	0.92764
869.78257	0.93885
867.85400	0.94985
865.92544	0.96027
863.99687	0.97081
862.06831	0.98288
860.13975	0.99574
858.21118	1.00758
856.28262	1.01827
854.35405	1.02969
852.42549	1.04300
850.49692	1.05700
848.56836	1.07061
846.63979	1.08299
844.71123	1.09391
842.78267	1.10395
840.85410	1.11345
838.92554	1.12249
836.99697	1.13157
835.06841	1.14165
833.13984	1.15175
831.21128	1.16068
829.28271	1.16968
827.35415	1.17895
825.42559	1.18761
823.49702	1.19715
821.56846	1.20862
819.63989	1.22067
817.71133	1.23066
815.78276	1.23982
813.85420	1.25131
811.92563	1.26777
809.99707	1.28729
808.06851	1.29181
806.13994	1.28543
804.21138	1.30143
802.28281	1.33823
800.35425	1.34207
798.42568	1.30389
796.49712	1.28585
794.56855	1.30552
792.63999	1.32579
790.71143	1.32168
788.78286	1.31892
786.85430	1.32750
784.92573	1.31420
782.99717	1.28442
781.06860	1.27359
779.14004	1.27824
777.21147	1.27460
775.28291	1.25674
773.35435	1.23140
771.42578	1.22141
769.49722	1.25926
767.56865	1.34631
765.64009	1.37910
763.71152	1.27716
761.78296	1.16672
759.85439	1.13276
757.92583	1.16540
755.99727	1.17945
754.06870	1.12222
752.14014	1.05434
750.21157	1.04652
748.28301	1.11384
746.35444	1.15724
744.42588	1.01637
742.49731	0.83586
740.56875	0.75958
738.64019	0.77854
736.71162	0.80642
734.78306	0.81154
732.85449	0.77905
730.92593	0.64394
728.99736	0.48649
727.06880	0.39563
725.14023	0.29227
723.21167	0.06474
721.28311	-0.23635
719.35454	-0.05174
717.42598	0.27120
715.49741	0.50828
713.56885	0.57556
711.64028	0.44746
709.71172	0.27579
707.78315	0.21194
705.85459	0.30376
703.92603	0.47162
701.99746	0.56216
700.06890	0.54417
698.14033	0.51040
696.21177	0.50673
694.28320	0.58875
692.35464	0.63705
690.42607	0.48603
688.49751	0.37183
686.56895	0.31826
684.64038	0.32056
682.71182	0.40360
680.78325	0.47132
678.85469	0.42130
676.92612	0.34515
674.99756	0.29875
673.06899	0.27899
671.14043	0.31680
669.21187	0.42968
667.28330	0.48365
665.35474	0.38630
663.42617	0.28043
661.49761	0.27282
659.56904	0.37826
657.64048	0.54438
655.71191	0.52337
653.78335	0.35515
651.85479	0.28201
649.92622	0.27883
647.99766	0.30909
646.06909	0.39412
644.14053	0.50785
642.21196	0.47042
640.28340	0.39271
638.35483	0.44859
636.42627	0.65548
634.49771	0.69264
632.56914	0.45800
630.64058	0.32991
628.71201	0.31172
626.78345	0.36394
624.85488	0.43242
622.92632	0.45262
620.99775	0.40115
619.06919	0.32206
617.14062	0.28332
615.21206	0.30848
613.28350	0.36171
611.35493	0.34351
609.42637	0.29158
607.49780	0.29399
605.56924	0.31063
603.64067	0.31107
601.71211	0.31968
599.78354	0.33909
597.85498	0.34249
595.92642	0.33596
593.99785	0.41213
592.06929	0.62611
590.14072	0.57742
588.21216	0.40511
586.28359	0.37947
584.35503	0.38796
582.42646	0.35205
580.49790	0.32201
578.56934	0.31039
576.64077	0.29572
574.71221	0.28969
572.78364	0.29809
570.85508	0.31201
568.92651	0.33447
566.99795	0.34494
565.06938	0.35155
563.14082	0.36967
561.21226	0.35592
559.28369	0.30613
557.35513	0.28045
555.42656	0.28891
553.49800	0.27698
551.56943	0.25053
549.64087	0.27886
547.71230	0.40313
545.78374	0.55136
543.85518	0.48561
541.92661	0.35223
539.99805	0.33185
538.06948	0.40761
536.14092	0.45283
534.21235	0.42042
532.28379	0.36039
530.35522	0.29424
528.42666	0.25639
526.49810	0.23466
524.56953	0.23374
522.64097	0.27680
520.71240	0.31303
518.78384	0.28094
516.85527	0.25412
514.92671	0.25441
512.99814	0.22547
511.06958	0.19621
509.14102	0.21446
507.21245	0.25689
505.28389	0.28640
503.35532	0.33680
501.42676	0.44112
499.49819	0.48721
