3997.91411	0.06886
3995.98555	0.06921
3994.05698	0.06956
3992.12842	0.06980
3990.19985	0.07015
3988.27129	0.07064
3986.34272	0.07092
3984.41416	0.07118
3982.48560	0.07162
3980.55703	0.07201
3978.62847	0.07207
3976.69990	0.07206
3974.77134	0.07229
3972.84277	0.07248
3970.91421	0.07256
3968.98564	0.07281
3967.05708	0.07291
3965.12852	0.07276
3963.19995	0.07293
3961.27139	0.07353
3959.34282	0.07399
3957.41426	0.07409
3955.48569	0.07401
3953.55713	0.07372
3951.62856	0.07335
3949.70000	0.07333
3947.77144	0.07385
3945.84287	0.07414
3943.91431	0.07390
3941.98574	0.07393
3940.05718	0.07416
3938.12861	0.07406
3936.20005	0.07370
3934.27148	0.07360
3932.34292	0.07406
3930.41436	0.07435
3928.48579	0.07397
3926.55723	0.07367
3924.62866	0.07391
3922.70010	0.07418
3920.77153	0.07412
3918.84297	0.07400
3916.91440	0.07390
3914.98584	0.07340
3913.05728	0.07254
3911.12871	0.07191
3909.20015	0.07173
3907.27158	0.07184
3905.34302	0.07213
3903.41445	0.07277
3901.48589	0.07348
3899.55732	0.07357
3897.62876	0.07341
3895.70020	0.07324
3893.77163	0.07307
3891.84307	0.07325
3889.91450	0.07373
3887.98594	0.07388
3886.05737	0.07394
3884.12881	0.07446
3882.20024	0.07493
3880.27168	0.07498
3878.34312	0.07476
3876.41455	0.07428
3874.48599	0.07405
3872.55742	0.07424
3870.62886	0.07457
3868.70029	0.07520
3866.77173	0.07597
3864.84316	0.07693
3862.91460	0.07782
3860.98604	0.07757
3859.05747	0.07696
3857.12891	0.07697
3855.20034	0.07740
3853.27178	0.07843
3851.34321	0.07986
3849.41465	0.07982
3847.48608	0.07932
3845.55752	0.07905
3843.62896	0.07922
3841.70039	0.08032
3839.77183	0.08194
3837.84326	0.08309
3835.91470	0.08350
3833.98613	0.08387
3832.05757	0.08450
3830.12900	0.08501
3828.20044	0.08542
3826.27187	0.08639
3824.34331	0.08757
3822.41475	0.08823
3820.48618	0.08919
3818.55762	0.09049
3816.62905	0.09155
3814.70049	0.09266
3812.77192	0.09306
3810.84336	0.09312
3808.91479	0.09388
3806.98623	0.09552
3805.05767	0.09710
3803.12910	0.09788
3801.20054	0.09922
3799.27197	0.10108
3797.34341	0.10212
3795.41484	0.10316
3793.48628	0.10410
3791.55771	0.10467
3789.62915	0.10537
3787.70059	0.10646
3785.77202	0.10809
3783.84346	0.11008
3781.91489	0.11187
3779.98633	0.11359
3778.05776	0.11548
3776.12920	0.11655
3774.20063	0.11710
3772.27207	0.11837
3770.34351	0.12070
3768.41494	0.12358
3766.48638	0.12585
3764.55781	0.12759
3762.62925	0.12930
3760.70068	0.13137
3758.77212	0.13413
3756.84355	0.13678
3754.91499	0.13838
3752.98643	0.13971
3751.05786	0.14262
3749.12930	0.14844
3747.20073	0.15322
3745.27217	0.15569
3743.34360	0.15903
3741.41504	0.16305
3739.48647	0.16644
3737.55791	0.17065
3735.62935	0.17665
3733.70078	0.18407
3731.77222	0.19088
3729.84365	0.19584
3727.91509	0.19977
3725.98652	0.20471
3724.05796	0.21103
3722.12939	0.21735
3720.20083	0.22336
3718.27227	0.22935
3716.34370	0.23554
3714.41514	0.24200
3712.48657	0.25090
3710.55801	0.26580
3708.62944	0.28262
3706.70088	0.29546
3704.77231	0.30706
3702.84375	0.32056
3700.91519	0.33777
3698.98662	0.35620
3697.05806	0.37369
3695.12949	0.39248
3693.20093	0.41218
3691.27236	0.43297
3689.34380	0.46030
3687.41523	0.49569
3685.48667	0.52717
3683.55811	0.55381
3681.62954	0.58208
3679.70098	0.61373
3677.77241	0.64664
3675.84385	0.68568
3673.91528	0.73982
3671.98672	0.78393
3670.05815	0.82311
3668.12959	0.87862
3666.20103	0.92872
3664.27246	0.96920
3662.34390	1.01237
3660.41533	1.05971
3658.48677	1.10682
3656.55820	1.15668
3654.62964	1.21207
3652.70107	1.25808
3650.77251	1.29721
3648.84395	1.35246
3646.91538	1.42373
3644.98682	1.47588
3643.05825	1.51548
3641.12969	1.55665
3639.20112	1.60237
3637.27256	1.64754
3635.34399	1.69022
3633.41543	1.73264
3631.48687	1.77325
3629.55830	1.81509
3627.62974	1.87034
3625.70117	1.92229
3623.77261	1.95695
3621.84404	1.98898
3619.91548	2.02579
3617.98691	2.07162
3616.05835	2.11490
3614.12979	2.15003
3612.20122	2.18836
3610.27266	2.22838
3608.34409	2.26949
3606.41553	2.31370
3604.48696	2.35355
3602.55840	2.38830
3600.62983	2.42688
3598.70127	2.46878
3596.77271	2.50834
3594.84414	2.54773
3592.91558	2.58789
3590.98701	2.62445
3589.05845	2.65687
3587.12988	2.69817
3585.20132	2.74971
3583.27275	2.79437
3581.34419	2.83252
3579.41562	2.87049
3577.48706	2.91114
3575.55850	2.95541
3573.62993	3.00086
3571.70137	3.04311
3569.77280	3.08259
3567.84424	3.12277
3565.91567	3.17189
3563.98711	3.22215
3562.05854	3.26325
3560.12998	3.30381
3558.20142	3.34843
3556.27285	3.39470
3554.34429	3.43918
3552.41572	3.48586
3550.48716	3.53510
3548.55859	3.58071
3546.63003	3.62407
3544.70146	3.67053
3542.77290	3.71782
3540.84434	3.76336
3538.91577	3.80811
3536.98721	3.85314
3535.05864	3.90340
3533.13008	3.95447
3531.20151	3.99929
3529.27295	4.04192
3527.34438	4.09003
3525.41582	4.14301
3523.48726	4.19218
3521.55869	4.23468
3519.63013	4.27943
3517.70156	4.33140
3515.77300	4.38170
3513.84443	4.42685
3511.91587	4.47182
3509.98730	4.51995
3508.05874	4.57140
3506.13018	4.62254
3504.20161	4.67045
3502.27305	4.71786
3500.34448	4.76633
3498.41592	4.81159
3496.48735	4.85566
3494.55879	4.90261
3492.63022	4.95189
3490.70166	5.00359
3488.77310	5.05776
3486.84453	5.11102
3484.91597	5.15912
3482.98740	5.20280
3481.05884	5.24588
3479.13027	5.28865
3477.20171	5.33196
3475.27314	5.37722
3473.34458	5.42731
3471.41602	5.48414
3469.48745	5.54246
3467.55889	5.59609
3465.63032	5.64050
3463.70176	5.68113
3461.77319	5.72726
3459.84463	5.78390
3457.91606	5.84329
3455.98750	5.89371
3454.05894	5.94266
3452.13037	5.99932
3450.20181	6.05963
3448.27324	6.11773
3446.34468	6.16830
3444.41611	6.20126
3442.48755	6.23251
3440.55898	6.28166
3438.63042	6.33386
3436.70186	6.37513
3434.77329	6.41796
3432.84473	6.46780
3430.91616	6.51553
3428.98760	6.56236
3427.05903	6.62236
3425.13047	6.71042
3423.20190	6.79456
3421.27334	6.84114
3419.34478	6.86584
3417.41621	6.89657
3415.48765	6.94139
3413.55908	6.98808
3411.63052	7.04715
3409.70195	7.14918
3407.77339	7.27587
3405.84482	7.33340
3403.91626	7.31220
3401.98770	7.27449
3400.05913	7.26257
3398.13057	7.30597
3396.20200	7.38647
3394.27344	7.46649
3392.34487	7.51293
3390.41631	7.53323
3388.48774	7.54798
3386.55918	7.55411
3384.63062	7.55922
3382.70205	7.61490
3380.77349	7.70078
3378.84492	7.75179
3376.91636	7.79182
3374.98779	7.85775
3373.05923	7.95425
3371.13066	7.98681
3369.20210	7.91607
3367.27354	7.84528
3365.34497	7.86277
3363.41641	7.95034
3361.48784	8.06372
3359.55928	8.17683
3357.63071	8.20162
3355.70215	8.17474
3353.77358	8.14253
3351.84502	8.07802
3349.91646	8.03068
3347.98789	8.07060
3346.05933	8.15665
3344.13076	8.21805
3342.20220	8.23413
3340.27363	8.19423
3338.34507	8.18016
3336.41650	8.23184
3334.48794	8.26774
3332.55937	8.18486
3330.63081	8.07482
3328.70225	8.07259
3326.77368	8.19215
3324.84512	8.33509
3322.91655	8.35274
3320.98799	8.27934
3319.05942	8.17544
3317.13086	8.09868
3315.20229	8.12084
3313.27373	8.22660
3311.34517	8.31856
3309.41660	8.30749
3307.48804	8.24619
3305.55947	8.27640
3303.63091	8.42503
3301.70234	8.53079
3299.77378	8.48364
3297.84521	8.39099
3295.91665	8.39859
3293.98809	8.39783
3292.05952	8.29001
3290.13096	8.20240
3288.20239	8.16640
3286.27383	8.14397
3284.34526	8.12225
3282.41670	8.11853
3280.48813	8.09261
3278.55957	8.06690
3276.63101	8.18869
3274.70244	8.43640
3272.77388	8.43701
3270.84531	8.19069
3268.91675	8.10859
3266.98818	8.17957
3265.05962	8.21505
3263.13105	8.22531
3261.20249	8.26573
3259.27393	8.29095
3257.34536	8.31858
3255.41680	8.42320
3253.48823	8.52865
3251.55967	8.45580
3249.63110	8.30557
3247.70254	8.30914
3245.77397	8.43390
3243.84541	8.50691
3241.91685	8.48782
3239.98828	8.46587
3238.05972	8.45951
3236.13115	8.37900
3234.20259	8.22714
3232.27402	8.14319
3230.34546	8.18690
3228.41689	8.19625
3226.48833	8.08428
3224.55977	8.03692
3222.63120	8.08228
3220.70264	8.07285
3218.77407	8.06318
3216.84551	8.12654
3214.91694	8.14316
3212.98838	8.08385
3211.05981	8.04064
3209.13125	8.00976
3207.20269	7.96858
3205.27412	7.95232
3203.34556	7.95653
3201.41699	7.93879
3199.48843	7.86220
3197.55986	7.75853
3195.63130	7.70086
3193.70273	7.67860
3191.77417	7.66627
3189.84561	7.65934
3187.91704	7.60905
3185.98848	7.51066
3184.05991	7.41686
3182.13135	7.34975
3180.20278	7.30472
3178.27422	7.27895
3176.34565	7.26380
3174.41709	7.21846
3172.48853	7.13241
3170.55996	7.05784
3168.63140	7.01007
3166.70283	6.94922
3164.77427	6.89033
3162.84570	6.86556
3160.91714	6.81950
3158.98857	6.72627
3157.06001	6.63960
3155.13145	6.57538
3153.20288	6.50397
3151.27432	6.41435
3149.34575	6.32928
3147.41719	6.26751
3145.48862	6.21581
3143.56006	6.14889
3141.63149	6.06013
3139.70293	5.96879
3137.77437	5.90186
3135.84580	5.84843
3133.91724	5.78351
3131.98867	5.71147
3130.06011	5.64451
3128.13154	5.58386
3126.20298	5.51848
3124.27441	5.44582
3122.34585	5.37303
3120.41729	5.29947
3118.48872	5.22606
3116.56016	5.15372
3114.63159	5.07598
3112.70303	4.99502
3110.77446	4.92158
3108.84590	4.85816
3106.91733	4.79740
3104.98877	4.73235
3103.06021	4.66399
3101.13164	4.59417
3099.20308	4.52552
3097.27451	4.45993
3095.34595	4.39510
3093.41738	4.32982
3091.48882	4.26174
3089.56025	4.19183
3087.63169	4.12524
3085.70312	4.06340
3083.77456	4.00341
3081.84600	3.94183
3079.91743	3.87885
3077.98887	3.81617
3076.06030	3.75346
3074.13174	3.69114
3072.20317	3.63090
3070.27461	3.57406
3068.34604	3.51988
3066.41748	3.46445
3064.48892	3.40662
3062.56035	3.34987
3060.63179	3.29469
3058.70322	3.23929
3056.77466	3.18560
3054.84609	3.13397
3052.91753	3.08096
3050.98896	3.02719
3049.06040	2.97556
3047.13184	2.92609
3045.20327	2.87721
3043.27471	2.82841
3041.34614	2.78010
3039.41758	2.73252
3037.48901	2.68585
3035.56045	2.63977
3033.63188	2.59447
3031.70332	2.55026
3029.77476	2.50643
3027.84619	2.46278
3025.91763	2.41937
3023.98906	2.37669
3022.06050	2.33570
3020.13193	2.29588
3018.20337	2.25588
3016.27480	2.21542
3014.34624	2.17568
3012.41768	2.13727
3010.48911	2.09948
3008.56055	2.06242
3006.63198	2.02628
3004.70342	1.99025
3002.77485	1.95463
3000.84629	1.92017
2998.91772	1.88624
2996.98916	1.85215
2995.06060	1.81837
2993.13203	1.78541
2991.20347	1.75304
2989.27490	1.72138
2987.34634	1.69076
2985.41777	1.66054
2983.48921	1.63007
2981.56064	1.59964
2979.63208	1.56972
2977.70352	1.54042
2975.77495	1.51195
2973.84639	1.48417
2971.91782	1.45645
2969.98926	1.42862
2968.06069	1.40087
2966.13213	1.37381
2964.20356	1.34818
2962.27500	1.32343
2960.34644	1.29865
2958.41787	1.27408
2956.48931	1.25060
2954.56074	1.22803
2952.63218	1.20552
2950.70361	1.18275
2948.77505	1.15975
2946.84648	1.13740
2944.91792	1.11649
2942.98936	1.09622
2941.06079	1.07549
2939.13223	1.05447
2937.20366	1.03401
2935.27510	1.01438
2933.34653	0.99523
2931.41797	0.97614
2929.48940	0.95706
2927.56084	0.93888
2925.63228	0.92189
2923.70371	0.90528
2921.77515	0.88889
2919.84658	0.87295
2917.91802	0.85733
2915.98945	0.84194
2914.06089	0.82689
2912.13232	0.81244
2910.20376	0.79877
2908.27520	0.78557
2906.34663	0.77240
2904.41807	0.75877
2902.48950	0.74492
2900.56094	0.73189
2898.63237	0.71965
2896.70381	0.70744
2894.77524	0.69512
2892.84668	0.68310
2890.91812	0.67152
2888.98955	0.66022
2887.06099	0.64922
2885.13242	0.63846
2883.20386	0.62755
2881.27529	0.61646
2879.34673	0.60537
2877.41816	0.59445
2875.48960	0.58396
2873.56104	0.57394
2871.63247	0.56428
2869.70391	0.55468
2867.77534	0.54491
2865.84678	0.53511
2863.91821	0.52555
2861.98965	0.51621
2860.06108	0.50700
2858.13252	0.49806
2856.20396	0.48941
2854.27539	0.48098
2852.34683	0.47298
2850.41826	0.46557
2848.48970	0.45867
2846.56113	0.45179
2844.63257	0.44467
2842.70400	0.43795
2840.77544	0.43204
2838.84687	0.42652
2836.91831	0.42092
2834.98975	0.41519
2833.06118	0.40955
2831.13262	0.40401
2829.20405	0.39841
2827.27549	0.39272
2825.34692	0.38699
2823.41836	0.38121
2821.48979	0.37558
2819.56123	0.37026
2817.63267	0.36496
2815.70410	0.35952
2813.77554	0.35415
2811.84697	0.34889
2809.91841	0.34367
2807.98984	0.33858
2806.06128	0.33366
2804.13271	0.32901
2802.20415	0.32446
2800.27559	0.31985
2798.34702	0.31543
2796.41846	0.31123
2794.48989	0.30688
2792.56133	0.30240
2790.63276	0.29812
2788.70420	0.29406
2786.77563	0.28996
2784.84707	0.28590
2782.91851	0.28205
2780.98994	0.27845
2779.06138	0.27496
2777.13281	0.27140
2775.20425	0.26783
2773.27568	0.26433
2771.34712	0.26087
2769.41855	0.25743
2767.48999	0.25405
2765.56143	0.25078
2763.63286	0.24770
2761.70430	0.24489
2759.77573	0.24204
2757.84717	0.23895
2755.91860	0.23594
2753.99004	0.23309
2752.06147	0.23031
2750.13291	0.22757
2748.20435	0.22480
2746.27578	0.22219
2744.34722	0.21985
2742.41865	0.21750
2740.49009	0.21506
2738.56152	0.21267
2736.63296	0.21032
2734.70439	0.20805
2732.77583	0.20586
2730.84727	0.20358
2728.91870	0.20129
2726.99014	0.19910
2725.06157	0.19701
2723.13301	0.19513
2721.20444	0.19339
2719.27588	0.19166
2717.34731	0.18998
2715.41875	0.18845
2713.49019	0.18692
2711.56162	0.18523
2709.63306	0.18350
2707.70449	0.18183
2705.77593	0.18022
2703.84736	0.17872
2701.91880	0.17742
2699.99023	0.17619
2698.06167	0.17476
2696.13311	0.17312
2694.20454	0.17144
2692.27598	0.17004
2690.34741	0.16899
2688.41885	0.16799
2686.49028	0.16680
2684.56172	0.16550
2682.63315	0.16437
2680.70459	0.16347
2678.77603	0.16257
2676.84746	0.16156
2674.91890	0.16057
2672.99033	0.15963
2671.06177	0.15865
2669.13320	0.15765
2667.20464	0.15675
2665.27607	0.15602
2663.34751	0.15547
2661.41895	0.15491
2659.49038	0.15417
2657.56182	0.15334
2655.63325	0.15252
2653.70469	0.15177
2651.77612	0.15110
2649.84756	0.15059
2647.91899	0.15020
2645.99043	0.14975
2644.06187	0.14926
2642.13330	0.14885
2640.20474	0.14849
2638.27617	0.14815
2636.34761	0.14780
2634.41904	0.14737
2632.49048	0.14693
2630.56191	0.14659
2628.63335	0.14629
2626.70479	0.14606
2624.77622	0.14592
2622.84766	0.14577
2620.91909	0.14544
2618.99053	0.14506
2617.06196	0.14495
2615.13340	0.14507
2613.20483	0.14519
2611.27627	0.14527
2609.34771	0.14530
2607.41914	0.14526
2605.49058	0.14518
2603.56201	0.14513
2601.63345	0.14521
2599.70488	0.14538
2597.77632	0.14563
2595.84775	0.14583
2593.91919	0.14588
2591.99062	0.14605
2590.06206	0.14639
2588.13350	0.14670
2586.20493	0.14701
2584.27637	0.14736
2582.34780	0.14767
2580.41924	0.14800
2578.49067	0.14830
2576.56211	0.14862
2574.63354	0.14908
2572.70498	0.14946
2570.77642	0.14969
2568.84785	0.15002
2566.91929	0.15063
2564.99072	0.15129
2563.06216	0.15176
2561.13359	0.15218
2559.20503	0.15269
2557.27646	0.15327
2555.34790	0.15393
2553.41934	0.15464
2551.49077	0.15523
2549.56221	0.15575
2547.63364	0.15639
2545.70508	0.15718
2543.77651	0.15793
2541.84795	0.15856
2539.91938	0.15926
2537.99082	0.16002
2536.06226	0.16066
2534.13369	0.16123
2532.20513	0.16186
2530.27656	0.16250
2528.34800	0.16314
2526.41943	0.16400
2524.49087	0.16503
2522.56230	0.16599
2520.63374	0.16688
2518.70518	0.16775
2516.77661	0.16859
2514.84805	0.16941
2512.91948	0.17025
2510.99092	0.17108
2509.06235	0.17189
2507.13379	0.17280
2505.20522	0.17372
2503.27666	0.17455
2501.34810	0.17533
2499.41953	0.17615
2497.49097	0.17705
2495.56240	0.17796
2493.63384	0.17887
2491.70527	0.17985
2489.77671	0.18088
2487.84814	0.18190
2485.91958	0.18285
2483.99102	0.18378
2482.06245	0.18488
2480.13389	0.18603
2478.20532	0.18695
2476.27676	0.18767
2474.34819	0.18850
2472.41963	0.18955
2470.49106	0.19064
2468.56250	0.19164
2466.63394	0.19257
2464.70537	0.19350
2462.77681	0.19446
2460.84824	0.19546
2458.91968	0.19647
2456.99111	0.19756
2455.06255	0.19866
2453.13398	0.19961
2451.20542	0.20054
2449.27686	0.20163
2447.34829	0.20277
2445.41973	0.20382
2443.49116	0.20482
2441.56260	0.20582
2439.63403	0.20676
2437.70547	0.20781
2435.77690	0.20899
2433.84834	0.21008
2431.91978	0.21109
2429.99121	0.21220
2428.06265	0.21343
2426.13408	0.21477
2424.20552	0.21612
2422.27695	0.21725
2420.34839	0.21827
2418.41982	0.21944
2416.49126	0.22070
2414.56270	0.22198
2412.63413	0.22322
2410.70557	0.22433
2408.77700	0.22541
2406.84844	0.22659
2404.91987	0.22795
2402.99131	0.22923
2401.06274	0.23030
2399.13418	0.23138
2397.20562	0.23260
2395.27705	0.23388
2393.34849	0.23518
2391.41992	0.23660
2389.49136	0.23826
2387.56279	0.24022
2385.63423	0.24276
2383.70566	0.24639
2381.77710	0.25129
2379.84854	0.25723
2377.91997	0.26404
2375.99141	0.27181
2374.06284	0.28083
2372.13428	0.29120
2370.20571	0.30227
2368.27715	0.31280
2366.34858	0.32273
2364.42002	0.33285
2362.49146	0.34218
2360.56289	0.34844
2358.63433	0.35068
2356.70576	0.34798
2354.77720	0.33994
2352.84863	0.32935
2350.92007	0.31928
2348.99150	0.31322
2347.06294	0.31358
2345.13437	0.32100
2343.20581	0.33179
2341.27725	0.33875
2339.34868	0.34079
2337.42012	0.34055
2335.49155	0.34023
2333.56299	0.34005
2331.63442	0.33981
2329.70586	0.33967
2327.77729	0.33916
2325.84873	0.33775
2323.92017	0.33567
2321.99160	0.33311
2320.06304	0.33015
2318.13447	0.32739
2316.20591	0.32555
2314.27734	0.32469
2312.34878	0.32441
2310.42021	0.32415
2308.49165	0.32349
2306.56309	0.32249
2304.63452	0.32160
2302.70596	0.32146
2300.77739	0.32218
2298.84883	0.32315
2296.92026	0.32416
2294.99170	0.32510
2293.06313	0.32576
2291.13457	0.32631
2289.20601	0.32705
2287.27744	0.32801
2285.34888	0.32913
2283.42031	0.33049
2281.49175	0.33232
2279.56318	0.33456
2277.63462	0.33687
2275.70605	0.33920
2273.77749	0.34154
2271.84893	0.34378
2269.92036	0.34587
2267.99180	0.34793
2266.06323	0.35001
2264.13467	0.35197
2262.20610	0.35390
2260.27754	0.35589
2258.34897	0.35799
2256.42041	0.36009
2254.49185	0.36203
2252.56328	0.36397
2250.63472	0.36600
2248.70615	0.36802
2246.77759	0.37003
2244.84902	0.37219
2242.92046	0.37442
2240.99189	0.37654
2239.06333	0.37860
2237.13477	0.38076
2235.20620	0.38301
2233.27764	0.38528
2231.34907	0.38758
2229.42051	0.38991
2227.49194	0.39219
2225.56338	0.39438
2223.63481	0.39662
2221.70625	0.39900
2219.77769	0.40142
2217.84912	0.40365
2215.92056	0.40566
2213.99199	0.40764
2212.06343	0.40979
2210.13486	0.41205
2208.20630	0.41422
2206.27773	0.41623
2204.34917	0.41829
2202.42061	0.42049
2200.49204	0.42262
2198.56348	0.42458
2196.63491	0.42652
2194.70635	0.42857
2192.77778	0.43063
2190.84922	0.43256
2188.92065	0.43439
2186.99209	0.43628
2185.06353	0.43828
2183.13496	0.44023
2181.20640	0.44198
2179.27783	0.44352
2177.34927	0.44508
2175.42070	0.44667
2173.49214	0.44814
2171.56357	0.44957
2169.63501	0.45101
2167.70645	0.45226
2165.77788	0.45340
2163.84932	0.45460
2161.92075	0.45575
2159.99219	0.45690
2158.06362	0.45810
2156.13506	0.45934
2154.20649	0.46049
2152.27793	0.46130
2150.34937	0.46186
2148.42080	0.46250
2146.49224	0.46318
2144.56367	0.46368
2142.63511	0.46408
2140.70654	0.46455
2138.77798	0.46500
2136.84941	0.46531
2134.92085	0.46549
2132.99229	0.46547
2131.06372	0.46526
2129.13516	0.46509
2127.20659	0.46501
2125.27803	0.46489
2123.34946	0.46464
2121.42090	0.46422
2119.49233	0.46360
2117.56377	0.46290
2115.63521	0.46225
2113.70664	0.46155
2111.77808	0.46071
2109.84951	0.45969
2107.92095	0.45854
2105.99238	0.45746
2104.06382	0.45640
2102.13525	0.45507
2100.20669	0.45363
2098.27812	0.45231
2096.34956	0.45102
2094.42100	0.44964
2092.49243	0.44812
2090.56387	0.44640
2088.63530	0.44452
2086.70674	0.44274
2084.77817	0.44104
2082.84961	0.43917
2080.92104	0.43710
2078.99248	0.43499
2077.06392	0.43291
2075.13535	0.43086
2073.20679	0.42871
2071.27822	0.42646
2069.34966	0.42419
2067.42109	0.42192
2065.49253	0.41973
2063.56396	0.41747
2061.63540	0.41498
2059.70684	0.41242
2057.77827	0.40993
2055.84971	0.40742
2053.92114	0.40482
2051.99258	0.40216
2050.06401	0.39955
2048.13545	0.39704
2046.20688	0.39449
2044.27832	0.39187
2042.34976	0.38915
2040.42119	0.38631
2038.49263	0.38344
2036.56406	0.38067
2034.63550	0.37795
2032.70693	0.37518
2030.77837	0.37240
2028.84980	0.36968
2026.92124	0.36694
2024.99268	0.36406
2023.06411	0.36118
2021.13555	0.35840
2019.20698	0.35559
2017.27842	0.35276
2015.34985	0.35000
2013.42129	0.34734
2011.49272	0.34468
2009.56416	0.34193
2007.63560	0.33912
2005.70703	0.33633
2003.77847	0.33357
2001.84990	0.33081
1999.92134	0.32816
1997.99277	0.32560
1996.06421	0.32300
1994.13564	0.32037
1992.20708	0.31783
1990.27852	0.31535
1988.34995	0.31294
1986.42139	0.31047
1984.49282	0.30787
1982.56426	0.30528
1980.63569	0.30278
1978.70713	0.30039
1976.77856	0.29804
1974.85000	0.29573
1972.92144	0.29354
1970.99287	0.29145
1969.06431	0.28934
1967.13574	0.28722
1965.20718	0.28511
1963.27861	0.28307
1961.35005	0.28107
1959.42148	0.27908
1957.49292	0.27707
1955.56436	0.27510
1953.63579	0.27330
1951.70723	0.27169
1949.77866	0.27008
1947.85010	0.26848
1945.92153	0.26699
1943.99297	0.26556
1942.06440	0.26399
1940.13584	0.26229
1938.20728	0.26074
1936.27871	0.25936
1934.35015	0.25803
1932.42158	0.25675
1930.49302	0.25551
1928.56445	0.25434
1926.63589	0.25324
1924.70732	0.25225
1922.77876	0.25133
1920.85020	0.25029
1918.92163	0.24918
1916.99307	0.24814
1915.06450	0.24723
1913.13594	0.24645
1911.20737	0.24579
1909.27881	0.24506
1907.35024	0.24429
1905.42168	0.24359
1903.49312	0.24298
1901.56455	0.24241
1899.63599	0.24182
1897.70742	0.24129
1895.77886	0.24090
1893.85029	0.24058
1891.92173	0.24014
1889.99316	0.23986
1888.06460	0.23964
1886.13604	0.23925
1884.20747	0.23889
1882.27891	0.23865
1880.35034	0.23847
1878.42178	0.23833
1876.49321	0.23835
1874.56465	0.23841
1872.63608	0.23843
1870.70752	0.23854
1868.77896	0.23901
1866.85039	0.23939
1864.92183	0.23934
1862.99326	0.23932
1861.06470	0.23950
1859.13613	0.23989
1857.20757	0.24031
1855.27900	0.24075
1853.35044	0.24117
1851.42187	0.24165
1849.49331	0.24225
1847.56475	0.24298
1845.63618	0.24380
1843.70762	0.24478
1841.77905	0.24560
1839.85049	0.24600
1837.92192	0.24663
1835.99336	0.24752
1834.06479	0.24847
1832.13623	0.24944
1830.20767	0.25079
1828.27910	0.25233
1826.35054	0.25347
1824.42197	0.25471
1822.49341	0.25593
1820.56484	0.25710
1818.63628	0.25845
1816.70771	0.26008
1814.77915	0.26173
1812.85059	0.26350
1810.92202	0.26556
1808.99346	0.26764
1807.06489	0.26956
1805.13633	0.27144
1803.20776	0.27364
1801.27920	0.27621
1799.35063	0.27913
1797.42207	0.28179
1795.49351	0.28417
1793.56494	0.28682
1791.63638	0.29039
1789.70781	0.29391
1787.77925	0.29650
1785.85068	0.29963
1783.92212	0.30351
1781.99355	0.30761
1780.06499	0.31179
1778.13643	0.31604
1776.20786	0.32000
1774.27930	0.32421
1772.35073	0.33011
1770.42217	0.33670
1768.49360	0.34207
1766.56504	0.34718
1764.63647	0.35246
1762.70791	0.35839
1760.77935	0.36603
1758.85078	0.37311
1756.92222	0.38025
1754.99365	0.38803
1753.06509	0.39481
1751.13652	0.40282
1749.20796	0.41350
1747.27939	0.42437
1745.35083	0.43377
1743.42227	0.44342
1741.49370	0.45394
1739.56514	0.46641
1737.63657	0.47898
1735.70801	0.48978
1733.77944	0.50613
1731.85088	0.52621
1729.92231	0.54208
1727.99375	0.55821
1726.06519	0.57529
1724.13662	0.59381
1722.20806	0.61377
1720.27949	0.63190
1718.35093	0.65304
1716.42236	0.68564
1714.49380	0.71720
1712.56523	0.74204
1710.63667	0.76559
1708.70811	0.79076
1706.77954	0.81956
1704.85098	0.85416
1702.92241	0.88453
1700.99385	0.91368
1699.06528	0.95785
1697.13672	0.99862
1695.20815	1.03997
1693.27959	1.07933
1691.35103	1.10977
1689.42246	1.14476
1687.49390	1.18192
1685.56533	1.21712
1683.63677	1.27187
1681.70820	1.32975
1679.77964	1.36605
1677.85107	1.40002
1675.92251	1.43830
1673.99395	1.48643
1672.06538	1.52960
1670.13682	1.57144
1668.20825	1.62612
1666.27969	1.66869
1664.35112	1.70297
1662.42256	1.74483
1660.49399	1.79266
1658.56543	1.82986
1656.63687	1.86047
1654.70830	1.89066
1652.77974	1.94628
1650.85117	2.00082
1648.92261	2.02110
1646.99404	2.05338
1645.06548	2.08934
1643.13691	2.11067
1641.20835	2.12527
1639.27979	2.14019
1637.35122	2.15071
1635.42266	2.15583
1633.49409	2.15427
1631.56553	2.14442
1629.63696	2.13086
1627.70840	2.10748
1625.77983	2.08147
1623.85127	2.04861
1621.92271	2.00636
1619.99414	1.96751
1618.06558	1.92844
1616.13701	1.87056
1614.20845	1.81115
1612.27988	1.76715
1610.35132	1.72129
1608.42275	1.67031
1606.49419	1.61890
1604.56562	1.57136
1602.63706	1.52481
1600.70850	1.47836
1598.77993	1.43525
1596.85137	1.39446
1594.92280	1.35469
1592.99424	1.31644
1591.06567	1.28105
1589.13711	1.24701
1587.20854	1.21498
1585.27998	1.18541
1583.35142	1.15725
1581.42285	1.13068
1579.49429	1.10749
1577.56572	1.08623
1575.63716	1.05910
1573.70859	1.03464
1571.78003	1.01865
1569.85146	1.00095
1567.92290	0.97997
1565.99434	0.96325
1564.06577	0.94879
1562.13721	0.93634
1560.20864	0.92537
1558.28008	0.90477
1556.35151	0.88621
1554.42295	0.87603
1552.49438	0.86575
1550.56582	0.85523
1548.63726	0.84454
1546.70869	0.83546
1544.78013	0.82753
1542.85156	0.81965
1540.92300	0.81075
1538.99443	0.79816
1537.06587	0.78919
1535.13730	0.78347
1533.20874	0.77664
1531.28018	0.76943
1529.35161	0.76390
1527.42305	0.75831
1525.49448	0.75221
1523.56592	0.74664
1521.63735	0.74086
1519.70879	0.73461
1517.78022	0.72942
1515.85166	0.72412
1513.92310	0.71902
1511.99453	0.71490
1510.06597	0.71121
1508.13740	0.70774
1506.20884	0.70272
1504.28027	0.69802
1502.35171	0.69485
1500.42314	0.69197
1498.49458	0.68901
1496.56602	0.68565
1494.63745	0.68218
1492.70889	0.67923
1490.78032	0.67661
1488.85176	0.67360
1486.92319	0.67045
1484.99463	0.66755
1483.06606	0.66479
1481.13750	0.66199
1479.20894	0.65918
1477.28037	0.65656
1475.35181	0.65411
1473.42324	0.65144
1471.49468	0.64762
1469.56611	0.64398
1467.63755	0.64131
1465.70898	0.63890
1463.78042	0.63629
1461.85186	0.63394
1459.92329	0.63220
1457.99473	0.63035
1456.06616	0.62751
1454.13760	0.62515
1452.20903	0.62365
1450.28047	0.62216
1448.35190	0.62046
1446.42334	0.61856
1444.49478	0.61668
1442.56621	0.61495
1440.63765	0.61342
1438.70908	0.61212
1436.78052	0.61104
1434.85195	0.61002
1432.92339	0.60866
1430.99482	0.60708
1429.06626	0.60540
1427.13770	0.60380
1425.20913	0.60241
1423.28057	0.60113
1421.35200	0.59984
1419.42344	0.59847
1417.49487	0.59689
1415.56631	0.59517
1413.63774	0.59364
1411.70918	0.59220
1409.78062	0.59070
1407.85205	0.58921
1405.92349	0.58787
1403.99492	0.58648
1402.06636	0.58499
1400.13779	0.58365
1398.20923	0.58242
1396.28066	0.58120
1394.35210	0.57991
1392.42354	0.57858
1390.49497	0.57739
1388.56641	0.57632
1386.63784	0.57512
1384.70928	0.57372
1382.78071	0.57243
1380.85215	0.57141
1378.92358	0.57068
1376.99502	0.56995
1375.06646	0.56911
1373.13789	0.56810
1371.20933	0.56700
1369.28076	0.56600
1367.35220	0.56511
1365.42363	0.56431
1363.49507	0.56355
1361.56650	0.56256
1359.63794	0.56143
1357.70937	0.56054
1355.78081	0.55983
1353.85225	0.55903
1351.92368	0.55804
1349.99512	0.55702
1348.06655	0.55610
1346.13799	0.55527
1344.20942	0.55445
1342.28086	0.55367
1340.35229	0.55298
1338.42373	0.55209
1336.49517	0.55108
1334.56660	0.55015
1332.63804	0.54932
1330.70947	0.54862
1328.78091	0.54791
1326.85234	0.54699
1324.92378	0.54591
1322.99521	0.54491
1321.06665	0.54406
1319.13809	0.54326
1317.20952	0.54244
1315.28096	0.54170
1313.35239	0.54094
1311.42383	0.54008
1309.49526	0.53928
1307.56670	0.53868
1305.63813	0.53811
1303.70957	0.53734
1301.78101	0.53648
1299.85244	0.53569
1297.92388	0.53494
1295.99531	0.53414
1294.06675	0.53328
1292.13818	0.53242
1290.20962	0.53181
1288.28105	0.53138
1286.35249	0.53087
1284.42393	0.53038
1282.49536	0.53003
1280.56680	0.52970
1278.63823	0.52925
1276.70967	0.52877
1274.78110	0.52839
1272.85254	0.52808
1270.92397	0.52767
1268.99541	0.52712
1267.06685	0.52655
1265.13828	0.52603
1263.20972	0.52562
1261.28115	0.52532
1259.35259	0.52519
1257.42402	0.52513
1255.49546	0.52494
1253.56689	0.52465
1251.63833	0.52445
1249.70977	0.52431
1247.78120	0.52416
1245.85264	0.52403
1243.92407	0.52383
1241.99551	0.52349
1240.06694	0.52305
1238.13838	0.52260
1236.20981	0.52212
1234.28125	0.52152
1232.35269	0.52085
1230.42412	0.52039
1228.49556	0.52007
1226.56699	0.51958
1224.63843	0.51892
1222.70986	0.51829
1220.78130	0.51774
1218.85273	0.51715
1216.92417	0.51654
1214.99561	0.51597
1213.06704	0.51541
1211.13848	0.51478
1209.20991	0.51406
1207.28135	0.51330
1205.35278	0.51262
1203.42422	0.51208
1201.49565	0.51163
1199.56709	0.51117
1197.63853	0.51065
1195.70996	0.51013
1193.78140	0.50975
1191.85283	0.50942
1189.92427	0.50899
1187.99570	0.50856
1186.06714	0.50827
1184.13857	0.50803
1182.21001	0.50783
1180.28145	0.50778
1178.35288	0.50791
1176.42432	0.50825
1174.49575	0.50876
1172.56719	0.50923
1170.63862	0.50953
1168.71006	0.50971
1166.78149	0.50989
1164.85293	0.51013
1162.92437	0.51025
1160.99580	0.51003
1159.06724	0.50961
1157.13867	0.50904
1155.21011	0.50816
1153.28154	0.50696
1151.35298	0.50564
1149.42441	0.50403
1147.49585	0.50202
1145.56729	0.49982
1143.63872	0.49756
1141.71016	0.49526
1139.78159	0.49298
1137.85303	0.49076
1135.92446	0.48856
1133.99590	0.48638
1132.06733	0.48435
1130.13877	0.48252
1128.21021	0.48094
1126.28164	0.47965
1124.35308	0.47860
1122.42451	0.47771
1120.49595	0.47690
1118.56738	0.47623
1116.63882	0.47579
1114.71025	0.47565
1112.78169	0.47595
1110.85312	0.47663
1108.92456	0.47741
1106.99600	0.47832
1105.06743	0.47941
1103.13887	0.48079
1101.21030	0.48271
1099.28174	0.48509
1097.35317	0.48753
1095.42461	0.49014
1093.49604	0.49360
1091.56748	0.49780
1089.63892	0.50243
1087.71035	0.50776
1085.78179	0.51390
1083.85322	0.52031
1081.92466	0.52626
1079.99609	0.53142
1078.06753	0.53517
1076.13896	0.53662
1074.21040	0.53542
1072.28184	0.53181
1070.35327	0.52632
1068.42471	0.51982
1066.49614	0.51342
1064.56758	0.50758
1062.63901	0.50214
1060.71045	0.49707
1058.78188	0.49252
1056.85332	0.48857
1054.92476	0.48532
1052.99619	0.48261
1051.06763	0.48019
1049.13906	0.47797
1047.21050	0.47595
1045.28193	0.47429
1043.35337	0.47305
1041.42480	0.47216
1039.49624	0.47155
1037.56768	0.47118
1035.63911	0.47099
1033.71055	0.47100
1031.78198	0.47107
1029.85342	0.47119
1027.92485	0.47151
1025.99629	0.47188
1024.06772	0.47241
1022.13916	0.47323
1020.21060	0.47409
1018.28203	0.47494
1016.35347	0.47598
1014.42490	0.47720
1012.49634	0.47845
1010.56777	0.47991
1008.63921	0.48174
1006.71064	0.48370
1004.78208	0.48565
1002.85352	0.48781
1000.92495	0.49045
998.99639	0.49353
997.06782	0.49702
995.13926	0.50091
993.21069	0.50475
991.28213	0.50803
989.35356	0.51057
987.42500	0.51230
985.49644	0.51350
983.56787	0.51452
981.63931	0.51544
979.71074	0.51671
977.78218	0.51871
975.85361	0.52130
973.92505	0.52429
971.99648	0.52766
970.06792	0.53141
968.13936	0.53532
966.21079	0.53930
964.28223	0.54356
962.35366	0.54818
960.42510	0.55320
958.49653	0.55876
956.56797	0.56465
954.63940	0.57053
952.71084	0.57655
950.78228	0.58305
948.85371	0.58975
946.92515	0.59596
944.99658	0.60165
943.06802	0.60726
941.13945	0.61295
939.21089	0.61864
937.28232	0.62427
935.35376	0.63004
933.42520	0.63600
931.49663	0.64185
929.56807	0.64750
927.63950	0.65313
925.71094	0.65932
923.78237	0.66604
921.85381	0.67196
919.92524	0.67731
917.99668	0.68407
916.06812	0.69227
914.13955	0.70032
912.21099	0.70772
910.28242	0.71504
908.35386	0.72343
906.42529	0.73322
904.49673	0.74251
902.56816	0.75026
900.63960	0.75806
898.71104	0.76726
896.78247	0.77793
894.85391	0.78951
892.92534	0.80078
890.99678	0.81126
889.06821	0.82127
887.13965	0.83152
885.21108	0.84296
883.28252	0.85485
881.35396	0.86573
879.42539	0.87598
877.49683	0.88707
875.56826	0.89987
873.63970	0.91299
871.71113	0.92433
869.78257	0.93377
867.85400	0.94262
865.92544	0.95305
863.99687	0.96560
862.06831	0.97803
860.13975	0.98953
858.21118	1.00102
856.28262	1.01265
854.35405	1.02439
852.42549	1.03545
850.49692	1.04565
848.56836	1.05657
846.63979	1.06893
844.71123	1.08186
842.78267	1.09355
840.85410	1.10335
838.92554	1.11325
836.99697	1.12549
835.06841	1.13875
833.13984	1.15143
831.21128	1.16552
829.28271	1.18026
827.35415	1.19017
825.42559	1.19630
823.49702	1.20628
821.56846	1.22055
819.63989	1.23713
817.71133	1.25221
815.78276	1.26281
813.85420	1.27843
811.92563	1.29915
809.99707	1.31208
808.06851	1.32230
806.13994	1.34183
804.21138	1.35512
802.28281	1.35147
800.35425	1.35633
798.42568	1.38711
796.49712	1.42942
794.56855	1.46295
792.63999	1.50024
790.71143	1.55183
788.78286	1.57994
786.85430	1.57006
784.92573	1.56279
782.99717	1.60676
781.06860	1.67537
779.14004	1.68287
777.21147	1.65320
775.28291	1.66875
773.35435	1.75090
771.42578	1.90008
769.49722	1.89172
767.56865	1.75017
765.64009	1.81644
763.71152	2.70515
761.78296	2.14956
759.85439	1.58220
757.92583	1.56660
755.99727	2.05167
754.06870	4.52441
752.14014	2.08758
750.21157	1.49393
748.28301	1.30312
746.35444	1.30260
744.42588	1.55831
742.49731	1.62052
740.56875	1.22320
738.64019	1.13080
736.71162	1.30425
734.78306	1.21777
732.85449	0.93172
730.92593	0.73484
728.99736	0.51808
727.06880	0.36411
725.14023	0.23685
723.21167	0.06064
721.28311	-0.17388
719.35454	-0.05457
717.42598	0.09324
715.49741	0.13858
713.56885	0.17944
711.64028	0.26891
709.71172	0.41204
707.78315	0.59551
705.85459	0.74973
703.92603	0.62459
701.99746	0.52065
700.06890	0.55289
698.14033	0.56139
696.21177	0.50510
694.28320	0.50911
692.35464	0.55508
690.42607	0.54542
688.49751	0.48719
686.56895	0.46995
684.64038	0.44662
682.71182	0.41705
680.78325	0.45737
678.85469	0.46876
676.92612	0.41654
674.99756	0.43885
673.06899	0.57802
671.14043	0.60045
669.21187	0.46383
667.28330	0.40547
665.35474	0.38982
663.42617	0.39939
661.49761	0.44102
659.56904	0.50152
657.64048	0.54118
655.71191	0.49004
653.78335	0.46023
651.85479	0.54814
649.92622	0.67299
647.99766	0.65819
646.06909	0.45548
644.14053	0.32254
642.21196	0.30752
640.28340	0.32959
638.35483	0.36256
636.42627	0.46645
634.49771	0.62114
632.56914	0.61215
630.64058	0.42163
628.71201	0.29430
626.78345	0.24055
624.85488	0.23845
622.92632	0.28813
620.99775	0.35900
619.06919	0.41255
617.14062	0.46721
615.21206	0.52867
613.28350	0.47494
611.35493	0.38808
609.42637	0.42376
607.49780	0.53058
605.56924	0.50065
603.64067	0.41369
601.71211	0.36221
599.78354	0.36074
597.85498	0.44850
595.92642	0.66255
593.99785	0.70533
592.06929	0.49824
590.14072	0.37042
588.21216	0.31046
586.28359	0.31425
584.35503	0.35903
582.42646	0.40831
580.49790	0.43941
578.56934	0.41554
576.64077	0.37588
574.71221	0.39034
572.78364	0.45269
570.85508	0.47392
568.92651	0.43567
566.99795	0.34679
565.06938	0.25416
563.14082	0.22758
561.21226	0.24912
559.28369	0.26987
557.35513	0.29461
555.42656	0.33906
553.49800	0.36622
551.56943	0.34155
549.64087	0.30950
547.71230	0.33047
545.78374	0.37276
543.85518	0.39141
541.92661	0.40054
539.99805	0.40093
538.06948	0.43042
536.14092	0.47349
534.21235	0.41104
532.28379	0.32319
530.35522	0.30222
528.42666	0.31529
526.49810	0.30604
524.56953	0.28588
522.64097	0.28110
520.71240	0.28701
518.78384	0.27566
516.85527	0.23492
514.92671	0.20235
512.99814	0.19134
511.06958	0.17286
509.14102	0.16843
507.21245	0.22351
505.28389	0.28729
503.35532	0.26702
501.42676	0.23457
499.49819	0.28050
