3997.91411	0.07217
3995.98555	0.07284
3994.05698	0.07346
3992.12842	0.07345
3990.19985	0.07321
3988.27129	0.07299
3986.34272	0.07287
3984.41416	0.07314
3982.48560	0.07372
3980.55703	0.07429
3978.62847	0.07466
3976.69990	0.07479
3974.77134	0.07499
3972.84277	0.07543
3970.91421	0.07575
3968.98564	0.07568
3967.05708	0.07539
3965.12852	0.07531
3963.19995	0.07573
3961.27139	0.07623
3959.34282	0.07640
3957.41426	0.07635
3955.48569	0.07613
3953.55713	0.07598
3951.62856	0.07619
3949.70000	0.07657
3947.77144	0.07694
3945.84287	0.07710
3943.91431	0.07687
3941.98574	0.07649
3940.05718	0.07632
3938.12861	0.07648
3936.20005	0.07669
3934.27148	0.07687
3932.34292	0.07714
3930.41436	0.07746
3928.48579	0.07757
3926.55723	0.07735
3924.62866	0.07732
3922.70010	0.07755
3920.77153	0.07774
3918.84297	0.07788
3916.91440	0.07759
3914.98584	0.07697
3913.05728	0.07651
3911.12871	0.07615
3909.20015	0.07602
3907.27158	0.07631
3905.34302	0.07690
3903.41445	0.07786
3901.48589	0.07862
3899.55732	0.07831
3897.62876	0.07765
3895.70020	0.07721
3893.77163	0.07697
3891.84307	0.07709
3889.91450	0.07724
3887.98594	0.07711
3886.05737	0.07745
3884.12881	0.07807
3882.20024	0.07817
3880.27168	0.07833
3878.34312	0.07840
3876.41455	0.07805
3874.48599	0.07824
3872.55742	0.07885
3870.62886	0.07905
3868.70029	0.07933
3866.77173	0.07993
3864.84316	0.08048
3862.91460	0.08071
3860.98604	0.08042
3859.05747	0.08033
3857.12891	0.08070
3855.20034	0.08105
3853.27178	0.08161
3851.34321	0.08294
3849.41465	0.08331
3847.48608	0.08305
3845.55752	0.08317
3843.62896	0.08385
3841.70039	0.08515
3839.77183	0.08718
3837.84326	0.08915
3835.91470	0.08917
3833.98613	0.08798
3832.05757	0.08760
3830.12900	0.08805
3828.20044	0.08883
3826.27187	0.08999
3824.34331	0.09119
3822.41475	0.09241
3820.48618	0.09438
3818.55762	0.09552
3816.62905	0.09532
3814.70049	0.09556
3812.77192	0.09589
3810.84336	0.09619
3808.91479	0.09723
3806.98623	0.09909
3805.05767	0.10080
3803.12910	0.10209
3801.20054	0.10412
3799.27197	0.10597
3797.34341	0.10678
3795.41484	0.10743
3793.48628	0.10746
3791.55771	0.10755
3789.62915	0.10844
3787.70059	0.10962
3785.77202	0.11105
3783.84346	0.11277
3781.91489	0.11430
3779.98633	0.11606
3778.05776	0.11841
3776.12920	0.11995
3774.20063	0.12083
3772.27207	0.12233
3770.34351	0.12463
3768.41494	0.12715
3766.48638	0.12897
3764.55781	0.13043
3762.62925	0.13203
3760.70068	0.13431
3758.77212	0.13766
3756.84355	0.14070
3754.91499	0.14261
3752.98643	0.14477
3751.05786	0.14893
3749.12930	0.15444
3747.20073	0.15708
3745.27217	0.15848
3743.34360	0.16176
3741.41504	0.16554
3739.48647	0.16845
3737.55791	0.17198
3735.62935	0.17760
3733.70078	0.18452
3731.77222	0.18941
3729.84365	0.19289
3727.91509	0.19663
3725.98652	0.20197
3724.05796	0.20916
3722.12939	0.21661
3720.20083	0.22349
3718.27227	0.22980
3716.34370	0.23621
3714.41514	0.24340
3712.48657	0.25269
3710.55801	0.26650
3708.62944	0.28186
3706.70088	0.29390
3704.77231	0.30492
3702.84375	0.31795
3700.91519	0.33506
3698.98662	0.35385
3697.05806	0.37148
3695.12949	0.39015
3693.20093	0.40992
3691.27236	0.43127
3689.34380	0.45981
3687.41523	0.49591
3685.48667	0.52676
3683.55811	0.55256
3681.62954	0.58031
3679.70098	0.61202
3677.77241	0.64564
3675.84385	0.68588
3673.91528	0.74103
3671.98672	0.78496
3670.05815	0.82365
3668.12959	0.87840
3666.20103	0.92735
3664.27246	0.96709
3662.34390	1.01014
3660.41533	1.05762
3658.48677	1.10441
3656.55820	1.15346
3654.62964	1.20872
3652.70107	1.25507
3650.77251	1.29447
3648.84395	1.35099
3646.91538	1.42301
3644.98682	1.47351
3643.05825	1.51157
3641.12969	1.55198
3639.20112	1.59714
3637.27256	1.64209
3635.34399	1.68574
3633.41543	1.72959
3631.48687	1.77004
3629.55830	1.81048
3627.62974	1.86577
3625.70117	1.91846
3623.77261	1.95241
3621.84404	1.98345
3619.91548	2.01918
3617.98691	2.06475
3616.05835	2.11019
3614.12979	2.14784
3612.20122	2.18731
3610.27266	2.22694
3608.34409	2.26692
3606.41553	2.31038
3604.48696	2.35005
3602.55840	2.38401
3600.62983	2.42136
3598.70127	2.46309
3596.77271	2.50278
3594.84414	2.54248
3592.91558	2.58478
3590.98701	2.62479
3589.05845	2.66117
3587.12988	2.70502
3585.20132	2.75471
3583.27275	2.79580
3581.34419	2.83311
3579.41562	2.87455
3577.48706	2.91816
3575.55850	2.96001
3573.62993	3.00271
3571.70137	3.04474
3569.77280	3.08376
3567.84424	3.12447
3565.91567	3.17550
3563.98711	3.22737
3562.05854	3.27090
3560.12998	3.31252
3558.20142	3.35501
3556.27285	3.39914
3554.34429	3.44265
3552.41572	3.48756
3550.48716	3.53613
3548.55859	3.58271
3546.63003	3.62572
3544.70146	3.67172
3542.77290	3.72080
3540.84434	3.76907
3538.91577	3.81619
3536.98721	3.86334
3535.05864	3.91226
3533.13008	3.95855
3531.20151	4.00260
3529.27295	4.05052
3527.34438	4.10396
3525.41582	4.15548
3523.48726	4.20352
3521.55869	4.25280
3519.63013	4.29894
3517.70156	4.34371
3515.77300	4.39171
3513.84443	4.44013
3511.91587	4.48595
3509.98730	4.53295
3508.05874	4.58491
3506.13018	4.63663
3504.20161	4.68337
3502.27305	4.72806
3500.34448	4.77276
3498.41592	4.81727
3496.48735	4.86654
3494.55879	4.92080
3492.63022	4.97285
3490.70166	5.01707
3488.77310	5.05087
3486.84453	5.08230
3484.91597	5.12702
3482.98740	5.18737
3481.05884	5.25166
3479.13027	5.30762
3477.20171	5.35659
3475.27314	5.40715
3473.34458	5.45690
3471.41602	5.49758
3469.48745	5.53595
3467.55889	5.58146
3465.63032	5.63027
3463.70176	5.68237
3461.77319	5.73330
3459.84463	5.77709
3457.91606	5.82390
3455.98750	5.88560
3454.05894	5.95110
3452.13037	6.00190
3450.20181	6.04092
3448.27324	6.08330
3446.34468	6.14067
3444.41611	6.19351
3442.48755	6.22529
3440.55898	6.25990
3438.63042	6.32056
3436.70186	6.38739
3434.77329	6.44058
3432.84473	6.48912
3430.91616	6.53223
3428.98760	6.57529
3427.05903	6.61616
3425.13047	6.64629
3423.20190	6.68233
3421.27334	6.76002
3419.34478	6.86899
3417.41621	6.95500
3415.48765	6.99757
3413.55908	7.02437
3411.63052	7.06693
3409.70195	7.10658
3407.77339	7.14022
3405.84482	7.17566
3403.91626	7.22744
3401.98770	7.27924
3400.05913	7.27847
3398.13057	7.26004
3396.20200	7.30315
3394.27344	7.40784
3392.34487	7.45480
3390.41631	7.42816
3388.48774	7.44349
3386.55918	7.52292
3384.63062	7.59508
3382.70205	7.61957
3380.77349	7.61678
3378.84492	7.64458
3376.91636	7.71534
3374.98779	7.75546
3373.05923	7.78624
3371.13066	7.84220
3369.20210	7.86690
3367.27354	7.81718
3365.34497	7.79560
3363.41641	7.86340
3361.48784	7.90084
3359.55928	7.88171
3357.63071	7.86577
3355.70215	7.86196
3353.77358	7.87124
3351.84502	7.91770
3349.91646	7.96314
3347.98789	7.95858
3346.05933	7.95887
3344.13076	8.04029
3342.20220	8.16316
3340.27363	8.16726
3338.34507	8.05510
3336.41650	7.99056
3334.48794	8.06137
3332.55937	8.14534
3330.63081	8.14052
3328.70225	8.11268
3326.77368	8.10688
3324.84512	8.15150
3322.91655	8.18220
3320.98799	8.14988
3319.05942	8.16067
3317.13086	8.25206
3315.20229	8.23068
3313.27373	8.11308
3311.34517	8.11467
3309.41660	8.13468
3307.48804	8.05499
3305.55947	8.02722
3303.63091	8.10225
3301.70234	8.14860
3299.77378	8.11725
3297.84521	8.05980
3295.91665	8.03251
3293.98809	8.09105
3292.05952	8.21378
3290.13096	8.31009
3288.20239	8.28893
3286.27383	8.15722
3284.34526	8.05195
3282.41670	8.01355
3280.48813	8.01092
3278.55957	8.05456
3276.63101	8.10411
3274.70244	8.15705
3272.77388	8.21563
3270.84531	8.24162
3268.91675	8.21512
3266.98818	8.15097
3265.05962	8.10269
3263.13105	8.09664
3261.20249	8.13360
3259.27393	8.14728
3257.34536	8.18867
3255.41680	8.31660
3253.48823	8.38686
3251.55967	8.36470
3249.63110	8.37080
3247.70254	8.40760
3245.77397	8.38472
3243.84541	8.32534
3241.91685	8.27296
3239.98828	8.22130
3238.05972	8.19011
3236.13115	8.15858
3234.20259	8.10591
3232.27402	8.10961
3230.34546	8.20772
3228.41689	8.30804
3226.48833	8.32163
3224.55977	8.26577
3222.63120	8.22880
3220.70264	8.21616
3218.77407	8.13051
3216.84551	7.99887
3214.91694	7.97245
3212.98838	8.01664
3211.05981	7.98878
3209.13125	7.94374
3207.20269	7.95365
3205.27412	8.00640
3203.34556	8.00450
3201.41699	7.88565
3199.48843	7.79200
3197.55986	7.76111
3195.63130	7.71143
3193.70273	7.64340
3191.77417	7.61220
3189.84561	7.62268
3187.91704	7.57649
3185.98848	7.48514
3184.05991	7.43901
3182.13135	7.38964
3180.20278	7.31024
3178.27422	7.24404
3176.34565	7.18751
3174.41709	7.13051
3172.48853	7.08694
3170.55996	7.04288
3168.63140	7.00169
3166.70283	6.98314
3164.77427	6.93788
3162.84570	6.85499
3160.91714	6.78952
3158.98857	6.73397
3157.06001	6.65204
3155.13145	6.56321
3153.20288	6.49782
3151.27432	6.44522
3149.34575	6.37709
3147.41719	6.29203
3145.48862	6.21269
3143.56006	6.14676
3141.63149	6.08852
3139.70293	6.02906
3137.77437	5.96124
3135.84580	5.88237
3133.91724	5.79907
3131.98867	5.72307
3130.06011	5.65318
3128.13154	5.58239
3126.20298	5.50933
3124.27441	5.43609
3122.34585	5.36211
3120.41729	5.28702
3118.48872	5.21400
3116.56016	5.14569
3114.63159	5.08091
3112.70303	5.01766
3110.77446	4.95471
3108.84590	4.88847
3106.91733	4.81875
3104.98877	4.74742
3103.06021	4.67416
3101.13164	4.60108
3099.20308	4.53087
3097.27451	4.46274
3095.34595	4.39687
3093.41738	4.33268
3091.48882	4.26747
3089.56025	4.20311
3087.63169	4.14045
3085.70312	4.07785
3083.77456	4.01735
3081.84600	3.95839
3079.91743	3.89704
3077.98887	3.83335
3076.06030	3.76943
3074.13174	3.70779
3072.20317	3.64880
3070.27461	3.59027
3068.34604	3.53303
3066.41748	3.47782
3064.48892	3.42360
3062.56035	3.36969
3060.63179	3.31492
3058.70322	3.25855
3056.77466	3.20152
3054.84609	3.14675
3052.91753	3.09552
3050.98896	3.04541
3049.06040	2.99442
3047.13184	2.94349
3045.20327	2.89377
3043.27471	2.84516
3041.34614	2.79752
3039.41758	2.75031
3037.48901	2.70300
3035.56045	2.65622
3033.63188	2.61068
3031.70332	2.56587
3029.77476	2.52156
3027.84619	2.47813
3025.91763	2.43530
3023.98906	2.39340
3022.06050	2.35270
3020.13193	2.31224
3018.20337	2.27213
3016.27480	2.23287
3014.34624	2.19380
3012.41768	2.15500
3010.48911	2.11736
3008.56055	2.08069
3006.63198	2.04404
3004.70342	2.00746
3002.77485	1.97174
3000.84629	1.93656
2998.91772	1.90164
2996.98916	1.86799
2995.06060	1.83553
2993.13203	1.80344
2991.20347	1.77201
2989.27490	1.74131
2987.34634	1.71071
2985.41777	1.67987
2983.48921	1.64960
2981.56064	1.62055
2979.63208	1.59162
2977.70352	1.56231
2975.77495	1.53369
2973.84639	1.50597
2971.91782	1.47865
2969.98926	1.45179
2968.06069	1.42535
2966.13213	1.39904
2964.20356	1.37336
2962.27500	1.34857
2960.34644	1.32420
2958.41787	1.30052
2956.48931	1.27746
2954.56074	1.25467
2952.63218	1.23256
2950.70361	1.21091
2948.77505	1.18930
2946.84648	1.16790
2944.91792	1.14678
2942.98936	1.12588
2941.06079	1.10512
2939.13223	1.08466
2937.20366	1.06481
2935.27510	1.04551
2933.34653	1.02677
2931.41797	1.00868
2929.48940	0.99071
2927.56084	0.97255
2925.63228	0.95519
2923.70371	0.93932
2921.77515	0.92365
2919.84658	0.90718
2917.91802	0.89072
2915.98945	0.87445
2914.06089	0.85825
2912.13232	0.84301
2910.20376	0.82873
2908.27520	0.81459
2906.34663	0.80053
2904.41807	0.78672
2902.48950	0.77319
2900.56094	0.76001
2898.63237	0.74724
2896.70381	0.73501
2894.77524	0.72313
2892.84668	0.71122
2890.91812	0.69929
2888.98955	0.68762
2887.06099	0.67634
2885.13242	0.66544
2883.20386	0.65462
2881.27529	0.64376
2879.34673	0.63307
2877.41816	0.62254
2875.48960	0.61210
2873.56104	0.60181
2871.63247	0.59181
2869.70391	0.58192
2867.77534	0.57189
2865.84678	0.56171
2863.91821	0.55162
2861.98965	0.54192
2860.06108	0.53256
2858.13252	0.52359
2856.20396	0.51502
2854.27539	0.50648
2852.34683	0.49786
2850.41826	0.48946
2848.48970	0.48126
2846.56113	0.47329
2844.63257	0.46587
2842.70400	0.45907
2840.77544	0.45282
2838.84687	0.44692
2836.91831	0.44111
2834.98975	0.43505
2833.06118	0.42886
2831.13262	0.42296
2829.20405	0.41716
2827.27549	0.41120
2825.34692	0.40525
2823.41836	0.39942
2821.48979	0.39377
2819.56123	0.38810
2817.63267	0.38211
2815.70410	0.37608
2813.77554	0.37054
2811.84697	0.36545
2809.91841	0.36042
2807.98984	0.35528
2806.06128	0.35012
2804.13271	0.34512
2802.20415	0.34023
2800.27559	0.33529
2798.34702	0.33039
2796.41846	0.32569
2794.48989	0.32121
2792.56133	0.31688
2790.63276	0.31258
2788.70420	0.30827
2786.77563	0.30409
2784.84707	0.30008
2782.91851	0.29617
2780.98994	0.29224
2779.06138	0.28829
2777.13281	0.28446
2775.20425	0.28084
2773.27568	0.27735
2771.34712	0.27377
2769.41855	0.27021
2767.48999	0.26688
2765.56143	0.26367
2763.63286	0.26041
2761.70430	0.25715
2759.77573	0.25398
2757.84717	0.25087
2755.91860	0.24780
2753.99004	0.24484
2752.06147	0.24206
2750.13291	0.23937
2748.20435	0.23669
2746.27578	0.23405
2744.34722	0.23132
2742.41865	0.22861
2740.49009	0.22617
2738.56152	0.22387
2736.63296	0.22159
2734.70439	0.21933
2732.77583	0.21701
2730.84727	0.21467
2728.91870	0.21236
2726.99014	0.21025
2725.06157	0.20834
2723.13301	0.20642
2721.20444	0.20457
2719.27588	0.20284
2717.34731	0.20097
2715.41875	0.19888
2713.49019	0.19682
2711.56162	0.19501
2709.63306	0.19347
2707.70449	0.19208
2705.77593	0.19053
2703.84736	0.18890
2701.91880	0.18742
2699.99023	0.18599
2698.06167	0.18448
2696.13311	0.18298
2694.20454	0.18152
2692.27598	0.18006
2690.34741	0.17871
2688.41885	0.17743
2686.49028	0.17619
2684.56172	0.17513
2682.63315	0.17413
2680.70459	0.17297
2678.77603	0.17178
2676.84746	0.17062
2674.91890	0.16941
2672.99033	0.16824
2671.06177	0.16725
2669.13320	0.16625
2667.20464	0.16518
2665.27607	0.16414
2663.34751	0.16320
2661.41895	0.16240
2659.49038	0.16168
2657.56182	0.16100
2655.63325	0.16024
2653.70469	0.15939
2651.77612	0.15851
2649.84756	0.15772
2647.91899	0.15721
2645.99043	0.15675
2644.06187	0.15614
2642.13330	0.15556
2640.20474	0.15515
2638.27617	0.15485
2636.34761	0.15446
2634.41904	0.15392
2632.49048	0.15345
2630.56191	0.15322
2628.63335	0.15308
2626.70479	0.15273
2624.77622	0.15228
2622.84766	0.15194
2620.91909	0.15164
2618.99053	0.15146
2617.06196	0.15150
2615.13340	0.15155
2613.20483	0.15144
2611.27627	0.15129
2609.34771	0.15127
2607.41914	0.15126
2605.49058	0.15116
2603.56201	0.15110
2601.63345	0.15122
2599.70488	0.15137
2597.77632	0.15140
2595.84775	0.15138
2593.91919	0.15141
2591.99062	0.15155
2590.06206	0.15177
2588.13350	0.15196
2586.20493	0.15212
2584.27637	0.15239
2582.34780	0.15276
2580.41924	0.15315
2578.49067	0.15347
2576.56211	0.15371
2574.63354	0.15405
2572.70498	0.15451
2570.77642	0.15493
2568.84785	0.15524
2566.91929	0.15558
2564.99072	0.15606
2563.06216	0.15653
2561.13359	0.15693
2559.20503	0.15742
2557.27646	0.15798
2555.34790	0.15857
2553.41934	0.15913
2551.49077	0.15970
2549.56221	0.16034
2547.63364	0.16098
2545.70508	0.16159
2543.77651	0.16223
2541.84795	0.16290
2539.91938	0.16347
2537.99082	0.16391
2536.06226	0.16451
2534.13369	0.16543
2532.20513	0.16636
2530.27656	0.16710
2528.34800	0.16780
2526.41943	0.16857
2524.49087	0.16939
2522.56230	0.17020
2520.63374	0.17100
2518.70518	0.17173
2516.77661	0.17239
2514.84805	0.17305
2512.91948	0.17384
2510.99092	0.17473
2509.06235	0.17562
2507.13379	0.17644
2505.20522	0.17722
2503.27666	0.17810
2501.34810	0.17901
2499.41953	0.17986
2497.49097	0.18068
2495.56240	0.18153
2493.63384	0.18251
2491.70527	0.18352
2489.77671	0.18439
2487.84814	0.18517
2485.91958	0.18610
2483.99102	0.18717
2482.06245	0.18811
2480.13389	0.18892
2478.20532	0.18980
2476.27676	0.19077
2474.34819	0.19175
2472.41963	0.19273
2470.49106	0.19363
2468.56250	0.19445
2466.63394	0.19542
2464.70537	0.19647
2462.77681	0.19740
2460.84824	0.19834
2458.91968	0.19940
2456.99111	0.20051
2455.06255	0.20155
2453.13398	0.20251
2451.20542	0.20345
2449.27686	0.20444
2447.34829	0.20550
2445.41973	0.20655
2443.49116	0.20754
2441.56260	0.20847
2439.63403	0.20943
2437.70547	0.21058
2435.77690	0.21180
2433.84834	0.21291
2431.91978	0.21397
2429.99121	0.21500
2428.06265	0.21598
2426.13408	0.21700
2424.20552	0.21820
2422.27695	0.21946
2420.34839	0.22060
2418.41982	0.22159
2416.49126	0.22256
2414.56270	0.22370
2412.63413	0.22502
2410.70557	0.22632
2408.77700	0.22756
2406.84844	0.22883
2404.91987	0.23006
2402.99131	0.23108
2401.06274	0.23206
2399.13418	0.23325
2397.20562	0.23459
2395.27705	0.23584
2393.34849	0.23702
2391.41992	0.23831
2389.49136	0.23976
2387.56279	0.24135
2385.63423	0.24319
2383.70566	0.24537
2381.77710	0.24796
2379.84854	0.25088
2377.91997	0.25398
2375.99141	0.25742
2374.06284	0.26175
2372.13428	0.26693
2370.20571	0.27225
2368.27715	0.27736
2366.34858	0.28207
2364.42002	0.28620
2362.49146	0.29027
2360.56289	0.29380
2358.63433	0.29554
2356.70576	0.29558
2354.77720	0.29426
2352.84863	0.29194
2350.92007	0.28882
2348.99150	0.28651
2347.06294	0.28666
2345.13437	0.29000
2343.20581	0.29535
2341.27725	0.29937
2339.34868	0.30089
2337.42012	0.30113
2335.49155	0.30150
2333.56299	0.30248
2331.63442	0.30433
2329.70586	0.30637
2327.77729	0.30740
2325.84873	0.30770
2323.92017	0.30808
2321.99160	0.30830
2320.06304	0.30832
2318.13447	0.30859
2316.20591	0.30890
2314.27734	0.30939
2312.34878	0.31050
2310.42021	0.31176
2308.49165	0.31264
2306.56309	0.31345
2304.63452	0.31444
2302.70596	0.31564
2300.77739	0.31710
2298.84883	0.31869
2296.92026	0.32019
2294.99170	0.32158
2293.06313	0.32302
2291.13457	0.32459
2289.20601	0.32620
2287.27744	0.32776
2285.34888	0.32931
2283.42031	0.33097
2281.49175	0.33291
2279.56318	0.33518
2277.63462	0.33749
2275.70605	0.33965
2273.77749	0.34173
2271.84893	0.34377
2269.92036	0.34587
2267.99180	0.34805
2266.06323	0.35019
2264.13467	0.35221
2262.20610	0.35420
2260.27754	0.35618
2258.34897	0.35819
2256.42041	0.36032
2254.49185	0.36250
2252.56328	0.36468
2250.63472	0.36701
2248.70615	0.36939
2246.77759	0.37151
2244.84902	0.37349
2242.92046	0.37560
2240.99189	0.37789
2239.06333	0.38017
2237.13477	0.38239
2235.20620	0.38461
2233.27764	0.38682
2231.34907	0.38903
2229.42051	0.39132
2227.49194	0.39364
2225.56338	0.39591
2223.63481	0.39812
2221.70625	0.40028
2219.77769	0.40244
2217.84912	0.40464
2215.92056	0.40685
2213.99199	0.40906
2212.06343	0.41130
2210.13486	0.41346
2208.20630	0.41555
2206.27773	0.41775
2204.34917	0.42001
2202.42061	0.42211
2200.49204	0.42411
2198.56348	0.42612
2196.63491	0.42809
2194.70635	0.43011
2192.77778	0.43216
2190.84922	0.43403
2188.92065	0.43580
2186.99209	0.43759
2185.06353	0.43944
2183.13496	0.44138
2181.20640	0.44327
2179.27783	0.44501
2177.34927	0.44665
2175.42070	0.44819
2173.49214	0.44964
2171.56357	0.45109
2169.63501	0.45250
2167.70645	0.45380
2165.77788	0.45503
2163.84932	0.45634
2161.92075	0.45766
2159.99219	0.45885
2158.06362	0.45982
2156.13506	0.46067
2154.20649	0.46154
2152.27793	0.46236
2150.34937	0.46310
2148.42080	0.46380
2146.49224	0.46435
2144.56367	0.46483
2142.63511	0.46543
2140.70654	0.46602
2138.77798	0.46642
2136.84941	0.46659
2134.92085	0.46656
2132.99229	0.46651
2131.06372	0.46649
2129.13516	0.46639
2127.20659	0.46620
2125.27803	0.46596
2123.34946	0.46568
2121.42090	0.46530
2119.49233	0.46475
2117.56377	0.46407
2115.63521	0.46328
2113.70664	0.46241
2111.77808	0.46151
2109.84951	0.46054
2107.92095	0.45960
2105.99238	0.45866
2104.06382	0.45757
2102.13525	0.45639
2100.20669	0.45518
2098.27812	0.45382
2096.34956	0.45228
2094.42100	0.45064
2092.49243	0.44897
2090.56387	0.44724
2088.63530	0.44549
2086.70674	0.44381
2084.77817	0.44206
2082.84961	0.44020
2080.92104	0.43831
2078.99248	0.43635
2077.06392	0.43424
2075.13535	0.43210
2073.20679	0.42994
2071.27822	0.42767
2069.34966	0.42534
2067.42109	0.42304
2065.49253	0.42077
2063.56396	0.41839
2061.63540	0.41592
2059.70684	0.41346
2057.77827	0.41099
2055.84971	0.40850
2053.92114	0.40598
2051.99258	0.40343
2050.06401	0.40089
2048.13545	0.39830
2046.20688	0.39560
2044.27832	0.39288
2042.34976	0.39012
2040.42119	0.38732
2038.49263	0.38459
2036.56406	0.38193
2034.63550	0.37916
2032.70693	0.37629
2030.77837	0.37345
2028.84980	0.37058
2026.92124	0.36769
2024.99268	0.36487
2023.06411	0.36208
2021.13555	0.35926
2019.20698	0.35655
2017.27842	0.35398
2015.34985	0.35129
2013.42129	0.34845
2011.49272	0.34566
2009.56416	0.34293
2007.63560	0.34009
2005.70703	0.33725
2003.77847	0.33459
2001.84990	0.33196
1999.92134	0.32920
1997.99277	0.32641
1996.06421	0.32382
1994.13564	0.32142
1992.20708	0.31897
1990.27852	0.31635
1988.34995	0.31379
1986.42139	0.31132
1984.49282	0.30888
1982.56426	0.30645
1980.63569	0.30402
1978.70713	0.30165
1976.77856	0.29933
1974.85000	0.29706
1972.92144	0.29475
1970.99287	0.29244
1969.06431	0.29027
1967.13574	0.28825
1965.20718	0.28626
1963.27861	0.28428
1961.35005	0.28236
1959.42148	0.28049
1957.49292	0.27862
1955.56436	0.27674
1953.63579	0.27491
1951.70723	0.27311
1949.77866	0.27143
1947.85010	0.26991
1945.92153	0.26846
1943.99297	0.26700
1942.06440	0.26547
1940.13584	0.26384
1938.20728	0.26226
1936.27871	0.26082
1934.35015	0.25945
1932.42158	0.25816
1930.49302	0.25690
1928.56445	0.25570
1926.63589	0.25460
1924.70732	0.25363
1922.77876	0.25274
1920.85020	0.25176
1918.92163	0.25073
1916.99307	0.24973
1915.06450	0.24873
1913.13594	0.24777
1911.20737	0.24703
1909.27881	0.24636
1907.35024	0.24562
1905.42168	0.24495
1903.49312	0.24441
1901.56455	0.24390
1899.63599	0.24336
1897.70742	0.24281
1895.77886	0.24233
1893.85029	0.24186
1891.92173	0.24140
1889.99316	0.24119
1888.06460	0.24106
1886.13604	0.24080
1884.20747	0.24056
1882.27891	0.24031
1880.35034	0.24005
1878.42178	0.23985
1876.49321	0.23978
1874.56465	0.23979
1872.63608	0.23992
1870.70752	0.24020
1868.77896	0.24079
1866.85039	0.24118
1864.92183	0.24103
1862.99326	0.24091
1861.06470	0.24108
1859.13613	0.24142
1857.20757	0.24174
1855.27900	0.24212
1853.35044	0.24257
1851.42187	0.24308
1849.49331	0.24365
1847.56475	0.24438
1845.63618	0.24532
1843.70762	0.24639
1841.77905	0.24715
1839.85049	0.24756
1837.92192	0.24828
1835.99336	0.24919
1834.06479	0.25005
1832.13623	0.25099
1830.20767	0.25246
1828.27910	0.25404
1826.35054	0.25513
1824.42197	0.25637
1822.49341	0.25760
1820.56484	0.25871
1818.63628	0.25998
1816.70771	0.26157
1814.77915	0.26324
1812.85059	0.26504
1810.92202	0.26716
1808.99346	0.26929
1807.06489	0.27113
1805.13633	0.27296
1803.20776	0.27525
1801.27920	0.27797
1799.35063	0.28090
1797.42207	0.28339
1795.49351	0.28566
1793.56494	0.28844
1791.63638	0.29224
1789.70781	0.29583
1787.77925	0.29840
1785.85068	0.30149
1783.92212	0.30525
1781.99355	0.30926
1780.06499	0.31350
1778.13643	0.31778
1776.20786	0.32169
1774.27930	0.32586
1772.35073	0.33177
1770.42217	0.33849
1768.49360	0.34398
1766.56504	0.34906
1764.63647	0.35419
1762.70791	0.35999
1760.77935	0.36763
1758.85078	0.37482
1756.92222	0.38194
1754.99365	0.38963
1753.06509	0.39649
1751.13652	0.40477
1749.20796	0.41567
1747.27939	0.42644
1745.35083	0.43555
1743.42227	0.44503
1741.49370	0.45563
1739.56514	0.46819
1737.63657	0.48073
1735.70801	0.49158
1733.77944	0.50817
1731.85088	0.52828
1729.92231	0.54384
1727.99375	0.55954
1726.06519	0.57631
1724.13662	0.59474
1722.20806	0.61482
1720.27949	0.63328
1718.35093	0.65486
1716.42236	0.68777
1714.49380	0.71912
1712.56523	0.74354
1710.63667	0.76705
1708.70811	0.79236
1706.77954	0.82103
1704.85098	0.85560
1702.92241	0.88633
1700.99385	0.91594
1699.06528	0.96104
1697.13672	1.00304
1695.20815	1.04529
1693.27959	1.08517
1691.35103	1.11634
1689.42246	1.15253
1687.49390	1.19082
1685.56533	1.22695
1683.63677	1.28408
1681.70820	1.34447
1679.77964	1.38186
1677.85107	1.41764
1675.92251	1.45856
1673.99395	1.50899
1672.06538	1.55328
1670.13682	1.59624
1668.20825	1.65281
1666.27969	1.69659
1664.35112	1.73158
1662.42256	1.77547
1660.49399	1.82731
1658.56543	1.86787
1656.63687	1.90076
1654.70830	1.93173
1652.77974	1.98568
1650.85117	2.04134
1648.92261	2.06371
1646.99404	2.09724
1645.06548	2.13369
1643.13691	2.15296
1641.20835	2.16377
1639.27979	2.17635
1637.35122	2.18702
1635.42266	2.19309
1633.49409	2.19082
1631.56553	2.18040
1629.63696	2.16696
1627.70840	2.14265
1625.77983	2.11471
1623.85127	2.08028
1621.92271	2.03820
1619.99414	2.00035
1618.06558	1.96124
1616.13701	1.90187
1614.20845	1.84119
1612.27988	1.79634
1610.35132	1.74966
1608.42275	1.69871
1606.49419	1.64764
1604.56562	1.60023
1602.63706	1.55393
1600.70850	1.50802
1598.77993	1.46579
1596.85137	1.42619
1594.92280	1.38711
1592.99424	1.34867
1591.06567	1.31338
1589.13711	1.27996
1587.20854	1.24808
1585.27998	1.21816
1583.35142	1.18982
1581.42285	1.16320
1579.49429	1.13993
1577.56572	1.11863
1575.63716	1.09161
1573.70859	1.06753
1571.78003	1.05184
1569.85146	1.03433
1567.92290	1.01375
1565.99434	0.99750
1564.06577	0.98334
1562.13721	0.97130
1560.20864	0.96160
1558.28008	0.94347
1556.35151	0.92547
1554.42295	0.91485
1552.49438	0.90452
1550.56582	0.89439
1548.63726	0.88418
1546.70869	0.87524
1544.78013	0.86681
1542.85156	0.85770
1540.92300	0.84722
1538.99443	0.83291
1537.06587	0.82264
1535.13730	0.81568
1533.20874	0.80650
1531.28018	0.79677
1529.35161	0.79002
1527.42305	0.78358
1525.49448	0.77631
1523.56592	0.76979
1521.63735	0.76336
1519.70879	0.75623
1517.78022	0.75027
1515.85166	0.74419
1513.92310	0.73827
1511.99453	0.73342
1510.06597	0.72924
1508.13740	0.72566
1506.20884	0.71980
1504.28027	0.71355
1502.35171	0.70968
1500.42314	0.70653
1498.49458	0.70343
1496.56602	0.69987
1494.63745	0.69608
1492.70889	0.69305
1490.78032	0.69073
1488.85176	0.68824
1486.92319	0.68549
1484.99463	0.68293
1483.06606	0.68066
1481.13750	0.67858
1479.20894	0.67667
1477.28037	0.67506
1475.35181	0.67379
1473.42324	0.67266
1471.49468	0.67039
1469.56611	0.66736
1467.63755	0.66483
1465.70898	0.66282
1463.78042	0.66088
1461.85186	0.65894
1459.92329	0.65747
1457.99473	0.65632
1456.06616	0.65405
1454.13760	0.65065
1452.20903	0.64765
1450.28047	0.64509
1448.35190	0.64281
1446.42334	0.64048
1444.49478	0.63825
1442.56621	0.63631
1440.63765	0.63456
1438.70908	0.63311
1436.78052	0.63179
1434.85195	0.63013
1432.92339	0.62840
1430.99482	0.62703
1429.06626	0.62572
1427.13770	0.62435
1425.20913	0.62321
1423.28057	0.62225
1421.35200	0.62118
1419.42344	0.61992
1417.49487	0.61825
1415.56631	0.61632
1413.63774	0.61446
1411.70918	0.61275
1409.78062	0.61125
1407.85205	0.60988
1405.92349	0.60848
1403.99492	0.60674
1402.06636	0.60496
1400.13779	0.60370
1398.20923	0.60274
1396.28066	0.60151
1394.35210	0.59962
1392.42354	0.59740
1390.49497	0.59557
1388.56641	0.59427
1386.63784	0.59312
1384.70928	0.59171
1382.78071	0.59025
1380.85215	0.58901
1378.92358	0.58811
1376.99502	0.58744
1375.06646	0.58690
1373.13789	0.58631
1371.20933	0.58558
1369.28076	0.58484
1367.35220	0.58407
1365.42363	0.58320
1363.49507	0.58219
1361.56650	0.58107
1359.63794	0.57995
1357.70937	0.57893
1355.78081	0.57789
1353.85225	0.57675
1351.92368	0.57560
1349.99512	0.57458
1348.06655	0.57364
1346.13799	0.57259
1344.20942	0.57141
1342.28086	0.57031
1340.35229	0.56945
1338.42373	0.56859
1336.49517	0.56753
1334.56660	0.56643
1332.63804	0.56547
1330.70947	0.56461
1328.78091	0.56372
1326.85234	0.56291
1324.92378	0.56235
1322.99521	0.56196
1321.06665	0.56158
1319.13809	0.56113
1317.20952	0.56047
1315.28096	0.55959
1313.35239	0.55861
1311.42383	0.55747
1309.49526	0.55623
1307.56670	0.55508
1305.63813	0.55400
1303.70957	0.55300
1301.78101	0.55212
1299.85244	0.55117
1297.92388	0.55016
1295.99531	0.54920
1294.06675	0.54823
1292.13818	0.54734
1290.20962	0.54663
1288.28105	0.54603
1286.35249	0.54548
1284.42393	0.54496
1282.49536	0.54437
1280.56680	0.54372
1278.63823	0.54307
1276.70967	0.54243
1274.78110	0.54180
1272.85254	0.54126
1270.92397	0.54085
1268.99541	0.54045
1267.06685	0.54001
1265.13828	0.53956
1263.20972	0.53918
1261.28115	0.53885
1259.35259	0.53853
1257.42402	0.53822
1255.49546	0.53790
1253.56689	0.53759
1251.63833	0.53732
1249.70977	0.53703
1247.78120	0.53672
1245.85264	0.53647
1243.92407	0.53614
1241.99551	0.53557
1240.06694	0.53478
1238.13838	0.53392
1236.20981	0.53318
1234.28125	0.53252
1232.35269	0.53177
1230.42412	0.53098
1228.49556	0.53028
1226.56699	0.52963
1224.63843	0.52881
1222.70986	0.52786
1220.78130	0.52697
1218.85273	0.52612
1216.92417	0.52519
1214.99561	0.52430
1213.06704	0.52360
1211.13848	0.52314
1209.20991	0.52285
1207.28135	0.52242
1205.35278	0.52179
1203.42422	0.52116
1201.49565	0.52053
1199.56709	0.51983
1197.63853	0.51915
1195.70996	0.51847
1193.78140	0.51784
1191.85283	0.51727
1189.92427	0.51667
1187.99570	0.51604
1186.06714	0.51555
1184.13857	0.51541
1182.21001	0.51565
1180.28145	0.51610
1178.35288	0.51652
1176.42432	0.51690
1174.49575	0.51752
1172.56719	0.51850
1170.63862	0.51959
1168.71006	0.52055
1166.78149	0.52151
1164.85293	0.52249
1162.92437	0.52341
1160.99580	0.52426
1159.06724	0.52477
1157.13867	0.52474
1155.21011	0.52421
1153.28154	0.52318
1151.35298	0.52170
1149.42441	0.51976
1147.49585	0.51726
1145.56729	0.51443
1143.63872	0.51170
1141.71016	0.50924
1139.78159	0.50704
1137.85303	0.50522
1135.92446	0.50381
1133.99590	0.50273
1132.06733	0.50189
1130.13877	0.50129
1128.21021	0.50084
1126.28164	0.50033
1124.35308	0.49974
1122.42451	0.49923
1120.49595	0.49892
1118.56738	0.49896
1116.63882	0.49938
1114.71025	0.49998
1112.78169	0.50060
1110.85312	0.50125
1108.92456	0.50199
1106.99600	0.50291
1105.06743	0.50393
1103.13887	0.50492
1101.21030	0.50582
1099.28174	0.50676
1097.35317	0.50838
1095.42461	0.51118
1093.49604	0.51505
1091.56748	0.51995
1089.63892	0.52608
1087.71035	0.53365
1085.78179	0.54245
1083.85322	0.55162
1081.92466	0.55969
1079.99609	0.56521
1078.06753	0.56767
1076.13896	0.56729
1074.21040	0.56420
1072.28184	0.55878
1070.35327	0.55212
1068.42471	0.54539
1066.49614	0.53894
1064.56758	0.53281
1062.63901	0.52746
1060.71045	0.52300
1058.78188	0.51909
1056.85332	0.51563
1054.92476	0.51254
1052.99619	0.50986
1051.06763	0.50805
1049.13906	0.50716
1047.21050	0.50685
1045.28193	0.50722
1043.35337	0.50812
1041.42480	0.50901
1039.49624	0.50965
1037.56768	0.51004
1035.63911	0.51007
1033.71055	0.50960
1031.78198	0.50859
1029.85342	0.50713
1027.92485	0.50561
1025.99629	0.50424
1024.06772	0.50301
1022.13916	0.50210
1020.21060	0.50161
1018.28203	0.50143
1016.35347	0.50132
1014.42490	0.50103
1012.49634	0.50057
1010.56777	0.49999
1008.63921	0.49968
1006.71064	0.50010
1004.78208	0.50105
1002.85352	0.50243
1000.92495	0.50469
998.99639	0.50807
997.06782	0.51224
995.13926	0.51657
993.21069	0.52041
991.28213	0.52342
989.35356	0.52530
987.42500	0.52591
985.49644	0.52569
983.56787	0.52529
981.63931	0.52525
979.71074	0.52607
977.78218	0.52788
975.85361	0.53026
973.92505	0.53279
971.99648	0.53545
970.06792	0.53846
968.13936	0.54196
966.21079	0.54576
964.28223	0.55003
962.35366	0.55498
960.42510	0.56038
958.49653	0.56602
956.56797	0.57171
954.63940	0.57727
952.71084	0.58303
950.78228	0.58901
948.85371	0.59494
946.92515	0.60108
944.99658	0.60755
943.06802	0.61403
941.13945	0.62010
939.21089	0.62559
937.28232	0.63086
935.35376	0.63621
933.42520	0.64183
931.49663	0.64799
929.56807	0.65432
927.63950	0.66039
925.71094	0.66646
923.78237	0.67276
921.85381	0.67919
919.92524	0.68537
917.99668	0.69176
916.06812	0.69926
914.13955	0.70714
912.21099	0.71473
910.28242	0.72274
908.35386	0.73175
906.42529	0.74107
904.49673	0.74980
902.56816	0.75832
900.63960	0.76714
898.71104	0.77618
896.78247	0.78569
894.85391	0.79537
892.92534	0.80483
890.99678	0.81476
889.06821	0.82570
887.13965	0.83685
885.21108	0.84782
883.28252	0.85894
881.35396	0.86937
879.42539	0.87936
877.49683	0.89072
875.56826	0.90340
873.63970	0.91584
871.71113	0.92695
869.78257	0.93715
867.85400	0.94818
865.92544	0.95990
863.99687	0.97109
862.06831	0.98219
860.13975	0.99348
858.21118	1.00507
856.28262	1.01762
854.35405	1.03094
852.42549	1.04326
850.49692	1.05405
848.56836	1.06549
846.63979	1.07823
844.71123	1.09157
842.78267	1.10456
840.85410	1.11522
838.92554	1.12324
836.99697	1.13093
835.06841	1.13890
833.13984	1.14730
831.21128	1.15872
829.28271	1.17379
827.35415	1.18981
825.42559	1.20215
823.49702	1.21014
821.56846	1.21831
819.63989	1.22990
817.71133	1.24502
815.78276	1.25992
813.85420	1.27143
811.92563	1.28013
809.99707	1.28572
808.06851	1.28926
806.13994	1.30199
804.21138	1.33288
802.28281	1.36929
800.35425	1.38561
798.42568	1.38170
796.49712	1.38489
794.56855	1.40856
792.63999	1.44426
790.71143	1.47572
788.78286	1.50996
786.85430	1.56672
784.92573	1.57082
782.99717	1.48098
781.06860	1.45364
779.14004	1.55042
777.21147	1.72418
775.28291	1.88215
773.35435	1.85085
771.42578	1.70202
769.49722	1.61229
767.56865	1.60534
765.64009	1.56230
763.71152	1.46722
761.78296	1.40914
759.85439	1.38374
757.92583	1.32183
755.99727	1.30341
754.06870	1.48383
752.14014	2.21349
750.21157	1.75380
748.28301	1.28951
746.35444	1.17832
744.42588	1.16280
742.49731	1.13222
740.56875	1.13103
738.64019	1.20901
736.71162	1.73948
734.78306	4.40870
732.85449	1.24771
730.92593	0.81368
728.99736	0.68199
727.06880	0.73687
725.14023	1.12365
723.21167	4.33927
721.28311	4.32770
719.35454	4.31613
717.42598	0.56996
715.49741	0.11214
713.56885	-0.15669
711.64028	-0.33006
709.71172	-0.30119
707.78315	-0.05428
705.85459	0.09256
703.92603	0.22291
701.99746	0.37546
700.06890	0.52729
698.14033	0.53102
696.21177	0.44474
694.28320	0.30240
692.35464	0.12169
690.42607	0.11388
688.49751	0.33151
686.56895	1.53486
684.64038	1.99956
682.71182	0.62394
680.78325	0.57738
678.85469	0.82330
676.92612	0.82416
674.99756	0.47049
673.06899	0.32670
671.14043	0.31732
669.21187	0.39731
667.28330	0.62543
665.35474	0.57127
663.42617	0.21739
661.49761	0.17124
659.56904	0.25917
657.64048	0.28323
655.71191	0.19162
653.78335	0.13918
651.85479	0.20736
649.92622	0.35463
647.99766	0.42282
646.06909	0.33213
644.14053	0.32091
642.21196	0.42716
640.28340	0.44168
638.35483	0.35558
636.42627	0.25247
634.49771	0.14922
632.56914	0.09203
630.64058	0.08749
628.71201	0.14536
626.78345	0.28103
624.85488	0.53441
622.92632	0.59478
620.99775	0.30634
619.06919	0.25738
617.14062	0.39939
615.21206	0.40395
613.28350	0.23147
611.35493	0.14992
609.42637	0.19222
607.49780	0.28003
605.56924	0.32597
603.64067	0.30380
601.71211	0.29916
599.78354	0.40579
597.85498	0.51662
595.92642	0.45739
593.99785	0.48019
592.06929	0.54383
590.14072	0.36186
588.21216	0.15878
586.28359	0.12530
584.35503	0.21744
582.42646	0.22724
580.49790	0.17285
578.56934	0.20985
576.64077	0.29856
574.71221	0.28754
572.78364	0.18844
570.85508	0.13540
568.92651	0.12988
566.99795	0.16291
565.06938	0.24739
563.14082	0.34572
561.21226	0.40484
559.28369	0.36425
557.35513	0.23435
555.42656	0.13070
553.49800	0.13009
551.56943	0.22555
549.64087	0.35087
547.71230	0.37096
545.78374	0.27820
543.85518	0.19480
541.92661	0.16581
539.99805	0.18829
538.06948	0.25073
536.14092	0.31654
534.21235	0.31549
532.28379	0.26210
530.35522	0.25110
528.42666	0.24919
526.49810	0.18908
524.56953	0.16380
522.64097	0.23942
520.71240	0.37939
518.78384	0.47611
516.85527	0.47685
514.92671	0.40300
512.99814	0.28644
511.06958	0.21602
509.14102	0.20836
507.21245	0.21832
505.28389	0.23466
503.35532	0.25105
501.42676	0.26350
499.49819	0.31028
