3997.91411	0.05726
3995.98555	0.05777
3994.05698	0.05837
3992.12842	0.05877
3990.19985	0.05919
3988.27129	0.05950
3986.34272	0.05941
3984.41416	0.05949
3982.48560	0.06009
3980.55703	0.06082
3978.62847	0.06124
3976.69990	0.06130
3974.77134	0.06129
3972.84277	0.06151
3970.91421	0.06188
3968.98564	0.06198
3967.05708	0.06163
3965.12852	0.06130
3963.19995	0.06150
3961.27139	0.06213
3959.34282	0.06258
3957.41426	0.06267
3955.48569	0.06264
3953.55713	0.06252
3951.62856	0.06224
3949.70000	0.06213
3947.77144	0.06270
3945.84287	0.06339
3943.91431	0.06379
3941.98574	0.06439
3940.05718	0.06450
3938.12861	0.06373
3936.20005	0.06305
3934.27148	0.06306
3932.34292	0.06382
3930.41436	0.06460
3928.48579	0.06435
3926.55723	0.06335
3924.62866	0.06277
3922.70010	0.06281
3920.77153	0.06288
3918.84297	0.06299
3916.91440	0.06315
3914.98584	0.06281
3913.05728	0.06206
3911.12871	0.06159
3909.20015	0.06162
3907.27158	0.06209
3905.34302	0.06301
3903.41445	0.06409
3901.48589	0.06462
3899.55732	0.06437
3897.62876	0.06374
3895.70020	0.06317
3893.77163	0.06325
3891.84307	0.06416
3889.91450	0.06461
3887.98594	0.06385
3886.05737	0.06359
3884.12881	0.06422
3882.20024	0.06470
3880.27168	0.06514
3878.34312	0.06507
3876.41455	0.06420
3874.48599	0.06411
3872.55742	0.06517
3870.62886	0.06648
3868.70029	0.06741
3866.77173	0.06742
3864.84316	0.06766
3862.91460	0.06854
3860.98604	0.06833
3859.05747	0.06739
3857.12891	0.06708
3855.20034	0.06759
3853.27178	0.06946
3851.34321	0.07132
3849.41465	0.07057
3847.48608	0.06965
3845.55752	0.06950
3843.62896	0.07022
3841.70039	0.07165
3839.77183	0.07330
3837.84326	0.07515
3835.91470	0.07634
3833.98613	0.07645
3832.05757	0.07632
3830.12900	0.07620
3828.20044	0.07623
3826.27187	0.07689
3824.34331	0.07792
3822.41475	0.07910
3820.48618	0.08115
3818.55762	0.08242
3816.62905	0.08267
3814.70049	0.08342
3812.77192	0.08357
3810.84336	0.08353
3808.91479	0.08458
3806.98623	0.08676
3805.05767	0.08860
3803.12910	0.08949
3801.20054	0.09137
3799.27197	0.09357
3797.34341	0.09429
3795.41484	0.09478
3793.48628	0.09513
3791.55771	0.09555
3789.62915	0.09639
3787.70059	0.09750
3785.77202	0.09908
3783.84346	0.10094
3781.91489	0.10233
3779.98633	0.10388
3778.05776	0.10611
3776.12920	0.10734
3774.20063	0.10786
3772.27207	0.10927
3770.34351	0.11211
3768.41494	0.11572
3766.48638	0.11825
3764.55781	0.11962
3762.62925	0.12068
3760.70068	0.12243
3758.77212	0.12560
3756.84355	0.12871
3754.91499	0.13028
3752.98643	0.13184
3751.05786	0.13591
3749.12930	0.14221
3747.20073	0.14554
3745.27217	0.14716
3743.34360	0.15103
3741.41504	0.15539
3739.48647	0.15815
3737.55791	0.16132
3735.62935	0.16645
3733.70078	0.17319
3731.77222	0.17896
3729.84365	0.18295
3727.91509	0.18650
3725.98652	0.19157
3724.05796	0.19797
3722.12939	0.20428
3720.20083	0.21088
3718.27227	0.21789
3716.34370	0.22509
3714.41514	0.23236
3712.48657	0.24169
3710.55801	0.25636
3708.62944	0.27215
3706.70088	0.28378
3704.77231	0.29443
3702.84375	0.30728
3700.91519	0.32424
3698.98662	0.34287
3697.05806	0.36073
3695.12949	0.37974
3693.20093	0.39959
3691.27236	0.42109
3689.34380	0.45003
3687.41523	0.48605
3685.48667	0.51654
3683.55811	0.54248
3681.62954	0.57053
3679.70098	0.60215
3677.77241	0.63566
3675.84385	0.67644
3673.91528	0.73192
3671.98672	0.77498
3670.05815	0.81318
3668.12959	0.86847
3666.20103	0.91772
3664.27246	0.95732
3662.34390	1.00035
3660.41533	1.04807
3658.48677	1.09566
3656.55820	1.14614
3654.62964	1.20228
3652.70107	1.24839
3650.77251	1.28770
3648.84395	1.34466
3646.91538	1.41713
3644.98682	1.46784
3643.05825	1.50546
3641.12969	1.54485
3639.20112	1.58927
3637.27256	1.63423
3635.34399	1.67798
3633.41543	1.72128
3631.48687	1.76119
3629.55830	1.80200
3627.62974	1.85736
3625.70117	1.90931
3623.77261	1.94344
3621.84404	1.97554
3619.91548	2.01314
3617.98691	2.06000
3616.05835	2.10398
3614.12979	2.14013
3612.20122	2.18027
3610.27266	2.22081
3608.34409	2.26071
3606.41553	2.30398
3604.48696	2.34345
3602.55840	2.37762
3600.62983	2.41550
3598.70127	2.45766
3596.77271	2.49889
3594.84414	2.54042
3592.91558	2.58266
3590.98701	2.62158
3589.05845	2.65642
3587.12988	2.69861
3585.20132	2.74755
3583.27275	2.78848
3581.34419	2.82543
3579.41562	2.86563
3577.48706	2.90847
3575.55850	2.95110
3573.62993	2.99465
3571.70137	3.03702
3569.77280	3.07664
3567.84424	3.11907
3565.91567	3.17119
3563.98711	3.22085
3562.05854	3.26241
3560.12998	3.30596
3558.20142	3.35254
3556.27285	3.39676
3554.34429	3.43709
3552.41572	3.48203
3550.48716	3.53327
3548.55859	3.58102
3546.63003	3.62359
3544.70146	3.67006
3542.77290	3.72208
3540.84434	3.77076
3538.91577	3.81378
3536.98721	3.85695
3535.05864	3.90665
3533.13008	3.95862
3531.20151	4.00874
3529.27295	4.05755
3527.34438	4.10344
3525.41582	4.14670
3523.48726	4.19434
3521.55869	4.24607
3519.63013	4.29281
3517.70156	4.33697
3515.77300	4.38232
3513.84443	4.43011
3511.91587	4.48137
3509.98730	4.53427
3508.05874	4.58763
3506.13018	4.63696
3504.20161	4.67975
3502.27305	4.72356
3500.34448	4.77512
3498.41592	4.82964
3496.48735	4.87779
3494.55879	4.91710
3492.63022	4.95868
3490.70166	5.00962
3488.77310	5.06266
3486.84453	5.11214
3484.91597	5.16045
3482.98740	5.21037
3481.05884	5.26358
3479.13027	5.31457
3477.20171	5.35649
3475.27314	5.39617
3473.34458	5.44444
3471.41602	5.49738
3469.48745	5.54473
3467.55889	5.59149
3465.63032	5.64284
3463.70176	5.69648
3461.77319	5.74836
3459.84463	5.79553
3457.91606	5.84413
3455.98750	5.89967
3454.05894	5.96033
3452.13037	6.02352
3450.20181	6.07397
3448.27324	6.10679
3446.34468	6.14823
3444.41611	6.20424
3442.48755	6.25621
3440.55898	6.29739
3438.63042	6.35145
3436.70186	6.42863
3434.77329	6.49238
3432.84473	6.52497
3430.91616	6.55354
3428.98760	6.59154
3427.05903	6.63501
3425.13047	6.69213
3423.20190	6.74198
3421.27334	6.78380
3419.34478	6.83452
3417.41621	6.87911
3415.48765	6.92957
3413.55908	7.00584
3411.63052	7.08426
3409.70195	7.12379
3407.77339	7.14868
3405.84482	7.20241
3403.91626	7.27481
3401.98770	7.31242
3400.05913	7.33347
3398.13057	7.39557
3396.20200	7.46604
3394.27344	7.50816
3392.34487	7.55119
3390.41631	7.60228
3388.48774	7.59898
3386.55918	7.57349
3384.63062	7.58118
3382.70205	7.62792
3380.77349	7.71397
3378.84492	7.79736
3376.91636	7.85185
3374.98779	7.86566
3373.05923	7.86474
3371.13066	7.89189
3369.20210	7.95094
3367.27354	7.96568
3365.34497	7.92406
3363.41641	7.91402
3361.48784	7.91965
3359.55928	7.90040
3357.63071	7.90486
3355.70215	7.97102
3353.77358	8.08175
3351.84502	8.22083
3349.91646	8.28008
3347.98789	8.23284
3346.05933	8.19304
3344.13076	8.20635
3342.20220	8.26643
3340.27363	8.32177
3338.34507	8.30387
3336.41650	8.21332
3334.48794	8.17282
3332.55937	8.16067
3330.63081	8.09825
3328.70225	8.06088
3326.77368	8.08978
3324.84512	8.15779
3322.91655	8.29756
3320.98799	8.46064
3319.05942	8.47335
3317.13086	8.45429
3315.20229	8.49034
3313.27373	8.43330
3311.34517	8.28910
3309.41660	8.23678
3307.48804	8.29820
3305.55947	8.31100
3303.63091	8.25732
3301.70234	8.21016
3299.77378	8.20473
3297.84521	8.24053
3295.91665	8.26499
3293.98809	8.23792
3292.05952	8.23267
3290.13096	8.33296
3288.20239	8.42914
3286.27383	8.35488
3284.34526	8.24224
3282.41670	8.23093
3280.48813	8.18391
3278.55957	8.10285
3276.63101	8.13793
3274.70244	8.27486
3272.77388	8.40810
3270.84531	8.51461
3268.91675	8.57402
3266.98818	8.49290
3265.05962	8.41654
3263.13105	8.49211
3261.20249	8.57209
3259.27393	8.53001
3257.34536	8.49032
3255.41680	8.44597
3253.48823	8.36791
3251.55967	8.32591
3249.63110	8.25851
3247.70254	8.16202
3245.77397	8.14009
3243.84541	8.23350
3241.91685	8.37435
3239.98828	8.47719
3238.05972	8.52237
3236.13115	8.48085
3234.20259	8.39377
3232.27402	8.32980
3230.34546	8.22842
3228.41689	8.09336
3226.48833	8.08685
3224.55977	8.24764
3222.63120	8.38623
3220.70264	8.36636
3218.77407	8.28687
3216.84551	8.19758
3214.91694	8.11537
3212.98838	8.12725
3211.05981	8.23905
3209.13125	8.28256
3207.20269	8.19247
3205.27412	8.12991
3203.34556	8.11302
3201.41699	8.04990
3199.48843	7.95349
3197.55986	7.87513
3195.63130	7.80821
3193.70273	7.73083
3191.77417	7.66887
3189.84561	7.63226
3187.91704	7.57480
3185.98848	7.50445
3184.05991	7.48582
3182.13135	7.47725
3180.20278	7.40657
3178.27422	7.35520
3176.34565	7.37415
3174.41709	7.35508
3172.48853	7.25447
3170.55996	7.13401
3168.63140	7.02855
3166.70283	6.94537
3164.77427	6.87379
3162.84570	6.81579
3160.91714	6.75788
3158.98857	6.68251
3157.06001	6.60651
3155.13145	6.53771
3153.20288	6.47337
3151.27432	6.41473
3149.34575	6.35654
3147.41719	6.29048
3145.48862	6.21931
3143.56006	6.15453
3141.63149	6.08944
3139.70293	6.00680
3137.77437	5.91600
3135.84580	5.84087
3133.91724	5.78395
3131.98867	5.72028
3130.06011	5.64190
3128.13154	5.56734
3126.20298	5.50392
3124.27441	5.44515
3122.34585	5.37185
3120.41729	5.28342
3118.48872	5.20354
3116.56016	5.13648
3114.63159	5.07533
3112.70303	5.01628
3110.77446	4.94957
3108.84590	4.87343
3106.91733	4.80068
3104.98877	4.73456
3103.06021	4.66635
3101.13164	4.59373
3099.20308	4.52239
3097.27451	4.45721
3095.34595	4.39403
3093.41738	4.32656
3091.48882	4.25783
3089.56025	4.19236
3087.63169	4.13039
3085.70312	4.07160
3083.77456	4.01283
3081.84600	3.94992
3079.91743	3.88517
3077.98887	3.82431
3076.06030	3.76584
3074.13174	3.70429
3072.20317	3.64149
3070.27461	3.58249
3068.34604	3.52608
3066.41748	3.46900
3064.48892	3.41212
3062.56035	3.35685
3060.63179	3.30252
3058.70322	3.24872
3056.77466	3.19578
3054.84609	3.14305
3052.91753	3.09018
3050.98896	3.03822
3049.06040	2.98740
3047.13184	2.93691
3045.20327	2.88690
3043.27471	2.83842
3041.34614	2.79059
3039.41758	2.74217
3037.48901	2.69405
3035.56045	2.64725
3033.63188	2.60203
3031.70332	2.55797
3029.77476	2.51456
3027.84619	2.47200
3025.91763	2.42991
3023.98906	2.38825
3022.06050	2.34696
3020.13193	2.30517
3018.20337	2.26384
3016.27480	2.22436
3014.34624	2.18611
3012.41768	2.14823
3010.48911	2.11045
3008.56055	2.07311
3006.63198	2.03652
3004.70342	2.00061
3002.77485	1.96518
3000.84629	1.93041
2998.91772	1.89631
2996.98916	1.86258
2995.06060	1.82956
2993.13203	1.79744
2991.20347	1.76582
2989.27490	1.73436
2987.34634	1.70306
2985.41777	1.67246
2983.48921	1.64315
2981.56064	1.61467
2979.63208	1.58604
2977.70352	1.55726
2975.77495	1.52923
2973.84639	1.50209
2971.91782	1.47497
2969.98926	1.44771
2968.06069	1.42117
2966.13213	1.39540
2964.20356	1.36976
2962.27500	1.34419
2960.34644	1.31876
2958.41787	1.29391
2956.48931	1.27043
2954.56074	1.24824
2952.63218	1.22609
2950.70361	1.20326
2948.77505	1.18032
2946.84648	1.15794
2944.91792	1.13643
2942.98936	1.11568
2941.06079	1.09509
2939.13223	1.07426
2937.20366	1.05361
2935.27510	1.03357
2933.34653	1.01366
2931.41797	0.99334
2929.48940	0.97284
2927.56084	0.95330
2925.63228	0.93532
2923.70371	0.91814
2921.77515	0.90173
2919.84658	0.88643
2917.91802	0.87135
2915.98945	0.85565
2914.06089	0.83987
2912.13232	0.82484
2910.20376	0.81066
2908.27520	0.79705
2906.34663	0.78379
2904.41807	0.77073
2902.48950	0.75793
2900.56094	0.74538
2898.63237	0.73307
2896.70381	0.72109
2894.77524	0.70932
2892.84668	0.69757
2890.91812	0.68590
2888.98955	0.67442
2887.06099	0.66318
2885.13242	0.65229
2883.20386	0.64174
2881.27529	0.63120
2879.34673	0.62053
2877.41816	0.60998
2875.48960	0.59955
2873.56104	0.58908
2871.63247	0.57869
2869.70391	0.56840
2867.77534	0.55807
2865.84678	0.54772
2863.91821	0.53744
2861.98965	0.52707
2860.06108	0.51664
2858.13252	0.50683
2856.20396	0.49774
2854.27539	0.48895
2852.34683	0.48052
2850.41826	0.47263
2848.48970	0.46527
2846.56113	0.45804
2844.63257	0.45106
2842.70400	0.44500
2840.77544	0.43960
2838.84687	0.43424
2836.91831	0.42876
2834.98975	0.42325
2833.06118	0.41775
2831.13262	0.41220
2829.20405	0.40660
2827.27549	0.40097
2825.34692	0.39514
2823.41836	0.38916
2821.48979	0.38335
2819.56123	0.37775
2817.63267	0.37222
2815.70410	0.36673
2813.77554	0.36125
2811.84697	0.35574
2809.91841	0.35037
2807.98984	0.34536
2806.06128	0.34061
2804.13271	0.33577
2802.20415	0.33084
2800.27559	0.32611
2798.34702	0.32166
2796.41846	0.31724
2794.48989	0.31264
2792.56133	0.30800
2790.63276	0.30354
2788.70420	0.29928
2786.77563	0.29508
2784.84707	0.29099
2782.91851	0.28709
2780.98994	0.28328
2779.06138	0.27937
2777.13281	0.27548
2775.20425	0.27189
2773.27568	0.26842
2771.34712	0.26484
2769.41855	0.26130
2767.48999	0.25798
2765.56143	0.25476
2763.63286	0.25149
2761.70430	0.24823
2759.77573	0.24499
2757.84717	0.24183
2755.91860	0.23881
2753.99004	0.23582
2752.06147	0.23285
2750.13291	0.23010
2748.20435	0.22752
2746.27578	0.22504
2744.34722	0.22257
2742.41865	0.21993
2740.49009	0.21724
2738.56152	0.21464
2736.63296	0.21203
2734.70439	0.20959
2732.77583	0.20749
2730.84727	0.20544
2728.91870	0.20330
2726.99014	0.20110
2725.06157	0.19888
2723.13301	0.19686
2721.20444	0.19502
2719.27588	0.19309
2717.34731	0.19111
2715.41875	0.18927
2713.49019	0.18755
2711.56162	0.18584
2709.63306	0.18422
2707.70449	0.18272
2705.77593	0.18121
2703.84736	0.17968
2701.91880	0.17817
2699.99023	0.17671
2698.06167	0.17531
2696.13311	0.17386
2694.20454	0.17229
2692.27598	0.17078
2690.34741	0.16954
2688.41885	0.16849
2686.49028	0.16744
2684.56172	0.16629
2682.63315	0.16501
2680.70459	0.16368
2678.77603	0.16245
2676.84746	0.16134
2674.91890	0.16038
2672.99033	0.15947
2671.06177	0.15850
2669.13320	0.15744
2667.20464	0.15636
2665.27607	0.15544
2663.34751	0.15474
2661.41895	0.15406
2659.49038	0.15320
2657.56182	0.15225
2655.63325	0.15148
2653.70469	0.15087
2651.77612	0.15021
2649.84756	0.14964
2647.91899	0.14931
2645.99043	0.14901
2644.06187	0.14850
2642.13330	0.14787
2640.20474	0.14738
2638.27617	0.14703
2636.34761	0.14667
2634.41904	0.14616
2632.49048	0.14561
2630.56191	0.14514
2628.63335	0.14479
2626.70479	0.14457
2624.77622	0.14442
2622.84766	0.14422
2620.91909	0.14400
2618.99053	0.14384
2617.06196	0.14376
2615.13340	0.14376
2613.20483	0.14374
2611.27627	0.14367
2609.34771	0.14360
2607.41914	0.14356
2605.49058	0.14350
2603.56201	0.14339
2601.63345	0.14336
2599.70488	0.14341
2597.77632	0.14349
2595.84775	0.14359
2593.91919	0.14373
2591.99062	0.14397
2590.06206	0.14422
2588.13350	0.14442
2586.20493	0.14465
2584.27637	0.14494
2582.34780	0.14526
2580.41924	0.14560
2578.49067	0.14591
2576.56211	0.14624
2574.63354	0.14660
2572.70498	0.14683
2570.77642	0.14711
2568.84785	0.14761
2566.91929	0.14817
2564.99072	0.14862
2563.06216	0.14904
2561.13359	0.14950
2559.20503	0.14999
2557.27646	0.15051
2555.34790	0.15104
2553.41934	0.15159
2551.49077	0.15219
2549.56221	0.15282
2547.63364	0.15345
2545.70508	0.15403
2543.77651	0.15462
2541.84795	0.15534
2539.91938	0.15608
2537.99082	0.15677
2536.06226	0.15743
2534.13369	0.15810
2532.20513	0.15878
2530.27656	0.15938
2528.34800	0.15992
2526.41943	0.16065
2524.49087	0.16163
2522.56230	0.16260
2520.63374	0.16348
2518.70518	0.16437
2516.77661	0.16522
2514.84805	0.16594
2512.91948	0.16664
2510.99092	0.16741
2509.06235	0.16826
2507.13379	0.16923
2505.20522	0.17015
2503.27666	0.17087
2501.34810	0.17155
2499.41953	0.17238
2497.49097	0.17334
2495.56240	0.17430
2493.63384	0.17526
2491.70527	0.17627
2489.77671	0.17731
2487.84814	0.17828
2485.91958	0.17915
2483.99102	0.18007
2482.06245	0.18111
2480.13389	0.18209
2478.20532	0.18293
2476.27676	0.18370
2474.34819	0.18451
2472.41963	0.18549
2470.49106	0.18662
2468.56250	0.18770
2466.63394	0.18859
2464.70537	0.18938
2462.77681	0.19021
2460.84824	0.19109
2458.91968	0.19196
2456.99111	0.19293
2455.06255	0.19408
2453.13398	0.19529
2451.20542	0.19651
2449.27686	0.19763
2447.34829	0.19864
2445.41973	0.19950
2443.49116	0.20029
2441.56260	0.20123
2439.63403	0.20231
2437.70547	0.20337
2435.77690	0.20447
2433.84834	0.20558
2431.91978	0.20669
2429.99121	0.20782
2428.06265	0.20900
2426.13408	0.21029
2424.20552	0.21157
2422.27695	0.21265
2420.34839	0.21364
2418.41982	0.21481
2416.49126	0.21607
2414.56270	0.21724
2412.63413	0.21843
2410.70557	0.21963
2408.77700	0.22071
2406.84844	0.22174
2404.91987	0.22289
2402.99131	0.22406
2401.06274	0.22522
2399.13418	0.22649
2397.20562	0.22787
2395.27705	0.22928
2393.34849	0.23059
2391.41992	0.23182
2389.49136	0.23315
2387.56279	0.23461
2385.63423	0.23623
2383.70566	0.23826
2381.77710	0.24075
2379.84854	0.24355
2377.91997	0.24651
2375.99141	0.24980
2374.06284	0.25374
2372.13428	0.25848
2370.20571	0.26345
2368.27715	0.26730
2366.34858	0.27038
2364.42002	0.27477
2362.49146	0.27951
2360.56289	0.28203
2358.63433	0.28291
2356.70576	0.28281
2354.77720	0.28198
2352.84863	0.28122
2350.92007	0.27968
2348.99150	0.27823
2347.06294	0.27861
2345.13437	0.28168
2343.20581	0.28647
2341.27725	0.29020
2339.34868	0.29197
2337.42012	0.29280
2335.49155	0.29413
2333.56299	0.29569
2331.63442	0.29686
2329.70586	0.29811
2327.77729	0.29947
2325.84873	0.30032
2323.92017	0.30057
2321.99160	0.30067
2320.06304	0.30096
2318.13447	0.30142
2316.20591	0.30200
2314.27734	0.30280
2312.34878	0.30379
2310.42021	0.30490
2308.49165	0.30607
2306.56309	0.30712
2304.63452	0.30804
2302.70596	0.30919
2300.77739	0.31066
2298.84883	0.31217
2296.92026	0.31363
2294.99170	0.31510
2293.06313	0.31662
2291.13457	0.31816
2289.20601	0.31970
2287.27744	0.32131
2285.34888	0.32305
2283.42031	0.32481
2281.49175	0.32668
2279.56318	0.32874
2277.63462	0.33080
2275.70605	0.33291
2273.77749	0.33518
2271.84893	0.33743
2269.92036	0.33950
2267.99180	0.34146
2266.06323	0.34342
2264.13467	0.34549
2262.20610	0.34774
2260.27754	0.35000
2258.34897	0.35210
2256.42041	0.35415
2254.49185	0.35626
2252.56328	0.35846
2250.63472	0.36066
2248.70615	0.36272
2246.77759	0.36473
2244.84902	0.36692
2242.92046	0.36920
2240.99189	0.37145
2239.06333	0.37370
2237.13477	0.37594
2235.20620	0.37820
2233.27764	0.38054
2231.34907	0.38286
2229.42051	0.38510
2227.49194	0.38736
2225.56338	0.38968
2223.63481	0.39206
2221.70625	0.39431
2219.77769	0.39637
2217.84912	0.39848
2215.92056	0.40076
2213.99199	0.40307
2212.06343	0.40530
2210.13486	0.40750
2208.20630	0.40969
2206.27773	0.41170
2204.34917	0.41360
2202.42061	0.41566
2200.49204	0.41789
2198.56348	0.42001
2196.63491	0.42197
2194.70635	0.42397
2192.77778	0.42598
2190.84922	0.42789
2188.92065	0.42974
2186.99209	0.43159
2185.06353	0.43343
2183.13496	0.43525
2181.20640	0.43698
2179.27783	0.43865
2177.34927	0.44028
2175.42070	0.44182
2173.49214	0.44330
2171.56357	0.44482
2169.63501	0.44628
2167.70645	0.44756
2165.77788	0.44874
2163.84932	0.44994
2161.92075	0.45111
2159.99219	0.45228
2158.06362	0.45343
2156.13506	0.45443
2154.20649	0.45524
2152.27793	0.45602
2150.34937	0.45691
2148.42080	0.45779
2146.49224	0.45842
2144.56367	0.45878
2142.63511	0.45911
2140.70654	0.45958
2138.77798	0.46005
2136.84941	0.46038
2134.92085	0.46060
2132.99229	0.46061
2131.06372	0.46038
2129.13516	0.46016
2127.20659	0.45999
2125.27803	0.45976
2123.34946	0.45939
2121.42090	0.45886
2119.49233	0.45822
2117.56377	0.45760
2115.63521	0.45695
2113.70664	0.45625
2111.77808	0.45555
2109.84951	0.45471
2107.92095	0.45365
2105.99238	0.45253
2104.06382	0.45144
2102.13525	0.45029
2100.20669	0.44903
2098.27812	0.44762
2096.34956	0.44607
2094.42100	0.44452
2092.49243	0.44302
2090.56387	0.44142
2088.63530	0.43960
2086.70674	0.43778
2084.77817	0.43602
2082.84961	0.43418
2080.92104	0.43218
2078.99248	0.43012
2077.06392	0.42809
2075.13535	0.42597
2073.20679	0.42367
2071.27822	0.42134
2069.34966	0.41915
2067.42109	0.41701
2065.49253	0.41480
2063.56396	0.41243
2061.63540	0.40999
2059.70684	0.40756
2057.77827	0.40508
2055.84971	0.40254
2053.92114	0.39994
2051.99258	0.39729
2050.06401	0.39462
2048.13545	0.39196
2046.20688	0.38921
2044.27832	0.38648
2042.34976	0.38384
2040.42119	0.38119
2038.49263	0.37851
2036.56406	0.37584
2034.63550	0.37310
2032.70693	0.37030
2030.77837	0.36753
2028.84980	0.36482
2026.92124	0.36214
2024.99268	0.35931
2023.06411	0.35637
2021.13555	0.35351
2019.20698	0.35074
2017.27842	0.34800
2015.34985	0.34529
2013.42129	0.34257
2011.49272	0.33979
2009.56416	0.33696
2007.63560	0.33418
2005.70703	0.33150
2003.77847	0.32879
2001.84990	0.32598
1999.92134	0.32324
1997.99277	0.32064
1996.06421	0.31811
1994.13564	0.31566
1992.20708	0.31327
1990.27852	0.31080
1988.34995	0.30833
1986.42139	0.30581
1984.49282	0.30323
1982.56426	0.30072
1980.63569	0.29831
1978.70713	0.29605
1976.77856	0.29384
1974.85000	0.29154
1972.92144	0.28923
1970.99287	0.28704
1969.06431	0.28497
1967.13574	0.28301
1965.20718	0.28095
1963.27861	0.27877
1961.35005	0.27669
1959.42148	0.27477
1957.49292	0.27290
1955.56436	0.27107
1953.63579	0.26933
1951.70723	0.26762
1949.77866	0.26591
1947.85010	0.26425
1945.92153	0.26275
1943.99297	0.26139
1942.06440	0.25992
1940.13584	0.25818
1938.20728	0.25652
1936.27871	0.25508
1934.35015	0.25380
1932.42158	0.25260
1930.49302	0.25144
1928.56445	0.25036
1926.63589	0.24930
1924.70732	0.24831
1922.77876	0.24742
1920.85020	0.24646
1918.92163	0.24550
1916.99307	0.24453
1915.06450	0.24342
1913.13594	0.24242
1911.20737	0.24177
1909.27881	0.24122
1907.35024	0.24050
1905.42168	0.23969
1903.49312	0.23897
1901.56455	0.23841
1899.63599	0.23793
1897.70742	0.23752
1895.77886	0.23715
1893.85029	0.23680
1891.92173	0.23643
1889.99316	0.23621
1888.06460	0.23599
1886.13604	0.23557
1884.20747	0.23513
1882.27891	0.23488
1880.35034	0.23484
1878.42178	0.23484
1876.49321	0.23486
1874.56465	0.23486
1872.63608	0.23488
1870.70752	0.23515
1868.77896	0.23587
1866.85039	0.23624
1864.92183	0.23594
1862.99326	0.23575
1861.06470	0.23592
1859.13613	0.23631
1857.20757	0.23670
1855.27900	0.23714
1853.35044	0.23754
1851.42187	0.23799
1849.49331	0.23863
1847.56475	0.23947
1845.63618	0.24049
1843.70762	0.24167
1841.77905	0.24247
1839.85049	0.24272
1837.92192	0.24326
1835.99336	0.24415
1834.06479	0.24515
1832.13623	0.24626
1830.20767	0.24781
1828.27910	0.24932
1826.35054	0.25033
1824.42197	0.25154
1822.49341	0.25269
1820.56484	0.25376
1818.63628	0.25512
1816.70771	0.25680
1814.77915	0.25848
1812.85059	0.26026
1810.92202	0.26237
1808.99346	0.26448
1807.06489	0.26639
1805.13633	0.26826
1803.20776	0.27051
1801.27920	0.27323
1799.35063	0.27621
1797.42207	0.27871
1795.49351	0.28095
1793.56494	0.28369
1791.63638	0.28748
1789.70781	0.29109
1787.77925	0.29368
1785.85068	0.29679
1783.92212	0.30056
1781.99355	0.30458
1780.06499	0.30881
1778.13643	0.31305
1776.20786	0.31697
1774.27930	0.32130
1772.35073	0.32746
1770.42217	0.33407
1768.49360	0.33927
1766.56504	0.34429
1764.63647	0.34952
1762.70791	0.35538
1760.77935	0.36288
1758.85078	0.36980
1756.92222	0.37678
1754.99365	0.38443
1753.06509	0.39124
1751.13652	0.39945
1749.20796	0.41019
1747.27939	0.42072
1745.35083	0.42980
1743.42227	0.43939
1741.49370	0.44990
1739.56514	0.46227
1737.63657	0.47474
1735.70801	0.48561
1733.77944	0.50219
1731.85088	0.52225
1729.92231	0.53797
1727.99375	0.55398
1726.06519	0.57082
1724.13662	0.58909
1722.20806	0.60905
1720.27949	0.62748
1718.35093	0.64906
1716.42236	0.68183
1714.49380	0.71318
1712.56523	0.73789
1710.63667	0.76140
1708.70811	0.78648
1706.77954	0.81536
1704.85098	0.85075
1702.92241	0.88223
1700.99385	0.91217
1699.06528	0.95699
1697.13672	0.99845
1695.20815	1.04093
1693.27959	1.08163
1691.35103	1.11349
1689.42246	1.15027
1687.49390	1.18898
1685.56533	1.22543
1683.63677	1.28375
1681.70820	1.34654
1679.77964	1.38507
1677.85107	1.42097
1675.92251	1.46280
1673.99395	1.51589
1672.06538	1.56257
1670.13682	1.60716
1668.20825	1.66587
1666.27969	1.71232
1664.35112	1.75111
1662.42256	1.80042
1660.49399	1.85743
1658.56543	1.90091
1656.63687	1.93521
1654.70830	1.96750
1652.77974	2.02496
1650.85117	2.08298
1648.92261	2.10354
1646.99404	2.13111
1645.06548	2.16143
1643.13691	2.18205
1641.20835	2.19490
1639.27979	2.20637
1637.35122	2.21422
1635.42266	2.21895
1633.49409	2.21729
1631.56553	2.20623
1629.63696	2.19059
1627.70840	2.16414
1625.77983	2.13587
1623.85127	2.10044
1621.92271	2.05422
1619.99414	2.01253
1618.06558	1.97147
1616.13701	1.91042
1614.20845	1.84860
1612.27988	1.80273
1610.35132	1.75431
1608.42275	1.70144
1606.49419	1.64924
1604.56562	1.60133
1602.63706	1.55440
1600.70850	1.50778
1598.77993	1.46502
1596.85137	1.42477
1594.92280	1.38499
1592.99424	1.34631
1591.06567	1.31152
1589.13711	1.27909
1587.20854	1.24806
1585.27998	1.21866
1583.35142	1.19109
1581.42285	1.16581
1579.49429	1.14400
1577.56572	1.12447
1575.63716	1.10025
1573.70859	1.07849
1571.78003	1.06448
1569.85146	1.04944
1567.92290	1.03117
1565.99434	1.01642
1564.06577	1.00449
1562.13721	0.99484
1560.20864	0.98721
1558.28008	0.97431
1556.35151	0.96241
1554.42295	0.95538
1552.49438	0.94803
1550.56582	0.94014
1548.63726	0.93155
1546.70869	0.92312
1544.78013	0.91422
1542.85156	0.90418
1540.92300	0.89161
1538.99443	0.87275
1537.06587	0.85918
1535.13730	0.85033
1533.20874	0.83892
1531.28018	0.82656
1529.35161	0.81739
1527.42305	0.80891
1525.49448	0.80046
1523.56592	0.79317
1521.63735	0.78528
1519.70879	0.77642
1517.78022	0.76930
1515.85166	0.76169
1513.92310	0.75396
1511.99453	0.74766
1510.06597	0.74229
1508.13740	0.73721
1506.20884	0.72891
1504.28027	0.72143
1502.35171	0.71691
1500.42314	0.71287
1498.49458	0.70877
1496.56602	0.70412
1494.63745	0.69927
1492.70889	0.69542
1490.78032	0.69224
1488.85176	0.68871
1486.92319	0.68501
1484.99463	0.68173
1483.06606	0.67895
1481.13750	0.67652
1479.20894	0.67438
1477.28037	0.67260
1475.35181	0.67117
1473.42324	0.66967
1471.49468	0.66687
1469.56611	0.66359
1467.63755	0.66103
1465.70898	0.65902
1463.78042	0.65717
1461.85186	0.65547
1459.92329	0.65421
1457.99473	0.65336
1456.06616	0.65189
1454.13760	0.64920
1452.20903	0.64661
1450.28047	0.64433
1448.35190	0.64227
1446.42334	0.64006
1444.49478	0.63785
1442.56621	0.63592
1440.63765	0.63408
1438.70908	0.63235
1436.78052	0.63055
1434.85195	0.62843
1432.92339	0.62652
1430.99482	0.62521
1429.06626	0.62424
1427.13770	0.62334
1425.20913	0.62275
1423.28057	0.62231
1421.35200	0.62165
1419.42344	0.62104
1417.49487	0.62023
1415.56631	0.61858
1413.63774	0.61687
1411.70918	0.61555
1409.78062	0.61454
1407.85205	0.61378
1405.92349	0.61330
1403.99492	0.61269
1402.06636	0.61162
1400.13779	0.61029
1398.20923	0.60882
1396.28066	0.60732
1394.35210	0.60549
1392.42354	0.60299
1390.49497	0.60044
1388.56641	0.59828
1386.63784	0.59614
1384.70928	0.59360
1382.78071	0.59106
1380.85215	0.58886
1378.92358	0.58706
1376.99502	0.58555
1375.06646	0.58438
1373.13789	0.58353
1371.20933	0.58285
1369.28076	0.58222
1367.35220	0.58142
1365.42363	0.58043
1363.49507	0.57950
1361.56650	0.57852
1359.63794	0.57737
1357.70937	0.57630
1355.78081	0.57522
1353.85225	0.57410
1351.92368	0.57312
1349.99512	0.57217
1348.06655	0.57109
1346.13799	0.56999
1344.20942	0.56904
1342.28086	0.56835
1340.35229	0.56784
1338.42373	0.56714
1336.49517	0.56614
1334.56660	0.56513
1332.63804	0.56443
1330.70947	0.56401
1328.78091	0.56364
1326.85234	0.56331
1324.92378	0.56308
1322.99521	0.56290
1321.06665	0.56269
1319.13809	0.56249
1317.20952	0.56219
1315.28096	0.56165
1313.35239	0.56085
1311.42383	0.55989
1309.49526	0.55893
1307.56670	0.55803
1305.63813	0.55709
1303.70957	0.55615
1301.78101	0.55529
1299.85244	0.55441
1297.92388	0.55349
1295.99531	0.55253
1294.06675	0.55146
1292.13818	0.55043
1290.20962	0.54947
1288.28105	0.54847
1286.35249	0.54761
1284.42393	0.54700
1282.49536	0.54640
1280.56680	0.54569
1278.63823	0.54488
1276.70967	0.54409
1274.78110	0.54347
1272.85254	0.54296
1270.92397	0.54232
1268.99541	0.54163
1267.06685	0.54108
1265.13828	0.54049
1263.20972	0.53977
1261.28115	0.53917
1259.35259	0.53878
1257.42402	0.53850
1255.49546	0.53831
1253.56689	0.53821
1251.63833	0.53813
1249.70977	0.53810
1247.78120	0.53804
1245.85264	0.53778
1243.92407	0.53721
1241.99551	0.53645
1240.06694	0.53569
1238.13838	0.53501
1236.20981	0.53421
1234.28125	0.53308
1232.35269	0.53171
1230.42412	0.53048
1228.49556	0.52944
1226.56699	0.52840
1224.63843	0.52740
1222.70986	0.52648
1220.78130	0.52560
1218.85273	0.52473
1216.92417	0.52394
1214.99561	0.52324
1213.06704	0.52259
1211.13848	0.52193
1209.20991	0.52128
1207.28135	0.52065
1205.35278	0.51995
1203.42422	0.51930
1201.49565	0.51874
1199.56709	0.51812
1197.63853	0.51745
1195.70996	0.51687
1193.78140	0.51633
1191.85283	0.51577
1189.92427	0.51526
1187.99570	0.51485
1186.06714	0.51453
1184.13857	0.51439
1182.21001	0.51452
1180.28145	0.51490
1178.35288	0.51551
1176.42432	0.51630
1174.49575	0.51706
1172.56719	0.51755
1170.63862	0.51788
1168.71006	0.51830
1166.78149	0.51882
1164.85293	0.51932
1162.92437	0.51972
1160.99580	0.51992
1159.06724	0.51976
1157.13867	0.51932
1155.21011	0.51859
1153.28154	0.51736
1151.35298	0.51571
1149.42441	0.51380
1147.49585	0.51159
1145.56729	0.50917
1143.63872	0.50674
1141.71016	0.50448
1139.78159	0.50253
1137.85303	0.50088
1135.92446	0.49945
1133.99590	0.49818
1132.06733	0.49710
1130.13877	0.49631
1128.21021	0.49569
1126.28164	0.49500
1124.35308	0.49421
1122.42451	0.49348
1120.49595	0.49291
1118.56738	0.49253
1116.63882	0.49257
1114.71025	0.49282
1112.78169	0.49306
1110.85312	0.49338
1108.92456	0.49383
1106.99600	0.49447
1105.06743	0.49536
1103.13887	0.49642
1101.21030	0.49776
1099.28174	0.49956
1097.35317	0.50179
1095.42461	0.50447
1093.49604	0.50800
1091.56748	0.51271
1089.63892	0.51848
1087.71035	0.52506
1085.78179	0.53234
1083.85322	0.53976
1081.92466	0.54645
1079.99609	0.55196
1078.06753	0.55536
1076.13896	0.55569
1074.21040	0.55324
1072.28184	0.54869
1070.35327	0.54258
1068.42471	0.53584
1066.49614	0.52928
1064.56758	0.52322
1062.63901	0.51767
1060.71045	0.51274
1058.78188	0.50843
1056.85332	0.50450
1054.92476	0.50106
1052.99619	0.49839
1051.06763	0.49639
1049.13906	0.49486
1047.21050	0.49386
1045.28193	0.49333
1043.35337	0.49295
1041.42480	0.49257
1039.49624	0.49227
1037.56768	0.49215
1035.63911	0.49214
1033.71055	0.49188
1031.78198	0.49113
1029.85342	0.49008
1027.92485	0.48907
1025.99629	0.48827
1024.06772	0.48793
1022.13916	0.48804
1020.21060	0.48822
1018.28203	0.48840
1016.35347	0.48867
1014.42490	0.48903
1012.49634	0.48960
1010.56777	0.49033
1008.63921	0.49119
1006.71064	0.49235
1004.78208	0.49379
1002.85352	0.49568
1000.92495	0.49824
998.99639	0.50138
997.06782	0.50505
995.13926	0.50919
993.21069	0.51330
991.28213	0.51663
989.35356	0.51876
987.42500	0.51981
985.49644	0.52020
983.56787	0.52047
981.63931	0.52108
979.71074	0.52221
977.78218	0.52382
975.85361	0.52598
973.92505	0.52863
971.99648	0.53163
970.06792	0.53491
968.13936	0.53857
966.21079	0.54280
964.28223	0.54734
962.35366	0.55193
960.42510	0.55693
958.49653	0.56248
956.56797	0.56819
954.63940	0.57409
952.71084	0.58037
950.78228	0.58672
948.85371	0.59319
946.92515	0.59964
944.99658	0.60559
943.06802	0.61131
941.13945	0.61724
939.21089	0.62327
937.28232	0.62899
935.35376	0.63449
933.42520	0.64021
931.49663	0.64601
929.56807	0.65161
927.63950	0.65701
925.71094	0.66249
923.78237	0.66868
921.85381	0.67567
919.92524	0.68315
917.99668	0.69062
916.06812	0.69750
914.13955	0.70406
912.21099	0.71090
910.28242	0.71835
908.35386	0.72735
906.42529	0.73750
904.49673	0.74711
902.56816	0.75583
900.63960	0.76387
898.71104	0.77186
896.78247	0.78115
894.85391	0.79230
892.92534	0.80426
890.99678	0.81532
889.06821	0.82550
887.13965	0.83616
885.21108	0.84712
883.28252	0.85698
881.35396	0.86712
879.42539	0.87977
877.49683	0.89285
875.56826	0.90377
873.63970	0.91361
871.71113	0.92449
869.78257	0.93664
867.85400	0.94862
865.92544	0.95958
863.99687	0.97077
862.06831	0.98306
860.13975	0.99455
858.21118	1.00461
856.28262	1.01558
854.35405	1.02879
852.42549	1.04252
850.49692	1.05458
848.56836	1.06564
846.63979	1.07757
844.71123	1.09026
842.78267	1.10184
840.85410	1.11228
838.92554	1.12379
836.99697	1.13631
835.06841	1.14783
833.13984	1.15957
831.21128	1.17239
829.28271	1.18455
827.35415	1.19594
825.42559	1.20463
823.49702	1.20829
821.56846	1.21503
819.63989	1.23763
817.71133	1.26823
815.78276	1.28772
813.85420	1.29465
811.92563	1.30054
809.99707	1.31793
808.06851	1.33878
806.13994	1.34722
804.21138	1.35653
802.28281	1.37166
800.35425	1.37843
798.42568	1.39500
796.49712	1.42648
794.56855	1.43805
792.63999	1.42377
790.71143	1.40903
788.78286	1.42833
786.85430	1.48250
784.92573	1.53210
782.99717	1.57159
781.06860	1.66868
779.14004	1.84392
777.21147	1.96934
775.28291	1.91325
773.35435	1.78656
771.42578	1.75105
769.49722	1.75930
767.56865	1.70125
765.64009	1.65811
763.71152	1.70930
761.78296	1.82617
759.85439	1.62301
757.92583	1.39043
755.99727	1.35242
754.06870	1.43911
752.14014	1.43650
750.21157	1.36900
748.28301	1.35732
746.35444	1.34610
744.42588	1.27924
742.49731	1.16145
740.56875	1.01443
738.64019	0.88331
736.71162	0.75367
734.78306	0.62252
732.85449	0.53323
730.92593	0.52720
728.99736	0.68717
727.06880	0.85506
725.14023	0.58870
723.21167	0.46217
721.28311	0.57319
719.35454	0.34776
717.42598	0.23123
715.49741	0.22692
713.56885	0.37035
711.64028	0.54748
709.71172	0.54040
707.78315	0.49224
705.85459	0.49776
703.92603	0.60179
701.99746	0.76285
700.06890	0.65130
698.14033	0.46313
696.21177	0.37203
694.28320	0.35440
692.35464	0.40662
690.42607	0.46842
688.49751	0.47935
686.56895	0.49032
684.64038	0.47891
682.71182	0.41713
680.78325	0.40658
678.85469	0.47402
676.92612	0.56672
674.99756	0.55242
673.06899	0.41780
671.14043	0.29036
669.21187	0.23761
667.28330	0.25301
665.35474	0.31847
663.42617	0.39129
661.49761	0.41969
659.56904	0.42330
657.64048	0.39301
655.71191	0.36601
653.78335	0.39873
651.85479	0.46704
649.92622	0.53918
647.99766	0.55566
646.06909	0.47450
644.14053	0.43092
642.21196	0.46198
640.28340	0.47826
638.35483	0.47436
636.42627	0.54007
634.49771	0.54759
632.56914	0.40790
630.64058	0.39332
628.71201	0.55479
626.78345	0.67413
624.85488	0.58719
622.92632	0.39815
620.99775	0.26478
619.06919	0.22339
617.14062	0.23247
615.21206	0.26585
613.28350	0.32276
611.35493	0.33081
609.42637	0.31422
607.49780	0.35692
605.56924	0.39670
603.64067	0.40076
601.71211	0.42160
599.78354	0.51207
597.85498	0.72717
595.92642	0.67512
593.99785	0.45620
592.06929	0.47914
590.14072	0.83651
588.21216	1.28875
586.28359	0.63426
584.35503	0.53790
582.42646	0.60702
580.49790	0.60280
578.56934	0.50234
576.64077	0.44858
574.71221	0.43182
572.78364	0.39655
570.85508	0.34082
568.92651	0.31850
566.99795	0.36405
565.06938	0.45645
563.14082	0.47549
561.21226	0.43361
559.28369	0.40987
557.35513	0.37140
555.42656	0.37377
553.49800	0.44262
551.56943	0.47014
549.64087	0.44222
547.71230	0.45973
545.78374	0.45922
543.85518	0.38191
541.92661	0.31343
539.99805	0.27570
538.06948	0.26363
536.14092	0.28333
534.21235	0.34530
532.28379	0.41978
530.35522	0.43905
528.42666	0.35814
526.49810	0.25147
524.56953	0.20347
522.64097	0.22722
520.71240	0.31047
518.78384	0.41159
516.85527	0.41229
514.92671	0.36499
512.99814	0.39188
511.06958	0.45586
509.14102	0.41378
507.21245	0.35421
505.28389	0.35371
503.35532	0.35166
501.42676	0.33279
499.49819	0.37686
