3997.91411	0.09243
3995.98555	0.09274
3994.05698	0.09311
3992.12842	0.09349
3990.19985	0.09418
3988.27129	0.09509
3986.34272	0.09539
3984.41416	0.09535
3982.48560	0.09556
3980.55703	0.09591
3978.62847	0.09625
3976.69990	0.09638
3974.77134	0.09627
3972.84277	0.09621
3970.91421	0.09619
3968.98564	0.09630
3967.05708	0.09671
3965.12852	0.09723
3963.19995	0.09782
3961.27139	0.09826
3959.34282	0.09812
3957.41426	0.09792
3955.48569	0.09801
3953.55713	0.09826
3951.62856	0.09905
3949.70000	0.10022
3947.77144	0.10061
3945.84287	0.10008
3943.91431	0.10004
3941.98574	0.10058
3940.05718	0.10040
3938.12861	0.09963
3936.20005	0.09901
3934.27148	0.09898
3932.34292	0.09998
3930.41436	0.10089
3928.48579	0.10022
3926.55723	0.09964
3924.62866	0.10051
3922.70010	0.10123
3920.77153	0.10093
3918.84297	0.10103
3916.91440	0.10158
3914.98584	0.10098
3913.05728	0.09938
3911.12871	0.09812
3909.20015	0.09773
3907.27158	0.09888
3905.34302	0.10209
3903.41445	0.10567
3901.48589	0.10644
3899.55732	0.10468
3897.62876	0.10222
3895.70020	0.10023
3893.77163	0.10005
3891.84307	0.10153
3889.91450	0.10224
3887.98594	0.10153
3886.05737	0.10194
3884.12881	0.10330
3882.20024	0.10388
3880.27168	0.10378
3878.34312	0.10226
3876.41455	0.10075
3874.48599	0.10202
3872.55742	0.10540
3870.62886	0.10788
3868.70029	0.10778
3866.77173	0.10651
3864.84316	0.10729
3862.91460	0.10907
3860.98604	0.10806
3859.05747	0.10591
3857.12891	0.10625
3855.20034	0.10973
3853.27178	0.11520
3851.34321	0.11646
3849.41465	0.11192
3847.48608	0.10843
3845.55752	0.10756
3843.62896	0.10884
3841.70039	0.11168
3839.77183	0.11550
3837.84326	0.11853
3835.91470	0.11808
3833.98613	0.11604
3832.05757	0.11486
3830.12900	0.11408
3828.20044	0.11398
3826.27187	0.11502
3824.34331	0.11653
3822.41475	0.11924
3820.48618	0.12349
3818.55762	0.12522
3816.62905	0.12450
3814.70049	0.12317
3812.77192	0.12092
3810.84336	0.11972
3808.91479	0.12106
3806.98623	0.12489
3805.05767	0.12858
3803.12910	0.13094
3801.20054	0.13371
3799.27197	0.13493
3797.34341	0.13392
3795.41484	0.13265
3793.48628	0.13123
3791.55771	0.13061
3789.62915	0.13123
3787.70059	0.13267
3785.77202	0.13523
3783.84346	0.13807
3781.91489	0.14001
3779.98633	0.14219
3778.05776	0.14420
3776.12920	0.14413
3774.20063	0.14384
3772.27207	0.14572
3770.34351	0.14975
3768.41494	0.15350
3766.48638	0.15508
3764.55781	0.15583
3762.62925	0.15702
3760.70068	0.15991
3758.77212	0.16462
3756.84355	0.16844
3754.91499	0.17103
3752.98643	0.17565
3751.05786	0.18384
3749.12930	0.19032
3747.20073	0.19074
3745.27217	0.19126
3743.34360	0.19403
3741.41504	0.19721
3739.48647	0.20083
3737.55791	0.20645
3735.62935	0.21495
3733.70078	0.22321
3731.77222	0.22630
3729.84365	0.22722
3727.91509	0.23012
3725.98652	0.23618
3724.05796	0.24360
3722.12939	0.24957
3720.20083	0.25419
3718.27227	0.25900
3716.34370	0.26480
3714.41514	0.27223
3712.48657	0.28393
3710.55801	0.30107
3708.62944	0.31573
3706.70088	0.32505
3704.77231	0.33493
3702.84375	0.34857
3700.91519	0.36654
3698.98662	0.38475
3697.05806	0.40140
3695.12949	0.41972
3693.20093	0.44024
3691.27236	0.46380
3689.34380	0.49456
3687.41523	0.52931
3685.48667	0.55680
3683.55811	0.58097
3681.62954	0.60890
3679.70098	0.64188
3677.77241	0.67755
3675.84385	0.71985
3673.91528	0.77457
3671.98672	0.81695
3670.05815	0.85576
3668.12959	0.90957
3666.20103	0.95598
3664.27246	0.99457
3662.34390	1.03790
3660.41533	1.08583
3658.48677	1.13349
3656.55820	1.18459
3654.62964	1.24139
3652.70107	1.28845
3650.77251	1.33072
3648.84395	1.39225
3646.91538	1.46427
3644.98682	1.51088
3643.05825	1.54671
3641.12969	1.58607
3639.20112	1.63113
3637.27256	1.67737
3635.34399	1.72247
3633.41543	1.76685
3631.48687	1.80831
3629.55830	1.85208
3627.62974	1.91057
3625.70117	1.96152
3623.77261	1.99297
3621.84404	2.02450
3619.91548	2.06363
3617.98691	2.11109
3616.05835	2.15453
3614.12979	2.19078
3612.20122	2.23033
3610.27266	2.27021
3608.34409	2.31055
3606.41553	2.35410
3604.48696	2.39298
3602.55840	2.42646
3600.62983	2.46479
3598.70127	2.50823
3596.77271	2.54982
3594.84414	2.59078
3592.91558	2.63181
3590.98701	2.67032
3589.05845	2.70845
3587.12988	2.75529
3585.20132	2.80418
3583.27275	2.84250
3581.34419	2.87819
3579.41562	2.91829
3577.48706	2.96123
3575.55850	3.00452
3573.62993	3.04853
3571.70137	3.09010
3569.77280	3.12944
3567.84424	3.17339
3565.91567	3.22944
3563.98711	3.28150
3562.05854	3.32082
3560.12998	3.36084
3558.20142	3.40469
3556.27285	3.44902
3554.34429	3.49375
3552.41572	3.54288
3550.48716	3.59255
3548.55859	3.63806
3546.63003	3.68281
3544.70146	3.72976
3542.77290	3.77675
3540.84434	3.82235
3538.91577	3.86846
3536.98721	3.91561
3535.05864	3.96740
3533.13008	4.02168
3531.20151	4.07137
3529.27295	4.11617
3527.34438	4.16147
3525.41582	4.20900
3523.48726	4.25903
3521.55869	4.31157
3519.63013	4.35964
3517.70156	4.40363
3515.77300	4.44727
3513.84443	4.49156
3511.91587	4.54070
3509.98730	4.59507
3508.05874	4.64907
3506.13018	4.70012
3504.20161	4.74977
3502.27305	4.79902
3500.34448	4.84681
3498.41592	4.89293
3496.48735	4.93962
3494.55879	4.98765
3492.63022	5.03666
3490.70166	5.08614
3488.77310	5.13462
3486.84453	5.18118
3484.91597	5.22740
3482.98740	5.27527
3481.05884	5.32629
3479.13027	5.38227
3477.20171	5.44510
3475.27314	5.50810
3473.34458	5.55854
3471.41602	5.59901
3469.48745	5.64557
3467.55889	5.70104
3465.63032	5.75036
3463.70176	5.79147
3461.77319	5.83898
3459.84463	5.89793
3457.91606	5.95934
3455.98750	6.01538
3454.05894	6.06502
3452.13037	6.11579
3450.20181	6.16727
3448.27324	6.21164
3446.34468	6.26236
3444.41611	6.32466
3442.48755	6.37757
3440.55898	6.41037
3438.63042	6.43755
3436.70186	6.47160
3434.77329	6.52338
3432.84473	6.58934
3430.91616	6.65143
3428.98760	6.71560
3427.05903	6.77980
3425.13047	6.82783
3423.20190	6.85652
3421.27334	6.89871
3419.34478	6.96378
3417.41621	7.01985
3415.48765	7.06652
3413.55908	7.12116
3411.63052	7.18458
3409.70195	7.24547
3407.77339	7.29354
3405.84482	7.30103
3403.91626	7.30784
3401.98770	7.37334
3400.05913	7.47176
3398.13057	7.53043
3396.20200	7.54358
3394.27344	7.57543
3392.34487	7.62039
3390.41631	7.66590
3388.48774	7.69530
3386.55918	7.70172
3384.63062	7.71875
3382.70205	7.76072
3380.77349	7.81148
3378.84492	7.85741
3376.91636	7.92642
3374.98779	8.00867
3373.05923	8.04243
3371.13066	8.00577
3369.20210	7.96589
3367.27354	7.97116
3365.34497	8.02786
3363.41641	8.07386
3361.48784	8.09085
3359.55928	8.14136
3357.63071	8.15977
3355.70215	8.09958
3353.77358	8.02116
3351.84502	8.02378
3349.91646	8.12344
3347.98789	8.25960
3346.05933	8.36427
3344.13076	8.36200
3342.20220	8.29891
3340.27363	8.25659
3338.34507	8.23844
3336.41650	8.22812
3334.48794	8.29771
3332.55937	8.45158
3330.63081	8.57983
3328.70225	8.60794
3326.77368	8.53185
3324.84512	8.44860
3322.91655	8.43631
3320.98799	8.47448
3319.05942	8.51892
3317.13086	8.56579
3315.20229	8.57551
3313.27373	8.56485
3311.34517	8.54163
3309.41660	8.51460
3307.48804	8.53772
3305.55947	8.55157
3303.63091	8.57765
3301.70234	8.62419
3299.77378	8.57706
3297.84521	8.51961
3295.91665	8.57646
3293.98809	8.60529
3292.05952	8.52974
3290.13096	8.47421
3288.20239	8.43846
3286.27383	8.42925
3284.34526	8.49541
3282.41670	8.60665
3280.48813	8.65357
3278.55957	8.59049
3276.63101	8.56425
3274.70244	8.66907
3272.77388	8.71498
3270.84531	8.56882
3268.91675	8.41425
3266.98818	8.37075
3265.05962	8.42106
3263.13105	8.47406
3261.20249	8.47327
3259.27393	8.42653
3257.34536	8.38189
3255.41680	8.38811
3253.48823	8.43194
3251.55967	8.50342
3249.63110	8.59840
3247.70254	8.65218
3245.77397	8.62982
3243.84541	8.61007
3241.91685	8.61929
3239.98828	8.64294
3238.05972	8.69054
3236.13115	8.68917
3234.20259	8.62095
3232.27402	8.54672
3230.34546	8.44737
3228.41689	8.35359
3226.48833	8.28272
3224.55977	8.23829
3222.63120	8.29736
3220.70264	8.37685
3218.77407	8.37239
3216.84551	8.37591
3214.91694	8.37276
3212.98838	8.26214
3211.05981	8.13585
3209.13125	8.12219
3207.20269	8.17850
3205.27412	8.21397
3203.34556	8.20115
3201.41699	8.08929
3199.48843	7.92536
3197.55986	7.83829
3195.63130	7.81727
3193.70273	7.80231
3191.77417	7.78863
3189.84561	7.78337
3187.91704	7.79765
3185.98848	7.75665
3184.05991	7.62100
3182.13135	7.49737
3180.20278	7.43390
3178.27422	7.39256
3176.34565	7.35678
3174.41709	7.32956
3172.48853	7.30118
3170.55996	7.26712
3168.63140	7.20791
3166.70283	7.10935
3164.77427	7.01848
3162.84570	6.96807
3160.91714	6.91505
3158.98857	6.83106
3157.06001	6.75139
3155.13145	6.69083
3153.20288	6.63313
3151.27432	6.57631
3149.34575	6.51075
3147.41719	6.42466
3145.48862	6.33257
3143.56006	6.26007
3141.63149	6.20992
3139.70293	6.15292
3137.77437	6.07527
3135.84580	5.98829
3133.91724	5.90326
3131.98867	5.82764
3130.06011	5.75794
3128.13154	5.68109
3126.20298	5.59447
3124.27441	5.51047
3122.34585	5.43826
3120.41729	5.37579
3118.48872	5.31378
3116.56016	5.24997
3114.63159	5.18441
3112.70303	5.11084
3110.77446	5.03166
3108.84590	4.95815
3106.91733	4.89258
3104.98877	4.82720
3103.06021	4.75935
3101.13164	4.68894
3099.20308	4.61311
3097.27451	4.53381
3095.34595	4.46193
3093.41738	4.40144
3091.48882	4.34106
3089.56025	4.27538
3087.63169	4.20845
3085.70312	4.14367
3083.77456	4.08277
3081.84600	4.02270
3079.91743	3.95947
3077.98887	3.89628
3076.06030	3.83607
3074.13174	3.77619
3072.20317	3.71516
3070.27461	3.65469
3068.34604	3.59674
3066.41748	3.54164
3064.48892	3.48731
3062.56035	3.43021
3060.63179	3.37229
3058.70322	3.31723
3056.77466	3.26258
3054.84609	3.20740
3052.91753	3.15375
3050.98896	3.10100
3049.06040	3.04849
3047.13184	2.99793
3045.20327	2.94931
3043.27471	2.90053
3041.34614	2.85195
3039.41758	2.80432
3037.48901	2.75722
3035.56045	2.71084
3033.63188	2.66520
3031.70332	2.61956
3029.77476	2.57381
3027.84619	2.52914
3025.91763	2.48569
3023.98906	2.44280
3022.06050	2.40089
3020.13193	2.36019
3018.20337	2.32025
3016.27480	2.28039
3014.34624	2.24007
3012.41768	2.20011
3010.48911	2.16150
3008.56055	2.12408
3006.63198	2.08728
3004.70342	2.05096
3002.77485	2.01516
3000.84629	1.97981
2998.91772	1.94504
2996.98916	1.91147
2995.06060	1.87886
2993.13203	1.84606
2991.20347	1.81326
2989.27490	1.78136
2987.34634	1.75007
2985.41777	1.71892
2983.48921	1.68859
2981.56064	1.65933
2979.63208	1.63022
2977.70352	1.60081
2975.77495	1.57148
2973.84639	1.54295
2971.91782	1.51510
2969.98926	1.48699
2968.06069	1.45859
2966.13213	1.43061
2964.20356	1.40336
2962.27500	1.37670
2960.34644	1.35078
2958.41787	1.32552
2956.48931	1.30094
2954.56074	1.27772
2952.63218	1.25536
2950.70361	1.23300
2948.77505	1.21082
2946.84648	1.18899
2944.91792	1.16702
2942.98936	1.14431
2941.06079	1.12138
2939.13223	1.09879
2937.20366	1.07590
2935.27510	1.05217
2933.34653	1.02807
2931.41797	1.00407
2929.48940	0.98040
2927.56084	0.95721
2925.63228	0.93410
2923.70371	0.91105
2921.77515	0.88919
2919.84658	0.87008
2917.91802	0.85434
2915.98945	0.84227
2914.06089	0.83397
2912.13232	0.82771
2910.20376	0.82138
2908.27520	0.81395
2906.34663	0.80480
2904.41807	0.79389
2902.48950	0.78203
2900.56094	0.77038
2898.63237	0.75956
2896.70381	0.74894
2894.77524	0.73772
2892.84668	0.72629
2890.91812	0.71523
2888.98955	0.70462
2887.06099	0.69442
2885.13242	0.68449
2883.20386	0.67451
2881.27529	0.66429
2879.34673	0.65383
2877.41816	0.64306
2875.48960	0.63217
2873.56104	0.62154
2871.63247	0.61108
2869.70391	0.60045
2867.77534	0.58953
2865.84678	0.57813
2863.91821	0.56620
2861.98965	0.55384
2860.06108	0.54103
2858.13252	0.52783
2856.20396	0.51426
2854.27539	0.50038
2852.34683	0.48676
2850.41826	0.47532
2848.48970	0.46880
2846.56113	0.46768
2844.63257	0.46896
2842.70400	0.46962
2840.77544	0.46837
2838.84687	0.46529
2836.91831	0.46119
2834.98975	0.45646
2833.06118	0.45123
2831.13262	0.44587
2829.20405	0.44061
2827.27549	0.43521
2825.34692	0.42949
2823.41836	0.42366
2821.48979	0.41788
2819.56123	0.41215
2817.63267	0.40648
2815.70410	0.40097
2813.77554	0.39555
2811.84697	0.39018
2809.91841	0.38492
2807.98984	0.37981
2806.06128	0.37472
2804.13271	0.36956
2802.20415	0.36447
2800.27559	0.35973
2798.34702	0.35525
2796.41846	0.35060
2794.48989	0.34573
2792.56133	0.34107
2790.63276	0.33672
2788.70420	0.33243
2786.77563	0.32826
2784.84707	0.32425
2782.91851	0.32031
2780.98994	0.31646
2779.06138	0.31264
2777.13281	0.30867
2775.20425	0.30467
2773.27568	0.30091
2771.34712	0.29737
2769.41855	0.29389
2767.48999	0.29041
2765.56143	0.28704
2763.63286	0.28378
2761.70430	0.28050
2759.77573	0.27718
2757.84717	0.27405
2755.91860	0.27116
2753.99004	0.26830
2752.06147	0.26533
2750.13291	0.26221
2748.20435	0.25920
2746.27578	0.25655
2744.34722	0.25404
2742.41865	0.25143
2740.49009	0.24876
2738.56152	0.24633
2736.63296	0.24412
2734.70439	0.24168
2732.77583	0.23899
2730.84727	0.23649
2728.91870	0.23434
2726.99014	0.23236
2725.06157	0.23036
2723.13301	0.22830
2721.20444	0.22633
2719.27588	0.22443
2717.34731	0.22248
2715.41875	0.22047
2713.49019	0.21853
2711.56162	0.21675
2709.63306	0.21496
2707.70449	0.21317
2705.77593	0.21154
2703.84736	0.21007
2701.91880	0.20868
2699.99023	0.20720
2698.06167	0.20564
2696.13311	0.20420
2694.20454	0.20287
2692.27598	0.20148
2690.34741	0.20002
2688.41885	0.19858
2686.49028	0.19715
2684.56172	0.19580
2682.63315	0.19457
2680.70459	0.19345
2678.77603	0.19234
2676.84746	0.19121
2674.91890	0.19012
2672.99033	0.18901
2671.06177	0.18790
2669.13320	0.18680
2667.20464	0.18575
2665.27607	0.18477
2663.34751	0.18390
2661.41895	0.18313
2659.49038	0.18234
2657.56182	0.18153
2655.63325	0.18074
2653.70469	0.17990
2651.77612	0.17905
2649.84756	0.17839
2647.91899	0.17794
2645.99043	0.17743
2644.06187	0.17668
2642.13330	0.17592
2640.20474	0.17537
2638.27617	0.17500
2636.34761	0.17464
2634.41904	0.17423
2632.49048	0.17383
2630.56191	0.17345
2628.63335	0.17311
2626.70479	0.17285
2624.77622	0.17264
2622.84766	0.17236
2620.91909	0.17197
2618.99053	0.17168
2617.06196	0.17154
2615.13340	0.17133
2613.20483	0.17110
2611.27627	0.17097
2609.34771	0.17092
2607.41914	0.17093
2605.49058	0.17094
2603.56201	0.17094
2601.63345	0.17104
2599.70488	0.17113
2597.77632	0.17119
2595.84775	0.17128
2593.91919	0.17137
2591.99062	0.17139
2590.06206	0.17141
2588.13350	0.17150
2586.20493	0.17169
2584.27637	0.17197
2582.34780	0.17225
2580.41924	0.17251
2578.49067	0.17280
2576.56211	0.17316
2574.63354	0.17358
2572.70498	0.17400
2570.77642	0.17438
2568.84785	0.17476
2566.91929	0.17521
2564.99072	0.17567
2563.06216	0.17607
2561.13359	0.17649
2559.20503	0.17701
2557.27646	0.17760
2555.34790	0.17826
2553.41934	0.17895
2551.49077	0.17953
2549.56221	0.18008
2547.63364	0.18063
2545.70508	0.18115
2543.77651	0.18164
2541.84795	0.18215
2539.91938	0.18278
2537.99082	0.18353
2536.06226	0.18427
2534.13369	0.18500
2532.20513	0.18586
2530.27656	0.18676
2528.34800	0.18746
2526.41943	0.18803
2524.49087	0.18872
2522.56230	0.18953
2520.63374	0.19032
2518.70518	0.19100
2516.77661	0.19165
2514.84805	0.19230
2512.91948	0.19299
2510.99092	0.19386
2509.06235	0.19485
2507.13379	0.19581
2505.20522	0.19662
2503.27666	0.19736
2501.34810	0.19818
2499.41953	0.19903
2497.49097	0.19981
2495.56240	0.20067
2493.63384	0.20167
2491.70527	0.20271
2489.77671	0.20370
2487.84814	0.20465
2485.91958	0.20557
2483.99102	0.20648
2482.06245	0.20737
2480.13389	0.20818
2478.20532	0.20889
2476.27676	0.20970
2474.34819	0.21067
2472.41963	0.21167
2470.49106	0.21263
2468.56250	0.21355
2466.63394	0.21450
2464.70537	0.21553
2462.77681	0.21649
2460.84824	0.21738
2458.91968	0.21840
2456.99111	0.21950
2455.06255	0.22049
2453.13398	0.22147
2451.20542	0.22245
2449.27686	0.22346
2447.34829	0.22455
2445.41973	0.22557
2443.49116	0.22642
2441.56260	0.22727
2439.63403	0.22826
2437.70547	0.22939
2435.77690	0.23055
2433.84834	0.23168
2431.91978	0.23275
2429.99121	0.23377
2428.06265	0.23472
2426.13408	0.23566
2424.20552	0.23672
2422.27695	0.23793
2420.34839	0.23916
2418.41982	0.24026
2416.49126	0.24130
2414.56270	0.24237
2412.63413	0.24354
2410.70557	0.24477
2408.77700	0.24595
2406.84844	0.24705
2404.91987	0.24819
2402.99131	0.24945
2401.06274	0.25079
2399.13418	0.25215
2397.20562	0.25349
2395.27705	0.25482
2393.34849	0.25613
2391.41992	0.25744
2389.49136	0.25888
2387.56279	0.26090
2385.63423	0.26389
2383.70566	0.26795
2381.77710	0.27318
2379.84854	0.27957
2377.91997	0.28679
2375.99141	0.29478
2374.06284	0.30415
2372.13428	0.31521
2370.20571	0.32722
2368.27715	0.33915
2366.34858	0.35066
2364.42002	0.36079
2362.49146	0.36810
2360.56289	0.37255
2358.63433	0.37392
2356.70576	0.37117
2354.77720	0.36392
2352.84863	0.35337
2350.92007	0.34263
2348.99150	0.33622
2347.06294	0.33672
2345.13437	0.34481
2343.20581	0.35662
2341.27725	0.36389
2339.34868	0.36501
2337.42012	0.36395
2335.49155	0.36370
2333.56299	0.36406
2331.63442	0.36433
2329.70586	0.36401
2327.77729	0.36292
2325.84873	0.36122
2323.92017	0.35904
2321.99160	0.35662
2320.06304	0.35394
2318.13447	0.35088
2316.20591	0.34823
2314.27734	0.34692
2312.34878	0.34675
2310.42021	0.34669
2308.49165	0.34598
2306.56309	0.34463
2304.63452	0.34349
2302.70596	0.34324
2300.77739	0.34365
2298.84883	0.34421
2296.92026	0.34482
2294.99170	0.34552
2293.06313	0.34621
2291.13457	0.34687
2289.20601	0.34761
2287.27744	0.34844
2285.34888	0.34941
2283.42031	0.35076
2281.49175	0.35254
2279.56318	0.35466
2277.63462	0.35702
2275.70605	0.35942
2273.77749	0.36171
2271.84893	0.36386
2269.92036	0.36585
2267.99180	0.36773
2266.06323	0.36972
2264.13467	0.37186
2262.20610	0.37393
2260.27754	0.37575
2258.34897	0.37749
2256.42041	0.37934
2254.49185	0.38140
2252.56328	0.38360
2250.63472	0.38575
2248.70615	0.38778
2246.77759	0.38973
2244.84902	0.39182
2242.92046	0.39414
2240.99189	0.39657
2239.06333	0.39881
2237.13477	0.40087
2235.20620	0.40292
2233.27764	0.40504
2231.34907	0.40726
2229.42051	0.40948
2227.49194	0.41164
2225.56338	0.41385
2223.63481	0.41615
2221.70625	0.41844
2219.77769	0.42073
2217.84912	0.42296
2215.92056	0.42513
2213.99199	0.42719
2212.06343	0.42920
2210.13486	0.43139
2208.20630	0.43368
2206.27773	0.43587
2204.34917	0.43796
2202.42061	0.44005
2200.49204	0.44205
2198.56348	0.44395
2196.63491	0.44582
2194.70635	0.44770
2192.77778	0.44962
2190.84922	0.45162
2188.92065	0.45359
2186.99209	0.45539
2185.06353	0.45711
2183.13496	0.45899
2181.20640	0.46093
2179.27783	0.46261
2177.34927	0.46408
2175.42070	0.46554
2173.49214	0.46701
2171.56357	0.46856
2169.63501	0.47007
2167.70645	0.47140
2165.77788	0.47265
2163.84932	0.47390
2161.92075	0.47508
2159.99219	0.47616
2158.06362	0.47721
2156.13506	0.47825
2154.20649	0.47915
2152.27793	0.47996
2150.34937	0.48074
2148.42080	0.48146
2146.49224	0.48208
2144.56367	0.48260
2142.63511	0.48306
2140.70654	0.48340
2138.77798	0.48363
2136.84941	0.48380
2134.92085	0.48389
2132.99229	0.48387
2131.06372	0.48381
2129.13516	0.48370
2127.20659	0.48347
2125.27803	0.48316
2123.34946	0.48273
2121.42090	0.48214
2119.49233	0.48145
2117.56377	0.48080
2115.63521	0.48019
2113.70664	0.47945
2111.77808	0.47852
2109.84951	0.47746
2107.92095	0.47641
2105.99238	0.47540
2104.06382	0.47429
2102.13525	0.47297
2100.20669	0.47159
2098.27812	0.47021
2096.34956	0.46879
2094.42100	0.46727
2092.49243	0.46568
2090.56387	0.46404
2088.63530	0.46231
2086.70674	0.46049
2084.77817	0.45848
2082.84961	0.45643
2080.92104	0.45447
2078.99248	0.45255
2077.06392	0.45052
2075.13535	0.44834
2073.20679	0.44613
2071.27822	0.44395
2069.34966	0.44174
2067.42109	0.43952
2065.49253	0.43729
2063.56396	0.43483
2061.63540	0.43217
2059.70684	0.42946
2057.77827	0.42677
2055.84971	0.42420
2053.92114	0.42168
2051.99258	0.41912
2050.06401	0.41652
2048.13545	0.41397
2046.20688	0.41148
2044.27832	0.40898
2042.34976	0.40631
2040.42119	0.40338
2038.49263	0.40035
2036.56406	0.39737
2034.63550	0.39451
2032.70693	0.39174
2030.77837	0.38900
2028.84980	0.38628
2026.92124	0.38355
2024.99268	0.38076
2023.06411	0.37796
2021.13555	0.37517
2019.20698	0.37252
2017.27842	0.36991
2015.34985	0.36694
2013.42129	0.36375
2011.49272	0.36081
2009.56416	0.35818
2007.63560	0.35549
2005.70703	0.35260
2003.77847	0.34976
2001.84990	0.34714
1999.92134	0.34455
1997.99277	0.34191
1996.06421	0.33933
1994.13564	0.33701
1992.20708	0.33472
1990.27852	0.33198
1988.34995	0.32900
1986.42139	0.32624
1984.49282	0.32377
1982.56426	0.32144
1980.63569	0.31904
1978.70713	0.31660
1976.77856	0.31417
1974.85000	0.31186
1972.92144	0.30968
1970.99287	0.30760
1969.06431	0.30574
1967.13574	0.30392
1965.20718	0.30169
1963.27861	0.29927
1961.35005	0.29705
1959.42148	0.29498
1957.49292	0.29314
1955.56436	0.29145
1953.63579	0.28966
1951.70723	0.28778
1949.77866	0.28605
1947.85010	0.28455
1945.92153	0.28331
1943.99297	0.28228
1942.06440	0.28084
1940.13584	0.27873
1938.20728	0.27677
1936.27871	0.27526
1934.35015	0.27389
1932.42158	0.27256
1930.49302	0.27121
1928.56445	0.26997
1926.63589	0.26898
1924.70732	0.26842
1922.77876	0.26798
1920.85020	0.26706
1918.92163	0.26600
1916.99307	0.26499
1915.06450	0.26367
1913.13594	0.26240
1911.20737	0.26167
1909.27881	0.26115
1907.35024	0.26035
1905.42168	0.25940
1903.49312	0.25859
1901.56455	0.25786
1899.63599	0.25723
1897.70742	0.25690
1895.77886	0.25682
1893.85029	0.25658
1891.92173	0.25619
1889.99316	0.25605
1888.06460	0.25570
1886.13604	0.25506
1884.20747	0.25460
1882.27891	0.25429
1880.35034	0.25413
1878.42178	0.25410
1876.49321	0.25406
1874.56465	0.25396
1872.63608	0.25418
1870.70752	0.25513
1868.77896	0.25660
1866.85039	0.25685
1864.92183	0.25576
1862.99326	0.25507
1861.06470	0.25511
1859.13613	0.25542
1857.20757	0.25570
1855.27900	0.25601
1853.35044	0.25639
1851.42187	0.25700
1849.49331	0.25790
1847.56475	0.25914
1845.63618	0.26067
1843.70762	0.26192
1841.77905	0.26203
1839.85049	0.26178
1837.92192	0.26227
1835.99336	0.26311
1834.06479	0.26399
1832.13623	0.26536
1830.20767	0.26758
1828.27910	0.26937
1826.35054	0.27010
1824.42197	0.27094
1822.49341	0.27166
1820.56484	0.27244
1818.63628	0.27369
1816.70771	0.27530
1814.77915	0.27698
1812.85059	0.27906
1810.92202	0.28154
1808.99346	0.28354
1807.06489	0.28503
1805.13633	0.28676
1803.20776	0.28930
1801.27920	0.29247
1799.35063	0.29560
1797.42207	0.29799
1795.49351	0.30047
1793.56494	0.30382
1791.63638	0.30768
1789.70781	0.31025
1787.77925	0.31197
1785.85068	0.31491
1783.92212	0.31882
1781.99355	0.32309
1780.06499	0.32756
1778.13643	0.33180
1776.20786	0.33585
1774.27930	0.34081
1772.35073	0.34764
1770.42217	0.35392
1768.49360	0.35813
1766.56504	0.36228
1764.63647	0.36715
1762.70791	0.37312
1760.77935	0.38050
1758.85078	0.38693
1756.92222	0.39333
1754.99365	0.40028
1753.06509	0.40671
1751.13652	0.41508
1749.20796	0.42595
1747.27939	0.43604
1745.35083	0.44438
1743.42227	0.45341
1741.49370	0.46379
1739.56514	0.47657
1737.63657	0.48968
1735.70801	0.50152
1733.77944	0.51970
1731.85088	0.54048
1729.92231	0.55569
1727.99375	0.57109
1726.06519	0.58794
1724.13662	0.60675
1722.20806	0.62728
1720.27949	0.64647
1718.35093	0.66967
1716.42236	0.70419
1714.49380	0.73492
1712.56523	0.75812
1710.63667	0.78113
1708.70811	0.80696
1706.77954	0.83711
1704.85098	0.87315
1702.92241	0.90475
1700.99385	0.93579
1699.06528	0.98286
1697.13672	1.02579
1695.20815	1.06835
1693.27959	1.10847
1691.35103	1.14076
1689.42246	1.17912
1687.49390	1.21973
1685.56533	1.25847
1683.63677	1.31984
1681.70820	1.38319
1679.77964	1.42123
1677.85107	1.45748
1675.92251	1.50040
1673.99395	1.55452
1672.06538	1.60224
1670.13682	1.64946
1668.20825	1.71060
1666.27969	1.75664
1664.35112	1.79459
1662.42256	1.84434
1660.49399	1.90121
1658.56543	1.94395
1656.63687	1.97853
1654.70830	2.01216
1652.77974	2.06828
1650.85117	2.12164
1648.92261	2.14252
1646.99404	2.17218
1645.06548	2.20260
1643.13691	2.22190
1641.20835	2.23616
1639.27979	2.25188
1637.35122	2.26495
1635.42266	2.26931
1633.49409	2.25977
1631.56553	2.24534
1629.63696	2.23113
1627.70840	2.20651
1625.77983	2.17675
1623.85127	2.13900
1621.92271	2.09275
1619.99414	2.05187
1618.06558	2.01150
1616.13701	1.95123
1614.20845	1.88891
1612.27988	1.84218
1610.35132	1.79322
1608.42275	1.73943
1606.49419	1.68569
1604.56562	1.63651
1602.63706	1.58913
1600.70850	1.54209
1598.77993	1.49892
1596.85137	1.45886
1594.92280	1.41948
1592.99424	1.38070
1591.06567	1.34517
1589.13711	1.31160
1587.20854	1.27964
1585.27998	1.24967
1583.35142	1.22155
1581.42285	1.19588
1579.49429	1.17417
1577.56572	1.15481
1575.63716	1.12906
1573.70859	1.10461
1571.78003	1.08908
1569.85146	1.07284
1567.92290	1.05301
1565.99434	1.03706
1564.06577	1.02432
1562.13721	1.01443
1560.20864	1.00756
1558.28008	0.99467
1556.35151	0.97976
1554.42295	0.97009
1552.49438	0.96121
1550.56582	0.95259
1548.63726	0.94308
1546.70869	0.93421
1544.78013	0.92663
1542.85156	0.91947
1540.92300	0.91001
1538.99443	0.89128
1537.06587	0.87598
1535.13730	0.86707
1533.20874	0.85651
1531.28018	0.84461
1529.35161	0.83618
1527.42305	0.82905
1525.49448	0.82149
1523.56592	0.81472
1521.63735	0.80812
1519.70879	0.80039
1517.78022	0.79330
1515.85166	0.78530
1513.92310	0.77729
1511.99453	0.77137
1510.06597	0.76737
1508.13740	0.76480
1506.20884	0.75699
1504.28027	0.74641
1502.35171	0.74061
1500.42314	0.73678
1498.49458	0.73333
1496.56602	0.72868
1494.63745	0.72327
1492.70889	0.71961
1490.78032	0.71772
1488.85176	0.71531
1486.92319	0.71091
1484.99463	0.70650
1483.06606	0.70336
1481.13750	0.70101
1479.20894	0.69895
1477.28037	0.69760
1475.35181	0.69697
1473.42324	0.69595
1471.49468	0.69222
1469.56611	0.68724
1467.63755	0.68387
1465.70898	0.68203
1463.78042	0.68039
1461.85186	0.67885
1459.92329	0.67878
1457.99473	0.67994
1456.06616	0.67835
1454.13760	0.67393
1452.20903	0.67074
1450.28047	0.66835
1448.35190	0.66606
1446.42334	0.66345
1444.49478	0.66082
1442.56621	0.65862
1440.63765	0.65681
1438.70908	0.65554
1436.78052	0.65441
1434.85195	0.65233
1432.92339	0.65003
1430.99482	0.64855
1429.06626	0.64743
1427.13770	0.64623
1425.20913	0.64537
1423.28057	0.64482
1421.35200	0.64428
1419.42344	0.64383
1417.49487	0.64247
1415.56631	0.63991
1413.63774	0.63759
1411.70918	0.63585
1409.78062	0.63456
1407.85205	0.63371
1405.92349	0.63318
1403.99492	0.63223
1402.06636	0.63077
1400.13779	0.62959
1398.20923	0.62860
1396.28066	0.62728
1394.35210	0.62517
1392.42354	0.62233
1390.49497	0.62003
1388.56641	0.61858
1386.63784	0.61674
1384.70928	0.61407
1382.78071	0.61157
1380.85215	0.60961
1378.92358	0.60814
1376.99502	0.60730
1375.06646	0.60714
1373.13789	0.60683
1371.20933	0.60592
1369.28076	0.60505
1367.35220	0.60423
1365.42363	0.60343
1363.49507	0.60291
1361.56650	0.60189
1359.63794	0.60004
1357.70937	0.59839
1355.78081	0.59722
1353.85225	0.59625
1351.92368	0.59521
1349.99512	0.59407
1348.06655	0.59283
1346.13799	0.59156
1344.20942	0.59045
1342.28086	0.58984
1340.35229	0.58966
1338.42373	0.58892
1336.49517	0.58734
1334.56660	0.58580
1332.63804	0.58475
1330.70947	0.58408
1328.78091	0.58351
1326.85234	0.58302
1324.92378	0.58265
1322.99521	0.58238
1321.06665	0.58218
1319.13809	0.58194
1317.20952	0.58141
1315.28096	0.58067
1313.35239	0.57981
1311.42383	0.57870
1309.49526	0.57747
1307.56670	0.57625
1305.63813	0.57509
1303.70957	0.57409
1301.78101	0.57309
1299.85244	0.57200
1297.92388	0.57096
1295.99531	0.57001
1294.06675	0.56908
1292.13818	0.56818
1290.20962	0.56733
1288.28105	0.56652
1286.35249	0.56570
1284.42393	0.56493
1282.49536	0.56418
1280.56680	0.56338
1278.63823	0.56257
1276.70967	0.56177
1274.78110	0.56090
1272.85254	0.55997
1270.92397	0.55917
1268.99541	0.55860
1267.06685	0.55812
1265.13828	0.55749
1263.20972	0.55686
1261.28115	0.55650
1259.35259	0.55631
1257.42402	0.55601
1255.49546	0.55557
1253.56689	0.55519
1251.63833	0.55502
1249.70977	0.55487
1247.78120	0.55456
1245.85264	0.55427
1243.92407	0.55402
1241.99551	0.55351
1240.06694	0.55272
1238.13838	0.55176
1236.20981	0.55065
1234.28125	0.54961
1232.35269	0.54869
1230.42412	0.54763
1228.49556	0.54637
1226.56699	0.54504
1224.63843	0.54372
1222.70986	0.54255
1220.78130	0.54163
1218.85273	0.54082
1216.92417	0.53988
1214.99561	0.53880
1213.06704	0.53786
1211.13848	0.53714
1209.20991	0.53652
1207.28135	0.53593
1205.35278	0.53536
1203.42422	0.53480
1201.49565	0.53412
1199.56709	0.53328
1197.63853	0.53236
1195.70996	0.53148
1193.78140	0.53068
1191.85283	0.52997
1189.92427	0.52930
1187.99570	0.52866
1186.06714	0.52822
1184.13857	0.52805
1182.21001	0.52805
1180.28145	0.52820
1178.35288	0.52873
1176.42432	0.52967
1174.49575	0.53074
1172.56719	0.53165
1170.63862	0.53244
1168.71006	0.53337
1166.78149	0.53451
1164.85293	0.53567
1162.92437	0.53655
1160.99580	0.53716
1159.06724	0.53769
1157.13867	0.53795
1155.21011	0.53772
1153.28154	0.53698
1151.35298	0.53560
1149.42441	0.53340
1147.49585	0.53065
1145.56729	0.52777
1143.63872	0.52488
1141.71016	0.52219
1139.78159	0.52000
1137.85303	0.51842
1135.92446	0.51731
1133.99590	0.51645
1132.06733	0.51580
1130.13877	0.51542
1128.21021	0.51518
1126.28164	0.51489
1124.35308	0.51449
1122.42451	0.51403
1120.49595	0.51368
1118.56738	0.51357
1116.63882	0.51381
1114.71025	0.51439
1112.78169	0.51521
1110.85312	0.51631
1108.92456	0.51754
1106.99600	0.51842
1105.06743	0.51893
1103.13887	0.51950
1101.21030	0.52031
1099.28174	0.52140
1097.35317	0.52311
1095.42461	0.52581
1093.49604	0.52961
1091.56748	0.53465
1089.63892	0.54115
1087.71035	0.54913
1085.78179	0.55820
1083.85322	0.56733
1081.92466	0.57516
1079.99609	0.58091
1078.06753	0.58394
1076.13896	0.58371
1074.21040	0.58055
1072.28184	0.57533
1070.35327	0.56884
1068.42471	0.56176
1066.49614	0.55481
1064.56758	0.54854
1062.63901	0.54320
1060.71045	0.53870
1058.78188	0.53479
1056.85332	0.53134
1054.92476	0.52829
1052.99619	0.52572
1051.06763	0.52368
1049.13906	0.52225
1047.21050	0.52164
1045.28193	0.52200
1043.35337	0.52298
1041.42480	0.52391
1039.49624	0.52461
1037.56768	0.52506
1035.63911	0.52492
1033.71055	0.52431
1031.78198	0.52341
1029.85342	0.52186
1027.92485	0.51968
1025.99629	0.51758
1024.06772	0.51606
1022.13916	0.51506
1020.21060	0.51451
1018.28203	0.51427
1016.35347	0.51390
1014.42490	0.51350
1012.49634	0.51352
1010.56777	0.51363
1008.63921	0.51342
1006.71064	0.51346
1004.78208	0.51427
1002.85352	0.51570
1000.92495	0.51778
998.99639	0.52080
997.06782	0.52479
995.13926	0.52917
993.21069	0.53319
991.28213	0.53636
989.35356	0.53826
987.42500	0.53889
985.49644	0.53874
983.56787	0.53839
981.63931	0.53831
979.71074	0.53886
977.78218	0.54019
975.85361	0.54217
973.92505	0.54461
971.99648	0.54744
970.06792	0.55060
968.13936	0.55422
966.21079	0.55829
964.28223	0.56264
962.35366	0.56739
960.42510	0.57246
958.49653	0.57769
956.56797	0.58326
954.63940	0.58911
952.71084	0.59504
950.78228	0.60107
948.85371	0.60729
946.92515	0.61370
944.99658	0.62016
943.06802	0.62640
941.13945	0.63237
939.21089	0.63817
937.28232	0.64409
935.35376	0.64999
933.42520	0.65541
931.49663	0.66049
929.56807	0.66593
927.63950	0.67189
925.71094	0.67809
923.78237	0.68457
921.85381	0.69147
919.92524	0.69844
917.99668	0.70502
916.06812	0.71145
914.13955	0.71839
912.21099	0.72613
910.28242	0.73457
908.35386	0.74316
906.42529	0.75196
904.49673	0.76198
902.56816	0.77220
900.63960	0.78160
898.71104	0.79139
896.78247	0.80134
894.85391	0.81031
892.92534	0.81847
890.99678	0.82715
889.06821	0.83780
887.13965	0.84960
885.21108	0.86087
883.28252	0.87115
881.35396	0.88171
879.42539	0.89420
877.49683	0.90739
875.56826	0.91868
873.63970	0.92845
871.71113	0.93956
869.78257	0.95204
867.85400	0.96351
865.92544	0.97395
863.99687	0.98430
862.06831	0.99559
860.13975	1.00840
858.21118	1.02158
856.28262	1.03440
854.35405	1.04618
852.42549	1.05662
850.49692	1.06713
848.56836	1.07853
846.63979	1.09091
844.71123	1.10359
842.78267	1.11547
840.85410	1.12689
838.92554	1.13786
836.99697	1.14981
835.06841	1.16269
833.13984	1.17238
831.21128	1.17967
829.28271	1.18997
827.35415	1.20441
825.42559	1.22035
823.49702	1.23890
821.56846	1.25870
819.63989	1.27276
817.71133	1.28104
815.78276	1.28846
813.85420	1.29614
811.92563	1.30157
809.99707	1.30511
808.06851	1.32273
806.13994	1.36707
804.21138	1.41031
802.28281	1.43074
800.35425	1.45582
798.42568	1.49669
796.49712	1.51889
794.56855	1.50515
792.63999	1.50130
790.71143	1.52493
788.78286	1.54443
786.85430	1.54094
784.92573	1.56038
782.99717	1.66049
781.06860	1.76180
779.14004	1.72902
777.21147	1.70115
775.28291	1.73788
773.35435	1.81301
771.42578	1.98941
769.49722	2.14933
767.56865	2.13464
765.64009	1.95220
763.71152	1.91200
761.78296	2.53690
759.85439	2.24646
757.92583	1.75718
755.99727	1.68141
754.06870	1.65911
752.14014	1.51426
750.21157	1.25978
748.28301	1.11801
746.35444	1.04258
744.42588	0.98613
742.49731	0.96002
740.56875	0.96340
738.64019	1.03835
736.71162	1.18031
734.78306	1.18534
732.85449	1.05039
730.92593	0.95930
728.99736	0.74769
727.06880	0.43752
725.14023	0.17248
723.21167	0.03343
721.28311	-0.01547
719.35454	-0.12467
717.42598	-0.29835
715.49741	-0.24255
713.56885	-0.27535
711.64028	-0.42014
709.71172	-0.56058
707.78315	-0.21336
705.85459	0.24006
703.92603	0.27927
701.99746	0.23446
700.06890	0.24043
698.14033	0.26722
696.21177	0.34642
694.28320	0.49279
692.35464	0.78131
690.42607	1.00262
688.49751	0.55333
686.56895	0.41487
684.64038	0.40618
682.71182	0.39024
680.78325	0.40540
678.85469	0.47415
676.92612	0.56533
674.99756	0.70820
673.06899	1.09381
671.14043	0.65869
669.21187	0.33589
667.28330	0.26136
665.35474	0.27202
663.42617	0.23301
661.49761	0.22206
659.56904	0.29236
657.64048	0.39453
655.71191	0.46253
653.78335	0.53428
651.85479	0.56035
649.92622	0.43374
647.99766	0.31724
646.06909	0.26280
644.14053	0.24253
642.21196	0.24021
640.28340	0.23313
638.35483	0.25494
636.42627	0.35579
634.49771	0.42664
632.56914	0.38601
630.64058	0.34216
628.71201	0.35927
626.78345	0.39620
624.85488	0.36385
622.92632	0.29228
620.99775	0.27568
619.06919	0.31987
617.14062	0.31757
615.21206	0.24320
613.28350	0.21697
611.35493	0.26185
609.42637	0.31019
607.49780	0.34693
605.56924	0.38348
603.64067	0.36012
601.71211	0.28627
599.78354	0.22127
597.85498	0.20459
595.92642	0.22777
593.99785	0.24838
592.06929	0.23822
590.14072	0.20301
588.21216	0.19361
586.28359	0.24446
584.35503	0.30868
582.42646	0.34934
580.49790	0.39348
578.56934	0.42869
576.64077	0.40008
574.71221	0.38431
572.78364	0.44718
570.85508	0.43019
568.92651	0.29538
566.99795	0.21745
565.06938	0.24002
563.14082	0.32282
561.21226	0.38119
559.28369	0.37263
557.35513	0.33219
555.42656	0.28222
553.49800	0.23699
551.56943	0.22370
549.64087	0.22680
547.71230	0.27538
545.78374	0.36779
543.85518	0.35756
541.92661	0.26105
539.99805	0.20981
538.06948	0.21376
536.14092	0.23818
534.21235	0.25291
532.28379	0.21133
530.35522	0.17198
528.42666	0.22533
526.49810	0.36366
524.56953	0.45420
522.64097	0.40244
520.71240	0.33764
518.78384	0.34757
516.85527	0.40612
514.92671	0.37510
512.99814	0.27545
511.06958	0.26386
509.14102	0.31522
507.21245	0.33430
505.28389	0.30396
503.35532	0.28189
501.42676	0.26961
499.49819	0.26581
