3997.91411	0.03308
3995.98555	0.03346
3994.05698	0.03409
3992.12842	0.03487
3990.19985	0.03556
3988.27129	0.03602
3986.34272	0.03623
3984.41416	0.03641
3982.48560	0.03671
3980.55703	0.03714
3978.62847	0.03751
3976.69990	0.03759
3974.77134	0.03766
3972.84277	0.03797
3970.91421	0.03821
3968.98564	0.03821
3967.05708	0.03838
3965.12852	0.03876
3963.19995	0.03907
3961.27139	0.03931
3959.34282	0.03941
3957.41426	0.03947
3955.48569	0.03974
3953.55713	0.04015
3951.62856	0.04094
3949.70000	0.04219
3947.77144	0.04277
3945.84287	0.04221
3943.91431	0.04221
3941.98574	0.04303
3940.05718	0.04290
3938.12861	0.04204
3936.20005	0.04182
3934.27148	0.04251
3932.34292	0.04399
3930.41436	0.04493
3928.48579	0.04395
3926.55723	0.04298
3924.62866	0.04378
3922.70010	0.04467
3920.77153	0.04433
3918.84297	0.04412
3916.91440	0.04442
3914.98584	0.04377
3913.05728	0.04185
3911.12871	0.04026
3909.20015	0.04007
3907.27158	0.04168
3905.34302	0.04534
3903.41445	0.04945
3901.48589	0.05080
3899.55732	0.04945
3897.62876	0.04694
3895.70020	0.04456
3893.77163	0.04423
3891.84307	0.04588
3889.91450	0.04643
3887.98594	0.04521
3886.05737	0.04559
3884.12881	0.04732
3882.20024	0.04805
3880.27168	0.04832
3878.34312	0.04720
3876.41455	0.04544
3874.48599	0.04627
3872.55742	0.04945
3870.62886	0.05270
3868.70029	0.05364
3866.77173	0.05207
3864.84316	0.05237
3862.91460	0.05417
3860.98604	0.05280
3859.05747	0.05016
3857.12891	0.05042
3855.20034	0.05450
3853.27178	0.06151
3851.34321	0.06336
3849.41465	0.05738
3847.48608	0.05273
3845.55752	0.05175
3843.62896	0.05376
3841.70039	0.05748
3839.77183	0.06182
3837.84326	0.06517
3835.91470	0.06503
3833.98613	0.06284
3832.05757	0.06122
3830.12900	0.06028
3828.20044	0.06014
3826.27187	0.06117
3824.34331	0.06283
3822.41475	0.06576
3820.48618	0.07044
3818.55762	0.07229
3816.62905	0.07132
3814.70049	0.06970
3812.77192	0.06689
3810.84336	0.06520
3808.91479	0.06641
3806.98623	0.07047
3805.05767	0.07446
3803.12910	0.07686
3801.20054	0.07999
3799.27197	0.08162
3797.34341	0.08061
3795.41484	0.07929
3793.48628	0.07757
3791.55771	0.07652
3789.62915	0.07686
3787.70059	0.07842
3785.77202	0.08131
3783.84346	0.08413
3781.91489	0.08586
3779.98633	0.08828
3778.05776	0.09088
3776.12920	0.09122
3774.20063	0.09112
3772.27207	0.09308
3770.34351	0.09733
3768.41494	0.10137
3766.48638	0.10319
3764.55781	0.10417
3762.62925	0.10513
3760.70068	0.10755
3758.77212	0.11210
3756.84355	0.11602
3754.91499	0.11866
3752.98643	0.12342
3751.05786	0.13224
3749.12930	0.13972
3747.20073	0.14071
3745.27217	0.14182
3743.34360	0.14526
3741.41504	0.14800
3739.48647	0.15092
3737.55791	0.15670
3735.62935	0.16615
3733.70078	0.17491
3731.77222	0.17742
3729.84365	0.17804
3727.91509	0.18127
3725.98652	0.18793
3724.05796	0.19563
3722.12939	0.20161
3720.20083	0.20627
3718.27227	0.21046
3716.34370	0.21512
3714.41514	0.22205
3712.48657	0.23460
3710.55801	0.25337
3708.62944	0.26827
3706.70088	0.27668
3704.77231	0.28607
3702.84375	0.29974
3700.91519	0.31785
3698.98662	0.33593
3697.05806	0.35237
3695.12949	0.37069
3693.20093	0.39153
3691.27236	0.41595
3689.34380	0.44753
3687.41523	0.48186
3685.48667	0.50850
3683.55811	0.53213
3681.62954	0.55954
3679.70098	0.59226
3677.77241	0.62827
3675.84385	0.67144
3673.91528	0.72707
3671.98672	0.76961
3670.05815	0.80813
3668.12959	0.86155
3666.20103	0.90792
3664.27246	0.94672
3662.34390	0.99003
3660.41533	1.03801
3658.48677	1.08622
3656.55820	1.13808
3654.62964	1.19528
3652.70107	1.24286
3650.77251	1.28654
3648.84395	1.35031
3646.91538	1.42397
3644.98682	1.47004
3643.05825	1.50469
3641.12969	1.54349
3639.20112	1.58843
3637.27256	1.63474
3635.34399	1.68064
3633.41543	1.72653
3631.48687	1.76973
3629.55830	1.81564
3627.62974	1.87502
3625.70117	1.92456
3623.77261	1.95572
3621.84404	1.98785
3619.91548	2.02768
3617.98691	2.07682
3616.05835	2.12213
3614.12979	2.15902
3612.20122	2.19770
3610.27266	2.23686
3608.34409	2.27857
3606.41553	2.32273
3604.48696	2.36154
3602.55840	2.39764
3600.62983	2.43868
3598.70127	2.48164
3596.77271	2.52239
3594.84414	2.56484
3592.91558	2.60773
3590.98701	2.64657
3589.05845	2.68404
3587.12988	2.73001
3585.20132	2.77915
3583.27275	2.81905
3581.34419	2.85630
3579.41562	2.89773
3577.48706	2.94162
3575.55850	2.98462
3573.62993	3.02888
3571.70137	3.07347
3569.77280	3.11676
3567.84424	3.16318
3565.91567	3.21928
3563.98711	3.27066
3562.05854	3.31062
3560.12998	3.35153
3558.20142	3.39502
3556.27285	3.43869
3554.34429	3.48332
3552.41572	3.53143
3550.48716	3.58070
3548.55859	3.62789
3546.63003	3.67636
3544.70146	3.72860
3542.77290	3.77634
3540.84434	3.81783
3538.91577	3.86208
3536.98721	3.91192
3535.05864	3.96376
3533.13008	4.01246
3531.20151	4.06037
3529.27295	4.11202
3527.34438	4.16699
3525.41582	4.21750
3523.48726	4.26306
3521.55869	4.30933
3519.63013	4.35549
3517.70156	4.40498
3515.77300	4.45720
3513.84443	4.50695
3511.91587	4.55487
3509.98730	4.60524
3508.05874	4.65618
3506.13018	4.70356
3504.20161	4.75245
3502.27305	4.80679
3500.34448	4.86057
3498.41592	4.90811
3496.48735	4.95286
3494.55879	4.99927
3492.63022	5.04924
3490.70166	5.10015
3488.77310	5.14788
3486.84453	5.19336
3484.91597	5.24098
3482.98740	5.29212
3481.05884	5.34449
3479.13027	5.39836
3477.20171	5.45002
3475.27314	5.49143
3473.34458	5.52937
3471.41602	5.58006
3469.48745	5.64071
3467.55889	5.69194
3465.63032	5.73547
3463.70176	5.78578
3461.77319	5.83551
3459.84463	5.88289
3457.91606	5.93214
3455.98750	5.98378
3454.05894	6.04177
3452.13037	6.09508
3450.20181	6.13881
3448.27324	6.19429
3446.34468	6.25905
3444.41611	6.30162
3442.48755	6.34361
3440.55898	6.40768
3438.63042	6.46212
3436.70186	6.49244
3434.77329	6.53400
3432.84473	6.60319
3430.91616	6.66988
3428.98760	6.72839
3427.05903	6.79186
3425.13047	6.84542
3423.20190	6.87773
3421.27334	6.91199
3419.34478	6.95094
3417.41621	6.99202
3415.48765	7.03397
3413.55908	7.06467
3411.63052	7.10814
3409.70195	7.16838
3407.77339	7.23535
3405.84482	7.30482
3403.91626	7.36484
3401.98770	7.40971
3400.05913	7.44022
3398.13057	7.45742
3396.20200	7.49520
3394.27344	7.55326
3392.34487	7.57133
3390.41631	7.58989
3388.48774	7.65490
3386.55918	7.74818
3384.63062	7.80930
3382.70205	7.82708
3380.77349	7.87339
3378.84492	7.92179
3376.91636	7.90262
3374.98779	7.88170
3373.05923	7.95516
3371.13066	8.02215
3369.20210	7.98876
3367.27354	7.94765
3365.34497	7.97002
3363.41641	7.99029
3361.48784	7.97498
3359.55928	8.00757
3357.63071	8.06537
3355.70215	8.08929
3353.77358	8.07592
3351.84502	8.07858
3349.91646	8.15640
3347.98789	8.28319
3346.05933	8.36287
3344.13076	8.33561
3342.20220	8.26789
3340.27363	8.24393
3338.34507	8.23799
3336.41650	8.18743
3334.48794	8.18167
3332.55937	8.22643
3330.63081	8.19804
3328.70225	8.16556
3326.77368	8.25078
3324.84512	8.39670
3322.91655	8.52609
3320.98799	8.58140
3319.05942	8.51104
3317.13086	8.44927
3315.20229	8.45566
3313.27373	8.51989
3311.34517	8.57413
3309.41660	8.50659
3307.48804	8.39785
3305.55947	8.36078
3303.63091	8.39629
3301.70234	8.44862
3299.77378	8.52062
3297.84521	8.59310
3295.91665	8.58412
3293.98809	8.45365
3292.05952	8.33879
3290.13096	8.38415
3288.20239	8.47258
3286.27383	8.41648
3284.34526	8.36942
3282.41670	8.49791
3280.48813	8.60662
3278.55957	8.55929
3276.63101	8.48380
3274.70244	8.47497
3272.77388	8.56450
3270.84531	8.62086
3268.91675	8.54112
3266.98818	8.46832
3265.05962	8.49775
3263.13105	8.49824
3261.20249	8.42785
3259.27393	8.43133
3257.34536	8.49012
3255.41680	8.45460
3253.48823	8.40821
3251.55967	8.47832
3249.63110	8.53033
3247.70254	8.44348
3245.77397	8.35928
3243.84541	8.40045
3241.91685	8.48019
3239.98828	8.47881
3238.05972	8.40781
3236.13115	8.37925
3234.20259	8.41328
3232.27402	8.39284
3230.34546	8.36973
3228.41689	8.42877
3226.48833	8.45046
3224.55977	8.35382
3222.63120	8.27332
3220.70264	8.31207
3218.77407	8.40600
3216.84551	8.43847
3214.91694	8.42166
3212.98838	8.38658
3211.05981	8.29153
3209.13125	8.17005
3207.20269	8.06748
3205.27412	7.99406
3203.34556	7.95223
3201.41699	7.93783
3199.48843	7.96078
3197.55986	7.97083
3195.63130	7.90849
3193.70273	7.82826
3191.77417	7.76155
3189.84561	7.68309
3187.91704	7.60018
3185.98848	7.54434
3184.05991	7.54163
3182.13135	7.55539
3180.20278	7.51770
3178.27422	7.43400
3176.34565	7.36330
3174.41709	7.32591
3172.48853	7.27921
3170.55996	7.20637
3168.63140	7.14023
3166.70283	7.08769
3164.77427	7.01940
3162.84570	6.92148
3160.91714	6.83543
3158.98857	6.78113
3157.06001	6.70822
3155.13145	6.61824
3153.20288	6.55308
3151.27432	6.49666
3149.34575	6.43196
3147.41719	6.36477
3145.48862	6.28880
3143.56006	6.20422
3141.63149	6.12545
3139.70293	6.05711
3137.77437	5.98928
3135.84580	5.91481
3133.91724	5.83767
3131.98867	5.76135
3130.06011	5.68845
3128.13154	5.62437
3126.20298	5.56116
3124.27441	5.48709
3122.34585	5.40929
3120.41729	5.33199
3118.48872	5.25148
3116.56016	5.17750
3114.63159	5.11151
3112.70303	5.04393
3110.77446	4.97734
3108.84590	4.91341
3106.91733	4.84508
3104.98877	4.77407
3103.06021	4.70936
3101.13164	4.64928
3099.20308	4.58705
3097.27451	4.51856
3095.34595	4.44489
3093.41738	4.37489
3091.48882	4.31194
3089.56025	4.25163
3087.63169	4.18983
3085.70312	4.12421
3083.77456	4.05959
3081.84600	4.00017
3079.91743	3.93970
3077.98887	3.87736
3076.06030	3.81938
3074.13174	3.76310
3072.20317	3.70483
3070.27461	3.64808
3068.34604	3.59341
3066.41748	3.53804
3064.48892	3.48293
3062.56035	3.42899
3060.63179	3.37521
3058.70322	3.32116
3056.77466	3.26680
3054.84609	3.21236
3052.91753	3.15869
3050.98896	3.10717
3049.06040	3.05781
3047.13184	3.00893
3045.20327	2.95989
3043.27471	2.91167
3041.34614	2.86410
3039.41758	2.81640
3037.48901	2.76894
3035.56045	2.72206
3033.63188	2.67609
3031.70332	2.63148
3029.77476	2.58806
3027.84619	2.54534
3025.91763	2.50271
3023.98906	2.45973
3022.06050	2.41648
3020.13193	2.37372
3018.20337	2.33270
3016.27480	2.29329
3014.34624	2.25446
3012.41768	2.21575
3010.48911	2.17677
3008.56055	2.13813
3006.63198	2.10096
3004.70342	2.06525
3002.77485	2.03046
3000.84629	1.99634
2998.91772	1.96305
2996.98916	1.93061
2995.06060	1.89884
2993.13203	1.86757
2991.20347	1.83697
2989.27490	1.80737
2987.34634	1.77857
2985.41777	1.75020
2983.48921	1.72232
2981.56064	1.69485
2979.63208	1.66798
2977.70352	1.64222
2975.77495	1.61716
2973.84639	1.59210
2971.91782	1.56725
2969.98926	1.54264
2968.06069	1.51779
2966.13213	1.49304
2964.20356	1.46892
2962.27500	1.44465
2960.34644	1.41948
2958.41787	1.39422
2956.48931	1.36972
2954.56074	1.34576
2952.63218	1.32222
2950.70361	1.29888
2948.77505	1.27516
2946.84648	1.25148
2944.91792	1.22857
2942.98936	1.20620
2941.06079	1.18402
2939.13223	1.16170
2937.20366	1.13887
2935.27510	1.11550
2933.34653	1.09158
2931.41797	1.06740
2929.48940	1.04346
2927.56084	1.01914
2925.63228	0.99358
2923.70371	0.96744
2921.77515	0.94183
2919.84658	0.91794
2917.91802	0.89751
2915.98945	0.88239
2914.06089	0.87351
2912.13232	0.86849
2910.20376	0.86251
2908.27520	0.85364
2906.34663	0.84342
2904.41807	0.83273
2902.48950	0.82124
2900.56094	0.80889
2898.63237	0.79605
2896.70381	0.78341
2894.77524	0.77162
2892.84668	0.76046
2890.91812	0.74932
2888.98955	0.73831
2887.06099	0.72810
2885.13242	0.71906
2883.20386	0.71069
2881.27529	0.70224
2879.34673	0.69346
2877.41816	0.68437
2875.48960	0.67490
2873.56104	0.66479
2871.63247	0.65379
2869.70391	0.64198
2867.77534	0.62945
2865.84678	0.61614
2863.91821	0.60225
2861.98965	0.58767
2860.06108	0.57236
2858.13252	0.55691
2856.20396	0.54127
2854.27539	0.52499
2852.34683	0.50824
2850.41826	0.49324
2848.48970	0.48382
2846.56113	0.48175
2844.63257	0.48422
2842.70400	0.48653
2840.77544	0.48628
2838.84687	0.48402
2836.91831	0.48074
2834.98975	0.47647
2833.06118	0.47136
2831.13262	0.46587
2829.20405	0.46036
2827.27549	0.45493
2825.34692	0.44931
2823.41836	0.44342
2821.48979	0.43743
2819.56123	0.43148
2817.63267	0.42562
2815.70410	0.41987
2813.77554	0.41421
2811.84697	0.40853
2809.91841	0.40291
2807.98984	0.39745
2806.06128	0.39208
2804.13271	0.38671
2802.20415	0.38135
2800.27559	0.37606
2798.34702	0.37089
2796.41846	0.36580
2794.48989	0.36070
2792.56133	0.35568
2790.63276	0.35084
2788.70420	0.34625
2786.77563	0.34183
2784.84707	0.33750
2782.91851	0.33323
2780.98994	0.32895
2779.06138	0.32462
2777.13281	0.32036
2775.20425	0.31614
2773.27568	0.31192
2771.34712	0.30783
2769.41855	0.30400
2767.48999	0.30030
2765.56143	0.29667
2763.63286	0.29310
2761.70430	0.28948
2759.77573	0.28573
2757.84717	0.28212
2755.91860	0.27887
2753.99004	0.27578
2752.06147	0.27261
2750.13291	0.26921
2748.20435	0.26588
2746.27578	0.26299
2744.34722	0.26018
2742.41865	0.25707
2740.49009	0.25393
2738.56152	0.25114
2736.63296	0.24860
2734.70439	0.24594
2732.77583	0.24316
2730.84727	0.24046
2728.91870	0.23789
2726.99014	0.23547
2725.06157	0.23317
2723.13301	0.23085
2721.20444	0.22860
2719.27588	0.22646
2717.34731	0.22422
2715.41875	0.22184
2713.49019	0.21949
2711.56162	0.21741
2709.63306	0.21558
2707.70449	0.21390
2705.77593	0.21231
2703.84736	0.21065
2701.91880	0.20888
2699.99023	0.20718
2698.06167	0.20559
2696.13311	0.20413
2694.20454	0.20265
2692.27598	0.20097
2690.34741	0.19920
2688.41885	0.19759
2686.49028	0.19616
2684.56172	0.19486
2682.63315	0.19373
2680.70459	0.19265
2678.77603	0.19127
2676.84746	0.18970
2674.91890	0.18825
2672.99033	0.18694
2671.06177	0.18571
2669.13320	0.18446
2667.20464	0.18333
2665.27607	0.18236
2663.34751	0.18136
2661.41895	0.18029
2659.49038	0.17933
2657.56182	0.17854
2655.63325	0.17772
2653.70469	0.17670
2651.77612	0.17559
2649.84756	0.17469
2647.91899	0.17400
2645.99043	0.17321
2644.06187	0.17233
2642.13330	0.17153
2640.20474	0.17088
2638.27617	0.17039
2636.34761	0.16989
2634.41904	0.16931
2632.49048	0.16885
2630.56191	0.16840
2628.63335	0.16779
2626.70479	0.16708
2624.77622	0.16646
2622.84766	0.16599
2620.91909	0.16565
2618.99053	0.16537
2617.06196	0.16505
2615.13340	0.16467
2613.20483	0.16428
2611.27627	0.16395
2609.34771	0.16380
2607.41914	0.16378
2605.49058	0.16366
2603.56201	0.16342
2601.63345	0.16330
2599.70488	0.16319
2597.77632	0.16302
2595.84775	0.16286
2593.91919	0.16269
2591.99062	0.16259
2590.06206	0.16275
2588.13350	0.16302
2586.20493	0.16311
2584.27637	0.16301
2582.34780	0.16291
2580.41924	0.16306
2578.49067	0.16350
2576.56211	0.16398
2574.63354	0.16433
2572.70498	0.16461
2570.77642	0.16485
2568.84785	0.16517
2566.91929	0.16556
2564.99072	0.16595
2563.06216	0.16629
2561.13359	0.16654
2559.20503	0.16679
2557.27646	0.16715
2555.34790	0.16762
2553.41934	0.16816
2551.49077	0.16868
2549.56221	0.16914
2547.63364	0.16960
2545.70508	0.17013
2543.77651	0.17066
2541.84795	0.17116
2539.91938	0.17163
2537.99082	0.17221
2536.06226	0.17290
2534.13369	0.17355
2532.20513	0.17421
2530.27656	0.17489
2528.34800	0.17548
2526.41943	0.17605
2524.49087	0.17673
2522.56230	0.17751
2520.63374	0.17830
2518.70518	0.17905
2516.77661	0.17974
2514.84805	0.18040
2512.91948	0.18109
2510.99092	0.18187
2509.06235	0.18274
2507.13379	0.18362
2505.20522	0.18438
2503.27666	0.18508
2501.34810	0.18588
2499.41953	0.18668
2497.49097	0.18738
2495.56240	0.18812
2493.63384	0.18899
2491.70527	0.18988
2489.77671	0.19067
2487.84814	0.19152
2485.91958	0.19253
2483.99102	0.19348
2482.06245	0.19425
2480.13389	0.19497
2478.20532	0.19569
2476.27676	0.19646
2474.34819	0.19734
2472.41963	0.19825
2470.49106	0.19915
2468.56250	0.20002
2466.63394	0.20087
2464.70537	0.20175
2462.77681	0.20267
2460.84824	0.20359
2458.91968	0.20450
2456.99111	0.20541
2455.06255	0.20632
2453.13398	0.20719
2451.20542	0.20803
2449.27686	0.20896
2447.34829	0.21002
2445.41973	0.21104
2443.49116	0.21195
2441.56260	0.21287
2439.63403	0.21384
2437.70547	0.21477
2435.77690	0.21583
2433.84834	0.21702
2431.91978	0.21805
2429.99121	0.21893
2428.06265	0.21979
2426.13408	0.22075
2424.20552	0.22185
2422.27695	0.22304
2420.34839	0.22418
2418.41982	0.22521
2416.49126	0.22619
2414.56270	0.22722
2412.63413	0.22835
2410.70557	0.22949
2408.77700	0.23063
2406.84844	0.23184
2404.91987	0.23308
2402.99131	0.23427
2401.06274	0.23547
2399.13418	0.23664
2397.20562	0.23783
2395.27705	0.23905
2393.34849	0.24023
2391.41992	0.24150
2389.49136	0.24311
2387.56279	0.24534
2385.63423	0.24870
2383.70566	0.25373
2381.77710	0.26046
2379.84854	0.26856
2377.91997	0.27779
2375.99141	0.28818
2374.06284	0.30009
2372.13428	0.31380
2370.20571	0.32903
2368.27715	0.34500
2366.34858	0.36058
2364.42002	0.37424
2362.49146	0.38483
2360.56289	0.39115
2358.63433	0.39096
2356.70576	0.38430
2354.77720	0.37367
2352.84863	0.35996
2350.92007	0.34526
2348.99150	0.33616
2347.06294	0.33675
2345.13437	0.34760
2343.20581	0.36268
2341.27725	0.37055
2339.34868	0.37075
2337.42012	0.36917
2335.49155	0.36798
2333.56299	0.36738
2331.63442	0.36780
2329.70586	0.36777
2327.77729	0.36586
2325.84873	0.36247
2323.92017	0.35880
2321.99160	0.35532
2320.06304	0.35124
2318.13447	0.34643
2316.20591	0.34214
2314.27734	0.33943
2312.34878	0.33826
2310.42021	0.33763
2308.49165	0.33629
2306.56309	0.33395
2304.63452	0.33163
2302.70596	0.33036
2300.77739	0.33010
2298.84883	0.33020
2296.92026	0.33036
2294.99170	0.33061
2293.06313	0.33087
2291.13457	0.33107
2289.20601	0.33141
2287.27744	0.33183
2285.34888	0.33236
2283.42031	0.33335
2281.49175	0.33497
2279.56318	0.33708
2277.63462	0.33942
2275.70605	0.34181
2273.77749	0.34413
2271.84893	0.34634
2269.92036	0.34839
2267.99180	0.35033
2266.06323	0.35223
2264.13467	0.35409
2262.20610	0.35598
2260.27754	0.35782
2258.34897	0.35954
2256.42041	0.36132
2254.49185	0.36327
2252.56328	0.36524
2250.63472	0.36724
2248.70615	0.36924
2246.77759	0.37126
2244.84902	0.37336
2242.92046	0.37555
2240.99189	0.37776
2239.06333	0.37987
2237.13477	0.38193
2235.20620	0.38400
2233.27764	0.38608
2231.34907	0.38819
2229.42051	0.39032
2227.49194	0.39250
2225.56338	0.39482
2223.63481	0.39716
2221.70625	0.39939
2219.77769	0.40158
2217.84912	0.40379
2215.92056	0.40593
2213.99199	0.40792
2212.06343	0.40994
2210.13486	0.41211
2208.20630	0.41430
2206.27773	0.41644
2204.34917	0.41857
2202.42061	0.42058
2200.49204	0.42245
2198.56348	0.42429
2196.63491	0.42618
2194.70635	0.42820
2192.77778	0.43026
2190.84922	0.43221
2188.92065	0.43406
2186.99209	0.43586
2185.06353	0.43754
2183.13496	0.43921
2181.20640	0.44097
2179.27783	0.44274
2177.34927	0.44438
2175.42070	0.44587
2173.49214	0.44736
2171.56357	0.44887
2169.63501	0.45031
2167.70645	0.45158
2165.77788	0.45269
2163.84932	0.45378
2161.92075	0.45494
2159.99219	0.45614
2158.06362	0.45723
2156.13506	0.45825
2154.20649	0.45925
2152.27793	0.46013
2150.34937	0.46077
2148.42080	0.46135
2146.49224	0.46189
2144.56367	0.46230
2142.63511	0.46270
2140.70654	0.46316
2138.77798	0.46347
2136.84941	0.46363
2134.92085	0.46380
2132.99229	0.46386
2131.06372	0.46373
2129.13516	0.46355
2127.20659	0.46333
2125.27803	0.46303
2123.34946	0.46265
2121.42090	0.46221
2119.49233	0.46161
2117.56377	0.46095
2115.63521	0.46035
2113.70664	0.45970
2111.77808	0.45884
2109.84951	0.45774
2107.92095	0.45653
2105.99238	0.45537
2104.06382	0.45427
2102.13525	0.45314
2100.20669	0.45198
2098.27812	0.45064
2096.34956	0.44913
2094.42100	0.44757
2092.49243	0.44598
2090.56387	0.44441
2088.63530	0.44271
2086.70674	0.44078
2084.77817	0.43873
2082.84961	0.43675
2080.92104	0.43482
2078.99248	0.43289
2077.06392	0.43095
2075.13535	0.42892
2073.20679	0.42676
2071.27822	0.42450
2069.34966	0.42225
2067.42109	0.42014
2065.49253	0.41805
2063.56396	0.41564
2061.63540	0.41299
2059.70684	0.41033
2057.77827	0.40772
2055.84971	0.40520
2053.92114	0.40269
2051.99258	0.40005
2050.06401	0.39738
2048.13545	0.39477
2046.20688	0.39219
2044.27832	0.38963
2042.34976	0.38703
2040.42119	0.38426
2038.49263	0.38132
2036.56406	0.37833
2034.63550	0.37544
2032.70693	0.37272
2030.77837	0.37011
2028.84980	0.36738
2026.92124	0.36455
2024.99268	0.36174
2023.06411	0.35896
2021.13555	0.35623
2019.20698	0.35376
2017.27842	0.35130
2015.34985	0.34838
2013.42129	0.34519
2011.49272	0.34220
2009.56416	0.33949
2007.63560	0.33680
2005.70703	0.33396
2003.77847	0.33117
2001.84990	0.32860
1999.92134	0.32613
1997.99277	0.32362
1996.06421	0.32112
1994.13564	0.31886
1992.20708	0.31665
1990.27852	0.31399
1988.34995	0.31115
1986.42139	0.30851
1984.49282	0.30603
1982.56426	0.30363
1980.63569	0.30129
1978.70713	0.29894
1976.77856	0.29659
1974.85000	0.29433
1972.92144	0.29213
1970.99287	0.29003
1969.06431	0.28829
1967.13574	0.28662
1965.20718	0.28441
1963.27861	0.28206
1961.35005	0.28002
1959.42148	0.27815
1957.49292	0.27642
1955.56436	0.27476
1953.63579	0.27296
1951.70723	0.27105
1949.77866	0.26932
1947.85010	0.26787
1945.92153	0.26666
1943.99297	0.26561
1942.06440	0.26424
1940.13584	0.26226
1938.20728	0.26039
1936.27871	0.25892
1934.35015	0.25759
1932.42158	0.25630
1930.49302	0.25507
1928.56445	0.25392
1926.63589	0.25294
1924.70732	0.25245
1922.77876	0.25210
1920.85020	0.25118
1918.92163	0.25019
1916.99307	0.24927
1915.06450	0.24792
1913.13594	0.24668
1911.20737	0.24607
1909.27881	0.24570
1907.35024	0.24503
1905.42168	0.24415
1903.49312	0.24335
1901.56455	0.24265
1899.63599	0.24215
1897.70742	0.24198
1895.77886	0.24196
1893.85029	0.24171
1891.92173	0.24135
1889.99316	0.24135
1888.06460	0.24116
1886.13604	0.24055
1884.20747	0.24007
1882.27891	0.23979
1880.35034	0.23964
1878.42178	0.23952
1876.49321	0.23943
1874.56465	0.23944
1872.63608	0.23982
1870.70752	0.24092
1868.77896	0.24261
1866.85039	0.24299
1864.92183	0.24187
1862.99326	0.24112
1861.06470	0.24118
1859.13613	0.24154
1857.20757	0.24180
1855.27900	0.24218
1853.35044	0.24275
1851.42187	0.24351
1849.49331	0.24450
1847.56475	0.24584
1845.63618	0.24747
1843.70762	0.24877
1841.77905	0.24884
1839.85049	0.24862
1837.92192	0.24929
1835.99336	0.25028
1834.06479	0.25121
1832.13623	0.25267
1830.20767	0.25509
1828.27910	0.25703
1826.35054	0.25786
1824.42197	0.25885
1822.49341	0.25956
1820.56484	0.26021
1818.63628	0.26143
1816.70771	0.26312
1814.77915	0.26488
1812.85059	0.26702
1810.92202	0.26959
1808.99346	0.27173
1807.06489	0.27331
1805.13633	0.27508
1803.20776	0.27772
1801.27920	0.28102
1799.35063	0.28412
1797.42207	0.28648
1795.49351	0.28907
1793.56494	0.29262
1791.63638	0.29672
1789.70781	0.29936
1787.77925	0.30098
1785.85068	0.30382
1783.92212	0.30771
1781.99355	0.31199
1780.06499	0.31650
1778.13643	0.32086
1776.20786	0.32512
1774.27930	0.33034
1772.35073	0.33736
1770.42217	0.34369
1768.49360	0.34782
1766.56504	0.35183
1764.63647	0.35650
1762.70791	0.36232
1760.77935	0.36974
1758.85078	0.37626
1756.92222	0.38260
1754.99365	0.38931
1753.06509	0.39547
1751.13652	0.40366
1749.20796	0.41417
1747.27939	0.42330
1745.35083	0.43058
1743.42227	0.43895
1741.49370	0.44909
1739.56514	0.46202
1737.63657	0.47550
1735.70801	0.48784
1733.77944	0.50675
1731.85088	0.52790
1729.92231	0.54308
1727.99375	0.55844
1726.06519	0.57550
1724.13662	0.59494
1722.20806	0.61620
1720.27949	0.63592
1718.35093	0.65989
1716.42236	0.69532
1714.49380	0.72631
1712.56523	0.74967
1710.63667	0.77302
1708.70811	0.79939
1706.77954	0.83038
1704.85098	0.86800
1702.92241	0.90122
1700.99385	0.93394
1699.06528	0.98419
1697.13672	1.03077
1695.20815	1.07753
1693.27959	1.12193
1691.35103	1.15799
1689.42246	1.20152
1687.49390	1.24855
1685.56533	1.29420
1683.63677	1.36648
1681.70820	1.44100
1679.77964	1.48632
1677.85107	1.52993
1675.92251	1.58110
1673.99395	1.64531
1672.06538	1.70237
1670.13682	1.75882
1668.20825	1.83318
1666.27969	1.89260
1664.35112	1.94411
1662.42256	2.01179
1660.49399	2.09087
1658.56543	2.15134
1656.63687	2.19790
1654.70830	2.23834
1652.77974	2.30177
1650.85117	2.36341
1648.92261	2.38367
1646.99404	2.40730
1645.06548	2.42552
1643.13691	2.43578
1641.20835	2.44063
1639.27979	2.44783
1637.35122	2.45364
1635.42266	2.44917
1633.49409	2.43330
1631.56553	2.41322
1629.63696	2.39077
1627.70840	2.35677
1625.77983	2.32027
1623.85127	2.27436
1621.92271	2.21633
1619.99414	2.16555
1618.06558	2.11771
1616.13701	2.04875
1614.20845	1.97867
1612.27988	1.92617
1610.35132	1.87144
1608.42275	1.81215
1606.49419	1.75367
1604.56562	1.70085
1602.63706	1.65117
1600.70850	1.60285
1598.77993	1.55808
1596.85137	1.51611
1594.92280	1.47564
1592.99424	1.43669
1591.06567	1.40114
1589.13711	1.36821
1587.20854	1.33838
1585.27998	1.31160
1583.35142	1.28691
1581.42285	1.26450
1579.49429	1.24610
1577.56572	1.23103
1575.63716	1.21289
1573.70859	1.19597
1571.78003	1.18531
1569.85146	1.17575
1567.92290	1.16562
1565.99434	1.15882
1564.06577	1.15533
1562.13721	1.15396
1560.20864	1.15634
1558.28008	1.16667
1556.35151	1.17446
1554.42295	1.17734
1552.49438	1.18137
1550.56582	1.18446
1548.63726	1.18430
1546.70869	1.18072
1544.78013	1.17444
1542.85156	1.16503
1540.92300	1.14675
1538.99443	1.11238
1537.06587	1.08721
1535.13730	1.07155
1533.20874	1.05020
1531.28018	1.02589
1529.35161	1.00835
1527.42305	0.99262
1525.49448	0.97626
1523.56592	0.96266
1521.63735	0.95008
1519.70879	0.93628
1517.78022	0.92427
1515.85166	0.90971
1513.92310	0.89356
1511.99453	0.87991
1510.06597	0.86893
1508.13740	0.85930
1506.20884	0.83984
1504.28027	0.82008
1502.35171	0.80971
1500.42314	0.80189
1498.49458	0.79412
1496.56602	0.78440
1494.63745	0.77383
1492.70889	0.76622
1490.78032	0.76084
1488.85176	0.75423
1486.92319	0.74617
1484.99463	0.73954
1483.06606	0.73516
1481.13750	0.73233
1479.20894	0.73054
1477.28037	0.73016
1475.35181	0.73129
1473.42324	0.73289
1471.49468	0.73173
1469.56611	0.72784
1467.63755	0.72475
1465.70898	0.72347
1463.78042	0.72305
1461.85186	0.72299
1459.92329	0.72451
1457.99473	0.72796
1456.06616	0.72935
1454.13760	0.72599
1452.20903	0.72225
1450.28047	0.71902
1448.35190	0.71616
1446.42334	0.71296
1444.49478	0.70946
1442.56621	0.70622
1440.63765	0.70331
1438.70908	0.70077
1436.78052	0.69739
1434.85195	0.69234
1432.92339	0.68816
1430.99482	0.68580
1429.06626	0.68457
1427.13770	0.68418
1425.20913	0.68501
1423.28057	0.68668
1421.35200	0.68811
1419.42344	0.68964
1417.49487	0.69020
1415.56631	0.68863
1413.63774	0.68740
1411.70918	0.68762
1409.78062	0.68882
1407.85205	0.69069
1405.92349	0.69333
1403.99492	0.69572
1402.06636	0.69661
1400.13779	0.69663
1398.20923	0.69581
1396.28066	0.69342
1394.35210	0.68912
1392.42354	0.68359
1390.49497	0.67863
1388.56641	0.67429
1386.63784	0.66885
1384.70928	0.66198
1382.78071	0.65513
1380.85215	0.64898
1378.92358	0.64402
1376.99502	0.64066
1375.06646	0.63861
1373.13789	0.63689
1371.20933	0.63534
1369.28076	0.63432
1367.35220	0.63312
1365.42363	0.63155
1363.49507	0.63017
1361.56650	0.62857
1359.63794	0.62637
1357.70937	0.62442
1355.78081	0.62301
1353.85225	0.62198
1351.92368	0.62125
1349.99512	0.62078
1348.06655	0.62027
1346.13799	0.61945
1344.20942	0.61859
1342.28086	0.61823
1340.35229	0.61844
1338.42373	0.61819
1336.49517	0.61697
1334.56660	0.61587
1332.63804	0.61554
1330.70947	0.61591
1328.78091	0.61668
1326.85234	0.61762
1324.92378	0.61881
1322.99521	0.62019
1321.06665	0.62153
1319.13809	0.62284
1317.20952	0.62382
1315.28096	0.62416
1313.35239	0.62405
1311.42383	0.62359
1309.49526	0.62300
1307.56670	0.62257
1305.63813	0.62214
1303.70957	0.62162
1301.78101	0.62099
1299.85244	0.62007
1297.92388	0.61890
1295.99531	0.61749
1294.06675	0.61582
1292.13818	0.61418
1290.20962	0.61278
1288.28105	0.61140
1286.35249	0.61000
1284.42393	0.60868
1282.49536	0.60720
1280.56680	0.60547
1278.63823	0.60373
1276.70967	0.60210
1274.78110	0.60065
1272.85254	0.59947
1270.92397	0.59851
1268.99541	0.59759
1267.06685	0.59658
1265.13828	0.59549
1263.20972	0.59447
1261.28115	0.59375
1259.35259	0.59319
1257.42402	0.59255
1255.49546	0.59212
1253.56689	0.59204
1251.63833	0.59218
1249.70977	0.59239
1247.78120	0.59254
1245.85264	0.59246
1243.92407	0.59185
1241.99551	0.59060
1240.06694	0.58894
1238.13838	0.58684
1236.20981	0.58422
1234.28125	0.58140
1232.35269	0.57871
1230.42412	0.57614
1228.49556	0.57358
1226.56699	0.57101
1224.63843	0.56848
1222.70986	0.56609
1220.78130	0.56405
1218.85273	0.56228
1216.92417	0.56064
1214.99561	0.55924
1213.06704	0.55818
1211.13848	0.55728
1209.20991	0.55633
1207.28135	0.55542
1205.35278	0.55447
1203.42422	0.55353
1201.49565	0.55270
1199.56709	0.55188
1197.63853	0.55114
1195.70996	0.55054
1193.78140	0.54991
1191.85283	0.54929
1189.92427	0.54885
1187.99570	0.54856
1186.06714	0.54842
1184.13857	0.54872
1182.21001	0.54964
1180.28145	0.55106
1178.35288	0.55269
1176.42432	0.55432
1174.49575	0.55594
1172.56719	0.55735
1170.63862	0.55823
1168.71006	0.55862
1166.78149	0.55876
1164.85293	0.55879
1162.92437	0.55886
1160.99580	0.55899
1159.06724	0.55889
1157.13867	0.55855
1155.21011	0.55812
1153.28154	0.55738
1151.35298	0.55598
1149.42441	0.55396
1147.49585	0.55152
1145.56729	0.54886
1143.63872	0.54629
1141.71016	0.54405
1139.78159	0.54230
1137.85303	0.54134
1135.92446	0.54114
1133.99590	0.54119
1132.06733	0.54123
1130.13877	0.54115
1128.21021	0.54089
1126.28164	0.54059
1124.35308	0.54022
1122.42451	0.53975
1120.49595	0.53940
1118.56738	0.53933
1116.63882	0.53950
1114.71025	0.53977
1112.78169	0.54020
1110.85312	0.54098
1108.92456	0.54204
1106.99600	0.54309
1105.06743	0.54398
1103.13887	0.54489
1101.21030	0.54634
1099.28174	0.54852
1097.35317	0.55104
1095.42461	0.55384
1093.49604	0.55744
1091.56748	0.56213
1089.63892	0.56797
1087.71035	0.57494
1085.78179	0.58269
1083.85322	0.59083
1081.92466	0.59858
1079.99609	0.60435
1078.06753	0.60715
1076.13896	0.60717
1074.21040	0.60458
1072.28184	0.59961
1070.35327	0.59301
1068.42471	0.58571
1066.49614	0.57852
1064.56758	0.57204
1062.63901	0.56640
1060.71045	0.56135
1058.78188	0.55682
1056.85332	0.55287
1054.92476	0.54940
1052.99619	0.54624
1051.06763	0.54347
1049.13906	0.54119
1047.21050	0.53932
1045.28193	0.53785
1043.35337	0.53670
1041.42480	0.53570
1039.49624	0.53488
1037.56768	0.53403
1035.63911	0.53300
1033.71055	0.53199
1031.78198	0.53121
1029.85342	0.53027
1027.92485	0.52883
1025.99629	0.52721
1024.06772	0.52579
1022.13916	0.52461
1020.21060	0.52380
1018.28203	0.52343
1016.35347	0.52323
1014.42490	0.52299
1012.49634	0.52281
1010.56777	0.52276
1008.63921	0.52289
1006.71064	0.52338
1004.78208	0.52430
1002.85352	0.52567
1000.92495	0.52781
998.99639	0.53093
997.06782	0.53477
995.13926	0.53895
993.21069	0.54327
991.28213	0.54717
989.35356	0.54980
987.42500	0.55093
985.49644	0.55106
983.56787	0.55083
981.63931	0.55095
979.71074	0.55169
977.78218	0.55273
975.85361	0.55406
973.92505	0.55593
971.99648	0.55837
970.06792	0.56143
968.13936	0.56505
966.21079	0.56899
964.28223	0.57318
962.35366	0.57773
960.42510	0.58279
958.49653	0.58822
956.56797	0.59394
954.63940	0.59995
952.71084	0.60626
950.78228	0.61278
948.85371	0.61916
946.92515	0.62550
944.99658	0.63214
943.06802	0.63876
941.13945	0.64520
939.21089	0.65151
937.28232	0.65736
935.35376	0.66292
933.42520	0.66862
931.49663	0.67431
929.56807	0.67985
927.63950	0.68538
925.71094	0.69116
923.78237	0.69752
921.85381	0.70422
919.92524	0.71090
917.99668	0.71756
916.06812	0.72417
914.13955	0.73123
912.21099	0.73912
910.28242	0.74712
908.35386	0.75457
906.42529	0.76220
904.49673	0.77155
902.56816	0.78237
900.63960	0.79230
898.71104	0.80079
896.78247	0.80939
894.85391	0.81871
892.92534	0.82843
890.99678	0.83833
889.06821	0.84873
887.13965	0.86015
885.21108	0.87180
883.28252	0.88307
881.35396	0.89508
879.42539	0.90769
877.49683	0.91916
875.56826	0.93037
873.63970	0.94335
871.71113	0.95602
869.78257	0.96605
867.85400	0.97558
865.92544	0.98569
863.99687	0.99653
862.06831	1.00982
860.13975	1.02341
858.21118	1.03518
856.28262	1.04627
854.35405	1.05690
852.42549	1.06750
850.49692	1.07840
848.56836	1.08977
846.63979	1.10260
844.71123	1.11549
842.78267	1.12645
840.85410	1.13759
838.92554	1.15043
836.99697	1.16310
835.06841	1.17538
833.13984	1.18699
831.21128	1.19425
829.28271	1.19861
827.35415	1.20762
825.42559	1.22283
823.49702	1.23932
821.56846	1.25193
819.63989	1.26003
817.71133	1.26850
815.78276	1.28374
813.85420	1.30777
811.92563	1.33168
809.99707	1.34509
808.06851	1.35952
806.13994	1.39462
804.21138	1.43405
802.28281	1.44337
800.35425	1.43122
798.42568	1.42695
796.49712	1.42848
794.56855	1.42569
792.63999	1.42768
790.71143	1.43818
788.78286	1.48148
786.85430	1.57417
784.92573	1.62959
782.99717	1.57495
781.06860	1.50494
779.14004	1.50326
777.21147	1.60551
775.28291	1.70750
773.35435	1.64000
771.42578	1.61482
769.49722	1.80626
767.56865	4.60541
765.64009	2.52018
763.71152	1.69999
761.78296	1.55736
759.85439	1.55053
757.92583	1.48496
755.99727	1.42574
754.06870	1.42924
752.14014	1.41874
750.21157	1.32940
748.28301	1.28668
746.35444	1.37724
744.42588	1.46877
742.49731	1.52229
740.56875	1.85221
738.64019	1.64664
736.71162	1.10959
734.78306	0.91636
732.85449	0.93586
730.92593	1.04545
728.99736	1.41974
727.06880	4.36241
725.14023	0.90374
723.21167	0.36528
721.28311	0.20051
719.35454	0.01685
717.42598	-0.21387
715.49741	-0.16511
713.56885	-0.16542
711.64028	-0.29180
709.71172	-0.48840
707.78315	-0.28540
705.85459	0.11252
703.92603	0.45669
701.99746	0.51388
700.06890	0.37664
698.14033	0.31108
696.21177	0.34960
694.28320	0.50648
692.35464	0.89528
690.42607	1.00268
688.49751	0.48121
686.56895	0.31745
684.64038	0.34524
682.71182	0.43183
680.78325	0.47923
678.85469	0.49749
676.92612	0.52360
674.99756	0.45236
673.06899	0.34786
671.14043	0.32249
669.21187	0.32724
667.28330	0.32594
665.35474	0.27182
663.42617	0.21537
661.49761	0.25425
659.56904	0.36280
657.64048	0.42631
655.71191	0.41765
653.78335	0.47748
651.85479	0.50122
649.92622	0.43839
647.99766	0.41159
646.06909	0.34238
644.14053	0.25977
642.21196	0.29206
640.28340	0.47840
638.35483	0.68014
636.42627	0.42023
634.49771	0.27760
632.56914	0.21615
630.64058	0.14391
628.71201	0.07970
626.78345	0.10843
624.85488	0.18286
622.92632	0.25427
620.99775	0.41290
619.06919	0.79658
617.14062	0.96167
615.21206	0.56817
613.28350	0.41981
611.35493	0.33904
609.42637	0.26479
607.49780	0.25036
605.56924	0.34233
603.64067	0.47385
601.71211	0.56359
599.78354	0.55579
597.85498	0.38382
595.92642	0.32890
593.99785	0.41189
592.06929	0.48904
590.14072	0.47451
588.21216	0.43201
586.28359	0.36705
584.35503	0.32599
582.42646	0.35907
580.49790	0.44617
578.56934	0.47099
576.64077	0.40741
574.71221	0.37006
572.78364	0.33801
570.85508	0.24852
568.92651	0.17359
566.99795	0.16024
565.06938	0.24302
563.14082	0.41162
561.21226	0.48250
559.28369	0.33020
557.35513	0.22918
555.42656	0.21314
553.49800	0.21652
551.56943	0.20246
549.64087	0.19127
547.71230	0.20057
545.78374	0.20731
543.85518	0.21666
541.92661	0.27282
539.99805	0.34279
538.06948	0.34045
536.14092	0.34361
534.21235	0.40778
532.28379	0.38789
530.35522	0.27660
528.42666	0.21080
526.49810	0.22061
524.56953	0.27860
522.64097	0.33449
520.71240	0.32011
518.78384	0.26082
516.85527	0.22839
514.92671	0.21766
512.99814	0.22474
511.06958	0.27740
509.14102	0.31468
507.21245	0.29040
505.28389	0.28155
503.35532	0.29980
501.42676	0.31489
499.49819	0.35829
