3997.91411	0.09056
3995.98555	0.09122
3994.05698	0.09183
3992.12842	0.09217
3990.19985	0.09242
3988.27129	0.09266
3986.34272	0.09291
3984.41416	0.09354
3982.48560	0.09419
3980.55703	0.09427
3978.62847	0.09419
3976.69990	0.09439
3974.77134	0.09475
3972.84277	0.09497
3970.91421	0.09492
3968.98564	0.09490
3967.05708	0.09508
3965.12852	0.09527
3963.19995	0.09540
3961.27139	0.09551
3959.34282	0.09538
3957.41426	0.09520
3955.48569	0.09550
3953.55713	0.09630
3951.62856	0.09724
3949.70000	0.09813
3947.77144	0.09859
3945.84287	0.09847
3943.91431	0.09834
3941.98574	0.09830
3940.05718	0.09784
3938.12861	0.09726
3936.20005	0.09694
3934.27148	0.09717
3932.34292	0.09808
3930.41436	0.09864
3928.48579	0.09803
3926.55723	0.09777
3924.62866	0.09885
3922.70010	0.09948
3920.77153	0.09873
3918.84297	0.09818
3916.91440	0.09826
3914.98584	0.09774
3913.05728	0.09643
3911.12871	0.09542
3909.20015	0.09525
3907.27158	0.09640
3905.34302	0.09943
3903.41445	0.10301
3901.48589	0.10418
3899.55732	0.10261
3897.62876	0.09991
3895.70020	0.09802
3893.77163	0.09820
3891.84307	0.09968
3889.91450	0.09995
3887.98594	0.09887
3886.05737	0.09895
3884.12881	0.10023
3882.20024	0.10111
3880.27168	0.10145
3878.34312	0.10050
3876.41455	0.09907
3874.48599	0.09971
3872.55742	0.10258
3870.62886	0.10513
3868.70029	0.10498
3866.77173	0.10349
3864.84316	0.10399
3862.91460	0.10540
3860.98604	0.10444
3859.05747	0.10277
3857.12891	0.10339
3855.20034	0.10664
3853.27178	0.11132
3851.34321	0.11260
3849.41465	0.10890
3847.48608	0.10553
3845.55752	0.10445
3843.62896	0.10571
3841.70039	0.10845
3839.77183	0.11186
3837.84326	0.11457
3835.91470	0.11448
3833.98613	0.11270
3832.05757	0.11148
3830.12900	0.11108
3828.20044	0.11129
3826.27187	0.11242
3824.34331	0.11440
3822.41475	0.11718
3820.48618	0.12048
3818.55762	0.12158
3816.62905	0.12104
3814.70049	0.12015
3812.77192	0.11838
3810.84336	0.11743
3808.91479	0.11879
3806.98623	0.12249
3805.05767	0.12584
3803.12910	0.12730
3801.20054	0.12894
3799.27197	0.13018
3797.34341	0.13010
3795.41484	0.12968
3793.48628	0.12887
3791.55771	0.12842
3789.62915	0.12886
3787.70059	0.13019
3785.77202	0.13277
3783.84346	0.13559
3781.91489	0.13728
3779.98633	0.13898
3778.05776	0.14076
3776.12920	0.14120
3774.20063	0.14165
3772.27207	0.14378
3770.34351	0.14766
3768.41494	0.15140
3766.48638	0.15320
3764.55781	0.15411
3762.62925	0.15531
3760.70068	0.15801
3758.77212	0.16220
3756.84355	0.16565
3754.91499	0.16808
3752.98643	0.17201
3751.05786	0.17896
3749.12930	0.18508
3747.20073	0.18644
3745.27217	0.18794
3743.34360	0.19151
3741.41504	0.19455
3739.48647	0.19731
3737.55791	0.20212
3735.62935	0.21031
3733.70078	0.21881
3731.77222	0.22230
3729.84365	0.22414
3727.91509	0.22805
3725.98652	0.23432
3724.05796	0.24117
3722.12939	0.24708
3720.20083	0.25239
3718.27227	0.25732
3716.34370	0.26262
3714.41514	0.26965
3712.48657	0.28091
3710.55801	0.29750
3708.62944	0.31237
3706.70088	0.32220
3704.77231	0.33220
3702.84375	0.34572
3700.91519	0.36367
3698.98662	0.38216
3697.05806	0.39915
3695.12949	0.41752
3693.20093	0.43760
3691.27236	0.46049
3689.34380	0.49053
3687.41523	0.52511
3685.48667	0.55323
3683.55811	0.57795
3681.62954	0.60577
3679.70098	0.63828
3677.77241	0.67369
3675.84385	0.71573
3673.91528	0.77022
3671.98672	0.81316
3670.05815	0.85244
3668.12959	0.90616
3666.20103	0.95286
3664.27246	0.99181
3662.34390	1.03470
3660.41533	1.08183
3658.48677	1.12905
3656.55820	1.18012
3654.62964	1.23744
3652.70107	1.28523
3650.77251	1.32744
3648.84395	1.38740
3646.91538	1.45837
3644.98682	1.50578
3643.05825	1.54208
3641.12969	1.58149
3639.20112	1.62710
3637.27256	1.67407
3635.34399	1.71902
3633.41543	1.76334
3631.48687	1.80565
3629.55830	1.84964
3627.62974	1.90706
3625.70117	1.95757
3623.77261	1.98897
3621.84404	2.01971
3619.91548	2.05789
3617.98691	2.10558
3616.05835	2.14965
3614.12979	2.18624
3612.20122	2.22650
3610.27266	2.26700
3608.34409	2.30731
3606.41553	2.35028
3604.48696	2.38983
3602.55840	2.42567
3600.62983	2.46555
3598.70127	2.50867
3596.77271	2.54927
3594.84414	2.58981
3592.91558	2.63204
3590.98701	2.67155
3589.05845	2.70811
3587.12988	2.75276
3585.20132	2.80306
3583.27275	2.84461
3581.34419	2.88197
3579.41562	2.92220
3577.48706	2.96458
3575.55850	3.00702
3573.62993	3.05033
3571.70137	3.09186
3569.77280	3.13140
3567.84424	3.17577
3565.91567	3.23285
3563.98711	3.28586
3562.05854	3.32548
3560.12998	3.36547
3558.20142	3.41023
3556.27285	3.45616
3554.34429	3.50085
3552.41572	3.54841
3550.48716	3.59723
3548.55859	3.64112
3546.63003	3.68374
3544.70146	3.73352
3542.77290	3.78786
3540.84434	3.83841
3538.91577	3.88401
3536.98721	3.92679
3535.05864	3.97202
3533.13008	4.02222
3531.20151	4.07478
3529.27295	4.12367
3527.34438	4.16978
3525.41582	4.21803
3523.48726	4.26835
3521.55869	4.31941
3519.63013	4.36721
3517.70156	4.41195
3515.77300	4.45748
3513.84443	4.50752
3511.91587	4.56008
3509.98730	4.60923
3508.05874	4.65527
3506.13018	4.70185
3504.20161	4.74708
3502.27305	4.79329
3500.34448	4.84465
3498.41592	4.89340
3496.48735	4.93942
3494.55879	4.99084
3492.63022	5.04564
3490.70166	5.09535
3488.77310	5.14015
3486.84453	5.18737
3484.91597	5.23674
3482.98740	5.28240
3481.05884	5.32868
3479.13027	5.38018
3477.20171	5.43076
3475.27314	5.48067
3473.34458	5.53166
3471.41602	5.57993
3469.48745	5.62499
3467.55889	5.66381
3465.63032	5.70899
3463.70176	5.77808
3461.77319	5.84294
3459.84463	5.87857
3457.91606	5.91659
3455.98750	5.97806
3454.05894	6.03550
3452.13037	6.08089
3450.20181	6.13761
3448.27324	6.19963
3446.34468	6.24504
3444.41611	6.27867
3442.48755	6.33819
3440.55898	6.42812
3438.63042	6.49994
3436.70186	6.52224
3434.77329	6.53347
3432.84473	6.58044
3430.91616	6.64267
3428.98760	6.68900
3427.05903	6.73599
3425.13047	6.80496
3423.20190	6.86097
3421.27334	6.88467
3419.34478	6.91521
3417.41621	6.96820
3415.48765	7.03484
3413.55908	7.11127
3411.63052	7.17424
3409.70195	7.18769
3407.77339	7.17239
3405.84482	7.18517
3403.91626	7.25367
3401.98770	7.32381
3400.05913	7.35091
3398.13057	7.38004
3396.20200	7.42351
3394.27344	7.45415
3392.34487	7.48633
3390.41631	7.54645
3388.48774	7.61638
3386.55918	7.67514
3384.63062	7.68765
3382.70205	7.68225
3380.77349	7.72208
3378.84492	7.80110
3376.91636	7.88221
3374.98779	7.88689
3373.05923	7.84381
3371.13066	7.85542
3369.20210	7.92381
3367.27354	7.96928
3365.34497	7.96093
3363.41641	7.94355
3361.48784	7.94666
3359.55928	7.95799
3357.63071	7.97855
3355.70215	8.05578
3353.77358	8.16050
3351.84502	8.21366
3349.91646	8.19441
3347.98789	8.15077
3346.05933	8.13994
3344.13076	8.20547
3342.20220	8.32888
3340.27363	8.37441
3338.34507	8.29815
3336.41650	8.23936
3334.48794	8.26132
3332.55937	8.26349
3330.63081	8.26093
3328.70225	8.30698
3326.77368	8.33415
3324.84512	8.32393
3322.91655	8.31967
3320.98799	8.33163
3319.05942	8.30175
3317.13086	8.21925
3315.20229	8.16394
3313.27373	8.20449
3311.34517	8.30503
3309.41660	8.42797
3307.48804	8.55507
3305.55947	8.57467
3303.63091	8.46245
3301.70234	8.33725
3299.77378	8.29597
3297.84521	8.34439
3295.91665	8.45635
3293.98809	8.51628
3292.05952	8.42518
3290.13096	8.25993
3288.20239	8.15304
3286.27383	8.14141
3284.34526	8.16517
3282.41670	8.23345
3280.48813	8.31794
3278.55957	8.34182
3276.63101	8.35847
3274.70244	8.40502
3272.77388	8.42650
3270.84531	8.45905
3268.91675	8.50991
3266.98818	8.50185
3265.05962	8.48178
3263.13105	8.45126
3261.20249	8.41562
3259.27393	8.43061
3257.34536	8.43094
3255.41680	8.37075
3253.48823	8.37001
3251.55967	8.46838
3249.63110	8.52295
3247.70254	8.51362
3245.77397	8.50574
3243.84541	8.47416
3241.91685	8.44862
3239.98828	8.46727
3238.05972	8.46097
3236.13115	8.40523
3234.20259	8.32697
3232.27402	8.24140
3230.34546	8.18714
3228.41689	8.17514
3226.48833	8.20619
3224.55977	8.24765
3222.63120	8.28760
3220.70264	8.36387
3218.77407	8.42849
3216.84551	8.40935
3214.91694	8.32411
3212.98838	8.22931
3211.05981	8.16895
3209.13125	8.12673
3207.20269	8.06473
3205.27412	7.99371
3203.34556	7.93056
3201.41699	7.89606
3199.48843	7.91275
3197.55986	7.93189
3195.63130	7.89899
3193.70273	7.85746
3191.77417	7.84464
3189.84561	7.83008
3187.91704	7.76341
3185.98848	7.64097
3184.05991	7.51217
3182.13135	7.42014
3180.20278	7.38527
3178.27422	7.37314
3176.34565	7.32209
3174.41709	7.23671
3172.48853	7.17745
3170.55996	7.17134
3168.63140	7.16889
3166.70283	7.08965
3164.77427	6.94928
3162.84570	6.84087
3160.91714	6.77794
3158.98857	6.72212
3157.06001	6.67839
3155.13145	6.64871
3153.20288	6.59212
3151.27432	6.49918
3149.34575	6.41381
3147.41719	6.35233
3145.48862	6.29559
3143.56006	6.23014
3141.63149	6.15484
3139.70293	6.08171
3137.77437	6.01579
3135.84580	5.95327
3133.91724	5.89983
3131.98867	5.83901
3130.06011	5.75032
3128.13154	5.65492
3126.20298	5.57854
3124.27441	5.51581
3122.34585	5.44353
3120.41729	5.36103
3118.48872	5.28538
3116.56016	5.22117
3114.63159	5.16403
3112.70303	5.10369
3110.77446	5.02924
3108.84590	4.94810
3106.91733	4.87447
3104.98877	4.80929
3103.06021	4.74937
3101.13164	4.68819
3099.20308	4.61887
3097.27451	4.54545
3095.34595	4.47505
3093.41738	4.40926
3091.48882	4.34492
3089.56025	4.28049
3087.63169	4.21652
3085.70312	4.15174
3083.77456	4.08622
3081.84600	4.02253
3079.91743	3.96222
3077.98887	3.90499
3076.06030	3.84876
3074.13174	3.79190
3072.20317	3.73448
3070.27461	3.67606
3068.34604	3.61633
3066.41748	3.55801
3064.48892	3.50308
3062.56035	3.44806
3060.63179	3.39172
3058.70322	3.33611
3056.77466	3.28068
3054.84609	3.22522
3052.91753	3.17209
3050.98896	3.12281
3049.06040	3.07426
3047.13184	3.02378
3045.20327	2.97353
3043.27471	2.92462
3041.34614	2.87599
3039.41758	2.82809
3037.48901	2.78145
3035.56045	2.73517
3033.63188	2.68876
3031.70332	2.64335
3029.77476	2.59917
3027.84619	2.55500
3025.91763	2.51096
3023.98906	2.46795
3022.06050	2.42566
3020.13193	2.38341
3018.20337	2.34158
3016.27480	2.30078
3014.34624	2.26107
3012.41768	2.22229
3010.48911	2.18403
3008.56055	2.14655
3006.63198	2.11035
3004.70342	2.07450
3002.77485	2.03858
3000.84629	2.00407
2998.91772	1.97105
2996.98916	1.93778
2995.06060	1.90427
2993.13203	1.87161
2991.20347	1.83981
2989.27490	1.80904
2987.34634	1.77964
2985.41777	1.75073
2983.48921	1.72155
2981.56064	1.69218
2979.63208	1.66296
2977.70352	1.63460
2975.77495	1.60717
2973.84639	1.58012
2971.91782	1.55294
2969.98926	1.52574
2968.06069	1.49898
2966.13213	1.47284
2964.20356	1.44708
2962.27500	1.42134
2960.34644	1.39547
2958.41787	1.36986
2956.48931	1.34529
2954.56074	1.32145
2952.63218	1.29771
2950.70361	1.27468
2948.77505	1.25243
2946.84648	1.23017
2944.91792	1.20768
2942.98936	1.18531
2941.06079	1.16321
2939.13223	1.14079
2937.20366	1.11739
2935.27510	1.09303
2933.34653	1.06829
2931.41797	1.04350
2929.48940	1.01894
2927.56084	0.99514
2925.63228	0.97152
2923.70371	0.94755
2921.77515	0.92469
2919.84658	0.90444
2917.91802	0.88710
2915.98945	0.87375
2914.06089	0.86512
2912.13232	0.85932
2910.20376	0.85330
2908.27520	0.84507
2906.34663	0.83465
2904.41807	0.82312
2902.48950	0.81121
2900.56094	0.79925
2898.63237	0.78747
2896.70381	0.77609
2894.77524	0.76491
2892.84668	0.75353
2890.91812	0.74237
2888.98955	0.73192
2887.06099	0.72196
2885.13242	0.71213
2883.20386	0.70224
2881.27529	0.69242
2879.34673	0.68268
2877.41816	0.67255
2875.48960	0.66191
2873.56104	0.65102
2871.63247	0.63971
2869.70391	0.62800
2867.77534	0.61635
2865.84678	0.60456
2863.91821	0.59207
2861.98965	0.57859
2860.06108	0.56421
2858.13252	0.54963
2856.20396	0.53527
2854.27539	0.52090
2852.34683	0.50696
2850.41826	0.49549
2848.48970	0.48899
2846.56113	0.48786
2844.63257	0.48904
2842.70400	0.48920
2840.77544	0.48743
2838.84687	0.48423
2836.91831	0.48024
2834.98975	0.47565
2833.06118	0.47041
2831.13262	0.46481
2829.20405	0.45927
2827.27549	0.45376
2825.34692	0.44816
2823.41836	0.44254
2821.48979	0.43679
2819.56123	0.43083
2817.63267	0.42479
2815.70410	0.41888
2813.77554	0.41326
2811.84697	0.40783
2809.91841	0.40239
2807.98984	0.39700
2806.06128	0.39177
2804.13271	0.38662
2802.20415	0.38145
2800.27559	0.37637
2798.34702	0.37153
2796.41846	0.36684
2794.48989	0.36203
2792.56133	0.35724
2790.63276	0.35257
2788.70420	0.34796
2786.77563	0.34354
2784.84707	0.33934
2782.91851	0.33511
2780.98994	0.33086
2779.06138	0.32685
2777.13281	0.32301
2775.20425	0.31912
2773.27568	0.31514
2771.34712	0.31117
2769.41855	0.30732
2767.48999	0.30364
2765.56143	0.30017
2763.63286	0.29685
2761.70430	0.29352
2759.77573	0.29009
2757.84717	0.28674
2755.91860	0.28354
2753.99004	0.28036
2752.06147	0.27720
2750.13291	0.27411
2748.20435	0.27115
2746.27578	0.26836
2744.34722	0.26564
2742.41865	0.26284
2740.49009	0.25996
2738.56152	0.25726
2736.63296	0.25483
2734.70439	0.25240
2732.77583	0.24974
2730.84727	0.24704
2728.91870	0.24460
2726.99014	0.24250
2725.06157	0.24048
2723.13301	0.23839
2721.20444	0.23631
2719.27588	0.23424
2717.34731	0.23205
2715.41875	0.22983
2713.49019	0.22783
2711.56162	0.22611
2709.63306	0.22435
2707.70449	0.22243
2705.77593	0.22071
2703.84736	0.21924
2701.91880	0.21771
2699.99023	0.21606
2698.06167	0.21452
2696.13311	0.21313
2694.20454	0.21176
2692.27598	0.21032
2690.34741	0.20883
2688.41885	0.20740
2686.49028	0.20603
2684.56172	0.20464
2682.63315	0.20338
2680.70459	0.20225
2678.77603	0.20099
2676.84746	0.19961
2674.91890	0.19830
2672.99033	0.19702
2671.06177	0.19577
2669.13320	0.19461
2667.20464	0.19362
2665.27607	0.19284
2663.34751	0.19201
2661.41895	0.19102
2659.49038	0.19007
2657.56182	0.18928
2655.63325	0.18851
2653.70469	0.18759
2651.77612	0.18661
2649.84756	0.18586
2647.91899	0.18539
2645.99043	0.18484
2644.06187	0.18412
2642.13330	0.18350
2640.20474	0.18309
2638.27617	0.18265
2636.34761	0.18215
2634.41904	0.18168
2632.49048	0.18123
2630.56191	0.18080
2628.63335	0.18033
2626.70479	0.17985
2624.77622	0.17944
2622.84766	0.17908
2620.91909	0.17881
2618.99053	0.17865
2617.06196	0.17848
2615.13340	0.17817
2613.20483	0.17781
2611.27627	0.17757
2609.34771	0.17744
2607.41914	0.17743
2605.49058	0.17738
2603.56201	0.17722
2601.63345	0.17714
2599.70488	0.17713
2597.77632	0.17709
2595.84775	0.17704
2593.91919	0.17705
2591.99062	0.17709
2590.06206	0.17717
2588.13350	0.17734
2586.20493	0.17756
2584.27637	0.17777
2582.34780	0.17801
2580.41924	0.17826
2578.49067	0.17853
2576.56211	0.17888
2574.63354	0.17923
2572.70498	0.17960
2570.77642	0.17998
2568.84785	0.18032
2566.91929	0.18070
2564.99072	0.18111
2563.06216	0.18145
2561.13359	0.18173
2559.20503	0.18212
2557.27646	0.18262
2555.34790	0.18312
2553.41934	0.18360
2551.49077	0.18410
2549.56221	0.18470
2547.63364	0.18535
2545.70508	0.18588
2543.77651	0.18632
2541.84795	0.18678
2539.91938	0.18732
2537.99082	0.18799
2536.06226	0.18866
2534.13369	0.18936
2532.20513	0.19023
2530.27656	0.19108
2528.34800	0.19167
2526.41943	0.19213
2524.49087	0.19270
2522.56230	0.19347
2520.63374	0.19438
2518.70518	0.19523
2516.77661	0.19590
2514.84805	0.19650
2512.91948	0.19715
2510.99092	0.19790
2509.06235	0.19873
2507.13379	0.19960
2505.20522	0.20046
2503.27666	0.20126
2501.34810	0.20198
2499.41953	0.20268
2497.49097	0.20342
2495.56240	0.20422
2493.63384	0.20510
2491.70527	0.20604
2489.77671	0.20695
2487.84814	0.20788
2485.91958	0.20891
2483.99102	0.20983
2482.06245	0.21055
2480.13389	0.21123
2478.20532	0.21196
2476.27676	0.21273
2474.34819	0.21361
2472.41963	0.21459
2470.49106	0.21560
2468.56250	0.21646
2466.63394	0.21719
2464.70537	0.21806
2462.77681	0.21908
2460.84824	0.22006
2458.91968	0.22100
2456.99111	0.22198
2455.06255	0.22298
2453.13398	0.22397
2451.20542	0.22487
2449.27686	0.22571
2447.34829	0.22670
2445.41973	0.22782
2443.49116	0.22889
2441.56260	0.22982
2439.63403	0.23067
2437.70547	0.23163
2435.77690	0.23286
2433.84834	0.23406
2431.91978	0.23502
2429.99121	0.23595
2428.06265	0.23695
2426.13408	0.23797
2424.20552	0.23907
2422.27695	0.24018
2420.34839	0.24114
2418.41982	0.24206
2416.49126	0.24318
2414.56270	0.24443
2412.63413	0.24559
2410.70557	0.24667
2408.77700	0.24783
2406.84844	0.24906
2404.91987	0.25029
2402.99131	0.25157
2401.06274	0.25286
2399.13418	0.25404
2397.20562	0.25518
2395.27705	0.25634
2393.34849	0.25756
2391.41992	0.25900
2389.49136	0.26069
2387.56279	0.26279
2385.63423	0.26569
2383.70566	0.26972
2381.77710	0.27508
2379.84854	0.28164
2377.91997	0.28910
2375.99141	0.29755
2374.06284	0.30736
2372.13428	0.31844
2370.20571	0.33034
2368.27715	0.34265
2366.34858	0.35465
2364.42002	0.36494
2362.49146	0.37265
2360.56289	0.37800
2358.63433	0.37974
2356.70576	0.37620
2354.77720	0.36843
2352.84863	0.35813
2350.92007	0.34700
2348.99150	0.34001
2347.06294	0.34059
2345.13437	0.34901
2343.20581	0.36064
2341.27725	0.36755
2339.34868	0.36871
2337.42012	0.36764
2335.49155	0.36664
2333.56299	0.36645
2331.63442	0.36716
2329.70586	0.36757
2327.77729	0.36688
2325.84873	0.36531
2323.92017	0.36312
2321.99160	0.36037
2320.06304	0.35701
2318.13447	0.35349
2316.20591	0.35074
2314.27734	0.34937
2312.34878	0.34907
2310.42021	0.34883
2308.49165	0.34793
2306.56309	0.34657
2304.63452	0.34549
2302.70596	0.34512
2300.77739	0.34528
2298.84883	0.34567
2296.92026	0.34625
2294.99170	0.34689
2293.06313	0.34749
2291.13457	0.34813
2289.20601	0.34888
2287.27744	0.34967
2285.34888	0.35059
2283.42031	0.35188
2281.49175	0.35368
2279.56318	0.35583
2277.63462	0.35809
2275.70605	0.36038
2273.77749	0.36265
2271.84893	0.36482
2269.92036	0.36692
2267.99180	0.36897
2266.06323	0.37101
2264.13467	0.37303
2262.20610	0.37499
2260.27754	0.37684
2258.34897	0.37870
2256.42041	0.38064
2254.49185	0.38261
2252.56328	0.38462
2250.63472	0.38664
2248.70615	0.38867
2246.77759	0.39081
2244.84902	0.39306
2242.92046	0.39527
2240.99189	0.39739
2239.06333	0.39937
2237.13477	0.40141
2235.20620	0.40369
2233.27764	0.40597
2231.34907	0.40815
2229.42051	0.41030
2227.49194	0.41242
2225.56338	0.41458
2223.63481	0.41689
2221.70625	0.41918
2219.77769	0.42139
2217.84912	0.42356
2215.92056	0.42572
2213.99199	0.42785
2212.06343	0.42997
2210.13486	0.43215
2208.20630	0.43432
2206.27773	0.43645
2204.34917	0.43858
2202.42061	0.44072
2200.49204	0.44278
2198.56348	0.44472
2196.63491	0.44657
2194.70635	0.44847
2192.77778	0.45046
2190.84922	0.45243
2188.92065	0.45433
2186.99209	0.45613
2185.06353	0.45784
2183.13496	0.45952
2181.20640	0.46123
2179.27783	0.46301
2177.34927	0.46478
2175.42070	0.46629
2173.49214	0.46762
2171.56357	0.46895
2169.63501	0.47033
2167.70645	0.47171
2165.77788	0.47304
2163.84932	0.47423
2161.92075	0.47529
2159.99219	0.47634
2158.06362	0.47746
2156.13506	0.47862
2154.20649	0.47958
2152.27793	0.48027
2150.34937	0.48092
2148.42080	0.48158
2146.49224	0.48211
2144.56367	0.48255
2142.63511	0.48296
2140.70654	0.48328
2138.77798	0.48349
2136.84941	0.48363
2134.92085	0.48373
2132.99229	0.48371
2131.06372	0.48366
2129.13516	0.48360
2127.20659	0.48341
2125.27803	0.48302
2123.34946	0.48251
2121.42090	0.48196
2119.49233	0.48137
2117.56377	0.48070
2115.63521	0.47998
2113.70664	0.47922
2111.77808	0.47841
2109.84951	0.47749
2107.92095	0.47643
2105.99238	0.47530
2104.06382	0.47415
2102.13525	0.47303
2100.20669	0.47187
2098.27812	0.47039
2096.34956	0.46869
2094.42100	0.46707
2092.49243	0.46554
2090.56387	0.46393
2088.63530	0.46222
2086.70674	0.46040
2084.77817	0.45836
2082.84961	0.45627
2080.92104	0.45428
2078.99248	0.45232
2077.06392	0.45031
2075.13535	0.44820
2073.20679	0.44599
2071.27822	0.44369
2069.34966	0.44132
2067.42109	0.43906
2065.49253	0.43695
2063.56396	0.43465
2061.63540	0.43208
2059.70684	0.42940
2057.77827	0.42668
2055.84971	0.42398
2053.92114	0.42136
2051.99258	0.41876
2050.06401	0.41617
2048.13545	0.41361
2046.20688	0.41103
2044.27832	0.40845
2042.34976	0.40584
2040.42119	0.40303
2038.49263	0.40007
2036.56406	0.39717
2034.63550	0.39436
2032.70693	0.39151
2030.77837	0.38867
2028.84980	0.38589
2026.92124	0.38315
2024.99268	0.38039
2023.06411	0.37760
2021.13555	0.37478
2019.20698	0.37206
2017.27842	0.36933
2015.34985	0.36632
2013.42129	0.36319
2011.49272	0.36028
2009.56416	0.35762
2007.63560	0.35497
2005.70703	0.35217
2003.77847	0.34937
2001.84990	0.34672
1999.92134	0.34415
1997.99277	0.34156
1996.06421	0.33894
1994.13564	0.33650
1992.20708	0.33415
1990.27852	0.33150
1988.34995	0.32878
1986.42139	0.32626
1984.49282	0.32376
1982.56426	0.32125
1980.63569	0.31877
1978.70713	0.31634
1976.77856	0.31400
1974.85000	0.31178
1972.92144	0.30954
1970.99287	0.30732
1969.06431	0.30542
1967.13574	0.30362
1965.20718	0.30137
1963.27861	0.29893
1961.35005	0.29675
1959.42148	0.29478
1957.49292	0.29300
1955.56436	0.29134
1953.63579	0.28956
1951.70723	0.28769
1949.77866	0.28597
1947.85010	0.28445
1945.92153	0.28313
1943.99297	0.28196
1942.06440	0.28051
1940.13584	0.27855
1938.20728	0.27670
1936.27871	0.27522
1934.35015	0.27383
1932.42158	0.27247
1930.49302	0.27116
1928.56445	0.26999
1926.63589	0.26900
1924.70732	0.26834
1922.77876	0.26772
1920.85020	0.26665
1918.92163	0.26560
1916.99307	0.26467
1915.06450	0.26340
1913.13594	0.26215
1911.20737	0.26138
1909.27881	0.26087
1907.35024	0.26017
1905.42168	0.25934
1903.49312	0.25862
1901.56455	0.25797
1899.63599	0.25737
1897.70742	0.25698
1895.77886	0.25678
1893.85029	0.25648
1891.92173	0.25611
1889.99316	0.25598
1888.06460	0.25562
1886.13604	0.25499
1884.20747	0.25460
1882.27891	0.25432
1880.35034	0.25408
1878.42178	0.25394
1876.49321	0.25385
1874.56465	0.25382
1872.63608	0.25408
1870.70752	0.25485
1868.77896	0.25608
1866.85039	0.25645
1864.92183	0.25563
1862.99326	0.25498
1861.06470	0.25498
1859.13613	0.25537
1857.20757	0.25571
1855.27900	0.25601
1853.35044	0.25632
1851.42187	0.25680
1849.49331	0.25756
1847.56475	0.25866
1845.63618	0.26008
1843.70762	0.26132
1841.77905	0.26160
1839.85049	0.26156
1837.92192	0.26211
1835.99336	0.26294
1834.06479	0.26383
1832.13623	0.26511
1830.20767	0.26713
1828.27910	0.26884
1826.35054	0.26969
1824.42197	0.27063
1822.49341	0.27139
1820.56484	0.27221
1818.63628	0.27349
1816.70771	0.27517
1814.77915	0.27691
1812.85059	0.27886
1810.92202	0.28111
1808.99346	0.28311
1807.06489	0.28478
1805.13633	0.28661
1803.20776	0.28910
1801.27920	0.29214
1799.35063	0.29517
1797.42207	0.29754
1795.49351	0.29994
1793.56494	0.30311
1791.63638	0.30690
1789.70781	0.30965
1787.77925	0.31147
1785.85068	0.31433
1783.92212	0.31816
1781.99355	0.32240
1780.06499	0.32683
1778.13643	0.33108
1776.20786	0.33511
1774.27930	0.33986
1772.35073	0.34638
1770.42217	0.35266
1768.49360	0.35712
1766.56504	0.36139
1764.63647	0.36619
1762.70791	0.37196
1760.77935	0.37924
1758.85078	0.38570
1756.92222	0.39209
1754.99365	0.39888
1753.06509	0.40504
1751.13652	0.41298
1749.20796	0.42326
1747.27939	0.43299
1745.35083	0.44134
1743.42227	0.45056
1741.49370	0.46111
1739.56514	0.47398
1737.63657	0.48711
1735.70801	0.49890
1733.77944	0.51704
1731.85088	0.53797
1729.92231	0.55336
1727.99375	0.56879
1726.06519	0.58564
1724.13662	0.60446
1722.20806	0.62496
1720.27949	0.64405
1718.35093	0.66705
1716.42236	0.70117
1714.49380	0.73180
1712.56523	0.75518
1710.63667	0.77822
1708.70811	0.80393
1706.77954	0.83402
1704.85098	0.87041
1702.92241	0.90252
1700.99385	0.93394
1699.06528	0.98151
1697.13672	1.02522
1695.20815	1.06917
1693.27959	1.11103
1691.35103	1.14498
1689.42246	1.18550
1687.49390	1.22879
1685.56533	1.27032
1683.63677	1.33583
1681.70820	1.40376
1679.77964	1.44541
1677.85107	1.48525
1675.92251	1.53154
1673.99395	1.58944
1672.06538	1.64102
1670.13682	1.69253
1668.20825	1.76029
1666.27969	1.81340
1664.35112	1.85837
1662.42256	1.91728
1660.49399	1.98502
1658.56543	2.03683
1656.63687	2.07907
1654.70830	2.11831
1652.77974	2.17944
1650.85117	2.23612
1648.92261	2.25507
1646.99404	2.28167
1645.06548	2.30887
1643.13691	2.32476
1641.20835	2.33295
1639.27979	2.34124
1637.35122	2.34704
1635.42266	2.34666
1633.49409	2.33685
1631.56553	2.32059
1629.63696	2.30248
1627.70840	2.27430
1625.77983	2.24221
1623.85127	2.20096
1621.92271	2.14988
1619.99414	2.10520
1618.06558	2.06174
1616.13701	1.99637
1614.20845	1.92881
1612.27988	1.87876
1610.35132	1.82657
1608.42275	1.76958
1606.49419	1.71373
1604.56562	1.66283
1602.63706	1.61363
1600.70850	1.56547
1598.77993	1.52167
1596.85137	1.48129
1594.92280	1.44204
1592.99424	1.40341
1591.06567	1.36799
1589.13711	1.33520
1587.20854	1.30461
1585.27998	1.27635
1583.35142	1.25043
1581.42285	1.22716
1579.49429	1.20769
1577.56572	1.19087
1575.63716	1.16988
1573.70859	1.15046
1571.78003	1.13807
1569.85146	1.12607
1567.92290	1.11267
1565.99434	1.10245
1564.06577	1.09474
1562.13721	1.08936
1560.20864	1.08757
1558.28008	1.08748
1556.35151	1.08551
1554.42295	1.08320
1552.49438	1.08132
1550.56582	1.07862
1548.63726	1.07400
1546.70869	1.06811
1544.78013	1.06051
1542.85156	1.04995
1540.92300	1.03372
1538.99443	1.00696
1537.06587	0.98722
1535.13730	0.97430
1533.20874	0.95669
1531.28018	0.93726
1529.35161	0.92359
1527.42305	0.91162
1525.49448	0.89949
1523.56592	0.88917
1521.63735	0.87907
1519.70879	0.86784
1517.78022	0.85810
1515.85166	0.84696
1513.92310	0.83540
1511.99453	0.82603
1510.06597	0.81843
1508.13740	0.81141
1506.20884	0.79735
1504.28027	0.78359
1502.35171	0.77638
1500.42314	0.77084
1498.49458	0.76524
1496.56602	0.75806
1494.63745	0.75039
1492.70889	0.74489
1490.78032	0.74083
1488.85176	0.73587
1486.92319	0.72986
1484.99463	0.72458
1483.06606	0.72071
1481.13750	0.71789
1479.20894	0.71588
1477.28037	0.71486
1475.35181	0.71465
1473.42324	0.71425
1471.49468	0.71154
1469.56611	0.70756
1467.63755	0.70456
1465.70898	0.70284
1463.78042	0.70196
1461.85186	0.70168
1459.92329	0.70257
1457.99473	0.70455
1456.06616	0.70462
1454.13760	0.70157
1452.20903	0.69859
1450.28047	0.69602
1448.35190	0.69356
1446.42334	0.69082
1444.49478	0.68823
1442.56621	0.68602
1440.63765	0.68370
1438.70908	0.68142
1436.78052	0.67912
1434.85195	0.67623
1432.92339	0.67349
1430.99482	0.67172
1429.06626	0.67075
1427.13770	0.67020
1425.20913	0.67030
1423.28057	0.67094
1421.35200	0.67148
1419.42344	0.67195
1417.49487	0.67152
1415.56631	0.66974
1413.63774	0.66827
1411.70918	0.66768
1409.78062	0.66763
1407.85205	0.66799
1405.92349	0.66888
1403.99492	0.66961
1402.06636	0.66958
1400.13779	0.66926
1398.20923	0.66842
1396.28066	0.66639
1394.35210	0.66285
1392.42354	0.65852
1390.49497	0.65479
1388.56641	0.65142
1386.63784	0.64728
1384.70928	0.64252
1382.78071	0.63814
1380.85215	0.63430
1378.92358	0.63115
1376.99502	0.62904
1375.06646	0.62801
1373.13789	0.62704
1371.20933	0.62591
1369.28076	0.62519
1367.35220	0.62444
1365.42363	0.62344
1363.49507	0.62253
1361.56650	0.62116
1359.63794	0.61914
1357.70937	0.61736
1355.78081	0.61605
1353.85225	0.61487
1351.92368	0.61373
1349.99512	0.61281
1348.06655	0.61194
1346.13799	0.61080
1344.20942	0.60963
1342.28086	0.60903
1340.35229	0.60899
1338.42373	0.60854
1336.49517	0.60730
1334.56660	0.60605
1332.63804	0.60532
1330.70947	0.60511
1328.78091	0.60524
1326.85234	0.60556
1324.92378	0.60592
1322.99521	0.60637
1321.06665	0.60695
1319.13809	0.60753
1317.20952	0.60768
1315.28096	0.60737
1313.35239	0.60686
1311.42383	0.60608
1309.49526	0.60507
1307.56670	0.60413
1305.63813	0.60321
1303.70957	0.60221
1301.78101	0.60116
1299.85244	0.60013
1297.92388	0.59915
1295.99531	0.59801
1294.06675	0.59670
1292.13818	0.59537
1290.20962	0.59412
1288.28105	0.59291
1286.35249	0.59168
1284.42393	0.59047
1282.49536	0.58927
1280.56680	0.58802
1278.63823	0.58666
1276.70967	0.58530
1274.78110	0.58414
1272.85254	0.58317
1270.92397	0.58237
1268.99541	0.58163
1267.06685	0.58082
1265.13828	0.57994
1263.20972	0.57909
1261.28115	0.57836
1259.35259	0.57761
1257.42402	0.57689
1255.49546	0.57654
1253.56689	0.57663
1251.63833	0.57685
1249.70977	0.57691
1247.78120	0.57678
1245.85264	0.57648
1243.92407	0.57589
1241.99551	0.57495
1240.06694	0.57375
1238.13838	0.57229
1236.20981	0.57052
1234.28125	0.56856
1232.35269	0.56658
1230.42412	0.56465
1228.49556	0.56275
1226.56699	0.56088
1224.63843	0.55904
1222.70986	0.55729
1220.78130	0.55569
1218.85273	0.55423
1216.92417	0.55282
1214.99561	0.55154
1213.06704	0.55057
1211.13848	0.54980
1209.20991	0.54908
1207.28135	0.54840
1205.35278	0.54762
1203.42422	0.54665
1201.49565	0.54564
1199.56709	0.54464
1197.63853	0.54357
1195.70996	0.54256
1193.78140	0.54169
1191.85283	0.54098
1189.92427	0.54044
1187.99570	0.53990
1186.06714	0.53937
1184.13857	0.53916
1182.21001	0.53930
1180.28145	0.53969
1178.35288	0.54053
1176.42432	0.54182
1174.49575	0.54311
1172.56719	0.54408
1170.63862	0.54470
1168.71006	0.54513
1166.78149	0.54573
1164.85293	0.54657
1162.92437	0.54728
1160.99580	0.54759
1159.06724	0.54758
1157.13867	0.54735
1155.21011	0.54688
1153.28154	0.54605
1151.35298	0.54455
1149.42441	0.54221
1147.49585	0.53929
1145.56729	0.53627
1143.63872	0.53358
1141.71016	0.53135
1139.78159	0.52948
1137.85303	0.52806
1135.92446	0.52735
1133.99590	0.52713
1132.06733	0.52709
1130.13877	0.52722
1128.21021	0.52733
1126.28164	0.52717
1124.35308	0.52678
1122.42451	0.52652
1120.49595	0.52654
1118.56738	0.52676
1116.63882	0.52730
1114.71025	0.52809
1112.78169	0.52888
1110.85312	0.52954
1108.92456	0.53021
1106.99600	0.53107
1105.06743	0.53193
1103.13887	0.53263
1101.21030	0.53347
1099.28174	0.53476
1097.35317	0.53646
1095.42461	0.53878
1093.49604	0.54244
1091.56748	0.54752
1089.63892	0.55379
1087.71035	0.56156
1085.78179	0.57058
1083.85322	0.57965
1081.92466	0.58757
1079.99609	0.59339
1078.06753	0.59614
1076.13896	0.59545
1074.21040	0.59182
1072.28184	0.58623
1070.35327	0.57967
1068.42471	0.57270
1066.49614	0.56559
1064.56758	0.55893
1062.63901	0.55326
1060.71045	0.54869
1058.78188	0.54486
1056.85332	0.54137
1054.92476	0.53817
1052.99619	0.53545
1051.06763	0.53332
1049.13906	0.53181
1047.21050	0.53090
1045.28193	0.53045
1043.35337	0.53044
1041.42480	0.53084
1039.49624	0.53134
1037.56768	0.53168
1035.63911	0.53159
1033.71055	0.53095
1031.78198	0.52968
1029.85342	0.52780
1027.92485	0.52573
1025.99629	0.52384
1024.06772	0.52210
1022.13916	0.52078
1020.21060	0.52026
1018.28203	0.52012
1016.35347	0.51985
1014.42490	0.51940
1012.49634	0.51881
1010.56777	0.51837
1008.63921	0.51825
1006.71064	0.51843
1004.78208	0.51917
1002.85352	0.52071
1000.92495	0.52301
998.99639	0.52613
997.06782	0.53008
995.13926	0.53445
993.21069	0.53864
991.28213	0.54197
989.35356	0.54389
987.42500	0.54448
985.49644	0.54434
983.56787	0.54387
981.63931	0.54348
979.71074	0.54376
977.78218	0.54494
975.85361	0.54686
973.92505	0.54932
971.99648	0.55222
970.06792	0.55541
968.13936	0.55890
966.21079	0.56289
964.28223	0.56720
962.35366	0.57177
960.42510	0.57671
958.49653	0.58198
956.56797	0.58760
954.63940	0.59347
952.71084	0.59934
950.78228	0.60529
948.85371	0.61152
946.92515	0.61789
944.99658	0.62407
943.06802	0.63016
941.13945	0.63623
939.21089	0.64214
937.28232	0.64814
935.35376	0.65423
933.42520	0.65971
931.49663	0.66464
929.56807	0.66996
927.63950	0.67606
925.71094	0.68277
923.78237	0.68991
921.85381	0.69684
919.92524	0.70331
917.99668	0.70970
916.06812	0.71636
914.13955	0.72381
912.21099	0.73186
910.28242	0.73981
908.35386	0.74810
906.42529	0.75696
904.49673	0.76570
902.56816	0.77446
900.63960	0.78357
898.71104	0.79255
896.78247	0.80141
894.85391	0.81068
892.92534	0.82080
890.99678	0.83214
889.06821	0.84403
887.13965	0.85447
885.21108	0.86364
883.28252	0.87425
881.35396	0.88641
879.42539	0.89785
877.49683	0.90793
875.56826	0.91842
873.63970	0.93064
871.71113	0.94298
869.78257	0.95444
867.85400	0.96648
865.92544	0.97922
863.99687	0.99155
862.06831	1.00316
860.13975	1.01414
858.21118	1.02555
856.28262	1.03787
854.35405	1.04891
852.42549	1.05726
850.49692	1.06672
848.56836	1.08037
846.63979	1.09529
844.71123	1.10769
842.78267	1.11724
840.85410	1.12833
838.92554	1.14367
836.99697	1.15754
835.06841	1.16476
833.13984	1.17056
831.21128	1.18094
829.28271	1.19299
827.35415	1.20530
825.42559	1.22320
823.49702	1.24234
821.56846	1.25094
819.63989	1.25666
817.71133	1.26852
815.78276	1.27583
813.85420	1.27789
811.92563	1.28439
809.99707	1.29363
808.06851	1.30710
806.13994	1.32641
804.21138	1.33924
802.28281	1.34447
800.35425	1.35006
798.42568	1.35783
796.49712	1.36671
794.56855	1.38182
792.63999	1.40994
790.71143	1.42824
788.78286	1.41516
786.85430	1.39607
784.92573	1.40086
782.99717	1.42192
781.06860	1.45900
779.14004	1.51811
777.21147	1.59426
775.28291	1.65192
773.35435	1.58678
771.42578	1.51095
769.49722	1.54183
767.56865	1.68944
765.64009	1.94152
763.71152	2.10888
761.78296	1.75370
759.85439	1.53807
757.92583	1.48671
755.99727	1.46203
754.06870	1.42341
752.14014	1.40887
750.21157	1.45745
748.28301	1.44031
746.35444	1.28035
744.42588	1.21061
742.49731	1.21143
740.56875	1.10681
738.64019	1.06021
736.71162	1.22616
734.78306	4.40870
732.85449	4.39713
730.92593	4.38556
728.99736	1.49827
727.06880	0.85143
725.14023	0.59395
723.21167	0.50958
721.28311	0.28099
719.35454	-0.00054
717.42598	-0.18499
715.49741	0.14881
713.56885	4.28141
711.64028	4.26984
709.71172	-0.20865
707.78315	-0.29530
705.85459	-0.05379
703.92603	0.09364
701.99746	0.15405
700.06890	0.26407
698.14033	0.45483
696.21177	0.60986
694.28320	0.66357
692.35464	0.86759
690.42607	0.96109
688.49751	0.60044
686.56895	0.43225
684.64038	0.42204
682.71182	0.47805
680.78325	0.53972
678.85469	0.62057
676.92612	1.13196
674.99756	4.04999
673.06899	1.04573
671.14043	0.49589
669.21187	0.44559
667.28330	0.45675
665.35474	0.41954
663.42617	0.41700
661.49761	0.51907
659.56904	0.61389
657.64048	0.60014
655.71191	0.55772
653.78335	0.53395
651.85479	0.53122
649.92622	0.54295
647.99766	0.53283
646.06909	0.47811
644.14053	0.40398
642.21196	0.36034
640.28340	0.34448
638.35483	0.29567
636.42627	0.25423
634.49771	0.26218
632.56914	0.28012
630.64058	0.28125
628.71201	0.30001
626.78345	0.39305
624.85488	0.43364
622.92632	0.38799
620.99775	0.40779
619.06919	0.46628
617.14062	0.44541
615.21206	0.47171
613.28350	0.73343
611.35493	3.66813
609.42637	3.65656
607.49780	3.64499
605.56924	0.56936
603.64067	0.41673
601.71211	0.34418
599.78354	0.22645
597.85498	0.15489
595.92642	0.24454
593.99785	0.62105
592.06929	3.55242
590.14072	3.54084
588.21216	0.84297
586.28359	0.73671
584.35503	0.79379
582.42646	0.57059
580.49790	0.39045
578.56934	0.36094
576.64077	0.42688
574.71221	0.53872
572.78364	0.64458
570.85508	0.53330
568.92651	0.40031
566.99795	0.40541
565.06938	0.62151
563.14082	0.80106
561.21226	0.50349
559.28369	0.37263
557.35513	0.33570
555.42656	0.26354
553.49800	0.22681
551.56943	0.28179
549.64087	0.32847
547.71230	0.32541
545.78374	0.35320
543.85518	0.40857
541.92661	0.42501
539.99805	0.37487
538.06948	0.31846
536.14092	0.30392
534.21235	0.34850
532.28379	0.49399
530.35522	0.78444
528.42666	0.54084
526.49810	0.37922
524.56953	0.42356
522.64097	0.54099
520.71240	0.42943
518.78384	0.34102
516.85527	0.39078
514.92671	0.51168
512.99814	0.61985
511.06958	0.63147
509.14102	0.45488
507.21245	0.32261
505.28389	0.32901
503.35532	0.42086
501.42676	0.38476
499.49819	0.29485
