3997.91411	0.07013
3995.98555	0.07040
3994.05698	0.07062
3992.12842	0.07079
3990.19985	0.07104
3988.27129	0.07155
3986.34272	0.07211
3984.41416	0.07270
3982.48560	0.07336
3980.55703	0.07386
3978.62847	0.07398
3976.69990	0.07385
3974.77134	0.07372
3972.84277	0.07363
3970.91421	0.07351
3968.98564	0.07342
3967.05708	0.07354
3965.12852	0.07392
3963.19995	0.07435
3961.27139	0.07452
3959.34282	0.07435
3957.41426	0.07427
3955.48569	0.07478
3953.55713	0.07552
3951.62856	0.07595
3949.70000	0.07611
3947.77144	0.07599
3945.84287	0.07550
3943.91431	0.07526
3941.98574	0.07570
3940.05718	0.07602
3938.12861	0.07580
3936.20005	0.07536
3934.27148	0.07502
3932.34292	0.07531
3930.41436	0.07586
3928.48579	0.07570
3926.55723	0.07548
3924.62866	0.07589
3922.70010	0.07616
3920.77153	0.07564
3918.84297	0.07508
3916.91440	0.07511
3914.98584	0.07527
3913.05728	0.07503
3911.12871	0.07454
3909.20015	0.07399
3907.27158	0.07406
3905.34302	0.07523
3903.41445	0.07652
3901.48589	0.07656
3899.55732	0.07598
3897.62876	0.07540
3895.70020	0.07475
3893.77163	0.07470
3891.84307	0.07555
3889.91450	0.07604
3887.98594	0.07553
3886.05737	0.07559
3884.12881	0.07637
3882.20024	0.07660
3880.27168	0.07635
3878.34312	0.07584
3876.41455	0.07528
3874.48599	0.07562
3872.55742	0.07700
3870.62886	0.07818
3868.70029	0.07815
3866.77173	0.07776
3864.84316	0.07872
3862.91460	0.08024
3860.98604	0.07996
3859.05747	0.07871
3857.12891	0.07862
3855.20034	0.08015
3853.27178	0.08335
3851.34321	0.08569
3849.41465	0.08411
3847.48608	0.08187
3845.55752	0.08087
3843.62896	0.08147
3841.70039	0.08308
3839.77183	0.08483
3837.84326	0.08638
3835.91470	0.08697
3833.98613	0.08680
3832.05757	0.08657
3830.12900	0.08651
3828.20044	0.08678
3826.27187	0.08754
3824.34331	0.08870
3822.41475	0.09032
3820.48618	0.09279
3818.55762	0.09440
3816.62905	0.09459
3814.70049	0.09448
3812.77192	0.09407
3810.84336	0.09391
3808.91479	0.09470
3806.98623	0.09685
3805.05767	0.09928
3803.12910	0.10054
3801.20054	0.10180
3799.27197	0.10333
3797.34341	0.10422
3795.41484	0.10469
3793.48628	0.10465
3791.55771	0.10491
3789.62915	0.10592
3787.70059	0.10706
3785.77202	0.10834
3783.84346	0.11006
3781.91489	0.11210
3779.98633	0.11439
3778.05776	0.11635
3776.12920	0.11715
3774.20063	0.11784
3772.27207	0.11957
3770.34351	0.12226
3768.41494	0.12490
3766.48638	0.12669
3764.55781	0.12826
3762.62925	0.12994
3760.70068	0.13217
3758.77212	0.13527
3756.84355	0.13810
3754.91499	0.14021
3752.98643	0.14305
3751.05786	0.14789
3749.12930	0.15265
3747.20073	0.15438
3745.27217	0.15631
3743.34360	0.16037
3741.41504	0.16415
3739.48647	0.16686
3737.55791	0.17033
3735.62935	0.17571
3733.70078	0.18175
3731.77222	0.18597
3729.84365	0.18937
3727.91509	0.19320
3725.98652	0.19842
3724.05796	0.20509
3722.12939	0.21222
3720.20083	0.21922
3718.27227	0.22570
3716.34370	0.23215
3714.41514	0.23928
3712.48657	0.24874
3710.55801	0.26251
3708.62944	0.27690
3706.70088	0.28820
3704.77231	0.29907
3702.84375	0.31234
3700.91519	0.32979
3698.98662	0.34851
3697.05806	0.36596
3695.12949	0.38434
3693.20093	0.40384
3691.27236	0.42533
3689.34380	0.45391
3687.41523	0.48939
3685.48667	0.51978
3683.55811	0.54528
3681.62954	0.57251
3679.70098	0.60396
3677.77241	0.63783
3675.84385	0.67741
3673.91528	0.73028
3671.98672	0.77349
3670.05815	0.81288
3668.12959	0.86780
3666.20103	0.91647
3664.27246	0.95604
3662.34390	0.99872
3660.41533	1.04523
3658.48677	1.09104
3656.55820	1.13966
3654.62964	1.19450
3652.70107	1.24057
3650.77251	1.28036
3648.84395	1.33762
3646.91538	1.40985
3644.98682	1.45962
3643.05825	1.49570
3641.12969	1.53365
3639.20112	1.57760
3637.27256	1.62298
3635.34399	1.66681
3633.41543	1.71004
3631.48687	1.75027
3629.55830	1.79085
3627.62974	1.84510
3625.70117	1.89640
3623.77261	1.93077
3621.84404	1.96312
3619.91548	1.99971
3617.98691	2.04465
3616.05835	2.08846
3614.12979	2.12473
3612.20122	2.16359
3610.27266	2.20375
3608.34409	2.24462
3606.41553	2.28810
3604.48696	2.32713
3602.55840	2.36022
3600.62983	2.39599
3598.70127	2.43676
3596.77271	2.47791
3594.84414	2.51978
3592.91558	2.56245
3590.98701	2.60121
3589.05845	2.63617
3587.12988	2.67827
3585.20132	2.72648
3583.27275	2.76763
3581.34419	2.80449
3579.41562	2.84412
3577.48706	2.88689
3575.55850	2.92950
3573.62993	2.97311
3571.70137	3.01640
3569.77280	3.05702
3567.84424	3.09907
3565.91567	3.14948
3563.98711	3.19760
3562.05854	3.23771
3560.12998	3.27937
3558.20142	3.32414
3556.27285	3.36911
3554.34429	3.41351
3552.41572	3.46014
3550.48716	3.50738
3548.55859	3.55228
3546.63003	3.59732
3544.70146	3.64501
3542.77290	3.69271
3540.84434	3.73822
3538.91577	3.78147
3536.98721	3.82504
3535.05864	3.87345
3533.13008	3.92242
3531.20151	3.97003
3529.27295	4.02036
3527.34438	4.07224
3525.41582	4.11842
3523.48726	4.16042
3521.55869	4.20740
3519.63013	4.25846
3517.70156	4.30818
3515.77300	4.35631
3513.84443	4.40467
3511.91587	4.45034
3509.98730	4.49429
3508.05874	4.54011
3506.13018	4.58484
3504.20161	4.62809
3502.27305	4.67401
3500.34448	4.72114
3498.41592	4.76537
3496.48735	4.81358
3494.55879	4.86995
3492.63022	4.92573
3490.70166	4.97641
3488.77310	5.02275
3486.84453	5.06372
3484.91597	5.10301
3482.98740	5.14707
3481.05884	5.19989
3479.13027	5.25353
3477.20171	5.29792
3475.27314	5.34044
3473.34458	5.38849
3471.41602	5.43647
3469.48745	5.48048
3467.55889	5.52626
3465.63032	5.57788
3463.70176	5.63136
3461.77319	5.68268
3459.84463	5.73489
3457.91606	5.78799
3455.98750	5.83859
3454.05894	5.88507
3452.13037	5.93554
3450.20181	5.99581
3448.27324	6.05490
3446.34468	6.10809
3444.41611	6.15372
3442.48755	6.19401
3440.55898	6.22712
3438.63042	6.25559
3436.70186	6.30141
3434.77329	6.36940
3432.84473	6.43210
3430.91616	6.47890
3428.98760	6.52935
3427.05903	6.57766
3425.13047	6.62307
3423.20190	6.66661
3421.27334	6.69149
3419.34478	6.72288
3417.41621	6.79817
3415.48765	6.88682
3413.55908	6.94486
3411.63052	6.97181
3409.70195	6.98615
3407.77339	7.02439
3405.84482	7.08114
3403.91626	7.13574
3401.98770	7.17561
3400.05913	7.17937
3398.13057	7.17826
3396.20200	7.20983
3394.27344	7.24446
3392.34487	7.26776
3390.41631	7.33102
3388.48774	7.41969
3386.55918	7.49293
3384.63062	7.54962
3382.70205	7.58487
3380.77349	7.58852
3378.84492	7.60120
3376.91636	7.65935
3374.98779	7.70414
3373.05923	7.72832
3371.13066	7.75583
3369.20210	7.75177
3367.27354	7.71409
3365.34497	7.73010
3363.41641	7.79217
3361.48784	7.80781
3359.55928	7.81923
3357.63071	7.84899
3355.70215	7.86655
3353.77358	7.87470
3351.84502	7.86915
3349.91646	7.83634
3347.98789	7.81795
3346.05933	7.84862
3344.13076	7.91137
3342.20220	7.96447
3340.27363	7.94270
3338.34507	7.91338
3336.41650	7.96629
3334.48794	8.02964
3332.55937	8.05214
3330.63081	8.11964
3328.70225	8.17762
3326.77368	8.12191
3324.84512	8.04435
3322.91655	7.99416
3320.98799	7.94862
3319.05942	7.94000
3317.13086	7.98733
3315.20229	8.02618
3313.27373	8.04230
3311.34517	8.06427
3309.41660	8.09892
3307.48804	8.14738
3305.55947	8.18925
3303.63091	8.19982
3301.70234	8.16138
3299.77378	8.12861
3297.84521	8.15474
3295.91665	8.22892
3293.98809	8.26330
3292.05952	8.21681
3290.13096	8.20226
3288.20239	8.26649
3286.27383	8.23733
3284.34526	8.10117
3282.41670	8.11483
3280.48813	8.26171
3278.55957	8.33410
3276.63101	8.35906
3274.70244	8.38783
3272.77388	8.31605
3270.84531	8.23923
3268.91675	8.30710
3266.98818	8.40841
3265.05962	8.30667
3263.13105	8.04839
3261.20249	7.94612
3259.27393	8.05576
3257.34536	8.20707
3255.41680	8.27766
3253.48823	8.22910
3251.55967	8.12128
3249.63110	8.06604
3247.70254	8.11712
3245.77397	8.15305
3243.84541	8.07624
3241.91685	8.02218
3239.98828	8.08402
3238.05972	8.22755
3236.13115	8.35890
3234.20259	8.38306
3232.27402	8.27159
3230.34546	8.09606
3228.41689	7.97280
3226.48833	7.96312
3224.55977	8.01941
3222.63120	8.02569
3220.70264	7.97503
3218.77407	7.96822
3216.84551	8.00834
3214.91694	8.01784
3212.98838	7.96252
3211.05981	7.86980
3209.13125	7.80219
3207.20269	7.76375
3205.27412	7.73796
3203.34556	7.74516
3201.41699	7.73073
3199.48843	7.65843
3197.55986	7.60111
3195.63130	7.57410
3193.70273	7.54218
3191.77417	7.49804
3189.84561	7.44437
3187.91704	7.38234
3185.98848	7.32490
3184.05991	7.27950
3182.13135	7.23673
3180.20278	7.18739
3178.27422	7.13194
3176.34565	7.10559
3174.41709	7.10315
3172.48853	7.06020
3170.55996	6.96951
3168.63140	6.89373
3166.70283	6.87082
3164.77427	6.84081
3162.84570	6.75333
3160.91714	6.66740
3158.98857	6.61413
3157.06001	6.55468
3155.13145	6.47458
3153.20288	6.38980
3151.27432	6.31062
3149.34575	6.24280
3147.41719	6.18921
3145.48862	6.13995
3143.56006	6.07544
3141.63149	6.00191
3139.70293	5.94312
3137.77437	5.89057
3135.84580	5.82290
3133.91724	5.74462
3131.98867	5.66428
3130.06011	5.58721
3128.13154	5.51758
3126.20298	5.45189
3124.27441	5.38538
3122.34585	5.31640
3120.41729	5.24763
3118.48872	5.17784
3116.56016	5.10519
3114.63159	5.03215
3112.70303	4.96385
3110.77446	4.90168
3108.84590	4.83791
3106.91733	4.76757
3104.98877	4.69413
3103.06021	4.62505
3101.13164	4.56302
3099.20308	4.50415
3097.27451	4.44559
3095.34595	4.38609
3093.41738	4.32316
3091.48882	4.25829
3089.56025	4.19533
3087.63169	4.13313
3085.70312	4.07137
3083.77456	4.01224
3081.84600	3.95348
3079.91743	3.89161
3077.98887	3.82953
3076.06030	3.76925
3074.13174	3.71009
3072.20317	3.65376
3070.27461	3.59879
3068.34604	3.54413
3066.41748	3.49151
3064.48892	3.44008
3062.56035	3.38678
3060.63179	3.33105
3058.70322	3.27612
3056.77466	3.22302
3054.84609	3.17038
3052.91753	3.11867
3050.98896	3.06842
3049.06040	3.01871
3047.13184	2.96950
3045.20327	2.92157
3043.27471	2.87466
3041.34614	2.82771
3039.41758	2.78023
3037.48901	2.73319
3035.56045	2.68764
3033.63188	2.64254
3031.70332	2.59685
3029.77476	2.55162
3027.84619	2.50831
3025.91763	2.46677
3023.98906	2.42562
3022.06050	2.38415
3020.13193	2.34305
3018.20337	2.30313
3016.27480	2.26385
3014.34624	2.22434
3012.41768	2.18515
3010.48911	2.14698
3008.56055	2.10961
3006.63198	2.07321
3004.70342	2.03802
3002.77485	2.00335
3000.84629	1.96898
2998.91772	1.93546
2996.98916	1.90266
2995.06060	1.87062
2993.13203	1.83960
2991.20347	1.80924
2989.27490	1.77964
2987.34634	1.75099
2985.41777	1.72296
2983.48921	1.69547
2981.56064	1.66849
2979.63208	1.64164
2977.70352	1.61490
2975.77495	1.58884
2973.84639	1.56393
2971.91782	1.53938
2969.98926	1.51462
2968.06069	1.49039
2966.13213	1.46691
2964.20356	1.44339
2962.27500	1.41953
2960.34644	1.39596
2958.41787	1.37306
2956.48931	1.35027
2954.56074	1.32724
2952.63218	1.30395
2950.70361	1.28023
2948.77505	1.25665
2946.84648	1.23412
2944.91792	1.21246
2942.98936	1.19103
2941.06079	1.17007
2939.13223	1.14992
2937.20366	1.13041
2935.27510	1.11159
2933.34653	1.09343
2931.41797	1.07494
2929.48940	1.05568
2927.56084	1.03624
2925.63228	1.01706
2923.70371	0.99810
2921.77515	0.97917
2919.84658	0.96023
2917.91802	0.94165
2915.98945	0.92390
2914.06089	0.90686
2912.13232	0.89043
2910.20376	0.87464
2908.27520	0.85919
2906.34663	0.84416
2904.41807	0.82975
2902.48950	0.81542
2900.56094	0.80073
2898.63237	0.78650
2896.70381	0.77350
2894.77524	0.76101
2892.84668	0.74824
2890.91812	0.73551
2888.98955	0.72333
2887.06099	0.71196
2885.13242	0.70144
2883.20386	0.69143
2881.27529	0.68168
2879.34673	0.67209
2877.41816	0.66244
2875.48960	0.65274
2873.56104	0.64298
2871.63247	0.63267
2869.70391	0.62152
2867.77534	0.61002
2865.84678	0.59850
2863.91821	0.58692
2861.98965	0.57551
2860.06108	0.56463
2858.13252	0.55430
2856.20396	0.54430
2854.27539	0.53464
2852.34683	0.52521
2850.41826	0.51586
2848.48970	0.50694
2846.56113	0.49866
2844.63257	0.49098
2842.70400	0.48397
2840.77544	0.47753
2838.84687	0.47153
2836.91831	0.46573
2834.98975	0.45978
2833.06118	0.45369
2831.13262	0.44770
2829.20405	0.44186
2827.27549	0.43588
2825.34692	0.42968
2823.41836	0.42347
2821.48979	0.41738
2819.56123	0.41140
2817.63267	0.40547
2815.70410	0.39976
2813.77554	0.39435
2811.84697	0.38888
2809.91841	0.38328
2807.98984	0.37784
2806.06128	0.37263
2804.13271	0.36750
2802.20415	0.36235
2800.27559	0.35725
2798.34702	0.35236
2796.41846	0.34755
2794.48989	0.34264
2792.56133	0.33791
2790.63276	0.33336
2788.70420	0.32883
2786.77563	0.32441
2784.84707	0.32013
2782.91851	0.31585
2780.98994	0.31165
2779.06138	0.30765
2777.13281	0.30374
2775.20425	0.29978
2773.27568	0.29574
2771.34712	0.29182
2769.41855	0.28811
2767.48999	0.28449
2765.56143	0.28102
2763.63286	0.27780
2761.70430	0.27463
2759.77573	0.27129
2757.84717	0.26798
2755.91860	0.26479
2753.99004	0.26148
2752.06147	0.25821
2750.13291	0.25518
2748.20435	0.25229
2746.27578	0.24941
2744.34722	0.24649
2742.41865	0.24353
2740.49009	0.24061
2738.56152	0.23796
2736.63296	0.23563
2734.70439	0.23327
2732.77583	0.23064
2730.84727	0.22784
2728.91870	0.22524
2726.99014	0.22298
2725.06157	0.22084
2723.13301	0.21865
2721.20444	0.21655
2719.27588	0.21451
2717.34731	0.21234
2715.41875	0.21024
2713.49019	0.20842
2711.56162	0.20668
2709.63306	0.20485
2707.70449	0.20305
2705.77593	0.20145
2703.84736	0.19999
2701.91880	0.19856
2699.99023	0.19711
2698.06167	0.19553
2696.13311	0.19396
2694.20454	0.19258
2692.27598	0.19122
2690.34741	0.18979
2688.41885	0.18851
2686.49028	0.18736
2684.56172	0.18616
2682.63315	0.18492
2680.70459	0.18371
2678.77603	0.18249
2676.84746	0.18129
2674.91890	0.18020
2672.99033	0.17908
2671.06177	0.17788
2669.13320	0.17668
2667.20464	0.17572
2665.27607	0.17506
2663.34751	0.17433
2661.41895	0.17340
2659.49038	0.17244
2657.56182	0.17156
2655.63325	0.17072
2653.70469	0.16993
2651.77612	0.16924
2649.84756	0.16872
2647.91899	0.16821
2645.99043	0.16755
2644.06187	0.16678
2642.13330	0.16609
2640.20474	0.16565
2638.27617	0.16531
2636.34761	0.16483
2634.41904	0.16428
2632.49048	0.16390
2630.56191	0.16361
2628.63335	0.16321
2626.70479	0.16267
2624.77622	0.16218
2622.84766	0.16192
2620.91909	0.16180
2618.99053	0.16161
2617.06196	0.16126
2615.13340	0.16082
2613.20483	0.16041
2611.27627	0.16015
2609.34771	0.16010
2607.41914	0.16023
2605.49058	0.16030
2603.56201	0.16027
2601.63345	0.16025
2599.70488	0.16014
2597.77632	0.15990
2595.84775	0.15978
2593.91919	0.15984
2591.99062	0.15998
2590.06206	0.16012
2588.13350	0.16022
2586.20493	0.16029
2584.27637	0.16041
2582.34780	0.16062
2580.41924	0.16093
2578.49067	0.16133
2576.56211	0.16174
2574.63354	0.16203
2572.70498	0.16226
2570.77642	0.16242
2568.84785	0.16253
2566.91929	0.16284
2564.99072	0.16346
2563.06216	0.16408
2561.13359	0.16444
2559.20503	0.16466
2557.27646	0.16503
2555.34790	0.16560
2553.41934	0.16623
2551.49077	0.16681
2549.56221	0.16737
2547.63364	0.16785
2545.70508	0.16827
2543.77651	0.16870
2541.84795	0.16916
2539.91938	0.16961
2537.99082	0.17018
2536.06226	0.17087
2534.13369	0.17156
2532.20513	0.17225
2530.27656	0.17297
2528.34800	0.17367
2526.41943	0.17442
2524.49087	0.17519
2522.56230	0.17587
2520.63374	0.17654
2518.70518	0.17723
2516.77661	0.17784
2514.84805	0.17837
2512.91948	0.17896
2510.99092	0.17970
2509.06235	0.18064
2507.13379	0.18167
2505.20522	0.18259
2503.27666	0.18334
2501.34810	0.18399
2499.41953	0.18464
2497.49097	0.18538
2495.56240	0.18622
2493.63384	0.18709
2491.70527	0.18796
2489.77671	0.18877
2487.84814	0.18958
2485.91958	0.19044
2483.99102	0.19132
2482.06245	0.19219
2480.13389	0.19306
2478.20532	0.19383
2476.27676	0.19457
2474.34819	0.19538
2472.41963	0.19631
2470.49106	0.19736
2468.56250	0.19835
2466.63394	0.19922
2464.70537	0.20016
2462.77681	0.20115
2460.84824	0.20202
2458.91968	0.20291
2456.99111	0.20392
2455.06255	0.20488
2453.13398	0.20574
2451.20542	0.20665
2449.27686	0.20765
2447.34829	0.20865
2445.41973	0.20957
2443.49116	0.21046
2441.56260	0.21137
2439.63403	0.21228
2437.70547	0.21326
2435.77690	0.21441
2433.84834	0.21554
2431.91978	0.21650
2429.99121	0.21742
2428.06265	0.21843
2426.13408	0.21955
2424.20552	0.22070
2422.27695	0.22185
2420.34839	0.22295
2418.41982	0.22405
2416.49126	0.22520
2414.56270	0.22638
2412.63413	0.22746
2410.70557	0.22838
2408.77700	0.22930
2406.84844	0.23045
2404.91987	0.23178
2402.99131	0.23309
2401.06274	0.23435
2399.13418	0.23550
2397.20562	0.23663
2395.27705	0.23780
2393.34849	0.23899
2391.41992	0.24032
2389.49136	0.24178
2387.56279	0.24334
2385.63423	0.24509
2383.70566	0.24719
2381.77710	0.24963
2379.84854	0.25238
2377.91997	0.25536
2375.99141	0.25836
2374.06284	0.26175
2372.13428	0.26610
2370.20571	0.27102
2368.27715	0.27570
2366.34858	0.28000
2364.42002	0.28373
2362.49146	0.28674
2360.56289	0.28966
2358.63433	0.29186
2356.70576	0.29209
2354.77720	0.29108
2352.84863	0.28940
2350.92007	0.28709
2348.99150	0.28556
2347.06294	0.28605
2345.13437	0.28942
2343.20581	0.29495
2341.27725	0.29920
2339.34868	0.30086
2337.42012	0.30127
2335.49155	0.30192
2333.56299	0.30309
2331.63442	0.30430
2329.70586	0.30500
2327.77729	0.30558
2325.84873	0.30672
2323.92017	0.30805
2321.99160	0.30856
2320.06304	0.30828
2318.13447	0.30811
2316.20591	0.30846
2314.27734	0.30929
2312.34878	0.31044
2310.42021	0.31179
2308.49165	0.31297
2306.56309	0.31381
2304.63452	0.31461
2302.70596	0.31559
2300.77739	0.31673
2298.84883	0.31810
2296.92026	0.31969
2294.99170	0.32136
2293.06313	0.32308
2291.13457	0.32473
2289.20601	0.32618
2287.27744	0.32757
2285.34888	0.32916
2283.42031	0.33097
2281.49175	0.33283
2279.56318	0.33473
2277.63462	0.33683
2275.70605	0.33901
2273.77749	0.34107
2271.84893	0.34310
2269.92036	0.34523
2267.99180	0.34744
2266.06323	0.34959
2264.13467	0.35164
2262.20610	0.35370
2260.27754	0.35568
2258.34897	0.35754
2256.42041	0.35946
2254.49185	0.36160
2252.56328	0.36393
2250.63472	0.36614
2248.70615	0.36822
2246.77759	0.37031
2244.84902	0.37246
2242.92046	0.37473
2240.99189	0.37707
2239.06333	0.37932
2237.13477	0.38145
2235.20620	0.38360
2233.27764	0.38577
2231.34907	0.38795
2229.42051	0.39017
2227.49194	0.39238
2225.56338	0.39455
2223.63481	0.39673
2221.70625	0.39889
2219.77769	0.40101
2217.84912	0.40316
2215.92056	0.40542
2213.99199	0.40774
2212.06343	0.41003
2210.13486	0.41228
2208.20630	0.41438
2206.27773	0.41626
2204.34917	0.41820
2202.42061	0.42034
2200.49204	0.42248
2198.56348	0.42447
2196.63491	0.42631
2194.70635	0.42819
2192.77778	0.43021
2190.84922	0.43217
2188.92065	0.43393
2186.99209	0.43554
2185.06353	0.43717
2183.13496	0.43901
2181.20640	0.44094
2179.27783	0.44268
2177.34927	0.44426
2175.42070	0.44583
2173.49214	0.44739
2171.56357	0.44891
2169.63501	0.45033
2167.70645	0.45165
2165.77788	0.45291
2163.84932	0.45412
2161.92075	0.45522
2159.99219	0.45624
2158.06362	0.45731
2156.13506	0.45841
2154.20649	0.45936
2152.27793	0.46015
2150.34937	0.46084
2148.42080	0.46143
2146.49224	0.46194
2144.56367	0.46240
2142.63511	0.46285
2140.70654	0.46321
2138.77798	0.46347
2136.84941	0.46364
2134.92085	0.46373
2132.99229	0.46380
2131.06372	0.46384
2129.13516	0.46374
2127.20659	0.46349
2125.27803	0.46315
2123.34946	0.46267
2121.42090	0.46215
2119.49233	0.46162
2117.56377	0.46104
2115.63521	0.46042
2113.70664	0.45970
2111.77808	0.45884
2109.84951	0.45782
2107.92095	0.45676
2105.99238	0.45577
2104.06382	0.45466
2102.13525	0.45336
2100.20669	0.45211
2098.27812	0.45083
2096.34956	0.44943
2094.42100	0.44794
2092.49243	0.44632
2090.56387	0.44455
2088.63530	0.44272
2086.70674	0.44093
2084.77817	0.43911
2082.84961	0.43728
2080.92104	0.43541
2078.99248	0.43342
2077.06392	0.43136
2075.13535	0.42925
2073.20679	0.42704
2071.27822	0.42484
2069.34966	0.42264
2067.42109	0.42031
2065.49253	0.41792
2063.56396	0.41554
2061.63540	0.41321
2059.70684	0.41088
2057.77827	0.40843
2055.84971	0.40586
2053.92114	0.40321
2051.99258	0.40056
2050.06401	0.39793
2048.13545	0.39529
2046.20688	0.39265
2044.27832	0.39006
2042.34976	0.38738
2040.42119	0.38450
2038.49263	0.38162
2036.56406	0.37885
2034.63550	0.37609
2032.70693	0.37327
2030.77837	0.37049
2028.84980	0.36775
2026.92124	0.36504
2024.99268	0.36238
2023.06411	0.35972
2021.13555	0.35697
2019.20698	0.35425
2017.27842	0.35148
2015.34985	0.34849
2013.42129	0.34547
2011.49272	0.34265
2009.56416	0.34004
2007.63560	0.33741
2005.70703	0.33465
2003.77847	0.33191
2001.84990	0.32928
1999.92134	0.32668
1997.99277	0.32413
1996.06421	0.32163
1994.13564	0.31911
1992.20708	0.31656
1990.27852	0.31395
1988.34995	0.31136
1986.42139	0.30886
1984.49282	0.30645
1982.56426	0.30410
1980.63569	0.30175
1978.70713	0.29940
1976.77856	0.29707
1974.85000	0.29477
1972.92144	0.29251
1970.99287	0.29040
1969.06431	0.28844
1967.13574	0.28645
1965.20718	0.28427
1963.27861	0.28217
1961.35005	0.28023
1959.42148	0.27832
1957.49292	0.27654
1955.56436	0.27488
1953.63579	0.27314
1951.70723	0.27127
1949.77866	0.26949
1947.85010	0.26788
1945.92153	0.26647
1943.99297	0.26513
1942.06440	0.26364
1940.13584	0.26195
1938.20728	0.26035
1936.27871	0.25892
1934.35015	0.25756
1932.42158	0.25624
1930.49302	0.25499
1928.56445	0.25388
1926.63589	0.25286
1924.70732	0.25196
1922.77876	0.25109
1920.85020	0.25007
1918.92163	0.24913
1916.99307	0.24826
1915.06450	0.24721
1913.13594	0.24613
1911.20737	0.24530
1909.27881	0.24462
1907.35024	0.24398
1905.42168	0.24335
1903.49312	0.24273
1901.56455	0.24207
1899.63599	0.24146
1897.70742	0.24105
1895.77886	0.24077
1893.85029	0.24041
1891.92173	0.23999
1889.99316	0.23976
1888.06460	0.23952
1886.13604	0.23916
1884.20747	0.23888
1882.27891	0.23866
1880.35034	0.23842
1878.42178	0.23824
1876.49321	0.23818
1874.56465	0.23818
1872.63608	0.23832
1870.70752	0.23866
1868.77896	0.23935
1866.85039	0.23974
1864.92183	0.23940
1862.99326	0.23914
1861.06470	0.23926
1859.13613	0.23962
1857.20757	0.24003
1855.27900	0.24048
1853.35044	0.24087
1851.42187	0.24133
1849.49331	0.24193
1847.56475	0.24270
1845.63618	0.24367
1843.70762	0.24475
1841.77905	0.24540
1839.85049	0.24567
1837.92192	0.24631
1835.99336	0.24722
1834.06479	0.24817
1832.13623	0.24922
1830.20767	0.25076
1828.27910	0.25234
1826.35054	0.25336
1824.42197	0.25455
1822.49341	0.25569
1820.56484	0.25675
1818.63628	0.25804
1816.70771	0.25968
1814.77915	0.26135
1812.85059	0.26315
1810.92202	0.26525
1808.99346	0.26732
1807.06489	0.26917
1805.13633	0.27098
1803.20776	0.27314
1801.27920	0.27574
1799.35063	0.27863
1797.42207	0.28111
1795.49351	0.28340
1793.56494	0.28617
1791.63638	0.28987
1789.70781	0.29321
1787.77925	0.29554
1785.85068	0.29847
1783.92212	0.30221
1781.99355	0.30627
1780.06499	0.31050
1778.13643	0.31479
1776.20786	0.31884
1774.27930	0.32321
1772.35073	0.32915
1770.42217	0.33553
1768.49360	0.34066
1766.56504	0.34555
1764.63647	0.35065
1762.70791	0.35639
1760.77935	0.36380
1758.85078	0.37075
1756.92222	0.37782
1754.99365	0.38561
1753.06509	0.39251
1751.13652	0.40072
1749.20796	0.41150
1747.27939	0.42214
1745.35083	0.43102
1743.42227	0.44021
1741.49370	0.45050
1739.56514	0.46287
1737.63657	0.47530
1735.70801	0.48613
1733.77944	0.50258
1731.85088	0.52219
1729.92231	0.53741
1727.99375	0.55294
1726.06519	0.56969
1724.13662	0.58805
1722.20806	0.60793
1720.27949	0.62630
1718.35093	0.64806
1716.42236	0.68080
1714.49380	0.71147
1712.56523	0.73559
1710.63667	0.75906
1708.70811	0.78460
1706.77954	0.81383
1704.85098	0.84922
1702.92241	0.88084
1700.99385	0.91187
1699.06528	0.95891
1697.13672	1.00238
1695.20815	1.04726
1693.27959	1.09097
1691.35103	1.12597
1689.42246	1.16696
1687.49390	1.21075
1685.56533	1.25255
1683.63677	1.31848
1681.70820	1.38788
1679.77964	1.43069
1677.85107	1.47103
1675.92251	1.51804
1673.99395	1.57802
1672.06538	1.63168
1670.13682	1.68463
1668.20825	1.75584
1666.27969	1.81309
1664.35112	1.86076
1662.42256	1.92220
1660.49399	1.99423
1658.56543	2.05048
1656.63687	2.09456
1654.70830	2.13277
1652.77974	2.19422
1650.85117	2.25583
1648.92261	2.27640
1646.99404	2.29933
1645.06548	2.31984
1643.13691	2.33366
1641.20835	2.34163
1639.27979	2.34926
1637.35122	2.35421
1635.42266	2.35386
1633.49409	2.34540
1631.56553	2.32985
1629.63696	2.31063
1627.70840	2.27944
1625.77983	2.24408
1623.85127	2.19895
1621.92271	2.14355
1619.99414	2.09661
1618.06558	2.05210
1616.13701	1.98586
1614.20845	1.91775
1612.27988	1.86709
1610.35132	1.81455
1608.42275	1.75720
1606.49419	1.70042
1604.56562	1.64856
1602.63706	1.59884
1600.70850	1.55052
1598.77993	1.50637
1596.85137	1.46494
1594.92280	1.42447
1592.99424	1.38566
1591.06567	1.35063
1589.13711	1.31809
1587.20854	1.28820
1585.27998	1.26104
1583.35142	1.23614
1581.42285	1.21398
1579.49429	1.19549
1577.56572	1.17955
1575.63716	1.16059
1573.70859	1.14378
1571.78003	1.13322
1569.85146	1.12345
1567.92290	1.11349
1565.99434	1.10665
1564.06577	1.10250
1562.13721	1.10052
1560.20864	1.10175
1558.28008	1.10838
1556.35151	1.11364
1554.42295	1.11578
1552.49438	1.11856
1550.56582	1.12002
1548.63726	1.11837
1546.70869	1.11362
1544.78013	1.10589
1542.85156	1.09489
1540.92300	1.07643
1538.99443	1.04473
1537.06587	1.02206
1535.13730	1.00692
1533.20874	0.98610
1531.28018	0.96384
1529.35161	0.94796
1527.42305	0.93297
1525.49448	0.91731
1523.56592	0.90419
1521.63735	0.89232
1519.70879	0.88037
1517.78022	0.86978
1515.85166	0.85702
1513.92310	0.84362
1511.99453	0.83220
1510.06597	0.82236
1508.13740	0.81291
1506.20884	0.79633
1504.28027	0.78178
1502.35171	0.77411
1500.42314	0.76746
1498.49458	0.76025
1496.56602	0.75158
1494.63745	0.74296
1492.70889	0.73655
1490.78032	0.73108
1488.85176	0.72458
1486.92319	0.71813
1484.99463	0.71304
1483.06606	0.70917
1481.13750	0.70595
1479.20894	0.70338
1477.28037	0.70204
1475.35181	0.70180
1473.42324	0.70187
1471.49468	0.70074
1469.56611	0.69852
1467.63755	0.69638
1465.70898	0.69463
1463.78042	0.69323
1461.85186	0.69241
1459.92329	0.69240
1457.99473	0.69311
1456.06616	0.69312
1454.13760	0.69114
1452.20903	0.68876
1450.28047	0.68634
1448.35190	0.68388
1446.42334	0.68137
1444.49478	0.67901
1442.56621	0.67665
1440.63765	0.67397
1438.70908	0.67109
1436.78052	0.66748
1434.85195	0.66330
1432.92339	0.66008
1430.99482	0.65800
1429.06626	0.65690
1427.13770	0.65663
1425.20913	0.65707
1423.28057	0.65810
1421.35200	0.65895
1419.42344	0.65953
1417.49487	0.65967
1415.56631	0.65877
1413.63774	0.65796
1411.70918	0.65818
1409.78062	0.65951
1407.85205	0.66151
1405.92349	0.66381
1403.99492	0.66574
1402.06636	0.66645
1400.13779	0.66630
1398.20923	0.66525
1396.28066	0.66274
1394.35210	0.65866
1392.42354	0.65386
1390.49497	0.64945
1388.56641	0.64512
1386.63784	0.63995
1384.70928	0.63428
1382.78071	0.62893
1380.85215	0.62388
1378.92358	0.61937
1376.99502	0.61586
1375.06646	0.61351
1373.13789	0.61190
1371.20933	0.61068
1369.28076	0.60970
1367.35220	0.60849
1365.42363	0.60688
1363.49507	0.60527
1361.56650	0.60381
1359.63794	0.60235
1357.70937	0.60100
1355.78081	0.59979
1353.85225	0.59875
1351.92368	0.59791
1349.99512	0.59728
1348.06655	0.59666
1346.13799	0.59588
1344.20942	0.59511
1342.28086	0.59455
1340.35229	0.59431
1338.42373	0.59408
1336.49517	0.59352
1334.56660	0.59296
1332.63804	0.59275
1330.70947	0.59300
1328.78091	0.59357
1326.85234	0.59412
1324.92378	0.59466
1322.99521	0.59545
1321.06665	0.59638
1319.13809	0.59719
1317.20952	0.59775
1315.28096	0.59795
1313.35239	0.59775
1311.42383	0.59725
1309.49526	0.59671
1307.56670	0.59629
1305.63813	0.59601
1303.70957	0.59570
1301.78101	0.59512
1299.85244	0.59422
1297.92388	0.59319
1295.99531	0.59213
1294.06675	0.59092
1292.13818	0.58954
1290.20962	0.58815
1288.28105	0.58682
1286.35249	0.58545
1284.42393	0.58403
1282.49536	0.58253
1280.56680	0.58100
1278.63823	0.57962
1276.70967	0.57840
1274.78110	0.57730
1272.85254	0.57639
1270.92397	0.57565
1268.99541	0.57482
1267.06685	0.57372
1265.13828	0.57258
1263.20972	0.57172
1261.28115	0.57109
1259.35259	0.57054
1257.42402	0.57005
1255.49546	0.56975
1253.56689	0.56983
1251.63833	0.57012
1249.70977	0.57030
1247.78120	0.57035
1245.85264	0.57014
1243.92407	0.56961
1241.99551	0.56879
1240.06694	0.56744
1238.13838	0.56564
1236.20981	0.56353
1234.28125	0.56107
1232.35269	0.55855
1230.42412	0.55629
1228.49556	0.55419
1226.56699	0.55216
1224.63843	0.55029
1222.70986	0.54859
1220.78130	0.54709
1218.85273	0.54577
1216.92417	0.54463
1214.99561	0.54353
1213.06704	0.54243
1211.13848	0.54147
1209.20991	0.54060
1207.28135	0.53978
1205.35278	0.53900
1203.42422	0.53808
1201.49565	0.53704
1199.56709	0.53611
1197.63853	0.53541
1195.70996	0.53477
1193.78140	0.53415
1191.85283	0.53380
1189.92427	0.53369
1187.99570	0.53342
1186.06714	0.53309
1184.13857	0.53310
1182.21001	0.53357
1180.28145	0.53452
1178.35288	0.53591
1176.42432	0.53741
1174.49575	0.53863
1172.56719	0.53924
1170.63862	0.53916
1168.71006	0.53872
1166.78149	0.53814
1164.85293	0.53755
1162.92437	0.53695
1160.99580	0.53609
1159.06724	0.53497
1157.13867	0.53382
1155.21011	0.53253
1153.28154	0.53113
1151.35298	0.52963
1149.42441	0.52767
1147.49585	0.52521
1145.56729	0.52263
1143.63872	0.52016
1141.71016	0.51781
1139.78159	0.51565
1137.85303	0.51389
1135.92446	0.51272
1133.99590	0.51187
1132.06733	0.51097
1130.13877	0.51007
1128.21021	0.50918
1126.28164	0.50817
1124.35308	0.50723
1122.42451	0.50663
1120.49595	0.50622
1118.56738	0.50577
1116.63882	0.50553
1114.71025	0.50566
1112.78169	0.50571
1110.85312	0.50566
1108.92456	0.50629
1106.99600	0.50756
1105.06743	0.50881
1103.13887	0.51004
1101.21030	0.51164
1099.28174	0.51369
1097.35317	0.51604
1095.42461	0.51885
1093.49604	0.52239
1091.56748	0.52655
1089.63892	0.53105
1087.71035	0.53601
1085.78179	0.54172
1083.85322	0.54792
1081.92466	0.55383
1079.99609	0.55867
1078.06753	0.56156
1076.13896	0.56195
1074.21040	0.55988
1072.28184	0.55586
1070.35327	0.55060
1068.42471	0.54461
1066.49614	0.53817
1064.56758	0.53169
1062.63901	0.52574
1060.71045	0.52047
1058.78188	0.51590
1056.85332	0.51191
1054.92476	0.50829
1052.99619	0.50506
1051.06763	0.50205
1049.13906	0.49921
1047.21050	0.49669
1045.28193	0.49452
1043.35337	0.49267
1041.42480	0.49107
1039.49624	0.48978
1037.56768	0.48888
1035.63911	0.48826
1033.71055	0.48781
1031.78198	0.48756
1029.85342	0.48738
1027.92485	0.48712
1025.99629	0.48691
1024.06772	0.48698
1022.13916	0.48743
1020.21060	0.48826
1018.28203	0.48929
1016.35347	0.49022
1014.42490	0.49101
1012.49634	0.49193
1010.56777	0.49311
1008.63921	0.49456
1006.71064	0.49621
1004.78208	0.49809
1002.85352	0.50044
1000.92495	0.50325
998.99639	0.50639
997.06782	0.50991
995.13926	0.51374
993.21069	0.51759
991.28213	0.52118
989.35356	0.52401
987.42500	0.52574
985.49644	0.52661
983.56787	0.52719
981.63931	0.52790
979.71074	0.52902
977.78218	0.53062
975.85361	0.53280
973.92505	0.53550
971.99648	0.53847
970.06792	0.54164
968.13936	0.54510
966.21079	0.54899
964.28223	0.55338
962.35366	0.55824
960.42510	0.56341
958.49653	0.56888
956.56797	0.57465
954.63940	0.58043
952.71084	0.58636
950.78228	0.59274
948.85371	0.59908
946.92515	0.60495
944.99658	0.61060
943.06802	0.61655
941.13945	0.62299
939.21089	0.62920
937.28232	0.63478
935.35376	0.64034
933.42520	0.64615
931.49663	0.65203
929.56807	0.65800
927.63950	0.66385
925.71094	0.66946
923.78237	0.67551
921.85381	0.68201
919.92524	0.68830
917.99668	0.69462
916.06812	0.70143
914.13955	0.70870
912.21099	0.71632
910.28242	0.72448
908.35386	0.73336
906.42529	0.74255
904.49673	0.75145
902.56816	0.75997
900.63960	0.76875
898.71104	0.77843
896.78247	0.78881
894.85391	0.79900
892.92534	0.80853
890.99678	0.81790
889.06821	0.82767
887.13965	0.83832
885.21108	0.84985
883.28252	0.86135
881.35396	0.87281
879.42539	0.88520
877.49683	0.89723
875.56826	0.90749
873.63970	0.91741
871.71113	0.92784
869.78257	0.93838
867.85400	0.94998
865.92544	0.96287
863.99687	0.97504
862.06831	0.98580
860.13975	0.99638
858.21118	1.00822
856.28262	1.02109
854.35405	1.03365
852.42549	1.04601
850.49692	1.05830
848.56836	1.06920
846.63979	1.07779
844.71123	1.08726
842.78267	1.10017
840.85410	1.11312
838.92554	1.12471
836.99697	1.13699
835.06841	1.14842
833.13984	1.15691
831.21128	1.16445
829.28271	1.17504
827.35415	1.18912
825.42559	1.20257
823.49702	1.21520
821.56846	1.22773
819.63989	1.23970
817.71133	1.25431
815.78276	1.26605
813.85420	1.26661
811.92563	1.26550
809.99707	1.27031
808.06851	1.27318
806.13994	1.27692
804.21138	1.29177
802.28281	1.30473
800.35425	1.30505
798.42568	1.31991
796.49712	1.36254
794.56855	1.41203
792.63999	1.44829
790.71143	1.45976
788.78286	1.46044
786.85430	1.45274
784.92573	1.44342
782.99717	1.44569
781.06860	1.43147
779.14004	1.40214
777.21147	1.39138
775.28291	1.38120
773.35435	1.34485
771.42578	1.33422
769.49722	1.36701
767.56865	1.41448
765.64009	1.47845
763.71152	1.47386
761.78296	1.36707
759.85439	1.29239
757.92583	1.28665
755.99727	1.29866
754.06870	1.30162
752.14014	1.31069
750.21157	1.28263
748.28301	1.21410
746.35444	1.13257
744.42588	1.05772
742.49731	1.06826
740.56875	1.20501
738.64019	1.36059
736.71162	1.55610
734.78306	4.40870
732.85449	1.64338
730.92593	0.78209
728.99736	0.59253
727.06880	0.68790
725.14023	4.35084
723.21167	4.33927
721.28311	4.32770
719.35454	0.17607
717.42598	-0.23607
715.49741	-0.03807
713.56885	0.33484
711.64028	0.16787
709.71172	-0.25026
707.78315	-0.18218
705.85459	0.14754
703.92603	0.64566
701.99746	4.21198
700.06890	2.02650
698.14033	0.68873
696.21177	0.59698
694.28320	0.52959
692.35464	0.42548
690.42607	0.43527
688.49751	0.56172
686.56895	0.59549
684.64038	0.66031
682.71182	2.00425
680.78325	4.08470
678.85469	0.75789
676.92612	0.57350
674.99756	0.69327
673.06899	0.68878
671.14043	0.55200
669.21187	0.50618
667.28330	0.36621
665.35474	0.28162
663.42617	0.38846
661.49761	0.61093
659.56904	0.71544
657.64048	0.60846
655.71191	0.36881
653.78335	0.24206
651.85479	0.25780
649.92622	0.29887
647.99766	0.31844
646.06909	0.34425
644.14053	0.37217
642.21196	0.41523
640.28340	0.55156
638.35483	0.71667
636.42627	0.46117
634.49771	0.35605
632.56914	0.35278
630.64058	0.30377
628.71201	0.25015
626.78345	0.27381
624.85488	0.35803
622.92632	0.47714
620.99775	0.53813
619.06919	0.57278
617.14062	0.66563
615.21206	0.72243
613.28350	0.73768
611.35493	0.65935
609.42637	0.53897
607.49780	0.47947
605.56924	0.44399
603.64067	0.40366
601.71211	0.35899
599.78354	0.33043
597.85498	0.35478
595.92642	0.44344
593.99785	0.45911
592.06929	0.38273
590.14072	0.36938
588.21216	0.45847
586.28359	0.59672
584.35503	0.55307
582.42646	0.46391
580.49790	0.43218
578.56934	0.37959
576.64077	0.32287
574.71221	0.33142
572.78364	0.35070
570.85508	0.28510
568.92651	0.23935
566.99795	0.27412
565.06938	0.31656
563.14082	0.27571
561.21226	0.24286
559.28369	0.28431
557.35513	0.41675
555.42656	0.50215
553.49800	0.41360
551.56943	0.41152
549.64087	0.49999
547.71230	0.48574
545.78374	0.42363
543.85518	0.41900
541.92661	0.46448
539.99805	0.51844
538.06948	0.52394
536.14092	0.55122
534.21235	0.60657
532.28379	0.45411
530.35522	0.31806
528.42666	0.33551
526.49810	0.47516
524.56953	0.57729
522.64097	0.60764
520.71240	0.58338
518.78384	0.44181
516.85527	0.36184
514.92671	0.33458
512.99814	0.30413
511.06958	0.31332
509.14102	0.40379
507.21245	0.48071
505.28389	0.39776
503.35532	0.34091
501.42676	0.41737
499.49819	0.58825
