3997.91411	0.07338
3995.98555	0.07362
3994.05698	0.07389
3992.12842	0.07388
3990.19985	0.07384
3988.27129	0.07399
3986.34272	0.07433
3984.41416	0.07480
3982.48560	0.07513
3980.55703	0.07529
3978.62847	0.07539
3976.69990	0.07540
3974.77134	0.07551
3972.84277	0.07593
3970.91421	0.07635
3968.98564	0.07645
3967.05708	0.07648
3965.12852	0.07660
3963.19995	0.07687
3961.27139	0.07724
3959.34282	0.07739
3957.41426	0.07723
3955.48569	0.07724
3953.55713	0.07751
3951.62856	0.07770
3949.70000	0.07781
3947.77144	0.07786
3945.84287	0.07770
3943.91431	0.07731
3941.98574	0.07695
3940.05718	0.07703
3938.12861	0.07744
3936.20005	0.07775
3934.27148	0.07779
3932.34292	0.07774
3930.41436	0.07766
3928.48579	0.07740
3926.55723	0.07702
3924.62866	0.07689
3922.70010	0.07706
3920.77153	0.07716
3918.84297	0.07712
3916.91440	0.07720
3914.98584	0.07727
3913.05728	0.07719
3911.12871	0.07699
3909.20015	0.07662
3907.27158	0.07637
3905.34302	0.07646
3903.41445	0.07662
3901.48589	0.07644
3899.55732	0.07639
3897.62876	0.07692
3895.70020	0.07692
3893.77163	0.07629
3891.84307	0.07612
3889.91450	0.07655
3887.98594	0.07662
3886.05737	0.07659
3884.12881	0.07680
3882.20024	0.07692
3880.27168	0.07715
3878.34312	0.07754
3876.41455	0.07775
3874.48599	0.07805
3872.55742	0.07819
3870.62886	0.07788
3868.70029	0.07821
3866.77173	0.07881
3864.84316	0.07862
3862.91460	0.07840
3860.98604	0.07878
3859.05747	0.07907
3857.12891	0.07893
3855.20034	0.07853
3853.27178	0.07856
3851.34321	0.08012
3849.41465	0.08147
3847.48608	0.08209
3845.55752	0.08246
3843.62896	0.08256
3841.70039	0.08272
3839.77183	0.08368
3837.84326	0.08545
3835.91470	0.08642
3833.98613	0.08616
3832.05757	0.08626
3830.12900	0.08713
3828.20044	0.08797
3826.27187	0.08872
3824.34331	0.08966
3822.41475	0.09073
3820.48618	0.09212
3818.55762	0.09286
3816.62905	0.09270
3814.70049	0.09321
3812.77192	0.09449
3810.84336	0.09554
3808.91479	0.09632
3806.98623	0.09734
3805.05767	0.09876
3803.12910	0.09971
3801.20054	0.10054
3799.27197	0.10186
3797.34341	0.10334
3795.41484	0.10506
3793.48628	0.10641
3791.55771	0.10739
3789.62915	0.10859
3787.70059	0.10981
3785.77202	0.11110
3783.84346	0.11249
3781.91489	0.11362
3779.98633	0.11493
3778.05776	0.11696
3776.12920	0.11869
3774.20063	0.11982
3772.27207	0.12116
3770.34351	0.12305
3768.41494	0.12516
3766.48638	0.12714
3764.55781	0.12933
3762.62925	0.13127
3760.70068	0.13304
3758.77212	0.13568
3756.84355	0.13851
3754.91499	0.14033
3752.98643	0.14186
3751.05786	0.14453
3749.12930	0.14867
3747.20073	0.15164
3745.27217	0.15392
3743.34360	0.15773
3741.41504	0.16164
3739.48647	0.16430
3737.55791	0.16707
3735.62935	0.17141
3733.70078	0.17791
3731.77222	0.18392
3729.84365	0.18833
3727.91509	0.19236
3725.98652	0.19740
3724.05796	0.20398
3722.12939	0.21119
3720.20083	0.21847
3718.27227	0.22565
3716.34370	0.23289
3714.41514	0.24020
3712.48657	0.24864
3710.55801	0.26126
3708.62944	0.27635
3706.70088	0.28854
3704.77231	0.29945
3702.84375	0.31253
3700.91519	0.33018
3698.98662	0.34965
3697.05806	0.36759
3695.12949	0.38615
3693.20093	0.40565
3691.27236	0.42628
3689.34380	0.45340
3687.41523	0.48920
3685.48667	0.52125
3683.55811	0.54788
3681.62954	0.57574
3679.70098	0.60704
3677.77241	0.63966
3675.84385	0.67831
3673.91528	0.73274
3671.98672	0.77719
3670.05815	0.81552
3668.12959	0.86956
3666.20103	0.91929
3664.27246	0.96057
3662.34390	1.00480
3660.41533	1.05233
3658.48677	1.09835
3656.55820	1.14691
3654.62964	1.20224
3652.70107	1.24850
3650.77251	1.28692
3648.84395	1.34105
3646.91538	1.41189
3644.98682	1.46457
3643.05825	1.50435
3641.12969	1.54488
3639.20112	1.58999
3637.27256	1.63510
3635.34399	1.67837
3633.41543	1.72163
3631.48687	1.76202
3629.55830	1.80214
3627.62974	1.85609
3625.70117	1.90801
3623.77261	1.94199
3621.84404	1.97342
3619.91548	2.01005
3617.98691	2.05622
3616.05835	2.10128
3614.12979	2.13917
3612.20122	2.18013
3610.27266	2.22106
3608.34409	2.26161
3606.41553	2.30481
3604.48696	2.34391
3602.55840	2.37816
3600.62983	2.41588
3598.70127	2.45737
3596.77271	2.49759
3594.84414	2.53853
3592.91558	2.58099
3590.98701	2.62034
3589.05845	2.65555
3587.12988	2.69772
3585.20132	2.74723
3583.27275	2.78981
3581.34419	2.82851
3579.41562	2.87032
3577.48706	2.91419
3575.55850	2.95729
3573.62993	2.99952
3571.70137	3.03931
3569.77280	3.07817
3567.84424	3.12057
3565.91567	3.17289
3563.98711	3.22447
3562.05854	3.26605
3560.12998	3.30582
3558.20142	3.34863
3556.27285	3.39525
3554.34429	3.44225
3552.41572	3.48922
3550.48716	3.53495
3548.55859	3.57808
3546.63003	3.62363
3544.70146	3.67553
3542.77290	3.72623
3540.84434	3.77111
3538.91577	3.81674
3536.98721	3.86409
3535.05864	3.90932
3533.13008	3.95253
3531.20151	3.99951
3529.27295	4.04929
3527.34438	4.09656
3525.41582	4.14325
3523.48726	4.19384
3521.55869	4.24649
3519.63013	4.29697
3517.70156	4.34705
3515.77300	4.39639
3513.84443	4.44192
3511.91587	4.48567
3509.98730	4.53437
3508.05874	4.58581
3506.13018	4.63199
3504.20161	4.67652
3502.27305	4.72399
3500.34448	4.76996
3498.41592	4.81322
3496.48735	4.86130
3494.55879	4.91619
3492.63022	4.96759
3490.70166	5.00988
3488.77310	5.04904
3486.84453	5.09446
3484.91597	5.15197
3482.98740	5.20980
3481.05884	5.25701
3479.13027	5.30417
3477.20171	5.35852
3475.27314	5.40941
3473.34458	5.45371
3471.41602	5.49801
3469.48745	5.54133
3467.55889	5.58614
3465.63032	5.63194
3463.70176	5.67892
3461.77319	5.72731
3459.84463	5.76727
3457.91606	5.80561
3455.98750	5.85775
3454.05894	5.91824
3452.13037	5.97572
3450.20181	6.02769
3448.27324	6.07740
3446.34468	6.12657
3444.41611	6.17319
3442.48755	6.22202
3440.55898	6.26609
3438.63042	6.31979
3436.70186	6.39428
3434.77329	6.45845
3432.84473	6.51162
3430.91616	6.56438
3428.98760	6.60705
3427.05903	6.64338
3425.13047	6.67944
3423.20190	6.71122
3421.27334	6.75820
3419.34478	6.82329
3417.41621	6.88572
3415.48765	6.94184
3413.55908	6.97672
3411.63052	7.00198
3409.70195	7.06028
3407.77339	7.15145
3405.84482	7.20573
3403.91626	7.20361
3401.98770	7.19421
3400.05913	7.21329
3398.13057	7.25677
3396.20200	7.29383
3394.27344	7.34696
3392.34487	7.45291
3390.41631	7.60157
3388.48774	7.69706
3386.55918	7.67566
3384.63062	7.62629
3382.70205	7.62833
3380.77349	7.64550
3378.84492	7.63242
3376.91636	7.62176
3374.98779	7.66951
3373.05923	7.76864
3371.13066	7.81480
3369.20210	7.80559
3367.27354	7.81103
3365.34497	7.83174
3363.41641	7.86876
3361.48784	7.90654
3359.55928	7.90125
3357.63071	7.88631
3355.70215	7.89749
3353.77358	7.88550
3351.84502	7.88905
3349.91646	7.95098
3347.98789	8.02116
3346.05933	8.03323
3344.13076	8.03013
3342.20220	8.07918
3340.27363	8.12027
3338.34507	8.12346
3336.41650	8.09601
3334.48794	8.02409
3332.55937	7.95459
3330.63081	7.97477
3328.70225	8.02081
3326.77368	8.04545
3324.84512	8.13816
3322.91655	8.21433
3320.98799	8.13990
3319.05942	8.03095
3317.13086	8.02024
3315.20229	8.04168
3313.27373	8.07659
3311.34517	8.15329
3309.41660	8.19726
3307.48804	8.21628
3305.55947	8.25668
3303.63091	8.28194
3301.70234	8.26850
3299.77378	8.25937
3297.84521	8.29646
3295.91665	8.38369
3293.98809	8.38746
3292.05952	8.27194
3290.13096	8.15350
3288.20239	8.10977
3286.27383	8.15944
3284.34526	8.20735
3282.41670	8.17038
3280.48813	8.08882
3278.55957	8.09573
3276.63101	8.17501
3274.70244	8.19551
3272.77388	8.15820
3270.84531	8.12515
3268.91675	8.12435
3266.98818	8.15783
3265.05962	8.18374
3263.13105	8.12850
3261.20249	8.09834
3259.27393	8.14962
3257.34536	8.19166
3255.41680	8.25206
3253.48823	8.33579
3251.55967	8.33591
3249.63110	8.22484
3247.70254	8.08906
3245.77397	8.03588
3243.84541	8.10027
3241.91685	8.18466
3239.98828	8.25833
3238.05972	8.35409
3236.13115	8.35291
3234.20259	8.23330
3232.27402	8.11259
3230.34546	8.04349
3228.41689	8.02913
3226.48833	8.02715
3224.55977	7.99653
3222.63120	7.99659
3220.70264	8.06437
3218.77407	8.09916
3216.84551	8.08416
3214.91694	8.10429
3212.98838	8.08921
3211.05981	7.98616
3209.13125	7.89309
3207.20269	7.87143
3205.27412	7.91530
3203.34556	7.94514
3201.41699	7.86998
3199.48843	7.73851
3197.55986	7.65870
3195.63130	7.64906
3193.70273	7.65847
3191.77417	7.63438
3189.84561	7.57333
3187.91704	7.50739
3185.98848	7.42459
3184.05991	7.33839
3182.13135	7.29072
3180.20278	7.26352
3178.27422	7.25142
3176.34565	7.25328
3174.41709	7.22540
3172.48853	7.16453
3170.55996	7.09482
3168.63140	7.02072
3166.70283	6.93372
3164.77427	6.84876
3162.84570	6.78778
3160.91714	6.73861
3158.98857	6.68061
3157.06001	6.60285
3155.13145	6.52007
3153.20288	6.45333
3151.27432	6.39913
3149.34575	6.33158
3147.41719	6.24806
3145.48862	6.17303
3143.56006	6.10612
3141.63149	6.04292
3139.70293	5.98044
3137.77437	5.90525
3135.84580	5.82720
3133.91724	5.76875
3131.98867	5.71497
3130.06011	5.64435
3128.13154	5.56965
3126.20298	5.50335
3124.27441	5.44209
3122.34585	5.37280
3120.41729	5.29307
3118.48872	5.21158
3116.56016	5.13391
3114.63159	5.06248
3112.70303	4.99573
3110.77446	4.93314
3108.84590	4.86960
3106.91733	4.79735
3104.98877	4.72041
3103.06021	4.65055
3101.13164	4.58873
3099.20308	4.52778
3097.27451	4.46462
3095.34595	4.39866
3093.41738	4.33264
3091.48882	4.26872
3089.56025	4.20538
3087.63169	4.14364
3085.70312	4.08549
3083.77456	4.02871
3081.84600	3.97071
3079.91743	3.91098
3077.98887	3.85014
3076.06030	3.79003
3074.13174	3.73149
3072.20317	3.67407
3070.27461	3.61691
3068.34604	3.55908
3066.41748	3.50099
3064.48892	3.44394
3062.56035	3.38828
3060.63179	3.33514
3058.70322	3.28520
3056.77466	3.23568
3054.84609	3.18416
3052.91753	3.13188
3050.98896	3.08058
3049.06040	3.03010
3047.13184	2.98030
3045.20327	2.93105
3043.27471	2.88187
3041.34614	2.83369
3039.41758	2.78681
3037.48901	2.73966
3035.56045	2.69279
3033.63188	2.64805
3031.70332	2.60444
3029.77476	2.56076
3027.84619	2.51772
3025.91763	2.47579
3023.98906	2.43436
3022.06050	2.39290
3020.13193	2.35232
3018.20337	2.31255
3016.27480	2.27247
3014.34624	2.23275
3012.41768	2.19410
3010.48911	2.15641
3008.56055	2.11952
3006.63198	2.08292
3004.70342	2.04687
3002.77485	2.01205
3000.84629	1.97804
2998.91772	1.94431
2996.98916	1.91116
2995.06060	1.87894
2993.13203	1.84754
2991.20347	1.81679
2989.27490	1.78666
2987.34634	1.75729
2985.41777	1.72852
2983.48921	1.70014
2981.56064	1.67246
2979.63208	1.64555
2977.70352	1.61911
2975.77495	1.59315
2973.84639	1.56769
2971.91782	1.54245
2969.98926	1.51762
2968.06069	1.49344
2966.13213	1.47003
2964.20356	1.44695
2962.27500	1.42330
2960.34644	1.39917
2958.41787	1.37496
2956.48931	1.35097
2954.56074	1.32783
2952.63218	1.30542
2950.70361	1.28284
2948.77505	1.25977
2946.84648	1.23722
2944.91792	1.21619
2942.98936	1.19654
2941.06079	1.17715
2939.13223	1.15679
2937.20366	1.13586
2935.27510	1.11581
2933.34653	1.09692
2931.41797	1.07841
2929.48940	1.05971
2927.56084	1.04083
2925.63228	1.02221
2923.70371	1.00395
2921.77515	0.98584
2919.84658	0.96830
2917.91802	0.95132
2915.98945	0.93417
2914.06089	0.91696
2912.13232	0.90035
2910.20376	0.88447
2908.27520	0.86916
2906.34663	0.85414
2904.41807	0.83950
2902.48950	0.82579
2900.56094	0.81271
2898.63237	0.79945
2896.70381	0.78595
2894.77524	0.77267
2892.84668	0.75995
2890.91812	0.74786
2888.98955	0.73608
2887.06099	0.72457
2885.13242	0.71365
2883.20386	0.70319
2881.27529	0.69283
2879.34673	0.68262
2877.41816	0.67287
2875.48960	0.66336
2873.56104	0.65349
2871.63247	0.64292
2869.70391	0.63194
2867.77534	0.62077
2865.84678	0.60913
2863.91821	0.59720
2861.98965	0.58578
2860.06108	0.57512
2858.13252	0.56473
2856.20396	0.55444
2854.27539	0.54479
2852.34683	0.53573
2850.41826	0.52666
2848.48970	0.51780
2846.56113	0.50976
2844.63257	0.50238
2842.70400	0.49524
2840.77544	0.48842
2838.84687	0.48198
2836.91831	0.47563
2834.98975	0.46915
2833.06118	0.46278
2831.13262	0.45664
2829.20405	0.45055
2827.27549	0.44436
2825.34692	0.43801
2823.41836	0.43168
2821.48979	0.42567
2819.56123	0.41980
2817.63267	0.41382
2815.70410	0.40788
2813.77554	0.40217
2811.84697	0.39674
2809.91841	0.39143
2807.98984	0.38601
2806.06128	0.38052
2804.13271	0.37522
2802.20415	0.37011
2800.27559	0.36490
2798.34702	0.35962
2796.41846	0.35451
2794.48989	0.34958
2792.56133	0.34483
2790.63276	0.34023
2788.70420	0.33569
2786.77563	0.33123
2784.84707	0.32693
2782.91851	0.32275
2780.98994	0.31854
2779.06138	0.31429
2777.13281	0.31027
2775.20425	0.30652
2773.27568	0.30264
2771.34712	0.29856
2769.41855	0.29462
2767.48999	0.29097
2765.56143	0.28735
2763.63286	0.28374
2761.70430	0.28019
2759.77573	0.27668
2757.84717	0.27328
2755.91860	0.27011
2753.99004	0.26699
2752.06147	0.26374
2750.13291	0.26060
2748.20435	0.25780
2746.27578	0.25503
2744.34722	0.25204
2742.41865	0.24913
2740.49009	0.24652
2738.56152	0.24408
2736.63296	0.24163
2734.70439	0.23917
2732.77583	0.23678
2730.84727	0.23425
2728.91870	0.23153
2726.99014	0.22903
2725.06157	0.22683
2723.13301	0.22472
2721.20444	0.22269
2719.27588	0.22068
2717.34731	0.21855
2715.41875	0.21642
2713.49019	0.21441
2711.56162	0.21238
2709.63306	0.21046
2707.70449	0.20877
2705.77593	0.20719
2703.84736	0.20557
2701.91880	0.20394
2699.99023	0.20239
2698.06167	0.20092
2696.13311	0.19945
2694.20454	0.19788
2692.27598	0.19627
2690.34741	0.19484
2688.41885	0.19363
2686.49028	0.19238
2684.56172	0.19110
2682.63315	0.18984
2680.70459	0.18853
2678.77603	0.18725
2676.84746	0.18597
2674.91890	0.18469
2672.99033	0.18364
2671.06177	0.18274
2669.13320	0.18152
2667.20464	0.18011
2665.27607	0.17892
2663.34751	0.17794
2661.41895	0.17706
2659.49038	0.17626
2657.56182	0.17549
2655.63325	0.17460
2653.70469	0.17364
2651.77612	0.17273
2649.84756	0.17201
2647.91899	0.17146
2645.99043	0.17084
2644.06187	0.17005
2642.13330	0.16931
2640.20474	0.16882
2638.27617	0.16842
2636.34761	0.16785
2634.41904	0.16718
2632.49048	0.16664
2630.56191	0.16632
2628.63335	0.16606
2626.70479	0.16567
2624.77622	0.16515
2622.84766	0.16464
2620.91909	0.16421
2618.99053	0.16400
2617.06196	0.16395
2615.13340	0.16379
2613.20483	0.16351
2611.27627	0.16328
2609.34771	0.16312
2607.41914	0.16294
2605.49058	0.16275
2603.56201	0.16264
2601.63345	0.16267
2599.70488	0.16275
2597.77632	0.16268
2595.84775	0.16251
2593.91919	0.16242
2591.99062	0.16239
2590.06206	0.16238
2588.13350	0.16241
2586.20493	0.16255
2584.27637	0.16277
2582.34780	0.16298
2580.41924	0.16322
2578.49067	0.16353
2576.56211	0.16384
2574.63354	0.16411
2572.70498	0.16432
2570.77642	0.16452
2568.84785	0.16478
2566.91929	0.16511
2564.99072	0.16547
2563.06216	0.16576
2561.13359	0.16605
2559.20503	0.16652
2557.27646	0.16703
2555.34790	0.16751
2553.41934	0.16802
2551.49077	0.16853
2549.56221	0.16905
2547.63364	0.16958
2545.70508	0.17007
2543.77651	0.17058
2541.84795	0.17115
2539.91938	0.17179
2537.99082	0.17245
2536.06226	0.17305
2534.13369	0.17354
2532.20513	0.17402
2530.27656	0.17469
2528.34800	0.17557
2526.41943	0.17639
2524.49087	0.17704
2522.56230	0.17767
2520.63374	0.17834
2518.70518	0.17900
2516.77661	0.17965
2514.84805	0.18034
2512.91948	0.18109
2510.99092	0.18184
2509.06235	0.18253
2507.13379	0.18322
2505.20522	0.18398
2503.27666	0.18484
2501.34810	0.18575
2499.41953	0.18665
2497.49097	0.18743
2495.56240	0.18799
2493.63384	0.18865
2491.70527	0.18962
2489.77671	0.19051
2487.84814	0.19115
2485.91958	0.19188
2483.99102	0.19284
2482.06245	0.19376
2480.13389	0.19455
2478.20532	0.19534
2476.27676	0.19612
2474.34819	0.19696
2472.41963	0.19798
2470.49106	0.19901
2468.56250	0.19989
2466.63394	0.20073
2464.70537	0.20159
2462.77681	0.20243
2460.84824	0.20325
2458.91968	0.20411
2456.99111	0.20508
2455.06255	0.20607
2453.13398	0.20697
2451.20542	0.20783
2449.27686	0.20879
2447.34829	0.20985
2445.41973	0.21083
2443.49116	0.21169
2441.56260	0.21250
2439.63403	0.21333
2437.70547	0.21433
2435.77690	0.21550
2433.84834	0.21669
2431.91978	0.21777
2429.99121	0.21874
2428.06265	0.21969
2426.13408	0.22071
2424.20552	0.22176
2422.27695	0.22277
2420.34839	0.22380
2418.41982	0.22497
2416.49126	0.22621
2414.56270	0.22736
2412.63413	0.22842
2410.70557	0.22952
2408.77700	0.23063
2406.84844	0.23171
2404.91987	0.23284
2402.99131	0.23398
2401.06274	0.23508
2399.13418	0.23630
2397.20562	0.23767
2395.27705	0.23896
2393.34849	0.24011
2391.41992	0.24136
2389.49136	0.24277
2387.56279	0.24414
2385.63423	0.24536
2383.70566	0.24658
2381.77710	0.24806
2379.84854	0.24973
2377.91997	0.25122
2375.99141	0.25261
2374.06284	0.25444
2372.13428	0.25654
2370.20571	0.25837
2368.27715	0.26005
2366.34858	0.26195
2364.42002	0.26392
2362.49146	0.26592
2360.56289	0.26793
2358.63433	0.26938
2356.70576	0.27060
2354.77720	0.27219
2352.84863	0.27376
2350.92007	0.27479
2348.99150	0.27535
2347.06294	0.27614
2345.13437	0.27787
2343.20581	0.28032
2341.27725	0.28228
2339.34868	0.28344
2337.42012	0.28438
2335.49155	0.28552
2333.56299	0.28692
2331.63442	0.28908
2329.70586	0.29189
2327.77729	0.29451
2325.84873	0.29622
2323.92017	0.29696
2321.99160	0.29738
2320.06304	0.29846
2318.13447	0.30042
2316.20591	0.30241
2314.27734	0.30399
2312.34878	0.30548
2310.42021	0.30698
2308.49165	0.30837
2306.56309	0.30976
2304.63452	0.31137
2302.70596	0.31323
2300.77739	0.31520
2298.84883	0.31708
2296.92026	0.31880
2294.99170	0.32052
2293.06313	0.32237
2291.13457	0.32422
2289.20601	0.32603
2287.27744	0.32793
2285.34888	0.32985
2283.42031	0.33181
2281.49175	0.33378
2279.56318	0.33572
2277.63462	0.33774
2275.70605	0.33988
2273.77749	0.34197
2271.84893	0.34397
2269.92036	0.34602
2267.99180	0.34815
2266.06323	0.35031
2264.13467	0.35253
2262.20610	0.35476
2260.27754	0.35687
2258.34897	0.35892
2256.42041	0.36097
2254.49185	0.36301
2252.56328	0.36514
2250.63472	0.36744
2248.70615	0.36977
2246.77759	0.37194
2244.84902	0.37405
2242.92046	0.37630
2240.99189	0.37860
2239.06333	0.38085
2237.13477	0.38309
2235.20620	0.38537
2233.27764	0.38759
2231.34907	0.38978
2229.42051	0.39199
2227.49194	0.39411
2225.56338	0.39623
2223.63481	0.39849
2221.70625	0.40076
2219.77769	0.40290
2217.84912	0.40506
2215.92056	0.40736
2213.99199	0.40964
2212.06343	0.41175
2210.13486	0.41371
2208.20630	0.41569
2206.27773	0.41784
2204.34917	0.42004
2202.42061	0.42214
2200.49204	0.42424
2198.56348	0.42634
2196.63491	0.42839
2194.70635	0.43038
2192.77778	0.43222
2190.84922	0.43395
2188.92065	0.43583
2186.99209	0.43782
2185.06353	0.43963
2183.13496	0.44135
2181.20640	0.44318
2179.27783	0.44497
2177.34927	0.44655
2175.42070	0.44801
2173.49214	0.44945
2171.56357	0.45086
2169.63501	0.45224
2167.70645	0.45354
2165.77788	0.45481
2163.84932	0.45611
2161.92075	0.45732
2159.99219	0.45837
2158.06362	0.45939
2156.13506	0.46044
2154.20649	0.46136
2152.27793	0.46212
2150.34937	0.46283
2148.42080	0.46354
2146.49224	0.46415
2144.56367	0.46464
2142.63511	0.46505
2140.70654	0.46546
2138.77798	0.46585
2136.84941	0.46610
2134.92085	0.46617
2132.99229	0.46611
2131.06372	0.46604
2129.13516	0.46601
2127.20659	0.46585
2125.27803	0.46544
2123.34946	0.46495
2121.42090	0.46448
2119.49233	0.46393
2117.56377	0.46323
2115.63521	0.46248
2113.70664	0.46174
2111.77808	0.46098
2109.84951	0.46007
2107.92095	0.45906
2105.99238	0.45799
2104.06382	0.45684
2102.13525	0.45561
2100.20669	0.45434
2098.27812	0.45292
2096.34956	0.45142
2094.42100	0.44998
2092.49243	0.44847
2090.56387	0.44673
2088.63530	0.44489
2086.70674	0.44307
2084.77817	0.44118
2082.84961	0.43923
2080.92104	0.43732
2078.99248	0.43543
2077.06392	0.43337
2075.13535	0.43114
2073.20679	0.42894
2071.27822	0.42677
2069.34966	0.42448
2067.42109	0.42209
2065.49253	0.41976
2063.56396	0.41748
2061.63540	0.41510
2059.70684	0.41254
2057.77827	0.40994
2055.84971	0.40748
2053.92114	0.40502
2051.99258	0.40245
2050.06401	0.39985
2048.13545	0.39720
2046.20688	0.39444
2044.27832	0.39175
2042.34976	0.38912
2040.42119	0.38639
2038.49263	0.38356
2036.56406	0.38077
2034.63550	0.37806
2032.70693	0.37534
2030.77837	0.37259
2028.84980	0.36974
2026.92124	0.36682
2024.99268	0.36391
2023.06411	0.36108
2021.13555	0.35834
2019.20698	0.35570
2017.27842	0.35303
2015.34985	0.35026
2013.42129	0.34742
2011.49272	0.34457
2009.56416	0.34176
2007.63560	0.33894
2005.70703	0.33615
2003.77847	0.33353
2001.84990	0.33104
1999.92134	0.32844
1997.99277	0.32578
1996.06421	0.32322
1994.13564	0.32065
1992.20708	0.31795
1990.27852	0.31528
1988.34995	0.31276
1986.42139	0.31033
1984.49282	0.30792
1982.56426	0.30549
1980.63569	0.30306
1978.70713	0.30077
1976.77856	0.29853
1974.85000	0.29628
1972.92144	0.29407
1970.99287	0.29191
1969.06431	0.28976
1967.13574	0.28766
1965.20718	0.28561
1963.27861	0.28365
1961.35005	0.28176
1959.42148	0.27991
1957.49292	0.27797
1955.56436	0.27596
1953.63579	0.27410
1951.70723	0.27246
1949.77866	0.27089
1947.85010	0.26927
1945.92153	0.26767
1943.99297	0.26612
1942.06440	0.26463
1940.13584	0.26318
1938.20728	0.26168
1936.27871	0.26015
1934.35015	0.25876
1932.42158	0.25755
1930.49302	0.25639
1928.56445	0.25522
1926.63589	0.25405
1924.70732	0.25296
1922.77876	0.25197
1920.85020	0.25100
1918.92163	0.25004
1916.99307	0.24913
1915.06450	0.24819
1913.13594	0.24727
1911.20737	0.24655
1909.27881	0.24587
1907.35024	0.24511
1905.42168	0.24441
1903.49312	0.24383
1901.56455	0.24331
1899.63599	0.24280
1897.70742	0.24234
1895.77886	0.24192
1893.85029	0.24150
1891.92173	0.24097
1889.99316	0.24054
1888.06460	0.24030
1886.13604	0.24016
1884.20747	0.24005
1882.27891	0.23988
1880.35034	0.23967
1878.42178	0.23952
1876.49321	0.23942
1874.56465	0.23928
1872.63608	0.23921
1870.70752	0.23929
1868.77896	0.23965
1866.85039	0.24006
1864.92183	0.24023
1862.99326	0.24034
1861.06470	0.24052
1859.13613	0.24083
1857.20757	0.24115
1855.27900	0.24153
1853.35044	0.24197
1851.42187	0.24249
1849.49331	0.24302
1847.56475	0.24361
1845.63618	0.24431
1843.70762	0.24526
1841.77905	0.24622
1839.85049	0.24680
1837.92192	0.24747
1835.99336	0.24830
1834.06479	0.24920
1832.13623	0.25006
1830.20767	0.25126
1828.27910	0.25276
1826.35054	0.25396
1824.42197	0.25523
1822.49341	0.25658
1820.56484	0.25790
1818.63628	0.25930
1816.70771	0.26093
1814.77915	0.26256
1812.85059	0.26425
1810.92202	0.26623
1808.99346	0.26828
1807.06489	0.27018
1805.13633	0.27207
1803.20776	0.27421
1801.27920	0.27658
1799.35063	0.27928
1797.42207	0.28185
1795.49351	0.28428
1793.56494	0.28695
1791.63638	0.29045
1789.70781	0.29414
1787.77925	0.29697
1785.85068	0.30005
1783.92212	0.30370
1781.99355	0.30760
1780.06499	0.31168
1778.13643	0.31591
1776.20786	0.31986
1774.27930	0.32389
1772.35073	0.32948
1770.42217	0.33611
1768.49360	0.34176
1766.56504	0.34697
1764.63647	0.35219
1762.70791	0.35789
1760.77935	0.36532
1758.85078	0.37240
1756.92222	0.37944
1754.99365	0.38711
1753.06509	0.39382
1751.13652	0.40162
1749.20796	0.41194
1747.27939	0.42261
1745.35083	0.43198
1743.42227	0.44157
1741.49370	0.45193
1739.56514	0.46427
1737.63657	0.47674
1735.70801	0.48728
1733.77944	0.50329
1731.85088	0.52331
1729.92231	0.53918
1727.99375	0.55513
1726.06519	0.57202
1724.13662	0.59040
1722.20806	0.61029
1720.27949	0.62822
1718.35093	0.64896
1716.42236	0.68135
1714.49380	0.71309
1712.56523	0.73801
1710.63667	0.76163
1708.70811	0.78684
1706.77954	0.81560
1704.85098	0.85078
1702.92241	0.88242
1700.99385	0.91285
1699.06528	0.95880
1697.13672	1.00194
1695.20815	1.04688
1693.27959	1.09040
1691.35103	1.12469
1689.42246	1.16467
1687.49390	1.20780
1685.56533	1.24890
1683.63677	1.31338
1681.70820	1.38211
1679.77964	1.42463
1677.85107	1.46464
1675.92251	1.51065
1673.99395	1.56871
1672.06538	1.62067
1670.13682	1.67220
1668.20825	1.74195
1666.27969	1.79753
1664.35112	1.84310
1662.42256	1.90142
1660.49399	1.97036
1658.56543	2.02337
1656.63687	2.06521
1654.70830	2.10312
1652.77974	2.16310
1650.85117	2.22172
1648.92261	2.24261
1646.99404	2.27032
1645.06548	2.29818
1643.13691	2.31733
1641.20835	2.32789
1639.27979	2.33713
1637.35122	2.34386
1635.42266	2.34575
1633.49409	2.33686
1631.56553	2.32012
1629.63696	2.30245
1627.70840	2.27398
1625.77983	2.24090
1623.85127	2.19817
1621.92271	2.14462
1619.99414	2.09694
1618.06558	2.05142
1616.13701	1.98667
1614.20845	1.92143
1612.27988	1.87280
1610.35132	1.82086
1608.42275	1.76322
1606.49419	1.70701
1604.56562	1.65687
1602.63706	1.60919
1600.70850	1.56264
1598.77993	1.51940
1596.85137	1.47816
1594.92280	1.43755
1592.99424	1.39816
1591.06567	1.36270
1589.13711	1.33033
1587.20854	1.30061
1585.27998	1.27311
1583.35142	1.24742
1581.42285	1.22405
1579.49429	1.20421
1577.56572	1.18647
1575.63716	1.16500
1573.70859	1.14701
1571.78003	1.13608
1569.85146	1.12503
1567.92290	1.11274
1565.99434	1.10369
1564.06577	1.09723
1562.13721	1.09262
1560.20864	1.09047
1558.28008	1.09169
1556.35151	1.09393
1554.42295	1.09467
1552.49438	1.09566
1550.56582	1.09532
1548.63726	1.09233
1546.70869	1.08666
1544.78013	1.07772
1542.85156	1.06557
1540.92300	1.04729
1538.99443	1.01810
1537.06587	0.99789
1535.13730	0.98380
1533.20874	0.96405
1531.28018	0.94346
1529.35161	0.92884
1527.42305	0.91461
1525.49448	0.89971
1523.56592	0.88742
1521.63735	0.87585
1519.70879	0.86391
1517.78022	0.85386
1515.85166	0.84241
1513.92310	0.83071
1511.99453	0.82047
1510.06597	0.81082
1508.13740	0.80100
1506.20884	0.78613
1504.28027	0.77450
1502.35171	0.76806
1500.42314	0.76205
1498.49458	0.75549
1496.56602	0.74798
1494.63745	0.74085
1492.70889	0.73541
1490.78032	0.73044
1488.85176	0.72482
1486.92319	0.71991
1484.99463	0.71616
1483.06606	0.71318
1481.13750	0.71090
1479.20894	0.70939
1477.28037	0.70863
1475.35181	0.70844
1473.42324	0.70859
1471.49468	0.70842
1469.56611	0.70733
1467.63755	0.70558
1465.70898	0.70372
1463.78042	0.70241
1461.85186	0.70183
1459.92329	0.70155
1457.99473	0.70141
1456.06616	0.70067
1454.13760	0.69839
1452.20903	0.69567
1450.28047	0.69307
1448.35190	0.69060
1446.42334	0.68802
1444.49478	0.68544
1442.56621	0.68282
1440.63765	0.68008
1438.70908	0.67725
1436.78052	0.67374
1434.85195	0.66985
1432.92339	0.66702
1430.99482	0.66528
1429.06626	0.66447
1427.13770	0.66433
1425.20913	0.66453
1423.28057	0.66500
1421.35200	0.66527
1419.42344	0.66523
1417.49487	0.66508
1415.56631	0.66456
1413.63774	0.66395
1411.70918	0.66372
1409.78062	0.66424
1407.85205	0.66524
1405.92349	0.66634
1403.99492	0.66728
1402.06636	0.66755
1400.13779	0.66698
1398.20923	0.66534
1396.28066	0.66258
1394.35210	0.65888
1392.42354	0.65483
1390.49497	0.65091
1388.56641	0.64680
1386.63784	0.64212
1384.70928	0.63740
1382.78071	0.63307
1380.85215	0.62900
1378.92358	0.62550
1376.99502	0.62284
1375.06646	0.62085
1373.13789	0.61947
1371.20933	0.61877
1369.28076	0.61832
1367.35220	0.61737
1365.42363	0.61580
1363.49507	0.61419
1361.56650	0.61281
1359.63794	0.61139
1357.70937	0.60993
1355.78081	0.60849
1353.85225	0.60718
1351.92368	0.60614
1349.99512	0.60532
1348.06655	0.60447
1346.13799	0.60347
1344.20942	0.60247
1342.28086	0.60150
1340.35229	0.60063
1338.42373	0.59990
1336.49517	0.59931
1334.56660	0.59886
1332.63804	0.59859
1330.70947	0.59858
1328.78091	0.59887
1326.85234	0.59936
1324.92378	0.59996
1322.99521	0.60076
1321.06665	0.60165
1319.13809	0.60234
1317.20952	0.60256
1315.28096	0.60235
1313.35239	0.60194
1311.42383	0.60132
1309.49526	0.60046
1307.56670	0.59957
1305.63813	0.59895
1303.70957	0.59847
1301.78101	0.59771
1299.85244	0.59658
1297.92388	0.59525
1295.99531	0.59383
1294.06675	0.59251
1292.13818	0.59128
1290.20962	0.59006
1288.28105	0.58880
1286.35249	0.58741
1284.42393	0.58604
1282.49536	0.58478
1280.56680	0.58344
1278.63823	0.58197
1276.70967	0.58064
1274.78110	0.57964
1272.85254	0.57880
1270.92397	0.57800
1268.99541	0.57721
1267.06685	0.57643
1265.13828	0.57557
1263.20972	0.57475
1261.28115	0.57411
1259.35259	0.57354
1257.42402	0.57288
1255.49546	0.57235
1253.56689	0.57215
1251.63833	0.57222
1249.70977	0.57230
1247.78120	0.57220
1245.85264	0.57195
1243.92407	0.57147
1241.99551	0.57055
1240.06694	0.56920
1238.13838	0.56751
1236.20981	0.56548
1234.28125	0.56328
1232.35269	0.56117
1230.42412	0.55911
1228.49556	0.55699
1226.56699	0.55485
1224.63843	0.55286
1222.70986	0.55113
1220.78130	0.54966
1218.85273	0.54823
1216.92417	0.54672
1214.99561	0.54543
1213.06704	0.54460
1211.13848	0.54400
1209.20991	0.54338
1207.28135	0.54269
1205.35278	0.54190
1203.42422	0.54097
1201.49565	0.53992
1199.56709	0.53886
1197.63853	0.53798
1195.70996	0.53728
1193.78140	0.53667
1191.85283	0.53605
1189.92427	0.53540
1187.99570	0.53480
1186.06714	0.53445
1184.13857	0.53447
1182.21001	0.53494
1180.28145	0.53592
1178.35288	0.53727
1176.42432	0.53872
1174.49575	0.54005
1172.56719	0.54101
1170.63862	0.54141
1168.71006	0.54158
1166.78149	0.54195
1164.85293	0.54247
1162.92437	0.54292
1160.99580	0.54314
1159.06724	0.54305
1157.13867	0.54276
1155.21011	0.54223
1153.28154	0.54120
1151.35298	0.53972
1149.42441	0.53765
1147.49585	0.53476
1145.56729	0.53156
1143.63872	0.52871
1141.71016	0.52629
1139.78159	0.52424
1137.85303	0.52276
1135.92446	0.52198
1133.99590	0.52180
1132.06733	0.52199
1130.13877	0.52228
1128.21021	0.52249
1126.28164	0.52252
1124.35308	0.52224
1122.42451	0.52182
1120.49595	0.52156
1118.56738	0.52168
1116.63882	0.52220
1114.71025	0.52280
1112.78169	0.52328
1110.85312	0.52396
1108.92456	0.52485
1106.99600	0.52576
1105.06743	0.52666
1103.13887	0.52749
1101.21030	0.52828
1099.28174	0.52942
1097.35317	0.53125
1095.42461	0.53382
1093.49604	0.53738
1091.56748	0.54245
1089.63892	0.54908
1087.71035	0.55677
1085.78179	0.56505
1083.85322	0.57351
1081.92466	0.58104
1079.99609	0.58633
1078.06753	0.58880
1076.13896	0.58825
1074.21040	0.58477
1072.28184	0.57913
1070.35327	0.57245
1068.42471	0.56535
1066.49614	0.55813
1064.56758	0.55139
1062.63901	0.54582
1060.71045	0.54144
1058.78188	0.53770
1056.85332	0.53419
1054.92476	0.53092
1052.99619	0.52796
1051.06763	0.52564
1049.13906	0.52433
1047.21050	0.52378
1045.28193	0.52359
1043.35337	0.52361
1041.42480	0.52378
1039.49624	0.52395
1037.56768	0.52397
1035.63911	0.52387
1033.71055	0.52350
1031.78198	0.52239
1029.85342	0.52061
1027.92485	0.51866
1025.99629	0.51680
1024.06772	0.51505
1022.13916	0.51368
1020.21060	0.51292
1018.28203	0.51252
1016.35347	0.51215
1014.42490	0.51169
1012.49634	0.51103
1010.56777	0.51023
1008.63921	0.50967
1006.71064	0.50979
1004.78208	0.51067
1002.85352	0.51230
1000.92495	0.51477
998.99639	0.51817
997.06782	0.52225
995.13926	0.52654
993.21069	0.53071
991.28213	0.53418
989.35356	0.53607
987.42500	0.53622
985.49644	0.53564
983.56787	0.53530
981.63931	0.53537
979.71074	0.53594
977.78218	0.53723
975.85361	0.53908
973.92505	0.54122
971.99648	0.54370
970.06792	0.54676
968.13936	0.55050
966.21079	0.55455
964.28223	0.55870
962.35366	0.56313
960.42510	0.56796
958.49653	0.57320
956.56797	0.57868
954.63940	0.58427
952.71084	0.59024
950.78228	0.59654
948.85371	0.60276
946.92515	0.60911
944.99658	0.61575
943.06802	0.62210
941.13945	0.62784
939.21089	0.63362
937.28232	0.63989
935.35376	0.64601
933.42520	0.65135
931.49663	0.65653
929.56807	0.66225
927.63950	0.66832
925.71094	0.67472
923.78237	0.68137
921.85381	0.68766
919.92524	0.69350
917.99668	0.69997
916.06812	0.70818
914.13955	0.71696
912.21099	0.72461
910.28242	0.73179
908.35386	0.73963
906.42529	0.74806
904.49673	0.75693
902.56816	0.76597
900.63960	0.77510
898.71104	0.78450
896.78247	0.79377
894.85391	0.80324
892.92534	0.81358
890.99678	0.82410
889.06821	0.83504
887.13965	0.84688
885.21108	0.85774
883.28252	0.86779
881.35396	0.87940
879.42539	0.89190
877.49683	0.90332
875.56826	0.91385
873.63970	0.92549
871.71113	0.93854
869.78257	0.95038
867.85400	0.96053
865.92544	0.97094
863.99687	0.98177
862.06831	0.99243
860.13975	1.00361
858.21118	1.01615
856.28262	1.02927
854.35405	1.04129
852.42549	1.05224
850.49692	1.06383
848.56836	1.07684
846.63979	1.09077
844.71123	1.10412
842.78267	1.11508
840.85410	1.12510
838.92554	1.13650
836.99697	1.14938
835.06841	1.16208
833.13984	1.17214
831.21128	1.18255
829.28271	1.19728
827.35415	1.21060
825.42559	1.21884
823.49702	1.22962
821.56846	1.24275
819.63989	1.25098
817.71133	1.25813
815.78276	1.27099
813.85420	1.28370
811.92563	1.29296
809.99707	1.31349
808.06851	1.34566
806.13994	1.36127
804.21138	1.34986
802.28281	1.34620
800.35425	1.37490
798.42568	1.40143
796.49712	1.38603
794.56855	1.37083
792.63999	1.39784
790.71143	1.43753
788.78286	1.45822
786.85430	1.49470
784.92573	1.52167
782.99717	1.49024
781.06860	1.57303
779.14004	1.91396
777.21147	1.98228
775.28291	1.69977
773.35435	1.60741
771.42578	1.54448
769.49722	1.48154
767.56865	1.47608
765.64009	1.46882
763.71152	1.48186
761.78296	1.49509
759.85439	1.31448
757.92583	1.12393
755.99727	1.04977
754.06870	1.07157
752.14014	1.15159
750.21157	1.22210
748.28301	1.19035
746.35444	1.12446
744.42588	1.10567
742.49731	1.11577
740.56875	1.13534
738.64019	1.06712
736.71162	0.88422
734.78306	0.74910
732.85449	0.69806
730.92593	0.67600
728.99736	0.64215
727.06880	0.60026
725.14023	0.50463
723.21167	0.37983
721.28311	0.30274
719.35454	0.30468
717.42598	0.33293
715.49741	0.23224
713.56885	0.01916
711.64028	-0.21598
709.71172	-0.35163
707.78315	-0.24134
705.85459	-0.14018
703.92603	-0.10276
701.99746	-0.11889
700.06890	-0.10552
698.14033	-0.07097
696.21177	-0.03512
694.28320	0.02169
692.35464	0.02336
690.42607	-0.00420
688.49751	0.04513
686.56895	0.20159
684.64038	0.30230
682.71182	0.26390
680.78325	0.28692
678.85469	0.50239
676.92612	0.71837
674.99756	0.33762
673.06899	0.13464
671.14043	0.11769
669.21187	0.20427
667.28330	0.21033
665.35474	0.12917
663.42617	0.10360
661.49761	0.11619
659.56904	0.06892
657.64048	0.00534
655.71191	-0.00891
653.78335	0.05928
651.85479	0.19252
649.92622	0.31104
647.99766	0.30638
646.06909	0.20741
644.14053	0.13285
642.21196	0.09216
640.28340	0.07960
638.35483	0.11112
636.42627	0.14973
634.49771	0.19424
632.56914	0.24968
630.64058	0.23693
628.71201	0.22865
626.78345	0.24369
624.85488	0.19211
622.92632	0.14033
620.99775	0.14599
619.06919	0.23143
617.14062	0.35884
615.21206	0.32802
613.28350	0.23945
611.35493	0.24474
609.42637	0.26897
607.49780	0.26336
605.56924	0.30982
603.64067	0.41796
601.71211	0.47223
599.78354	0.31740
597.85498	0.18984
595.92642	0.15808
593.99785	0.16112
592.06929	0.16440
590.14072	0.13510
588.21216	0.07934
586.28359	0.07594
584.35503	0.09692
582.42646	0.11238
580.49790	0.20396
578.56934	0.32984
576.64077	0.29711
574.71221	0.17367
572.78364	0.10094
570.85508	0.06450
568.92651	0.03763
566.99795	0.04311
565.06938	0.13303
563.14082	0.29542
561.21226	0.33985
559.28369	0.22104
557.35513	0.15858
555.42656	0.13642
553.49800	0.14462
551.56943	0.19774
549.64087	0.23373
547.71230	0.23286
545.78374	0.22281
543.85518	0.23925
541.92661	0.25339
539.99805	0.23236
538.06948	0.20488
536.14092	0.16790
534.21235	0.13986
532.28379	0.12274
530.35522	0.11020
528.42666	0.11275
526.49810	0.13936
524.56953	0.20377
522.64097	0.26159
520.71240	0.32406
518.78384	0.42780
516.85527	0.38311
514.92671	0.27774
512.99814	0.22379
511.06958	0.17926
509.14102	0.16214
507.21245	0.18493
505.28389	0.21739
503.35532	0.25153
501.42676	0.23492
499.49819	0.16813
