3997.91411	0.09302
3995.98555	0.09353
3994.05698	0.09377
3992.12842	0.09390
3990.19985	0.09424
3988.27129	0.09483
3986.34272	0.09539
3984.41416	0.09576
3982.48560	0.09599
3980.55703	0.09620
3978.62847	0.09649
3976.69990	0.09680
3974.77134	0.09690
3972.84277	0.09683
3970.91421	0.09677
3968.98564	0.09677
3967.05708	0.09698
3965.12852	0.09746
3963.19995	0.09810
3961.27139	0.09869
3959.34282	0.09879
3957.41426	0.09841
3955.48569	0.09831
3953.55713	0.09874
3951.62856	0.09956
3949.70000	0.10068
3947.77144	0.10118
3945.84287	0.10045
3943.91431	0.10002
3941.98574	0.10050
3940.05718	0.10037
3938.12861	0.09967
3936.20005	0.09949
3934.27148	0.10003
3932.34292	0.10133
3930.41436	0.10228
3928.48579	0.10149
3926.55723	0.10057
3924.62866	0.10123
3922.70010	0.10213
3920.77153	0.10192
3918.84297	0.10168
3916.91440	0.10192
3914.98584	0.10138
3913.05728	0.09996
3911.12871	0.09892
3909.20015	0.09867
3907.27158	0.09974
3905.34302	0.10259
3903.41445	0.10561
3901.48589	0.10632
3899.55732	0.10510
3897.62876	0.10291
3895.70020	0.10089
3893.77163	0.10062
3891.84307	0.10205
3889.91450	0.10286
3887.98594	0.10214
3886.05737	0.10213
3884.12881	0.10321
3882.20024	0.10413
3880.27168	0.10432
3878.34312	0.10315
3876.41455	0.10200
3874.48599	0.10290
3872.55742	0.10576
3870.62886	0.10828
3868.70029	0.10807
3866.77173	0.10653
3864.84316	0.10729
3862.91460	0.10904
3860.98604	0.10815
3859.05747	0.10639
3857.12891	0.10685
3855.20034	0.10996
3853.27178	0.11492
3851.34321	0.11641
3849.41465	0.11245
3847.48608	0.10905
3845.55752	0.10815
3843.62896	0.10960
3841.70039	0.11252
3839.77183	0.11589
3837.84326	0.11826
3835.91470	0.11790
3833.98613	0.11627
3832.05757	0.11526
3830.12900	0.11473
3828.20044	0.11473
3826.27187	0.11545
3824.34331	0.11673
3822.41475	0.11916
3820.48618	0.12303
3818.55762	0.12494
3816.62905	0.12442
3814.70049	0.12314
3812.77192	0.12125
3810.84336	0.12030
3808.91479	0.12140
3806.98623	0.12462
3805.05767	0.12799
3803.12910	0.13030
3801.20054	0.13278
3799.27197	0.13389
3797.34341	0.13329
3795.41484	0.13264
3793.48628	0.13182
3791.55771	0.13154
3789.62915	0.13222
3787.70059	0.13370
3785.77202	0.13619
3783.84346	0.13872
3781.91489	0.14039
3779.98633	0.14239
3778.05776	0.14440
3776.12920	0.14482
3774.20063	0.14499
3772.27207	0.14677
3770.34351	0.15032
3768.41494	0.15393
3766.48638	0.15604
3764.55781	0.15738
3762.62925	0.15852
3760.70068	0.16091
3758.77212	0.16514
3756.84355	0.16893
3754.91499	0.17153
3752.98643	0.17540
3751.05786	0.18180
3749.12930	0.18735
3747.20073	0.18915
3745.27217	0.19128
3743.34360	0.19476
3741.41504	0.19771
3739.48647	0.20114
3737.55791	0.20683
3735.62935	0.21514
3733.70078	0.22272
3731.77222	0.22585
3729.84365	0.22791
3727.91509	0.23179
3725.98652	0.23799
3724.05796	0.24519
3722.12939	0.25158
3720.20083	0.25689
3718.27227	0.26147
3716.34370	0.26651
3714.41514	0.27342
3712.48657	0.28466
3710.55801	0.30140
3708.62944	0.31648
3706.70088	0.32667
3704.77231	0.33689
3702.84375	0.35011
3700.91519	0.36751
3698.98662	0.38579
3697.05806	0.40296
3695.12949	0.42148
3693.20093	0.44171
3691.27236	0.46502
3689.34380	0.49523
3687.41523	0.52894
3685.48667	0.55627
3683.55811	0.58050
3681.62954	0.60793
3679.70098	0.64040
3677.77241	0.67576
3675.84385	0.71770
3673.91528	0.77276
3671.98672	0.81599
3670.05815	0.85448
3668.12959	0.90742
3666.20103	0.95424
3664.27246	0.99349
3662.34390	1.03655
3660.41533	1.08368
3658.48677	1.13090
3656.55820	1.18180
3654.62964	1.23817
3652.70107	1.28498
3650.77251	1.32715
3648.84395	1.38816
3646.91538	1.46032
3644.98682	1.50842
3643.05825	1.54533
3641.12969	1.58459
3639.20112	1.62895
3637.27256	1.67473
3635.34399	1.71982
3633.41543	1.76473
3631.48687	1.80657
3629.55830	1.84962
3627.62974	1.90639
3625.70117	1.95718
3623.77261	1.99080
3621.84404	2.02344
3619.91548	2.06067
3617.98691	2.10684
3616.05835	2.15175
3614.12979	2.18800
3612.20122	2.22582
3610.27266	2.26556
3608.34409	2.30800
3606.41553	2.35223
3604.48696	2.39029
3602.55840	2.42437
3600.62983	2.46303
3598.70127	2.50600
3596.77271	2.54856
3594.84414	2.59094
3592.91558	2.63249
3590.98701	2.67065
3589.05845	2.70703
3587.12988	2.75255
3585.20132	2.80309
3583.27275	2.84265
3581.34419	2.87853
3579.41562	2.92036
3577.48706	2.96497
3575.55850	3.00608
3573.62993	3.04639
3571.70137	3.08795
3569.77280	3.13069
3567.84424	3.17784
3565.91567	3.23331
3563.98711	3.28286
3562.05854	3.32230
3560.12998	3.36364
3558.20142	3.40839
3556.27285	3.45346
3554.34429	3.49717
3552.41572	3.54290
3550.48716	3.59176
3548.55859	3.64046
3546.63003	3.68923
3544.70146	3.73941
3542.77290	3.78708
3540.84434	3.83187
3538.91577	3.87580
3536.98721	3.91908
3535.05864	3.96693
3533.13008	4.01800
3531.20151	4.06739
3529.27295	4.11565
3527.34438	4.16552
3525.41582	4.21475
3523.48726	4.26034
3521.55869	4.30758
3519.63013	4.35579
3517.70156	4.40108
3515.77300	4.44890
3513.84443	4.50475
3511.91587	4.56273
3509.98730	4.61498
3508.05874	4.66279
3506.13018	4.71048
3504.20161	4.75836
3502.27305	4.80804
3500.34448	4.85854
3498.41592	4.90386
3496.48735	4.94532
3494.55879	4.98819
3492.63022	5.03586
3490.70166	5.08853
3488.77310	5.14098
3486.84453	5.18740
3484.91597	5.23077
3482.98740	5.28018
3481.05884	5.33981
3479.13027	5.40168
3477.20171	5.45455
3475.27314	5.49917
3473.34458	5.54311
3471.41602	5.58753
3469.48745	5.63101
3467.55889	5.67490
3465.63032	5.71899
3463.70176	5.76622
3461.77319	5.82282
3459.84463	5.88806
3457.91606	5.94407
3455.98750	5.98174
3454.05894	6.01385
3452.13037	6.06572
3450.20181	6.14615
3448.27324	6.22685
3446.34468	6.28178
3444.41611	6.31090
3442.48755	6.34944
3440.55898	6.41032
3438.63042	6.46714
3436.70186	6.50858
3434.77329	6.54615
3432.84473	6.59298
3430.91616	6.65724
3428.98760	6.74031
3427.05903	6.80860
3425.13047	6.83859
3423.20190	6.85130
3421.27334	6.88531
3419.34478	6.94721
3417.41621	7.00947
3415.48765	7.04993
3413.55908	7.06882
3411.63052	7.10492
3409.70195	7.16518
3407.77339	7.22919
3405.84482	7.28169
3403.91626	7.31188
3401.98770	7.32712
3400.05913	7.35929
3398.13057	7.42578
3396.20200	7.49897
3394.27344	7.54772
3392.34487	7.56036
3390.41631	7.56461
3388.48774	7.58827
3386.55918	7.65179
3384.63062	7.72832
3382.70205	7.78196
3380.77349	7.82824
3378.84492	7.85937
3376.91636	7.85632
3374.98779	7.84943
3373.05923	7.91453
3371.13066	8.02672
3369.20210	8.08111
3367.27354	8.06458
3365.34497	8.08730
3363.41641	8.15995
3361.48784	8.16752
3359.55928	8.11618
3357.63071	8.08332
3355.70215	8.11445
3353.77358	8.18876
3351.84502	8.27263
3349.91646	8.32234
3347.98789	8.33620
3346.05933	8.33022
3344.13076	8.24064
3342.20220	8.13385
3340.27363	8.14236
3338.34507	8.24505
3336.41650	8.33703
3334.48794	8.43202
3332.55937	8.55205
3330.63081	8.62464
3328.70225	8.57047
3326.77368	8.44950
3324.84512	8.35092
3322.91655	8.25996
3320.98799	8.22351
3319.05942	8.26902
3317.13086	8.32111
3315.20229	8.35373
3313.27373	8.44990
3311.34517	8.54731
3309.41660	8.51695
3307.48804	8.39937
3305.55947	8.27112
3303.63091	8.23778
3301.70234	8.28156
3299.77378	8.27565
3297.84521	8.26535
3295.91665	8.37068
3293.98809	8.52757
3292.05952	8.67559
3290.13096	8.78846
3288.20239	8.68490
3286.27383	8.51696
3284.34526	8.48273
3282.41670	8.46374
3280.48813	8.46867
3278.55957	8.57731
3276.63101	8.57316
3274.70244	8.43006
3272.77388	8.33744
3270.84531	8.30745
3268.91675	8.36307
3266.98818	8.52707
3265.05962	8.68790
3263.13105	8.70001
3261.20249	8.65022
3259.27393	8.62028
3257.34536	8.58581
3255.41680	8.57284
3253.48823	8.55491
3251.55967	8.53082
3249.63110	8.58234
3247.70254	8.64081
3245.77397	8.63737
3243.84541	8.66138
3241.91685	8.67695
3239.98828	8.65820
3238.05972	8.59142
3236.13115	8.44404
3234.20259	8.32354
3232.27402	8.29856
3230.34546	8.35223
3228.41689	8.37856
3226.48833	8.32249
3224.55977	8.32202
3222.63120	8.43727
3220.70264	8.52372
3218.77407	8.45197
3216.84551	8.31040
3214.91694	8.26095
3212.98838	8.28707
3211.05981	8.24961
3209.13125	8.16762
3207.20269	8.12382
3205.27412	8.10766
3203.34556	8.06766
3201.41699	7.99635
3199.48843	7.91588
3197.55986	7.84109
3195.63130	7.80347
3193.70273	7.81174
3191.77417	7.80907
3189.84561	7.74577
3187.91704	7.67409
3185.98848	7.63463
3184.05991	7.61207
3182.13135	7.59147
3180.20278	7.55553
3178.27422	7.51301
3176.34565	7.44656
3174.41709	7.33984
3172.48853	7.24532
3170.55996	7.18059
3168.63140	7.11814
3166.70283	7.05107
3164.77427	6.97789
3162.84570	6.88531
3160.91714	6.79622
3158.98857	6.74987
3157.06001	6.72126
3155.13145	6.66168
3153.20288	6.58226
3151.27432	6.50727
3149.34575	6.42478
3147.41719	6.34365
3145.48862	6.29113
3143.56006	6.24781
3141.63149	6.17200
3139.70293	6.07094
3137.77437	5.98217
3135.84580	5.90916
3133.91724	5.84384
3131.98867	5.78919
3130.06011	5.72936
3128.13154	5.64853
3126.20298	5.56567
3124.27441	5.49911
3122.34585	5.43284
3120.41729	5.35442
3118.48872	5.27479
3116.56016	5.19876
3114.63159	5.12569
3112.70303	5.05825
3110.77446	4.98773
3108.84590	4.91393
3106.91733	4.84985
3104.98877	4.79023
3103.06021	4.72611
3101.13164	4.65840
3099.20308	4.59010
3097.27451	4.52261
3095.34595	4.45371
3093.41738	4.38649
3091.48882	4.32532
3089.56025	4.26637
3087.63169	4.20408
3085.70312	4.13913
3083.77456	4.07541
3081.84600	4.01366
3079.91743	3.95202
3077.98887	3.89175
3076.06030	3.83535
3074.13174	3.77924
3072.20317	3.72017
3070.27461	3.66090
3068.34604	3.60333
3066.41748	3.54714
3064.48892	3.49223
3062.56035	3.43833
3060.63179	3.38631
3058.70322	3.33495
3056.77466	3.28062
3054.84609	3.22473
3052.91753	3.17193
3050.98896	3.12167
3049.06040	3.07082
3047.13184	3.01915
3045.20327	2.96816
3043.27471	2.91932
3041.34614	2.87197
3039.41758	2.82456
3037.48901	2.77807
3035.56045	2.73327
3033.63188	2.68899
3031.70332	2.64471
3029.77476	2.60048
3027.84619	2.55650
3025.91763	2.51329
3023.98906	2.47094
3022.06050	2.42918
3020.13193	2.38763
3018.20337	2.34625
3016.27480	2.30554
3014.34624	2.26580
3012.41768	2.22694
3010.48911	2.18887
3008.56055	2.15174
3006.63198	2.11566
3004.70342	2.08007
3002.77485	2.04450
3000.84629	2.00940
2998.91772	1.97507
2996.98916	1.94187
2995.06060	1.91028
2993.13203	1.87978
2991.20347	1.84959
2989.27490	1.81951
2987.34634	1.78976
2985.41777	1.76070
2983.48921	1.73252
2981.56064	1.70507
2979.63208	1.67834
2977.70352	1.65242
2975.77495	1.62690
2973.84639	1.60115
2971.91782	1.57533
2969.98926	1.55024
2968.06069	1.52576
2966.13213	1.50140
2964.20356	1.47687
2962.27500	1.45175
2960.34644	1.42626
2958.41787	1.40125
2956.48931	1.37707
2954.56074	1.35305
2952.63218	1.32881
2950.70361	1.30479
2948.77505	1.28138
2946.84648	1.25863
2944.91792	1.23635
2942.98936	1.21400
2941.06079	1.19146
2939.13223	1.16857
2937.20366	1.14490
2935.27510	1.12093
2933.34653	1.09703
2931.41797	1.07281
2929.48940	1.04855
2927.56084	1.02459
2925.63228	1.00065
2923.70371	0.97683
2921.77515	0.95412
2919.84658	0.93364
2917.91802	0.91557
2915.98945	0.90094
2914.06089	0.89079
2912.13232	0.88280
2910.20376	0.87396
2908.27520	0.86356
2906.34663	0.85210
2904.41807	0.83997
2902.48950	0.82761
2900.56094	0.81511
2898.63237	0.80229
2896.70381	0.78959
2894.77524	0.77750
2892.84668	0.76587
2890.91812	0.75463
2888.98955	0.74399
2887.06099	0.73385
2885.13242	0.72412
2883.20386	0.71469
2881.27529	0.70515
2879.34673	0.69553
2877.41816	0.68606
2875.48960	0.67652
2873.56104	0.66657
2871.63247	0.65569
2869.70391	0.64365
2867.77534	0.63092
2865.84678	0.61778
2863.91821	0.60433
2861.98965	0.59041
2860.06108	0.57612
2858.13252	0.56201
2856.20396	0.54801
2854.27539	0.53389
2852.34683	0.52005
2850.41826	0.50792
2848.48970	0.50023
2846.56113	0.49793
2844.63257	0.49804
2842.70400	0.49755
2840.77544	0.49556
2838.84687	0.49231
2836.91831	0.48820
2834.98975	0.48334
2833.06118	0.47795
2831.13262	0.47222
2829.20405	0.46639
2827.27549	0.46070
2825.34692	0.45503
2823.41836	0.44931
2821.48979	0.44359
2819.56123	0.43779
2817.63267	0.43194
2815.70410	0.42618
2813.77554	0.42060
2811.84697	0.41509
2809.91841	0.40968
2807.98984	0.40442
2806.06128	0.39907
2804.13271	0.39369
2802.20415	0.38850
2800.27559	0.38344
2798.34702	0.37850
2796.41846	0.37358
2794.48989	0.36859
2792.56133	0.36378
2790.63276	0.35910
2788.70420	0.35440
2786.77563	0.34986
2784.84707	0.34555
2782.91851	0.34133
2780.98994	0.33716
2779.06138	0.33308
2777.13281	0.32903
2775.20425	0.32490
2773.27568	0.32075
2771.34712	0.31673
2769.41855	0.31301
2767.48999	0.30945
2765.56143	0.30591
2763.63286	0.30250
2761.70430	0.29904
2759.77573	0.29538
2757.84717	0.29187
2755.91860	0.28868
2753.99004	0.28550
2752.06147	0.28220
2750.13291	0.27890
2748.20435	0.27589
2746.27578	0.27323
2744.34722	0.27055
2742.41865	0.26754
2740.49009	0.26457
2738.56152	0.26197
2736.63296	0.25941
2734.70439	0.25662
2732.77583	0.25380
2730.84727	0.25118
2728.91870	0.24882
2726.99014	0.24668
2725.06157	0.24447
2723.13301	0.24202
2721.20444	0.23967
2719.27588	0.23762
2717.34731	0.23562
2715.41875	0.23354
2713.49019	0.23150
2711.56162	0.22972
2709.63306	0.22808
2707.70449	0.22637
2705.77593	0.22462
2703.84736	0.22295
2701.91880	0.22131
2699.99023	0.21970
2698.06167	0.21820
2696.13311	0.21687
2694.20454	0.21554
2692.27598	0.21412
2690.34741	0.21270
2688.41885	0.21135
2686.49028	0.21007
2684.56172	0.20874
2682.63315	0.20738
2680.70459	0.20625
2678.77603	0.20518
2676.84746	0.20395
2674.91890	0.20274
2672.99033	0.20162
2671.06177	0.20051
2669.13320	0.19932
2667.20464	0.19824
2665.27607	0.19743
2663.34751	0.19661
2661.41895	0.19569
2659.49038	0.19493
2657.56182	0.19429
2655.63325	0.19349
2653.70469	0.19252
2651.77612	0.19156
2649.84756	0.19082
2647.91899	0.19026
2645.99043	0.18963
2644.06187	0.18895
2642.13330	0.18840
2640.20474	0.18803
2638.27617	0.18769
2636.34761	0.18722
2634.41904	0.18661
2632.49048	0.18603
2630.56191	0.18559
2628.63335	0.18512
2626.70479	0.18460
2624.77622	0.18419
2622.84766	0.18392
2620.91909	0.18364
2618.99053	0.18336
2617.06196	0.18310
2615.13340	0.18286
2613.20483	0.18265
2611.27627	0.18238
2609.34771	0.18210
2607.41914	0.18202
2605.49058	0.18206
2603.56201	0.18198
2601.63345	0.18188
2599.70488	0.18184
2597.77632	0.18178
2595.84775	0.18171
2593.91919	0.18172
2591.99062	0.18181
2590.06206	0.18189
2588.13350	0.18190
2586.20493	0.18193
2584.27637	0.18203
2582.34780	0.18219
2580.41924	0.18242
2578.49067	0.18268
2576.56211	0.18296
2574.63354	0.18330
2572.70498	0.18365
2570.77642	0.18392
2568.84785	0.18424
2566.91929	0.18469
2564.99072	0.18513
2563.06216	0.18544
2561.13359	0.18572
2559.20503	0.18613
2557.27646	0.18661
2555.34790	0.18712
2553.41934	0.18758
2551.49077	0.18803
2549.56221	0.18860
2547.63364	0.18916
2545.70508	0.18954
2543.77651	0.18984
2541.84795	0.19026
2539.91938	0.19080
2537.99082	0.19150
2536.06226	0.19224
2534.13369	0.19293
2532.20513	0.19367
2530.27656	0.19441
2528.34800	0.19502
2526.41943	0.19558
2524.49087	0.19621
2522.56230	0.19686
2520.63374	0.19755
2518.70518	0.19831
2516.77661	0.19900
2514.84805	0.19966
2512.91948	0.20041
2510.99092	0.20133
2509.06235	0.20231
2507.13379	0.20320
2505.20522	0.20384
2503.27666	0.20431
2501.34810	0.20492
2499.41953	0.20574
2497.49097	0.20655
2495.56240	0.20738
2493.63384	0.20837
2491.70527	0.20935
2489.77671	0.21010
2487.84814	0.21081
2485.91958	0.21169
2483.99102	0.21256
2482.06245	0.21330
2480.13389	0.21406
2478.20532	0.21483
2476.27676	0.21562
2474.34819	0.21649
2472.41963	0.21745
2470.49106	0.21840
2468.56250	0.21929
2466.63394	0.22018
2464.70537	0.22106
2462.77681	0.22189
2460.84824	0.22279
2458.91968	0.22380
2456.99111	0.22479
2455.06255	0.22567
2453.13398	0.22653
2451.20542	0.22742
2449.27686	0.22831
2447.34829	0.22929
2445.41973	0.23037
2443.49116	0.23145
2441.56260	0.23238
2439.63403	0.23318
2437.70547	0.23413
2435.77690	0.23536
2433.84834	0.23662
2431.91978	0.23765
2429.99121	0.23852
2428.06265	0.23943
2426.13408	0.24043
2424.20552	0.24144
2422.27695	0.24250
2420.34839	0.24364
2418.41982	0.24476
2416.49126	0.24585
2414.56270	0.24698
2412.63413	0.24812
2410.70557	0.24923
2408.77700	0.25031
2406.84844	0.25145
2404.91987	0.25265
2402.99131	0.25391
2401.06274	0.25526
2399.13418	0.25653
2397.20562	0.25764
2395.27705	0.25882
2393.34849	0.26004
2391.41992	0.26129
2389.49136	0.26280
2387.56279	0.26491
2385.63423	0.26801
2383.70566	0.27244
2381.77710	0.27826
2379.84854	0.28534
2377.91997	0.29349
2375.99141	0.30273
2374.06284	0.31342
2372.13428	0.32558
2370.20571	0.33858
2368.27715	0.35179
2366.34858	0.36418
2364.42002	0.37497
2362.49146	0.38477
2360.56289	0.39216
2358.63433	0.39358
2356.70576	0.38832
2354.77720	0.37850
2352.84863	0.36645
2350.92007	0.35452
2348.99150	0.34727
2347.06294	0.34785
2345.13437	0.35695
2343.20581	0.36981
2341.27725	0.37730
2339.34868	0.37846
2337.42012	0.37733
2335.49155	0.37644
2333.56299	0.37644
2331.63442	0.37692
2329.70586	0.37669
2327.77729	0.37556
2325.84873	0.37347
2323.92017	0.37036
2321.99160	0.36696
2320.06304	0.36332
2318.13447	0.35939
2316.20591	0.35619
2314.27734	0.35444
2312.34878	0.35372
2310.42021	0.35320
2308.49165	0.35218
2306.56309	0.35045
2304.63452	0.34882
2302.70596	0.34820
2300.77739	0.34846
2298.84883	0.34889
2296.92026	0.34929
2294.99170	0.34979
2293.06313	0.35043
2291.13457	0.35103
2289.20601	0.35148
2287.27744	0.35189
2285.34888	0.35251
2283.42031	0.35367
2281.49175	0.35549
2279.56318	0.35770
2277.63462	0.35999
2275.70605	0.36230
2273.77749	0.36459
2271.84893	0.36674
2269.92036	0.36881
2267.99180	0.37086
2266.06323	0.37286
2264.13467	0.37480
2262.20610	0.37673
2260.27754	0.37869
2258.34897	0.38064
2256.42041	0.38246
2254.49185	0.38430
2252.56328	0.38624
2250.63472	0.38819
2248.70615	0.39013
2246.77759	0.39208
2244.84902	0.39413
2242.92046	0.39636
2240.99189	0.39863
2239.06333	0.40078
2237.13477	0.40291
2235.20620	0.40503
2233.27764	0.40713
2231.34907	0.40938
2229.42051	0.41168
2227.49194	0.41387
2225.56338	0.41602
2223.63481	0.41823
2221.70625	0.42042
2219.77769	0.42258
2217.84912	0.42469
2215.92056	0.42677
2213.99199	0.42892
2212.06343	0.43113
2210.13486	0.43336
2208.20630	0.43560
2206.27773	0.43776
2204.34917	0.43980
2202.42061	0.44173
2200.49204	0.44366
2198.56348	0.44563
2196.63491	0.44762
2194.70635	0.44963
2192.77778	0.45153
2190.84922	0.45331
2188.92065	0.45507
2186.99209	0.45678
2185.06353	0.45849
2183.13496	0.46027
2181.20640	0.46202
2179.27783	0.46368
2177.34927	0.46524
2175.42070	0.46677
2173.49214	0.46833
2171.56357	0.46986
2169.63501	0.47127
2167.70645	0.47257
2165.77788	0.47374
2163.84932	0.47490
2161.92075	0.47607
2159.99219	0.47714
2158.06362	0.47812
2156.13506	0.47912
2154.20649	0.48005
2152.27793	0.48086
2150.34937	0.48149
2148.42080	0.48192
2146.49224	0.48237
2144.56367	0.48291
2142.63511	0.48339
2140.70654	0.48364
2138.77798	0.48373
2136.84941	0.48387
2134.92085	0.48408
2132.99229	0.48422
2131.06372	0.48424
2129.13516	0.48414
2127.20659	0.48386
2125.27803	0.48345
2123.34946	0.48297
2121.42090	0.48246
2119.49233	0.48198
2117.56377	0.48146
2115.63521	0.48079
2113.70664	0.47997
2111.77808	0.47905
2109.84951	0.47806
2107.92095	0.47701
2105.99238	0.47593
2104.06382	0.47470
2102.13525	0.47327
2100.20669	0.47186
2098.27812	0.47046
2096.34956	0.46898
2094.42100	0.46750
2092.49243	0.46601
2090.56387	0.46443
2088.63530	0.46273
2086.70674	0.46085
2084.77817	0.45876
2082.84961	0.45672
2080.92104	0.45480
2078.99248	0.45282
2077.06392	0.45072
2075.13535	0.44860
2073.20679	0.44638
2071.27822	0.44408
2069.34966	0.44180
2067.42109	0.43954
2065.49253	0.43724
2063.56396	0.43479
2061.63540	0.43224
2059.70684	0.42972
2057.77827	0.42717
2055.84971	0.42456
2053.92114	0.42195
2051.99258	0.41936
2050.06401	0.41673
2048.13545	0.41410
2046.20688	0.41152
2044.27832	0.40893
2042.34976	0.40623
2040.42119	0.40335
2038.49263	0.40039
2036.56406	0.39750
2034.63550	0.39471
2032.70693	0.39198
2030.77837	0.38923
2028.84980	0.38640
2026.92124	0.38360
2024.99268	0.38089
2023.06411	0.37814
2021.13555	0.37530
2019.20698	0.37258
2017.27842	0.36988
2015.34985	0.36689
2013.42129	0.36380
2011.49272	0.36091
2009.56416	0.35822
2007.63560	0.35550
2005.70703	0.35269
2003.77847	0.34998
2001.84990	0.34734
1999.92134	0.34469
1997.99277	0.34204
1996.06421	0.33948
1994.13564	0.33707
1992.20708	0.33471
1990.27852	0.33209
1988.34995	0.32938
1986.42139	0.32677
1984.49282	0.32426
1982.56426	0.32185
1980.63569	0.31944
1978.70713	0.31701
1976.77856	0.31460
1974.85000	0.31226
1972.92144	0.31000
1970.99287	0.30787
1969.06431	0.30602
1967.13574	0.30423
1965.20718	0.30205
1963.27861	0.29971
1961.35005	0.29763
1959.42148	0.29571
1957.49292	0.29394
1955.56436	0.29226
1953.63579	0.29047
1951.70723	0.28857
1949.77866	0.28677
1947.85010	0.28529
1945.92153	0.28411
1943.99297	0.28298
1942.06440	0.28148
1940.13584	0.27943
1938.20728	0.27744
1936.27871	0.27585
1934.35015	0.27448
1932.42158	0.27317
1930.49302	0.27183
1928.56445	0.27063
1926.63589	0.26970
1924.70732	0.26912
1922.77876	0.26855
1920.85020	0.26759
1918.92163	0.26656
1916.99307	0.26553
1915.06450	0.26420
1913.13594	0.26301
1911.20737	0.26236
1909.27881	0.26189
1907.35024	0.26117
1905.42168	0.26033
1903.49312	0.25958
1901.56455	0.25882
1899.63599	0.25815
1897.70742	0.25780
1895.77886	0.25762
1893.85029	0.25721
1891.92173	0.25678
1889.99316	0.25674
1888.06460	0.25653
1886.13604	0.25598
1884.20747	0.25553
1882.27891	0.25517
1880.35034	0.25492
1878.42178	0.25483
1876.49321	0.25475
1874.56465	0.25466
1872.63608	0.25484
1870.70752	0.25562
1868.77896	0.25698
1866.85039	0.25742
1864.92183	0.25660
1862.99326	0.25601
1861.06470	0.25603
1859.13613	0.25630
1857.20757	0.25650
1855.27900	0.25676
1853.35044	0.25715
1851.42187	0.25774
1849.49331	0.25858
1847.56475	0.25972
1845.63618	0.26110
1843.70762	0.26232
1841.77905	0.26257
1839.85049	0.26244
1837.92192	0.26297
1835.99336	0.26383
1834.06479	0.26478
1832.13623	0.26613
1830.20767	0.26819
1828.27910	0.26986
1826.35054	0.27063
1824.42197	0.27156
1822.49341	0.27238
1820.56484	0.27319
1818.63628	0.27441
1816.70771	0.27600
1814.77915	0.27767
1812.85059	0.27966
1810.92202	0.28201
1808.99346	0.28404
1807.06489	0.28565
1805.13633	0.28737
1803.20776	0.28977
1801.27920	0.29276
1799.35063	0.29574
1797.42207	0.29808
1795.49351	0.30052
1793.56494	0.30373
1791.63638	0.30752
1789.70781	0.31029
1787.77925	0.31219
1785.85068	0.31506
1783.92212	0.31876
1781.99355	0.32288
1780.06499	0.32732
1778.13643	0.33165
1776.20786	0.33571
1774.27930	0.34052
1772.35073	0.34711
1770.42217	0.35330
1768.49360	0.35764
1766.56504	0.36192
1764.63647	0.36668
1762.70791	0.37233
1760.77935	0.37954
1758.85078	0.38607
1756.92222	0.39250
1754.99365	0.39940
1753.06509	0.40575
1751.13652	0.41389
1749.20796	0.42436
1747.27939	0.43420
1745.35083	0.44243
1743.42227	0.45144
1741.49370	0.46192
1739.56514	0.47463
1737.63657	0.48748
1735.70801	0.49923
1733.77944	0.51727
1731.85088	0.53770
1729.92231	0.55284
1727.99375	0.56825
1726.06519	0.58496
1724.13662	0.60356
1722.20806	0.62391
1720.27949	0.64292
1718.35093	0.66579
1716.42236	0.69967
1714.49380	0.73016
1712.56523	0.75358
1710.63667	0.77677
1708.70811	0.80267
1706.77954	0.83291
1704.85098	0.86949
1702.92241	0.90180
1700.99385	0.93350
1699.06528	0.98193
1697.13672	1.02676
1695.20815	1.07227
1693.27959	1.11611
1691.35103	1.15187
1689.42246	1.19478
1687.49390	1.24113
1685.56533	1.28612
1683.63677	1.35658
1681.70820	1.42843
1679.77964	1.47182
1677.85107	1.51365
1675.92251	1.56315
1673.99395	1.62574
1672.06538	1.68139
1670.13682	1.73710
1668.20825	1.81199
1666.27969	1.87206
1664.35112	1.92342
1662.42256	1.99136
1660.49399	2.07058
1658.56543	2.13043
1656.63687	2.17726
1654.70830	2.22021
1652.77974	2.28786
1650.85117	2.35039
1648.92261	2.37032
1646.99404	2.39537
1645.06548	2.41568
1643.13691	2.42509
1641.20835	2.42836
1639.27979	2.43433
1637.35122	2.43914
1635.42266	2.43760
1633.49409	2.42721
1631.56553	2.40900
1629.63696	2.38766
1627.70840	2.35553
1625.77983	2.31974
1623.85127	2.27330
1621.92271	2.21615
1619.99414	2.16725
1618.06558	2.12015
1616.13701	2.05006
1614.20845	1.97868
1612.27988	1.92582
1610.35132	1.87079
1608.42275	1.81120
1606.49419	1.75306
1604.56562	1.70006
1602.63706	1.64882
1600.70850	1.59895
1598.77993	1.55397
1596.85137	1.51264
1594.92280	1.47253
1592.99424	1.43371
1591.06567	1.39875
1589.13711	1.36639
1587.20854	1.33640
1585.27998	1.30910
1583.35142	1.28444
1581.42285	1.26285
1579.49429	1.24536
1577.56572	1.23066
1575.63716	1.21250
1573.70859	1.19622
1571.78003	1.18679
1569.85146	1.17869
1567.92290	1.17022
1565.99434	1.16486
1564.06577	1.16253
1562.13721	1.16194
1560.20864	1.16478
1558.28008	1.17588
1556.35151	1.18502
1554.42295	1.18949
1552.49438	1.19493
1550.56582	1.19854
1548.63726	1.19856
1546.70869	1.19544
1544.78013	1.18942
1542.85156	1.17976
1540.92300	1.16147
1538.99443	1.12542
1537.06587	1.09726
1535.13730	1.07890
1533.20874	1.05455
1531.28018	1.02845
1529.35161	1.01031
1527.42305	0.99423
1525.49448	0.97788
1523.56592	0.96409
1521.63735	0.95092
1519.70879	0.93692
1517.78022	0.92485
1515.85166	0.91027
1513.92310	0.89463
1511.99453	0.88155
1510.06597	0.87079
1508.13740	0.86107
1506.20884	0.84182
1504.28027	0.82291
1502.35171	0.81325
1500.42314	0.80581
1498.49458	0.79804
1496.56602	0.78842
1494.63745	0.77844
1492.70889	0.77114
1490.78032	0.76539
1488.85176	0.75844
1486.92319	0.75078
1484.99463	0.74447
1483.06606	0.73994
1481.13750	0.73663
1479.20894	0.73428
1477.28037	0.73317
1475.35181	0.73330
1473.42324	0.73387
1471.49468	0.73239
1469.56611	0.72902
1467.63755	0.72615
1465.70898	0.72438
1463.78042	0.72338
1461.85186	0.72327
1459.92329	0.72468
1457.99473	0.72766
1456.06616	0.72870
1454.13760	0.72550
1452.20903	0.72217
1450.28047	0.71948
1448.35190	0.71702
1446.42334	0.71399
1444.49478	0.71075
1442.56621	0.70773
1440.63765	0.70464
1438.70908	0.70171
1436.78052	0.69831
1434.85195	0.69370
1432.92339	0.68986
1430.99482	0.68775
1429.06626	0.68698
1427.13770	0.68720
1425.20913	0.68838
1423.28057	0.69002
1421.35200	0.69136
1419.42344	0.69270
1417.49487	0.69322
1415.56631	0.69202
1413.63774	0.69117
1411.70918	0.69162
1409.78062	0.69313
1407.85205	0.69545
1405.92349	0.69844
1403.99492	0.70104
1402.06636	0.70216
1400.13779	0.70232
1398.20923	0.70147
1396.28066	0.69895
1394.35210	0.69431
1392.42354	0.68838
1390.49497	0.68297
1388.56641	0.67789
1386.63784	0.67173
1384.70928	0.66478
1382.78071	0.65825
1380.85215	0.65228
1378.92358	0.64719
1376.99502	0.64354
1375.06646	0.64136
1373.13789	0.63966
1371.20933	0.63805
1369.28076	0.63680
1367.35220	0.63544
1365.42363	0.63387
1363.49507	0.63252
1361.56650	0.63099
1359.63794	0.62903
1357.70937	0.62728
1355.78081	0.62594
1353.85225	0.62485
1351.92368	0.62400
1349.99512	0.62345
1348.06655	0.62294
1346.13799	0.62215
1344.20942	0.62133
1342.28086	0.62096
1340.35229	0.62101
1338.42373	0.62072
1336.49517	0.61991
1334.56660	0.61931
1332.63804	0.61931
1330.70947	0.61981
1328.78091	0.62047
1326.85234	0.62122
1324.92378	0.62226
1322.99521	0.62354
1321.06665	0.62479
1319.13809	0.62596
1317.20952	0.62686
1315.28096	0.62725
1313.35239	0.62711
1311.42383	0.62652
1309.49526	0.62579
1307.56670	0.62532
1305.63813	0.62520
1303.70957	0.62509
1301.78101	0.62453
1299.85244	0.62349
1297.92388	0.62230
1295.99531	0.62097
1294.06675	0.61936
1292.13818	0.61771
1290.20962	0.61626
1288.28105	0.61481
1286.35249	0.61326
1284.42393	0.61169
1282.49536	0.60996
1280.56680	0.60814
1278.63823	0.60644
1276.70967	0.60489
1274.78110	0.60352
1272.85254	0.60237
1270.92397	0.60143
1268.99541	0.60058
1267.06685	0.59965
1265.13828	0.59842
1263.20972	0.59689
1261.28115	0.59555
1259.35259	0.59473
1257.42402	0.59416
1255.49546	0.59379
1253.56689	0.59387
1251.63833	0.59431
1249.70977	0.59481
1247.78120	0.59513
1245.85264	0.59514
1243.92407	0.59456
1241.99551	0.59334
1240.06694	0.59164
1238.13838	0.58955
1236.20981	0.58699
1234.28125	0.58410
1232.35269	0.58122
1230.42412	0.57861
1228.49556	0.57632
1226.56699	0.57412
1224.63843	0.57182
1222.70986	0.56962
1220.78130	0.56765
1218.85273	0.56594
1216.92417	0.56444
1214.99561	0.56304
1213.06704	0.56173
1211.13848	0.56063
1209.20991	0.55982
1207.28135	0.55916
1205.35278	0.55839
1203.42422	0.55732
1201.49565	0.55594
1199.56709	0.55449
1197.63853	0.55323
1195.70996	0.55244
1193.78140	0.55209
1191.85283	0.55182
1189.92427	0.55139
1187.99570	0.55088
1186.06714	0.55058
1184.13857	0.55064
1182.21001	0.55103
1180.28145	0.55191
1178.35288	0.55328
1176.42432	0.55476
1174.49575	0.55609
1172.56719	0.55702
1170.63862	0.55711
1168.71006	0.55660
1166.78149	0.55597
1164.85293	0.55523
1162.92437	0.55428
1160.99580	0.55342
1159.06724	0.55274
1157.13867	0.55185
1155.21011	0.55068
1153.28154	0.54939
1151.35298	0.54763
1149.42441	0.54524
1147.49585	0.54265
1145.56729	0.54020
1143.63872	0.53786
1141.71016	0.53562
1139.78159	0.53367
1137.85303	0.53223
1135.92446	0.53133
1133.99590	0.53074
1132.06733	0.53025
1130.13877	0.52991
1128.21021	0.52970
1126.28164	0.52938
1124.35308	0.52863
1122.42451	0.52755
1120.49595	0.52666
1118.56738	0.52614
1116.63882	0.52575
1114.71025	0.52544
1112.78169	0.52542
1110.85312	0.52575
1108.92456	0.52622
1106.99600	0.52683
1105.06743	0.52786
1103.13887	0.52946
1101.21030	0.53145
1099.28174	0.53375
1097.35317	0.53646
1095.42461	0.53959
1093.49604	0.54310
1091.56748	0.54696
1089.63892	0.55132
1087.71035	0.55625
1085.78179	0.56193
1083.85322	0.56837
1081.92466	0.57469
1079.99609	0.57971
1078.06753	0.58257
1076.13896	0.58272
1074.21040	0.58034
1072.28184	0.57614
1070.35327	0.57042
1068.42471	0.56361
1066.49614	0.55666
1064.56758	0.55020
1062.63901	0.54445
1060.71045	0.53933
1058.78188	0.53482
1056.85332	0.53102
1054.92476	0.52753
1052.99619	0.52402
1051.06763	0.52079
1049.13906	0.51803
1047.21050	0.51562
1045.28193	0.51343
1043.35337	0.51138
1041.42480	0.50959
1039.49624	0.50826
1037.56768	0.50719
1035.63911	0.50623
1033.71055	0.50530
1031.78198	0.50444
1029.85342	0.50402
1027.92485	0.50418
1025.99629	0.50431
1024.06772	0.50411
1022.13916	0.50417
1020.21060	0.50489
1018.28203	0.50582
1016.35347	0.50650
1014.42490	0.50716
1012.49634	0.50815
1010.56777	0.50941
1008.63921	0.51077
1006.71064	0.51223
1004.78208	0.51411
1002.85352	0.51653
1000.92495	0.51944
998.99639	0.52281
997.06782	0.52661
995.13926	0.53063
993.21069	0.53450
991.28213	0.53783
989.35356	0.54032
987.42500	0.54201
985.49644	0.54315
983.56787	0.54389
981.63931	0.54456
979.71074	0.54569
977.78218	0.54734
975.85361	0.54934
973.92505	0.55189
971.99648	0.55491
970.06792	0.55813
968.13936	0.56162
966.21079	0.56561
964.28223	0.56999
962.35366	0.57455
960.42510	0.57945
958.49653	0.58490
956.56797	0.59082
954.63940	0.59674
952.71084	0.60247
950.78228	0.60851
948.85371	0.61486
946.92515	0.62109
944.99658	0.62738
943.06802	0.63398
941.13945	0.64058
939.21089	0.64686
937.28232	0.65271
935.35376	0.65824
933.42520	0.66372
931.49663	0.66937
929.56807	0.67505
927.63950	0.68071
925.71094	0.68647
923.78237	0.69235
921.85381	0.69881
919.92524	0.70606
917.99668	0.71287
916.06812	0.71902
914.13955	0.72621
912.21099	0.73481
910.28242	0.74344
908.35386	0.75161
906.42529	0.76001
904.49673	0.76881
902.56816	0.77777
900.63960	0.78685
898.71104	0.79636
896.78247	0.80693
894.85391	0.81800
892.92534	0.82841
890.99678	0.83834
889.06821	0.84834
887.13965	0.85929
885.21108	0.87214
883.28252	0.88508
881.35396	0.89624
879.42539	0.90730
877.49683	0.91888
875.56826	0.92912
873.63970	0.93898
871.71113	0.95087
869.78257	0.96376
867.85400	0.97536
865.92544	0.98531
863.99687	0.99524
862.06831	1.00628
860.13975	1.01750
858.21118	1.02877
856.28262	1.04100
854.35405	1.05406
852.42549	1.06817
850.49692	1.08319
848.56836	1.09637
846.63979	1.10646
844.71123	1.11516
842.78267	1.12491
840.85410	1.13766
838.92554	1.15161
836.99697	1.16415
835.06841	1.17530
833.13984	1.18860
831.21128	1.20493
829.28271	1.21748
827.35415	1.22458
825.42559	1.23216
823.49702	1.24267
821.56846	1.24997
819.63989	1.25661
817.71133	1.27490
815.78276	1.29730
813.85420	1.30808
811.92563	1.31809
809.99707	1.33760
808.06851	1.35729
806.13994	1.37873
804.21138	1.39874
802.28281	1.41765
800.35425	1.43646
798.42568	1.43047
796.49712	1.42437
794.56855	1.45360
792.63999	1.48843
790.71143	1.49091
788.78286	1.48629
786.85430	1.51048
784.92573	1.58308
782.99717	1.65760
781.06860	1.76035
779.14004	1.91634
777.21147	1.88819
775.28291	1.71113
773.35435	1.58382
771.42578	1.51075
769.49722	1.49871
767.56865	1.58114
765.64009	1.64793
763.71152	1.57193
761.78296	1.50154
759.85439	1.44355
757.92583	1.30060
755.99727	1.15076
754.06870	1.08506
752.14014	1.09703
750.21157	1.10793
748.28301	1.08241
746.35444	1.09111
744.42588	1.12183
742.49731	1.07515
740.56875	1.02404
738.64019	1.00236
736.71162	0.95891
734.78306	0.89738
732.85449	0.77714
730.92593	0.66951
728.99736	0.64078
727.06880	0.65883
725.14023	0.65579
723.21167	0.60708
721.28311	0.43714
719.35454	0.09962
717.42598	-0.31303
715.49741	-0.34669
713.56885	-0.30138
711.64028	-0.38793
709.71172	-0.61127
707.78315	-0.47606
705.85459	-0.20401
703.92603	-0.05838
701.99746	0.03711
700.06890	0.16866
698.14033	0.28990
696.21177	0.33307
694.28320	0.37894
692.35464	0.45779
690.42607	0.52487
688.49751	0.42576
686.56895	0.27616
684.64038	0.27079
682.71182	0.36232
680.78325	0.36669
678.85469	0.28933
676.92612	0.26598
674.99756	0.25029
673.06899	0.21324
671.14043	0.22203
669.21187	0.32274
667.28330	0.68333
665.35474	3.99213
663.42617	3.98056
661.49761	1.17126
659.56904	0.54598
657.64048	0.32828
655.71191	0.25666
653.78335	0.27947
651.85479	0.32376
649.92622	0.33387
647.99766	0.30787
646.06909	0.24197
644.14053	0.22318
642.21196	0.28344
640.28340	0.28608
638.35483	0.21255
636.42627	0.19711
634.49771	0.17930
632.56914	0.13804
630.64058	0.13610
628.71201	0.17200
626.78345	0.20250
624.85488	0.22361
622.92632	0.24699
620.99775	0.31734
619.06919	0.42944
617.14062	0.47080
615.21206	0.39682
613.28350	0.31077
611.35493	0.26198
609.42637	0.26901
607.49780	0.33694
605.56924	0.37136
603.64067	0.34080
601.71211	0.31466
599.78354	0.27942
597.85498	0.23153
595.92642	0.21273
593.99785	0.22758
592.06929	0.28766
590.14072	0.35545
588.21216	0.27857
586.28359	0.18966
584.35503	0.21983
582.42646	0.25929
580.49790	0.21112
578.56934	0.17102
576.64077	0.18434
574.71221	0.23997
572.78364	0.29254
570.85508	0.25153
568.92651	0.19485
566.99795	0.18476
565.06938	0.23243
563.14082	0.32546
561.21226	0.41065
559.28369	0.38493
557.35513	0.29448
555.42656	0.22864
553.49800	0.20454
551.56943	0.25239
549.64087	0.32897
547.71230	0.32245
545.78374	0.22976
543.85518	0.16494
541.92661	0.16922
539.99805	0.23718
538.06948	0.33702
536.14092	0.50392
534.21235	0.55521
532.28379	0.35317
530.35522	0.25912
528.42666	0.25259
526.49810	0.24786
524.56953	0.23197
522.64097	0.23125
520.71240	0.24450
518.78384	0.25650
516.85527	0.26203
514.92671	0.25646
512.99814	0.22863
511.06958	0.21588
509.14102	0.25069
507.21245	0.30036
505.28389	0.29661
503.35532	0.25631
501.42676	0.22787
499.49819	0.20634
