3997.91411	0.07115
3995.98555	0.07147
3994.05698	0.07143
3992.12842	0.07135
3990.19985	0.07177
3988.27129	0.07245
3986.34272	0.07280
3984.41416	0.07287
3982.48560	0.07290
3980.55703	0.07317
3978.62847	0.07347
3976.69990	0.07358
3974.77134	0.07386
3972.84277	0.07397
3970.91421	0.07359
3968.98564	0.07347
3967.05708	0.07396
3965.12852	0.07441
3963.19995	0.07462
3961.27139	0.07489
3959.34282	0.07502
3957.41426	0.07500
3955.48569	0.07512
3953.55713	0.07531
3951.62856	0.07578
3949.70000	0.07667
3947.77144	0.07727
3945.84287	0.07712
3943.91431	0.07713
3941.98574	0.07760
3940.05718	0.07738
3938.12861	0.07670
3936.20005	0.07636
3934.27148	0.07662
3932.34292	0.07752
3930.41436	0.07805
3928.48579	0.07715
3926.55723	0.07610
3924.62866	0.07634
3922.70010	0.07679
3920.77153	0.07660
3918.84297	0.07689
3916.91440	0.07757
3914.98584	0.07707
3913.05728	0.07545
3911.12871	0.07406
3909.20015	0.07362
3907.27158	0.07480
3905.34302	0.07807
3903.41445	0.08210
3901.48589	0.08394
3899.55732	0.08280
3897.62876	0.08008
3895.70020	0.07752
3893.77163	0.07688
3891.84307	0.07822
3889.91450	0.07877
3887.98594	0.07776
3886.05737	0.07839
3884.12881	0.08032
3882.20024	0.08100
3880.27168	0.08094
3878.34312	0.07963
3876.41455	0.07812
3874.48599	0.07922
3872.55742	0.08212
3870.62886	0.08445
3868.70029	0.08499
3866.77173	0.08364
3864.84316	0.08356
3862.91460	0.08471
3860.98604	0.08346
3859.05747	0.08134
3857.12891	0.08176
3855.20034	0.08518
3853.27178	0.09079
3851.34321	0.09256
3849.41465	0.08802
3847.48608	0.08412
3845.55752	0.08334
3843.62896	0.08530
3841.70039	0.08845
3839.77183	0.09166
3837.84326	0.09431
3835.91470	0.09474
3833.98613	0.09322
3832.05757	0.09167
3830.12900	0.09053
3828.20044	0.09004
3826.27187	0.09077
3824.34331	0.09242
3822.41475	0.09534
3820.48618	0.09962
3818.55762	0.10101
3816.62905	0.09996
3814.70049	0.09898
3812.77192	0.09683
3810.84336	0.09495
3808.91479	0.09545
3806.98623	0.09879
3805.05767	0.10255
3803.12910	0.10531
3801.20054	0.10929
3799.27197	0.11142
3797.34341	0.10979
3795.41484	0.10798
3793.48628	0.10638
3791.55771	0.10550
3789.62915	0.10604
3787.70059	0.10754
3785.77202	0.10971
3783.84346	0.11188
3781.91489	0.11359
3779.98633	0.11579
3778.05776	0.11776
3776.12920	0.11766
3774.20063	0.11753
3772.27207	0.11950
3770.34351	0.12328
3768.41494	0.12680
3766.48638	0.12856
3764.55781	0.13000
3762.62925	0.13148
3760.70068	0.13370
3758.77212	0.13763
3756.84355	0.14119
3754.91499	0.14356
3752.98643	0.14773
3751.05786	0.15544
3749.12930	0.16226
3747.20073	0.16387
3745.27217	0.16569
3743.34360	0.17053
3741.41504	0.17468
3739.48647	0.17822
3737.55791	0.18479
3735.62935	0.19568
3733.70078	0.20639
3731.77222	0.21107
3729.84365	0.21342
3727.91509	0.21761
3725.98652	0.22411
3724.05796	0.23055
3722.12939	0.23508
3720.20083	0.23780
3718.27227	0.23877
3716.34370	0.24026
3714.41514	0.24555
3712.48657	0.25749
3710.55801	0.27623
3708.62944	0.29301
3706.70088	0.30346
3704.77231	0.31332
3702.84375	0.32635
3700.91519	0.34310
3698.98662	0.36035
3697.05806	0.37640
3695.12949	0.39350
3693.20093	0.41244
3691.27236	0.43456
3689.34380	0.46227
3687.41523	0.49265
3685.48667	0.51830
3683.55811	0.54195
3681.62954	0.56910
3679.70098	0.60071
3677.77241	0.63499
3675.84385	0.67623
3673.91528	0.72850
3671.98672	0.76944
3670.05815	0.80643
3668.12959	0.85633
3666.20103	0.90118
3664.27246	0.93947
3662.34390	0.98179
3660.41533	1.02831
3658.48677	1.07455
3656.55820	1.12353
3654.62964	1.17759
3652.70107	1.22440
3650.77251	1.26806
3648.84395	1.32693
3646.91538	1.39218
3644.98682	1.43763
3643.05825	1.47427
3641.12969	1.51436
3639.20112	1.55976
3637.27256	1.60579
3635.34399	1.65087
3633.41543	1.69619
3631.48687	1.73900
3629.55830	1.78267
3627.62974	1.83705
3625.70117	1.88455
3623.77261	1.91602
3621.84404	1.94748
3619.91548	1.98495
3617.98691	2.02971
3616.05835	2.07162
3614.12979	2.10619
3612.20122	2.14263
3610.27266	2.18101
3608.34409	2.22203
3606.41553	2.26663
3604.48696	2.30716
3602.55840	2.34223
3600.62983	2.38013
3598.70127	2.42176
3596.77271	2.46278
3594.84414	2.50427
3592.91558	2.54479
3590.98701	2.57967
3589.05845	2.61245
3587.12988	2.65541
3585.20132	2.70430
3583.27275	2.74487
3581.34419	2.78101
3579.41562	2.81974
3577.48706	2.86147
3575.55850	2.90318
3573.62993	2.94413
3571.70137	2.98403
3569.77280	3.02559
3567.84424	3.07329
3565.91567	3.12809
3563.98711	3.17671
3562.05854	3.21668
3560.12998	3.25707
3558.20142	3.29926
3556.27285	3.34207
3554.34429	3.38496
3552.41572	3.43119
3550.48716	3.47938
3548.55859	3.52572
3546.63003	3.57261
3544.70146	3.62078
3542.77290	3.66500
3540.84434	3.70786
3538.91577	3.75516
3536.98721	3.80529
3535.05864	3.85552
3533.13008	3.90280
3531.20151	3.94958
3529.27295	3.99745
3527.34438	4.04578
3525.41582	4.09599
3523.48726	4.14634
3521.55869	4.19169
3519.63013	4.23388
3517.70156	4.28199
3515.77300	4.33387
3513.84443	4.38239
3511.91587	4.42611
3509.98730	4.46983
3508.05874	4.51882
3506.13018	4.57033
3504.20161	4.62133
3502.27305	4.67192
3500.34448	4.72033
3498.41592	4.76669
3496.48735	4.81382
3494.55879	4.86339
3492.63022	4.91417
3490.70166	4.96046
3488.77310	5.00495
3486.84453	5.05339
3484.91597	5.10227
3482.98740	5.15096
3481.05884	5.20147
3479.13027	5.25281
3477.20171	5.30490
3475.27314	5.35626
3473.34458	5.40382
3471.41602	5.44644
3469.48745	5.48556
3467.55889	5.52555
3465.63032	5.57129
3463.70176	5.62658
3461.77319	5.68951
3459.84463	5.74887
3457.91606	5.79325
3455.98750	5.83018
3454.05894	5.87562
3452.13037	5.93190
3450.20181	5.98984
3448.27324	6.04686
3446.34468	6.10544
3444.41611	6.16080
3442.48755	6.21751
3440.55898	6.26614
3438.63042	6.30093
3436.70186	6.33963
3434.77329	6.38492
3432.84473	6.42487
3430.91616	6.45424
3428.98760	6.48459
3427.05903	6.52209
3425.13047	6.57738
3423.20190	6.64393
3421.27334	6.70018
3419.34478	6.74660
3417.41621	6.77767
3415.48765	6.80485
3413.55908	6.86825
3411.63052	6.95470
3409.70195	7.01404
3407.77339	7.06834
3405.84482	7.12193
3403.91626	7.13747
3401.98770	7.13672
3400.05913	7.15864
3398.13057	7.20919
3396.20200	7.28766
3394.27344	7.37549
3392.34487	7.43008
3390.41631	7.46113
3388.48774	7.48961
3386.55918	7.51986
3384.63062	7.54165
3382.70205	7.55984
3380.77349	7.59937
3378.84492	7.65245
3376.91636	7.67191
3374.98779	7.63038
3373.05923	7.60079
3371.13066	7.60496
3369.20210	7.62592
3367.27354	7.68219
3365.34497	7.75359
3363.41641	7.80055
3361.48784	7.79923
3359.55928	7.76056
3357.63071	7.76037
3355.70215	7.82491
3353.77358	7.86327
3351.84502	7.84896
3349.91646	7.83296
3347.98789	7.87327
3346.05933	7.95258
3344.13076	7.99184
3342.20220	8.01255
3340.27363	8.02399
3338.34507	7.99143
3336.41650	7.95762
3334.48794	7.99425
3332.55937	8.08415
3330.63081	8.18106
3328.70225	8.22627
3326.77368	8.16388
3324.84512	8.02373
3322.91655	7.90118
3320.98799	7.88582
3319.05942	7.94601
3317.13086	8.00274
3315.20229	8.00676
3313.27373	7.96463
3311.34517	7.93985
3309.41660	7.94940
3307.48804	7.98272
3305.55947	8.05494
3303.63091	8.12753
3301.70234	8.17671
3299.77378	8.25471
3297.84521	8.30270
3295.91665	8.24815
3293.98809	8.15421
3292.05952	8.11018
3290.13096	8.07283
3288.20239	8.01378
3286.27383	8.01343
3284.34526	8.05081
3282.41670	8.06455
3280.48813	8.06462
3278.55957	8.11294
3276.63101	8.18456
3274.70244	8.20319
3272.77388	8.18662
3270.84531	8.17466
3268.91675	8.15535
3266.98818	8.10005
3265.05962	8.08459
3263.13105	8.16645
3261.20249	8.26618
3259.27393	8.31822
3257.34536	8.36747
3255.41680	8.34529
3253.48823	8.20223
3251.55967	8.11155
3249.63110	8.12473
3247.70254	8.13158
3245.77397	8.11395
3243.84541	8.14562
3241.91685	8.19601
3239.98828	8.22070
3238.05972	8.25000
3236.13115	8.26326
3234.20259	8.20757
3232.27402	8.13381
3230.34546	8.10029
3228.41689	8.08539
3226.48833	8.10676
3224.55977	8.14730
3222.63120	8.13524
3220.70264	8.06107
3218.77407	8.00066
3216.84551	8.03753
3214.91694	8.10913
3212.98838	8.10713
3211.05981	8.03503
3209.13125	7.91542
3207.20269	7.83825
3205.27412	7.84710
3203.34556	7.80542
3201.41699	7.70587
3199.48843	7.68330
3197.55986	7.74720
3195.63130	7.80559
3193.70273	7.76518
3191.77417	7.66387
3189.84561	7.58079
3187.91704	7.51102
3185.98848	7.48611
3184.05991	7.51962
3182.13135	7.50398
3180.20278	7.40243
3178.27422	7.29913
3176.34565	7.22442
3174.41709	7.14864
3172.48853	7.08395
3170.55996	7.04909
3168.63140	7.00896
3166.70283	6.96809
3164.77427	6.93633
3162.84570	6.86550
3160.91714	6.76248
3158.98857	6.68790
3157.06001	6.66451
3155.13145	6.64723
3153.20288	6.58220
3151.27432	6.49220
3149.34575	6.40340
3147.41719	6.31912
3145.48862	6.25114
3143.56006	6.19214
3141.63149	6.13409
3139.70293	6.07004
3137.77437	5.99840
3135.84580	5.92683
3133.91724	5.84990
3131.98867	5.76568
3130.06011	5.68388
3128.13154	5.61622
3126.20298	5.55914
3124.27441	5.49044
3122.34585	5.41011
3120.41729	5.33936
3118.48872	5.27593
3116.56016	5.20777
3114.63159	5.13651
3112.70303	5.06388
3110.77446	4.98889
3108.84590	4.91303
3106.91733	4.84085
3104.98877	4.77401
3103.06021	4.70787
3101.13164	4.64012
3099.20308	4.57099
3097.27451	4.50056
3095.34595	4.43084
3093.41738	4.36262
3091.48882	4.29793
3089.56025	4.23614
3087.63169	4.17246
3085.70312	4.10715
3083.77456	4.04106
3081.84600	3.97493
3079.91743	3.91161
3077.98887	3.85072
3076.06030	3.78899
3074.13174	3.72573
3072.20317	3.66346
3070.27461	3.60409
3068.34604	3.54716
3066.41748	3.49034
3064.48892	3.43301
3062.56035	3.37562
3060.63179	3.31836
3058.70322	3.26226
3056.77466	3.20719
3054.84609	3.15323
3052.91753	3.10079
3050.98896	3.04888
3049.06040	2.99660
3047.13184	2.94451
3045.20327	2.89332
3043.27471	2.84310
3041.34614	2.79432
3039.41758	2.74658
3037.48901	2.69869
3035.56045	2.65142
3033.63188	2.60573
3031.70332	2.56067
3029.77476	2.51565
3027.84619	2.47135
3025.91763	2.42768
3023.98906	2.38453
3022.06050	2.34304
3020.13193	2.30230
3018.20337	2.26047
3016.27480	2.21902
3014.34624	2.17967
3012.41768	2.14128
3010.48911	2.10322
3008.56055	2.06639
3006.63198	2.03000
3004.70342	1.99315
3002.77485	1.95668
3000.84629	1.92100
2998.91772	1.88630
2996.98916	1.85277
2995.06060	1.81971
2993.13203	1.78648
2991.20347	1.75359
2989.27490	1.72178
2987.34634	1.69110
2985.41777	1.66104
2983.48921	1.63098
2981.56064	1.60077
2979.63208	1.57072
2977.70352	1.54138
2975.77495	1.51303
2973.84639	1.48524
2971.91782	1.45794
2969.98926	1.43098
2968.06069	1.40399
2966.13213	1.37761
2964.20356	1.35254
2962.27500	1.32849
2960.34644	1.30471
2958.41787	1.28083
2956.48931	1.25713
2954.56074	1.23400
2952.63218	1.21176
2950.70361	1.19043
2948.77505	1.16923
2946.84648	1.14762
2944.91792	1.12613
2942.98936	1.10546
2941.06079	1.08573
2939.13223	1.06659
2937.20366	1.04764
2935.27510	1.02871
2933.34653	1.01004
2931.41797	0.99225
2929.48940	0.97517
2927.56084	0.95779
2925.63228	0.94003
2923.70371	0.92254
2921.77515	0.90557
2919.84658	0.88933
2917.91802	0.87353
2915.98945	0.85773
2914.06089	0.84210
2912.13232	0.82687
2910.20376	0.81212
2908.27520	0.79781
2906.34663	0.78403
2904.41807	0.77083
2902.48950	0.75796
2900.56094	0.74521
2898.63237	0.73247
2896.70381	0.71972
2894.77524	0.70721
2892.84668	0.69499
2890.91812	0.68314
2888.98955	0.67181
2887.06099	0.66061
2885.13242	0.64923
2883.20386	0.63809
2881.27529	0.62763
2879.34673	0.61748
2877.41816	0.60703
2875.48960	0.59643
2873.56104	0.58618
2871.63247	0.57635
2869.70391	0.56669
2867.77534	0.55707
2865.84678	0.54749
2863.91821	0.53812
2861.98965	0.52889
2860.06108	0.51967
2858.13252	0.51073
2856.20396	0.50221
2854.27539	0.49380
2852.34683	0.48542
2850.41826	0.47743
2848.48970	0.46957
2846.56113	0.46155
2844.63257	0.45389
2842.70400	0.44695
2840.77544	0.44046
2838.84687	0.43415
2836.91831	0.42790
2834.98975	0.42173
2833.06118	0.41573
2831.13262	0.40983
2829.20405	0.40380
2827.27549	0.39757
2825.34692	0.39150
2823.41836	0.38577
2821.48979	0.38012
2819.56123	0.37446
2817.63267	0.36882
2815.70410	0.36328
2813.77554	0.35797
2811.84697	0.35271
2809.91841	0.34734
2807.98984	0.34203
2806.06128	0.33707
2804.13271	0.33238
2802.20415	0.32759
2800.27559	0.32271
2798.34702	0.31800
2796.41846	0.31352
2794.48989	0.30924
2792.56133	0.30502
2790.63276	0.30065
2788.70420	0.29628
2786.77563	0.29217
2784.84707	0.28832
2782.91851	0.28454
2780.98994	0.28085
2779.06138	0.27730
2777.13281	0.27384
2775.20425	0.27039
2773.27568	0.26680
2771.34712	0.26313
2769.41855	0.25962
2767.48999	0.25635
2765.56143	0.25318
2763.63286	0.25009
2761.70430	0.24710
2759.77573	0.24407
2757.84717	0.24091
2755.91860	0.23784
2753.99004	0.23489
2752.06147	0.23194
2750.13291	0.22913
2748.20435	0.22672
2746.27578	0.22448
2744.34722	0.22199
2742.41865	0.21946
2740.49009	0.21712
2738.56152	0.21472
2736.63296	0.21226
2734.70439	0.20997
2732.77583	0.20788
2730.84727	0.20586
2728.91870	0.20388
2726.99014	0.20200
2725.06157	0.20018
2723.13301	0.19829
2721.20444	0.19635
2719.27588	0.19450
2717.34731	0.19266
2715.41875	0.19077
2713.49019	0.18905
2711.56162	0.18759
2709.63306	0.18607
2707.70449	0.18436
2705.77593	0.18269
2703.84736	0.18107
2701.91880	0.17951
2699.99023	0.17799
2698.06167	0.17647
2696.13311	0.17506
2694.20454	0.17379
2692.27598	0.17259
2690.34741	0.17138
2688.41885	0.17013
2686.49028	0.16882
2684.56172	0.16752
2682.63315	0.16634
2680.70459	0.16522
2678.77603	0.16404
2676.84746	0.16296
2674.91890	0.16205
2672.99033	0.16108
2671.06177	0.15994
2669.13320	0.15882
2667.20464	0.15792
2665.27607	0.15712
2663.34751	0.15634
2661.41895	0.15555
2659.49038	0.15474
2657.56182	0.15399
2655.63325	0.15342
2653.70469	0.15286
2651.77612	0.15214
2649.84756	0.15133
2647.91899	0.15063
2645.99043	0.15003
2644.06187	0.14945
2642.13330	0.14898
2640.20474	0.14851
2638.27617	0.14795
2636.34761	0.14757
2634.41904	0.14739
2632.49048	0.14706
2630.56191	0.14650
2628.63335	0.14602
2626.70479	0.14593
2624.77622	0.14597
2622.84766	0.14579
2620.91909	0.14550
2618.99053	0.14534
2617.06196	0.14523
2615.13340	0.14511
2613.20483	0.14496
2611.27627	0.14478
2609.34771	0.14471
2607.41914	0.14471
2605.49058	0.14465
2603.56201	0.14455
2601.63345	0.14456
2599.70488	0.14479
2597.77632	0.14520
2595.84775	0.14550
2593.91919	0.14555
2591.99062	0.14555
2590.06206	0.14559
2588.13350	0.14571
2586.20493	0.14603
2584.27637	0.14640
2582.34780	0.14665
2580.41924	0.14686
2578.49067	0.14724
2576.56211	0.14770
2574.63354	0.14810
2572.70498	0.14852
2570.77642	0.14896
2568.84785	0.14925
2566.91929	0.14950
2564.99072	0.15003
2563.06216	0.15078
2561.13359	0.15142
2559.20503	0.15186
2557.27646	0.15225
2555.34790	0.15281
2553.41934	0.15360
2551.49077	0.15433
2549.56221	0.15480
2547.63364	0.15526
2545.70508	0.15578
2543.77651	0.15631
2541.84795	0.15700
2539.91938	0.15789
2537.99082	0.15878
2536.06226	0.15950
2534.13369	0.16010
2532.20513	0.16080
2530.27656	0.16163
2528.34800	0.16231
2526.41943	0.16284
2524.49087	0.16352
2522.56230	0.16445
2520.63374	0.16545
2518.70518	0.16633
2516.77661	0.16700
2514.84805	0.16758
2512.91948	0.16828
2510.99092	0.16913
2509.06235	0.17006
2507.13379	0.17101
2505.20522	0.17191
2503.27666	0.17276
2501.34810	0.17361
2499.41953	0.17446
2497.49097	0.17536
2495.56240	0.17633
2493.63384	0.17732
2491.70527	0.17826
2489.77671	0.17909
2487.84814	0.17983
2485.91958	0.18064
2483.99102	0.18159
2482.06245	0.18254
2480.13389	0.18346
2478.20532	0.18438
2476.27676	0.18531
2474.34819	0.18626
2472.41963	0.18728
2470.49106	0.18833
2468.56250	0.18928
2466.63394	0.19015
2464.70537	0.19100
2462.77681	0.19184
2460.84824	0.19278
2458.91968	0.19382
2456.99111	0.19487
2455.06255	0.19591
2453.13398	0.19697
2451.20542	0.19803
2449.27686	0.19910
2447.34829	0.20021
2445.41973	0.20118
2443.49116	0.20202
2441.56260	0.20293
2439.63403	0.20391
2437.70547	0.20486
2435.77690	0.20587
2433.84834	0.20709
2431.91978	0.20839
2429.99121	0.20947
2428.06265	0.21037
2426.13408	0.21143
2424.20552	0.21266
2422.27695	0.21383
2420.34839	0.21495
2418.41982	0.21613
2416.49126	0.21733
2414.56270	0.21846
2412.63413	0.21953
2410.70557	0.22070
2408.77700	0.22205
2406.84844	0.22338
2404.91987	0.22447
2402.99131	0.22553
2401.06274	0.22679
2399.13418	0.22817
2397.20562	0.22953
2395.27705	0.23079
2393.34849	0.23202
2391.41992	0.23346
2389.49136	0.23542
2387.56279	0.23858
2385.63423	0.24406
2383.70566	0.25304
2381.77710	0.26567
2379.84854	0.28123
2377.91997	0.29924
2375.99141	0.31977
2374.06284	0.34310
2372.13428	0.36912
2370.20571	0.39722
2368.27715	0.42665
2366.34858	0.45485
2364.42002	0.47779
2362.49146	0.49366
2360.56289	0.50278
2358.63433	0.50427
2356.70576	0.49377
2354.77720	0.47074
2352.84863	0.44152
2350.92007	0.41253
2348.99150	0.39477
2347.06294	0.39565
2345.13437	0.41524
2343.20581	0.44092
2341.27725	0.45383
2339.34868	0.45466
2337.42012	0.45190
2335.49155	0.44868
2333.56299	0.44557
2331.63442	0.44308
2329.70586	0.43999
2327.77729	0.43508
2325.84873	0.42808
2323.92017	0.41948
2321.99160	0.40976
2320.06304	0.39923
2318.13447	0.38858
2316.20591	0.37918
2314.27734	0.37248
2312.34878	0.36830
2310.42021	0.36460
2308.49165	0.35952
2306.56309	0.35317
2304.63452	0.34726
2302.70596	0.34343
2300.77739	0.34134
2298.84883	0.33960
2296.92026	0.33788
2294.99170	0.33634
2293.06313	0.33480
2291.13457	0.33327
2289.20601	0.33186
2287.27744	0.33062
2285.34888	0.32967
2283.42031	0.32960
2281.49175	0.33105
2279.56318	0.33378
2277.63462	0.33685
2275.70605	0.33962
2273.77749	0.34199
2271.84893	0.34407
2269.92036	0.34598
2267.99180	0.34782
2266.06323	0.34962
2264.13467	0.35136
2262.20610	0.35307
2260.27754	0.35476
2258.34897	0.35640
2256.42041	0.35799
2254.49185	0.35950
2252.56328	0.36102
2250.63472	0.36269
2248.70615	0.36439
2246.77759	0.36603
2244.84902	0.36787
2242.92046	0.36998
2240.99189	0.37209
2239.06333	0.37409
2237.13477	0.37609
2235.20620	0.37815
2233.27764	0.38033
2231.34907	0.38265
2229.42051	0.38487
2227.49194	0.38686
2225.56338	0.38886
2223.63481	0.39108
2221.70625	0.39345
2219.77769	0.39584
2217.84912	0.39809
2215.92056	0.40021
2213.99199	0.40232
2212.06343	0.40448
2210.13486	0.40668
2208.20630	0.40886
2206.27773	0.41092
2204.34917	0.41293
2202.42061	0.41498
2200.49204	0.41709
2198.56348	0.41922
2196.63491	0.42127
2194.70635	0.42315
2192.77778	0.42492
2190.84922	0.42679
2188.92065	0.42876
2186.99209	0.43057
2185.06353	0.43225
2183.13496	0.43400
2181.20640	0.43579
2179.27783	0.43745
2177.34927	0.43899
2175.42070	0.44055
2173.49214	0.44212
2171.56357	0.44357
2169.63501	0.44495
2167.70645	0.44632
2165.77788	0.44763
2163.84932	0.44877
2161.92075	0.44973
2159.99219	0.45079
2158.06362	0.45205
2156.13506	0.45327
2154.20649	0.45425
2152.27793	0.45500
2150.34937	0.45559
2148.42080	0.45617
2146.49224	0.45670
2144.56367	0.45715
2142.63511	0.45755
2140.70654	0.45788
2138.77798	0.45821
2136.84941	0.45846
2134.92085	0.45849
2132.99229	0.45836
2131.06372	0.45820
2129.13516	0.45799
2127.20659	0.45779
2125.27803	0.45756
2123.34946	0.45710
2121.42090	0.45651
2119.49233	0.45594
2117.56377	0.45533
2115.63521	0.45465
2113.70664	0.45390
2111.77808	0.45298
2109.84951	0.45187
2107.92095	0.45073
2105.99238	0.44957
2104.06382	0.44836
2102.13525	0.44707
2100.20669	0.44568
2098.27812	0.44420
2096.34956	0.44269
2094.42100	0.44121
2092.49243	0.43967
2090.56387	0.43794
2088.63530	0.43612
2086.70674	0.43431
2084.77817	0.43243
2082.84961	0.43050
2080.92104	0.42856
2078.99248	0.42665
2077.06392	0.42472
2075.13535	0.42263
2073.20679	0.42034
2071.27822	0.41804
2069.34966	0.41583
2067.42109	0.41358
2065.49253	0.41121
2063.56396	0.40870
2061.63540	0.40612
2059.70684	0.40355
2057.77827	0.40101
2055.84971	0.39850
2053.92114	0.39592
2051.99258	0.39330
2050.06401	0.39070
2048.13545	0.38811
2046.20688	0.38545
2044.27832	0.38278
2042.34976	0.38014
2040.42119	0.37746
2038.49263	0.37464
2036.56406	0.37181
2034.63550	0.36906
2032.70693	0.36636
2030.77837	0.36362
2028.84980	0.36076
2026.92124	0.35791
2024.99268	0.35512
2023.06411	0.35240
2021.13555	0.34982
2019.20698	0.34733
2017.27842	0.34473
2015.34985	0.34181
2013.42129	0.33878
2011.49272	0.33586
2009.56416	0.33311
2007.63560	0.33040
2005.70703	0.32761
2003.77847	0.32483
2001.84990	0.32223
1999.92134	0.31975
1997.99277	0.31722
1996.06421	0.31467
1994.13564	0.31237
1992.20708	0.31022
1990.27852	0.30776
1988.34995	0.30501
1986.42139	0.30228
1984.49282	0.29972
1982.56426	0.29731
1980.63569	0.29499
1978.70713	0.29274
1976.77856	0.29055
1974.85000	0.28837
1972.92144	0.28612
1970.99287	0.28394
1969.06431	0.28206
1967.13574	0.28035
1965.20718	0.27834
1963.27861	0.27602
1961.35005	0.27384
1959.42148	0.27192
1957.49292	0.27020
1955.56436	0.26855
1953.63579	0.26687
1951.70723	0.26518
1949.77866	0.26358
1947.85010	0.26209
1945.92153	0.26079
1943.99297	0.25979
1942.06440	0.25859
1940.13584	0.25670
1938.20728	0.25468
1936.27871	0.25314
1934.35015	0.25198
1932.42158	0.25088
1930.49302	0.24969
1928.56445	0.24848
1926.63589	0.24741
1924.70732	0.24673
1922.77876	0.24620
1920.85020	0.24538
1918.92163	0.24456
1916.99307	0.24372
1915.06450	0.24245
1913.13594	0.24118
1911.20737	0.24042
1909.27881	0.23996
1907.35024	0.23931
1905.42168	0.23840
1903.49312	0.23762
1901.56455	0.23706
1899.63599	0.23657
1897.70742	0.23625
1895.77886	0.23609
1893.85029	0.23585
1891.92173	0.23562
1889.99316	0.23572
1888.06460	0.23554
1886.13604	0.23487
1884.20747	0.23432
1882.27891	0.23401
1880.35034	0.23386
1878.42178	0.23385
1876.49321	0.23393
1874.56465	0.23404
1872.63608	0.23438
1870.70752	0.23531
1868.77896	0.23666
1866.85039	0.23687
1864.92183	0.23586
1862.99326	0.23522
1861.06470	0.23536
1859.13613	0.23580
1857.20757	0.23609
1855.27900	0.23640
1853.35044	0.23682
1851.42187	0.23741
1849.49331	0.23828
1847.56475	0.23950
1845.63618	0.24098
1843.70762	0.24229
1841.77905	0.24255
1839.85049	0.24233
1837.92192	0.24283
1835.99336	0.24378
1834.06479	0.24479
1832.13623	0.24617
1830.20767	0.24834
1828.27910	0.25007
1826.35054	0.25081
1824.42197	0.25179
1822.49341	0.25267
1820.56484	0.25346
1818.63628	0.25463
1816.70771	0.25617
1814.77915	0.25784
1812.85059	0.25995
1810.92202	0.26245
1808.99346	0.26451
1807.06489	0.26612
1805.13633	0.26789
1803.20776	0.27042
1801.27920	0.27352
1799.35063	0.27660
1797.42207	0.27912
1795.49351	0.28170
1793.56494	0.28504
1791.63638	0.28896
1789.70781	0.29165
1787.77925	0.29336
1785.85068	0.29623
1783.92212	0.30015
1781.99355	0.30452
1780.06499	0.30906
1778.13643	0.31341
1776.20786	0.31761
1774.27930	0.32270
1772.35073	0.32946
1770.42217	0.33563
1768.49360	0.34006
1766.56504	0.34448
1764.63647	0.34954
1762.70791	0.35574
1760.77935	0.36355
1758.85078	0.37066
1756.92222	0.37779
1754.99365	0.38544
1753.06509	0.39276
1751.13652	0.40224
1749.20796	0.41383
1747.27939	0.42428
1745.35083	0.43310
1743.42227	0.44250
1741.49370	0.45315
1739.56514	0.46583
1737.63657	0.47834
1735.70801	0.48976
1733.77944	0.50728
1731.85088	0.52701
1729.92231	0.54168
1727.99375	0.55642
1726.06519	0.57278
1724.13662	0.59128
1722.20806	0.61152
1720.27949	0.63089
1718.35093	0.65439
1716.42236	0.68728
1714.49380	0.71648
1712.56523	0.73969
1710.63667	0.76276
1708.70811	0.78833
1706.77954	0.81793
1704.85098	0.85282
1702.92241	0.88381
1700.99385	0.91503
1699.06528	0.96045
1697.13672	1.00088
1695.20815	1.04083
1693.27959	1.07916
1691.35103	1.11035
1689.42246	1.14665
1687.49390	1.18487
1685.56533	1.22234
1683.63677	1.27853
1681.70820	1.33454
1679.77964	1.37039
1677.85107	1.40525
1675.92251	1.44608
1673.99395	1.49559
1672.06538	1.53899
1670.13682	1.58152
1668.20825	1.63419
1666.27969	1.67547
1664.35112	1.71057
1662.42256	1.75391
1660.49399	1.80134
1658.56543	1.83889
1656.63687	1.87044
1654.70830	1.90047
1652.77974	1.95019
1650.85117	2.00001
1648.92261	2.01997
1646.99404	2.04609
1645.06548	2.07999
1643.13691	2.10363
1641.20835	2.11721
1639.27979	2.12879
1637.35122	2.13785
1635.42266	2.14183
1633.49409	2.13783
1631.56553	2.12702
1629.63696	2.11263
1627.70840	2.08920
1625.77983	2.06154
1623.85127	2.02725
1621.92271	1.98550
1619.99414	1.94668
1618.06558	1.90751
1616.13701	1.85258
1614.20845	1.79523
1612.27988	1.74954
1610.35132	1.70243
1608.42275	1.65206
1606.49419	1.60180
1604.56562	1.55474
1602.63706	1.50904
1600.70850	1.46390
1598.77993	1.42182
1596.85137	1.38255
1594.92280	1.34490
1592.99424	1.30833
1591.06567	1.27439
1589.13711	1.24237
1587.20854	1.21213
1585.27998	1.18363
1583.35142	1.15653
1581.42285	1.13140
1579.49429	1.10959
1577.56572	1.08968
1575.63716	1.06450
1573.70859	1.04068
1571.78003	1.02436
1569.85146	1.00728
1567.92290	0.98732
1565.99434	0.97042
1564.06577	0.95570
1562.13721	0.94368
1560.20864	0.93409
1558.28008	0.91624
1556.35151	0.89705
1554.42295	0.88454
1552.49438	0.87279
1550.56582	0.86163
1548.63726	0.85066
1546.70869	0.84149
1544.78013	0.83436
1542.85156	0.82792
1540.92300	0.82021
1538.99443	0.80710
1537.06587	0.79567
1535.13730	0.78874
1533.20874	0.78143
1531.28018	0.77296
1529.35161	0.76636
1527.42305	0.76085
1525.49448	0.75554
1523.56592	0.75108
1521.63735	0.74628
1519.70879	0.73941
1517.78022	0.73292
1515.85166	0.72666
1513.92310	0.72050
1511.99453	0.71593
1510.06597	0.71306
1508.13740	0.71142
1506.20884	0.70660
1504.28027	0.69887
1502.35171	0.69396
1500.42314	0.69093
1498.49458	0.68854
1496.56602	0.68530
1494.63745	0.68112
1492.70889	0.67800
1490.78032	0.67634
1488.85176	0.67425
1486.92319	0.67036
1484.99463	0.66618
1483.06606	0.66300
1481.13750	0.66065
1479.20894	0.65864
1477.28037	0.65699
1475.35181	0.65580
1473.42324	0.65467
1471.49468	0.65184
1469.56611	0.64796
1467.63755	0.64519
1465.70898	0.64347
1463.78042	0.64168
1461.85186	0.63997
1459.92329	0.63958
1457.99473	0.64012
1456.06616	0.63833
1454.13760	0.63428
1452.20903	0.63118
1450.28047	0.62896
1448.35190	0.62708
1446.42334	0.62497
1444.49478	0.62273
1442.56621	0.62084
1440.63765	0.61948
1438.70908	0.61873
1436.78052	0.61814
1434.85195	0.61676
1432.92339	0.61510
1430.99482	0.61388
1429.06626	0.61256
1427.13770	0.61105
1425.20913	0.60997
1423.28057	0.60906
1421.35200	0.60813
1419.42344	0.60763
1417.49487	0.60648
1415.56631	0.60386
1413.63774	0.60128
1411.70918	0.59924
1409.78062	0.59732
1407.85205	0.59555
1405.92349	0.59414
1403.99492	0.59250
1402.06636	0.59074
1400.13779	0.58961
1398.20923	0.58877
1396.28066	0.58775
1394.35210	0.58626
1392.42354	0.58410
1390.49497	0.58222
1388.56641	0.58127
1386.63784	0.58055
1384.70928	0.57922
1382.78071	0.57775
1380.85215	0.57671
1378.92358	0.57611
1376.99502	0.57583
1375.06646	0.57572
1373.13789	0.57527
1371.20933	0.57441
1369.28076	0.57368
1367.35220	0.57294
1365.42363	0.57219
1363.49507	0.57185
1361.56650	0.57115
1359.63794	0.56953
1357.70937	0.56792
1355.78081	0.56666
1353.85225	0.56553
1351.92368	0.56444
1349.99512	0.56326
1348.06655	0.56200
1346.13799	0.56083
1344.20942	0.55985
1342.28086	0.55919
1340.35229	0.55868
1338.42373	0.55775
1336.49517	0.55628
1334.56660	0.55475
1332.63804	0.55350
1330.70947	0.55254
1328.78091	0.55168
1326.85234	0.55083
1324.92378	0.55010
1322.99521	0.54963
1321.06665	0.54928
1319.13809	0.54883
1317.20952	0.54817
1315.28096	0.54738
1313.35239	0.54639
1311.42383	0.54520
1309.49526	0.54399
1307.56670	0.54277
1305.63813	0.54150
1303.70957	0.54023
1301.78101	0.53916
1299.85244	0.53832
1297.92388	0.53748
1295.99531	0.53659
1294.06675	0.53583
1292.13818	0.53521
1290.20962	0.53455
1288.28105	0.53395
1286.35249	0.53354
1284.42393	0.53314
1282.49536	0.53251
1280.56680	0.53176
1278.63823	0.53110
1276.70967	0.53058
1274.78110	0.53010
1272.85254	0.52965
1270.92397	0.52921
1268.99541	0.52865
1267.06685	0.52803
1265.13828	0.52762
1263.20972	0.52743
1261.28115	0.52721
1259.35259	0.52681
1257.42402	0.52637
1255.49546	0.52601
1253.56689	0.52562
1251.63833	0.52513
1249.70977	0.52466
1247.78120	0.52420
1245.85264	0.52370
1243.92407	0.52314
1241.99551	0.52251
1240.06694	0.52190
1238.13838	0.52145
1236.20981	0.52100
1234.28125	0.52042
1232.35269	0.51975
1230.42412	0.51897
1228.49556	0.51807
1226.56699	0.51729
1224.63843	0.51663
1222.70986	0.51579
1220.78130	0.51480
1218.85273	0.51391
1216.92417	0.51315
1214.99561	0.51243
1213.06704	0.51169
1211.13848	0.51105
1209.20991	0.51052
1207.28135	0.50997
1205.35278	0.50948
1203.42422	0.50906
1201.49565	0.50851
1199.56709	0.50794
1197.63853	0.50742
1195.70996	0.50675
1193.78140	0.50591
1191.85283	0.50512
1189.92427	0.50460
1187.99570	0.50430
1186.06714	0.50400
1184.13857	0.50367
1182.21001	0.50345
1180.28145	0.50337
1178.35288	0.50354
1176.42432	0.50401
1174.49575	0.50466
1172.56719	0.50548
1170.63862	0.50637
1168.71006	0.50725
1166.78149	0.50826
1164.85293	0.50940
1162.92437	0.51049
1160.99580	0.51148
1159.06724	0.51218
1157.13867	0.51238
1155.21011	0.51212
1153.28154	0.51133
1151.35298	0.50999
1149.42441	0.50814
1147.49585	0.50593
1145.56729	0.50357
1143.63872	0.50114
1141.71016	0.49888
1139.78159	0.49701
1137.85303	0.49533
1135.92446	0.49394
1133.99590	0.49318
1132.06733	0.49283
1130.13877	0.49244
1128.21021	0.49198
1126.28164	0.49167
1124.35308	0.49155
1122.42451	0.49132
1120.49595	0.49101
1118.56738	0.49093
1116.63882	0.49120
1114.71025	0.49164
1112.78169	0.49212
1110.85312	0.49286
1108.92456	0.49394
1106.99600	0.49507
1105.06743	0.49603
1103.13887	0.49671
1101.21030	0.49727
1099.28174	0.49804
1097.35317	0.49940
1095.42461	0.50185
1093.49604	0.50575
1091.56748	0.51113
1089.63892	0.51809
1087.71035	0.52660
1085.78179	0.53602
1083.85322	0.54536
1081.92466	0.55354
1079.99609	0.55954
1078.06753	0.56248
1076.13896	0.56214
1074.21040	0.55890
1072.28184	0.55329
1070.35327	0.54627
1068.42471	0.53896
1066.49614	0.53199
1064.56758	0.52561
1062.63901	0.52007
1060.71045	0.51554
1058.78188	0.51182
1056.85332	0.50845
1054.92476	0.50535
1052.99619	0.50280
1051.06763	0.50097
1049.13906	0.50008
1047.21050	0.50025
1045.28193	0.50118
1043.35337	0.50245
1041.42480	0.50378
1039.49624	0.50473
1037.56768	0.50514
1035.63911	0.50517
1033.71055	0.50477
1031.78198	0.50387
1029.85342	0.50249
1027.92485	0.50059
1025.99629	0.49847
1024.06772	0.49663
1022.13916	0.49545
1020.21060	0.49483
1018.28203	0.49447
1016.35347	0.49406
1014.42490	0.49349
1012.49634	0.49292
1010.56777	0.49237
1008.63921	0.49204
1006.71064	0.49231
1004.78208	0.49313
1002.85352	0.49448
1000.92495	0.49676
998.99639	0.50005
997.06782	0.50400
995.13926	0.50840
993.21069	0.51274
991.28213	0.51598
989.35356	0.51755
987.42500	0.51780
985.49644	0.51743
983.56787	0.51717
981.63931	0.51748
979.71074	0.51838
977.78218	0.51980
975.85361	0.52186
973.92505	0.52460
971.99648	0.52771
970.06792	0.53086
968.13936	0.53428
966.21079	0.53839
964.28223	0.54306
962.35366	0.54787
960.42510	0.55274
958.49653	0.55793
956.56797	0.56348
954.63940	0.56924
952.71084	0.57526
950.78228	0.58173
948.85371	0.58825
946.92515	0.59446
944.99658	0.60069
943.06802	0.60704
941.13945	0.61307
939.21089	0.61874
937.28232	0.62468
935.35376	0.63075
933.42520	0.63637
931.49663	0.64159
929.56807	0.64680
927.63950	0.65276
925.71094	0.65912
923.78237	0.66469
921.85381	0.67006
919.92524	0.67670
917.99668	0.68426
916.06812	0.69185
914.13955	0.70001
912.21099	0.70847
910.28242	0.71625
908.35386	0.72424
906.42529	0.73336
904.49673	0.74273
902.56816	0.75121
900.63960	0.75922
898.71104	0.76808
896.78247	0.77817
894.85391	0.78880
892.92534	0.79920
890.99678	0.80903
889.06821	0.81850
887.13965	0.82861
885.21108	0.84008
883.28252	0.85216
881.35396	0.86359
879.42539	0.87457
877.49683	0.88662
875.56826	0.89921
873.63970	0.91088
871.71113	0.92311
869.78257	0.93563
867.85400	0.94679
865.92544	0.95759
863.99687	0.96860
862.06831	0.97955
860.13975	0.99032
858.21118	1.00192
856.28262	1.01461
854.35405	1.02609
852.42549	1.03551
850.49692	1.04603
848.56836	1.05931
846.63979	1.07099
844.71123	1.07909
842.78267	1.08758
840.85410	1.09822
838.92554	1.10975
836.99697	1.12069
835.06841	1.13009
833.13984	1.14250
831.21128	1.15717
829.28271	1.16386
827.35415	1.16408
825.42559	1.16481
823.49702	1.16866
821.56846	1.17844
819.63989	1.19479
817.71133	1.21324
815.78276	1.22533
813.85420	1.23178
811.92563	1.24221
809.99707	1.25697
808.06851	1.27113
806.13994	1.28078
804.21138	1.27801
802.28281	1.26924
800.35425	1.26105
798.42568	1.26205
796.49712	1.28737
794.56855	1.31398
792.63999	1.31414
790.71143	1.30645
788.78286	1.31050
786.85430	1.30415
784.92573	1.27030
782.99717	1.23404
781.06860	1.22034
779.14004	1.22908
777.21147	1.22266
775.28291	1.21889
773.35435	1.26316
771.42578	1.31109
769.49722	1.31117
767.56865	1.26672
765.64009	1.20373
763.71152	1.16794
761.78296	1.15999
759.85439	1.17521
757.92583	1.20060
755.99727	1.18918
754.06870	1.13008
752.14014	1.06640
750.21157	1.06301
748.28301	1.10911
746.35444	1.12034
744.42588	1.09814
742.49731	1.06038
740.56875	0.91792
738.64019	0.74142
736.71162	0.65864
734.78306	0.67262
732.85449	0.70893
730.92593	0.66958
728.99736	0.53257
727.06880	0.42499
725.14023	0.41020
723.21167	0.41414
721.28311	0.36403
719.35454	0.34671
717.42598	0.37361
715.49741	0.37730
713.56885	0.37178
711.64028	0.36064
709.71172	0.30472
707.78315	0.26376
705.85459	0.33969
703.92603	0.33099
701.99746	0.20494
700.06890	0.17993
698.14033	0.20518
696.21177	0.14260
694.28320	0.07983
692.35464	0.06579
690.42607	0.11717
688.49751	0.18108
686.56895	0.14715
684.64038	0.12174
682.71182	0.19497
680.78325	0.28254
678.85469	0.27434
676.92612	0.20329
674.99756	0.14991
673.06899	0.12597
671.14043	0.17073
669.21187	0.32372
667.28330	0.37400
665.35474	0.27265
663.42617	0.18621
661.49761	0.13028
659.56904	0.07488
657.64048	0.10020
655.71191	0.23852
653.78335	0.31072
651.85479	0.21690
649.92622	0.15188
647.99766	0.16457
646.06909	0.17909
644.14053	0.14591
642.21196	0.09891
640.28340	0.08557
638.35483	0.12072
636.42627	0.20641
634.49771	0.28837
632.56914	0.29151
630.64058	0.28783
628.71201	0.28402
626.78345	0.24140
624.85488	0.23140
622.92632	0.31923
620.99775	0.40241
619.06919	0.29441
617.14062	0.17938
615.21206	0.14434
613.28350	0.13888
611.35493	0.18741
609.42637	0.30775
607.49780	0.38679
605.56924	0.41494
603.64067	0.37649
601.71211	0.24668
599.78354	0.12653
597.85498	0.08244
595.92642	0.07414
593.99785	0.09520
592.06929	0.15444
590.14072	0.20595
588.21216	0.21051
586.28359	0.20946
584.35503	0.22307
582.42646	0.19766
580.49790	0.19078
578.56934	0.20292
576.64077	0.17366
574.71221	0.16444
572.78364	0.16734
570.85508	0.12718
568.92651	0.11865
566.99795	0.13522
565.06938	0.13643
563.14082	0.14689
561.21226	0.15355
559.28369	0.15138
557.35513	0.17897
555.42656	0.21025
553.49800	0.16526
551.56943	0.10812
549.64087	0.10476
547.71230	0.12765
545.78374	0.13775
543.85518	0.13517
541.92661	0.13508
539.99805	0.14005
538.06948	0.11818
536.14092	0.10487
534.21235	0.17278
532.28379	0.22275
530.35522	0.18347
528.42666	0.15855
526.49810	0.14280
524.56953	0.16187
522.64097	0.24076
520.71240	0.29422
518.78384	0.25458
516.85527	0.15122
514.92671	0.10787
512.99814	0.13463
511.06958	0.15021
509.14102	0.13980
507.21245	0.14258
505.28389	0.16698
503.35532	0.19609
501.42676	0.22528
499.49819	0.21426
