3997.91411	0.06467
3995.98555	0.06501
3994.05698	0.06508
3992.12842	0.06517
3990.19985	0.06580
3988.27129	0.06652
3986.34272	0.06687
3984.41416	0.06704
3982.48560	0.06732
3980.55703	0.06780
3978.62847	0.06806
3976.69990	0.06809
3974.77134	0.06824
3972.84277	0.06822
3970.91421	0.06802
3968.98564	0.06805
3967.05708	0.06826
3965.12852	0.06834
3963.19995	0.06837
3961.27139	0.06853
3959.34282	0.06868
3957.41426	0.06856
3955.48569	0.06824
3953.55713	0.06812
3951.62856	0.06852
3949.70000	0.06920
3947.77144	0.06951
3945.84287	0.06952
3943.91431	0.06978
3941.98574	0.07001
3940.05718	0.06961
3938.12861	0.06885
3936.20005	0.06839
3934.27148	0.06864
3932.34292	0.06945
3930.41436	0.07007
3928.48579	0.07006
3926.55723	0.06969
3924.62866	0.06943
3922.70010	0.06932
3920.77153	0.06889
3918.84297	0.06814
3916.91440	0.06799
3914.98584	0.06848
3913.05728	0.06850
3911.12871	0.06799
3909.20015	0.06761
3907.27158	0.06790
3905.34302	0.06883
3903.41445	0.06987
3901.48589	0.07034
3899.55732	0.07004
3897.62876	0.06963
3895.70020	0.06938
3893.77163	0.06903
3891.84307	0.06877
3889.91450	0.06886
3887.98594	0.06882
3886.05737	0.06863
3884.12881	0.06859
3882.20024	0.06880
3880.27168	0.06919
3878.34312	0.06931
3876.41455	0.06929
3874.48599	0.06974
3872.55742	0.07070
3870.62886	0.07169
3868.70029	0.07219
3866.77173	0.07193
3864.84316	0.07174
3862.91460	0.07206
3860.98604	0.07226
3859.05747	0.07223
3857.12891	0.07242
3855.20034	0.07282
3853.27178	0.07358
3851.34321	0.07477
3849.41465	0.07524
3847.48608	0.07510
3845.55752	0.07505
3843.62896	0.07558
3841.70039	0.07661
3839.77183	0.07763
3837.84326	0.07856
3835.91470	0.07935
3833.98613	0.07979
3832.05757	0.07994
3830.12900	0.08018
3828.20044	0.08067
3826.27187	0.08147
3824.34331	0.08234
3822.41475	0.08335
3820.48618	0.08491
3818.55762	0.08564
3816.62905	0.08546
3814.70049	0.08607
3812.77192	0.08714
3810.84336	0.08777
3808.91479	0.08834
3806.98623	0.08954
3805.05767	0.09120
3803.12910	0.09268
3801.20054	0.09406
3799.27197	0.09510
3797.34341	0.09591
3795.41484	0.09686
3793.48628	0.09735
3791.55771	0.09776
3789.62915	0.09897
3787.70059	0.10072
3785.77202	0.10243
3783.84346	0.10408
3781.91489	0.10562
3779.98633	0.10715
3778.05776	0.10914
3776.12920	0.11104
3774.20063	0.11239
3772.27207	0.11370
3770.34351	0.11566
3768.41494	0.11802
3766.48638	0.11994
3764.55781	0.12184
3762.62925	0.12363
3760.70068	0.12528
3758.77212	0.12747
3756.84355	0.12980
3754.91499	0.13172
3752.98643	0.13422
3751.05786	0.13823
3749.12930	0.14236
3747.20073	0.14441
3745.27217	0.14610
3743.34360	0.14999
3741.41504	0.15477
3739.48647	0.15807
3737.55791	0.16105
3735.62935	0.16514
3733.70078	0.17044
3731.77222	0.17577
3729.84365	0.18065
3727.91509	0.18502
3725.98652	0.18988
3724.05796	0.19556
3722.12939	0.20162
3720.20083	0.20840
3718.27227	0.21577
3716.34370	0.22322
3714.41514	0.23041
3712.48657	0.23892
3710.55801	0.25150
3708.62944	0.26568
3706.70088	0.27763
3704.77231	0.28892
3702.84375	0.30185
3700.91519	0.31826
3698.98662	0.33640
3697.05806	0.35376
3695.12949	0.37174
3693.20093	0.39090
3691.27236	0.41201
3689.34380	0.43882
3687.41523	0.47172
3685.48667	0.50167
3683.55811	0.52797
3681.62954	0.55605
3679.70098	0.58742
3677.77241	0.61999
3675.84385	0.65803
3673.91528	0.70904
3671.98672	0.75217
3670.05815	0.79072
3668.12959	0.84242
3666.20103	0.89045
3664.27246	0.93085
3662.34390	0.97383
3660.41533	1.02028
3658.48677	1.06610
3656.55820	1.11455
3654.62964	1.16811
3652.70107	1.21338
3650.77251	1.25262
3648.84395	1.30534
3646.91538	1.36998
3644.98682	1.42024
3643.05825	1.46046
3641.12969	1.50102
3639.20112	1.54443
3637.27256	1.58790
3635.34399	1.63051
3633.41543	1.67305
3631.48687	1.71310
3629.55830	1.75352
3627.62974	1.80508
3625.70117	1.85376
3623.77261	1.88805
3621.84404	1.92126
3619.91548	1.95897
3617.98691	2.00360
3616.05835	2.04645
3614.12979	2.08272
3612.20122	2.12083
3610.27266	2.15920
3608.34409	2.19789
3606.41553	2.23954
3604.48696	2.27888
3602.55840	2.31395
3600.62983	2.35114
3598.70127	2.39173
3596.77271	2.43238
3594.84414	2.47364
3592.91558	2.51510
3590.98701	2.55324
3589.05845	2.58881
3587.12988	2.63132
3585.20132	2.67857
3583.27275	2.71986
3581.34419	2.75759
3579.41562	2.79635
3577.48706	2.83741
3575.55850	2.87999
3573.62993	2.92349
3571.70137	2.96628
3569.77280	3.00778
3567.84424	3.05033
3565.91567	3.09947
3563.98711	3.14760
3562.05854	3.18948
3560.12998	3.23162
3558.20142	3.27592
3556.27285	3.32181
3554.34429	3.36666
3552.41572	3.41188
3550.48716	3.45987
3548.55859	3.50818
3546.63003	3.55358
3544.70146	3.59847
3542.77290	3.64492
3540.84434	3.69034
3538.91577	3.73471
3536.98721	3.78114
3535.05864	3.83203
3533.13008	3.88257
3531.20151	3.92947
3529.27295	3.97368
3527.34438	4.01823
3525.41582	4.06594
3523.48726	4.11676
3521.55869	4.16820
3519.63013	4.21514
3517.70156	4.25823
3515.77300	4.30234
3513.84443	4.35119
3511.91587	4.40143
3509.98730	4.44806
3508.05874	4.49420
3506.13018	4.54338
3504.20161	4.59178
3502.27305	4.63958
3500.34448	4.68977
3498.41592	4.73564
3496.48735	4.77812
3494.55879	4.82640
3492.63022	4.87751
3490.70166	4.92483
3488.77310	4.97084
3486.84453	5.01884
3484.91597	5.06774
3482.98740	5.11709
3481.05884	5.16970
3479.13027	5.22143
3477.20171	5.26565
3475.27314	5.30544
3473.34458	5.34935
3471.41602	5.39761
3469.48745	5.44397
3467.55889	5.49611
3465.63032	5.55627
3463.70176	5.60686
3461.77319	5.63893
3459.84463	5.67356
3457.91606	5.72986
3455.98750	5.79646
3454.05894	5.85628
3452.13037	5.90991
3450.20181	5.96445
3448.27324	6.01523
3446.34468	6.05916
3444.41611	6.09410
3442.48755	6.12690
3440.55898	6.17205
3438.63042	6.23082
3436.70186	6.29505
3434.77329	6.35140
3432.84473	6.39023
3430.91616	6.42434
3428.98760	6.47311
3427.05903	6.52001
3425.13047	6.55604
3423.20190	6.59527
3421.27334	6.63599
3419.34478	6.68061
3417.41621	6.73901
3415.48765	6.80614
3413.55908	6.86713
3411.63052	6.90793
3409.70195	6.93652
3407.77339	6.97906
3405.84482	7.02768
3403.91626	7.06979
3401.98770	7.10977
3400.05913	7.15608
3398.13057	7.19975
3396.20200	7.23396
3394.27344	7.26784
3392.34487	7.29650
3390.41631	7.34291
3388.48774	7.39949
3386.55918	7.43512
3384.63062	7.43290
3382.70205	7.41542
3380.77349	7.43401
3378.84492	7.48206
3376.91636	7.52595
3374.98779	7.54404
3373.05923	7.55255
3371.13066	7.56567
3369.20210	7.60100
3367.27354	7.64412
3365.34497	7.66164
3363.41641	7.70272
3361.48784	7.78022
3359.55928	7.80186
3357.63071	7.75914
3355.70215	7.75902
3353.77358	7.79863
3351.84502	7.83510
3349.91646	7.86475
3347.98789	7.85115
3346.05933	7.79608
3344.13076	7.76601
3342.20220	7.80823
3340.27363	7.89149
3338.34507	7.93500
3336.41650	7.92431
3334.48794	7.91834
3332.55937	7.91343
3330.63081	7.92990
3328.70225	7.98352
3326.77368	8.00246
3324.84512	7.98307
3322.91655	7.96327
3320.98799	7.93836
3319.05942	7.90566
3317.13086	7.89202
3315.20229	7.92808
3313.27373	7.99408
3311.34517	8.02953
3309.41660	8.06016
3307.48804	8.05201
3305.55947	7.95748
3303.63091	7.93644
3301.70234	8.01552
3299.77378	8.03594
3297.84521	7.99579
3295.91665	8.00202
3293.98809	8.00996
3292.05952	7.98289
3290.13096	7.99924
3288.20239	8.04518
3286.27383	8.03123
3284.34526	7.96751
3282.41670	7.91619
3280.48813	7.89886
3278.55957	7.92901
3276.63101	7.95473
3274.70244	7.94804
3272.77388	7.97507
3270.84531	8.03272
3268.91675	8.07369
3266.98818	8.10908
3265.05962	8.14400
3263.13105	8.15181
3261.20249	8.13240
3259.27393	8.11690
3257.34536	8.16034
3255.41680	8.21474
3253.48823	8.21438
3251.55967	8.19653
3249.63110	8.14570
3247.70254	8.06639
3245.77397	8.03320
3243.84541	8.07125
3241.91685	8.09916
3239.98828	8.02716
3238.05972	7.90053
3236.13115	7.84810
3234.20259	7.89591
3232.27402	7.94542
3230.34546	7.96598
3228.41689	7.99099
3226.48833	7.99610
3224.55977	8.00135
3222.63120	8.01796
3220.70264	7.94775
3218.77407	7.82441
3216.84551	7.78564
3214.91694	7.85771
3212.98838	7.94849
3211.05981	7.94323
3209.13125	7.84549
3207.20269	7.72945
3205.27412	7.66384
3203.34556	7.64079
3201.41699	7.57886
3199.48843	7.49989
3197.55986	7.48768
3195.63130	7.53611
3193.70273	7.60260
3191.77417	7.62619
3189.84561	7.55739
3187.91704	7.46317
3185.98848	7.40859
3184.05991	7.36459
3182.13135	7.28847
3180.20278	7.21376
3178.27422	7.17391
3176.34565	7.11805
3174.41709	7.03365
3172.48853	7.00405
3170.55996	7.04153
3168.63140	7.05055
3166.70283	6.99198
3164.77427	6.91706
3162.84570	6.83942
3160.91714	6.74640
3158.98857	6.66653
3157.06001	6.60334
3155.13145	6.52728
3153.20288	6.45347
3151.27432	6.39929
3149.34575	6.34444
3147.41719	6.28430
3145.48862	6.21805
3143.56006	6.13676
3141.63149	6.06066
3139.70293	5.99552
3137.77437	5.92366
3135.84580	5.84869
3133.91724	5.78183
3131.98867	5.71657
3130.06011	5.64925
3128.13154	5.58279
3126.20298	5.50976
3124.27441	5.43939
3122.34585	5.38024
3120.41729	5.31729
3118.48872	5.24707
3116.56016	5.17672
3114.63159	5.10765
3112.70303	5.03779
3110.77446	4.96226
3108.84590	4.88237
3106.91733	4.80528
3104.98877	4.73266
3103.06021	4.66408
3101.13164	4.60022
3099.20308	4.53853
3097.27451	4.47621
3095.34595	4.41232
3093.41738	4.34600
3091.48882	4.27836
3089.56025	4.21144
3087.63169	4.14782
3085.70312	4.08692
3083.77456	4.02321
3081.84600	3.95814
3079.91743	3.89656
3077.98887	3.83721
3076.06030	3.77734
3074.13174	3.71562
3072.20317	3.65278
3070.27461	3.59215
3068.34604	3.53550
3066.41748	3.47893
3064.48892	3.41920
3062.56035	3.36084
3060.63179	3.30745
3058.70322	3.25444
3056.77466	3.19877
3054.84609	3.14290
3052.91753	3.08875
3050.98896	3.03700
3049.06040	2.98739
3047.13184	2.93864
3045.20327	2.88901
3043.27471	2.83884
3041.34614	2.79051
3039.41758	2.74337
3037.48901	2.69573
3035.56045	2.64834
3033.63188	2.60144
3031.70332	2.55537
3029.77476	2.51132
3027.84619	2.46836
3025.91763	2.42526
3023.98906	2.38236
3022.06050	2.33984
3020.13193	2.29811
3018.20337	2.25769
3016.27480	2.21817
3014.34624	2.17870
3012.41768	2.13939
3010.48911	2.10074
3008.56055	2.06299
3006.63198	2.02635
3004.70342	1.99056
3002.77485	1.95518
3000.84629	1.92051
2998.91772	1.88658
2996.98916	1.85269
2995.06060	1.81909
2993.13203	1.78641
2991.20347	1.75458
2989.27490	1.72341
2987.34634	1.69253
2985.41777	1.66175
2983.48921	1.63157
2981.56064	1.60250
2979.63208	1.57442
2977.70352	1.54663
2975.77495	1.51870
2973.84639	1.49094
2971.91782	1.46383
2969.98926	1.43746
2968.06069	1.41175
2966.13213	1.38653
2964.20356	1.36161
2962.27500	1.33717
2960.34644	1.31313
2958.41787	1.28905
2956.48931	1.26508
2954.56074	1.24185
2952.63218	1.21931
2950.70361	1.19695
2948.77505	1.17461
2946.84648	1.15242
2944.91792	1.13071
2942.98936	1.10994
2941.06079	1.08974
2939.13223	1.06935
2937.20366	1.04911
2935.27510	1.02958
2933.34653	1.01043
2931.41797	0.99121
2929.48940	0.97231
2927.56084	0.95462
2925.63228	0.93771
2923.70371	0.92037
2921.77515	0.90297
2919.84658	0.88633
2917.91802	0.87012
2915.98945	0.85425
2914.06089	0.83888
2912.13232	0.82383
2910.20376	0.80903
2908.27520	0.79441
2906.34663	0.77992
2904.41807	0.76575
2902.48950	0.75206
2900.56094	0.73891
2898.63237	0.72623
2896.70381	0.71381
2894.77524	0.70142
2892.84668	0.68896
2890.91812	0.67669
2888.98955	0.66504
2887.06099	0.65384
2885.13242	0.64271
2883.20386	0.63181
2881.27529	0.62146
2879.34673	0.61151
2877.41816	0.60168
2875.48960	0.59193
2873.56104	0.58225
2871.63247	0.57257
2869.70391	0.56260
2867.77534	0.55218
2865.84678	0.54178
2863.91821	0.53168
2861.98965	0.52181
2860.06108	0.51229
2858.13252	0.50302
2856.20396	0.49394
2854.27539	0.48558
2852.34683	0.47777
2850.41826	0.46993
2848.48970	0.46230
2846.56113	0.45505
2844.63257	0.44811
2842.70400	0.44165
2840.77544	0.43539
2838.84687	0.42898
2836.91831	0.42259
2834.98975	0.41646
2833.06118	0.41050
2831.13262	0.40454
2829.20405	0.39868
2827.27549	0.39293
2825.34692	0.38723
2823.41836	0.38165
2821.48979	0.37621
2819.56123	0.37068
2817.63267	0.36493
2815.70410	0.35928
2813.77554	0.35402
2811.84697	0.34891
2809.91841	0.34358
2807.98984	0.33823
2806.06128	0.33329
2804.13271	0.32865
2802.20415	0.32407
2800.27559	0.31957
2798.34702	0.31513
2796.41846	0.31060
2794.48989	0.30596
2792.56133	0.30146
2790.63276	0.29738
2788.70420	0.29361
2786.77563	0.28982
2784.84707	0.28583
2782.91851	0.28168
2780.98994	0.27762
2779.06138	0.27384
2777.13281	0.27023
2775.20425	0.26670
2773.27568	0.26326
2771.34712	0.25973
2769.41855	0.25622
2767.48999	0.25299
2765.56143	0.24988
2763.63286	0.24661
2761.70430	0.24334
2759.77573	0.24037
2757.84717	0.23757
2755.91860	0.23477
2753.99004	0.23202
2752.06147	0.22932
2750.13291	0.22656
2748.20435	0.22376
2746.27578	0.22111
2744.34722	0.21870
2742.41865	0.21636
2740.49009	0.21394
2738.56152	0.21141
2736.63296	0.20894
2734.70439	0.20669
2732.77583	0.20458
2730.84727	0.20238
2728.91870	0.20008
2726.99014	0.19786
2725.06157	0.19574
2723.13301	0.19377
2721.20444	0.19198
2719.27588	0.19025
2717.34731	0.18846
2715.41875	0.18674
2713.49019	0.18516
2711.56162	0.18352
2709.63306	0.18180
2707.70449	0.18027
2705.77593	0.17885
2703.84736	0.17727
2701.91880	0.17573
2699.99023	0.17441
2698.06167	0.17304
2696.13311	0.17142
2694.20454	0.16992
2692.27598	0.16880
2690.34741	0.16775
2688.41885	0.16659
2686.49028	0.16541
2684.56172	0.16418
2682.63315	0.16295
2680.70459	0.16179
2678.77603	0.16066
2676.84746	0.15960
2674.91890	0.15873
2672.99033	0.15800
2671.06177	0.15727
2669.13320	0.15653
2667.20464	0.15569
2665.27607	0.15472
2663.34751	0.15381
2661.41895	0.15313
2659.49038	0.15257
2657.56182	0.15192
2655.63325	0.15110
2653.70469	0.15025
2651.77612	0.14966
2649.84756	0.14936
2647.91899	0.14903
2645.99043	0.14861
2644.06187	0.14823
2642.13330	0.14782
2640.20474	0.14732
2638.27617	0.14670
2636.34761	0.14605
2634.41904	0.14561
2632.49048	0.14537
2630.56191	0.14513
2628.63335	0.14488
2626.70479	0.14466
2624.77622	0.14438
2622.84766	0.14405
2620.91909	0.14389
2618.99053	0.14397
2617.06196	0.14394
2615.13340	0.14370
2613.20483	0.14341
2611.27627	0.14322
2609.34771	0.14325
2607.41914	0.14344
2605.49058	0.14361
2603.56201	0.14372
2601.63345	0.14379
2599.70488	0.14381
2597.77632	0.14377
2595.84775	0.14384
2593.91919	0.14411
2591.99062	0.14435
2590.06206	0.14452
2588.13350	0.14483
2586.20493	0.14516
2584.27637	0.14529
2582.34780	0.14523
2580.41924	0.14534
2578.49067	0.14580
2576.56211	0.14639
2574.63354	0.14677
2572.70498	0.14703
2570.77642	0.14746
2568.84785	0.14797
2566.91929	0.14832
2564.99072	0.14869
2563.06216	0.14918
2561.13359	0.14964
2559.20503	0.15011
2557.27646	0.15060
2555.34790	0.15116
2553.41934	0.15172
2551.49077	0.15220
2549.56221	0.15280
2547.63364	0.15346
2545.70508	0.15398
2543.77651	0.15451
2541.84795	0.15520
2539.91938	0.15599
2537.99082	0.15677
2536.06226	0.15749
2534.13369	0.15819
2532.20513	0.15901
2530.27656	0.15982
2528.34800	0.16051
2526.41943	0.16115
2524.49087	0.16189
2522.56230	0.16274
2520.63374	0.16358
2518.70518	0.16431
2516.77661	0.16506
2514.84805	0.16592
2512.91948	0.16685
2510.99092	0.16776
2509.06235	0.16865
2507.13379	0.16952
2505.20522	0.17035
2503.27666	0.17116
2501.34810	0.17200
2499.41953	0.17279
2497.49097	0.17353
2495.56240	0.17436
2493.63384	0.17536
2491.70527	0.17633
2489.77671	0.17719
2487.84814	0.17807
2485.91958	0.17898
2483.99102	0.17975
2482.06245	0.18049
2480.13389	0.18141
2478.20532	0.18244
2476.27676	0.18343
2474.34819	0.18441
2472.41963	0.18540
2470.49106	0.18636
2468.56250	0.18723
2466.63394	0.18818
2464.70537	0.18932
2462.77681	0.19042
2460.84824	0.19135
2458.91968	0.19227
2456.99111	0.19317
2455.06255	0.19406
2453.13398	0.19510
2451.20542	0.19613
2449.27686	0.19703
2447.34829	0.19801
2445.41973	0.19921
2443.49116	0.20049
2441.56260	0.20160
2439.63403	0.20253
2437.70547	0.20346
2435.77690	0.20449
2433.84834	0.20559
2431.91978	0.20667
2429.99121	0.20777
2428.06265	0.20883
2426.13408	0.20987
2424.20552	0.21105
2422.27695	0.21230
2420.34839	0.21345
2418.41982	0.21460
2416.49126	0.21576
2414.56270	0.21688
2412.63413	0.21796
2410.70557	0.21908
2408.77700	0.22024
2406.84844	0.22139
2404.91987	0.22252
2402.99131	0.22375
2401.06274	0.22507
2399.13418	0.22634
2397.20562	0.22761
2395.27705	0.22892
2393.34849	0.23015
2391.41992	0.23137
2389.49136	0.23273
2387.56279	0.23426
2385.63423	0.23610
2383.70566	0.23847
2381.77710	0.24129
2379.84854	0.24443
2377.91997	0.24804
2375.99141	0.25210
2374.06284	0.25626
2372.13428	0.26035
2370.20571	0.26484
2368.27715	0.26977
2366.34858	0.27407
2364.42002	0.27726
2362.49146	0.28036
2360.56289	0.28377
2358.63433	0.28686
2356.70576	0.28848
2354.77720	0.28722
2352.84863	0.28366
2350.92007	0.28006
2348.99150	0.27839
2347.06294	0.27939
2345.13437	0.28324
2343.20581	0.28847
2341.27725	0.29185
2339.34868	0.29286
2337.42012	0.29369
2335.49155	0.29527
2333.56299	0.29666
2331.63442	0.29734
2329.70586	0.29757
2327.77729	0.29821
2325.84873	0.29927
2323.92017	0.30014
2321.99160	0.30074
2320.06304	0.30101
2318.13447	0.30094
2316.20591	0.30114
2314.27734	0.30215
2312.34878	0.30347
2310.42021	0.30438
2308.49165	0.30495
2306.56309	0.30575
2304.63452	0.30694
2302.70596	0.30831
2300.77739	0.30959
2298.84883	0.31068
2296.92026	0.31192
2294.99170	0.31354
2293.06313	0.31530
2291.13457	0.31683
2289.20601	0.31814
2287.27744	0.31947
2285.34888	0.32107
2283.42031	0.32291
2281.49175	0.32483
2279.56318	0.32681
2277.63462	0.32897
2275.70605	0.33123
2273.77749	0.33337
2271.84893	0.33538
2269.92036	0.33741
2267.99180	0.33954
2266.06323	0.34174
2264.13467	0.34394
2262.20610	0.34601
2260.27754	0.34794
2258.34897	0.34987
2256.42041	0.35191
2254.49185	0.35411
2252.56328	0.35640
2250.63472	0.35865
2248.70615	0.36090
2246.77759	0.36315
2244.84902	0.36525
2242.92046	0.36725
2240.99189	0.36937
2239.06333	0.37151
2237.13477	0.37355
2235.20620	0.37566
2233.27764	0.37793
2231.34907	0.38025
2229.42051	0.38251
2227.49194	0.38468
2225.56338	0.38686
2223.63481	0.38910
2221.70625	0.39138
2219.77769	0.39368
2217.84912	0.39599
2215.92056	0.39826
2213.99199	0.40032
2212.06343	0.40230
2210.13486	0.40446
2208.20630	0.40668
2206.27773	0.40875
2204.34917	0.41079
2202.42061	0.41295
2200.49204	0.41506
2198.56348	0.41706
2196.63491	0.41902
2194.70635	0.42092
2192.77778	0.42278
2190.84922	0.42467
2188.92065	0.42651
2186.99209	0.42833
2185.06353	0.43020
2183.13496	0.43196
2181.20640	0.43356
2179.27783	0.43518
2177.34927	0.43685
2175.42070	0.43850
2173.49214	0.44007
2171.56357	0.44152
2169.63501	0.44294
2167.70645	0.44431
2165.77788	0.44554
2163.84932	0.44674
2161.92075	0.44792
2159.99219	0.44897
2158.06362	0.44996
2156.13506	0.45089
2154.20649	0.45171
2152.27793	0.45251
2150.34937	0.45333
2148.42080	0.45408
2146.49224	0.45467
2144.56367	0.45504
2142.63511	0.45524
2140.70654	0.45547
2138.77798	0.45578
2136.84941	0.45601
2134.92085	0.45614
2132.99229	0.45614
2131.06372	0.45604
2129.13516	0.45592
2127.20659	0.45563
2125.27803	0.45511
2123.34946	0.45455
2121.42090	0.45400
2119.49233	0.45334
2117.56377	0.45262
2115.63521	0.45197
2113.70664	0.45133
2111.77808	0.45056
2109.84951	0.44959
2107.92095	0.44837
2105.99238	0.44706
2104.06382	0.44580
2102.13525	0.44457
2100.20669	0.44334
2098.27812	0.44203
2096.34956	0.44059
2094.42100	0.43901
2092.49243	0.43731
2090.56387	0.43560
2088.63530	0.43386
2086.70674	0.43199
2084.77817	0.43001
2082.84961	0.42807
2080.92104	0.42616
2078.99248	0.42415
2077.06392	0.42202
2075.13535	0.41982
2073.20679	0.41755
2071.27822	0.41523
2069.34966	0.41295
2067.42109	0.41078
2065.49253	0.40864
2063.56396	0.40634
2061.63540	0.40384
2059.70684	0.40126
2057.77827	0.39873
2055.84971	0.39616
2053.92114	0.39351
2051.99258	0.39090
2050.06401	0.38833
2048.13545	0.38581
2046.20688	0.38319
2044.27832	0.38041
2042.34976	0.37766
2040.42119	0.37499
2038.49263	0.37221
2036.56406	0.36936
2034.63550	0.36653
2032.70693	0.36378
2030.77837	0.36102
2028.84980	0.35809
2026.92124	0.35515
2024.99268	0.35228
2023.06411	0.34945
2021.13555	0.34673
2019.20698	0.34411
2017.27842	0.34144
2015.34985	0.33872
2013.42129	0.33603
2011.49272	0.33327
2009.56416	0.33049
2007.63560	0.32790
2005.70703	0.32531
2003.77847	0.32254
2001.84990	0.31977
1999.92134	0.31717
1997.99277	0.31464
1996.06421	0.31215
1994.13564	0.30971
1992.20708	0.30719
1990.27852	0.30449
1988.34995	0.30186
1986.42139	0.29942
1984.49282	0.29703
1982.56426	0.29460
1980.63569	0.29225
1978.70713	0.28998
1976.77856	0.28772
1974.85000	0.28550
1972.92144	0.28331
1970.99287	0.28123
1969.06431	0.27929
1967.13574	0.27732
1965.20718	0.27523
1963.27861	0.27321
1961.35005	0.27137
1959.42148	0.26959
1957.49292	0.26779
1955.56436	0.26600
1953.63579	0.26423
1951.70723	0.26250
1949.77866	0.26091
1947.85010	0.25931
1945.92153	0.25772
1943.99297	0.25635
1942.06440	0.25502
1940.13584	0.25349
1938.20728	0.25204
1936.27871	0.25067
1934.35015	0.24921
1932.42158	0.24788
1930.49302	0.24678
1928.56445	0.24579
1926.63589	0.24474
1924.70732	0.24368
1922.77876	0.24259
1920.85020	0.24159
1918.92163	0.24087
1916.99307	0.24015
1915.06450	0.23920
1913.13594	0.23826
1911.20737	0.23750
1909.27881	0.23678
1907.35024	0.23613
1905.42168	0.23553
1903.49312	0.23489
1901.56455	0.23429
1899.63599	0.23386
1897.70742	0.23354
1895.77886	0.23318
1893.85029	0.23276
1891.92173	0.23236
1889.99316	0.23216
1888.06460	0.23196
1886.13604	0.23167
1884.20747	0.23141
1882.27891	0.23122
1880.35034	0.23113
1878.42178	0.23103
1876.49321	0.23094
1874.56465	0.23100
1872.63608	0.23124
1870.70752	0.23153
1868.77896	0.23198
1866.85039	0.23228
1864.92183	0.23224
1862.99326	0.23228
1861.06470	0.23250
1859.13613	0.23283
1857.20757	0.23324
1855.27900	0.23374
1853.35044	0.23421
1851.42187	0.23473
1849.49331	0.23533
1847.56475	0.23602
1845.63618	0.23687
1843.70762	0.23784
1841.77905	0.23859
1839.85049	0.23906
1837.92192	0.23982
1835.99336	0.24074
1834.06479	0.24168
1832.13623	0.24271
1830.20767	0.24419
1828.27910	0.24573
1826.35054	0.24678
1824.42197	0.24795
1822.49341	0.24925
1820.56484	0.25053
1818.63628	0.25189
1816.70771	0.25352
1814.77915	0.25519
1812.85059	0.25688
1810.92202	0.25884
1808.99346	0.26094
1807.06489	0.26292
1805.13633	0.26477
1803.20776	0.26692
1801.27920	0.26943
1799.35063	0.27230
1797.42207	0.27498
1795.49351	0.27750
1793.56494	0.28036
1791.63638	0.28390
1789.70781	0.28732
1787.77925	0.29000
1785.85068	0.29319
1783.92212	0.29699
1781.99355	0.30098
1780.06499	0.30513
1778.13643	0.30942
1776.20786	0.31349
1774.27930	0.31782
1772.35073	0.32361
1770.42217	0.32982
1768.49360	0.33512
1766.56504	0.34034
1764.63647	0.34578
1762.70791	0.35173
1760.77935	0.35928
1758.85078	0.36653
1756.92222	0.37375
1754.99365	0.38158
1753.06509	0.38881
1751.13652	0.39733
1749.20796	0.40780
1747.27939	0.41810
1745.35083	0.42733
1743.42227	0.43713
1741.49370	0.44798
1739.56514	0.46081
1737.63657	0.47366
1735.70801	0.48483
1733.77944	0.50102
1731.85088	0.52036
1729.92231	0.53612
1727.99375	0.55206
1726.06519	0.56912
1724.13662	0.58762
1722.20806	0.60741
1720.27949	0.62574
1718.35093	0.64731
1716.42236	0.67868
1714.49380	0.70871
1712.56523	0.73363
1710.63667	0.75783
1708.70811	0.78358
1706.77954	0.81263
1704.85098	0.84710
1702.92241	0.87804
1700.99385	0.90869
1699.06528	0.95354
1697.13672	0.99463
1695.20815	1.03667
1693.27959	1.07819
1691.35103	1.11178
1689.42246	1.14974
1687.49390	1.18947
1685.56533	1.22814
1683.63677	1.28636
1681.70820	1.34555
1679.77964	1.38379
1677.85107	1.42073
1675.92251	1.46386
1673.99395	1.51670
1672.06538	1.56347
1670.13682	1.60844
1668.20825	1.66557
1666.27969	1.71289
1664.35112	1.75283
1662.42256	1.80135
1660.49399	1.85527
1658.56543	1.89750
1656.63687	1.93131
1654.70830	1.96176
1652.77974	2.01196
1650.85117	2.06595
1648.92261	2.08902
1646.99404	2.11456
1645.06548	2.14340
1643.13691	2.16300
1641.20835	2.17465
1639.27979	2.18554
1637.35122	2.19299
1635.42266	2.19230
1633.49409	2.18428
1631.56553	2.17199
1629.63696	2.15629
1627.70840	2.13158
1625.77983	2.10298
1623.85127	2.06528
1621.92271	2.01900
1619.99414	1.97852
1618.06558	1.93857
1616.13701	1.88097
1614.20845	1.82063
1612.27988	1.77355
1610.35132	1.72492
1608.42275	1.67219
1606.49419	1.62012
1604.56562	1.57187
1602.63706	1.52480
1600.70850	1.47855
1598.77993	1.43577
1596.85137	1.39516
1594.92280	1.35558
1592.99424	1.31795
1591.06567	1.28380
1589.13711	1.25149
1587.20854	1.22104
1585.27998	1.19289
1583.35142	1.16642
1581.42285	1.14171
1579.49429	1.12004
1577.56572	1.10005
1575.63716	1.07595
1573.70859	1.05501
1571.78003	1.04111
1569.85146	1.02622
1567.92290	1.00959
1565.99434	0.99660
1564.06577	0.98568
1562.13721	0.97631
1560.20864	0.96816
1558.28008	0.95617
1556.35151	0.94642
1554.42295	0.94005
1552.49438	0.93322
1550.56582	0.92599
1548.63726	0.91801
1546.70869	0.91006
1544.78013	0.90154
1542.85156	0.89157
1540.92300	0.87927
1538.99443	0.86268
1537.06587	0.84994
1535.13730	0.84090
1533.20874	0.82996
1531.28018	0.81842
1529.35161	0.80958
1527.42305	0.80125
1525.49448	0.79263
1523.56592	0.78476
1521.63735	0.77697
1519.70879	0.76917
1517.78022	0.76225
1515.85166	0.75456
1513.92310	0.74713
1511.99453	0.74101
1510.06597	0.73534
1508.13740	0.72946
1506.20884	0.72113
1504.28027	0.71408
1502.35171	0.70961
1500.42314	0.70542
1498.49458	0.70109
1496.56602	0.69618
1494.63745	0.69120
1492.70889	0.68724
1490.78032	0.68378
1488.85176	0.67964
1486.92319	0.67543
1484.99463	0.67194
1483.06606	0.66892
1481.13750	0.66603
1479.20894	0.66333
1477.28037	0.66111
1475.35181	0.65924
1473.42324	0.65739
1471.49468	0.65479
1469.56611	0.65186
1467.63755	0.64934
1465.70898	0.64729
1463.78042	0.64542
1461.85186	0.64357
1459.92329	0.64201
1457.99473	0.64069
1456.06616	0.63920
1454.13760	0.63735
1452.20903	0.63546
1450.28047	0.63343
1448.35190	0.63136
1446.42334	0.62934
1444.49478	0.62735
1442.56621	0.62536
1440.63765	0.62345
1438.70908	0.62169
1436.78052	0.61983
1434.85195	0.61772
1432.92339	0.61560
1430.99482	0.61372
1429.06626	0.61221
1427.13770	0.61115
1425.20913	0.61037
1423.28057	0.60954
1421.35200	0.60858
1419.42344	0.60774
1417.49487	0.60678
1415.56631	0.60547
1413.63774	0.60430
1411.70918	0.60344
1409.78062	0.60280
1407.85205	0.60226
1405.92349	0.60194
1403.99492	0.60171
1402.06636	0.60111
1400.13779	0.60013
1398.20923	0.59884
1396.28066	0.59717
1394.35210	0.59507
1392.42354	0.59283
1390.49497	0.59066
1388.56641	0.58846
1386.63784	0.58606
1384.70928	0.58346
1382.78071	0.58093
1380.85215	0.57870
1378.92358	0.57683
1376.99502	0.57529
1375.06646	0.57405
1373.13789	0.57285
1371.20933	0.57164
1369.28076	0.57052
1367.35220	0.56938
1365.42363	0.56810
1363.49507	0.56688
1361.56650	0.56592
1359.63794	0.56501
1357.70937	0.56399
1355.78081	0.56293
1353.85225	0.56198
1351.92368	0.56116
1349.99512	0.56043
1348.06655	0.55977
1346.13799	0.55905
1344.20942	0.55821
1342.28086	0.55743
1340.35229	0.55679
1338.42373	0.55597
1336.49517	0.55494
1334.56660	0.55407
1332.63804	0.55343
1330.70947	0.55294
1328.78091	0.55256
1326.85234	0.55227
1324.92378	0.55202
1322.99521	0.55169
1321.06665	0.55122
1319.13809	0.55077
1317.20952	0.55030
1315.28096	0.54971
1313.35239	0.54916
1311.42383	0.54874
1309.49526	0.54820
1307.56670	0.54744
1305.63813	0.54673
1303.70957	0.54624
1301.78101	0.54576
1299.85244	0.54502
1297.92388	0.54406
1295.99531	0.54307
1294.06675	0.54223
1292.13818	0.54153
1290.20962	0.54082
1288.28105	0.54011
1286.35249	0.53951
1284.42393	0.53894
1282.49536	0.53824
1280.56680	0.53751
1278.63823	0.53686
1276.70967	0.53624
1274.78110	0.53553
1272.85254	0.53470
1270.92397	0.53388
1268.99541	0.53316
1267.06685	0.53263
1265.13828	0.53233
1263.20972	0.53208
1261.28115	0.53158
1259.35259	0.53094
1257.42402	0.53048
1255.49546	0.53023
1253.56689	0.53003
1251.63833	0.52976
1249.70977	0.52948
1247.78120	0.52919
1245.85264	0.52886
1243.92407	0.52849
1241.99551	0.52798
1240.06694	0.52720
1238.13838	0.52625
1236.20981	0.52527
1234.28125	0.52426
1232.35269	0.52317
1230.42412	0.52210
1228.49556	0.52121
1226.56699	0.52030
1224.63843	0.51923
1222.70986	0.51826
1220.78130	0.51752
1218.85273	0.51682
1216.92417	0.51598
1214.99561	0.51508
1213.06704	0.51427
1211.13848	0.51359
1209.20991	0.51298
1207.28135	0.51244
1205.35278	0.51183
1203.42422	0.51104
1201.49565	0.51023
1199.56709	0.50958
1197.63853	0.50909
1195.70996	0.50868
1193.78140	0.50818
1191.85283	0.50766
1189.92427	0.50736
1187.99570	0.50710
1186.06714	0.50675
1184.13857	0.50663
1182.21001	0.50680
1180.28145	0.50714
1178.35288	0.50765
1176.42432	0.50829
1174.49575	0.50888
1172.56719	0.50930
1170.63862	0.50955
1168.71006	0.50962
1166.78149	0.50961
1164.85293	0.50969
1162.92437	0.50974
1160.99580	0.50956
1159.06724	0.50916
1157.13867	0.50850
1155.21011	0.50752
1153.28154	0.50625
1151.35298	0.50469
1149.42441	0.50290
1147.49585	0.50112
1145.56729	0.49930
1143.63872	0.49722
1141.71016	0.49485
1139.78159	0.49243
1137.85303	0.49036
1135.92446	0.48867
1133.99590	0.48708
1132.06733	0.48552
1130.13877	0.48416
1128.21021	0.48290
1126.28164	0.48160
1124.35308	0.48033
1122.42451	0.47912
1120.49595	0.47813
1118.56738	0.47742
1116.63882	0.47700
1114.71025	0.47697
1112.78169	0.47720
1110.85312	0.47763
1108.92456	0.47821
1106.99600	0.47893
1105.06743	0.48007
1103.13887	0.48169
1101.21030	0.48365
1099.28174	0.48600
1097.35317	0.48873
1095.42461	0.49182
1093.49604	0.49527
1091.56748	0.49912
1089.63892	0.50377
1087.71035	0.50918
1085.78179	0.51499
1083.85322	0.52122
1081.92466	0.52771
1079.99609	0.53375
1078.06753	0.53794
1076.13896	0.53909
1074.21040	0.53735
1072.28184	0.53341
1070.35327	0.52781
1068.42471	0.52138
1066.49614	0.51475
1064.56758	0.50826
1062.63901	0.50233
1060.71045	0.49700
1058.78188	0.49220
1056.85332	0.48809
1054.92476	0.48472
1052.99619	0.48188
1051.06763	0.47927
1049.13906	0.47684
1047.21050	0.47468
1045.28193	0.47287
1043.35337	0.47148
1041.42480	0.47037
1039.49624	0.46939
1037.56768	0.46895
1035.63911	0.46901
1033.71055	0.46887
1031.78198	0.46845
1029.85342	0.46822
1027.92485	0.46840
1025.99629	0.46895
1024.06772	0.46955
1022.13916	0.47001
1020.21060	0.47062
1018.28203	0.47153
1016.35347	0.47257
1014.42490	0.47364
1012.49634	0.47483
1010.56777	0.47628
1008.63921	0.47802
1006.71064	0.47992
1004.78208	0.48194
1002.85352	0.48429
1000.92495	0.48709
998.99639	0.49027
997.06782	0.49389
995.13926	0.49789
993.21069	0.50176
991.28213	0.50515
989.35356	0.50780
987.42500	0.50948
985.49644	0.51038
983.56787	0.51114
981.63931	0.51225
979.71074	0.51385
977.78218	0.51593
975.85361	0.51832
973.92505	0.52099
971.99648	0.52421
970.06792	0.52801
968.13936	0.53203
966.21079	0.53617
964.28223	0.54050
962.35366	0.54513
960.42510	0.55021
958.49653	0.55568
956.56797	0.56138
954.63940	0.56732
952.71084	0.57355
950.78228	0.58021
948.85371	0.58690
946.92515	0.59297
944.99658	0.59872
943.06802	0.60469
941.13945	0.61088
939.21089	0.61711
937.28232	0.62293
935.35376	0.62833
933.42520	0.63381
931.49663	0.63928
929.56807	0.64451
927.63950	0.64992
925.71094	0.65574
923.78237	0.66173
921.85381	0.66786
919.92524	0.67468
917.99668	0.68257
916.06812	0.69053
914.13955	0.69755
912.21099	0.70424
910.28242	0.71194
908.35386	0.72076
906.42529	0.72971
904.49673	0.73883
902.56816	0.74838
900.63960	0.75733
898.71104	0.76558
896.78247	0.77428
894.85391	0.78365
892.92534	0.79371
890.99678	0.80457
889.06821	0.81576
887.13965	0.82719
885.21108	0.83919
883.28252	0.85072
881.35396	0.86086
879.42539	0.87150
877.49683	0.88405
875.56826	0.89705
873.63970	0.90861
871.71113	0.91878
869.78257	0.92889
867.85400	0.93926
865.92544	0.94956
863.99687	0.96048
862.06831	0.97297
860.13975	0.98567
858.21118	0.99697
856.28262	1.00605
854.35405	1.01318
852.42549	1.02282
850.49692	1.03730
848.56836	1.05226
846.63979	1.06520
844.71123	1.07738
842.78267	1.08833
840.85410	1.09688
838.92554	1.10348
836.99697	1.11090
835.06841	1.11985
833.13984	1.12944
831.21128	1.14184
829.28271	1.15341
827.35415	1.15721
825.42559	1.15791
823.49702	1.16493
821.56846	1.18073
819.63989	1.19918
817.71133	1.21040
815.78276	1.21454
813.85420	1.21727
811.92563	1.22174
809.99707	1.22942
808.06851	1.23524
806.13994	1.24173
804.21138	1.25529
802.28281	1.27183
800.35425	1.27820
798.42568	1.25730
796.49712	1.21309
794.56855	1.17645
792.63999	1.16637
790.71143	1.16506
788.78286	1.16293
786.85430	1.18113
784.92573	1.22086
782.99717	1.23114
781.06860	1.18146
779.14004	1.13667
777.21147	1.13461
775.28291	1.15354
773.35435	1.15646
771.42578	1.12144
769.49722	1.07528
767.56865	1.05038
765.64009	1.04372
763.71152	1.04728
761.78296	1.06117
759.85439	1.07978
757.92583	1.07525
755.99727	1.01193
754.06870	0.95222
752.14014	0.95931
750.21157	0.95478
748.28301	0.85904
746.35444	0.77894
744.42588	0.75642
742.49731	0.72616
740.56875	0.65801
738.64019	0.61443
736.71162	0.60041
734.78306	0.54902
732.85449	0.47378
730.92593	0.46356
728.99736	0.51519
727.06880	0.39491
725.14023	0.13062
723.21167	-0.06747
721.28311	-0.17178
719.35454	-0.20413
717.42598	-0.24105
715.49741	-0.23915
713.56885	-0.12859
711.64028	-0.01240
709.71172	0.07163
707.78315	0.01684
705.85459	-0.10000
703.92603	-0.12644
701.99746	-0.03605
700.06890	0.05706
698.14033	0.13885
696.21177	0.19984
694.28320	0.18198
692.35464	0.12480
690.42607	0.09363
688.49751	0.09879
686.56895	0.09925
684.64038	0.06813
682.71182	0.03846
680.78325	0.05956
678.85469	0.11519
676.92612	0.15138
674.99756	0.12667
673.06899	0.10824
671.14043	0.12915
669.21187	0.15432
667.28330	0.12526
665.35474	0.06792
663.42617	0.06508
661.49761	0.10550
659.56904	0.12196
657.64048	0.11632
655.71191	0.10798
653.78335	0.08444
651.85479	0.04003
649.92622	-0.02711
647.99766	-0.03817
646.06909	0.02605
644.14053	0.07218
642.21196	0.07474
640.28340	0.12638
638.35483	0.22385
636.42627	0.21379
634.49771	0.10056
632.56914	0.03463
630.64058	0.02364
628.71201	0.04038
626.78345	0.06190
624.85488	0.05848
622.92632	0.05648
620.99775	0.10196
619.06919	0.15442
617.14062	0.14596
615.21206	0.10632
613.28350	0.09231
611.35493	0.09286
609.42637	0.08876
607.49780	0.09420
605.56924	0.12154
603.64067	0.12658
601.71211	0.08183
599.78354	0.03813
597.85498	0.04000
595.92642	0.07268
593.99785	0.09711
592.06929	0.10730
590.14072	0.12509
588.21216	0.14150
586.28359	0.12622
584.35503	0.07555
582.42646	0.04235
580.49790	0.05297
578.56934	0.07261
576.64077	0.10672
574.71221	0.14530
572.78364	0.15342
570.85508	0.16460
568.92651	0.14969
566.99795	0.05091
565.06938	-0.03154
563.14082	-0.01501
561.21226	0.05954
559.28369	0.11926
557.35513	0.11445
555.42656	0.06422
553.49800	0.04909
551.56943	0.08989
549.64087	0.12722
547.71230	0.13283
545.78374	0.12327
543.85518	0.10228
541.92661	0.06553
539.99805	0.04720
538.06948	0.07972
536.14092	0.14985
534.21235	0.17331
532.28379	0.11887
530.35522	0.08827
528.42666	0.14433
526.49810	0.25445
524.56953	0.25438
522.64097	0.17209
520.71240	0.12110
518.78384	0.11201
516.85527	0.13894
514.92671	0.17556
512.99814	0.17806
511.06958	0.12970
509.14102	0.07664
507.21245	0.05331
505.28389	0.06081
503.35532	0.09063
501.42676	0.15977
499.49819	0.22195
