3997.91411	0.07500
3995.98555	0.07507
3994.05698	0.07522
3992.12842	0.07566
3990.19985	0.07599
3988.27129	0.07611
3986.34272	0.07642
3984.41416	0.07706
3982.48560	0.07751
3980.55703	0.07741
3978.62847	0.07723
3976.69990	0.07728
3974.77134	0.07750
3972.84277	0.07794
3970.91421	0.07826
3968.98564	0.07813
3967.05708	0.07782
3965.12852	0.07776
3963.19995	0.07793
3961.27139	0.07810
3959.34282	0.07827
3957.41426	0.07844
3955.48569	0.07867
3953.55713	0.07880
3951.62856	0.07860
3949.70000	0.07849
3947.77144	0.07871
3945.84287	0.07862
3943.91431	0.07827
3941.98574	0.07838
3940.05718	0.07878
3938.12861	0.07883
3936.20005	0.07841
3934.27148	0.07810
3932.34292	0.07844
3930.41436	0.07888
3928.48579	0.07870
3926.55723	0.07848
3924.62866	0.07879
3922.70010	0.07914
3920.77153	0.07906
3918.84297	0.07858
3916.91440	0.07809
3914.98584	0.07789
3913.05728	0.07756
3911.12871	0.07707
3909.20015	0.07697
3907.27158	0.07748
3905.34302	0.07836
3903.41445	0.07915
3901.48589	0.07949
3899.55732	0.07962
3897.62876	0.07899
3895.70020	0.07778
3893.77163	0.07741
3891.84307	0.07808
3889.91450	0.07848
3887.98594	0.07801
3886.05737	0.07801
3884.12881	0.07889
3882.20024	0.07942
3880.27168	0.07937
3878.34312	0.07880
3876.41455	0.07812
3874.48599	0.07848
3872.55742	0.07972
3870.62886	0.08072
3868.70029	0.08104
3866.77173	0.08077
3864.84316	0.08075
3862.91460	0.08120
3860.98604	0.08128
3859.05747	0.08095
3857.12891	0.08075
3855.20034	0.08144
3853.27178	0.08405
3851.34321	0.08616
3849.41465	0.08502
3847.48608	0.08369
3845.55752	0.08326
3843.62896	0.08364
3841.70039	0.08476
3839.77183	0.08634
3837.84326	0.08803
3835.91470	0.08878
3833.98613	0.08841
3832.05757	0.08819
3830.12900	0.08843
3828.20044	0.08877
3826.27187	0.08948
3824.34331	0.09037
3822.41475	0.09107
3820.48618	0.09231
3818.55762	0.09347
3816.62905	0.09412
3814.70049	0.09507
3812.77192	0.09549
3810.84336	0.09546
3808.91479	0.09633
3806.98623	0.09845
3805.05767	0.10020
3803.12910	0.10100
3801.20054	0.10261
3799.27197	0.10416
3797.34341	0.10459
3795.41484	0.10525
3793.48628	0.10583
3791.55771	0.10628
3789.62915	0.10729
3787.70059	0.10879
3785.77202	0.11052
3783.84346	0.11209
3781.91489	0.11328
3779.98633	0.11470
3778.05776	0.11658
3776.12920	0.11795
3774.20063	0.11889
3772.27207	0.12012
3770.34351	0.12205
3768.41494	0.12453
3766.48638	0.12661
3764.55781	0.12853
3762.62925	0.13038
3760.70068	0.13212
3758.77212	0.13433
3756.84355	0.13669
3754.91499	0.13862
3752.98643	0.14072
3751.05786	0.14442
3749.12930	0.14957
3747.20073	0.15262
3745.27217	0.15424
3743.34360	0.15708
3741.41504	0.16001
3739.48647	0.16193
3737.55791	0.16430
3735.62935	0.16853
3733.70078	0.17424
3731.77222	0.17911
3729.84365	0.18282
3727.91509	0.18612
3725.98652	0.19032
3724.05796	0.19617
3722.12939	0.20328
3720.20083	0.21092
3718.27227	0.21830
3716.34370	0.22560
3714.41514	0.23324
3712.48657	0.24244
3710.55801	0.25473
3708.62944	0.26750
3706.70088	0.27844
3704.77231	0.28939
3702.84375	0.30229
3700.91519	0.31873
3698.98662	0.33676
3697.05806	0.35415
3695.12949	0.37214
3693.20093	0.39099
3691.27236	0.41212
3689.34380	0.43955
3687.41523	0.47272
3685.48667	0.50231
3683.55811	0.52807
3681.62954	0.55568
3679.70098	0.58685
3677.77241	0.61982
3675.84385	0.65876
3673.91528	0.70943
3671.98672	0.75082
3670.05815	0.78840
3668.12959	0.83995
3666.20103	0.88779
3664.27246	0.92805
3662.34390	0.97106
3660.41533	1.01722
3658.48677	1.06215
3656.55820	1.10969
3654.62964	1.16277
3652.70107	1.20803
3650.77251	1.24824
3648.84395	1.30253
3646.91538	1.36753
3644.98682	1.41657
3643.05825	1.45471
3641.12969	1.49348
3639.20112	1.53620
3637.27256	1.57962
3635.34399	1.62245
3633.41543	1.66549
3631.48687	1.70561
3629.55830	1.74581
3627.62974	1.79824
3625.70117	1.84835
3623.77261	1.88269
3621.84404	1.91477
3619.91548	1.95169
3617.98691	1.99605
3616.05835	2.03837
3614.12979	2.07495
3612.20122	2.11443
3610.27266	2.15399
3608.34409	2.19326
3606.41553	2.23565
3604.48696	2.27570
3602.55840	2.30997
3600.62983	2.34586
3598.70127	2.38701
3596.77271	2.42859
3594.84414	2.46969
3592.91558	2.51164
3590.98701	2.55092
3589.05845	2.58736
3587.12988	2.63073
3585.20132	2.67797
3583.27275	2.71876
3581.34419	2.75732
3579.41562	2.79794
3577.48706	2.84031
3575.55850	2.88357
3573.62993	2.92747
3571.70137	2.96949
3569.77280	3.01044
3567.84424	3.05521
3565.91567	3.10826
3563.98711	3.15760
3562.05854	3.19767
3560.12998	3.23832
3558.20142	3.28112
3556.27285	3.32395
3554.34429	3.36749
3552.41572	3.41378
3550.48716	3.46030
3548.55859	3.50600
3546.63003	3.55307
3544.70146	3.60119
3542.77290	3.64925
3540.84434	3.69794
3538.91577	3.74534
3536.98721	3.78956
3535.05864	3.83542
3533.13008	3.88520
3531.20151	3.93653
3529.27295	3.98568
3527.34438	4.03302
3525.41582	4.08060
3523.48726	4.12793
3521.55869	4.17566
3519.63013	4.22398
3517.70156	4.27294
3515.77300	4.32063
3513.84443	4.36848
3511.91587	4.41798
3509.98730	4.46798
3508.05874	4.51853
3506.13018	4.56718
3504.20161	4.61311
3502.27305	4.65903
3500.34448	4.70541
3498.41592	4.75390
3496.48735	4.80751
3494.55879	4.86082
3492.63022	4.90836
3490.70166	4.95072
3488.77310	4.98994
3486.84453	5.03376
3484.91597	5.08636
3482.98740	5.13858
3481.05884	5.18247
3479.13027	5.22060
3477.20171	5.26334
3475.27314	5.31833
3473.34458	5.37827
3471.41602	5.42821
3469.48745	5.47082
3467.55889	5.52258
3465.63032	5.58248
3463.70176	5.63496
3461.77319	5.67665
3459.84463	5.72409
3457.91606	5.78466
3455.98750	5.84829
3454.05894	5.90745
3452.13037	5.95671
3450.20181	5.99610
3448.27324	6.03234
3446.34468	6.07499
3444.41611	6.12683
3442.48755	6.18105
3440.55898	6.23263
3438.63042	6.28184
3436.70186	6.32788
3434.77329	6.38014
3432.84473	6.44129
3430.91616	6.49262
3428.98760	6.53391
3427.05903	6.57663
3425.13047	6.62777
3423.20190	6.68547
3421.27334	6.74513
3419.34478	6.80226
3417.41621	6.84851
3415.48765	6.88352
3413.55908	6.93079
3411.63052	7.00685
3409.70195	7.07693
3407.77339	7.11505
3405.84482	7.12916
3403.91626	7.14427
3401.98770	7.17890
3400.05913	7.22764
3398.13057	7.26032
3396.20200	7.27659
3394.27344	7.30706
3392.34487	7.35830
3390.41631	7.43227
3388.48774	7.47766
3386.55918	7.49840
3384.63062	7.54511
3382.70205	7.59521
3380.77349	7.63895
3378.84492	7.68373
3376.91636	7.71572
3374.98779	7.74362
3373.05923	7.80137
3371.13066	7.86808
3369.20210	7.91308
3367.27354	7.90996
3365.34497	7.86971
3363.41641	7.84940
3361.48784	7.86463
3359.55928	7.90153
3357.63071	7.94185
3355.70215	7.97914
3353.77358	8.00386
3351.84502	8.02617
3349.91646	8.05235
3347.98789	8.08579
3346.05933	8.09148
3344.13076	8.07069
3342.20220	8.07004
3340.27363	8.04234
3338.34507	8.00635
3336.41650	8.03102
3334.48794	8.08866
3332.55937	8.10779
3330.63081	8.10586
3328.70225	8.10032
3326.77368	8.10476
3324.84512	8.15758
3322.91655	8.18093
3320.98799	8.14531
3319.05942	8.12619
3317.13086	8.10987
3315.20229	8.06545
3313.27373	8.11304
3311.34517	8.30331
3309.41660	8.46137
3307.48804	8.44533
3305.55947	8.37764
3303.63091	8.37962
3301.70234	8.40147
3299.77378	8.42389
3297.84521	8.41311
3295.91665	8.35554
3293.98809	8.37005
3292.05952	8.45114
3290.13096	8.45600
3288.20239	8.42047
3286.27383	8.45882
3284.34526	8.51006
3282.41670	8.52302
3280.48813	8.52563
3278.55957	8.50985
3276.63101	8.48092
3274.70244	8.47868
3272.77388	8.46871
3270.84531	8.46457
3268.91675	8.52718
3266.98818	8.53465
3265.05962	8.45175
3263.13105	8.43658
3261.20249	8.50419
3259.27393	8.50352
3257.34536	8.43962
3255.41680	8.43959
3253.48823	8.46388
3251.55967	8.47608
3249.63110	8.51387
3247.70254	8.50282
3245.77397	8.42427
3243.84541	8.39636
3241.91685	8.45802
3239.98828	8.52647
3238.05972	8.47768
3236.13115	8.34261
3234.20259	8.24410
3232.27402	8.19068
3230.34546	8.16277
3228.41689	8.20864
3226.48833	8.32031
3224.55977	8.34858
3222.63120	8.25861
3220.70264	8.20367
3218.77407	8.24147
3216.84551	8.25903
3214.91694	8.19858
3212.98838	8.13941
3211.05981	8.12805
3209.13125	8.16889
3207.20269	8.19823
3205.27412	8.12649
3203.34556	7.99082
3201.41699	7.87117
3199.48843	7.81323
3197.55986	7.83675
3195.63130	7.86201
3193.70273	7.79100
3191.77417	7.67409
3189.84561	7.58141
3187.91704	7.55514
3185.98848	7.61833
3184.05991	7.64481
3182.13135	7.52619
3180.20278	7.40182
3178.27422	7.36529
3176.34565	7.36224
3174.41709	7.32889
3172.48853	7.24768
3170.55996	7.15203
3168.63140	7.09625
3166.70283	7.05827
3164.77427	6.97958
3162.84570	6.87918
3160.91714	6.79660
3158.98857	6.73590
3157.06001	6.67590
3155.13145	6.59923
3153.20288	6.51498
3151.27432	6.44674
3149.34575	6.40887
3147.41719	6.38293
3145.48862	6.32978
3143.56006	6.24919
3141.63149	6.17870
3139.70293	6.11318
3137.77437	6.03137
3135.84580	5.94543
3133.91724	5.86355
3131.98867	5.78542
3130.06011	5.71687
3128.13154	5.65631
3126.20298	5.59140
3124.27441	5.51767
3122.34585	5.44361
3120.41729	5.37341
3118.48872	5.30051
3116.56016	5.22514
3114.63159	5.15535
3112.70303	5.08989
3110.77446	5.01689
3108.84590	4.93142
3106.91733	4.84978
3104.98877	4.78665
3103.06021	4.73029
3101.13164	4.66311
3099.20308	4.59040
3097.27451	4.52337
3095.34595	4.45805
3093.41738	4.39021
3091.48882	4.32404
3089.56025	4.26077
3087.63169	4.19807
3085.70312	4.13661
3083.77456	4.07650
3081.84600	4.01575
3079.91743	3.95358
3077.98887	3.89231
3076.06030	3.83345
3074.13174	3.77437
3072.20317	3.71378
3070.27461	3.65434
3068.34604	3.59830
3066.41748	3.54377
3064.48892	3.48794
3062.56035	3.43115
3060.63179	3.37555
3058.70322	3.32164
3056.77466	3.26802
3054.84609	3.21350
3052.91753	3.15959
3050.98896	3.10811
3049.06040	3.05773
3047.13184	3.00771
3045.20327	2.95865
3043.27471	2.90995
3041.34614	2.86099
3039.41758	2.81197
3037.48901	2.76331
3035.56045	2.71577
3033.63188	2.66977
3031.70332	2.62467
3029.77476	2.58058
3027.84619	2.53780
3025.91763	2.49470
3023.98906	2.45077
3022.06050	2.40748
3020.13193	2.36497
3018.20337	2.32288
3016.27480	2.28229
3014.34624	2.24377
3012.41768	2.20578
3010.48911	2.16673
3008.56055	2.12774
3006.63198	2.09025
3004.70342	2.05407
3002.77485	2.01883
3000.84629	1.98396
2998.91772	1.94940
2996.98916	1.91602
2995.06060	1.88388
2993.13203	1.85246
2991.20347	1.82169
2989.27490	1.79157
2987.34634	1.76212
2985.41777	1.73366
2983.48921	1.70631
2981.56064	1.67928
2979.63208	1.65197
2977.70352	1.62509
2975.77495	1.59942
2973.84639	1.57505
2971.91782	1.55151
2969.98926	1.52802
2968.06069	1.50425
2966.13213	1.48046
2964.20356	1.45703
2962.27500	1.43404
2960.34644	1.41115
2958.41787	1.38803
2956.48931	1.36472
2954.56074	1.34116
2952.63218	1.31728
2950.70361	1.29344
2948.77505	1.26992
2946.84648	1.24669
2944.91792	1.22442
2942.98936	1.20377
2941.06079	1.18414
2939.13223	1.16486
2937.20366	1.14593
2935.27510	1.12719
2933.34653	1.10852
2931.41797	1.08994
2929.48940	1.07132
2927.56084	1.05269
2925.63228	1.03403
2923.70371	1.01535
2921.77515	0.99693
2919.84658	0.97873
2917.91802	0.96057
2915.98945	0.94235
2914.06089	0.92393
2912.13232	0.90582
2910.20376	0.88868
2908.27520	0.87230
2906.34663	0.85656
2904.41807	0.84142
2902.48950	0.82642
2900.56094	0.81173
2898.63237	0.79772
2896.70381	0.78394
2894.77524	0.77027
2892.84668	0.75709
2890.91812	0.74433
2888.98955	0.73200
2887.06099	0.72039
2885.13242	0.70966
2883.20386	0.69958
2881.27529	0.69000
2879.34673	0.68063
2877.41816	0.67106
2875.48960	0.66135
2873.56104	0.65173
2871.63247	0.64168
2869.70391	0.63077
2867.77534	0.61937
2865.84678	0.60752
2863.91821	0.59544
2861.98965	0.58395
2860.06108	0.57322
2858.13252	0.56314
2856.20396	0.55363
2854.27539	0.54428
2852.34683	0.53502
2850.41826	0.52583
2848.48970	0.51644
2846.56113	0.50717
2844.63257	0.49839
2842.70400	0.49029
2840.77544	0.48301
2838.84687	0.47618
2836.91831	0.46967
2834.98975	0.46336
2833.06118	0.45697
2831.13262	0.45066
2829.20405	0.44464
2827.27549	0.43862
2825.34692	0.43239
2823.41836	0.42603
2821.48979	0.41967
2819.56123	0.41364
2817.63267	0.40791
2815.70410	0.40206
2813.77554	0.39609
2811.84697	0.39033
2809.91841	0.38490
2807.98984	0.37977
2806.06128	0.37464
2804.13271	0.36937
2802.20415	0.36417
2800.27559	0.35917
2798.34702	0.35430
2796.41846	0.34949
2794.48989	0.34467
2792.56133	0.33992
2790.63276	0.33527
2788.70420	0.33059
2786.77563	0.32596
2784.84707	0.32163
2782.91851	0.31739
2780.98994	0.31305
2779.06138	0.30879
2777.13281	0.30474
2775.20425	0.30088
2773.27568	0.29714
2771.34712	0.29345
2769.41855	0.28981
2767.48999	0.28614
2765.56143	0.28246
2763.63286	0.27888
2761.70430	0.27537
2759.77573	0.27198
2757.84717	0.26871
2755.91860	0.26536
2753.99004	0.26207
2752.06147	0.25904
2750.13291	0.25623
2748.20435	0.25341
2746.27578	0.25042
2744.34722	0.24735
2742.41865	0.24441
2740.49009	0.24170
2738.56152	0.23914
2736.63296	0.23652
2734.70439	0.23387
2732.77583	0.23153
2730.84727	0.22935
2728.91870	0.22698
2726.99014	0.22450
2725.06157	0.22218
2723.13301	0.22002
2721.20444	0.21786
2719.27588	0.21581
2717.34731	0.21384
2715.41875	0.21185
2713.49019	0.20986
2711.56162	0.20798
2709.63306	0.20622
2707.70449	0.20452
2705.77593	0.20280
2703.84736	0.20103
2701.91880	0.19935
2699.99023	0.19789
2698.06167	0.19652
2696.13311	0.19512
2694.20454	0.19368
2692.27598	0.19228
2690.34741	0.19093
2688.41885	0.18959
2686.49028	0.18837
2684.56172	0.18735
2682.63315	0.18630
2680.70459	0.18504
2678.77603	0.18365
2676.84746	0.18236
2674.91890	0.18127
2672.99033	0.18025
2671.06177	0.17923
2669.13320	0.17817
2667.20464	0.17705
2665.27607	0.17602
2663.34751	0.17524
2661.41895	0.17456
2659.49038	0.17373
2657.56182	0.17284
2655.63325	0.17202
2653.70469	0.17118
2651.77612	0.17027
2649.84756	0.16949
2647.91899	0.16897
2645.99043	0.16853
2644.06187	0.16787
2642.13330	0.16710
2640.20474	0.16656
2638.27617	0.16611
2636.34761	0.16554
2634.41904	0.16493
2632.49048	0.16442
2630.56191	0.16396
2628.63335	0.16350
2626.70479	0.16315
2624.77622	0.16294
2622.84766	0.16273
2620.91909	0.16230
2618.99053	0.16178
2617.06196	0.16147
2615.13340	0.16140
2613.20483	0.16132
2611.27627	0.16118
2609.34771	0.16107
2607.41914	0.16104
2605.49058	0.16105
2603.56201	0.16094
2601.63345	0.16069
2599.70488	0.16043
2597.77632	0.16036
2595.84775	0.16054
2593.91919	0.16077
2591.99062	0.16087
2590.06206	0.16087
2588.13350	0.16087
2586.20493	0.16093
2584.27637	0.16100
2582.34780	0.16105
2580.41924	0.16128
2578.49067	0.16159
2576.56211	0.16181
2574.63354	0.16203
2572.70498	0.16233
2570.77642	0.16268
2568.84785	0.16311
2566.91929	0.16355
2564.99072	0.16388
2563.06216	0.16414
2561.13359	0.16448
2559.20503	0.16492
2557.27646	0.16534
2555.34790	0.16572
2553.41934	0.16614
2551.49077	0.16671
2549.56221	0.16730
2547.63364	0.16772
2545.70508	0.16810
2543.77651	0.16866
2541.84795	0.16930
2539.91938	0.16988
2537.99082	0.17045
2536.06226	0.17105
2534.13369	0.17169
2532.20513	0.17228
2530.27656	0.17281
2528.34800	0.17343
2526.41943	0.17419
2524.49087	0.17497
2522.56230	0.17574
2520.63374	0.17653
2518.70518	0.17726
2516.77661	0.17796
2514.84805	0.17870
2512.91948	0.17937
2510.99092	0.18005
2509.06235	0.18086
2507.13379	0.18167
2505.20522	0.18232
2503.27666	0.18285
2501.34810	0.18342
2499.41953	0.18421
2497.49097	0.18522
2495.56240	0.18617
2493.63384	0.18701
2491.70527	0.18786
2489.77671	0.18873
2487.84814	0.18959
2485.91958	0.19042
2483.99102	0.19127
2482.06245	0.19216
2480.13389	0.19296
2478.20532	0.19372
2476.27676	0.19452
2474.34819	0.19532
2472.41963	0.19613
2470.49106	0.19696
2468.56250	0.19794
2466.63394	0.19901
2464.70537	0.19990
2462.77681	0.20066
2460.84824	0.20146
2458.91968	0.20220
2456.99111	0.20295
2455.06255	0.20388
2453.13398	0.20488
2451.20542	0.20596
2449.27686	0.20711
2447.34829	0.20808
2445.41973	0.20890
2443.49116	0.20983
2441.56260	0.21093
2439.63403	0.21203
2437.70547	0.21303
2435.77690	0.21399
2433.84834	0.21477
2431.91978	0.21545
2429.99121	0.21642
2428.06265	0.21765
2426.13408	0.21886
2424.20552	0.21995
2422.27695	0.22104
2420.34839	0.22221
2418.41982	0.22336
2416.49126	0.22436
2414.56270	0.22530
2412.63413	0.22632
2410.70557	0.22745
2408.77700	0.22876
2406.84844	0.23017
2404.91987	0.23140
2402.99131	0.23244
2401.06274	0.23343
2399.13418	0.23443
2397.20562	0.23556
2395.27705	0.23678
2393.34849	0.23806
2391.41992	0.23937
2389.49136	0.24050
2387.56279	0.24145
2385.63423	0.24232
2383.70566	0.24284
2381.77710	0.24282
2379.84854	0.24249
2377.91997	0.24217
2375.99141	0.24163
2374.06284	0.24041
2372.13428	0.23870
2370.20571	0.23730
2368.27715	0.23662
2366.34858	0.23608
2364.42002	0.23500
2362.49146	0.23467
2360.56289	0.23618
2358.63433	0.23791
2356.70576	0.24006
2354.77720	0.24400
2352.84863	0.24916
2350.92007	0.25411
2348.99150	0.25711
2347.06294	0.25773
2345.13437	0.25683
2343.20581	0.25609
2341.27725	0.25686
2339.34868	0.25886
2337.42012	0.26094
2335.49155	0.26278
2333.56299	0.26475
2331.63442	0.26691
2329.70586	0.26924
2327.77729	0.27164
2325.84873	0.27412
2323.92017	0.27701
2321.99160	0.28028
2320.06304	0.28347
2318.13447	0.28649
2316.20591	0.28931
2314.27734	0.29180
2312.34878	0.29405
2310.42021	0.29628
2308.49165	0.29862
2306.56309	0.30107
2304.63452	0.30368
2302.70596	0.30627
2300.77739	0.30857
2298.84883	0.31063
2296.92026	0.31277
2294.99170	0.31509
2293.06313	0.31743
2291.13457	0.31966
2289.20601	0.32192
2287.27744	0.32422
2285.34888	0.32645
2283.42031	0.32854
2281.49175	0.33049
2279.56318	0.33241
2277.63462	0.33436
2275.70605	0.33642
2273.77749	0.33857
2271.84893	0.34061
2269.92036	0.34256
2267.99180	0.34464
2266.06323	0.34681
2264.13467	0.34893
2262.20610	0.35111
2260.27754	0.35339
2258.34897	0.35561
2256.42041	0.35771
2254.49185	0.35986
2252.56328	0.36217
2250.63472	0.36452
2248.70615	0.36684
2246.77759	0.36903
2244.84902	0.37111
2242.92046	0.37322
2240.99189	0.37550
2239.06333	0.37786
2237.13477	0.38015
2235.20620	0.38231
2233.27764	0.38446
2231.34907	0.38667
2229.42051	0.38891
2227.49194	0.39112
2225.56338	0.39327
2223.63481	0.39546
2221.70625	0.39775
2219.77769	0.40013
2217.84912	0.40250
2215.92056	0.40468
2213.99199	0.40660
2212.06343	0.40858
2210.13486	0.41077
2208.20630	0.41294
2206.27773	0.41507
2204.34917	0.41724
2202.42061	0.41928
2200.49204	0.42125
2198.56348	0.42333
2196.63491	0.42540
2194.70635	0.42732
2192.77778	0.42911
2190.84922	0.43085
2188.92065	0.43265
2186.99209	0.43448
2185.06353	0.43624
2183.13496	0.43793
2181.20640	0.43964
2179.27783	0.44138
2177.34927	0.44303
2175.42070	0.44452
2173.49214	0.44595
2171.56357	0.44742
2169.63501	0.44883
2167.70645	0.45016
2165.77788	0.45142
2163.84932	0.45253
2161.92075	0.45352
2159.99219	0.45450
2158.06362	0.45548
2156.13506	0.45643
2154.20649	0.45724
2152.27793	0.45795
2150.34937	0.45861
2148.42080	0.45927
2146.49224	0.45987
2144.56367	0.46028
2142.63511	0.46060
2140.70654	0.46090
2138.77798	0.46111
2136.84941	0.46124
2134.92085	0.46133
2132.99229	0.46136
2131.06372	0.46124
2129.13516	0.46091
2127.20659	0.46048
2125.27803	0.46002
2123.34946	0.45953
2121.42090	0.45909
2119.49233	0.45860
2117.56377	0.45795
2115.63521	0.45711
2113.70664	0.45618
2111.77808	0.45523
2109.84951	0.45427
2107.92095	0.45328
2105.99238	0.45211
2104.06382	0.45081
2102.13525	0.44944
2100.20669	0.44793
2098.27812	0.44642
2096.34956	0.44500
2094.42100	0.44343
2092.49243	0.44173
2090.56387	0.44004
2088.63530	0.43818
2086.70674	0.43623
2084.77817	0.43432
2082.84961	0.43240
2080.92104	0.43037
2078.99248	0.42829
2077.06392	0.42617
2075.13535	0.42393
2073.20679	0.42163
2071.27822	0.41934
2069.34966	0.41707
2067.42109	0.41480
2065.49253	0.41250
2063.56396	0.41008
2061.63540	0.40753
2059.70684	0.40493
2057.77827	0.40236
2055.84971	0.39984
2053.92114	0.39720
2051.99258	0.39443
2050.06401	0.39168
2048.13545	0.38907
2046.20688	0.38648
2044.27832	0.38381
2042.34976	0.38111
2040.42119	0.37839
2038.49263	0.37564
2036.56406	0.37288
2034.63550	0.37011
2032.70693	0.36730
2030.77837	0.36445
2028.84980	0.36164
2026.92124	0.35893
2024.99268	0.35622
2023.06411	0.35344
2021.13555	0.35059
2019.20698	0.34772
2017.27842	0.34485
2015.34985	0.34206
2013.42129	0.33937
2011.49272	0.33667
2009.56416	0.33398
2007.63560	0.33126
2005.70703	0.32856
2003.77847	0.32590
2001.84990	0.32320
1999.92134	0.32050
1997.99277	0.31790
1996.06421	0.31540
1994.13564	0.31297
1992.20708	0.31046
1990.27852	0.30779
1988.34995	0.30516
1986.42139	0.30266
1984.49282	0.30024
1982.56426	0.29791
1980.63569	0.29563
1978.70713	0.29334
1976.77856	0.29105
1974.85000	0.28888
1972.92144	0.28680
1970.99287	0.28475
1969.06431	0.28276
1967.13574	0.28082
1965.20718	0.27886
1963.27861	0.27685
1961.35005	0.27480
1959.42148	0.27289
1957.49292	0.27123
1955.56436	0.26960
1953.63579	0.26783
1951.70723	0.26601
1949.77866	0.26427
1947.85010	0.26267
1945.92153	0.26131
1943.99297	0.26011
1942.06440	0.25877
1940.13584	0.25715
1938.20728	0.25546
1936.27871	0.25393
1934.35015	0.25258
1932.42158	0.25135
1930.49302	0.25021
1928.56445	0.24917
1926.63589	0.24813
1924.70732	0.24719
1922.77876	0.24638
1920.85020	0.24551
1918.92163	0.24456
1916.99307	0.24358
1915.06450	0.24261
1913.13594	0.24177
1911.20737	0.24104
1909.27881	0.24036
1907.35024	0.23980
1905.42168	0.23929
1903.49312	0.23874
1901.56455	0.23825
1899.63599	0.23783
1897.70742	0.23742
1895.77886	0.23704
1893.85029	0.23667
1891.92173	0.23623
1889.99316	0.23590
1888.06460	0.23559
1886.13604	0.23525
1884.20747	0.23501
1882.27891	0.23486
1880.35034	0.23477
1878.42178	0.23471
1876.49321	0.23473
1874.56465	0.23481
1872.63608	0.23497
1870.70752	0.23529
1868.77896	0.23580
1866.85039	0.23605
1864.92183	0.23593
1862.99326	0.23588
1861.06470	0.23604
1859.13613	0.23638
1857.20757	0.23680
1855.27900	0.23730
1853.35044	0.23776
1851.42187	0.23826
1849.49331	0.23882
1847.56475	0.23957
1845.63618	0.24056
1843.70762	0.24162
1841.77905	0.24233
1839.85049	0.24276
1837.92192	0.24348
1835.99336	0.24437
1834.06479	0.24534
1832.13623	0.24634
1830.20767	0.24769
1828.27910	0.24921
1826.35054	0.25040
1824.42197	0.25168
1822.49341	0.25297
1820.56484	0.25420
1818.63628	0.25558
1816.70771	0.25724
1814.77915	0.25889
1812.85059	0.26066
1810.92202	0.26273
1808.99346	0.26475
1807.06489	0.26660
1805.13633	0.26847
1803.20776	0.27067
1801.27920	0.27314
1799.35063	0.27583
1797.42207	0.27830
1795.49351	0.28076
1793.56494	0.28372
1791.63638	0.28742
1789.70781	0.29084
1787.77925	0.29345
1785.85068	0.29650
1783.92212	0.30015
1781.99355	0.30416
1780.06499	0.30834
1778.13643	0.31257
1776.20786	0.31663
1774.27930	0.32103
1772.35073	0.32680
1770.42217	0.33295
1768.49360	0.33825
1766.56504	0.34345
1764.63647	0.34887
1762.70791	0.35481
1760.77935	0.36219
1758.85078	0.36914
1756.92222	0.37617
1754.99365	0.38395
1753.06509	0.39117
1751.13652	0.39959
1749.20796	0.40998
1747.27939	0.42037
1745.35083	0.42969
1743.42227	0.43940
1741.49370	0.44994
1739.56514	0.46227
1737.63657	0.47465
1735.70801	0.48562
1733.77944	0.50187
1731.85088	0.52114
1729.92231	0.53652
1727.99375	0.55216
1726.06519	0.56923
1724.13662	0.58782
1722.20806	0.60762
1720.27949	0.62602
1718.35093	0.64769
1716.42236	0.67896
1714.49380	0.70884
1712.56523	0.73374
1710.63667	0.75812
1708.70811	0.78433
1706.77954	0.81400
1704.85098	0.84916
1702.92241	0.88076
1700.99385	0.91249
1699.06528	0.95923
1697.13672	1.00264
1695.20815	1.04763
1693.27959	1.09223
1691.35103	1.12909
1689.42246	1.17140
1687.49390	1.21569
1685.56533	1.25905
1683.63677	1.32495
1681.70820	1.39253
1679.77964	1.43698
1677.85107	1.47985
1675.92251	1.52907
1673.99395	1.58931
1672.06538	1.64398
1670.13682	1.69846
1668.20825	1.76785
1666.27969	1.82579
1664.35112	1.87722
1662.42256	1.94240
1660.49399	2.01563
1658.56543	2.07392
1656.63687	2.12164
1654.70830	2.16428
1652.77974	2.22318
1650.85117	2.27690
1648.92261	2.29762
1646.99404	2.32207
1645.06548	2.34466
1643.13691	2.35695
1641.20835	2.36368
1639.27979	2.37117
1637.35122	2.37344
1635.42266	2.36660
1633.49409	2.35491
1631.56553	2.33916
1629.63696	2.31941
1627.70840	2.28837
1625.77983	2.25246
1623.85127	2.20698
1621.92271	2.15068
1619.99414	2.10025
1618.06558	2.05238
1616.13701	1.98742
1614.20845	1.92123
1612.27988	1.86865
1610.35132	1.81375
1608.42275	1.75629
1606.49419	1.70122
1604.56562	1.65033
1602.63706	1.60101
1600.70850	1.55309
1598.77993	1.50909
1596.85137	1.46790
1594.92280	1.42814
1592.99424	1.39001
1591.06567	1.35544
1589.13711	1.32384
1587.20854	1.29517
1585.27998	1.26894
1583.35142	1.24450
1581.42285	1.22235
1579.49429	1.20364
1577.56572	1.18752
1575.63716	1.16994
1573.70859	1.15521
1571.78003	1.14568
1569.85146	1.13687
1567.92290	1.12835
1565.99434	1.12280
1564.06577	1.11975
1562.13721	1.11833
1560.20864	1.11972
1558.28008	1.12805
1556.35151	1.13629
1554.42295	1.14041
1552.49438	1.14477
1550.56582	1.14744
1548.63726	1.14650
1546.70869	1.14175
1544.78013	1.13301
1542.85156	1.12039
1540.92300	1.10128
1538.99443	1.07051
1537.06587	1.04629
1535.13730	1.02917
1533.20874	1.00683
1531.28018	0.98295
1529.35161	0.96519
1527.42305	0.94867
1525.49448	0.93202
1523.56592	0.91810
1521.63735	0.90536
1519.70879	0.89282
1517.78022	0.88190
1515.85166	0.86884
1513.92310	0.85471
1511.99453	0.84206
1510.06597	0.83046
1508.13740	0.81930
1506.20884	0.80325
1504.28027	0.78873
1502.35171	0.78022
1500.42314	0.77302
1498.49458	0.76544
1496.56602	0.75666
1494.63745	0.74786
1492.70889	0.74091
1490.78032	0.73494
1488.85176	0.72839
1486.92319	0.72218
1484.99463	0.71731
1483.06606	0.71374
1481.13750	0.71099
1479.20894	0.70890
1477.28037	0.70779
1475.35181	0.70771
1473.42324	0.70836
1471.49468	0.70858
1469.56611	0.70739
1467.63755	0.70545
1465.70898	0.70376
1463.78042	0.70275
1461.85186	0.70232
1459.92329	0.70259
1457.99473	0.70380
1456.06616	0.70427
1454.13760	0.70198
1452.20903	0.69907
1450.28047	0.69635
1448.35190	0.69370
1446.42334	0.69076
1444.49478	0.68775
1442.56621	0.68488
1440.63765	0.68203
1438.70908	0.67909
1436.78052	0.67527
1434.85195	0.67084
1432.92339	0.66747
1430.99482	0.66537
1429.06626	0.66428
1427.13770	0.66410
1425.20913	0.66473
1423.28057	0.66585
1421.35200	0.66685
1419.42344	0.66762
1417.49487	0.66784
1415.56631	0.66727
1413.63774	0.66686
1411.70918	0.66722
1409.78062	0.66852
1407.85205	0.67034
1405.92349	0.67244
1403.99492	0.67451
1402.06636	0.67551
1400.13779	0.67527
1398.20923	0.67398
1396.28066	0.67136
1394.35210	0.66706
1392.42354	0.66194
1390.49497	0.65713
1388.56641	0.65220
1386.63784	0.64647
1384.70928	0.64059
1382.78071	0.63508
1380.85215	0.62991
1378.92358	0.62547
1376.99502	0.62200
1375.06646	0.61940
1373.13789	0.61755
1371.20933	0.61636
1369.28076	0.61541
1367.35220	0.61413
1365.42363	0.61243
1363.49507	0.61075
1361.56650	0.60917
1359.63794	0.60749
1357.70937	0.60585
1355.78081	0.60439
1353.85225	0.60326
1351.92368	0.60255
1349.99512	0.60205
1348.06655	0.60152
1346.13799	0.60080
1344.20942	0.59992
1342.28086	0.59911
1340.35229	0.59856
1338.42373	0.59804
1336.49517	0.59746
1334.56660	0.59708
1332.63804	0.59702
1330.70947	0.59733
1328.78091	0.59801
1326.85234	0.59890
1324.92378	0.59989
1322.99521	0.60102
1321.06665	0.60215
1319.13809	0.60313
1317.20952	0.60371
1315.28096	0.60382
1313.35239	0.60362
1311.42383	0.60313
1309.49526	0.60247
1307.56670	0.60197
1305.63813	0.60168
1303.70957	0.60136
1301.78101	0.60087
1299.85244	0.59995
1297.92388	0.59858
1295.99531	0.59722
1294.06675	0.59597
1292.13818	0.59467
1290.20962	0.59340
1288.28105	0.59207
1286.35249	0.59054
1284.42393	0.58903
1282.49536	0.58755
1280.56680	0.58598
1278.63823	0.58436
1276.70967	0.58283
1274.78110	0.58151
1272.85254	0.58058
1270.92397	0.57989
1268.99541	0.57907
1267.06685	0.57805
1265.13828	0.57704
1263.20972	0.57618
1261.28115	0.57547
1259.35259	0.57481
1257.42402	0.57412
1255.49546	0.57357
1253.56689	0.57336
1251.63833	0.57342
1249.70977	0.57364
1247.78120	0.57385
1245.85264	0.57381
1243.92407	0.57330
1241.99551	0.57225
1240.06694	0.57065
1238.13838	0.56851
1236.20981	0.56605
1234.28125	0.56355
1232.35269	0.56103
1230.42412	0.55854
1228.49556	0.55610
1226.56699	0.55369
1224.63843	0.55151
1222.70986	0.54970
1220.78130	0.54805
1218.85273	0.54633
1216.92417	0.54475
1214.99561	0.54358
1213.06704	0.54271
1211.13848	0.54197
1209.20991	0.54127
1207.28135	0.54052
1205.35278	0.53966
1203.42422	0.53864
1201.49565	0.53751
1199.56709	0.53648
1197.63853	0.53567
1195.70996	0.53500
1193.78140	0.53441
1191.85283	0.53382
1189.92427	0.53328
1187.99570	0.53297
1186.06714	0.53297
1184.13857	0.53321
1182.21001	0.53369
1180.28145	0.53451
1178.35288	0.53585
1176.42432	0.53762
1174.49575	0.53923
1172.56719	0.54019
1170.63862	0.54036
1168.71006	0.53995
1166.78149	0.53950
1164.85293	0.53921
1162.92437	0.53894
1160.99580	0.53854
1159.06724	0.53792
1157.13867	0.53707
1155.21011	0.53609
1153.28154	0.53487
1151.35298	0.53317
1149.42441	0.53104
1147.49585	0.52864
1145.56729	0.52603
1143.63872	0.52335
1141.71016	0.52090
1139.78159	0.51900
1137.85303	0.51777
1135.92446	0.51698
1133.99590	0.51637
1132.06733	0.51593
1130.13877	0.51564
1128.21021	0.51507
1126.28164	0.51408
1124.35308	0.51320
1122.42451	0.51274
1120.49595	0.51250
1118.56738	0.51244
1116.63882	0.51260
1114.71025	0.51288
1112.78169	0.51328
1110.85312	0.51385
1108.92456	0.51445
1106.99600	0.51521
1105.06743	0.51629
1103.13887	0.51755
1101.21030	0.51906
1099.28174	0.52112
1097.35317	0.52355
1095.42461	0.52622
1093.49604	0.52947
1091.56748	0.53372
1089.63892	0.53903
1087.71035	0.54528
1085.78179	0.55231
1083.85322	0.55956
1081.92466	0.56612
1079.99609	0.57115
1078.06753	0.57399
1076.13896	0.57429
1074.21040	0.57198
1072.28184	0.56705
1070.35327	0.56027
1068.42471	0.55307
1066.49614	0.54621
1064.56758	0.53975
1062.63901	0.53389
1060.71045	0.52870
1058.78188	0.52412
1056.85332	0.52012
1054.92476	0.51655
1052.99619	0.51342
1051.06763	0.51086
1049.13906	0.50864
1047.21050	0.50671
1045.28193	0.50516
1043.35337	0.50388
1041.42480	0.50286
1039.49624	0.50210
1037.56768	0.50140
1035.63911	0.50071
1033.71055	0.49999
1031.78198	0.49912
1029.85342	0.49820
1027.92485	0.49737
1025.99629	0.49661
1024.06772	0.49602
1022.13916	0.49569
1020.21060	0.49576
1018.28203	0.49635
1016.35347	0.49712
1014.42490	0.49756
1012.49634	0.49762
1010.56777	0.49778
1008.63921	0.49834
1006.71064	0.49936
1004.78208	0.50100
1002.85352	0.50318
1000.92495	0.50574
998.99639	0.50885
997.06782	0.51269
995.13926	0.51711
993.21069	0.52144
991.28213	0.52488
989.35356	0.52719
987.42500	0.52862
985.49644	0.52928
983.56787	0.52944
981.63931	0.52976
979.71074	0.53077
977.78218	0.53244
975.85361	0.53447
973.92505	0.53677
971.99648	0.53961
970.06792	0.54303
968.13936	0.54682
966.21079	0.55089
964.28223	0.55529
962.35366	0.56003
960.42510	0.56507
958.49653	0.57044
956.56797	0.57621
954.63940	0.58231
952.71084	0.58866
950.78228	0.59540
948.85371	0.60228
946.92515	0.60874
944.99658	0.61486
943.06802	0.62115
941.13945	0.62766
939.21089	0.63394
937.28232	0.63966
935.35376	0.64504
933.42520	0.65071
931.49663	0.65692
929.56807	0.66319
927.63950	0.66920
925.71094	0.67534
923.78237	0.68194
921.85381	0.68874
919.92524	0.69530
917.99668	0.70163
916.06812	0.70855
914.13955	0.71647
912.21099	0.72461
910.28242	0.73298
908.35386	0.74184
906.42529	0.75079
904.49673	0.76011
902.56816	0.77005
900.63960	0.78024
898.71104	0.78974
896.78247	0.79828
894.85391	0.80759
892.92534	0.81819
890.99678	0.82869
889.06821	0.83926
887.13965	0.85080
885.21108	0.86314
883.28252	0.87625
881.35396	0.88955
879.42539	0.90134
877.49683	0.91166
875.56826	0.92224
873.63970	0.93415
871.71113	0.94726
869.78257	0.95899
867.85400	0.96829
865.92544	0.97793
863.99687	0.98954
862.06831	1.00232
860.13975	1.01519
858.21118	1.02824
856.28262	1.04150
854.35405	1.05503
852.42549	1.06812
850.49692	1.07903
848.56836	1.08932
846.63979	1.10091
844.71123	1.11349
842.78267	1.12674
840.85410	1.13918
838.92554	1.14917
836.99697	1.15860
835.06841	1.17277
833.13984	1.19270
831.21128	1.20894
829.28271	1.21716
827.35415	1.22618
825.42559	1.23559
823.49702	1.24272
821.56846	1.25479
819.63989	1.27237
817.71133	1.28805
815.78276	1.30089
813.85420	1.32072
811.92563	1.34685
809.99707	1.35838
808.06851	1.35316
806.13994	1.35971
804.21138	1.37834
802.28281	1.38612
800.35425	1.39940
798.42568	1.44696
796.49712	1.50592
794.56855	1.50488
792.63999	1.45415
790.71143	1.42794
788.78286	1.46025
786.85430	1.54490
784.92573	1.61478
782.99717	1.64605
781.06860	1.69021
779.14004	1.78349
777.21147	1.90808
775.28291	2.00942
773.35435	2.01860
771.42578	1.89165
769.49722	1.69888
767.56865	1.52864
765.64009	1.43560
763.71152	1.44382
761.78296	1.52967
759.85439	1.58728
757.92583	1.53470
755.99727	1.37191
754.06870	1.23472
752.14014	1.21264
750.21157	1.28175
748.28301	1.31877
746.35444	1.28054
744.42588	1.28318
742.49731	1.31805
740.56875	1.23925
738.64019	1.10815
736.71162	1.04127
734.78306	1.04073
732.85449	0.98435
730.92593	0.77747
728.99736	0.60644
727.06880	0.59890
725.14023	0.76674
723.21167	0.74512
721.28311	0.49967
719.35454	0.37052
717.42598	0.35658
715.49741	0.38800
713.56885	0.38565
711.64028	0.31479
709.71172	0.27799
707.78315	0.30130
705.85459	0.27203
703.92603	0.21379
701.99746	0.15384
700.06890	0.09702
698.14033	0.07009
696.21177	0.09599
694.28320	0.12048
692.35464	0.10836
690.42607	0.09416
688.49751	0.10319
686.56895	0.12060
684.64038	0.09763
682.71182	0.09637
680.78325	0.17588
678.85469	0.22035
676.92612	0.17955
674.99756	0.20050
673.06899	0.34373
671.14043	0.33713
669.21187	0.21045
667.28330	0.23735
665.35474	0.35001
663.42617	0.24389
661.49761	0.05694
659.56904	-0.04466
657.64048	0.01270
655.71191	0.10151
653.78335	0.09136
651.85479	0.04541
649.92622	0.12836
647.99766	0.29029
646.06909	0.45529
644.14053	0.70888
642.21196	0.46627
640.28340	0.28531
638.35483	0.22451
636.42627	0.24373
634.49771	0.27473
632.56914	0.26884
630.64058	0.24087
628.71201	0.19033
626.78345	0.17866
624.85488	0.20370
622.92632	0.20633
620.99775	0.19279
619.06919	0.18773
617.14062	0.15891
615.21206	0.12857
613.28350	0.18789
611.35493	0.29333
609.42637	0.31708
607.49780	0.31101
605.56924	0.38991
603.64067	0.54465
601.71211	0.47430
599.78354	0.26128
597.85498	0.14230
595.92642	0.12692
593.99785	0.17563
592.06929	0.21731
590.14072	0.19284
588.21216	0.14873
586.28359	0.15439
584.35503	0.18813
582.42646	0.24558
580.49790	0.33712
578.56934	0.36884
576.64077	0.31506
574.71221	0.25374
572.78364	0.19734
570.85508	0.18978
568.92651	0.24118
566.99795	0.25614
565.06938	0.21164
563.14082	0.15578
561.21226	0.12803
559.28369	0.14001
557.35513	0.22098
555.42656	0.32329
553.49800	0.29912
551.56943	0.27328
549.64087	0.31042
547.71230	0.31414
545.78374	0.29270
543.85518	0.29921
541.92661	0.32458
539.99805	0.32647
538.06948	0.25931
536.14092	0.14505
534.21235	0.07733
532.28379	0.11024
530.35522	0.19221
528.42666	0.17048
526.49810	0.07890
524.56953	0.06027
522.64097	0.11073
520.71240	0.17573
518.78384	0.19103
516.85527	0.10415
514.92671	0.04298
512.99814	0.05115
511.06958	0.09183
509.14102	0.15871
507.21245	0.23330
505.28389	0.23785
503.35532	0.22012
501.42676	0.23499
499.49819	0.23537
