3997.91411	0.06445
3995.98555	0.06456
3994.05698	0.06472
3992.12842	0.06475
3990.19985	0.06457
3988.27129	0.06471
3986.34272	0.06552
3984.41416	0.06645
3982.48560	0.06692
3980.55703	0.06679
3978.62847	0.06664
3976.69990	0.06697
3974.77134	0.06737
3972.84277	0.06744
3970.91421	0.06745
3968.98564	0.06780
3967.05708	0.06816
3965.12852	0.06813
3963.19995	0.06815
3961.27139	0.06870
3959.34282	0.06939
3957.41426	0.06959
3955.48569	0.06935
3953.55713	0.06907
3951.62856	0.06887
3949.70000	0.06879
3947.77144	0.06874
3945.84287	0.06858
3943.91431	0.06849
3941.98574	0.06845
3940.05718	0.06857
3938.12861	0.06906
3936.20005	0.06937
3934.27148	0.06910
3932.34292	0.06883
3930.41436	0.06900
3928.48579	0.06897
3926.55723	0.06842
3924.62866	0.06813
3922.70010	0.06854
3920.77153	0.06880
3918.84297	0.06844
3916.91440	0.06808
3914.98584	0.06815
3913.05728	0.06834
3911.12871	0.06857
3909.20015	0.06875
3907.27158	0.06862
3905.34302	0.06813
3903.41445	0.06749
3901.48589	0.06711
3899.55732	0.06707
3897.62876	0.06723
3895.70020	0.06751
3893.77163	0.06800
3891.84307	0.06875
3889.91450	0.06911
3887.98594	0.06855
3886.05737	0.06804
3884.12881	0.06826
3882.20024	0.06855
3880.27168	0.06838
3878.34312	0.06804
3876.41455	0.06783
3874.48599	0.06787
3872.55742	0.06837
3870.62886	0.06909
3868.70029	0.06960
3866.77173	0.06991
3864.84316	0.07038
3862.91460	0.07074
3860.98604	0.07066
3859.05747	0.07078
3857.12891	0.07124
3855.20034	0.07151
3853.27178	0.07171
3851.34321	0.07241
3849.41465	0.07282
3847.48608	0.07289
3845.55752	0.07340
3843.62896	0.07476
3841.70039	0.07626
3839.77183	0.07672
3837.84326	0.07660
3835.91470	0.07703
3833.98613	0.07763
3832.05757	0.07799
3830.12900	0.07858
3828.20044	0.07906
3826.27187	0.07942
3824.34331	0.07997
3822.41475	0.08047
3820.48618	0.08134
3818.55762	0.08255
3816.62905	0.08342
3814.70049	0.08450
3812.77192	0.08568
3810.84336	0.08672
3808.91479	0.08795
3806.98623	0.08946
3805.05767	0.09069
3803.12910	0.09127
3801.20054	0.09191
3799.27197	0.09285
3797.34341	0.09374
3795.41484	0.09509
3793.48628	0.09674
3791.55771	0.09816
3789.62915	0.09932
3787.70059	0.10041
3785.77202	0.10173
3783.84346	0.10334
3781.91489	0.10467
3779.98633	0.10551
3778.05776	0.10666
3776.12920	0.10814
3774.20063	0.10975
3772.27207	0.11175
3770.34351	0.11407
3768.41494	0.11635
3766.48638	0.11829
3764.55781	0.12014
3762.62925	0.12170
3760.70068	0.12316
3758.77212	0.12535
3756.84355	0.12781
3754.91499	0.12968
3752.98643	0.13144
3751.05786	0.13398
3749.12930	0.13753
3747.20073	0.14075
3745.27217	0.14340
3743.34360	0.14692
3741.41504	0.15056
3739.48647	0.15300
3737.55791	0.15527
3735.62935	0.15844
3733.70078	0.16306
3731.77222	0.16834
3729.84365	0.17304
3727.91509	0.17715
3725.98652	0.18210
3724.05796	0.18842
3722.12939	0.19555
3720.20083	0.20324
3718.27227	0.21087
3716.34370	0.21841
3714.41514	0.22615
3712.48657	0.23505
3710.55801	0.24707
3708.62944	0.26055
3706.70088	0.27228
3704.77231	0.28316
3702.84375	0.29529
3700.91519	0.31138
3698.98662	0.32990
3697.05806	0.34763
3695.12949	0.36590
3693.20093	0.38513
3691.27236	0.40605
3689.34380	0.43302
3687.41523	0.46659
3685.48667	0.49720
3683.55811	0.52407
3681.62954	0.55239
3679.70098	0.58346
3677.77241	0.61554
3675.84385	0.65322
3673.91528	0.70384
3671.98672	0.74624
3670.05815	0.78427
3668.12959	0.83631
3666.20103	0.88516
3664.27246	0.92644
3662.34390	0.97023
3660.41533	1.01711
3658.48677	1.06300
3656.55820	1.11124
3654.62964	1.16452
3652.70107	1.20974
3650.77251	1.24889
3648.84395	1.30153
3646.91538	1.36674
3644.98682	1.41743
3643.05825	1.45740
3641.12969	1.49760
3639.20112	1.54095
3637.27256	1.58431
3635.34399	1.62689
3633.41543	1.66950
3631.48687	1.70926
3629.55830	1.74944
3627.62974	1.80110
3625.70117	1.85046
3623.77261	1.88540
3621.84404	1.91807
3619.91548	1.95427
3617.98691	1.99827
3616.05835	2.04244
3614.12979	2.07988
3612.20122	2.11818
3610.27266	2.15688
3608.34409	2.19578
3606.41553	2.23761
3604.48696	2.27816
3602.55840	2.31480
3600.62983	2.35305
3598.70127	2.39420
3596.77271	2.43436
3594.84414	2.47414
3592.91558	2.51524
3590.98701	2.55424
3589.05845	2.58961
3587.12988	2.63140
3585.20132	2.67970
3583.27275	2.72308
3581.34419	2.76266
3579.41562	2.80281
3577.48706	2.84446
3575.55850	2.88702
3573.62993	2.93004
3571.70137	2.97144
3569.77280	3.01123
3567.84424	3.05281
3565.91567	3.10383
3563.98711	3.15665
3562.05854	3.20055
3560.12998	3.24246
3558.20142	3.28805
3556.27285	3.33557
3554.34429	3.38231
3552.41572	3.42992
3550.48716	3.47450
3548.55859	3.51417
3546.63003	3.55600
3544.70146	3.60432
3542.77290	3.65475
3540.84434	3.70372
3538.91577	3.75077
3536.98721	3.79513
3535.05864	3.84179
3533.13008	3.89214
3531.20151	3.94380
3529.27295	3.99402
3527.34438	4.03934
3525.41582	4.08129
3523.48726	4.12549
3521.55869	4.17517
3519.63013	4.22776
3517.70156	4.27770
3515.77300	4.32228
3513.84443	4.36965
3511.91587	4.42321
3509.98730	4.47297
3508.05874	4.51677
3506.13018	4.56039
3504.20161	4.60180
3502.27305	4.64528
3500.34448	4.69880
3498.41592	4.75330
3496.48735	4.80297
3494.55879	4.85395
3492.63022	4.90414
3490.70166	4.94404
3488.77310	4.97761
3486.84453	5.01848
3484.91597	5.06924
3482.98740	5.11790
3481.05884	5.16073
3479.13027	5.21115
3477.20171	5.27262
3475.27314	5.33328
3473.34458	5.38589
3471.41602	5.42981
3469.48745	5.46850
3467.55889	5.51387
3465.63032	5.57126
3463.70176	5.62642
3461.77319	5.66944
3459.84463	5.71351
3457.91606	5.76368
3455.98750	5.81377
3454.05894	5.86362
3452.13037	5.90867
3450.20181	5.95668
3448.27324	6.02433
3446.34468	6.09145
3444.41611	6.12621
3442.48755	6.15479
3440.55898	6.20190
3438.63042	6.24813
3436.70186	6.28915
3434.77329	6.34790
3432.84473	6.40843
3430.91616	6.44426
3428.98760	6.48314
3427.05903	6.54372
3425.13047	6.61630
3423.20190	6.67517
3421.27334	6.71126
3419.34478	6.74721
3417.41621	6.79012
3415.48765	6.83557
3413.55908	6.88881
3411.63052	6.94322
3409.70195	6.97010
3407.77339	6.97732
3405.84482	6.99575
3403.91626	7.05025
3401.98770	7.13012
3400.05913	7.19032
3398.13057	7.22836
3396.20200	7.26687
3394.27344	7.28612
3392.34487	7.28442
3390.41631	7.31586
3388.48774	7.37886
3386.55918	7.42983
3384.63062	7.45435
3382.70205	7.48562
3380.77349	7.52210
3378.84492	7.54507
3376.91636	7.58199
3374.98779	7.61020
3373.05923	7.61196
3371.13066	7.63200
3369.20210	7.69811
3367.27354	7.75981
3365.34497	7.79565
3363.41641	7.82034
3361.48784	7.84465
3359.55928	7.89172
3357.63071	7.94064
3355.70215	7.94539
3353.77358	7.85931
3351.84502	7.75689
3349.91646	7.73933
3347.98789	7.81368
3346.05933	7.87143
3344.13076	7.87339
3342.20220	7.91015
3340.27363	7.92374
3338.34507	7.88105
3336.41650	7.87608
3334.48794	7.92985
3332.55937	7.96246
3330.63081	7.95832
3328.70225	7.97773
3326.77368	8.01770
3324.84512	8.03843
3322.91655	8.03401
3320.98799	8.04478
3319.05942	8.10517
3317.13086	8.19091
3315.20229	8.22653
3313.27373	8.21067
3311.34517	8.14192
3309.41660	8.06136
3307.48804	8.03423
3305.55947	8.01688
3303.63091	8.00264
3301.70234	8.01034
3299.77378	8.05014
3297.84521	8.11989
3295.91665	8.14122
3293.98809	8.07722
3292.05952	8.05304
3290.13096	8.09535
3288.20239	8.11932
3286.27383	8.11080
3284.34526	8.07205
3282.41670	8.08081
3280.48813	8.11890
3278.55957	8.05629
3276.63101	7.96040
3274.70244	7.96634
3272.77388	8.03554
3270.84531	8.06553
3268.91675	8.05923
3266.98818	8.05933
3265.05962	8.10762
3263.13105	8.16699
3261.20249	8.17922
3259.27393	8.12788
3257.34536	8.00748
3255.41680	7.92180
3253.48823	7.97112
3251.55967	8.10589
3249.63110	8.20595
3247.70254	8.19523
3245.77397	8.11065
3243.84541	8.10179
3241.91685	8.18040
3239.98828	8.22506
3238.05972	8.17260
3236.13115	8.05037
3234.20259	7.97428
3232.27402	7.99438
3230.34546	8.03053
3228.41689	8.03510
3226.48833	8.04477
3224.55977	8.03436
3222.63120	7.96639
3220.70264	7.90328
3218.77407	7.87455
3216.84551	7.83927
3214.91694	7.81847
3212.98838	7.82043
3211.05981	7.79350
3209.13125	7.75708
3207.20269	7.74840
3205.27412	7.77364
3203.34556	7.82435
3201.41699	7.84196
3199.48843	7.79764
3197.55986	7.74425
3195.63130	7.70885
3193.70273	7.65667
3191.77417	7.57868
3189.84561	7.52319
3187.91704	7.51369
3185.98848	7.49777
3184.05991	7.41751
3182.13135	7.32735
3180.20278	7.30933
3178.27422	7.32539
3176.34565	7.28630
3174.41709	7.19327
3172.48853	7.11620
3170.55996	7.07865
3168.63140	7.03413
3166.70283	6.95252
3164.77427	6.87177
3162.84570	6.81621
3160.91714	6.74995
3158.98857	6.66380
3157.06001	6.58967
3155.13145	6.52862
3153.20288	6.45853
3151.27432	6.38628
3149.34575	6.32390
3147.41719	6.25240
3145.48862	6.17131
3143.56006	6.10624
3141.63149	6.05263
3139.70293	5.98776
3137.77437	5.91148
3135.84580	5.83581
3133.91724	5.77512
3131.98867	5.72599
3130.06011	5.66384
3128.13154	5.58427
3126.20298	5.50481
3124.27441	5.43373
3122.34585	5.35785
3120.41729	5.27449
3118.48872	5.20193
3116.56016	5.14172
3114.63159	5.07900
3112.70303	5.01025
3110.77446	4.94203
3108.84590	4.87498
3106.91733	4.80534
3104.98877	4.73668
3103.06021	4.67160
3101.13164	4.60141
3099.20308	4.52801
3097.27451	4.46357
3095.34595	4.40252
3093.41738	4.33484
3091.48882	4.26786
3089.56025	4.20811
3087.63169	4.14948
3085.70312	4.08787
3083.77456	4.02506
3081.84600	3.96102
3079.91743	3.89606
3077.98887	3.83486
3076.06030	3.77834
3074.13174	3.72289
3072.20317	3.66678
3070.27461	3.60874
3068.34604	3.54901
3066.41748	3.48920
3064.48892	3.43151
3062.56035	3.37789
3060.63179	3.32587
3058.70322	3.27229
3056.77466	3.21875
3054.84609	3.16662
3052.91753	3.11442
3050.98896	3.06173
3049.06040	3.00942
3047.13184	2.95876
3045.20327	2.91047
3043.27471	2.86358
3041.34614	2.81610
3039.41758	2.76738
3037.48901	2.71909
3035.56045	2.67254
3033.63188	2.62737
3031.70332	2.58257
3029.77476	2.53820
3027.84619	2.49487
3025.91763	2.45206
3023.98906	2.40955
3022.06050	2.36706
3020.13193	2.32443
3018.20337	2.28312
3016.27480	2.24334
3014.34624	2.20386
3012.41768	2.16511
3010.48911	2.12770
3008.56055	2.09098
3006.63198	2.05428
3004.70342	2.01747
3002.77485	1.98130
3000.84629	1.94649
2998.91772	1.91274
2996.98916	1.88004
2995.06060	1.84822
2993.13203	1.81678
2991.20347	1.78630
2989.27490	1.75674
2987.34634	1.72718
2985.41777	1.69787
2983.48921	1.66925
2981.56064	1.64145
2979.63208	1.61475
2977.70352	1.58875
2975.77495	1.56289
2973.84639	1.53721
2971.91782	1.51207
2969.98926	1.48789
2968.06069	1.46475
2966.13213	1.44212
2964.20356	1.41925
2962.27500	1.39573
2960.34644	1.37163
2958.41787	1.34749
2956.48931	1.32375
2954.56074	1.30001
2952.63218	1.27614
2950.70361	1.25266
2948.77505	1.22967
2946.84648	1.20719
2944.91792	1.18554
2942.98936	1.16480
2941.06079	1.14473
2939.13223	1.12490
2937.20366	1.10510
2935.27510	1.08557
2933.34653	1.06653
2931.41797	1.04757
2929.48940	1.02840
2927.56084	1.00932
2925.63228	0.99030
2923.70371	0.97177
2921.77515	0.95415
2919.84658	0.93681
2917.91802	0.91954
2915.98945	0.90255
2914.06089	0.88589
2912.13232	0.86964
2910.20376	0.85384
2908.27520	0.83830
2906.34663	0.82276
2904.41807	0.80763
2902.48950	0.79333
2900.56094	0.77955
2898.63237	0.76609
2896.70381	0.75286
2894.77524	0.73985
2892.84668	0.72727
2890.91812	0.71502
2888.98955	0.70324
2887.06099	0.69227
2885.13242	0.68194
2883.20386	0.67201
2881.27529	0.66225
2879.34673	0.65254
2877.41816	0.64297
2875.48960	0.63330
2873.56104	0.62323
2871.63247	0.61284
2869.70391	0.60208
2867.77534	0.59078
2865.84678	0.57922
2863.91821	0.56784
2861.98965	0.55692
2860.06108	0.54660
2858.13252	0.53674
2856.20396	0.52714
2854.27539	0.51778
2852.34683	0.50883
2850.41826	0.50021
2848.48970	0.49177
2846.56113	0.48358
2844.63257	0.47592
2842.70400	0.46882
2840.77544	0.46216
2838.84687	0.45586
2836.91831	0.44967
2834.98975	0.44331
2833.06118	0.43686
2831.13262	0.43067
2829.20405	0.42467
2827.27549	0.41859
2825.34692	0.41259
2823.41836	0.40680
2821.48979	0.40104
2819.56123	0.39534
2817.63267	0.38976
2815.70410	0.38421
2813.77554	0.37862
2811.84697	0.37300
2809.91841	0.36748
2807.98984	0.36221
2806.06128	0.35713
2804.13271	0.35214
2802.20415	0.34719
2800.27559	0.34230
2798.34702	0.33757
2796.41846	0.33288
2794.48989	0.32807
2792.56133	0.32324
2790.63276	0.31864
2788.70420	0.31432
2786.77563	0.31008
2784.84707	0.30597
2782.91851	0.30198
2780.98994	0.29785
2779.06138	0.29372
2777.13281	0.28980
2775.20425	0.28606
2773.27568	0.28241
2771.34712	0.27861
2769.41855	0.27464
2767.48999	0.27082
2765.56143	0.26741
2763.63286	0.26427
2761.70430	0.26110
2759.77573	0.25780
2757.84717	0.25452
2755.91860	0.25139
2753.99004	0.24841
2752.06147	0.24558
2750.13291	0.24278
2748.20435	0.23984
2746.27578	0.23698
2744.34722	0.23433
2742.41865	0.23169
2740.49009	0.22901
2738.56152	0.22641
2736.63296	0.22394
2734.70439	0.22147
2732.77583	0.21894
2730.84727	0.21653
2728.91870	0.21428
2726.99014	0.21202
2725.06157	0.20981
2723.13301	0.20780
2721.20444	0.20578
2719.27588	0.20362
2717.34731	0.20157
2715.41875	0.19975
2713.49019	0.19807
2711.56162	0.19638
2709.63306	0.19455
2707.70449	0.19263
2705.77593	0.19085
2703.84736	0.18923
2701.91880	0.18768
2699.99023	0.18632
2698.06167	0.18512
2696.13311	0.18379
2694.20454	0.18225
2692.27598	0.18078
2690.34741	0.17954
2688.41885	0.17842
2686.49028	0.17733
2684.56172	0.17618
2682.63315	0.17497
2680.70459	0.17378
2678.77603	0.17258
2676.84746	0.17142
2674.91890	0.17035
2672.99033	0.16933
2671.06177	0.16830
2669.13320	0.16730
2667.20464	0.16642
2665.27607	0.16565
2663.34751	0.16483
2661.41895	0.16406
2659.49038	0.16341
2657.56182	0.16266
2655.63325	0.16186
2653.70469	0.16127
2651.77612	0.16065
2649.84756	0.15983
2647.91899	0.15909
2645.99043	0.15861
2644.06187	0.15816
2642.13330	0.15753
2640.20474	0.15683
2638.27617	0.15630
2636.34761	0.15594
2634.41904	0.15546
2632.49048	0.15493
2630.56191	0.15463
2628.63335	0.15439
2626.70479	0.15391
2624.77622	0.15339
2622.84766	0.15314
2620.91909	0.15303
2618.99053	0.15288
2617.06196	0.15270
2615.13340	0.15248
2613.20483	0.15215
2611.27627	0.15189
2609.34771	0.15173
2607.41914	0.15159
2605.49058	0.15156
2603.56201	0.15159
2601.63345	0.15160
2599.70488	0.15150
2597.77632	0.15145
2595.84775	0.15164
2593.91919	0.15184
2591.99062	0.15181
2590.06206	0.15176
2588.13350	0.15189
2586.20493	0.15208
2584.27637	0.15226
2582.34780	0.15241
2580.41924	0.15257
2578.49067	0.15278
2576.56211	0.15308
2574.63354	0.15346
2572.70498	0.15386
2570.77642	0.15418
2568.84785	0.15442
2566.91929	0.15475
2564.99072	0.15516
2563.06216	0.15552
2561.13359	0.15589
2559.20503	0.15645
2557.27646	0.15707
2555.34790	0.15756
2553.41934	0.15794
2551.49077	0.15833
2549.56221	0.15879
2547.63364	0.15916
2545.70508	0.15960
2543.77651	0.16025
2541.84795	0.16103
2539.91938	0.16175
2537.99082	0.16227
2536.06226	0.16268
2534.13369	0.16324
2532.20513	0.16393
2530.27656	0.16468
2528.34800	0.16547
2526.41943	0.16618
2524.49087	0.16683
2522.56230	0.16750
2520.63374	0.16814
2518.70518	0.16888
2516.77661	0.16971
2514.84805	0.17042
2512.91948	0.17109
2510.99092	0.17193
2509.06235	0.17274
2507.13379	0.17338
2505.20522	0.17406
2503.27666	0.17488
2501.34810	0.17578
2499.41953	0.17679
2497.49097	0.17774
2495.56240	0.17847
2493.63384	0.17919
2491.70527	0.18005
2489.77671	0.18094
2487.84814	0.18180
2485.91958	0.18269
2483.99102	0.18357
2482.06245	0.18425
2480.13389	0.18485
2478.20532	0.18571
2476.27676	0.18672
2474.34819	0.18763
2472.41963	0.18848
2470.49106	0.18936
2468.56250	0.19029
2466.63394	0.19119
2464.70537	0.19194
2462.77681	0.19266
2460.84824	0.19356
2458.91968	0.19461
2456.99111	0.19563
2455.06255	0.19658
2453.13398	0.19744
2451.20542	0.19826
2449.27686	0.19922
2447.34829	0.20028
2445.41973	0.20133
2443.49116	0.20230
2441.56260	0.20321
2439.63403	0.20419
2437.70547	0.20527
2435.77690	0.20632
2433.84834	0.20729
2431.91978	0.20832
2429.99121	0.20943
2428.06265	0.21048
2426.13408	0.21151
2424.20552	0.21261
2422.27695	0.21372
2420.34839	0.21480
2418.41982	0.21590
2416.49126	0.21704
2414.56270	0.21827
2412.63413	0.21946
2410.70557	0.22050
2408.77700	0.22152
2406.84844	0.22253
2404.91987	0.22360
2402.99131	0.22482
2401.06274	0.22607
2399.13418	0.22724
2397.20562	0.22842
2395.27705	0.22964
2393.34849	0.23081
2391.41992	0.23193
2389.49136	0.23312
2387.56279	0.23431
2385.63423	0.23528
2383.70566	0.23603
2381.77710	0.23657
2379.84854	0.23669
2377.91997	0.23638
2375.99141	0.23605
2374.06284	0.23560
2372.13428	0.23463
2370.20571	0.23352
2368.27715	0.23244
2366.34858	0.23123
2364.42002	0.23063
2362.49146	0.23100
2360.56289	0.23162
2358.63433	0.23289
2356.70576	0.23625
2354.77720	0.24068
2352.84863	0.24488
2350.92007	0.24892
2348.99150	0.25195
2347.06294	0.25317
2345.13437	0.25286
2343.20581	0.25220
2341.27725	0.25262
2339.34868	0.25426
2337.42012	0.25659
2335.49155	0.25900
2333.56299	0.26089
2331.63442	0.26250
2329.70586	0.26456
2327.77729	0.26721
2325.84873	0.27014
2323.92017	0.27327
2321.99160	0.27631
2320.06304	0.27897
2318.13447	0.28150
2316.20591	0.28395
2314.27734	0.28628
2312.34878	0.28854
2310.42021	0.29070
2308.49165	0.29284
2306.56309	0.29519
2304.63452	0.29764
2302.70596	0.29998
2300.77739	0.30230
2298.84883	0.30465
2296.92026	0.30685
2294.99170	0.30882
2293.06313	0.31082
2291.13457	0.31300
2289.20601	0.31522
2287.27744	0.31729
2285.34888	0.31926
2283.42031	0.32138
2281.49175	0.32348
2279.56318	0.32537
2277.63462	0.32716
2275.70605	0.32907
2273.77749	0.33117
2271.84893	0.33333
2269.92036	0.33545
2267.99180	0.33759
2266.06323	0.33975
2264.13467	0.34195
2262.20610	0.34423
2260.27754	0.34651
2258.34897	0.34863
2256.42041	0.35064
2254.49185	0.35275
2252.56328	0.35503
2250.63472	0.35730
2248.70615	0.35951
2246.77759	0.36170
2244.84902	0.36392
2242.92046	0.36610
2240.99189	0.36820
2239.06333	0.37045
2237.13477	0.37284
2235.20620	0.37499
2233.27764	0.37700
2231.34907	0.37925
2229.42051	0.38164
2227.49194	0.38392
2225.56338	0.38607
2223.63481	0.38821
2221.70625	0.39046
2219.77769	0.39285
2217.84912	0.39520
2215.92056	0.39732
2213.99199	0.39929
2212.06343	0.40135
2210.13486	0.40350
2208.20630	0.40564
2206.27773	0.40778
2204.34917	0.40993
2202.42061	0.41197
2200.49204	0.41395
2198.56348	0.41593
2196.63491	0.41796
2194.70635	0.41998
2192.77778	0.42182
2190.84922	0.42363
2188.92065	0.42559
2186.99209	0.42748
2185.06353	0.42917
2183.13496	0.43088
2181.20640	0.43263
2179.27783	0.43423
2177.34927	0.43573
2175.42070	0.43725
2173.49214	0.43875
2171.56357	0.44019
2169.63501	0.44144
2167.70645	0.44261
2165.77788	0.44392
2163.84932	0.44519
2161.92075	0.44629
2159.99219	0.44735
2158.06362	0.44840
2156.13506	0.44942
2154.20649	0.45039
2152.27793	0.45122
2150.34937	0.45181
2148.42080	0.45221
2146.49224	0.45266
2144.56367	0.45324
2142.63511	0.45379
2140.70654	0.45422
2138.77798	0.45445
2136.84941	0.45451
2134.92085	0.45442
2132.99229	0.45424
2131.06372	0.45417
2129.13516	0.45414
2127.20659	0.45391
2125.27803	0.45353
2123.34946	0.45316
2121.42090	0.45271
2119.49233	0.45208
2117.56377	0.45141
2115.63521	0.45069
2113.70664	0.44984
2111.77808	0.44886
2109.84951	0.44783
2107.92095	0.44678
2105.99238	0.44565
2104.06382	0.44449
2102.13525	0.44332
2100.20669	0.44209
2098.27812	0.44068
2096.34956	0.43910
2094.42100	0.43746
2092.49243	0.43578
2090.56387	0.43410
2088.63530	0.43240
2086.70674	0.43060
2084.77817	0.42869
2082.84961	0.42675
2080.92104	0.42473
2078.99248	0.42253
2077.06392	0.42028
2075.13535	0.41821
2073.20679	0.41626
2071.27822	0.41413
2069.34966	0.41185
2067.42109	0.40952
2065.49253	0.40714
2063.56396	0.40471
2061.63540	0.40228
2059.70684	0.39976
2057.77827	0.39719
2055.84971	0.39463
2053.92114	0.39199
2051.99258	0.38936
2050.06401	0.38686
2048.13545	0.38433
2046.20688	0.38165
2044.27832	0.37893
2042.34976	0.37623
2040.42119	0.37353
2038.49263	0.37079
2036.56406	0.36799
2034.63550	0.36522
2032.70693	0.36251
2030.77837	0.35979
2028.84980	0.35701
2026.92124	0.35423
2024.99268	0.35147
2023.06411	0.34870
2021.13555	0.34588
2019.20698	0.34308
2017.27842	0.34036
2015.34985	0.33764
2013.42129	0.33493
2011.49272	0.33225
2009.56416	0.32955
2007.63560	0.32682
2005.70703	0.32408
2003.77847	0.32138
2001.84990	0.31884
1999.92134	0.31636
1997.99277	0.31379
1996.06421	0.31117
1994.13564	0.30854
1992.20708	0.30599
1990.27852	0.30352
1988.34995	0.30099
1986.42139	0.29843
1984.49282	0.29602
1982.56426	0.29382
1980.63569	0.29173
1978.70713	0.28961
1976.77856	0.28737
1974.85000	0.28511
1972.92144	0.28289
1970.99287	0.28075
1969.06431	0.27868
1967.13574	0.27663
1965.20718	0.27459
1963.27861	0.27266
1961.35005	0.27081
1959.42148	0.26896
1957.49292	0.26711
1955.56436	0.26533
1953.63579	0.26365
1951.70723	0.26193
1949.77866	0.26020
1947.85010	0.25854
1945.92153	0.25696
1943.99297	0.25548
1942.06440	0.25407
1940.13584	0.25270
1938.20728	0.25132
1936.27871	0.24993
1934.35015	0.24863
1932.42158	0.24746
1930.49302	0.24627
1928.56445	0.24513
1926.63589	0.24406
1924.70732	0.24305
1922.77876	0.24210
1920.85020	0.24119
1918.92163	0.24030
1916.99307	0.23941
1915.06450	0.23853
1913.13594	0.23764
1911.20737	0.23687
1909.27881	0.23626
1907.35024	0.23564
1905.42168	0.23499
1903.49312	0.23439
1901.56455	0.23385
1899.63599	0.23337
1897.70742	0.23291
1895.77886	0.23250
1893.85029	0.23218
1891.92173	0.23185
1889.99316	0.23161
1888.06460	0.23141
1886.13604	0.23115
1884.20747	0.23093
1882.27891	0.23078
1880.35034	0.23064
1878.42178	0.23053
1876.49321	0.23052
1874.56465	0.23054
1872.63608	0.23066
1870.70752	0.23083
1868.77896	0.23114
1866.85039	0.23145
1864.92183	0.23154
1862.99326	0.23161
1861.06470	0.23179
1859.13613	0.23215
1857.20757	0.23262
1855.27900	0.23315
1853.35044	0.23358
1851.42187	0.23404
1849.49331	0.23460
1847.56475	0.23526
1845.63618	0.23598
1843.70762	0.23682
1841.77905	0.23768
1839.85049	0.23829
1837.92192	0.23901
1835.99336	0.23986
1834.06479	0.24083
1832.13623	0.24185
1830.20767	0.24312
1828.27910	0.24452
1826.35054	0.24568
1824.42197	0.24695
1822.49341	0.24825
1820.56484	0.24955
1818.63628	0.25099
1816.70771	0.25273
1814.77915	0.25445
1812.85059	0.25608
1810.92202	0.25787
1808.99346	0.25978
1807.06489	0.26174
1805.13633	0.26373
1803.20776	0.26592
1801.27920	0.26833
1799.35063	0.27115
1797.42207	0.27388
1795.49351	0.27633
1793.56494	0.27892
1791.63638	0.28225
1789.70781	0.28578
1787.77925	0.28871
1785.85068	0.29201
1783.92212	0.29567
1781.99355	0.29947
1780.06499	0.30354
1778.13643	0.30786
1776.20786	0.31191
1774.27930	0.31600
1772.35073	0.32144
1770.42217	0.32763
1768.49360	0.33320
1766.56504	0.33862
1764.63647	0.34402
1762.70791	0.34969
1760.77935	0.35691
1758.85078	0.36401
1756.92222	0.37117
1754.99365	0.37891
1753.06509	0.38591
1751.13652	0.39408
1749.20796	0.40435
1747.27939	0.41465
1745.35083	0.42386
1743.42227	0.43357
1741.49370	0.44430
1739.56514	0.45698
1737.63657	0.46964
1735.70801	0.48051
1733.77944	0.49631
1731.85088	0.51563
1729.92231	0.53156
1727.99375	0.54763
1726.06519	0.56469
1724.13662	0.58296
1722.20806	0.60255
1720.27949	0.62083
1718.35093	0.64205
1716.42236	0.67299
1714.49380	0.70315
1712.56523	0.72823
1710.63667	0.75253
1708.70811	0.77846
1706.77954	0.80762
1704.85098	0.84235
1702.92241	0.87385
1700.99385	0.90537
1699.06528	0.95133
1697.13672	0.99351
1695.20815	1.03762
1693.27959	1.08225
1691.35103	1.11922
1689.42246	1.16093
1687.49390	1.20422
1685.56533	1.24650
1683.63677	1.31126
1681.70820	1.37821
1679.77964	1.42231
1677.85107	1.46449
1675.92251	1.51203
1673.99395	1.56982
1672.06538	1.62241
1670.13682	1.67469
1668.20825	1.74240
1666.27969	1.80060
1664.35112	1.85204
1662.42256	1.91516
1660.49399	1.98542
1658.56543	2.04124
1656.63687	2.08528
1654.70830	2.12230
1652.77974	2.17779
1650.85117	2.23455
1648.92261	2.25531
1646.99404	2.27689
1645.06548	2.30128
1643.13691	2.31870
1641.20835	2.32730
1639.27979	2.33287
1637.35122	2.33358
1635.42266	2.32894
1633.49409	2.31997
1631.56553	2.30624
1629.63696	2.28891
1627.70840	2.25891
1625.77983	2.22167
1623.85127	2.17563
1621.92271	2.12212
1619.99414	2.07424
1618.06558	2.02665
1616.13701	1.96251
1614.20845	1.89873
1612.27988	1.84851
1610.35132	1.79528
1608.42275	1.73770
1606.49419	1.68155
1604.56562	1.63042
1602.63706	1.58155
1600.70850	1.53412
1598.77993	1.49042
1596.85137	1.44919
1594.92280	1.40923
1592.99424	1.37092
1591.06567	1.33600
1589.13711	1.30404
1587.20854	1.27501
1585.27998	1.24819
1583.35142	1.22298
1581.42285	1.20033
1579.49429	1.18147
1577.56572	1.16468
1575.63716	1.14541
1573.70859	1.12945
1571.78003	1.11922
1569.85146	1.10947
1567.92290	1.09998
1565.99434	1.09341
1564.06577	1.08892
1562.13721	1.08597
1560.20864	1.08521
1558.28008	1.08958
1556.35151	1.09619
1554.42295	1.09998
1552.49438	1.10311
1550.56582	1.10437
1548.63726	1.10264
1546.70869	1.09772
1544.78013	1.08888
1542.85156	1.07591
1540.92300	1.05670
1538.99443	1.02793
1537.06587	1.00634
1535.13730	0.99089
1533.20874	0.97045
1531.28018	0.94883
1529.35161	0.93282
1527.42305	0.91763
1525.49448	0.90199
1523.56592	0.88871
1521.63735	0.87658
1519.70879	0.86474
1517.78022	0.85414
1515.85166	0.84174
1513.92310	0.82900
1511.99453	0.81767
1510.06597	0.80698
1508.13740	0.79646
1506.20884	0.78145
1504.28027	0.76859
1502.35171	0.76121
1500.42314	0.75460
1498.49458	0.74748
1496.56602	0.73943
1494.63745	0.73148
1492.70889	0.72518
1490.78032	0.71947
1488.85176	0.71291
1486.92319	0.70704
1484.99463	0.70261
1483.06606	0.69907
1481.13750	0.69620
1479.20894	0.69408
1477.28037	0.69283
1475.35181	0.69241
1473.42324	0.69251
1471.49468	0.69214
1469.56611	0.69082
1467.63755	0.68895
1465.70898	0.68715
1463.78042	0.68582
1461.85186	0.68495
1459.92329	0.68441
1457.99473	0.68408
1456.06616	0.68356
1454.13760	0.68215
1452.20903	0.68007
1450.28047	0.67758
1448.35190	0.67507
1446.42334	0.67274
1444.49478	0.67048
1442.56621	0.66795
1440.63765	0.66499
1438.70908	0.66172
1436.78052	0.65771
1434.85195	0.65354
1432.92339	0.65057
1430.99482	0.64860
1429.06626	0.64737
1427.13770	0.64696
1425.20913	0.64724
1423.28057	0.64797
1421.35200	0.64859
1419.42344	0.64906
1417.49487	0.64939
1415.56631	0.64895
1413.63774	0.64840
1411.70918	0.64857
1409.78062	0.64964
1407.85205	0.65127
1405.92349	0.65319
1403.99492	0.65509
1402.06636	0.65607
1400.13779	0.65574
1398.20923	0.65422
1396.28066	0.65173
1394.35210	0.64823
1392.42354	0.64400
1390.49497	0.63969
1388.56641	0.63508
1386.63784	0.62977
1384.70928	0.62422
1382.78071	0.61896
1380.85215	0.61404
1378.92358	0.60974
1376.99502	0.60637
1375.06646	0.60404
1373.13789	0.60251
1371.20933	0.60140
1369.28076	0.60029
1367.35220	0.59886
1365.42363	0.59728
1363.49507	0.59580
1361.56650	0.59454
1359.63794	0.59328
1357.70937	0.59189
1355.78081	0.59051
1353.85225	0.58934
1351.92368	0.58843
1349.99512	0.58774
1348.06655	0.58721
1346.13799	0.58661
1344.20942	0.58589
1342.28086	0.58515
1340.35229	0.58442
1338.42373	0.58377
1336.49517	0.58327
1334.56660	0.58293
1332.63804	0.58284
1330.70947	0.58317
1328.78091	0.58389
1326.85234	0.58477
1324.92378	0.58555
1322.99521	0.58616
1321.06665	0.58672
1319.13809	0.58737
1317.20952	0.58793
1315.28096	0.58816
1313.35239	0.58808
1311.42383	0.58775
1309.49526	0.58724
1307.56670	0.58681
1305.63813	0.58663
1303.70957	0.58644
1301.78101	0.58599
1299.85244	0.58522
1297.92388	0.58411
1295.99531	0.58281
1294.06675	0.58147
1292.13818	0.58015
1290.20962	0.57899
1288.28105	0.57786
1286.35249	0.57658
1284.42393	0.57522
1282.49536	0.57382
1280.56680	0.57246
1278.63823	0.57111
1276.70967	0.56975
1274.78110	0.56856
1272.85254	0.56763
1270.92397	0.56690
1268.99541	0.56614
1267.06685	0.56517
1265.13828	0.56407
1263.20972	0.56310
1261.28115	0.56241
1259.35259	0.56191
1257.42402	0.56134
1255.49546	0.56071
1253.56689	0.56032
1251.63833	0.56035
1249.70977	0.56057
1247.78120	0.56065
1245.85264	0.56051
1243.92407	0.55998
1241.99551	0.55897
1240.06694	0.55762
1238.13838	0.55588
1236.20981	0.55368
1234.28125	0.55129
1232.35269	0.54892
1230.42412	0.54655
1228.49556	0.54438
1226.56699	0.54252
1224.63843	0.54082
1222.70986	0.53907
1220.78130	0.53739
1218.85273	0.53608
1216.92417	0.53496
1214.99561	0.53371
1213.06704	0.53253
1211.13848	0.53172
1209.20991	0.53106
1207.28135	0.53023
1205.35278	0.52925
1203.42422	0.52827
1201.49565	0.52735
1199.56709	0.52652
1197.63853	0.52576
1195.70996	0.52510
1193.78140	0.52456
1191.85283	0.52407
1189.92427	0.52365
1187.99570	0.52343
1186.06714	0.52338
1184.13857	0.52341
1182.21001	0.52369
1180.28145	0.52444
1178.35288	0.52567
1176.42432	0.52704
1174.49575	0.52811
1172.56719	0.52872
1170.63862	0.52877
1168.71006	0.52846
1166.78149	0.52819
1164.85293	0.52787
1162.92437	0.52727
1160.99580	0.52661
1159.06724	0.52601
1157.13867	0.52530
1155.21011	0.52436
1153.28154	0.52298
1151.35298	0.52101
1149.42441	0.51871
1147.49585	0.51636
1145.56729	0.51410
1143.63872	0.51202
1141.71016	0.51000
1139.78159	0.50786
1137.85303	0.50582
1135.92446	0.50442
1133.99590	0.50370
1132.06733	0.50316
1130.13877	0.50233
1128.21021	0.50103
1126.28164	0.49975
1124.35308	0.49894
1122.42451	0.49836
1120.49595	0.49782
1118.56738	0.49751
1116.63882	0.49749
1114.71025	0.49769
1112.78169	0.49816
1110.85312	0.49883
1108.92456	0.49945
1106.99600	0.50023
1105.06743	0.50135
1103.13887	0.50254
1101.21030	0.50380
1099.28174	0.50565
1097.35317	0.50835
1095.42461	0.51144
1093.49604	0.51465
1091.56748	0.51843
1089.63892	0.52309
1087.71035	0.52873
1085.78179	0.53518
1083.85322	0.54193
1081.92466	0.54839
1079.99609	0.55360
1078.06753	0.55658
1076.13896	0.55697
1074.21040	0.55471
1072.28184	0.55011
1070.35327	0.54386
1068.42471	0.53688
1066.49614	0.53004
1064.56758	0.52357
1062.63901	0.51753
1060.71045	0.51220
1058.78188	0.50787
1056.85332	0.50441
1054.92476	0.50119
1052.99619	0.49797
1051.06763	0.49509
1049.13906	0.49271
1047.21050	0.49070
1045.28193	0.48891
1043.35337	0.48720
1041.42480	0.48540
1039.49624	0.48404
1037.56768	0.48351
1035.63911	0.48319
1033.71055	0.48269
1031.78198	0.48244
1029.85342	0.48248
1027.92485	0.48236
1025.99629	0.48206
1024.06772	0.48176
1022.13916	0.48176
1020.21060	0.48221
1018.28203	0.48297
1016.35347	0.48383
1014.42490	0.48473
1012.49634	0.48565
1010.56777	0.48660
1008.63921	0.48762
1006.71064	0.48889
1004.78208	0.49059
1002.85352	0.49272
1000.92495	0.49539
998.99639	0.49870
997.06782	0.50251
995.13926	0.50663
993.21069	0.51074
991.28213	0.51427
989.35356	0.51683
987.42500	0.51859
985.49644	0.51955
983.56787	0.51982
981.63931	0.52026
979.71074	0.52148
977.78218	0.52333
975.85361	0.52563
973.92505	0.52835
971.99648	0.53140
970.06792	0.53482
968.13936	0.53861
966.21079	0.54259
964.28223	0.54696
962.35366	0.55197
960.42510	0.55725
958.49653	0.56256
956.56797	0.56818
954.63940	0.57421
952.71084	0.58037
950.78228	0.58660
948.85371	0.59303
946.92515	0.59962
944.99658	0.60612
943.06802	0.61235
941.13945	0.61844
939.21089	0.62411
937.28232	0.62920
935.35376	0.63471
933.42520	0.64096
931.49663	0.64711
929.56807	0.65296
927.63950	0.65853
925.71094	0.66408
923.78237	0.67015
921.85381	0.67655
919.92524	0.68332
917.99668	0.69086
916.06812	0.69869
914.13955	0.70623
912.21099	0.71382
910.28242	0.72138
908.35386	0.72839
906.42529	0.73523
904.49673	0.74274
902.56816	0.75176
900.63960	0.76232
898.71104	0.77323
896.78247	0.78394
894.85391	0.79448
892.92534	0.80416
890.99678	0.81342
889.06821	0.82375
887.13965	0.83462
885.21108	0.84566
883.28252	0.85800
881.35396	0.87125
879.42539	0.88434
877.49683	0.89610
875.56826	0.90611
873.63970	0.91630
871.71113	0.92756
869.78257	0.93882
867.85400	0.95000
865.92544	0.96185
863.99687	0.97498
862.06831	0.98759
860.13975	0.99728
858.21118	1.00661
856.28262	1.01845
854.35405	1.03066
852.42549	1.03998
850.49692	1.04847
848.56836	1.06101
846.63979	1.07537
844.71123	1.08649
842.78267	1.09602
840.85410	1.10611
838.92554	1.11601
836.99697	1.12561
835.06841	1.13507
833.13984	1.14618
831.21128	1.15825
829.28271	1.16980
827.35415	1.18091
825.42559	1.19062
823.49702	1.20259
821.56846	1.21352
819.63989	1.21591
817.71133	1.21779
815.78276	1.23068
813.85420	1.24836
811.92563	1.25852
809.99707	1.26806
808.06851	1.28169
806.13994	1.29244
804.21138	1.29682
802.28281	1.29448
800.35425	1.28827
798.42568	1.29438
796.49712	1.32490
794.56855	1.36347
792.63999	1.38139
790.71143	1.37217
788.78286	1.34762
786.85430	1.31047
784.92573	1.28271
782.99717	1.28416
781.06860	1.28930
779.14004	1.29228
777.21147	1.33253
775.28291	1.38193
773.35435	1.30294
771.42578	1.14946
769.49722	1.05290
767.56865	1.04974
765.64009	1.12590
763.71152	1.20829
761.78296	1.20985
759.85439	1.13761
757.92583	1.03315
755.99727	0.95142
754.06870	0.91425
752.14014	0.88212
750.21157	0.86251
748.28301	0.88823
746.35444	0.88984
744.42588	0.80943
742.49731	0.74655
740.56875	0.71691
738.64019	0.63487
736.71162	0.52203
734.78306	0.43024
732.85449	0.33976
730.92593	0.25678
728.99736	0.17095
727.06880	0.05433
725.14023	-0.07102
723.21167	-0.21863
721.28311	-0.43528
719.35454	-0.40916
717.42598	-0.18612
715.49741	-0.05261
713.56885	0.04625
711.64028	0.10645
709.71172	0.12171
707.78315	0.14114
705.85459	0.21907
703.92603	0.27599
701.99746	0.23690
700.06890	0.16043
698.14033	0.11858
696.21177	0.11130
694.28320	0.13278
692.35464	0.15495
690.42607	0.16833
688.49751	0.17746
686.56895	0.16812
684.64038	0.14767
682.71182	0.16040
680.78325	0.17546
678.85469	0.15640
676.92612	0.16527
674.99756	0.23730
673.06899	0.33298
671.14043	0.36921
669.21187	0.29220
667.28330	0.19756
665.35474	0.16387
663.42617	0.21594
661.49761	0.33191
659.56904	0.34665
657.64048	0.22185
655.71191	0.16725
653.78335	0.18719
651.85479	0.21275
649.92622	0.20073
647.99766	0.17487
646.06909	0.16296
644.14053	0.17461
642.21196	0.20158
640.28340	0.21089
638.35483	0.20223
636.42627	0.17134
634.49771	0.12635
632.56914	0.11704
630.64058	0.13932
628.71201	0.13267
626.78345	0.10667
624.85488	0.09093
622.92632	0.10730
620.99775	0.16421
619.06919	0.22773
617.14062	0.26680
615.21206	0.31820
613.28350	0.36082
611.35493	0.28037
609.42637	0.17276
607.49780	0.12698
605.56924	0.14011
603.64067	0.19469
601.71211	0.23740
599.78354	0.22199
597.85498	0.18196
595.92642	0.17106
593.99785	0.18554
592.06929	0.19563
590.14072	0.19924
588.21216	0.20694
586.28359	0.22245
584.35503	0.26048
582.42646	0.28356
580.49790	0.21691
578.56934	0.13582
576.64077	0.13727
574.71221	0.20686
572.78364	0.24236
570.85508	0.21476
568.92651	0.19329
566.99795	0.18105
565.06938	0.16466
563.14082	0.15755
561.21226	0.15144
559.28369	0.14681
557.35513	0.18156
555.42656	0.24105
553.49800	0.23368
551.56943	0.17183
549.64087	0.16709
547.71230	0.19598
545.78374	0.18700
543.85518	0.16569
541.92661	0.19547
539.99805	0.26084
538.06948	0.26685
536.14092	0.20785
534.21235	0.18322
532.28379	0.18831
530.35522	0.18561
528.42666	0.18501
526.49810	0.19388
524.56953	0.18678
522.64097	0.14952
520.71240	0.12821
518.78384	0.15072
516.85527	0.16672
514.92671	0.16441
512.99814	0.16990
511.06958	0.14909
509.14102	0.11254
507.21245	0.12472
505.28389	0.17643
503.35532	0.21646
501.42676	0.22451
499.49819	0.24023
