3997.91411	0.07152
3995.98555	0.07175
3994.05698	0.07253
3992.12842	0.07337
3990.19985	0.07404
3988.27129	0.07440
3986.34272	0.07438
3984.41416	0.07429
3982.48560	0.07462
3980.55703	0.07523
3978.62847	0.07531
3976.69990	0.07512
3974.77134	0.07541
3972.84277	0.07579
3970.91421	0.07562
3968.98564	0.07505
3967.05708	0.07482
3965.12852	0.07522
3963.19995	0.07570
3961.27139	0.07615
3959.34282	0.07663
3957.41426	0.07663
3955.48569	0.07632
3953.55713	0.07642
3951.62856	0.07724
3949.70000	0.07827
3947.77144	0.07850
3945.84287	0.07781
3943.91431	0.07759
3941.98574	0.07806
3940.05718	0.07773
3938.12861	0.07664
3936.20005	0.07612
3934.27148	0.07659
3932.34292	0.07765
3930.41436	0.07839
3928.48579	0.07814
3926.55723	0.07759
3924.62866	0.07746
3922.70010	0.07737
3920.77153	0.07704
3918.84297	0.07678
3916.91440	0.07670
3914.98584	0.07641
3913.05728	0.07570
3911.12871	0.07505
3909.20015	0.07498
3907.27158	0.07586
3905.34302	0.07781
3903.41445	0.08028
3901.48589	0.08145
3899.55732	0.08053
3897.62876	0.07873
3895.70020	0.07727
3893.77163	0.07687
3891.84307	0.07749
3889.91450	0.07789
3887.98594	0.07769
3886.05737	0.07804
3884.12881	0.07851
3882.20024	0.07865
3880.27168	0.07909
3878.34312	0.07875
3876.41455	0.07798
3874.48599	0.07854
3872.55742	0.08007
3870.62886	0.08165
3868.70029	0.08231
3866.77173	0.08144
3864.84316	0.08103
3862.91460	0.08148
3860.98604	0.08126
3859.05747	0.08076
3857.12891	0.08147
3855.20034	0.08390
3853.27178	0.08718
3851.34321	0.08742
3849.41465	0.08459
3847.48608	0.08272
3845.55752	0.08272
3843.62896	0.08418
3841.70039	0.08608
3839.77183	0.08821
3837.84326	0.09060
3835.91470	0.09167
3833.98613	0.09107
3832.05757	0.09013
3830.12900	0.08954
3828.20044	0.08965
3826.27187	0.09047
3824.34331	0.09148
3822.41475	0.09312
3820.48618	0.09586
3818.55762	0.09687
3816.62905	0.09623
3814.70049	0.09620
3812.77192	0.09615
3810.84336	0.09611
3808.91479	0.09702
3806.98623	0.09889
3805.05767	0.10067
3803.12910	0.10218
3801.20054	0.10360
3799.27197	0.10417
3797.34341	0.10482
3795.41484	0.10571
3793.48628	0.10561
3791.55771	0.10556
3789.62915	0.10672
3787.70059	0.10852
3785.77202	0.11047
3783.84346	0.11237
3781.91489	0.11391
3779.98633	0.11538
3778.05776	0.11703
3776.12920	0.11828
3774.20063	0.11936
3772.27207	0.12099
3770.34351	0.12356
3768.41494	0.12633
3766.48638	0.12812
3764.55781	0.12955
3762.62925	0.13106
3760.70068	0.13303
3758.77212	0.13597
3756.84355	0.13906
3754.91499	0.14158
3752.98643	0.14489
3751.05786	0.15016
3749.12930	0.15495
3747.20073	0.15683
3745.27217	0.15865
3743.34360	0.16186
3741.41504	0.16462
3739.48647	0.16680
3737.55791	0.17023
3735.62935	0.17601
3733.70078	0.18234
3731.77222	0.18581
3729.84365	0.18777
3727.91509	0.19086
3725.98652	0.19620
3724.05796	0.20255
3722.12939	0.20858
3720.20083	0.21507
3718.27227	0.22223
3716.34370	0.22983
3714.41514	0.23794
3712.48657	0.24789
3710.55801	0.26107
3708.62944	0.27421
3706.70088	0.28461
3704.77231	0.29480
3702.84375	0.30754
3700.91519	0.32424
3698.98662	0.34212
3697.05806	0.35910
3695.12949	0.37741
3693.20093	0.39727
3691.27236	0.41945
3689.34380	0.44786
3687.41523	0.48123
3685.48667	0.51001
3683.55811	0.53523
3681.62954	0.56300
3679.70098	0.59478
3677.77241	0.62839
3675.84385	0.66797
3673.91528	0.71946
3671.98672	0.76144
3670.05815	0.79935
3668.12959	0.85044
3666.20103	0.89689
3664.27246	0.93594
3662.34390	0.97849
3660.41533	1.02541
3658.48677	1.07207
3656.55820	1.12101
3654.62964	1.17465
3652.70107	1.22025
3650.77251	1.26087
3648.84395	1.31574
3646.91538	1.38068
3644.98682	1.42957
3643.05825	1.46887
3641.12969	1.50924
3639.20112	1.55318
3637.27256	1.59695
3635.34399	1.63909
3633.41543	1.68140
3631.48687	1.72167
3629.55830	1.76263
3627.62974	1.81538
3625.70117	1.86446
3623.77261	1.89769
3621.84404	1.92982
3619.91548	1.96822
3617.98691	2.01499
3616.05835	2.05885
3614.12979	2.09483
3612.20122	2.13237
3610.27266	2.17069
3608.34409	2.21001
3606.41553	2.25172
3604.48696	2.29128
3602.55840	2.32788
3600.62983	2.36657
3598.70127	2.40737
3596.77271	2.44698
3594.84414	2.48726
3592.91558	2.52917
3590.98701	2.56891
3589.05845	2.60607
3587.12988	2.64845
3585.20132	2.69347
3583.27275	2.73363
3581.34419	2.77324
3579.41562	2.81551
3577.48706	2.85858
3575.55850	2.90041
3573.62993	2.94231
3571.70137	2.98375
3569.77280	3.02450
3567.84424	3.06827
3565.91567	3.12041
3563.98711	3.17050
3562.05854	3.21298
3560.12998	3.25672
3558.20142	3.30264
3556.27285	3.34694
3554.34429	3.39005
3552.41572	3.43712
3550.48716	3.48585
3548.55859	3.53060
3546.63003	3.57383
3544.70146	3.62126
3542.77290	3.67213
3540.84434	3.72147
3538.91577	3.76667
3536.98721	3.80960
3535.05864	3.85550
3533.13008	3.90278
3531.20151	3.94987
3529.27295	3.99827
3527.34438	4.04769
3525.41582	4.09656
3523.48726	4.14530
3521.55869	4.19456
3519.63013	4.24410
3517.70156	4.29439
3515.77300	4.34359
3513.84443	4.39434
3511.91587	4.44816
3509.98730	4.49969
3508.05874	4.54350
3506.13018	4.58073
3504.20161	4.62059
3502.27305	4.67046
3500.34448	4.72451
3498.41592	4.77311
3496.48735	4.81974
3494.55879	4.87133
3492.63022	4.92802
3490.70166	4.98229
3488.77310	5.02934
3486.84453	5.07305
3484.91597	5.11463
3482.98740	5.15776
3481.05884	5.21226
3479.13027	5.26957
3477.20171	5.31523
3475.27314	5.35930
3473.34458	5.41323
3471.41602	5.46244
3469.48745	5.49897
3467.55889	5.54316
3465.63032	5.59576
3463.70176	5.64601
3461.77319	5.70333
3459.84463	5.77094
3457.91606	5.83196
3455.98750	5.87797
3454.05894	5.92124
3452.13037	5.96848
3450.20181	6.01661
3448.27324	6.06834
3446.34468	6.12405
3444.41611	6.17336
3442.48755	6.21758
3440.55898	6.25971
3438.63042	6.30762
3436.70186	6.37094
3434.77329	6.43693
3432.84473	6.49242
3430.91616	6.53011
3428.98760	6.55357
3427.05903	6.58867
3425.13047	6.65779
3423.20190	6.73076
3421.27334	6.76611
3419.34478	6.78427
3417.41621	6.82846
3415.48765	6.88320
3413.55908	6.92618
3411.63052	6.98448
3409.70195	7.05381
3407.77339	7.10897
3405.84482	7.13885
3403.91626	7.16437
3401.98770	7.19630
3400.05913	7.22164
3398.13057	7.27181
3396.20200	7.36405
3394.27344	7.43690
3392.34487	7.44722
3390.41631	7.44892
3388.48774	7.44551
3386.55918	7.45106
3384.63062	7.52011
3382.70205	7.62421
3380.77349	7.72335
3378.84492	7.79386
3376.91636	7.78605
3374.98779	7.73369
3373.05923	7.73181
3371.13066	7.77371
3369.20210	7.82391
3367.27354	7.87111
3365.34497	7.93121
3363.41641	7.99422
3361.48784	8.00536
3359.55928	7.99796
3357.63071	8.02343
3355.70215	8.04721
3353.77358	7.98876
3351.84502	7.94340
3349.91646	8.02095
3347.98789	8.14787
3346.05933	8.22337
3344.13076	8.23346
3342.20220	8.21714
3340.27363	8.15928
3338.34507	8.02089
3336.41650	7.91479
3334.48794	8.01428
3332.55937	8.23279
3330.63081	8.26658
3328.70225	8.13267
3326.77368	8.06435
3324.84512	8.10251
3322.91655	8.19895
3320.98799	8.29067
3319.05942	8.29293
3317.13086	8.28175
3315.20229	8.30658
3313.27373	8.27960
3311.34517	8.18804
3309.41660	8.13616
3307.48804	8.16646
3305.55947	8.21859
3303.63091	8.23478
3301.70234	8.17931
3299.77378	8.09686
3297.84521	8.04247
3295.91665	8.04111
3293.98809	8.04483
3292.05952	8.02259
3290.13096	8.08831
3288.20239	8.26226
3286.27383	8.40467
3284.34526	8.42446
3282.41670	8.35812
3280.48813	8.28230
3278.55957	8.26919
3276.63101	8.29574
3274.70244	8.32117
3272.77388	8.40191
3270.84531	8.55769
3268.91675	8.66495
3266.98818	8.57950
3265.05962	8.44368
3263.13105	8.42252
3261.20249	8.43650
3259.27393	8.38036
3257.34536	8.31331
3255.41680	8.28291
3253.48823	8.29073
3251.55967	8.34692
3249.63110	8.40090
3247.70254	8.40919
3245.77397	8.39184
3243.84541	8.38721
3241.91685	8.41026
3239.98828	8.43998
3238.05972	8.44687
3236.13115	8.47249
3234.20259	8.55268
3232.27402	8.58989
3230.34546	8.52619
3228.41689	8.39304
3226.48833	8.24999
3224.55977	8.21065
3222.63120	8.29533
3220.70264	8.33795
3218.77407	8.23568
3216.84551	8.11398
3214.91694	8.05450
3212.98838	8.04346
3211.05981	8.04610
3209.13125	8.01942
3207.20269	7.95566
3205.27412	7.88578
3203.34556	7.86537
3201.41699	7.90403
3199.48843	7.90916
3197.55986	7.84194
3195.63130	7.80525
3193.70273	7.81080
3191.77417	7.74606
3189.84561	7.63186
3187.91704	7.56252
3185.98848	7.55149
3184.05991	7.54330
3182.13135	7.48551
3180.20278	7.41250
3178.27422	7.35094
3176.34565	7.29329
3174.41709	7.26486
3172.48853	7.28183
3170.55996	7.27109
3168.63140	7.17283
3166.70283	7.04468
3164.77427	6.94444
3162.84570	6.88935
3160.91714	6.85282
3158.98857	6.79639
3157.06001	6.71538
3155.13145	6.62154
3153.20288	6.54875
3151.27432	6.51517
3149.34575	6.47848
3147.41719	6.40017
3145.48862	6.30304
3143.56006	6.21925
3141.63149	6.15719
3139.70293	6.10154
3137.77437	6.02327
3135.84580	5.92913
3133.91724	5.85503
3131.98867	5.79772
3130.06011	5.73024
3128.13154	5.65360
3126.20298	5.58049
3124.27441	5.51189
3122.34585	5.43976
3120.41729	5.36227
3118.48872	5.28823
3116.56016	5.22158
3114.63159	5.15776
3112.70303	5.09200
3110.77446	5.02019
3108.84590	4.94774
3106.91733	4.88042
3104.98877	4.80952
3103.06021	4.73204
3101.13164	4.65355
3099.20308	4.57991
3097.27451	4.51451
3095.34595	4.45066
3093.41738	4.38245
3091.48882	4.31513
3089.56025	4.25284
3087.63169	4.19074
3085.70312	4.12654
3083.77456	4.06185
3081.84600	3.99693
3079.91743	3.93336
3077.98887	3.87234
3076.06030	3.81227
3074.13174	3.75166
3072.20317	3.69039
3070.27461	3.62920
3068.34604	3.57079
3066.41748	3.51553
3064.48892	3.45962
3062.56035	3.40196
3060.63179	3.34519
3058.70322	3.28949
3056.77466	3.23361
3054.84609	3.17880
3052.91753	3.12597
3050.98896	3.07376
3049.06040	3.02166
3047.13184	2.97093
3045.20327	2.92182
3043.27471	2.87309
3041.34614	2.82445
3039.41758	2.77608
3037.48901	2.72818
3035.56045	2.68075
3033.63188	2.63367
3031.70332	2.58790
3029.77476	2.54358
3027.84619	2.50006
3025.91763	2.45698
3023.98906	2.41340
3022.06050	2.36967
3020.13193	2.32714
3018.20337	2.28657
3016.27480	2.24721
3014.34624	2.20736
3012.41768	2.16766
3010.48911	2.12995
3008.56055	2.09314
3006.63198	2.05537
3004.70342	2.01765
3002.77485	1.98193
3000.84629	1.94781
2998.91772	1.91348
2996.98916	1.87936
2995.06060	1.84715
2993.13203	1.81595
2991.20347	1.78402
2989.27490	1.75202
2987.34634	1.72099
2985.41777	1.69078
2983.48921	1.66153
2981.56064	1.63333
2979.63208	1.60493
2977.70352	1.57607
2975.77495	1.54788
2973.84639	1.52053
2971.91782	1.49410
2969.98926	1.46868
2968.06069	1.44311
2966.13213	1.41703
2964.20356	1.39136
2962.27500	1.36646
2960.34644	1.34216
2958.41787	1.31830
2956.48931	1.29492
2954.56074	1.27219
2952.63218	1.24956
2950.70361	1.22652
2948.77505	1.20389
2946.84648	1.18253
2944.91792	1.16192
2942.98936	1.14112
2941.06079	1.12001
2939.13223	1.09909
2937.20366	1.07890
2935.27510	1.05890
2933.34653	1.03835
2931.41797	1.01806
2929.48940	0.99878
2927.56084	0.98026
2925.63228	0.96210
2923.70371	0.94438
2921.77515	0.92789
2919.84658	0.91258
2917.91802	0.89713
2915.98945	0.88114
2914.06089	0.86556
2912.13232	0.85071
2910.20376	0.83613
2908.27520	0.82147
2906.34663	0.80683
2904.41807	0.79270
2902.48950	0.77915
2900.56094	0.76588
2898.63237	0.75301
2896.70381	0.74072
2894.77524	0.72859
2892.84668	0.71648
2890.91812	0.70484
2888.98955	0.69364
2887.06099	0.68236
2885.13242	0.67126
2883.20386	0.66075
2881.27529	0.65052
2879.34673	0.64021
2877.41816	0.62994
2875.48960	0.61988
2873.56104	0.60994
2871.63247	0.59977
2869.70391	0.58911
2867.77534	0.57815
2865.84678	0.56712
2863.91821	0.55611
2861.98965	0.54535
2860.06108	0.53515
2858.13252	0.52533
2856.20396	0.51553
2854.27539	0.50627
2852.34683	0.49785
2850.41826	0.49001
2848.48970	0.48263
2846.56113	0.47573
2844.63257	0.46921
2842.70400	0.46285
2840.77544	0.45649
2838.84687	0.45017
2836.91831	0.44407
2834.98975	0.43816
2833.06118	0.43220
2831.13262	0.42621
2829.20405	0.42019
2827.27549	0.41398
2825.34692	0.40779
2823.41836	0.40189
2821.48979	0.39621
2819.56123	0.39058
2817.63267	0.38502
2815.70410	0.37945
2813.77554	0.37385
2811.84697	0.36839
2809.91841	0.36309
2807.98984	0.35777
2806.06128	0.35260
2804.13271	0.34773
2802.20415	0.34303
2800.27559	0.33835
2798.34702	0.33361
2796.41846	0.32888
2794.48989	0.32429
2792.56133	0.31989
2790.63276	0.31556
2788.70420	0.31120
2786.77563	0.30689
2784.84707	0.30281
2782.91851	0.29887
2780.98994	0.29495
2779.06138	0.29114
2777.13281	0.28738
2775.20425	0.28353
2773.27568	0.27973
2771.34712	0.27615
2769.41855	0.27270
2767.48999	0.26927
2765.56143	0.26600
2763.63286	0.26277
2761.70430	0.25947
2759.77573	0.25628
2757.84717	0.25321
2755.91860	0.25017
2753.99004	0.24725
2752.06147	0.24449
2750.13291	0.24170
2748.20435	0.23890
2746.27578	0.23632
2744.34722	0.23381
2742.41865	0.23118
2740.49009	0.22844
2738.56152	0.22580
2736.63296	0.22333
2734.70439	0.22096
2732.77583	0.21866
2730.84727	0.21640
2728.91870	0.21409
2726.99014	0.21190
2725.06157	0.20986
2723.13301	0.20784
2721.20444	0.20585
2719.27588	0.20393
2717.34731	0.20215
2715.41875	0.20048
2713.49019	0.19868
2711.56162	0.19671
2709.63306	0.19493
2707.70449	0.19347
2705.77593	0.19213
2703.84736	0.19066
2701.91880	0.18910
2699.99023	0.18758
2698.06167	0.18601
2696.13311	0.18432
2694.20454	0.18277
2692.27598	0.18153
2690.34741	0.18045
2688.41885	0.17925
2686.49028	0.17784
2684.56172	0.17642
2682.63315	0.17523
2680.70459	0.17414
2678.77603	0.17290
2676.84746	0.17165
2674.91890	0.17064
2672.99033	0.16978
2671.06177	0.16892
2669.13320	0.16799
2667.20464	0.16705
2665.27607	0.16617
2663.34751	0.16533
2661.41895	0.16444
2659.49038	0.16360
2657.56182	0.16291
2655.63325	0.16217
2653.70469	0.16126
2651.77612	0.16049
2649.84756	0.16005
2647.91899	0.15960
2645.99043	0.15910
2644.06187	0.15872
2642.13330	0.15829
2640.20474	0.15774
2638.27617	0.15705
2636.34761	0.15633
2634.41904	0.15580
2632.49048	0.15542
2630.56191	0.15494
2628.63335	0.15448
2626.70479	0.15420
2624.77622	0.15407
2622.84766	0.15390
2620.91909	0.15367
2618.99053	0.15354
2617.06196	0.15345
2615.13340	0.15324
2613.20483	0.15293
2611.27627	0.15267
2609.34771	0.15253
2607.41914	0.15253
2605.49058	0.15265
2603.56201	0.15274
2601.63345	0.15267
2599.70488	0.15258
2597.77632	0.15261
2595.84775	0.15271
2593.91919	0.15285
2591.99062	0.15306
2590.06206	0.15334
2588.13350	0.15366
2586.20493	0.15392
2584.27637	0.15402
2582.34780	0.15401
2580.41924	0.15413
2578.49067	0.15452
2576.56211	0.15495
2574.63354	0.15518
2572.70498	0.15532
2570.77642	0.15565
2568.84785	0.15622
2566.91929	0.15675
2564.99072	0.15716
2563.06216	0.15755
2561.13359	0.15795
2559.20503	0.15841
2557.27646	0.15887
2555.34790	0.15938
2553.41934	0.16000
2551.49077	0.16052
2549.56221	0.16101
2547.63364	0.16158
2545.70508	0.16213
2543.77651	0.16272
2541.84795	0.16345
2539.91938	0.16420
2537.99082	0.16484
2536.06226	0.16536
2534.13369	0.16592
2532.20513	0.16663
2530.27656	0.16743
2528.34800	0.16824
2526.41943	0.16897
2524.49087	0.16958
2522.56230	0.17024
2520.63374	0.17102
2518.70518	0.17185
2516.77661	0.17272
2514.84805	0.17363
2512.91948	0.17448
2510.99092	0.17522
2509.06235	0.17599
2507.13379	0.17688
2505.20522	0.17773
2503.27666	0.17842
2501.34810	0.17909
2499.41953	0.17988
2497.49097	0.18070
2495.56240	0.18149
2493.63384	0.18237
2491.70527	0.18335
2489.77671	0.18434
2487.84814	0.18528
2485.91958	0.18616
2483.99102	0.18701
2482.06245	0.18784
2480.13389	0.18867
2478.20532	0.18958
2476.27676	0.19053
2474.34819	0.19149
2472.41963	0.19246
2470.49106	0.19340
2468.56250	0.19428
2466.63394	0.19515
2464.70537	0.19616
2462.77681	0.19728
2460.84824	0.19831
2458.91968	0.19916
2456.99111	0.19989
2455.06255	0.20062
2453.13398	0.20151
2451.20542	0.20257
2449.27686	0.20368
2447.34829	0.20468
2445.41973	0.20563
2443.49116	0.20668
2441.56260	0.20774
2439.63403	0.20874
2437.70547	0.20977
2435.77690	0.21091
2433.84834	0.21214
2431.91978	0.21325
2429.99121	0.21415
2428.06265	0.21503
2426.13408	0.21610
2424.20552	0.21728
2422.27695	0.21843
2420.34839	0.21956
2418.41982	0.22075
2416.49126	0.22195
2414.56270	0.22306
2412.63413	0.22417
2410.70557	0.22540
2408.77700	0.22663
2406.84844	0.22767
2404.91987	0.22872
2402.99131	0.22993
2401.06274	0.23118
2399.13418	0.23242
2397.20562	0.23373
2395.27705	0.23502
2393.34849	0.23616
2391.41992	0.23730
2389.49136	0.23848
2387.56279	0.23978
2385.63423	0.24123
2383.70566	0.24271
2381.77710	0.24418
2379.84854	0.24587
2377.91997	0.24787
2375.99141	0.24990
2374.06284	0.25175
2372.13428	0.25353
2370.20571	0.25550
2368.27715	0.25756
2366.34858	0.25942
2364.42002	0.26097
2362.49146	0.26247
2360.56289	0.26437
2358.63433	0.26621
2356.70576	0.26722
2354.77720	0.26823
2352.84863	0.26960
2350.92007	0.27058
2348.99150	0.27130
2347.06294	0.27236
2345.13437	0.27415
2343.20581	0.27656
2341.27725	0.27881
2339.34868	0.28045
2337.42012	0.28183
2335.49155	0.28320
2333.56299	0.28433
2331.63442	0.28572
2329.70586	0.28748
2327.77729	0.28927
2325.84873	0.29101
2323.92017	0.29279
2321.99160	0.29460
2320.06304	0.29612
2318.13447	0.29739
2316.20591	0.29883
2314.27734	0.30047
2312.34878	0.30205
2310.42021	0.30356
2308.49165	0.30505
2306.56309	0.30659
2304.63452	0.30833
2302.70596	0.31016
2300.77739	0.31182
2298.84883	0.31336
2296.92026	0.31497
2294.99170	0.31674
2293.06313	0.31866
2291.13457	0.32061
2289.20601	0.32250
2287.27744	0.32438
2285.34888	0.32634
2283.42031	0.32829
2281.49175	0.33006
2279.56318	0.33186
2277.63462	0.33394
2275.70605	0.33621
2273.77749	0.33830
2271.84893	0.34024
2269.92036	0.34224
2267.99180	0.34435
2266.06323	0.34648
2264.13467	0.34858
2262.20610	0.35073
2260.27754	0.35292
2258.34897	0.35512
2256.42041	0.35732
2254.49185	0.35954
2252.56328	0.36174
2250.63472	0.36388
2248.70615	0.36598
2246.77759	0.36812
2244.84902	0.37037
2242.92046	0.37266
2240.99189	0.37492
2239.06333	0.37715
2237.13477	0.37932
2235.20620	0.38140
2233.27764	0.38355
2231.34907	0.38586
2229.42051	0.38816
2227.49194	0.39041
2225.56338	0.39269
2223.63481	0.39500
2221.70625	0.39731
2219.77769	0.39953
2217.84912	0.40164
2215.92056	0.40374
2213.99199	0.40592
2212.06343	0.40807
2210.13486	0.41015
2208.20630	0.41231
2206.27773	0.41451
2204.34917	0.41665
2202.42061	0.41876
2200.49204	0.42083
2198.56348	0.42282
2196.63491	0.42473
2194.70635	0.42655
2192.77778	0.42822
2190.84922	0.43000
2188.92065	0.43204
2186.99209	0.43408
2185.06353	0.43601
2183.13496	0.43771
2181.20640	0.43926
2179.27783	0.44079
2177.34927	0.44239
2175.42070	0.44409
2173.49214	0.44573
2171.56357	0.44717
2169.63501	0.44856
2167.70645	0.44985
2165.77788	0.45093
2163.84932	0.45201
2161.92075	0.45319
2159.99219	0.45434
2158.06362	0.45531
2156.13506	0.45615
2154.20649	0.45700
2152.27793	0.45786
2150.34937	0.45863
2148.42080	0.45924
2146.49224	0.45974
2144.56367	0.46016
2142.63511	0.46051
2140.70654	0.46083
2138.77798	0.46114
2136.84941	0.46131
2134.92085	0.46128
2132.99229	0.46115
2131.06372	0.46101
2129.13516	0.46089
2127.20659	0.46070
2125.27803	0.46037
2123.34946	0.45987
2121.42090	0.45928
2119.49233	0.45866
2117.56377	0.45809
2115.63521	0.45747
2113.70664	0.45654
2111.77808	0.45541
2109.84951	0.45442
2107.92095	0.45347
2105.99238	0.45222
2104.06382	0.45086
2102.13525	0.44967
2100.20669	0.44849
2098.27812	0.44706
2096.34956	0.44548
2094.42100	0.44383
2092.49243	0.44214
2090.56387	0.44048
2088.63530	0.43871
2086.70674	0.43676
2084.77817	0.43475
2082.84961	0.43277
2080.92104	0.43087
2078.99248	0.42887
2077.06392	0.42664
2075.13535	0.42435
2073.20679	0.42210
2071.27822	0.41979
2069.34966	0.41743
2067.42109	0.41507
2065.49253	0.41280
2063.56396	0.41055
2061.63540	0.40823
2059.70684	0.40585
2057.77827	0.40336
2055.84971	0.40068
2053.92114	0.39793
2051.99258	0.39528
2050.06401	0.39273
2048.13545	0.39015
2046.20688	0.38745
2044.27832	0.38468
2042.34976	0.38198
2040.42119	0.37934
2038.49263	0.37661
2036.56406	0.37380
2034.63550	0.37098
2032.70693	0.36815
2030.77837	0.36537
2028.84980	0.36263
2026.92124	0.35984
2024.99268	0.35688
2023.06411	0.35392
2021.13555	0.35112
2019.20698	0.34844
2017.27842	0.34571
2015.34985	0.34287
2013.42129	0.34011
2011.49272	0.33740
2009.56416	0.33469
2007.63560	0.33197
2005.70703	0.32926
2003.77847	0.32663
2001.84990	0.32407
1999.92134	0.32150
1997.99277	0.31893
1996.06421	0.31641
1994.13564	0.31394
1992.20708	0.31154
1990.27852	0.30898
1988.34995	0.30630
1986.42139	0.30369
1984.49282	0.30121
1982.56426	0.29883
1980.63569	0.29646
1978.70713	0.29411
1976.77856	0.29190
1974.85000	0.28977
1972.92144	0.28758
1970.99287	0.28541
1969.06431	0.28340
1967.13574	0.28150
1965.20718	0.27952
1963.27861	0.27756
1961.35005	0.27565
1959.42148	0.27367
1957.49292	0.27177
1955.56436	0.27004
1953.63579	0.26832
1951.70723	0.26658
1949.77866	0.26495
1947.85010	0.26342
1945.92153	0.26199
1943.99297	0.26073
1942.06440	0.25939
1940.13584	0.25771
1938.20728	0.25608
1936.27871	0.25469
1934.35015	0.25335
1932.42158	0.25207
1930.49302	0.25090
1928.56445	0.24984
1926.63589	0.24886
1924.70732	0.24805
1922.77876	0.24721
1920.85020	0.24622
1918.92163	0.24536
1916.99307	0.24453
1915.06450	0.24348
1913.13594	0.24251
1911.20737	0.24189
1909.27881	0.24141
1907.35024	0.24077
1905.42168	0.24001
1903.49312	0.23925
1901.56455	0.23852
1899.63599	0.23793
1897.70742	0.23759
1895.77886	0.23742
1893.85029	0.23720
1891.92173	0.23696
1889.99316	0.23685
1888.06460	0.23650
1886.13604	0.23600
1884.20747	0.23567
1882.27891	0.23549
1880.35034	0.23539
1878.42178	0.23525
1876.49321	0.23512
1874.56465	0.23517
1872.63608	0.23548
1870.70752	0.23612
1868.77896	0.23707
1866.85039	0.23740
1864.92183	0.23692
1862.99326	0.23656
1861.06470	0.23667
1859.13613	0.23713
1857.20757	0.23757
1855.27900	0.23798
1853.35044	0.23837
1851.42187	0.23889
1849.49331	0.23960
1847.56475	0.24054
1845.63618	0.24168
1843.70762	0.24276
1841.77905	0.24322
1839.85049	0.24341
1837.92192	0.24417
1835.99336	0.24515
1834.06479	0.24607
1832.13623	0.24716
1830.20767	0.24883
1828.27910	0.25049
1826.35054	0.25156
1824.42197	0.25261
1822.49341	0.25353
1820.56484	0.25450
1818.63628	0.25581
1816.70771	0.25754
1814.77915	0.25934
1812.85059	0.26124
1810.92202	0.26336
1808.99346	0.26540
1807.06489	0.26722
1805.13633	0.26901
1803.20776	0.27134
1801.27920	0.27419
1799.35063	0.27711
1797.42207	0.27955
1795.49351	0.28208
1793.56494	0.28536
1791.63638	0.28925
1789.70781	0.29237
1787.77925	0.29461
1785.85068	0.29762
1783.92212	0.30137
1781.99355	0.30542
1780.06499	0.30963
1778.13643	0.31386
1776.20786	0.31797
1774.27930	0.32266
1772.35073	0.32891
1770.42217	0.33513
1768.49360	0.34000
1766.56504	0.34476
1764.63647	0.35003
1762.70791	0.35619
1760.77935	0.36378
1758.85078	0.37078
1756.92222	0.37785
1754.99365	0.38560
1753.06509	0.39292
1751.13652	0.40171
1749.20796	0.41231
1747.27939	0.42253
1745.35083	0.43179
1743.42227	0.44171
1741.49370	0.45252
1739.56514	0.46508
1737.63657	0.47773
1735.70801	0.48914
1733.77944	0.50601
1731.85088	0.52547
1729.92231	0.54070
1727.99375	0.55609
1726.06519	0.57281
1724.13662	0.59123
1722.20806	0.61122
1720.27949	0.63018
1718.35093	0.65262
1716.42236	0.68425
1714.49380	0.71387
1712.56523	0.73850
1710.63667	0.76260
1708.70811	0.78855
1706.77954	0.81812
1704.85098	0.85291
1702.92241	0.88384
1700.99385	0.91499
1699.06528	0.96081
1697.13672	1.00252
1695.20815	1.04466
1693.27959	1.08613
1691.35103	1.12039
1689.42246	1.15964
1687.49390	1.20077
1685.56533	1.24097
1683.63677	1.30069
1681.70820	1.36098
1679.77964	1.40084
1677.85107	1.43991
1675.92251	1.48516
1673.99395	1.53985
1672.06538	1.58805
1670.13682	1.63507
1668.20825	1.69486
1666.27969	1.74372
1664.35112	1.78556
1662.42256	1.83807
1660.49399	1.89708
1658.56543	1.94383
1656.63687	1.98225
1654.70830	2.01864
1652.77974	2.07416
1650.85117	2.12405
1648.92261	2.14276
1646.99404	2.16690
1645.06548	2.19359
1643.13691	2.21139
1641.20835	2.22227
1639.27979	2.23222
1637.35122	2.23886
1635.42266	2.23926
1633.49409	2.23174
1631.56553	2.21773
1629.63696	2.19994
1627.70840	2.17280
1625.77983	2.14207
1623.85127	2.10281
1621.92271	2.05405
1619.99414	2.01106
1618.06558	1.96991
1616.13701	1.91051
1614.20845	1.84804
1612.27988	1.79944
1610.35132	1.74929
1608.42275	1.69546
1606.49419	1.64253
1604.56562	1.59388
1602.63706	1.54710
1600.70850	1.50081
1598.77993	1.45760
1596.85137	1.41748
1594.92280	1.37936
1592.99424	1.34248
1591.06567	1.30805
1589.13711	1.27576
1587.20854	1.24603
1585.27998	1.21873
1583.35142	1.19317
1581.42285	1.16960
1579.49429	1.14944
1577.56572	1.13177
1575.63716	1.11021
1573.70859	1.08981
1571.78003	1.07588
1569.85146	1.06207
1567.92290	1.04696
1565.99434	1.03509
1564.06577	1.02561
1562.13721	1.01817
1560.20864	1.01310
1558.28008	1.00618
1556.35151	0.99869
1554.42295	0.99345
1552.49438	0.98850
1550.56582	0.98302
1548.63726	0.97630
1546.70869	0.96901
1544.78013	0.96064
1542.85156	0.95062
1540.92300	0.93759
1538.99443	0.91689
1537.06587	0.90000
1535.13730	0.88886
1533.20874	0.87541
1531.28018	0.86070
1529.35161	0.84953
1527.42305	0.83938
1525.49448	0.82913
1523.56592	0.82042
1521.63735	0.81230
1519.70879	0.80342
1517.78022	0.79502
1515.85166	0.78562
1513.92310	0.77625
1511.99453	0.76855
1510.06597	0.76197
1508.13740	0.75560
1506.20884	0.74519
1504.28027	0.73529
1502.35171	0.72968
1500.42314	0.72519
1498.49458	0.72050
1496.56602	0.71466
1494.63745	0.70850
1492.70889	0.70385
1490.78032	0.70031
1488.85176	0.69618
1486.92319	0.69142
1484.99463	0.68723
1483.06606	0.68395
1481.13750	0.68126
1479.20894	0.67907
1477.28037	0.67763
1475.35181	0.67677
1473.42324	0.67599
1471.49468	0.67413
1469.56611	0.67138
1467.63755	0.66903
1465.70898	0.66722
1463.78042	0.66555
1461.85186	0.66435
1459.92329	0.66414
1457.99473	0.66472
1456.06616	0.66408
1454.13760	0.66119
1452.20903	0.65836
1450.28047	0.65600
1448.35190	0.65382
1446.42334	0.65151
1444.49478	0.64932
1442.56621	0.64732
1440.63765	0.64525
1438.70908	0.64331
1436.78052	0.64131
1434.85195	0.63875
1432.92339	0.63643
1430.99482	0.63486
1429.06626	0.63375
1427.13770	0.63283
1425.20913	0.63235
1423.28057	0.63235
1421.35200	0.63245
1419.42344	0.63246
1417.49487	0.63165
1415.56631	0.62982
1413.63774	0.62823
1411.70918	0.62732
1409.78062	0.62691
1407.85205	0.62672
1405.92349	0.62676
1403.99492	0.62684
1402.06636	0.62649
1400.13779	0.62563
1398.20923	0.62423
1396.28066	0.62239
1394.35210	0.61999
1392.42354	0.61698
1390.49497	0.61400
1388.56641	0.61113
1386.63784	0.60796
1384.70928	0.60463
1382.78071	0.60160
1380.85215	0.59892
1378.92358	0.59671
1376.99502	0.59510
1375.06646	0.59415
1373.13789	0.59338
1371.20933	0.59246
1369.28076	0.59156
1367.35220	0.59051
1365.42363	0.58940
1363.49507	0.58858
1361.56650	0.58758
1359.63794	0.58597
1357.70937	0.58435
1355.78081	0.58292
1353.85225	0.58161
1351.92368	0.58054
1349.99512	0.57969
1348.06655	0.57888
1346.13799	0.57793
1344.20942	0.57692
1342.28086	0.57609
1340.35229	0.57552
1338.42373	0.57482
1336.49517	0.57386
1334.56660	0.57292
1332.63804	0.57217
1330.70947	0.57165
1328.78091	0.57138
1326.85234	0.57127
1324.92378	0.57124
1322.99521	0.57133
1321.06665	0.57156
1319.13809	0.57171
1317.20952	0.57145
1315.28096	0.57087
1313.35239	0.57032
1311.42383	0.56973
1309.49526	0.56892
1307.56670	0.56803
1305.63813	0.56716
1303.70957	0.56621
1301.78101	0.56523
1299.85244	0.56439
1297.92388	0.56362
1295.99531	0.56270
1294.06675	0.56165
1292.13818	0.56063
1290.20962	0.55966
1288.28105	0.55865
1286.35249	0.55762
1284.42393	0.55673
1282.49536	0.55588
1280.56680	0.55499
1278.63823	0.55411
1276.70967	0.55325
1274.78110	0.55231
1272.85254	0.55138
1270.92397	0.55060
1268.99541	0.54997
1267.06685	0.54951
1265.13828	0.54912
1263.20972	0.54853
1261.28115	0.54776
1259.35259	0.54708
1257.42402	0.54653
1255.49546	0.54609
1253.56689	0.54574
1251.63833	0.54545
1249.70977	0.54517
1247.78120	0.54484
1245.85264	0.54445
1243.92407	0.54385
1241.99551	0.54306
1240.06694	0.54224
1238.13838	0.54127
1236.20981	0.53998
1234.28125	0.53846
1232.35269	0.53690
1230.42412	0.53541
1228.49556	0.53411
1226.56699	0.53298
1224.63843	0.53179
1222.70986	0.53037
1220.78130	0.52885
1218.85273	0.52756
1216.92417	0.52659
1214.99561	0.52570
1213.06704	0.52486
1211.13848	0.52414
1209.20991	0.52343
1207.28135	0.52271
1205.35278	0.52209
1203.42422	0.52150
1201.49565	0.52073
1199.56709	0.51983
1197.63853	0.51907
1195.70996	0.51848
1193.78140	0.51799
1191.85283	0.51750
1189.92427	0.51690
1187.99570	0.51622
1186.06714	0.51569
1184.13857	0.51553
1182.21001	0.51570
1180.28145	0.51616
1178.35288	0.51699
1176.42432	0.51806
1174.49575	0.51893
1172.56719	0.51954
1170.63862	0.52005
1168.71006	0.52049
1166.78149	0.52099
1164.85293	0.52167
1162.92437	0.52232
1160.99580	0.52267
1159.06724	0.52286
1157.13867	0.52293
1155.21011	0.52248
1153.28154	0.52133
1151.35298	0.51980
1149.42441	0.51796
1147.49585	0.51579
1145.56729	0.51343
1143.63872	0.51102
1141.71016	0.50859
1139.78159	0.50639
1137.85303	0.50487
1135.92446	0.50391
1133.99590	0.50327
1132.06733	0.50294
1130.13877	0.50272
1128.21021	0.50235
1126.28164	0.50179
1124.35308	0.50127
1122.42451	0.50078
1120.49595	0.50027
1118.56738	0.50011
1116.63882	0.50035
1114.71025	0.50068
1112.78169	0.50122
1110.85312	0.50208
1108.92456	0.50284
1106.99600	0.50347
1105.06743	0.50442
1103.13887	0.50559
1101.21030	0.50672
1099.28174	0.50794
1097.35317	0.50950
1095.42461	0.51182
1093.49604	0.51548
1091.56748	0.52048
1089.63892	0.52656
1087.71035	0.53394
1085.78179	0.54236
1083.85322	0.55069
1081.92466	0.55793
1079.99609	0.56359
1078.06753	0.56707
1076.13896	0.56765
1074.21040	0.56490
1072.28184	0.55935
1070.35327	0.55247
1068.42471	0.54515
1066.49614	0.53784
1064.56758	0.53135
1062.63901	0.52597
1060.71045	0.52131
1058.78188	0.51721
1056.85332	0.51364
1054.92476	0.51041
1052.99619	0.50754
1051.06763	0.50535
1049.13906	0.50389
1047.21050	0.50316
1045.28193	0.50304
1043.35337	0.50319
1041.42480	0.50329
1039.49624	0.50324
1037.56768	0.50318
1035.63911	0.50303
1033.71055	0.50241
1031.78198	0.50136
1029.85342	0.50015
1027.92485	0.49882
1025.99629	0.49746
1024.06772	0.49634
1022.13916	0.49570
1020.21060	0.49548
1018.28203	0.49525
1016.35347	0.49496
1014.42490	0.49498
1012.49634	0.49514
1010.56777	0.49529
1008.63921	0.49548
1006.71064	0.49586
1004.78208	0.49683
1002.85352	0.49860
1000.92495	0.50117
998.99639	0.50444
997.06782	0.50825
995.13926	0.51253
993.21069	0.51683
991.28213	0.52013
989.35356	0.52191
987.42500	0.52251
985.49644	0.52271
983.56787	0.52292
981.63931	0.52317
979.71074	0.52390
977.78218	0.52537
975.85361	0.52725
973.92505	0.52958
971.99648	0.53274
970.06792	0.53640
968.13936	0.54022
966.21079	0.54439
964.28223	0.54889
962.35366	0.55353
960.42510	0.55844
958.49653	0.56377
956.56797	0.56942
954.63940	0.57540
952.71084	0.58175
950.78228	0.58816
948.85371	0.59446
946.92515	0.60077
944.99658	0.60694
943.06802	0.61303
941.13945	0.61945
939.21089	0.62601
937.28232	0.63205
935.35376	0.63761
933.42520	0.64303
931.49663	0.64852
929.56807	0.65432
927.63950	0.65985
925.71094	0.66475
923.78237	0.67013
921.85381	0.67704
919.92524	0.68522
917.99668	0.69369
916.06812	0.70171
914.13955	0.70886
912.21099	0.71548
910.28242	0.72281
908.35386	0.73124
906.42529	0.74029
904.49673	0.74952
902.56816	0.75893
900.63960	0.76878
898.71104	0.77872
896.78247	0.78830
894.85391	0.79765
892.92534	0.80774
890.99678	0.81889
889.06821	0.82997
887.13965	0.84012
885.21108	0.84971
883.28252	0.85998
881.35396	0.87174
879.42539	0.88479
877.49683	0.89786
875.56826	0.91051
873.63970	0.92293
871.71113	0.93328
869.78257	0.94165
867.85400	0.95194
865.92544	0.96597
863.99687	0.98056
862.06831	0.99208
860.13975	1.00153
858.21118	1.01219
856.28262	1.02407
854.35405	1.03557
852.42549	1.04756
850.49692	1.05992
848.56836	1.07131
846.63979	1.08255
844.71123	1.09333
842.78267	1.10314
840.85410	1.11493
838.92554	1.12964
836.99697	1.14267
835.06841	1.15217
833.13984	1.16318
831.21128	1.17658
829.28271	1.19011
827.35415	1.20493
825.42559	1.22029
823.49702	1.23411
821.56846	1.24185
819.63989	1.24595
817.71133	1.25471
815.78276	1.26998
813.85420	1.29279
811.92563	1.31798
809.99707	1.34009
808.06851	1.35683
806.13994	1.35859
804.21138	1.34907
802.28281	1.34373
800.35425	1.34458
798.42568	1.35728
796.49712	1.38878
794.56855	1.42233
792.63999	1.44132
790.71143	1.43483
788.78286	1.41849
786.85430	1.45491
784.92573	1.56796
782.99717	1.63402
781.06860	1.57348
779.14004	1.55414
777.21147	1.58856
775.28291	1.52513
773.35435	1.40680
771.42578	1.38809
769.49722	1.46944
767.56865	1.50976
765.64009	1.46970
763.71152	1.42707
761.78296	1.39774
759.85439	1.39978
757.92583	1.43780
755.99727	1.49590
754.06870	1.44684
752.14014	1.27029
750.21157	1.19965
748.28301	1.25281
746.35444	1.28586
744.42588	1.21774
742.49731	1.08920
740.56875	0.94798
738.64019	0.89545
736.71162	0.93551
734.78306	0.96045
732.85449	0.91249
730.92593	0.87223
728.99736	0.93607
727.06880	4.36241
725.14023	4.35084
723.21167	4.33927
721.28311	1.03881
719.35454	0.58900
717.42598	0.84228
715.49741	0.74217
713.56885	0.34554
711.64028	0.21039
709.71172	0.15489
707.78315	0.14653
705.85459	0.19474
703.92603	0.30804
701.99746	0.55638
700.06890	0.83501
698.14033	0.62353
696.21177	0.46906
694.28320	0.50303
692.35464	0.59781
690.42607	0.58448
688.49751	0.58834
686.56895	0.78662
684.64038	0.79508
682.71182	0.50173
680.78325	0.40566
678.85469	0.37653
676.92612	0.29296
674.99756	0.26724
673.06899	0.39163
671.14043	0.62514
669.21187	0.59178
667.28330	0.54327
665.35474	0.84117
663.42617	3.98056
661.49761	0.74599
659.56904	0.43647
657.64048	0.35267
655.71191	0.39601
653.78335	0.44093
651.85479	0.49411
649.92622	0.75026
647.99766	3.88799
646.06909	1.50336
644.14053	0.75572
642.21196	0.58901
640.28340	0.60823
638.35483	0.64997
636.42627	0.61126
634.49771	0.48904
632.56914	0.39401
630.64058	0.37006
628.71201	0.41853
626.78345	0.51210
624.85488	0.50387
622.92632	0.45819
620.99775	0.40156
619.06919	0.31478
617.14062	0.30565
615.21206	0.40690
613.28350	0.47780
611.35493	0.44156
609.42637	0.49806
607.49780	0.68360
605.56924	0.63289
603.64067	0.48054
601.71211	0.41558
599.78354	0.44063
597.85498	0.55461
595.92642	0.72338
593.99785	0.68239
592.06929	0.46186
590.14072	0.34126
588.21216	0.34828
586.28359	0.49861
584.35503	0.81935
582.42646	0.65119
580.49790	0.39261
578.56934	0.33387
576.64077	0.38858
574.71221	0.47865
572.78364	0.48038
570.85508	0.42702
568.92651	0.33929
566.99795	0.21635
565.06938	0.15320
563.14082	0.16598
561.21226	0.18082
559.28369	0.19041
557.35513	0.20787
555.42656	0.22605
553.49800	0.28400
551.56943	0.40377
549.64087	0.51552
547.71230	0.54029
545.78374	0.57930
543.85518	0.66568
541.92661	0.47886
539.99805	0.33487
538.06948	0.34238
536.14092	0.37351
534.21235	0.31516
532.28379	0.27255
530.35522	0.23553
528.42666	0.21551
526.49810	0.27866
524.56953	0.33816
522.64097	0.25640
520.71240	0.22031
518.78384	0.27761
516.85527	0.35628
514.92671	0.40312
512.99814	0.41973
511.06958	0.46518
509.14102	0.47977
507.21245	0.35514
505.28389	0.24459
503.35532	0.20579
501.42676	0.24329
499.49819	0.35577
