3997.91411	0.06349
3995.98555	0.06366
3994.05698	0.06438
3992.12842	0.06547
3990.19985	0.06621
3988.27129	0.06640
3986.34272	0.06635
3984.41416	0.06640
3982.48560	0.06689
3980.55703	0.06777
3978.62847	0.06815
3976.69990	0.06803
3974.77134	0.06813
3972.84277	0.06801
3970.91421	0.06733
3968.98564	0.06690
3967.05708	0.06733
3965.12852	0.06821
3963.19995	0.06892
3961.27139	0.06932
3959.34282	0.06929
3957.41426	0.06867
3955.48569	0.06813
3953.55713	0.06837
3951.62856	0.06919
3949.70000	0.06991
3947.77144	0.07005
3945.84287	0.06988
3943.91431	0.06998
3941.98574	0.07023
3940.05718	0.06989
3938.12861	0.06918
3936.20005	0.06882
3934.27148	0.06907
3932.34292	0.06986
3930.41436	0.07061
3928.48579	0.07053
3926.55723	0.07006
3924.62866	0.06997
3922.70010	0.06981
3920.77153	0.06928
3918.84297	0.06878
3916.91440	0.06861
3914.98584	0.06878
3913.05728	0.06876
3911.12871	0.06825
3909.20015	0.06784
3907.27158	0.06822
3905.34302	0.06942
3903.41445	0.07087
3901.48589	0.07154
3899.55732	0.07121
3897.62876	0.07042
3895.70020	0.06942
3893.77163	0.06877
3891.84307	0.06879
3889.91450	0.06897
3887.98594	0.06893
3886.05737	0.06932
3884.12881	0.07024
3882.20024	0.07085
3880.27168	0.07083
3878.34312	0.07019
3876.41455	0.06971
3874.48599	0.07004
3872.55742	0.07096
3870.62886	0.07214
3868.70029	0.07293
3866.77173	0.07275
3864.84316	0.07259
3862.91460	0.07284
3860.98604	0.07275
3859.05747	0.07253
3857.12891	0.07291
3855.20034	0.07395
3853.27178	0.07531
3851.34321	0.07604
3849.41465	0.07556
3847.48608	0.07505
3845.55752	0.07521
3843.62896	0.07613
3841.70039	0.07739
3839.77183	0.07870
3837.84326	0.07996
3835.91470	0.08088
3833.98613	0.08147
3832.05757	0.08151
3830.12900	0.08125
3828.20044	0.08157
3826.27187	0.08256
3824.34331	0.08348
3822.41475	0.08465
3820.48618	0.08664
3818.55762	0.08721
3816.62905	0.08643
3814.70049	0.08690
3812.77192	0.08797
3810.84336	0.08842
3808.91479	0.08903
3806.98623	0.09037
3805.05767	0.09184
3803.12910	0.09304
3801.20054	0.09442
3799.27197	0.09564
3797.34341	0.09664
3795.41484	0.09755
3793.48628	0.09795
3791.55771	0.09852
3789.62915	0.09980
3787.70059	0.10137
3785.77202	0.10289
3783.84346	0.10434
3781.91489	0.10577
3779.98633	0.10744
3778.05776	0.10945
3776.12920	0.11111
3774.20063	0.11219
3772.27207	0.11321
3770.34351	0.11505
3768.41494	0.11774
3766.48638	0.11998
3764.55781	0.12167
3762.62925	0.12312
3760.70068	0.12496
3758.77212	0.12787
3756.84355	0.13089
3754.91499	0.13299
3752.98643	0.13542
3751.05786	0.13967
3749.12930	0.14424
3747.20073	0.14626
3745.27217	0.14759
3743.34360	0.15060
3741.41504	0.15443
3739.48647	0.15763
3737.55791	0.16115
3735.62935	0.16598
3733.70078	0.17161
3731.77222	0.17616
3729.84365	0.17953
3727.91509	0.18312
3725.98652	0.18821
3724.05796	0.19439
3722.12939	0.20080
3720.20083	0.20747
3718.27227	0.21436
3716.34370	0.22192
3714.41514	0.22994
3712.48657	0.23913
3710.55801	0.25178
3708.62944	0.26569
3706.70088	0.27709
3704.77231	0.28770
3702.84375	0.30022
3700.91519	0.31650
3698.98662	0.33452
3697.05806	0.35195
3695.12949	0.37032
3693.20093	0.38990
3691.27236	0.41138
3689.34380	0.43879
3687.41523	0.47184
3685.48667	0.50091
3683.55811	0.52672
3681.62954	0.55502
3679.70098	0.58652
3677.77241	0.61909
3675.84385	0.65750
3673.91528	0.70873
3671.98672	0.75123
3670.05815	0.78939
3668.12959	0.84115
3666.20103	0.88903
3664.27246	0.92932
3662.34390	0.97243
3660.41533	1.01909
3658.48677	1.06518
3656.55820	1.11376
3654.62964	1.16701
3652.70107	1.21195
3650.77251	1.25136
3648.84395	1.30501
3646.91538	1.37078
3644.98682	1.42104
3643.05825	1.46058
3641.12969	1.50089
3639.20112	1.54486
3637.27256	1.58876
3635.34399	1.63127
3633.41543	1.67386
3631.48687	1.71387
3629.55830	1.75412
3627.62974	1.80570
3625.70117	1.85419
3623.77261	1.88839
3621.84404	1.92171
3619.91548	1.95982
3617.98691	2.00515
3616.05835	2.04804
3614.12979	2.08369
3612.20122	2.12160
3610.27266	2.16098
3608.34409	2.20081
3606.41553	2.24180
3604.48696	2.28037
3602.55840	2.31637
3600.62983	2.35505
3598.70127	2.39621
3596.77271	2.43576
3594.84414	2.47538
3592.91558	2.51708
3590.98701	2.55736
3589.05845	2.59427
3587.12988	2.63686
3585.20132	2.68473
3583.27275	2.72613
3581.34419	2.76351
3579.41562	2.80317
3577.48706	2.84569
3575.55850	2.88968
3573.62993	2.93407
3571.70137	2.97513
3569.77280	3.01335
3567.84424	3.05409
3565.91567	3.10418
3563.98711	3.15445
3562.05854	3.19611
3560.12998	3.23736
3558.20142	3.28271
3556.27285	3.32956
3554.34429	3.37535
3552.41572	3.42230
3550.48716	3.46884
3548.55859	3.51314
3546.63003	3.55956
3544.70146	3.61190
3542.77290	3.66341
3540.84434	3.70753
3538.91577	3.74853
3536.98721	3.79115
3535.05864	3.83876
3533.13008	3.88817
3531.20151	3.93455
3529.27295	3.97998
3527.34438	4.02874
3525.41582	4.07839
3523.48726	4.12557
3521.55869	4.17280
3519.63013	4.22094
3517.70156	4.27097
3515.77300	4.32215
3513.84443	4.37146
3511.91587	4.42078
3509.98730	4.47079
3508.05874	4.51603
3506.13018	4.55670
3504.20161	4.59936
3502.27305	4.64946
3500.34448	4.70491
3498.41592	4.75643
3496.48735	4.79911
3494.55879	4.83747
3492.63022	4.88304
3490.70166	4.93681
3488.77310	4.99003
3486.84453	5.04176
3484.91597	5.09447
3482.98740	5.14356
3481.05884	5.18622
3479.13027	5.22773
3477.20171	5.27501
3475.27314	5.32636
3473.34458	5.38027
3471.41602	5.43771
3469.48745	5.49079
3467.55889	5.53700
3465.63032	5.57870
3463.70176	5.62052
3461.77319	5.66829
3459.84463	5.72313
3457.91606	5.78135
3455.98750	5.83028
3454.05894	5.86058
3452.13037	5.88474
3450.20181	5.92407
3448.27324	5.97671
3446.34468	6.03238
3444.41611	6.09220
3442.48755	6.15720
3440.55898	6.22190
3438.63042	6.27185
3436.70186	6.29744
3434.77329	6.32421
3432.84473	6.36877
3430.91616	6.41826
3428.98760	6.47244
3427.05903	6.52000
3425.13047	6.56433
3423.20190	6.63011
3421.27334	6.69513
3419.34478	6.71690
3417.41621	6.72708
3415.48765	6.76912
3413.55908	6.83155
3411.63052	6.89336
3409.70195	6.93521
3407.77339	6.97104
3405.84482	7.01559
3403.91626	7.04823
3401.98770	7.03660
3400.05913	7.01779
3398.13057	7.05236
3396.20200	7.12051
3394.27344	7.20109
3392.34487	7.28784
3390.41631	7.35732
3388.48774	7.40266
3386.55918	7.44540
3384.63062	7.46896
3382.70205	7.45532
3380.77349	7.42799
3378.84492	7.42843
3376.91636	7.50897
3374.98779	7.63035
3373.05923	7.68598
3371.13066	7.65546
3369.20210	7.62603
3367.27354	7.64196
3365.34497	7.70415
3363.41641	7.78036
3361.48784	7.79088
3359.55928	7.75089
3357.63071	7.72493
3355.70215	7.71359
3353.77358	7.70932
3351.84502	7.74292
3349.91646	7.77968
3347.98789	7.78579
3346.05933	7.78853
3344.13076	7.81033
3342.20220	7.83705
3340.27363	7.81054
3338.34507	7.76533
3336.41650	7.77050
3334.48794	7.82305
3332.55937	7.88252
3330.63081	7.92004
3328.70225	7.91184
3326.77368	7.93378
3324.84512	8.04388
3322.91655	8.06703
3320.98799	7.93327
3319.05942	7.84278
3317.13086	7.92355
3315.20229	8.06574
3313.27373	8.09036
3311.34517	8.03561
3309.41660	7.98457
3307.48804	7.92884
3305.55947	7.90683
3303.63091	7.94392
3301.70234	7.95571
3299.77378	7.90077
3297.84521	7.84388
3295.91665	7.89316
3293.98809	8.01707
3292.05952	8.06853
3290.13096	8.06811
3288.20239	8.11595
3286.27383	8.16686
3284.34526	8.09547
3282.41670	7.97362
3280.48813	7.91459
3278.55957	7.91704
3276.63101	7.94941
3274.70244	7.97340
3272.77388	7.98675
3270.84531	7.99396
3268.91675	7.97017
3266.98818	7.93792
3265.05962	7.92964
3263.13105	7.94361
3261.20249	7.99825
3259.27393	8.07268
3257.34536	8.13484
3255.41680	8.13952
3253.48823	8.08204
3251.55967	8.06687
3249.63110	8.06218
3247.70254	8.01059
3245.77397	7.98032
3243.84541	7.98223
3241.91685	7.98080
3239.98828	7.98033
3238.05972	8.00219
3236.13115	8.01869
3234.20259	7.96332
3232.27402	7.88318
3230.34546	7.85792
3228.41689	7.86844
3226.48833	7.88633
3224.55977	7.90097
3222.63120	7.91608
3220.70264	7.95554
3218.77407	7.97196
3216.84551	7.90937
3214.91694	7.84258
3212.98838	7.82997
3211.05981	7.82069
3209.13125	7.77769
3207.20269	7.74883
3205.27412	7.75184
3203.34556	7.74508
3201.41699	7.70765
3199.48843	7.64683
3197.55986	7.60064
3195.63130	7.56811
3193.70273	7.52910
3191.77417	7.49188
3189.84561	7.45048
3187.91704	7.43161
3185.98848	7.44279
3184.05991	7.41491
3182.13135	7.34776
3180.20278	7.29178
3178.27422	7.21569
3176.34565	7.12976
3174.41709	7.08138
3172.48853	7.04122
3170.55996	6.97960
3168.63140	6.91547
3166.70283	6.87331
3164.77427	6.83514
3162.84570	6.76726
3160.91714	6.69519
3158.98857	6.65237
3157.06001	6.60802
3155.13145	6.53549
3153.20288	6.45584
3151.27432	6.38003
3149.34575	6.30894
3147.41719	6.25692
3145.48862	6.20989
3143.56006	6.13361
3141.63149	6.04518
3139.70293	5.97776
3137.77437	5.92585
3135.84580	5.86791
3133.91724	5.79799
3131.98867	5.72358
3130.06011	5.65681
3128.13154	5.60365
3126.20298	5.54546
3124.27441	5.46389
3122.34585	5.37071
3120.41729	5.28910
3118.48872	5.22334
3116.56016	5.16084
3114.63159	5.09369
3112.70303	5.02645
3110.77446	4.96064
3108.84590	4.88919
3106.91733	4.81671
3104.98877	4.74960
3103.06021	4.68245
3101.13164	4.61136
3099.20308	4.53964
3097.27451	4.47323
3095.34595	4.41240
3093.41738	4.34985
3091.48882	4.28224
3089.56025	4.21572
3087.63169	4.15353
3085.70312	4.09226
3083.77456	4.02983
3081.84600	3.96708
3079.91743	3.90565
3077.98887	3.84551
3076.06030	3.78446
3074.13174	3.72292
3072.20317	3.66416
3070.27461	3.60746
3068.34604	3.54998
3066.41748	3.49262
3064.48892	3.43765
3062.56035	3.38416
3060.63179	3.32960
3058.70322	3.27445
3056.77466	3.21983
3054.84609	3.16534
3052.91753	3.11154
3050.98896	3.05912
3049.06040	3.00776
3047.13184	2.95775
3045.20327	2.90883
3043.27471	2.85993
3041.34614	2.81121
3039.41758	2.76260
3037.48901	2.71415
3035.56045	2.66760
3033.63188	2.62294
3031.70332	2.57851
3029.77476	2.53417
3027.84619	2.49031
3025.91763	2.44658
3023.98906	2.40311
3022.06050	2.36078
3020.13193	2.31985
3018.20337	2.27933
3016.27480	2.23862
3014.34624	2.19860
3012.41768	2.15973
3010.48911	2.12146
3008.56055	2.08361
3006.63198	2.04659
3004.70342	2.01063
3002.77485	1.97544
3000.84629	1.94097
2998.91772	1.90720
2996.98916	1.87410
2995.06060	1.84208
2993.13203	1.81043
2991.20347	1.77856
2989.27490	1.74746
2987.34634	1.71741
2985.41777	1.68797
2983.48921	1.65930
2981.56064	1.63128
2979.63208	1.60373
2977.70352	1.57672
2975.77495	1.54988
2973.84639	1.52318
2971.91782	1.49707
2969.98926	1.47138
2968.06069	1.44593
2966.13213	1.42106
2964.20356	1.39669
2962.27500	1.37239
2960.34644	1.34812
2958.41787	1.32401
2956.48931	1.30030
2954.56074	1.27696
2952.63218	1.25368
2950.70361	1.23073
2948.77505	1.20847
2946.84648	1.18657
2944.91792	1.16499
2942.98936	1.14399
2941.06079	1.12309
2939.13223	1.10228
2937.20366	1.08222
2935.27510	1.06249
2933.34653	1.04236
2931.41797	1.02205
2929.48940	1.00186
2927.56084	0.98241
2925.63228	0.96410
2923.70371	0.94637
2921.77515	0.92893
2919.84658	0.91214
2917.91802	0.89603
2915.98945	0.88034
2914.06089	0.86484
2912.13232	0.84956
2910.20376	0.83466
2908.27520	0.82002
2906.34663	0.80550
2904.41807	0.79125
2902.48950	0.77723
2900.56094	0.76338
2898.63237	0.75004
2896.70381	0.73738
2894.77524	0.72491
2892.84668	0.71232
2890.91812	0.70017
2888.98955	0.68861
2887.06099	0.67725
2885.13242	0.66656
2883.20386	0.65665
2881.27529	0.64678
2879.34673	0.63674
2877.41816	0.62687
2875.48960	0.61703
2873.56104	0.60688
2871.63247	0.59656
2869.70391	0.58592
2867.77534	0.57470
2865.84678	0.56336
2863.91821	0.55249
2861.98965	0.54201
2860.06108	0.53171
2858.13252	0.52167
2856.20396	0.51217
2854.27539	0.50335
2852.34683	0.49504
2850.41826	0.48692
2848.48970	0.47887
2846.56113	0.47129
2844.63257	0.46459
2842.70400	0.45843
2840.77544	0.45224
2838.84687	0.44595
2836.91831	0.43970
2834.98975	0.43348
2833.06118	0.42736
2831.13262	0.42146
2829.20405	0.41562
2827.27549	0.40974
2825.34692	0.40395
2823.41836	0.39826
2821.48979	0.39244
2819.56123	0.38659
2817.63267	0.38093
2815.70410	0.37536
2813.77554	0.36985
2811.84697	0.36446
2809.91841	0.35912
2807.98984	0.35393
2806.06128	0.34897
2804.13271	0.34403
2802.20415	0.33906
2800.27559	0.33432
2798.34702	0.32984
2796.41846	0.32535
2794.48989	0.32073
2792.56133	0.31609
2790.63276	0.31155
2788.70420	0.30714
2786.77563	0.30289
2784.84707	0.29884
2782.91851	0.29486
2780.98994	0.29089
2779.06138	0.28697
2777.13281	0.28322
2775.20425	0.27961
2773.27568	0.27600
2771.34712	0.27230
2769.41855	0.26873
2767.48999	0.26547
2765.56143	0.26227
2763.63286	0.25882
2761.70430	0.25532
2759.77573	0.25207
2757.84717	0.24904
2755.91860	0.24609
2753.99004	0.24319
2752.06147	0.24029
2750.13291	0.23742
2748.20435	0.23462
2746.27578	0.23193
2744.34722	0.22933
2742.41865	0.22671
2740.49009	0.22401
2738.56152	0.22141
2736.63296	0.21896
2734.70439	0.21649
2732.77583	0.21403
2730.84727	0.21167
2728.91870	0.20939
2726.99014	0.20726
2725.06157	0.20518
2723.13301	0.20307
2721.20444	0.20105
2719.27588	0.19916
2717.34731	0.19733
2715.41875	0.19564
2713.49019	0.19394
2711.56162	0.19208
2709.63306	0.19036
2707.70449	0.18884
2705.77593	0.18735
2703.84736	0.18575
2701.91880	0.18410
2699.99023	0.18258
2698.06167	0.18117
2696.13311	0.17969
2694.20454	0.17819
2692.27598	0.17689
2690.34741	0.17580
2688.41885	0.17474
2686.49028	0.17350
2684.56172	0.17207
2682.63315	0.17065
2680.70459	0.16944
2678.77603	0.16843
2676.84746	0.16748
2674.91890	0.16654
2672.99033	0.16561
2671.06177	0.16467
2669.13320	0.16376
2667.20464	0.16288
2665.27607	0.16209
2663.34751	0.16132
2661.41895	0.16048
2659.49038	0.15975
2657.56182	0.15917
2655.63325	0.15838
2653.70469	0.15735
2651.77612	0.15655
2649.84756	0.15617
2647.91899	0.15587
2645.99043	0.15532
2644.06187	0.15469
2642.13330	0.15416
2640.20474	0.15365
2638.27617	0.15309
2636.34761	0.15266
2634.41904	0.15232
2632.49048	0.15186
2630.56191	0.15134
2628.63335	0.15092
2626.70479	0.15060
2624.77622	0.15035
2622.84766	0.15008
2620.91909	0.14981
2618.99053	0.14965
2617.06196	0.14952
2615.13340	0.14924
2613.20483	0.14904
2611.27627	0.14901
2609.34771	0.14901
2607.41914	0.14905
2605.49058	0.14913
2603.56201	0.14916
2601.63345	0.14909
2599.70488	0.14898
2597.77632	0.14900
2595.84775	0.14913
2593.91919	0.14930
2591.99062	0.14948
2590.06206	0.14972
2588.13350	0.15003
2586.20493	0.15022
2584.27637	0.15022
2582.34780	0.15015
2580.41924	0.15026
2578.49067	0.15066
2576.56211	0.15112
2574.63354	0.15146
2572.70498	0.15179
2570.77642	0.15222
2568.84785	0.15259
2566.91929	0.15284
2564.99072	0.15318
2563.06216	0.15361
2561.13359	0.15400
2559.20503	0.15436
2557.27646	0.15478
2555.34790	0.15534
2553.41934	0.15600
2551.49077	0.15657
2549.56221	0.15712
2547.63364	0.15769
2545.70508	0.15820
2543.77651	0.15861
2541.84795	0.15909
2539.91938	0.15977
2537.99082	0.16058
2536.06226	0.16130
2534.13369	0.16192
2532.20513	0.16261
2530.27656	0.16343
2528.34800	0.16419
2526.41943	0.16478
2524.49087	0.16539
2522.56230	0.16613
2520.63374	0.16693
2518.70518	0.16779
2516.77661	0.16871
2514.84805	0.16958
2512.91948	0.17032
2510.99092	0.17104
2509.06235	0.17184
2507.13379	0.17269
2505.20522	0.17354
2503.27666	0.17437
2501.34810	0.17516
2499.41953	0.17603
2497.49097	0.17696
2495.56240	0.17780
2493.63384	0.17858
2491.70527	0.17940
2489.77671	0.18031
2487.84814	0.18125
2485.91958	0.18210
2483.99102	0.18285
2482.06245	0.18363
2480.13389	0.18453
2478.20532	0.18552
2476.27676	0.18646
2474.34819	0.18731
2472.41963	0.18813
2470.49106	0.18900
2468.56250	0.18992
2466.63394	0.19088
2464.70537	0.19185
2462.77681	0.19283
2460.84824	0.19382
2458.91968	0.19476
2456.99111	0.19560
2455.06255	0.19646
2453.13398	0.19747
2451.20542	0.19853
2449.27686	0.19951
2447.34829	0.20046
2445.41973	0.20147
2443.49116	0.20258
2441.56260	0.20367
2439.63403	0.20466
2437.70547	0.20563
2435.77690	0.20664
2433.84834	0.20777
2431.91978	0.20891
2429.99121	0.20994
2428.06265	0.21101
2426.13408	0.21215
2424.20552	0.21323
2422.27695	0.21428
2420.34839	0.21540
2418.41982	0.21657
2416.49126	0.21768
2414.56270	0.21880
2412.63413	0.21995
2410.70557	0.22110
2408.77700	0.22223
2406.84844	0.22331
2404.91987	0.22439
2402.99131	0.22549
2401.06274	0.22667
2399.13418	0.22797
2397.20562	0.22935
2395.27705	0.23066
2393.34849	0.23181
2391.41992	0.23302
2389.49136	0.23434
2387.56279	0.23565
2385.63423	0.23703
2383.70566	0.23853
2381.77710	0.24007
2379.84854	0.24178
2377.91997	0.24380
2375.99141	0.24591
2374.06284	0.24768
2372.13428	0.24909
2370.20571	0.25071
2368.27715	0.25278
2366.34858	0.25431
2364.42002	0.25486
2362.49146	0.25621
2360.56289	0.25888
2358.63433	0.26108
2356.70576	0.26210
2354.77720	0.26329
2352.84863	0.26540
2350.92007	0.26706
2348.99150	0.26780
2347.06294	0.26844
2345.13437	0.26963
2343.20581	0.27160
2341.27725	0.27391
2339.34868	0.27576
2337.42012	0.27730
2335.49155	0.27903
2333.56299	0.28065
2331.63442	0.28222
2329.70586	0.28383
2327.77729	0.28554
2325.84873	0.28727
2323.92017	0.28885
2321.99160	0.29036
2320.06304	0.29176
2318.13447	0.29296
2316.20591	0.29421
2314.27734	0.29584
2312.34878	0.29766
2310.42021	0.29926
2308.49165	0.30073
2306.56309	0.30226
2304.63452	0.30388
2302.70596	0.30561
2300.77739	0.30742
2298.84883	0.30915
2296.92026	0.31078
2294.99170	0.31250
2293.06313	0.31445
2291.13457	0.31630
2289.20601	0.31791
2287.27744	0.31960
2285.34888	0.32155
2283.42031	0.32355
2281.49175	0.32545
2279.56318	0.32737
2277.63462	0.32942
2275.70605	0.33155
2273.77749	0.33365
2271.84893	0.33570
2269.92036	0.33781
2267.99180	0.34004
2266.06323	0.34228
2264.13467	0.34444
2262.20610	0.34659
2260.27754	0.34874
2258.34897	0.35087
2256.42041	0.35301
2254.49185	0.35516
2252.56328	0.35731
2250.63472	0.35947
2248.70615	0.36158
2246.77759	0.36363
2244.84902	0.36575
2242.92046	0.36796
2240.99189	0.37026
2239.06333	0.37250
2237.13477	0.37460
2235.20620	0.37664
2233.27764	0.37880
2231.34907	0.38118
2229.42051	0.38363
2227.49194	0.38590
2225.56338	0.38812
2223.63481	0.39037
2221.70625	0.39256
2219.77769	0.39482
2217.84912	0.39713
2215.92056	0.39930
2213.99199	0.40130
2212.06343	0.40322
2210.13486	0.40527
2208.20630	0.40758
2206.27773	0.40992
2204.34917	0.41208
2202.42061	0.41412
2200.49204	0.41608
2198.56348	0.41802
2196.63491	0.41991
2194.70635	0.42170
2192.77778	0.42343
2190.84922	0.42526
2188.92065	0.42719
2186.99209	0.42916
2185.06353	0.43110
2183.13496	0.43280
2181.20640	0.43435
2179.27783	0.43599
2177.34927	0.43774
2175.42070	0.43938
2173.49214	0.44081
2171.56357	0.44216
2169.63501	0.44352
2167.70645	0.44478
2165.77788	0.44596
2163.84932	0.44718
2161.92075	0.44832
2159.99219	0.44939
2158.06362	0.45040
2156.13506	0.45131
2154.20649	0.45221
2152.27793	0.45306
2150.34937	0.45375
2148.42080	0.45438
2146.49224	0.45495
2144.56367	0.45535
2142.63511	0.45564
2140.70654	0.45593
2138.77798	0.45623
2136.84941	0.45648
2134.92085	0.45659
2132.99229	0.45653
2131.06372	0.45634
2129.13516	0.45611
2127.20659	0.45581
2125.27803	0.45543
2123.34946	0.45502
2121.42090	0.45456
2119.49233	0.45397
2117.56377	0.45335
2115.63521	0.45272
2113.70664	0.45199
2111.77808	0.45106
2109.84951	0.44995
2107.92095	0.44867
2105.99238	0.44728
2104.06382	0.44603
2102.13525	0.44495
2100.20669	0.44377
2098.27812	0.44238
2096.34956	0.44095
2094.42100	0.43940
2092.49243	0.43765
2090.56387	0.43589
2088.63530	0.43408
2086.70674	0.43213
2084.77817	0.43022
2082.84961	0.42838
2080.92104	0.42641
2078.99248	0.42429
2077.06392	0.42209
2075.13535	0.41989
2073.20679	0.41775
2071.27822	0.41552
2069.34966	0.41317
2067.42109	0.41087
2065.49253	0.40871
2063.56396	0.40637
2061.63540	0.40378
2059.70684	0.40118
2057.77827	0.39866
2055.84971	0.39610
2053.92114	0.39351
2051.99258	0.39088
2050.06401	0.38818
2048.13545	0.38551
2046.20688	0.38289
2044.27832	0.38026
2042.34976	0.37763
2040.42119	0.37499
2038.49263	0.37224
2036.56406	0.36938
2034.63550	0.36656
2032.70693	0.36382
2030.77837	0.36112
2028.84980	0.35835
2026.92124	0.35551
2024.99268	0.35263
2023.06411	0.34977
2021.13555	0.34699
2019.20698	0.34430
2017.27842	0.34163
2015.34985	0.33890
2013.42129	0.33611
2011.49272	0.33330
2009.56416	0.33052
2007.63560	0.32784
2005.70703	0.32524
2003.77847	0.32257
2001.84990	0.31990
1999.92134	0.31733
1997.99277	0.31482
1996.06421	0.31232
1994.13564	0.30986
1992.20708	0.30735
1990.27852	0.30475
1988.34995	0.30223
1986.42139	0.29971
1984.49282	0.29710
1982.56426	0.29465
1980.63569	0.29244
1978.70713	0.29027
1976.77856	0.28808
1974.85000	0.28587
1972.92144	0.28359
1970.99287	0.28134
1969.06431	0.27932
1967.13574	0.27746
1965.20718	0.27553
1963.27861	0.27351
1961.35005	0.27154
1959.42148	0.26969
1957.49292	0.26789
1955.56436	0.26610
1953.63579	0.26436
1951.70723	0.26265
1949.77866	0.26105
1947.85010	0.25948
1945.92153	0.25798
1943.99297	0.25664
1942.06440	0.25521
1940.13584	0.25360
1938.20728	0.25209
1936.27871	0.25075
1934.35015	0.24945
1932.42158	0.24821
1930.49302	0.24709
1928.56445	0.24608
1926.63589	0.24507
1924.70732	0.24410
1922.77876	0.24312
1920.85020	0.24212
1918.92163	0.24129
1916.99307	0.24042
1915.06450	0.23932
1913.13594	0.23835
1911.20737	0.23777
1909.27881	0.23723
1907.35024	0.23656
1905.42168	0.23588
1903.49312	0.23531
1901.56455	0.23478
1899.63599	0.23423
1897.70742	0.23376
1895.77886	0.23344
1893.85029	0.23318
1891.92173	0.23285
1889.99316	0.23265
1888.06460	0.23242
1886.13604	0.23206
1884.20747	0.23178
1882.27891	0.23157
1880.35034	0.23141
1878.42178	0.23131
1876.49321	0.23134
1874.56465	0.23149
1872.63608	0.23178
1870.70752	0.23221
1868.77896	0.23272
1866.85039	0.23283
1864.92183	0.23263
1862.99326	0.23265
1861.06470	0.23288
1859.13613	0.23323
1857.20757	0.23361
1855.27900	0.23410
1853.35044	0.23456
1851.42187	0.23496
1849.49331	0.23550
1847.56475	0.23633
1845.63618	0.23735
1843.70762	0.23837
1841.77905	0.23903
1839.85049	0.23945
1837.92192	0.24019
1835.99336	0.24100
1834.06479	0.24189
1832.13623	0.24301
1830.20767	0.24461
1828.27910	0.24624
1826.35054	0.24729
1824.42197	0.24837
1822.49341	0.24953
1820.56484	0.25071
1818.63628	0.25203
1816.70771	0.25370
1814.77915	0.25550
1812.85059	0.25739
1810.92202	0.25942
1808.99346	0.26136
1807.06489	0.26321
1805.13633	0.26510
1803.20776	0.26739
1801.27920	0.27004
1799.35063	0.27290
1797.42207	0.27541
1795.49351	0.27782
1793.56494	0.28076
1791.63638	0.28449
1789.70781	0.28783
1787.77925	0.29028
1785.85068	0.29329
1783.92212	0.29696
1781.99355	0.30096
1780.06499	0.30516
1778.13643	0.30944
1776.20786	0.31351
1774.27930	0.31788
1772.35073	0.32371
1770.42217	0.33004
1768.49360	0.33543
1766.56504	0.34053
1764.63647	0.34571
1762.70791	0.35153
1760.77935	0.35908
1758.85078	0.36633
1756.92222	0.37347
1754.99365	0.38106
1753.06509	0.38814
1751.13652	0.39669
1749.20796	0.40718
1747.27939	0.41744
1745.35083	0.42672
1743.42227	0.43658
1741.49370	0.44734
1739.56514	0.45998
1737.63657	0.47260
1735.70801	0.48351
1733.77944	0.49948
1731.85088	0.51875
1729.92231	0.53464
1727.99375	0.55070
1726.06519	0.56764
1724.13662	0.58597
1722.20806	0.60578
1720.27949	0.62430
1718.35093	0.64609
1716.42236	0.67745
1714.49380	0.70730
1712.56523	0.73212
1710.63667	0.75637
1708.70811	0.78239
1706.77954	0.81193
1704.85098	0.84689
1702.92241	0.87811
1700.99385	0.90932
1699.06528	0.95535
1697.13672	0.99775
1695.20815	1.04110
1693.27959	1.08406
1691.35103	1.11945
1689.42246	1.15979
1687.49390	1.20201
1685.56533	1.24300
1683.63677	1.30490
1681.70820	1.36911
1679.77964	1.41104
1677.85107	1.45071
1675.92251	1.49692
1673.99395	1.55409
1672.06538	1.60505
1670.13682	1.65452
1668.20825	1.71757
1666.27969	1.77041
1664.35112	1.81617
1662.42256	1.87262
1660.49399	1.93617
1658.56543	1.98669
1656.63687	2.02703
1654.70830	2.06240
1652.77974	2.11601
1650.85117	2.17022
1648.92261	2.19111
1646.99404	2.21381
1645.06548	2.24088
1643.13691	2.26145
1641.20835	2.27250
1639.27979	2.27944
1637.35122	2.28252
1635.42266	2.28145
1633.49409	2.27282
1631.56553	2.25672
1629.63696	2.23748
1627.70840	2.20915
1625.77983	2.17602
1623.85127	2.13333
1621.92271	2.08316
1619.99414	2.04010
1618.06558	1.99696
1616.13701	1.93435
1614.20845	1.87028
1612.27988	1.82109
1610.35132	1.77048
1608.42275	1.71588
1606.49419	1.66168
1604.56562	1.61159
1602.63706	1.56352
1600.70850	1.51669
1598.77993	1.47363
1596.85137	1.43328
1594.92280	1.39443
1592.99424	1.35744
1591.06567	1.32357
1589.13711	1.29159
1587.20854	1.26184
1585.27998	1.23488
1583.35142	1.20991
1581.42285	1.18693
1579.49429	1.16739
1577.56572	1.15001
1575.63716	1.12929
1573.70859	1.11117
1571.78003	1.09937
1569.85146	1.08756
1567.92290	1.07487
1565.99434	1.06547
1564.06577	1.05849
1562.13721	1.05320
1560.20864	1.04997
1558.28008	1.04794
1556.35151	1.04703
1554.42295	1.04631
1552.49438	1.04543
1550.56582	1.04320
1548.63726	1.03856
1546.70869	1.03194
1544.78013	1.02315
1542.85156	1.01170
1540.92300	0.99527
1538.99443	0.97053
1537.06587	0.95176
1535.13730	0.93858
1533.20874	0.92145
1531.28018	0.90303
1529.35161	0.88930
1527.42305	0.87664
1525.49448	0.86382
1523.56592	0.85285
1521.63735	0.84245
1519.70879	0.83212
1517.78022	0.82317
1515.85166	0.81278
1513.92310	0.80176
1511.99453	0.79202
1510.06597	0.78321
1508.13740	0.77456
1506.20884	0.76163
1504.28027	0.75038
1502.35171	0.74396
1500.42314	0.73824
1498.49458	0.73222
1496.56602	0.72544
1494.63745	0.71854
1492.70889	0.71295
1490.78032	0.70804
1488.85176	0.70259
1486.92319	0.69747
1484.99463	0.69330
1483.06606	0.68996
1481.13750	0.68723
1479.20894	0.68502
1477.28037	0.68338
1475.35181	0.68238
1473.42324	0.68209
1471.49468	0.68120
1469.56611	0.67895
1467.63755	0.67646
1465.70898	0.67433
1463.78042	0.67256
1461.85186	0.67132
1459.92329	0.67077
1457.99473	0.67077
1456.06616	0.67037
1454.13760	0.66858
1452.20903	0.66622
1450.28047	0.66362
1448.35190	0.66102
1446.42334	0.65851
1444.49478	0.65618
1442.56621	0.65382
1440.63765	0.65133
1438.70908	0.64886
1436.78052	0.64586
1434.85195	0.64242
1432.92339	0.63969
1430.99482	0.63787
1429.06626	0.63683
1427.13770	0.63636
1425.20913	0.63635
1423.28057	0.63674
1421.35200	0.63714
1419.42344	0.63745
1417.49487	0.63735
1415.56631	0.63639
1413.63774	0.63531
1411.70918	0.63478
1409.78062	0.63509
1407.85205	0.63593
1405.92349	0.63697
1403.99492	0.63790
1402.06636	0.63808
1400.13779	0.63746
1398.20923	0.63599
1396.28066	0.63364
1394.35210	0.63047
1392.42354	0.62682
1390.49497	0.62318
1388.56641	0.61934
1386.63784	0.61500
1384.70928	0.61070
1382.78071	0.60679
1380.85215	0.60300
1378.92358	0.59948
1376.99502	0.59674
1375.06646	0.59494
1373.13789	0.59357
1371.20933	0.59245
1369.28076	0.59160
1367.35220	0.59057
1365.42363	0.58924
1363.49507	0.58790
1361.56650	0.58648
1359.63794	0.58495
1357.70937	0.58358
1355.78081	0.58233
1353.85225	0.58120
1351.92368	0.58036
1349.99512	0.57974
1348.06655	0.57907
1346.13799	0.57834
1344.20942	0.57774
1342.28086	0.57719
1340.35229	0.57662
1338.42373	0.57591
1336.49517	0.57512
1334.56660	0.57456
1332.63804	0.57432
1330.70947	0.57427
1328.78091	0.57439
1326.85234	0.57464
1324.92378	0.57503
1322.99521	0.57552
1321.06665	0.57601
1319.13809	0.57644
1317.20952	0.57664
1315.28096	0.57646
1313.35239	0.57601
1311.42383	0.57537
1309.49526	0.57471
1307.56670	0.57408
1305.63813	0.57345
1303.70957	0.57288
1301.78101	0.57230
1299.85244	0.57138
1297.92388	0.57020
1295.99531	0.56901
1294.06675	0.56786
1292.13818	0.56692
1290.20962	0.56610
1288.28105	0.56504
1286.35249	0.56384
1284.42393	0.56282
1282.49536	0.56180
1280.56680	0.56064
1278.63823	0.55944
1276.70967	0.55836
1274.78110	0.55732
1272.85254	0.55623
1270.92397	0.55531
1268.99541	0.55462
1267.06685	0.55404
1265.13828	0.55342
1263.20972	0.55259
1261.28115	0.55166
1259.35259	0.55089
1257.42402	0.55036
1255.49546	0.55009
1253.56689	0.54992
1251.63833	0.54972
1249.70977	0.54952
1247.78120	0.54932
1245.85264	0.54904
1243.92407	0.54857
1241.99551	0.54785
1240.06694	0.54673
1238.13838	0.54518
1236.20981	0.54341
1234.28125	0.54154
1232.35269	0.53968
1230.42412	0.53801
1228.49556	0.53645
1226.56699	0.53481
1224.63843	0.53326
1222.70986	0.53193
1220.78130	0.53063
1218.85273	0.52933
1216.92417	0.52813
1214.99561	0.52712
1213.06704	0.52631
1211.13848	0.52559
1209.20991	0.52482
1207.28135	0.52398
1205.35278	0.52317
1203.42422	0.52244
1201.49565	0.52166
1199.56709	0.52081
1197.63853	0.52004
1195.70996	0.51948
1193.78140	0.51907
1191.85283	0.51864
1189.92427	0.51823
1187.99570	0.51801
1186.06714	0.51797
1184.13857	0.51808
1182.21001	0.51835
1180.28145	0.51885
1178.35288	0.51964
1176.42432	0.52059
1174.49575	0.52154
1172.56719	0.52229
1170.63862	0.52250
1168.71006	0.52226
1166.78149	0.52211
1164.85293	0.52207
1162.92437	0.52170
1160.99580	0.52113
1159.06724	0.52065
1157.13867	0.52002
1155.21011	0.51899
1153.28154	0.51765
1151.35298	0.51607
1149.42441	0.51421
1147.49585	0.51209
1145.56729	0.50990
1143.63872	0.50775
1141.71016	0.50567
1139.78159	0.50378
1137.85303	0.50223
1135.92446	0.50083
1133.99590	0.49964
1132.06733	0.49909
1130.13877	0.49891
1128.21021	0.49843
1126.28164	0.49748
1124.35308	0.49628
1122.42451	0.49505
1120.49595	0.49410
1118.56738	0.49374
1116.63882	0.49373
1114.71025	0.49359
1112.78169	0.49339
1110.85312	0.49339
1108.92456	0.49361
1106.99600	0.49426
1105.06743	0.49536
1103.13887	0.49663
1101.21030	0.49821
1099.28174	0.50042
1097.35317	0.50320
1095.42461	0.50620
1093.49604	0.50950
1091.56748	0.51356
1089.63892	0.51837
1087.71035	0.52368
1085.78179	0.52968
1083.85322	0.53637
1081.92466	0.54296
1079.99609	0.54851
1078.06753	0.55218
1076.13896	0.55291
1074.21040	0.55060
1072.28184	0.54625
1070.35327	0.54050
1068.42471	0.53375
1066.49614	0.52668
1064.56758	0.51997
1062.63901	0.51417
1060.71045	0.50934
1058.78188	0.50517
1056.85332	0.50126
1054.92476	0.49746
1052.99619	0.49415
1051.06763	0.49156
1049.13906	0.48941
1047.21050	0.48756
1045.28193	0.48610
1043.35337	0.48484
1041.42480	0.48354
1039.49624	0.48210
1037.56768	0.48079
1035.63911	0.48013
1033.71055	0.47996
1031.78198	0.47970
1029.85342	0.47921
1027.92485	0.47880
1025.99629	0.47863
1024.06772	0.47868
1022.13916	0.47891
1020.21060	0.47935
1018.28203	0.47998
1016.35347	0.48070
1014.42490	0.48152
1012.49634	0.48264
1010.56777	0.48408
1008.63921	0.48566
1006.71064	0.48742
1004.78208	0.48934
1002.85352	0.49144
1000.92495	0.49396
998.99639	0.49716
997.06782	0.50104
995.13926	0.50512
993.21069	0.50890
991.28213	0.51223
989.35356	0.51485
987.42500	0.51648
985.49644	0.51740
983.56787	0.51809
981.63931	0.51893
979.71074	0.52020
977.78218	0.52210
975.85361	0.52457
973.92505	0.52720
971.99648	0.52990
970.06792	0.53311
968.13936	0.53706
966.21079	0.54139
964.28223	0.54569
962.35366	0.55018
960.42510	0.55516
958.49653	0.56047
956.56797	0.56608
954.63940	0.57217
952.71084	0.57850
950.78228	0.58493
948.85371	0.59156
946.92515	0.59795
944.99658	0.60393
943.06802	0.61009
941.13945	0.61642
939.21089	0.62230
937.28232	0.62767
935.35376	0.63319
933.42520	0.63897
931.49663	0.64449
929.56807	0.64990
927.63950	0.65523
925.71094	0.66070
923.78237	0.66702
921.85381	0.67378
919.92524	0.68022
917.99668	0.68687
916.06812	0.69486
914.13955	0.70372
912.21099	0.71195
910.28242	0.71943
908.35386	0.72700
906.42529	0.73428
904.49673	0.74084
902.56816	0.74920
900.63960	0.76069
898.71104	0.77212
896.78247	0.78187
894.85391	0.79150
892.92534	0.80084
890.99678	0.81007
889.06821	0.82133
887.13965	0.83376
885.21108	0.84484
883.28252	0.85528
881.35396	0.86651
879.42539	0.87803
877.49683	0.88899
875.56826	0.89969
873.63970	0.91021
871.71113	0.91980
869.78257	0.93063
867.85400	0.94521
865.92544	0.95985
863.99687	0.97091
862.06831	0.98050
860.13975	0.99130
858.21118	1.00349
856.28262	1.01507
854.35405	1.02524
852.42549	1.03490
850.49692	1.04517
848.56836	1.05743
846.63979	1.07084
844.71123	1.08359
842.78267	1.09621
840.85410	1.10890
838.92554	1.11849
836.99697	1.12523
835.06841	1.13443
833.13984	1.14621
831.21128	1.15597
829.28271	1.16226
827.35415	1.16800
825.42559	1.17658
823.49702	1.18859
821.56846	1.20046
819.63989	1.20314
817.71133	1.19490
815.78276	1.19289
813.85420	1.20689
811.92563	1.22723
809.99707	1.24432
808.06851	1.25359
806.13994	1.25340
804.21138	1.24884
802.28281	1.25216
800.35425	1.26155
798.42568	1.26069
796.49712	1.24949
794.56855	1.21474
792.63999	1.15526
790.71143	1.13020
788.78286	1.17019
786.85430	1.23610
784.92573	1.27737
782.99717	1.28077
781.06860	1.24880
779.14004	1.21099
777.21147	1.18704
775.28291	1.14255
773.35435	1.08518
771.42578	1.07967
769.49722	1.11366
767.56865	1.10828
765.64009	1.07775
763.71152	1.05990
761.78296	1.00851
759.85439	0.94872
757.92583	0.94712
755.99727	0.97529
754.06870	0.96749
752.14014	0.93227
750.21157	0.89682
748.28301	0.87278
746.35444	0.85903
744.42588	0.81576
742.49731	0.76910
740.56875	0.78388
738.64019	0.78559
736.71162	0.67911
734.78306	0.56576
732.85449	0.49062
730.92593	0.44261
728.99736	0.40220
727.06880	0.29983
725.14023	0.12377
723.21167	-0.01874
721.28311	-0.07250
719.35454	-0.08554
717.42598	-0.15337
715.49741	-0.17140
713.56885	-0.07359
711.64028	0.03003
709.71172	0.13938
707.78315	0.13271
705.85459	0.02088
703.92603	-0.04143
701.99746	0.02983
700.06890	0.15098
698.14033	0.21605
696.21177	0.22736
694.28320	0.23513
692.35464	0.19998
690.42607	0.13018
688.49751	0.10642
686.56895	0.10596
684.64038	0.07348
682.71182	0.08055
680.78325	0.16955
678.85469	0.22199
676.92612	0.18604
674.99756	0.13922
673.06899	0.12548
671.14043	0.13712
669.21187	0.14433
667.28330	0.10049
665.35474	0.04286
663.42617	0.04605
661.49761	0.06594
659.56904	0.07134
657.64048	0.10761
655.71191	0.14218
653.78335	0.13140
651.85479	0.06889
649.92622	-0.01293
647.99766	-0.01348
646.06909	0.04059
644.14053	0.07141
642.21196	0.11567
640.28340	0.18391
638.35483	0.20778
636.42627	0.18102
634.49771	0.14325
632.56914	0.13861
630.64058	0.13803
628.71201	0.09302
626.78345	0.04430
624.85488	0.03234
622.92632	0.07013
620.99775	0.13283
619.06919	0.16163
617.14062	0.13958
615.21206	0.10890
613.28350	0.10230
611.35493	0.11432
609.42637	0.12913
607.49780	0.11855
605.56924	0.09872
603.64067	0.09953
601.71211	0.09674
599.78354	0.07511
597.85498	0.06150
595.92642	0.06962
593.99785	0.10417
592.06929	0.15302
590.14072	0.18320
588.21216	0.18033
586.28359	0.14131
584.35503	0.08000
582.42646	0.02173
580.49790	0.00931
578.56934	0.05486
576.64077	0.12431
574.71221	0.17294
572.78364	0.17495
570.85508	0.15573
568.92651	0.13869
566.99795	0.10748
565.06938	0.06502
563.14082	0.06393
561.21226	0.08109
559.28369	0.08486
557.35513	0.10895
555.42656	0.13293
553.49800	0.09952
551.56943	0.06761
549.64087	0.07279
547.71230	0.08291
545.78374	0.09667
543.85518	0.13692
541.92661	0.16698
539.99805	0.15800
538.06948	0.15216
536.14092	0.14976
534.21235	0.12883
532.28379	0.12831
530.35522	0.16928
528.42666	0.25596
526.49810	0.29601
524.56953	0.21122
522.64097	0.14420
520.71240	0.16138
518.78384	0.22441
516.85527	0.24031
514.92671	0.19638
512.99814	0.16250
511.06958	0.15968
509.14102	0.16758
507.21245	0.15283
505.28389	0.10745
503.35532	0.09018
501.42676	0.11683
499.49819	0.14668
