3997.91411	0.08372
3995.98555	0.08421
3994.05698	0.08490
3992.12842	0.08533
3990.19985	0.08535
3988.27129	0.08549
3986.34272	0.08588
3984.41416	0.08606
3982.48560	0.08587
3980.55703	0.08589
3978.62847	0.08653
3976.69990	0.08735
3974.77134	0.08772
3972.84277	0.08764
3970.91421	0.08745
3968.98564	0.08732
3967.05708	0.08728
3965.12852	0.08742
3963.19995	0.08761
3961.27139	0.08750
3959.34282	0.08726
3957.41426	0.08725
3955.48569	0.08733
3953.55713	0.08736
3951.62856	0.08788
3949.70000	0.08905
3947.77144	0.08982
3945.84287	0.08969
3943.91431	0.08931
3941.98574	0.08900
3940.05718	0.08851
3938.12861	0.08814
3936.20005	0.08810
3934.27148	0.08836
3932.34292	0.08914
3930.41436	0.08979
3928.48579	0.08942
3926.55723	0.08886
3924.62866	0.08895
3922.70010	0.08901
3920.77153	0.08857
3918.84297	0.08845
3916.91440	0.08880
3914.98584	0.08837
3913.05728	0.08731
3911.12871	0.08688
3909.20015	0.08696
3907.27158	0.08736
3905.34302	0.08889
3903.41445	0.09143
3901.48589	0.09309
3899.55732	0.09255
3897.62876	0.09041
3895.70020	0.08845
3893.77163	0.08816
3891.84307	0.08942
3889.91450	0.09002
3887.98594	0.08904
3886.05737	0.08888
3884.12881	0.09001
3882.20024	0.09101
3880.27168	0.09194
3878.34312	0.09158
3876.41455	0.09010
3874.48599	0.09017
3872.55742	0.09174
3870.62886	0.09313
3868.70029	0.09364
3866.77173	0.09330
3864.84316	0.09358
3862.91460	0.09420
3860.98604	0.09311
3859.05747	0.09160
3857.12891	0.09183
3855.20034	0.09406
3853.27178	0.09793
3851.34321	0.09976
3849.41465	0.09698
3847.48608	0.09396
3845.55752	0.09316
3843.62896	0.09496
3841.70039	0.09798
3839.77183	0.10062
3837.84326	0.10237
3835.91470	0.10237
3833.98613	0.10124
3832.05757	0.10051
3830.12900	0.10012
3828.20044	0.09977
3826.27187	0.10037
3824.34331	0.10219
3822.41475	0.10482
3820.48618	0.10786
3818.55762	0.10859
3816.62905	0.10794
3814.70049	0.10810
3812.77192	0.10747
3810.84336	0.10641
3808.91479	0.10689
3806.98623	0.10941
3805.05767	0.11210
3803.12910	0.11374
3801.20054	0.11570
3799.27197	0.11674
3797.34341	0.11626
3795.41484	0.11622
3793.48628	0.11638
3791.55771	0.11644
3789.62915	0.11705
3787.70059	0.11841
3785.77202	0.12019
3783.84346	0.12178
3781.91489	0.12294
3779.98633	0.12450
3778.05776	0.12666
3776.12920	0.12805
3774.20063	0.12895
3772.27207	0.13054
3770.34351	0.13325
3768.41494	0.13614
3766.48638	0.13782
3764.55781	0.13902
3762.62925	0.14036
3760.70068	0.14260
3758.77212	0.14635
3756.84355	0.14978
3754.91499	0.15170
3752.98643	0.15441
3751.05786	0.16014
3749.12930	0.16636
3747.20073	0.16832
3745.27217	0.16938
3743.34360	0.17271
3741.41504	0.17577
3739.48647	0.17811
3737.55791	0.18218
3735.62935	0.18922
3733.70078	0.19731
3731.77222	0.20181
3729.84365	0.20369
3727.91509	0.20643
3725.98652	0.21162
3724.05796	0.21818
3722.12939	0.22440
3720.20083	0.23025
3718.27227	0.23590
3716.34370	0.24172
3714.41514	0.24845
3712.48657	0.25851
3710.55801	0.27360
3708.62944	0.28786
3706.70088	0.29779
3704.77231	0.30779
3702.84375	0.32073
3700.91519	0.33715
3698.98662	0.35434
3697.05806	0.37116
3695.12949	0.38953
3693.20093	0.40883
3691.27236	0.43025
3689.34380	0.45862
3687.41523	0.49210
3685.48667	0.52003
3683.55811	0.54408
3681.62954	0.57120
3679.70098	0.60303
3677.77241	0.63701
3675.84385	0.67675
3673.91528	0.72792
3671.98672	0.76970
3670.05815	0.80791
3668.12959	0.85896
3666.20103	0.90487
3664.27246	0.94365
3662.34390	0.98591
3660.41533	1.03208
3658.48677	1.07807
3656.55820	1.12741
3654.62964	1.18175
3652.70107	1.22744
3650.77251	1.26888
3648.84395	1.32557
3646.91538	1.39115
3644.98682	1.43874
3643.05825	1.47601
3641.12969	1.51465
3639.20112	1.55751
3637.27256	1.60136
3635.34399	1.64550
3633.41543	1.69042
3631.48687	1.73240
3629.55830	1.77471
3627.62974	1.82739
3625.70117	1.87463
3623.77261	1.90758
3621.84404	1.94048
3619.91548	1.97916
3617.98691	2.02528
3616.05835	2.06749
3614.12979	2.10238
3612.20122	2.14066
3610.27266	2.18036
3608.34409	2.22001
3606.41553	2.26154
3604.48696	2.30085
3602.55840	2.33694
3600.62983	2.37560
3598.70127	2.41663
3596.77271	2.45640
3594.84414	2.49709
3592.91558	2.53882
3590.98701	2.57738
3589.05845	2.61392
3587.12988	2.65821
3585.20132	2.70553
3583.27275	2.74455
3581.34419	2.78147
3579.41562	2.82212
3577.48706	2.86477
3575.55850	2.90731
3573.62993	2.95030
3571.70137	2.99086
3569.77280	3.02976
3567.84424	3.07485
3565.91567	3.13215
3563.98711	3.18510
3562.05854	3.22571
3560.12998	3.26470
3558.20142	3.30631
3556.27285	3.35146
3554.34429	3.39818
3552.41572	3.44594
3550.48716	3.49276
3548.55859	3.53626
3546.63003	3.57972
3544.70146	3.62827
3542.77290	3.67807
3540.84434	3.72300
3538.91577	3.76809
3536.98721	3.81971
3535.05864	3.87440
3533.13008	3.92260
3531.20151	3.96787
3529.27295	4.01569
3527.34438	4.06360
3525.41582	4.11082
3523.48726	4.15949
3521.55869	4.21035
3519.63013	4.26186
3517.70156	4.31357
3515.77300	4.36180
3513.84443	4.40506
3511.91587	4.44814
3509.98730	4.49591
3508.05874	4.54639
3506.13018	4.59432
3504.20161	4.64083
3502.27305	4.69113
3500.34448	4.74229
3498.41592	4.78725
3496.48735	4.83167
3494.55879	4.87622
3492.63022	4.91913
3490.70166	4.97341
3488.77310	5.03648
3486.84453	5.08961
3484.91597	5.13841
3482.98740	5.19575
3481.05884	5.25326
3479.13027	5.29977
3477.20171	5.33758
3475.27314	5.38008
3473.34458	5.43793
3471.41602	5.49681
3469.48745	5.53550
3467.55889	5.56811
3465.63032	5.61589
3463.70176	5.66829
3461.77319	5.71828
3459.84463	5.77589
3457.91606	5.82878
3455.98750	5.86800
3454.05894	5.90550
3452.13037	5.95017
3450.20181	6.00727
3448.27324	6.07113
3446.34468	6.13180
3444.41611	6.18163
3442.48755	6.22726
3440.55898	6.27466
3438.63042	6.31896
3436.70186	6.37179
3434.77329	6.44298
3432.84473	6.50639
3430.91616	6.53483
3428.98760	6.55345
3427.05903	6.60127
3425.13047	6.67186
3423.20190	6.73349
3421.27334	6.79938
3419.34478	6.87457
3417.41621	6.92081
3415.48765	6.93795
3413.55908	6.96190
3411.63052	6.99973
3409.70195	7.03113
3407.77339	7.07592
3405.84482	7.14756
3403.91626	7.23784
3401.98770	7.31951
3400.05913	7.35782
3398.13057	7.37485
3396.20200	7.40346
3394.27344	7.45945
3392.34487	7.54262
3390.41631	7.61836
3388.48774	7.64122
3386.55918	7.64780
3384.63062	7.68249
3382.70205	7.74216
3380.77349	7.78736
3378.84492	7.76589
3376.91636	7.71631
3374.98779	7.72148
3373.05923	7.79469
3371.13066	7.85035
3369.20210	7.86188
3367.27354	7.88507
3365.34497	7.91054
3363.41641	7.88788
3361.48784	7.88594
3359.55928	7.97523
3357.63071	8.08643
3355.70215	8.15681
3353.77358	8.16641
3351.84502	8.16612
3349.91646	8.18273
3347.98789	8.19096
3346.05933	8.19715
3344.13076	8.19398
3342.20220	8.17933
3340.27363	8.15172
3338.34507	8.09379
3336.41650	8.04044
3334.48794	8.09175
3332.55937	8.23001
3330.63081	8.34633
3328.70225	8.36630
3326.77368	8.32215
3324.84512	8.29214
3322.91655	8.27084
3320.98799	8.27584
3319.05942	8.31806
3317.13086	8.35534
3315.20229	8.34010
3313.27373	8.33444
3311.34517	8.37197
3309.41660	8.39337
3307.48804	8.40877
3305.55947	8.41240
3303.63091	8.41982
3301.70234	8.47596
3299.77378	8.52839
3297.84521	8.50616
3295.91665	8.47574
3293.98809	8.45753
3292.05952	8.40990
3290.13096	8.39898
3288.20239	8.45463
3286.27383	8.49588
3284.34526	8.47775
3282.41670	8.46922
3280.48813	8.50603
3278.55957	8.48991
3276.63101	8.37388
3274.70244	8.36697
3272.77388	8.55296
3270.84531	8.68852
3268.91675	8.65753
3266.98818	8.64807
3265.05962	8.68569
3263.13105	8.59590
3261.20249	8.48058
3259.27393	8.56681
3257.34536	8.75151
3255.41680	8.68679
3253.48823	8.46668
3251.55967	8.44540
3249.63110	8.64126
3247.70254	8.82797
3245.77397	8.85299
3243.84541	8.72500
3241.91685	8.55918
3239.98828	8.54237
3238.05972	8.66914
3236.13115	8.72248
3234.20259	8.62385
3232.27402	8.54937
3230.34546	8.61139
3228.41689	8.66710
3226.48833	8.55316
3224.55977	8.42159
3222.63120	8.36159
3220.70264	8.26788
3218.77407	8.19902
3216.84551	8.20156
3214.91694	8.16415
3212.98838	8.09499
3211.05981	8.05880
3209.13125	8.05296
3207.20269	8.05725
3205.27412	8.03358
3203.34556	8.00490
3201.41699	8.05512
3199.48843	8.11245
3197.55986	8.04454
3195.63130	7.92644
3193.70273	7.82196
3191.77417	7.71898
3189.84561	7.64599
3187.91704	7.61622
3185.98848	7.61062
3184.05991	7.60661
3182.13135	7.56977
3180.20278	7.48592
3178.27422	7.40803
3176.34565	7.38043
3174.41709	7.36051
3172.48853	7.30500
3170.55996	7.21892
3168.63140	7.12731
3166.70283	7.05554
3164.77427	6.99601
3162.84570	6.92579
3160.91714	6.83662
3158.98857	6.75523
3157.06001	6.70450
3155.13145	6.66565
3153.20288	6.61450
3151.27432	6.54828
3149.34575	6.47614
3147.41719	6.40185
3145.48862	6.32135
3143.56006	6.23895
3141.63149	6.16784
3139.70293	6.10297
3137.77437	6.03409
3135.84580	5.95938
3133.91724	5.87821
3131.98867	5.80155
3130.06011	5.72692
3128.13154	5.64624
3126.20298	5.57490
3124.27441	5.51156
3122.34585	5.43658
3120.41729	5.35460
3118.48872	5.28100
3116.56016	5.21639
3114.63159	5.15381
3112.70303	5.08778
3110.77446	5.01592
3108.84590	4.94054
3106.91733	4.86406
3104.98877	4.78961
3103.06021	4.72021
3101.13164	4.65547
3099.20308	4.59294
3097.27451	4.52725
3095.34595	4.45909
3093.41738	4.39147
3091.48882	4.32396
3089.56025	4.25826
3087.63169	4.19441
3085.70312	4.13109
3083.77456	4.06794
3081.84600	4.00514
3079.91743	3.94242
3077.98887	3.88147
3076.06030	3.82459
3074.13174	3.76813
3072.20317	3.70837
3070.27461	3.64840
3068.34604	3.59263
3066.41748	3.53816
3064.48892	3.48084
3062.56035	3.42378
3060.63179	3.36907
3058.70322	3.31433
3056.77466	3.25906
3054.84609	3.20398
3052.91753	3.14954
3050.98896	3.09718
3049.06040	3.04666
3047.13184	2.99615
3045.20327	2.94634
3043.27471	2.89807
3041.34614	2.84932
3039.41758	2.80069
3037.48901	2.75425
3035.56045	2.70794
3033.63188	2.66069
3031.70332	2.61434
3029.77476	2.56942
3027.84619	2.52579
3025.91763	2.48276
3023.98906	2.43944
3022.06050	2.39659
3020.13193	2.35483
3018.20337	2.31405
3016.27480	2.27396
3014.34624	2.23415
3012.41768	2.19528
3010.48911	2.15734
3008.56055	2.11944
3006.63198	2.08158
3004.70342	2.04446
3002.77485	2.00889
3000.84629	1.97504
2998.91772	1.94177
2996.98916	1.90833
2995.06060	1.87539
2993.13203	1.84362
2991.20347	1.81283
2989.27490	1.78251
2987.34634	1.75291
2985.41777	1.72430
2983.48921	1.69598
2981.56064	1.66776
2979.63208	1.64037
2977.70352	1.61430
2975.77495	1.58888
2973.84639	1.56339
2971.91782	1.53834
2969.98926	1.51422
2968.06069	1.49064
2966.13213	1.46680
2964.20356	1.44258
2962.27500	1.41842
2960.34644	1.39434
2958.41787	1.37030
2956.48931	1.34640
2954.56074	1.32256
2952.63218	1.29870
2950.70361	1.27514
2948.77505	1.25239
2946.84648	1.23057
2944.91792	1.20929
2942.98936	1.18828
2941.06079	1.16791
2939.13223	1.14824
2937.20366	1.12834
2935.27510	1.10811
2933.34653	1.08839
2931.41797	1.06862
2929.48940	1.04809
2927.56084	1.02779
2925.63228	1.00858
2923.70371	0.99019
2921.77515	0.97263
2919.84658	0.95603
2917.91802	0.93940
2915.98945	0.92220
2914.06089	0.90522
2912.13232	0.88895
2910.20376	0.87334
2908.27520	0.85804
2906.34663	0.84279
2904.41807	0.82791
2902.48950	0.81345
2900.56094	0.79905
2898.63237	0.78504
2896.70381	0.77184
2894.77524	0.75926
2892.84668	0.74679
2890.91812	0.73417
2888.98955	0.72213
2887.06099	0.71120
2885.13242	0.70079
2883.20386	0.69053
2881.27529	0.68061
2879.34673	0.67098
2877.41816	0.66140
2875.48960	0.65175
2873.56104	0.64188
2871.63247	0.63148
2869.70391	0.62044
2867.77534	0.60907
2865.84678	0.59756
2863.91821	0.58584
2861.98965	0.57415
2860.06108	0.56292
2858.13252	0.55243
2856.20396	0.54272
2854.27539	0.53372
2852.34683	0.52500
2850.41826	0.51641
2848.48970	0.50830
2846.56113	0.50049
2844.63257	0.49273
2842.70400	0.48535
2840.77544	0.47846
2838.84687	0.47201
2836.91831	0.46587
2834.98975	0.45991
2833.06118	0.45406
2831.13262	0.44797
2829.20405	0.44156
2827.27549	0.43526
2825.34692	0.42923
2823.41836	0.42337
2821.48979	0.41767
2819.56123	0.41204
2817.63267	0.40630
2815.70410	0.40036
2813.77554	0.39448
2811.84697	0.38902
2809.91841	0.38385
2807.98984	0.37863
2806.06128	0.37334
2804.13271	0.36808
2802.20415	0.36279
2800.27559	0.35773
2798.34702	0.35318
2796.41846	0.34890
2794.48989	0.34440
2792.56133	0.33959
2790.63276	0.33484
2788.70420	0.33037
2786.77563	0.32595
2784.84707	0.32149
2782.91851	0.31720
2780.98994	0.31312
2779.06138	0.30923
2777.13281	0.30538
2775.20425	0.30148
2773.27568	0.29776
2771.34712	0.29418
2769.41855	0.29053
2767.48999	0.28695
2765.56143	0.28344
2763.63286	0.27984
2761.70430	0.27625
2759.77573	0.27289
2757.84717	0.26966
2755.91860	0.26645
2753.99004	0.26344
2752.06147	0.26065
2750.13291	0.25772
2748.20435	0.25465
2746.27578	0.25184
2744.34722	0.24927
2742.41865	0.24666
2740.49009	0.24391
2738.56152	0.24114
2736.63296	0.23841
2734.70439	0.23573
2732.77583	0.23327
2730.84727	0.23103
2728.91870	0.22882
2726.99014	0.22657
2725.06157	0.22431
2723.13301	0.22222
2721.20444	0.22040
2719.27588	0.21860
2717.34731	0.21658
2715.41875	0.21442
2713.49019	0.21244
2711.56162	0.21064
2709.63306	0.20889
2707.70449	0.20713
2705.77593	0.20534
2703.84736	0.20362
2701.91880	0.20211
2699.99023	0.20065
2698.06167	0.19913
2696.13311	0.19773
2694.20454	0.19632
2692.27598	0.19484
2690.34741	0.19352
2688.41885	0.19245
2686.49028	0.19143
2684.56172	0.19025
2682.63315	0.18898
2680.70459	0.18788
2678.77603	0.18683
2676.84746	0.18565
2674.91890	0.18442
2672.99033	0.18334
2671.06177	0.18238
2669.13320	0.18139
2667.20464	0.18031
2665.27607	0.17919
2663.34751	0.17808
2661.41895	0.17708
2659.49038	0.17626
2657.56182	0.17556
2655.63325	0.17492
2653.70469	0.17437
2651.77612	0.17378
2649.84756	0.17306
2647.91899	0.17230
2645.99043	0.17158
2644.06187	0.17095
2642.13330	0.17045
2640.20474	0.16995
2638.27617	0.16935
2636.34761	0.16885
2634.41904	0.16853
2632.49048	0.16818
2630.56191	0.16780
2628.63335	0.16747
2626.70479	0.16717
2624.77622	0.16687
2622.84766	0.16643
2620.91909	0.16596
2618.99053	0.16574
2617.06196	0.16558
2615.13340	0.16526
2613.20483	0.16491
2611.27627	0.16469
2609.34771	0.16468
2607.41914	0.16474
2605.49058	0.16470
2603.56201	0.16461
2601.63345	0.16457
2599.70488	0.16462
2597.77632	0.16466
2595.84775	0.16457
2593.91919	0.16451
2591.99062	0.16455
2590.06206	0.16460
2588.13350	0.16469
2586.20493	0.16490
2584.27637	0.16500
2582.34780	0.16497
2580.41924	0.16512
2578.49067	0.16540
2576.56211	0.16567
2574.63354	0.16607
2572.70498	0.16652
2570.77642	0.16681
2568.84785	0.16712
2566.91929	0.16758
2564.99072	0.16801
2563.06216	0.16826
2561.13359	0.16847
2559.20503	0.16879
2557.27646	0.16929
2555.34790	0.16992
2553.41934	0.17054
2551.49077	0.17102
2549.56221	0.17145
2547.63364	0.17191
2545.70508	0.17241
2543.77651	0.17293
2541.84795	0.17345
2539.91938	0.17400
2537.99082	0.17463
2536.06226	0.17532
2534.13369	0.17601
2532.20513	0.17668
2530.27656	0.17727
2528.34800	0.17780
2526.41943	0.17842
2524.49087	0.17906
2522.56230	0.17968
2520.63374	0.18036
2518.70518	0.18108
2516.77661	0.18188
2514.84805	0.18284
2512.91948	0.18381
2510.99092	0.18453
2509.06235	0.18513
2507.13379	0.18583
2505.20522	0.18661
2503.27666	0.18733
2501.34810	0.18802
2499.41953	0.18883
2497.49097	0.18978
2495.56240	0.19071
2493.63384	0.19147
2491.70527	0.19218
2489.77671	0.19300
2487.84814	0.19382
2485.91958	0.19456
2483.99102	0.19538
2482.06245	0.19639
2480.13389	0.19738
2478.20532	0.19819
2476.27676	0.19890
2474.34819	0.19964
2472.41963	0.20043
2470.49106	0.20134
2468.56250	0.20239
2466.63394	0.20340
2464.70537	0.20425
2462.77681	0.20506
2460.84824	0.20594
2458.91968	0.20685
2456.99111	0.20782
2455.06255	0.20889
2453.13398	0.20987
2451.20542	0.21076
2449.27686	0.21174
2447.34829	0.21283
2445.41973	0.21389
2443.49116	0.21481
2441.56260	0.21555
2439.63403	0.21630
2437.70547	0.21736
2435.77690	0.21864
2433.84834	0.21972
2431.91978	0.22057
2429.99121	0.22151
2428.06265	0.22261
2426.13408	0.22379
2424.20552	0.22500
2422.27695	0.22612
2420.34839	0.22707
2418.41982	0.22797
2416.49126	0.22898
2414.56270	0.23019
2412.63413	0.23148
2410.70557	0.23265
2408.77700	0.23379
2406.84844	0.23500
2404.91987	0.23614
2402.99131	0.23718
2401.06274	0.23824
2399.13418	0.23942
2397.20562	0.24066
2395.27705	0.24187
2393.34849	0.24311
2391.41992	0.24444
2389.49136	0.24589
2387.56279	0.24760
2385.63423	0.24975
2383.70566	0.25261
2381.77710	0.25653
2379.84854	0.26146
2377.91997	0.26698
2375.99141	0.27302
2374.06284	0.27997
2372.13428	0.28798
2370.20571	0.29662
2368.27715	0.30519
2366.34858	0.31394
2364.42002	0.32290
2362.49146	0.32966
2360.56289	0.33247
2358.63433	0.33297
2356.70576	0.33193
2354.77720	0.32753
2352.84863	0.31990
2350.92007	0.31204
2348.99150	0.30774
2347.06294	0.30879
2345.13437	0.31548
2343.20581	0.32436
2341.27725	0.32921
2339.34868	0.33024
2337.42012	0.33058
2335.49155	0.33102
2333.56299	0.33104
2331.63442	0.33112
2329.70586	0.33147
2327.77729	0.33138
2325.84873	0.33036
2323.92017	0.32901
2321.99160	0.32791
2320.06304	0.32667
2318.13447	0.32509
2316.20591	0.32372
2314.27734	0.32320
2312.34878	0.32354
2310.42021	0.32411
2308.49165	0.32429
2306.56309	0.32399
2304.63452	0.32376
2302.70596	0.32408
2300.77739	0.32489
2298.84883	0.32590
2296.92026	0.32695
2294.99170	0.32802
2293.06313	0.32920
2291.13457	0.33040
2289.20601	0.33141
2287.27744	0.33236
2285.34888	0.33356
2283.42031	0.33517
2281.49175	0.33716
2279.56318	0.33942
2277.63462	0.34169
2275.70605	0.34388
2273.77749	0.34601
2271.84893	0.34803
2269.92036	0.35008
2267.99180	0.35223
2266.06323	0.35432
2264.13467	0.35620
2262.20610	0.35804
2260.27754	0.36002
2258.34897	0.36216
2256.42041	0.36421
2254.49185	0.36610
2252.56328	0.36802
2250.63472	0.37002
2248.70615	0.37213
2246.77759	0.37433
2244.84902	0.37650
2242.92046	0.37856
2240.99189	0.38062
2239.06333	0.38279
2237.13477	0.38501
2235.20620	0.38719
2233.27764	0.38939
2231.34907	0.39157
2229.42051	0.39356
2227.49194	0.39556
2225.56338	0.39784
2223.63481	0.40028
2221.70625	0.40265
2219.77769	0.40490
2217.84912	0.40714
2215.92056	0.40931
2213.99199	0.41135
2212.06343	0.41342
2210.13486	0.41563
2208.20630	0.41786
2206.27773	0.41997
2204.34917	0.42188
2202.42061	0.42373
2200.49204	0.42572
2198.56348	0.42788
2196.63491	0.43006
2194.70635	0.43212
2192.77778	0.43402
2190.84922	0.43585
2188.92065	0.43759
2186.99209	0.43922
2185.06353	0.44085
2183.13496	0.44251
2181.20640	0.44416
2179.27783	0.44581
2177.34927	0.44746
2175.42070	0.44902
2173.49214	0.45051
2171.56357	0.45195
2169.63501	0.45337
2167.70645	0.45474
2165.77788	0.45593
2163.84932	0.45707
2161.92075	0.45825
2159.99219	0.45930
2158.06362	0.46009
2156.13506	0.46081
2154.20649	0.46165
2152.27793	0.46253
2150.34937	0.46332
2148.42080	0.46397
2146.49224	0.46448
2144.56367	0.46484
2142.63511	0.46511
2140.70654	0.46544
2138.77798	0.46570
2136.84941	0.46574
2134.92085	0.46572
2132.99229	0.46571
2131.06372	0.46554
2129.13516	0.46527
2127.20659	0.46500
2125.27803	0.46471
2123.34946	0.46428
2121.42090	0.46382
2119.49233	0.46328
2117.56377	0.46252
2115.63521	0.46161
2113.70664	0.46071
2111.77808	0.45982
2109.84951	0.45885
2107.92095	0.45773
2105.99238	0.45652
2104.06382	0.45532
2102.13525	0.45405
2100.20669	0.45272
2098.27812	0.45138
2096.34956	0.44986
2094.42100	0.44813
2092.49243	0.44636
2090.56387	0.44472
2088.63530	0.44309
2086.70674	0.44128
2084.77817	0.43931
2082.84961	0.43728
2080.92104	0.43518
2078.99248	0.43312
2077.06392	0.43115
2075.13535	0.42903
2073.20679	0.42667
2071.27822	0.42424
2069.34966	0.42184
2067.42109	0.41946
2065.49253	0.41708
2063.56396	0.41468
2061.63540	0.41233
2059.70684	0.40990
2057.77827	0.40729
2055.84971	0.40464
2053.92114	0.40201
2051.99258	0.39931
2050.06401	0.39657
2048.13545	0.39389
2046.20688	0.39125
2044.27832	0.38866
2042.34976	0.38604
2040.42119	0.38330
2038.49263	0.38052
2036.56406	0.37779
2034.63550	0.37507
2032.70693	0.37225
2030.77837	0.36942
2028.84980	0.36659
2026.92124	0.36369
2024.99268	0.36073
2023.06411	0.35784
2021.13555	0.35510
2019.20698	0.35251
2017.27842	0.34988
2015.34985	0.34703
2013.42129	0.34413
2011.49272	0.34134
2009.56416	0.33865
2007.63560	0.33593
2005.70703	0.33314
2003.77847	0.33044
2001.84990	0.32796
1999.92134	0.32548
1997.99277	0.32283
1996.06421	0.32017
1994.13564	0.31772
1992.20708	0.31540
1990.27852	0.31286
1988.34995	0.31014
1986.42139	0.30748
1984.49282	0.30494
1982.56426	0.30254
1980.63569	0.30027
1978.70713	0.29811
1976.77856	0.29598
1974.85000	0.29383
1972.92144	0.29175
1970.99287	0.28970
1969.06431	0.28771
1967.13574	0.28572
1965.20718	0.28356
1963.27861	0.28140
1961.35005	0.27940
1959.42148	0.27751
1957.49292	0.27573
1955.56436	0.27403
1953.63579	0.27230
1951.70723	0.27055
1949.77866	0.26889
1947.85010	0.26742
1945.92153	0.26613
1943.99297	0.26489
1942.06440	0.26349
1940.13584	0.26178
1938.20728	0.26005
1936.27871	0.25859
1934.35015	0.25735
1932.42158	0.25618
1930.49302	0.25499
1928.56445	0.25389
1926.63589	0.25288
1924.70732	0.25205
1922.77876	0.25129
1920.85020	0.25035
1918.92163	0.24942
1916.99307	0.24859
1915.06450	0.24757
1913.13594	0.24658
1911.20737	0.24597
1909.27881	0.24549
1907.35024	0.24483
1905.42168	0.24401
1903.49312	0.24323
1901.56455	0.24260
1899.63599	0.24207
1897.70742	0.24169
1895.77886	0.24145
1893.85029	0.24120
1891.92173	0.24087
1889.99316	0.24067
1888.06460	0.24042
1886.13604	0.24001
1884.20747	0.23968
1882.27891	0.23949
1880.35034	0.23937
1878.42178	0.23930
1876.49321	0.23935
1874.56465	0.23936
1872.63608	0.23938
1870.70752	0.23977
1868.77896	0.24069
1866.85039	0.24114
1864.92183	0.24077
1862.99326	0.24045
1861.06470	0.24053
1859.13613	0.24088
1857.20757	0.24122
1855.27900	0.24166
1853.35044	0.24224
1851.42187	0.24289
1849.49331	0.24356
1847.56475	0.24441
1845.63618	0.24552
1843.70762	0.24667
1841.77905	0.24723
1839.85049	0.24745
1837.92192	0.24808
1835.99336	0.24892
1834.06479	0.24980
1832.13623	0.25091
1830.20767	0.25263
1828.27910	0.25430
1826.35054	0.25535
1824.42197	0.25651
1822.49341	0.25753
1820.56484	0.25846
1818.63628	0.25970
1816.70771	0.26132
1814.77915	0.26298
1812.85059	0.26487
1810.92202	0.26714
1808.99346	0.26924
1807.06489	0.27097
1805.13633	0.27275
1803.20776	0.27512
1801.27920	0.27792
1799.35063	0.28086
1797.42207	0.28340
1795.49351	0.28579
1793.56494	0.28869
1791.63638	0.29234
1789.70781	0.29550
1787.77925	0.29788
1785.85068	0.30110
1783.92212	0.30495
1781.99355	0.30899
1780.06499	0.31323
1778.13643	0.31743
1776.20786	0.32137
1774.27930	0.32590
1772.35073	0.33217
1770.42217	0.33839
1768.49360	0.34314
1766.56504	0.34782
1764.63647	0.35301
1762.70791	0.35907
1760.77935	0.36661
1758.85078	0.37346
1756.92222	0.38033
1754.99365	0.38802
1753.06509	0.39534
1751.13652	0.40425
1749.20796	0.41508
1747.27939	0.42536
1745.35083	0.43439
1743.42227	0.44403
1741.49370	0.45475
1739.56514	0.46742
1737.63657	0.48005
1735.70801	0.49137
1733.77944	0.50822
1731.85088	0.52746
1729.92231	0.54241
1727.99375	0.55762
1726.06519	0.57418
1724.13662	0.59252
1722.20806	0.61249
1720.27949	0.63145
1718.35093	0.65408
1716.42236	0.68604
1714.49380	0.71534
1712.56523	0.73923
1710.63667	0.76302
1708.70811	0.78915
1706.77954	0.81903
1704.85098	0.85445
1702.92241	0.88633
1700.99385	0.91868
1699.06528	0.96600
1697.13672	1.00906
1695.20815	1.05328
1693.27959	1.09709
1691.35103	1.13347
1689.42246	1.17556
1687.49390	1.21986
1685.56533	1.26331
1683.63677	1.32892
1681.70820	1.39621
1679.77964	1.44058
1677.85107	1.48300
1675.92251	1.53148
1673.99395	1.59134
1672.06538	1.64583
1670.13682	1.69994
1668.20825	1.76894
1666.27969	1.82613
1664.35112	1.87610
1662.42256	1.93899
1660.49399	2.00962
1658.56543	2.06528
1656.63687	2.10978
1654.70830	2.15000
1652.77974	2.21218
1650.85117	2.27009
1648.92261	2.28916
1646.99404	2.31185
1645.06548	2.33653
1643.13691	2.35103
1641.20835	2.35736
1639.27979	2.36435
1637.35122	2.36909
1635.42266	2.36615
1633.49409	2.35538
1631.56553	2.33975
1629.63696	2.31966
1627.70840	2.28735
1625.77983	2.25137
1623.85127	2.20749
1621.92271	2.15320
1619.99414	2.10412
1618.06558	2.05760
1616.13701	1.99378
1614.20845	1.92690
1612.27988	1.87412
1610.35132	1.82048
1608.42275	1.76354
1606.49419	1.70787
1604.56562	1.65723
1602.63706	1.60892
1600.70850	1.56136
1598.77993	1.51715
1596.85137	1.47635
1594.92280	1.43696
1592.99424	1.39823
1591.06567	1.36282
1589.13711	1.33022
1587.20854	1.29991
1585.27998	1.27210
1583.35142	1.24659
1581.42285	1.22371
1579.49429	1.20491
1577.56572	1.18871
1575.63716	1.16913
1573.70859	1.15186
1571.78003	1.14133
1569.85146	1.13187
1567.92290	1.12182
1565.99434	1.11450
1564.06577	1.11027
1562.13721	1.10837
1560.20864	1.10975
1558.28008	1.11650
1556.35151	1.12124
1554.42295	1.12292
1552.49438	1.12521
1550.56582	1.12602
1548.63726	1.12401
1546.70869	1.11947
1544.78013	1.11191
1542.85156	1.10048
1540.92300	1.08224
1538.99443	1.05243
1537.06587	1.02843
1535.13730	1.01140
1533.20874	0.98991
1531.28018	0.96737
1529.35161	0.95104
1527.42305	0.93613
1525.49448	0.92068
1523.56592	0.90751
1521.63735	0.89564
1519.70879	0.88351
1517.78022	0.87237
1515.85166	0.85918
1513.92310	0.84545
1511.99453	0.83387
1510.06597	0.82384
1508.13740	0.81421
1506.20884	0.79878
1504.28027	0.78395
1502.35171	0.77537
1500.42314	0.76860
1498.49458	0.76185
1496.56602	0.75381
1494.63745	0.74554
1492.70889	0.73933
1490.78032	0.73430
1488.85176	0.72854
1486.92319	0.72273
1484.99463	0.71815
1483.06606	0.71483
1481.13750	0.71235
1479.20894	0.71066
1477.28037	0.71020
1475.35181	0.71085
1473.42324	0.71187
1471.49468	0.71149
1469.56611	0.70922
1467.63755	0.70683
1465.70898	0.70513
1463.78042	0.70371
1461.85186	0.70268
1459.92329	0.70281
1457.99473	0.70402
1456.06616	0.70392
1454.13760	0.70089
1452.20903	0.69743
1450.28047	0.69423
1448.35190	0.69119
1446.42334	0.68799
1444.49478	0.68492
1442.56621	0.68201
1440.63765	0.67897
1438.70908	0.67594
1436.78052	0.67233
1434.85195	0.66795
1432.92339	0.66427
1430.99482	0.66189
1429.06626	0.66050
1427.13770	0.65989
1425.20913	0.66020
1423.28057	0.66125
1421.35200	0.66223
1419.42344	0.66311
1417.49487	0.66333
1415.56631	0.66213
1413.63774	0.66103
1411.70918	0.66116
1409.78062	0.66249
1407.85205	0.66431
1405.92349	0.66625
1403.99492	0.66789
1402.06636	0.66847
1400.13779	0.66800
1398.20923	0.66648
1396.28066	0.66394
1394.35210	0.66024
1392.42354	0.65554
1390.49497	0.65078
1388.56641	0.64619
1386.63784	0.64116
1384.70928	0.63560
1382.78071	0.63009
1380.85215	0.62504
1378.92358	0.62080
1376.99502	0.61756
1375.06646	0.61535
1373.13789	0.61365
1371.20933	0.61217
1369.28076	0.61104
1367.35220	0.60983
1365.42363	0.60842
1363.49507	0.60712
1361.56650	0.60568
1359.63794	0.60379
1357.70937	0.60203
1355.78081	0.60077
1353.85225	0.59981
1351.92368	0.59893
1349.99512	0.59816
1348.06655	0.59746
1346.13799	0.59673
1344.20942	0.59601
1342.28086	0.59544
1340.35229	0.59511
1338.42373	0.59461
1336.49517	0.59375
1334.56660	0.59310
1332.63804	0.59295
1330.70947	0.59316
1328.78091	0.59360
1326.85234	0.59417
1324.92378	0.59495
1322.99521	0.59612
1321.06665	0.59741
1319.13809	0.59830
1317.20952	0.59862
1315.28096	0.59864
1313.35239	0.59839
1311.42383	0.59782
1309.49526	0.59719
1307.56670	0.59675
1305.63813	0.59659
1303.70957	0.59633
1301.78101	0.59571
1299.85244	0.59493
1297.92388	0.59398
1295.99531	0.59278
1294.06675	0.59159
1292.13818	0.59047
1290.20962	0.58911
1288.28105	0.58766
1286.35249	0.58637
1284.42393	0.58513
1282.49536	0.58370
1280.56680	0.58214
1278.63823	0.58062
1276.70967	0.57918
1274.78110	0.57791
1272.85254	0.57692
1270.92397	0.57617
1268.99541	0.57542
1267.06685	0.57453
1265.13828	0.57356
1263.20972	0.57258
1261.28115	0.57164
1259.35259	0.57077
1257.42402	0.57000
1255.49546	0.56940
1253.56689	0.56906
1251.63833	0.56912
1249.70977	0.56955
1247.78120	0.56980
1245.85264	0.56953
1243.92407	0.56883
1241.99551	0.56782
1240.06694	0.56643
1238.13838	0.56460
1236.20981	0.56242
1234.28125	0.55994
1232.35269	0.55731
1230.42412	0.55482
1228.49556	0.55265
1226.56699	0.55076
1224.63843	0.54897
1222.70986	0.54712
1220.78130	0.54536
1218.85273	0.54391
1216.92417	0.54271
1214.99561	0.54161
1213.06704	0.54064
1211.13848	0.53980
1209.20991	0.53900
1207.28135	0.53816
1205.35278	0.53728
1203.42422	0.53636
1201.49565	0.53539
1199.56709	0.53450
1197.63853	0.53375
1195.70996	0.53310
1193.78140	0.53266
1191.85283	0.53237
1189.92427	0.53201
1187.99570	0.53159
1186.06714	0.53130
1184.13857	0.53140
1182.21001	0.53206
1180.28145	0.53320
1178.35288	0.53462
1176.42432	0.53612
1174.49575	0.53744
1172.56719	0.53825
1170.63862	0.53843
1168.71006	0.53826
1166.78149	0.53806
1164.85293	0.53793
1162.92437	0.53785
1160.99580	0.53762
1159.06724	0.53704
1157.13867	0.53604
1155.21011	0.53480
1153.28154	0.53349
1151.35298	0.53190
1149.42441	0.52978
1147.49585	0.52733
1145.56729	0.52479
1143.63872	0.52228
1141.71016	0.51989
1139.78159	0.51780
1137.85303	0.51605
1135.92446	0.51469
1133.99590	0.51390
1132.06733	0.51344
1130.13877	0.51279
1128.21021	0.51181
1126.28164	0.51070
1124.35308	0.50967
1122.42451	0.50881
1120.49595	0.50831
1118.56738	0.50828
1116.63882	0.50839
1114.71025	0.50836
1112.78169	0.50851
1110.85312	0.50908
1108.92456	0.50984
1106.99600	0.51067
1105.06743	0.51171
1103.13887	0.51300
1101.21030	0.51462
1099.28174	0.51639
1097.35317	0.51830
1095.42461	0.52093
1093.49604	0.52438
1091.56748	0.52851
1089.63892	0.53356
1087.71035	0.53948
1085.78179	0.54607
1083.85322	0.55300
1081.92466	0.55963
1079.99609	0.56506
1078.06753	0.56826
1076.13896	0.56855
1074.21040	0.56619
1072.28184	0.56187
1070.35327	0.55596
1068.42471	0.54895
1066.49614	0.54175
1064.56758	0.53503
1062.63901	0.52906
1060.71045	0.52366
1058.78188	0.51873
1056.85332	0.51448
1054.92476	0.51097
1052.99619	0.50793
1051.06763	0.50511
1049.13906	0.50247
1047.21050	0.50029
1045.28193	0.49866
1043.35337	0.49740
1041.42480	0.49646
1039.49624	0.49586
1037.56768	0.49547
1035.63911	0.49494
1033.71055	0.49416
1031.78198	0.49338
1029.85342	0.49267
1027.92485	0.49201
1025.99629	0.49152
1024.06772	0.49126
1022.13916	0.49122
1020.21060	0.49144
1018.28203	0.49193
1016.35347	0.49254
1014.42490	0.49318
1012.49634	0.49398
1010.56777	0.49497
1008.63921	0.49593
1006.71064	0.49695
1004.78208	0.49856
1002.85352	0.50089
1000.92495	0.50363
998.99639	0.50679
997.06782	0.51047
995.13926	0.51461
993.21069	0.51895
991.28213	0.52280
989.35356	0.52555
987.42500	0.52714
985.49644	0.52775
983.56787	0.52790
981.63931	0.52846
979.71074	0.52969
977.78218	0.53124
975.85361	0.53302
973.92505	0.53528
971.99648	0.53830
970.06792	0.54203
968.13936	0.54599
966.21079	0.55012
964.28223	0.55474
962.35366	0.55962
960.42510	0.56446
958.49653	0.56974
956.56797	0.57588
954.63940	0.58232
952.71084	0.58861
950.78228	0.59501
948.85371	0.60155
946.92515	0.60807
944.99658	0.61440
943.06802	0.62043
941.13945	0.62620
939.21089	0.63193
937.28232	0.63811
935.35376	0.64443
933.42520	0.64971
931.49663	0.65474
929.56807	0.66107
927.63950	0.66788
925.71094	0.67390
923.78237	0.67954
921.85381	0.68543
919.92524	0.69169
917.99668	0.69876
916.06812	0.70673
914.13955	0.71489
912.21099	0.72292
910.28242	0.73146
908.35386	0.74066
906.42529	0.74919
904.49673	0.75729
902.56816	0.76674
900.63960	0.77706
898.71104	0.78731
896.78247	0.79737
894.85391	0.80718
892.92534	0.81743
890.99678	0.82909
889.06821	0.84173
887.13965	0.85411
885.21108	0.86616
883.28252	0.87727
881.35396	0.88759
879.42539	0.89854
877.49683	0.90932
875.56826	0.91933
873.63970	0.92984
871.71113	0.94190
869.78257	0.95411
867.85400	0.96523
865.92544	0.97672
863.99687	0.98895
862.06831	1.00083
860.13975	1.01226
858.21118	1.02423
856.28262	1.03717
854.35405	1.04940
852.42549	1.05984
850.49692	1.07134
848.56836	1.08532
846.63979	1.09924
844.71123	1.11259
842.78267	1.12417
840.85410	1.13354
838.92554	1.14556
836.99697	1.16226
835.06841	1.17932
833.13984	1.19268
831.21128	1.20255
829.28271	1.21062
827.35415	1.21657
825.42559	1.22134
823.49702	1.23082
821.56846	1.24911
819.63989	1.26989
817.71133	1.28760
815.78276	1.31181
813.85420	1.34227
811.92563	1.36241
809.99707	1.37411
808.06851	1.38302
806.13994	1.38211
804.21138	1.38151
802.28281	1.40469
800.35425	1.46491
798.42568	1.54787
796.49712	1.59022
794.56855	1.56009
792.63999	1.51807
790.71143	1.53264
788.78286	1.60129
786.85430	1.63926
784.92573	1.66879
782.99717	1.76052
781.06860	1.91973
779.14004	2.13739
777.21147	2.25932
775.28291	1.82198
773.35435	1.58769
771.42578	1.63920
769.49722	1.71608
767.56865	1.56464
765.64009	1.55530
763.71152	1.77895
761.78296	2.16723
759.85439	2.12620
757.92583	1.71254
755.99727	1.54681
754.06870	1.61625
752.14014	1.65021
750.21157	1.49370
748.28301	1.33195
746.35444	1.19670
744.42588	1.11582
742.49731	1.08702
740.56875	1.12027
738.64019	1.10742
736.71162	0.93513
734.78306	0.84218
732.85449	0.86551
730.92593	0.91363
728.99736	0.92152
727.06880	0.80505
725.14023	0.63712
723.21167	0.54594
721.28311	0.60085
719.35454	0.64565
717.42598	0.47655
715.49741	0.36454
713.56885	0.37236
711.64028	0.38756
709.71172	0.32857
707.78315	0.28729
705.85459	0.28738
703.92603	0.20608
701.99746	0.12359
700.06890	0.14689
698.14033	0.22902
696.21177	0.32041
694.28320	0.34287
692.35464	0.24785
690.42607	0.15622
688.49751	0.08038
686.56895	0.04502
684.64038	0.10831
682.71182	0.23693
680.78325	0.24240
678.85469	0.16900
676.92612	0.18631
674.99756	0.22329
673.06899	0.22276
671.14043	0.19375
669.21187	0.16546
667.28330	0.19089
665.35474	0.31201
663.42617	0.52856
661.49761	0.35144
659.56904	0.10620
657.64048	0.05522
655.71191	0.10368
653.78335	0.16642
651.85479	0.21206
649.92622	0.18557
647.99766	0.18045
646.06909	0.20083
644.14053	0.18709
642.21196	0.16608
640.28340	0.15844
638.35483	0.16875
636.42627	0.16772
634.49771	0.14699
632.56914	0.13360
630.64058	0.11543
628.71201	0.09548
626.78345	0.09043
624.85488	0.07003
622.92632	0.05438
620.99775	0.11016
619.06919	0.19404
617.14062	0.16228
615.21206	0.07955
613.28350	0.10365
611.35493	0.25347
609.42637	0.35402
607.49780	0.29225
605.56924	0.20172
603.64067	0.13383
601.71211	0.07554
599.78354	0.08778
597.85498	0.17128
595.92642	0.18194
593.99785	0.11697
592.06929	0.10741
590.14072	0.20051
588.21216	0.25723
586.28359	0.18590
584.35503	0.10326
582.42646	0.08962
580.49790	0.18493
578.56934	0.33372
576.64077	0.39051
574.71221	0.28344
572.78364	0.18507
570.85508	0.19620
568.92651	0.32269
566.99795	0.41171
565.06938	0.28605
563.14082	0.18928
561.21226	0.16051
559.28369	0.13661
557.35513	0.10444
555.42656	0.10705
553.49800	0.13612
551.56943	0.13586
549.64087	0.12890
547.71230	0.13481
545.78374	0.15109
543.85518	0.16668
541.92661	0.19835
539.99805	0.25468
538.06948	0.28441
536.14092	0.26625
534.21235	0.24233
532.28379	0.19543
530.35522	0.14430
528.42666	0.12653
526.49810	0.14132
524.56953	0.16083
522.64097	0.16945
520.71240	0.16306
518.78384	0.14934
516.85527	0.14796
514.92671	0.16331
512.99814	0.18252
511.06958	0.19438
509.14102	0.16002
507.21245	0.08513
505.28389	0.05504
503.35532	0.11471
501.42676	0.18844
499.49819	0.17652
