3997.91411	0.08084
3995.98555	0.08102
3994.05698	0.08165
3992.12842	0.08236
3990.19985	0.08301
3988.27129	0.08361
3986.34272	0.08397
3984.41416	0.08404
3982.48560	0.08413
3980.55703	0.08436
3978.62847	0.08441
3976.69990	0.08428
3974.77134	0.08441
3972.84277	0.08497
3970.91421	0.08545
3968.98564	0.08544
3967.05708	0.08502
3965.12852	0.08474
3963.19995	0.08518
3961.27139	0.08607
3959.34282	0.08659
3957.41426	0.08628
3955.48569	0.08543
3953.55713	0.08486
3951.62856	0.08517
3949.70000	0.08605
3947.77144	0.08670
3945.84287	0.08684
3943.91431	0.08682
3941.98574	0.08681
3940.05718	0.08660
3938.12861	0.08635
3936.20005	0.08622
3934.27148	0.08636
3932.34292	0.08690
3930.41436	0.08702
3928.48579	0.08638
3926.55723	0.08594
3924.62866	0.08596
3922.70010	0.08583
3920.77153	0.08554
3918.84297	0.08555
3916.91440	0.08571
3914.98584	0.08543
3913.05728	0.08479
3911.12871	0.08452
3909.20015	0.08468
3907.27158	0.08498
3905.34302	0.08579
3903.41445	0.08727
3901.48589	0.08827
3899.55732	0.08772
3897.62876	0.08601
3895.70020	0.08452
3893.77163	0.08431
3891.84307	0.08530
3889.91450	0.08600
3887.98594	0.08560
3886.05737	0.08585
3884.12881	0.08701
3882.20024	0.08765
3880.27168	0.08780
3878.34312	0.08725
3876.41455	0.08637
3874.48599	0.08651
3872.55742	0.08740
3870.62886	0.08848
3868.70029	0.08952
3866.77173	0.08942
3864.84316	0.08923
3862.91460	0.08983
3860.98604	0.08980
3859.05747	0.08923
3857.12891	0.08938
3855.20034	0.09050
3853.27178	0.09264
3851.34321	0.09418
3849.41465	0.09308
3847.48608	0.09149
3845.55752	0.09096
3843.62896	0.09187
3841.70039	0.09357
3839.77183	0.09532
3837.84326	0.09705
3835.91470	0.09761
3833.98613	0.09674
3832.05757	0.09601
3830.12900	0.09609
3828.20044	0.09671
3826.27187	0.09759
3824.34331	0.09861
3822.41475	0.10027
3820.48618	0.10288
3818.55762	0.10418
3816.62905	0.10405
3814.70049	0.10415
3812.77192	0.10388
3810.84336	0.10349
3808.91479	0.10437
3806.98623	0.10699
3805.05767	0.10936
3803.12910	0.11043
3801.20054	0.11201
3799.27197	0.11329
3797.34341	0.11333
3795.41484	0.11365
3793.48628	0.11389
3791.55771	0.11396
3789.62915	0.11489
3787.70059	0.11659
3785.77202	0.11835
3783.84346	0.12009
3781.91489	0.12183
3779.98633	0.12355
3778.05776	0.12501
3776.12920	0.12591
3774.20063	0.12708
3772.27207	0.12883
3770.34351	0.13101
3768.41494	0.13344
3766.48638	0.13545
3764.55781	0.13712
3762.62925	0.13873
3760.70068	0.14100
3758.77212	0.14435
3756.84355	0.14759
3754.91499	0.14981
3752.98643	0.15207
3751.05786	0.15588
3749.12930	0.16005
3747.20073	0.16159
3745.27217	0.16315
3743.34360	0.16694
3741.41504	0.17002
3739.48647	0.17196
3737.55791	0.17513
3735.62935	0.18011
3733.70078	0.18573
3731.77222	0.18999
3729.84365	0.19280
3727.91509	0.19561
3725.98652	0.20015
3724.05796	0.20664
3722.12939	0.21387
3720.20083	0.22127
3718.27227	0.22867
3716.34370	0.23621
3714.41514	0.24399
3712.48657	0.25359
3710.55801	0.26693
3708.62944	0.28063
3706.70088	0.29133
3704.77231	0.30121
3702.84375	0.31332
3700.91519	0.33013
3698.98662	0.34888
3697.05806	0.36640
3695.12949	0.38473
3693.20093	0.40424
3691.27236	0.42606
3689.34380	0.45503
3687.41523	0.48977
3685.48667	0.51871
3683.55811	0.54314
3681.62954	0.57040
3679.70098	0.60249
3677.77241	0.63674
3675.84385	0.67655
3673.91528	0.72833
3671.98672	0.77053
3670.05815	0.80815
3668.12959	0.85922
3666.20103	0.90667
3664.27246	0.94701
3662.34390	0.99003
3660.41533	1.03637
3658.48677	1.08213
3656.55820	1.13061
3654.62964	1.18419
3652.70107	1.22984
3650.77251	1.27061
3648.84395	1.32574
3646.91538	1.39139
3644.98682	1.44021
3643.05825	1.47840
3641.12969	1.51763
3639.20112	1.56093
3637.27256	1.60479
3635.34399	1.64738
3633.41543	1.68981
3631.48687	1.73001
3629.55830	1.77121
3627.62974	1.82442
3625.70117	1.87352
3623.77261	1.90684
3621.84404	1.93937
3619.91548	1.97732
3617.98691	2.02252
3616.05835	2.06558
3614.12979	2.10251
3612.20122	2.14218
3610.27266	2.18170
3608.34409	2.21957
3606.41553	2.25865
3604.48696	2.29685
3602.55840	2.33359
3600.62983	2.37293
3598.70127	2.41401
3596.77271	2.45319
3594.84414	2.49296
3592.91558	2.53493
3590.98701	2.57494
3589.05845	2.61270
3587.12988	2.65651
3585.20132	2.70266
3583.27275	2.74173
3581.34419	2.77892
3579.41562	2.81975
3577.48706	2.86252
3575.55850	2.90530
3573.62993	2.95039
3571.70137	2.99490
3569.77280	3.03530
3567.84424	3.07730
3565.91567	3.13059
3563.98711	3.18215
3562.05854	3.22282
3560.12998	3.26332
3558.20142	3.30759
3556.27285	3.35208
3554.34429	3.39395
3552.41572	3.43821
3550.48716	3.48607
3548.55859	3.53311
3546.63003	3.57816
3544.70146	3.62376
3542.77290	3.67082
3540.84434	3.71861
3538.91577	3.76638
3536.98721	3.81288
3535.05864	3.86087
3533.13008	3.91072
3531.20151	3.96098
3529.27295	4.01039
3527.34438	4.05940
3525.41582	4.10709
3523.48726	4.15429
3521.55869	4.20679
3519.63013	4.26008
3517.70156	4.30630
3515.77300	4.34757
3513.84443	4.39012
3511.91587	4.43504
3509.98730	4.48231
3508.05874	4.53366
3506.13018	4.58578
3504.20161	4.63241
3502.27305	4.67760
3500.34448	4.72611
3498.41592	4.77457
3496.48735	4.82542
3494.55879	4.87735
3492.63022	4.92784
3490.70166	4.97948
3488.77310	5.02919
3486.84453	5.07512
3484.91597	5.12187
3482.98740	5.17139
3481.05884	5.22302
3479.13027	5.27566
3477.20171	5.32494
3475.27314	5.37305
3473.34458	5.42710
3471.41602	5.47890
3469.48745	5.51765
3467.55889	5.55374
3465.63032	5.59909
3463.70176	5.65259
3461.77319	5.70794
3459.84463	5.75852
3457.91606	5.80726
3455.98750	5.86868
3454.05894	5.93577
3452.13037	5.99046
3450.20181	6.03608
3448.27324	6.07616
3446.34468	6.11990
3444.41611	6.18035
3442.48755	6.24897
3440.55898	6.29974
3438.63042	6.32968
3436.70186	6.36462
3434.77329	6.41489
3432.84473	6.46638
3430.91616	6.51382
3428.98760	6.57323
3427.05903	6.64512
3425.13047	6.71949
3423.20190	6.78577
3421.27334	6.84862
3419.34478	6.90103
3417.41621	6.91669
3415.48765	6.91789
3413.55908	6.93802
3411.63052	6.97224
3409.70195	7.00247
3407.77339	7.04267
3405.84482	7.10674
3403.91626	7.18823
3401.98770	7.25205
3400.05913	7.28604
3398.13057	7.32524
3396.20200	7.36706
3394.27344	7.40044
3392.34487	7.43345
3390.41631	7.48673
3388.48774	7.55025
3386.55918	7.58768
3384.63062	7.60180
3382.70205	7.64104
3380.77349	7.68562
3378.84492	7.67623
3376.91636	7.68558
3374.98779	7.75139
3373.05923	7.77131
3371.13066	7.71164
3369.20210	7.70684
3367.27354	7.82753
3365.34497	7.96249
3363.41641	7.98154
3361.48784	7.95206
3359.55928	7.97885
3357.63071	8.01647
3355.70215	8.00802
3353.77358	7.98099
3351.84502	7.98614
3349.91646	8.03011
3347.98789	8.06894
3346.05933	8.04497
3344.13076	8.03056
3342.20220	8.07594
3340.27363	8.07027
3338.34507	8.03876
3336.41650	8.05181
3334.48794	8.06865
3332.55937	8.07532
3330.63081	8.09587
3328.70225	8.13697
3326.77368	8.19696
3324.84512	8.24204
3322.91655	8.23927
3320.98799	8.20612
3319.05942	8.18593
3317.13086	8.22101
3315.20229	8.26240
3313.27373	8.28400
3311.34517	8.32586
3309.41660	8.41715
3307.48804	8.54200
3305.55947	8.56429
3303.63091	8.44187
3301.70234	8.35018
3299.77378	8.39696
3297.84521	8.51778
3295.91665	8.57006
3293.98809	8.45481
3292.05952	8.34089
3290.13096	8.34593
3288.20239	8.35843
3286.27383	8.35731
3284.34526	8.39708
3282.41670	8.43083
3280.48813	8.41969
3278.55957	8.38824
3276.63101	8.33701
3274.70244	8.33543
3272.77388	8.37249
3270.84531	8.38005
3268.91675	8.40763
3266.98818	8.43449
3265.05962	8.43822
3263.13105	8.42464
3261.20249	8.42133
3259.27393	8.46499
3257.34536	8.51856
3255.41680	8.53995
3253.48823	8.49079
3251.55967	8.36963
3249.63110	8.29038
3247.70254	8.34247
3245.77397	8.46811
3243.84541	8.53219
3241.91685	8.49282
3239.98828	8.49438
3238.05972	8.51973
3236.13115	8.43903
3234.20259	8.40138
3232.27402	8.46791
3230.34546	8.48105
3228.41689	8.44644
3226.48833	8.43376
3224.55977	8.35988
3222.63120	8.26831
3220.70264	8.23940
3218.77407	8.20627
3216.84551	8.19456
3214.91694	8.21920
3212.98838	8.17907
3211.05981	8.12484
3209.13125	8.09272
3207.20269	8.01447
3205.27412	7.96538
3203.34556	7.99233
3201.41699	7.99782
3199.48843	7.95935
3197.55986	7.92111
3195.63130	7.85494
3193.70273	7.77192
3191.77417	7.73760
3189.84561	7.73246
3187.91704	7.70286
3185.98848	7.64798
3184.05991	7.56390
3182.13135	7.47205
3180.20278	7.41281
3178.27422	7.34973
3176.34565	7.26232
3174.41709	7.21140
3172.48853	7.21664
3170.55996	7.22529
3168.63140	7.18913
3166.70283	7.09663
3164.77427	6.97328
3162.84570	6.87602
3160.91714	6.81977
3158.98857	6.75828
3157.06001	6.67885
3155.13145	6.60855
3153.20288	6.54059
3151.27432	6.47501
3149.34575	6.42918
3147.41719	6.39339
3145.48862	6.34183
3143.56006	6.26052
3141.63149	6.15871
3139.70293	6.05814
3137.77437	5.98850
3135.84580	5.94187
3133.91724	5.87464
3131.98867	5.78624
3130.06011	5.70833
3128.13154	5.64636
3126.20298	5.58296
3124.27441	5.50977
3122.34585	5.42891
3120.41729	5.34812
3118.48872	5.27661
3116.56016	5.20787
3114.63159	5.13359
3112.70303	5.06071
3110.77446	4.99116
3108.84590	4.92123
3106.91733	4.85293
3104.98877	4.78617
3103.06021	4.72026
3101.13164	4.65165
3099.20308	4.57906
3097.27451	4.51014
3095.34595	4.44402
3093.41738	4.37498
3091.48882	4.30741
3089.56025	4.24440
3087.63169	4.18118
3085.70312	4.11596
3083.77456	4.05028
3081.84600	3.98584
3079.91743	3.92468
3077.98887	3.86529
3076.06030	3.80509
3074.13174	3.74470
3072.20317	3.68358
3070.27461	3.62184
3068.34604	3.56265
3066.41748	3.50555
3064.48892	3.44762
3062.56035	3.38957
3060.63179	3.33420
3058.70322	3.28143
3056.77466	3.22895
3054.84609	3.17623
3052.91753	3.12365
3050.98896	3.07086
3049.06040	3.01751
3047.13184	2.96420
3045.20327	2.91212
3043.27471	2.86219
3041.34614	2.81382
3039.41758	2.76569
3037.48901	2.71823
3035.56045	2.67171
3033.63188	2.62553
3031.70332	2.58018
3029.77476	2.53589
3027.84619	2.49192
3025.91763	2.44836
3023.98906	2.40522
3022.06050	2.36233
3020.13193	2.32090
3018.20337	2.28112
3016.27480	2.24111
3014.34624	2.20082
3012.41768	2.16157
3010.48911	2.12310
3008.56055	2.08490
3006.63198	2.04762
3004.70342	2.01176
3002.77485	1.97656
3000.84629	1.94113
2998.91772	1.90598
2996.98916	1.87207
2995.06060	1.83942
2993.13203	1.80728
2991.20347	1.77523
2989.27490	1.74393
2987.34634	1.71375
2985.41777	1.68397
2983.48921	1.65433
2981.56064	1.62530
2979.63208	1.59702
2977.70352	1.56924
2975.77495	1.54170
2973.84639	1.51449
2971.91782	1.48786
2969.98926	1.46185
2968.06069	1.43624
2966.13213	1.41085
2964.20356	1.38564
2962.27500	1.36101
2960.34644	1.33700
2958.41787	1.31320
2956.48931	1.28955
2954.56074	1.26604
2952.63218	1.24266
2950.70361	1.21969
2948.77505	1.19728
2946.84648	1.17552
2944.91792	1.15432
2942.98936	1.13353
2941.06079	1.11339
2939.13223	1.09363
2937.20366	1.07392
2935.27510	1.05453
2933.34653	1.03554
2931.41797	1.01708
2929.48940	0.99881
2927.56084	0.98011
2925.63228	0.96121
2923.70371	0.94293
2921.77515	0.92594
2919.84658	0.90988
2917.91802	0.89353
2915.98945	0.87670
2914.06089	0.86036
2912.13232	0.84487
2910.20376	0.83004
2908.27520	0.81577
2906.34663	0.80183
2904.41807	0.78786
2902.48950	0.77383
2900.56094	0.76009
2898.63237	0.74689
2896.70381	0.73398
2894.77524	0.72111
2892.84668	0.70854
2890.91812	0.69660
2888.98955	0.68527
2887.06099	0.67434
2885.13242	0.66347
2883.20386	0.65258
2881.27529	0.64193
2879.34673	0.63145
2877.41816	0.62122
2875.48960	0.61135
2873.56104	0.60155
2871.63247	0.59160
2869.70391	0.58134
2867.77534	0.57096
2865.84678	0.56077
2863.91821	0.55064
2861.98965	0.54060
2860.06108	0.53106
2858.13252	0.52209
2856.20396	0.51330
2854.27539	0.50461
2852.34683	0.49612
2850.41826	0.48786
2848.48970	0.47995
2846.56113	0.47259
2844.63257	0.46541
2842.70400	0.45807
2840.77544	0.45121
2838.84687	0.44501
2836.91831	0.43883
2834.98975	0.43258
2833.06118	0.42661
2831.13262	0.42086
2829.20405	0.41506
2827.27549	0.40926
2825.34692	0.40346
2823.41836	0.39747
2821.48979	0.39149
2819.56123	0.38586
2817.63267	0.38047
2815.70410	0.37514
2813.77554	0.36989
2811.84697	0.36468
2809.91841	0.35949
2807.98984	0.35442
2806.06128	0.34936
2804.13271	0.34426
2802.20415	0.33938
2800.27559	0.33471
2798.34702	0.33006
2796.41846	0.32553
2794.48989	0.32111
2792.56133	0.31670
2790.63276	0.31238
2788.70420	0.30826
2786.77563	0.30418
2784.84707	0.29998
2782.91851	0.29586
2780.98994	0.29200
2779.06138	0.28814
2777.13281	0.28436
2775.20425	0.28100
2773.27568	0.27780
2771.34712	0.27438
2769.41855	0.27084
2767.48999	0.26740
2765.56143	0.26411
2763.63286	0.26090
2761.70430	0.25772
2759.77573	0.25457
2757.84717	0.25146
2755.91860	0.24848
2753.99004	0.24552
2752.06147	0.24259
2750.13291	0.23981
2748.20435	0.23717
2746.27578	0.23466
2744.34722	0.23224
2742.41865	0.22971
2740.49009	0.22715
2738.56152	0.22480
2736.63296	0.22247
2734.70439	0.22009
2732.77583	0.21791
2730.84727	0.21588
2728.91870	0.21375
2726.99014	0.21147
2725.06157	0.20922
2723.13301	0.20724
2721.20444	0.20548
2719.27588	0.20363
2717.34731	0.20154
2715.41875	0.19947
2713.49019	0.19779
2711.56162	0.19638
2709.63306	0.19483
2707.70449	0.19309
2705.77593	0.19149
2703.84736	0.19011
2701.91880	0.18875
2699.99023	0.18723
2698.06167	0.18566
2696.13311	0.18425
2694.20454	0.18294
2692.27598	0.18169
2690.34741	0.18052
2688.41885	0.17923
2686.49028	0.17780
2684.56172	0.17651
2682.63315	0.17547
2680.70459	0.17454
2678.77603	0.17360
2676.84746	0.17259
2674.91890	0.17155
2672.99033	0.17059
2671.06177	0.16977
2669.13320	0.16902
2667.20464	0.16820
2665.27607	0.16722
2663.34751	0.16617
2661.41895	0.16527
2659.49038	0.16460
2657.56182	0.16388
2655.63325	0.16305
2653.70469	0.16230
2651.77612	0.16170
2649.84756	0.16115
2647.91899	0.16055
2645.99043	0.16000
2644.06187	0.15968
2642.13330	0.15934
2640.20474	0.15876
2638.27617	0.15813
2636.34761	0.15766
2634.41904	0.15730
2632.49048	0.15701
2630.56191	0.15678
2628.63335	0.15657
2626.70479	0.15630
2624.77622	0.15599
2622.84766	0.15578
2620.91909	0.15556
2618.99053	0.15530
2617.06196	0.15517
2615.13340	0.15517
2613.20483	0.15507
2611.27627	0.15493
2609.34771	0.15483
2607.41914	0.15474
2605.49058	0.15469
2603.56201	0.15475
2601.63345	0.15486
2599.70488	0.15493
2597.77632	0.15500
2595.84775	0.15522
2593.91919	0.15544
2591.99062	0.15539
2590.06206	0.15522
2588.13350	0.15536
2586.20493	0.15584
2584.27637	0.15630
2582.34780	0.15661
2580.41924	0.15685
2578.49067	0.15714
2576.56211	0.15751
2574.63354	0.15786
2572.70498	0.15826
2570.77642	0.15880
2568.84785	0.15923
2566.91929	0.15947
2564.99072	0.15963
2563.06216	0.15988
2561.13359	0.16034
2559.20503	0.16093
2557.27646	0.16152
2555.34790	0.16217
2553.41934	0.16284
2551.49077	0.16343
2549.56221	0.16382
2547.63364	0.16422
2545.70508	0.16483
2543.77651	0.16551
2541.84795	0.16618
2539.91938	0.16689
2537.99082	0.16771
2536.06226	0.16855
2534.13369	0.16923
2532.20513	0.16975
2530.27656	0.17027
2528.34800	0.17095
2526.41943	0.17181
2524.49087	0.17269
2522.56230	0.17348
2520.63374	0.17414
2518.70518	0.17480
2516.77661	0.17562
2514.84805	0.17654
2512.91948	0.17742
2510.99092	0.17821
2509.06235	0.17897
2507.13379	0.17977
2505.20522	0.18059
2503.27666	0.18145
2501.34810	0.18237
2499.41953	0.18322
2497.49097	0.18402
2495.56240	0.18484
2493.63384	0.18562
2491.70527	0.18645
2489.77671	0.18736
2487.84814	0.18833
2485.91958	0.18942
2483.99102	0.19046
2482.06245	0.19122
2480.13389	0.19183
2478.20532	0.19254
2476.27676	0.19341
2474.34819	0.19438
2472.41963	0.19544
2470.49106	0.19647
2468.56250	0.19742
2466.63394	0.19836
2464.70537	0.19931
2462.77681	0.20031
2460.84824	0.20142
2458.91968	0.20253
2456.99111	0.20346
2455.06255	0.20421
2453.13398	0.20499
2451.20542	0.20588
2449.27686	0.20688
2447.34829	0.20808
2445.41973	0.20924
2443.49116	0.21019
2441.56260	0.21117
2439.63403	0.21224
2437.70547	0.21329
2435.77690	0.21432
2433.84834	0.21535
2431.91978	0.21642
2429.99121	0.21753
2428.06265	0.21865
2426.13408	0.21970
2424.20552	0.22059
2422.27695	0.22159
2420.34839	0.22287
2418.41982	0.22421
2416.49126	0.22535
2414.56270	0.22640
2412.63413	0.22756
2410.70557	0.22871
2408.77700	0.22978
2406.84844	0.23093
2404.91987	0.23228
2402.99131	0.23364
2401.06274	0.23490
2399.13418	0.23612
2397.20562	0.23732
2395.27705	0.23843
2393.34849	0.23949
2391.41992	0.24063
2389.49136	0.24186
2387.56279	0.24301
2385.63423	0.24398
2383.70566	0.24476
2381.77710	0.24522
2379.84854	0.24532
2377.91997	0.24510
2375.99141	0.24457
2374.06284	0.24396
2372.13428	0.24337
2370.20571	0.24293
2368.27715	0.24284
2366.34858	0.24309
2364.42002	0.24339
2362.49146	0.24348
2360.56289	0.24391
2358.63433	0.24555
2356.70576	0.24827
2354.77720	0.25187
2352.84863	0.25587
2350.92007	0.25927
2348.99150	0.26138
2347.06294	0.26208
2345.13437	0.26199
2343.20581	0.26217
2341.27725	0.26293
2339.34868	0.26447
2337.42012	0.26671
2335.49155	0.26880
2333.56299	0.27061
2331.63442	0.27240
2329.70586	0.27436
2327.77729	0.27704
2325.84873	0.28008
2323.92017	0.28254
2321.99160	0.28470
2320.06304	0.28720
2318.13447	0.29002
2316.20591	0.29295
2314.27734	0.29563
2312.34878	0.29781
2310.42021	0.29990
2308.49165	0.30225
2306.56309	0.30466
2304.63452	0.30698
2302.70596	0.30932
2300.77739	0.31172
2298.84883	0.31401
2296.92026	0.31613
2294.99170	0.31816
2293.06313	0.32023
2291.13457	0.32238
2289.20601	0.32457
2287.27744	0.32682
2285.34888	0.32915
2283.42031	0.33131
2281.49175	0.33327
2279.56318	0.33527
2277.63462	0.33735
2275.70605	0.33930
2273.77749	0.34115
2271.84893	0.34318
2269.92036	0.34540
2267.99180	0.34763
2266.06323	0.34988
2264.13467	0.35208
2262.20610	0.35417
2260.27754	0.35622
2258.34897	0.35834
2256.42041	0.36054
2254.49185	0.36277
2252.56328	0.36506
2250.63472	0.36742
2248.70615	0.36966
2246.77759	0.37174
2244.84902	0.37391
2242.92046	0.37629
2240.99189	0.37867
2239.06333	0.38086
2237.13477	0.38291
2235.20620	0.38496
2233.27764	0.38715
2231.34907	0.38958
2229.42051	0.39209
2227.49194	0.39445
2225.56338	0.39672
2223.63481	0.39895
2221.70625	0.40113
2219.77769	0.40338
2217.84912	0.40564
2215.92056	0.40780
2213.99199	0.40992
2212.06343	0.41201
2210.13486	0.41408
2208.20630	0.41628
2206.27773	0.41856
2204.34917	0.42068
2202.42061	0.42263
2200.49204	0.42461
2198.56348	0.42661
2196.63491	0.42854
2194.70635	0.43042
2192.77778	0.43229
2190.84922	0.43419
2188.92065	0.43603
2186.99209	0.43773
2185.06353	0.43948
2183.13496	0.44126
2181.20640	0.44291
2179.27783	0.44446
2177.34927	0.44602
2175.42070	0.44763
2173.49214	0.44929
2171.56357	0.45088
2169.63501	0.45229
2167.70645	0.45356
2165.77788	0.45479
2163.84932	0.45600
2161.92075	0.45709
2159.99219	0.45814
2158.06362	0.45924
2156.13506	0.46024
2154.20649	0.46099
2152.27793	0.46165
2150.34937	0.46234
2148.42080	0.46299
2146.49224	0.46352
2144.56367	0.46395
2142.63511	0.46432
2140.70654	0.46455
2138.77798	0.46471
2136.84941	0.46491
2134.92085	0.46514
2132.99229	0.46524
2131.06372	0.46511
2129.13516	0.46482
2127.20659	0.46443
2125.27803	0.46408
2123.34946	0.46379
2121.42090	0.46345
2119.49233	0.46284
2117.56377	0.46197
2115.63521	0.46106
2113.70664	0.46026
2111.77808	0.45942
2109.84951	0.45849
2107.92095	0.45755
2105.99238	0.45650
2104.06382	0.45523
2102.13525	0.45386
2100.20669	0.45245
2098.27812	0.45091
2096.34956	0.44932
2094.42100	0.44773
2092.49243	0.44615
2090.56387	0.44454
2088.63530	0.44273
2086.70674	0.44081
2084.77817	0.43892
2082.84961	0.43703
2080.92104	0.43508
2078.99248	0.43306
2077.06392	0.43092
2075.13535	0.42868
2073.20679	0.42643
2071.27822	0.42420
2069.34966	0.42194
2067.42109	0.41959
2065.49253	0.41720
2063.56396	0.41475
2061.63540	0.41229
2059.70684	0.40980
2057.77827	0.40722
2055.84971	0.40459
2053.92114	0.40197
2051.99258	0.39935
2050.06401	0.39669
2048.13545	0.39407
2046.20688	0.39149
2044.27832	0.38889
2042.34976	0.38620
2040.42119	0.38341
2038.49263	0.38061
2036.56406	0.37782
2034.63550	0.37507
2032.70693	0.37233
2030.77837	0.36954
2028.84980	0.36672
2026.92124	0.36395
2024.99268	0.36121
2023.06411	0.35841
2021.13555	0.35555
2019.20698	0.35275
2017.27842	0.35007
2015.34985	0.34734
2013.42129	0.34458
2011.49272	0.34184
2009.56416	0.33910
2007.63560	0.33634
2005.70703	0.33365
2003.77847	0.33100
2001.84990	0.32826
1999.92134	0.32551
1997.99277	0.32288
1996.06421	0.32032
1994.13564	0.31785
1992.20708	0.31549
1990.27852	0.31300
1988.34995	0.31043
1986.42139	0.30795
1984.49282	0.30547
1982.56426	0.30299
1980.63569	0.30058
1978.70713	0.29833
1976.77856	0.29612
1974.85000	0.29396
1972.92144	0.29191
1970.99287	0.28992
1969.06431	0.28794
1967.13574	0.28592
1965.20718	0.28383
1963.27861	0.28177
1961.35005	0.27983
1959.42148	0.27795
1957.49292	0.27612
1955.56436	0.27429
1953.63579	0.27244
1951.70723	0.27064
1949.77866	0.26903
1947.85010	0.26748
1945.92153	0.26592
1943.99297	0.26454
1942.06440	0.26320
1940.13584	0.26158
1938.20728	0.25992
1936.27871	0.25857
1934.35015	0.25743
1932.42158	0.25631
1930.49302	0.25508
1928.56445	0.25383
1926.63589	0.25273
1924.70732	0.25184
1922.77876	0.25101
1920.85020	0.25011
1918.92163	0.24931
1916.99307	0.24846
1915.06450	0.24738
1913.13594	0.24640
1911.20737	0.24577
1909.27881	0.24523
1907.35024	0.24456
1905.42168	0.24379
1903.49312	0.24313
1901.56455	0.24260
1899.63599	0.24209
1897.70742	0.24159
1895.77886	0.24115
1893.85029	0.24080
1891.92173	0.24051
1889.99316	0.24042
1888.06460	0.24031
1886.13604	0.24004
1884.20747	0.23978
1882.27891	0.23953
1880.35034	0.23928
1878.42178	0.23913
1876.49321	0.23909
1874.56465	0.23906
1872.63608	0.23913
1870.70752	0.23953
1868.77896	0.24030
1866.85039	0.24068
1864.92183	0.24045
1862.99326	0.24033
1861.06470	0.24047
1859.13613	0.24077
1857.20757	0.24112
1855.27900	0.24158
1853.35044	0.24206
1851.42187	0.24263
1849.49331	0.24330
1847.56475	0.24412
1845.63618	0.24516
1843.70762	0.24623
1841.77905	0.24680
1839.85049	0.24700
1837.92192	0.24764
1835.99336	0.24863
1834.06479	0.24965
1832.13623	0.25073
1830.20767	0.25224
1828.27910	0.25371
1826.35054	0.25469
1824.42197	0.25594
1822.49341	0.25726
1820.56484	0.25845
1818.63628	0.25974
1816.70771	0.26131
1814.77915	0.26290
1812.85059	0.26462
1810.92202	0.26674
1808.99346	0.26886
1807.06489	0.27070
1805.13633	0.27257
1803.20776	0.27496
1801.27920	0.27767
1799.35063	0.28048
1797.42207	0.28299
1795.49351	0.28538
1793.56494	0.28827
1791.63638	0.29206
1789.70781	0.29553
1787.77925	0.29796
1785.85068	0.30091
1783.92212	0.30458
1781.99355	0.30866
1780.06499	0.31301
1778.13643	0.31739
1776.20786	0.32142
1774.27930	0.32577
1772.35073	0.33176
1770.42217	0.33817
1768.49360	0.34344
1766.56504	0.34849
1764.63647	0.35380
1762.70791	0.35974
1760.77935	0.36716
1758.85078	0.37425
1756.92222	0.38154
1754.99365	0.38940
1753.06509	0.39649
1751.13652	0.40506
1749.20796	0.41591
1747.27939	0.42656
1745.35083	0.43586
1743.42227	0.44554
1741.49370	0.45607
1739.56514	0.46855
1737.63657	0.48127
1735.70801	0.49264
1733.77944	0.50953
1731.85088	0.52923
1729.92231	0.54458
1727.99375	0.56015
1726.06519	0.57714
1724.13662	0.59577
1722.20806	0.61582
1720.27949	0.63456
1718.35093	0.65659
1716.42236	0.68796
1714.49380	0.71742
1712.56523	0.74192
1710.63667	0.76607
1708.70811	0.79209
1706.77954	0.82156
1704.85098	0.85632
1702.92241	0.88742
1700.99385	0.91863
1699.06528	0.96405
1697.13672	1.00512
1695.20815	1.04696
1693.27959	1.08806
1691.35103	1.12167
1689.42246	1.16040
1687.49390	1.20112
1685.56533	1.24071
1683.63677	1.30032
1681.70820	1.36091
1679.77964	1.40002
1677.85107	1.43773
1675.92251	1.48155
1673.99395	1.53501
1672.06538	1.58255
1670.13682	1.62909
1668.20825	1.68776
1666.27969	1.73531
1664.35112	1.77613
1662.42256	1.82720
1660.49399	1.88438
1658.56543	1.92947
1656.63687	1.96658
1654.70830	2.00237
1652.77974	2.05746
1650.85117	2.10744
1648.92261	2.12656
1646.99404	2.15206
1645.06548	2.18176
1643.13691	2.20114
1641.20835	2.21221
1639.27979	2.22211
1637.35122	2.22901
1635.42266	2.22970
1633.49409	2.22217
1631.56553	2.20835
1629.63696	2.19090
1627.70840	2.16349
1625.77983	2.13232
1623.85127	2.09468
1621.92271	2.04862
1619.99414	2.00580
1618.06558	1.96294
1616.13701	1.90295
1614.20845	1.84135
1612.27988	1.79380
1610.35132	1.74508
1608.42275	1.69258
1606.49419	1.64025
1604.56562	1.59104
1602.63706	1.54331
1600.70850	1.49709
1598.77993	1.45454
1596.85137	1.41442
1594.92280	1.37541
1592.99424	1.33764
1591.06567	1.30301
1589.13711	1.27066
1587.20854	1.24044
1585.27998	1.21237
1583.35142	1.18598
1581.42285	1.16161
1579.49429	1.14048
1577.56572	1.12142
1575.63716	1.09875
1573.70859	1.07867
1571.78003	1.06505
1569.85146	1.05049
1567.92290	1.03433
1565.99434	1.02197
1564.06577	1.01199
1562.13721	1.00378
1560.20864	0.99777
1558.28008	0.98969
1556.35151	0.98129
1554.42295	0.97535
1552.49438	0.96982
1550.56582	0.96389
1548.63726	0.95664
1546.70869	0.94880
1544.78013	0.94040
1542.85156	0.93110
1540.92300	0.91888
1538.99443	0.89939
1537.06587	0.88397
1535.13730	0.87389
1533.20874	0.86162
1531.28018	0.84797
1529.35161	0.83742
1527.42305	0.82769
1525.49448	0.81788
1523.56592	0.80977
1521.63735	0.80217
1519.70879	0.79358
1517.78022	0.78579
1515.85166	0.77747
1513.92310	0.76882
1511.99453	0.76141
1510.06597	0.75524
1508.13740	0.74987
1506.20884	0.74108
1504.28027	0.73160
1502.35171	0.72569
1500.42314	0.72109
1498.49458	0.71685
1496.56602	0.71194
1494.63745	0.70635
1492.70889	0.70169
1490.78032	0.69793
1488.85176	0.69372
1486.92319	0.68909
1484.99463	0.68500
1483.06606	0.68176
1481.13750	0.67909
1479.20894	0.67680
1477.28037	0.67505
1475.35181	0.67367
1473.42324	0.67225
1471.49468	0.66995
1469.56611	0.66701
1467.63755	0.66437
1465.70898	0.66218
1463.78042	0.66018
1461.85186	0.65865
1459.92329	0.65795
1457.99473	0.65768
1456.06616	0.65633
1454.13760	0.65365
1452.20903	0.65115
1450.28047	0.64895
1448.35190	0.64691
1446.42334	0.64479
1444.49478	0.64274
1442.56621	0.64075
1440.63765	0.63865
1438.70908	0.63656
1436.78052	0.63428
1434.85195	0.63175
1432.92339	0.62962
1430.99482	0.62801
1429.06626	0.62661
1427.13770	0.62543
1425.20913	0.62470
1423.28057	0.62430
1421.35200	0.62404
1419.42344	0.62398
1417.49487	0.62340
1415.56631	0.62189
1413.63774	0.62045
1411.70918	0.61939
1409.78062	0.61864
1407.85205	0.61832
1405.92349	0.61852
1403.99492	0.61861
1402.06636	0.61794
1400.13779	0.61692
1398.20923	0.61567
1396.28066	0.61398
1394.35210	0.61161
1392.42354	0.60877
1390.49497	0.60617
1388.56641	0.60387
1386.63784	0.60124
1384.70928	0.59819
1382.78071	0.59527
1380.85215	0.59259
1378.92358	0.59019
1376.99502	0.58835
1375.06646	0.58707
1373.13789	0.58584
1371.20933	0.58456
1369.28076	0.58356
1367.35220	0.58254
1365.42363	0.58129
1363.49507	0.58014
1361.56650	0.57895
1359.63794	0.57754
1357.70937	0.57633
1355.78081	0.57545
1353.85225	0.57464
1351.92368	0.57376
1349.99512	0.57298
1348.06655	0.57226
1346.13799	0.57137
1344.20942	0.57043
1342.28086	0.56969
1340.35229	0.56921
1338.42373	0.56850
1336.49517	0.56738
1334.56660	0.56639
1332.63804	0.56583
1330.70947	0.56560
1328.78091	0.56551
1326.85234	0.56534
1324.92378	0.56502
1322.99521	0.56473
1321.06665	0.56457
1319.13809	0.56457
1317.20952	0.56452
1315.28096	0.56415
1313.35239	0.56349
1311.42383	0.56283
1309.49526	0.56221
1307.56670	0.56147
1305.63813	0.56068
1303.70957	0.56005
1301.78101	0.55946
1299.85244	0.55865
1297.92388	0.55766
1295.99531	0.55668
1294.06675	0.55587
1292.13818	0.55519
1290.20962	0.55442
1288.28105	0.55348
1286.35249	0.55248
1284.42393	0.55163
1282.49536	0.55101
1280.56680	0.55034
1278.63823	0.54951
1276.70967	0.54868
1274.78110	0.54777
1272.85254	0.54685
1270.92397	0.54625
1268.99541	0.54593
1267.06685	0.54547
1265.13828	0.54464
1263.20972	0.54378
1261.28115	0.54320
1259.35259	0.54265
1257.42402	0.54208
1255.49546	0.54189
1253.56689	0.54196
1251.63833	0.54177
1249.70977	0.54138
1247.78120	0.54109
1245.85264	0.54082
1243.92407	0.54030
1241.99551	0.53956
1240.06694	0.53873
1238.13838	0.53765
1236.20981	0.53638
1234.28125	0.53517
1232.35269	0.53397
1230.42412	0.53265
1228.49556	0.53130
1226.56699	0.53010
1224.63843	0.52905
1222.70986	0.52810
1220.78130	0.52726
1218.85273	0.52636
1216.92417	0.52526
1214.99561	0.52428
1213.06704	0.52356
1211.13848	0.52289
1209.20991	0.52212
1207.28135	0.52141
1205.35278	0.52083
1203.42422	0.52016
1201.49565	0.51931
1199.56709	0.51852
1197.63853	0.51786
1195.70996	0.51717
1193.78140	0.51660
1191.85283	0.51625
1189.92427	0.51601
1187.99570	0.51585
1186.06714	0.51577
1184.13857	0.51565
1182.21001	0.51561
1180.28145	0.51585
1178.35288	0.51635
1176.42432	0.51695
1174.49575	0.51758
1172.56719	0.51816
1170.63862	0.51848
1168.71006	0.51843
1166.78149	0.51822
1164.85293	0.51823
1162.92437	0.51848
1160.99580	0.51860
1159.06724	0.51831
1157.13867	0.51762
1155.21011	0.51669
1153.28154	0.51568
1151.35298	0.51437
1149.42441	0.51242
1147.49585	0.51019
1145.56729	0.50816
1143.63872	0.50618
1141.71016	0.50394
1139.78159	0.50158
1137.85303	0.49966
1135.92446	0.49831
1133.99590	0.49712
1132.06733	0.49588
1130.13877	0.49459
1128.21021	0.49330
1126.28164	0.49223
1124.35308	0.49150
1122.42451	0.49080
1120.49595	0.48991
1118.56738	0.48922
1116.63882	0.48906
1114.71025	0.48910
1112.78169	0.48909
1110.85312	0.48927
1108.92456	0.48976
1106.99600	0.49046
1105.06743	0.49159
1103.13887	0.49307
1101.21030	0.49459
1099.28174	0.49646
1097.35317	0.49894
1095.42461	0.50197
1093.49604	0.50551
1091.56748	0.50950
1089.63892	0.51421
1087.71035	0.51981
1085.78179	0.52600
1083.85322	0.53267
1081.92466	0.53946
1079.99609	0.54519
1078.06753	0.54873
1076.13896	0.54958
1074.21040	0.54788
1072.28184	0.54395
1070.35327	0.53843
1068.42471	0.53211
1066.49614	0.52536
1064.56758	0.51860
1062.63901	0.51258
1060.71045	0.50752
1058.78188	0.50320
1056.85332	0.49932
1054.92476	0.49573
1052.99619	0.49265
1051.06763	0.49015
1049.13906	0.48813
1047.21050	0.48659
1045.28193	0.48524
1043.35337	0.48391
1041.42480	0.48277
1039.49624	0.48193
1037.56768	0.48134
1035.63911	0.48104
1033.71055	0.48094
1031.78198	0.48073
1029.85342	0.48048
1027.92485	0.48055
1025.99629	0.48073
1024.06772	0.48072
1022.13916	0.48092
1020.21060	0.48155
1018.28203	0.48232
1016.35347	0.48315
1014.42490	0.48414
1012.49634	0.48509
1010.56777	0.48604
1008.63921	0.48726
1006.71064	0.48884
1004.78208	0.49063
1002.85352	0.49268
1000.92495	0.49526
998.99639	0.49846
997.06782	0.50219
995.13926	0.50624
993.21069	0.51028
991.28213	0.51378
989.35356	0.51626
987.42500	0.51763
985.49644	0.51836
983.56787	0.51904
981.63931	0.52005
979.71074	0.52166
977.78218	0.52390
975.85361	0.52653
973.92505	0.52939
971.99648	0.53243
970.06792	0.53571
968.13936	0.53949
966.21079	0.54376
964.28223	0.54821
962.35366	0.55289
960.42510	0.55791
958.49653	0.56319
956.56797	0.56885
954.63940	0.57501
952.71084	0.58143
950.78228	0.58802
948.85371	0.59461
946.92515	0.60080
944.99658	0.60679
943.06802	0.61314
941.13945	0.61961
939.21089	0.62566
937.28232	0.63152
935.35376	0.63745
933.42520	0.64316
931.49663	0.64861
929.56807	0.65421
927.63950	0.66012
925.71094	0.66624
923.78237	0.67270
921.85381	0.67956
919.92524	0.68652
917.99668	0.69334
916.06812	0.70019
914.13955	0.70732
912.21099	0.71478
910.28242	0.72280
908.35386	0.73158
906.42529	0.74086
904.49673	0.75038
902.56816	0.75968
900.63960	0.76898
898.71104	0.77876
896.78247	0.78841
894.85391	0.79802
892.92534	0.80848
890.99678	0.81935
889.06821	0.83006
887.13965	0.84153
885.21108	0.85378
883.28252	0.86575
881.35396	0.87717
879.42539	0.88754
877.49683	0.89740
875.56826	0.90914
873.63970	0.92138
871.71113	0.93139
869.78257	0.94103
867.85400	0.95237
865.92544	0.96497
863.99687	0.97793
862.06831	0.99079
860.13975	1.00284
858.21118	1.01363
856.28262	1.02530
854.35405	1.03919
852.42549	1.05319
850.49692	1.06626
848.56836	1.07952
846.63979	1.09307
844.71123	1.10459
842.78267	1.11172
840.85410	1.11773
838.92554	1.12859
836.99697	1.14417
835.06841	1.15855
833.13984	1.17001
831.21128	1.18227
829.28271	1.19464
827.35415	1.20417
825.42559	1.21043
823.49702	1.21472
821.56846	1.22568
819.63989	1.25092
817.71133	1.27731
815.78276	1.28896
813.85420	1.29273
811.92563	1.30212
809.99707	1.31814
808.06851	1.32882
806.13994	1.32355
804.21138	1.31110
802.28281	1.31956
800.35425	1.34016
798.42568	1.35589
796.49712	1.40434
794.56855	1.48102
792.63999	1.52877
790.71143	1.52726
788.78286	1.50391
786.85430	1.51550
784.92573	1.55792
782.99717	1.59729
781.06860	1.67090
779.14004	1.73148
777.21147	1.67554
775.28291	1.60301
773.35435	1.55345
771.42578	1.51631
769.49722	1.51248
767.56865	1.48720
765.64009	1.43186
763.71152	1.40258
761.78296	1.44911
759.85439	1.67428
757.92583	4.54755
755.99727	4.53598
754.06870	1.58452
752.14014	1.34446
750.21157	1.33030
748.28301	1.54331
746.35444	1.89703
744.42588	1.48019
742.49731	1.19951
740.56875	1.11563
738.64019	1.08506
736.71162	0.94350
734.78306	0.85512
732.85449	0.81241
730.92593	0.74264
728.99736	0.68934
727.06880	0.68911
725.14023	0.67417
723.21167	0.58339
721.28311	0.52801
719.35454	0.56444
717.42598	0.60332
715.49741	0.53054
713.56885	0.43998
711.64028	0.41812
709.71172	0.51337
707.78315	0.67912
705.85459	1.12841
703.92603	4.22356
701.99746	4.21198
700.06890	0.52812
698.14033	0.42835
696.21177	0.52556
694.28320	0.44898
692.35464	0.30782
690.42607	0.26701
688.49751	0.20535
686.56895	0.13281
684.64038	0.20385
682.71182	0.46299
680.78325	1.02524
678.85469	0.76412
676.92612	0.36668
674.99756	0.26580
673.06899	0.29591
671.14043	0.38742
669.21187	0.54136
667.28330	0.76493
665.35474	0.68570
663.42617	0.52419
661.49761	0.44906
659.56904	0.45926
657.64048	0.53874
655.71191	0.64670
653.78335	0.98812
651.85479	0.78019
649.92622	0.35110
647.99766	0.23358
646.06909	0.23998
644.14053	0.24702
642.21196	0.26655
640.28340	0.29200
638.35483	0.25115
636.42627	0.19373
634.49771	0.16126
632.56914	0.22151
630.64058	0.31291
628.71201	0.21486
626.78345	0.06112
624.85488	0.10949
622.92632	0.28824
620.99775	0.45547
619.06919	0.43463
617.14062	0.30670
615.21206	0.18018
613.28350	0.10874
611.35493	0.15738
609.42637	0.23179
607.49780	0.17883
605.56924	0.14065
603.64067	0.16805
601.71211	0.21194
599.78354	0.27887
597.85498	0.36971
595.92642	0.39175
593.99785	0.32513
592.06929	0.31031
590.14072	0.37183
588.21216	0.48835
586.28359	0.47785
584.35503	0.39659
582.42646	0.33593
580.49790	0.21780
578.56934	0.08212
576.64077	0.05057
574.71221	0.11775
572.78364	0.18582
570.85508	0.22651
568.92651	0.25770
566.99795	0.27278
565.06938	0.22179
563.14082	0.13220
561.21226	0.10891
559.28369	0.15338
557.35513	0.14870
555.42656	0.14077
553.49800	0.19365
551.56943	0.22519
549.64087	0.17469
547.71230	0.11492
545.78374	0.10295
543.85518	0.13138
541.92661	0.19383
539.99805	0.28268
538.06948	0.37086
536.14092	0.38364
534.21235	0.31002
532.28379	0.26536
530.35522	0.28388
528.42666	0.27926
526.49810	0.22753
524.56953	0.21784
522.64097	0.26185
520.71240	0.32548
518.78384	0.29023
516.85527	0.21166
514.92671	0.20675
512.99814	0.34326
511.06958	0.47594
509.14102	0.31194
507.21245	0.20210
505.28389	0.16136
503.35532	0.13890
501.42676	0.12432
499.49819	0.11175
