3997.91411	0.07195
3995.98555	0.07251
3994.05698	0.07273
3992.12842	0.07291
3990.19985	0.07325
3988.27129	0.07379
3986.34272	0.07418
3984.41416	0.07404
3982.48560	0.07355
3980.55703	0.07330
3978.62847	0.07347
3976.69990	0.07405
3974.77134	0.07489
3972.84277	0.07533
3970.91421	0.07505
3968.98564	0.07474
3967.05708	0.07495
3965.12852	0.07540
3963.19995	0.07572
3961.27139	0.07602
3959.34282	0.07631
3957.41426	0.07652
3955.48569	0.07652
3953.55713	0.07631
3951.62856	0.07642
3949.70000	0.07692
3947.77144	0.07728
3945.84287	0.07730
3943.91431	0.07717
3941.98574	0.07709
3940.05718	0.07684
3938.12861	0.07657
3936.20005	0.07667
3934.27148	0.07700
3932.34292	0.07733
3930.41436	0.07740
3928.48579	0.07695
3926.55723	0.07640
3924.62866	0.07641
3922.70010	0.07656
3920.77153	0.07638
3918.84297	0.07639
3916.91440	0.07661
3914.98584	0.07630
3913.05728	0.07547
3911.12871	0.07488
3909.20015	0.07497
3907.27158	0.07587
3905.34302	0.07751
3903.41445	0.07932
3901.48589	0.07999
3899.55732	0.07913
3897.62876	0.07741
3895.70020	0.07599
3893.77163	0.07586
3891.84307	0.07688
3889.91450	0.07741
3887.98594	0.07692
3886.05737	0.07727
3884.12881	0.07834
3882.20024	0.07849
3880.27168	0.07801
3878.34312	0.07723
3876.41455	0.07666
3874.48599	0.07721
3872.55742	0.07842
3870.62886	0.07943
3868.70029	0.08024
3866.77173	0.08049
3864.84316	0.08074
3862.91460	0.08126
3860.98604	0.08084
3859.05747	0.08012
3857.12891	0.08047
3855.20034	0.08237
3853.27178	0.08576
3851.34321	0.08703
3849.41465	0.08447
3847.48608	0.08245
3845.55752	0.08237
3843.62896	0.08370
3841.70039	0.08547
3839.77183	0.08722
3837.84326	0.08863
3835.91470	0.08867
3833.98613	0.08806
3832.05757	0.08818
3830.12900	0.08841
3828.20044	0.08829
3826.27187	0.08853
3824.34331	0.08939
3822.41475	0.09127
3820.48618	0.09421
3818.55762	0.09542
3816.62905	0.09507
3814.70049	0.09508
3812.77192	0.09474
3810.84336	0.09439
3808.91479	0.09497
3806.98623	0.09679
3805.05767	0.09903
3803.12910	0.10106
3801.20054	0.10383
3799.27197	0.10551
3797.34341	0.10510
3795.41484	0.10501
3793.48628	0.10526
3791.55771	0.10553
3789.62915	0.10612
3787.70059	0.10725
3785.77202	0.10914
3783.84346	0.11105
3781.91489	0.11230
3779.98633	0.11368
3778.05776	0.11546
3776.12920	0.11682
3774.20063	0.11799
3772.27207	0.11957
3770.34351	0.12175
3768.41494	0.12413
3766.48638	0.12617
3764.55781	0.12822
3762.62925	0.12992
3760.70068	0.13172
3758.77212	0.13466
3756.84355	0.13779
3754.91499	0.14022
3752.98643	0.14335
3751.05786	0.14829
3749.12930	0.15334
3747.20073	0.15564
3745.27217	0.15721
3743.34360	0.16050
3741.41504	0.16430
3739.48647	0.16760
3737.55791	0.17202
3735.62935	0.17896
3733.70078	0.18650
3731.77222	0.19098
3729.84365	0.19403
3727.91509	0.19779
3725.98652	0.20312
3724.05796	0.20989
3722.12939	0.21665
3720.20083	0.22193
3718.27227	0.22613
3716.34370	0.23127
3714.41514	0.23821
3712.48657	0.24803
3710.55801	0.26223
3708.62944	0.27713
3706.70088	0.28864
3704.77231	0.29908
3702.84375	0.31173
3700.91519	0.32846
3698.98662	0.34630
3697.05806	0.36279
3695.12949	0.38047
3693.20093	0.39995
3691.27236	0.42167
3689.34380	0.44920
3687.41523	0.48156
3685.48667	0.50978
3683.55811	0.53476
3681.62954	0.56197
3679.70098	0.59294
3677.77241	0.62627
3675.84385	0.66605
3673.91528	0.71767
3671.98672	0.75935
3670.05815	0.79672
3668.12959	0.84784
3666.20103	0.89527
3664.27246	0.93532
3662.34390	0.97790
3660.41533	1.02369
3658.48677	1.06945
3656.55820	1.11861
3654.62964	1.17257
3652.70107	1.21824
3650.77251	1.25924
3648.84395	1.31493
3646.91538	1.38103
3644.98682	1.42928
3643.05825	1.46682
3641.12969	1.50660
3639.20112	1.55094
3637.27256	1.59481
3635.34399	1.63694
3633.41543	1.67966
3631.48687	1.72077
3629.55830	1.76270
3627.62974	1.81545
3625.70117	1.86405
3623.77261	1.89767
3621.84404	1.93001
3619.91548	1.96690
3617.98691	2.01147
3616.05835	2.05576
3614.12979	2.09353
3612.20122	2.13146
3610.27266	2.16906
3608.34409	2.20813
3606.41553	2.25076
3604.48696	2.29118
3602.55840	2.32781
3600.62983	2.36640
3598.70127	2.40647
3596.77271	2.44462
3594.84414	2.48368
3592.91558	2.52444
3590.98701	2.56281
3589.05845	2.59896
3587.12988	2.64254
3585.20132	2.69080
3583.27275	2.73127
3581.34419	2.76831
3579.41562	2.80977
3577.48706	2.85421
3575.55850	2.89620
3573.62993	2.93765
3571.70137	2.98005
3569.77280	3.02182
3567.84424	3.06456
3565.91567	3.11364
3563.98711	3.16154
3562.05854	3.20364
3560.12998	3.24741
3558.20142	3.29266
3556.27285	3.33657
3554.34429	3.37990
3552.41572	3.42548
3550.48716	3.47214
3548.55859	3.51714
3546.63003	3.56209
3544.70146	3.61122
3542.77290	3.66105
3540.84434	3.70699
3538.91577	3.75198
3536.98721	3.79882
3535.05864	3.84887
3533.13008	3.89850
3531.20151	3.94526
3529.27295	3.99130
3527.34438	4.03986
3525.41582	4.08823
3523.48726	4.13297
3521.55869	4.17898
3519.63013	4.22818
3517.70156	4.27826
3515.77300	4.32631
3513.84443	4.37077
3511.91587	4.41528
3509.98730	4.46571
3508.05874	4.52011
3506.13018	4.57042
3504.20161	4.61754
3502.27305	4.66987
3500.34448	4.72342
3498.41592	4.77130
3496.48735	4.82095
3494.55879	4.87204
3492.63022	4.91585
3490.70166	4.95557
3488.77310	5.00015
3486.84453	5.04995
3484.91597	5.09825
3482.98740	5.13970
3481.05884	5.17890
3479.13027	5.22472
3477.20171	5.27548
3475.27314	5.32503
3473.34458	5.37490
3471.41602	5.42735
3469.48745	5.47849
3467.55889	5.52599
3465.63032	5.57556
3463.70176	5.63135
3461.77319	5.67996
3459.84463	5.72376
3457.91606	5.78478
3455.98750	5.85656
3454.05894	5.91095
3452.13037	5.94345
3450.20181	5.98012
3448.27324	6.03756
3446.34468	6.11041
3444.41611	6.17473
3442.48755	6.21850
3440.55898	6.25470
3438.63042	6.29098
3436.70186	6.33049
3434.77329	6.38972
3432.84473	6.46829
3430.91616	6.53227
3428.98760	6.56881
3427.05903	6.59254
3425.13047	6.62118
3423.20190	6.65968
3421.27334	6.71787
3419.34478	6.79411
3417.41621	6.84630
3415.48765	6.86175
3413.55908	6.87904
3411.63052	6.92090
3409.70195	6.97428
3407.77339	7.04964
3405.84482	7.14544
3403.91626	7.20148
3401.98770	7.20607
3400.05913	7.23492
3398.13057	7.29368
3396.20200	7.34416
3394.27344	7.39001
3392.34487	7.40890
3390.41631	7.41576
3388.48774	7.44822
3386.55918	7.51297
3384.63062	7.57315
3382.70205	7.62221
3380.77349	7.69502
3378.84492	7.73612
3376.91636	7.71318
3374.98779	7.69799
3373.05923	7.72801
3371.13066	7.77158
3369.20210	7.81484
3367.27354	7.80431
3365.34497	7.76819
3363.41641	7.81267
3361.48784	7.86189
3359.55928	7.81721
3357.63071	7.79381
3355.70215	7.92964
3353.77358	8.13437
3351.84502	8.18599
3349.91646	8.10249
3347.98789	8.01870
3346.05933	7.91086
3344.13076	7.83612
3342.20220	7.91073
3340.27363	8.06003
3338.34507	8.16527
3336.41650	8.19046
3334.48794	8.16598
3332.55937	8.16119
3330.63081	8.17473
3328.70225	8.16726
3326.77368	8.17520
3324.84512	8.20232
3322.91655	8.21218
3320.98799	8.22527
3319.05942	8.21787
3317.13086	8.17575
3315.20229	8.11280
3313.27373	8.11164
3311.34517	8.21902
3309.41660	8.29298
3307.48804	8.22818
3305.55947	8.15715
3303.63091	8.20173
3301.70234	8.28704
3299.77378	8.30451
3297.84521	8.27481
3295.91665	8.28642
3293.98809	8.32585
3292.05952	8.27590
3290.13096	8.15000
3288.20239	8.12150
3286.27383	8.26211
3284.34526	8.43695
3282.41670	8.48315
3280.48813	8.38622
3278.55957	8.29655
3276.63101	8.31936
3274.70244	8.37534
3272.77388	8.32079
3270.84531	8.16687
3268.91675	8.07137
3266.98818	8.16347
3265.05962	8.32111
3263.13105	8.24521
3261.20249	8.10398
3259.27393	8.11914
3257.34536	8.22084
3255.41680	8.33748
3253.48823	8.44132
3251.55967	8.43574
3249.63110	8.27746
3247.70254	8.12143
3245.77397	8.10179
3243.84541	8.18803
3241.91685	8.23184
3239.98828	8.21853
3238.05972	8.24415
3236.13115	8.34029
3234.20259	8.46980
3232.27402	8.48387
3230.34546	8.39154
3228.41689	8.30608
3226.48833	8.22318
3224.55977	8.18844
3222.63120	8.22747
3220.70264	8.24870
3218.77407	8.23639
3216.84551	8.22716
3214.91694	8.17423
3212.98838	8.08814
3211.05981	8.01521
3209.13125	7.99855
3207.20269	8.06993
3205.27412	8.09946
3203.34556	7.98263
3201.41699	7.87551
3199.48843	7.88089
3197.55986	7.90623
3195.63130	7.85729
3193.70273	7.79677
3191.77417	7.76260
3189.84561	7.69771
3187.91704	7.64061
3185.98848	7.65469
3184.05991	7.66836
3182.13135	7.62003
3180.20278	7.53901
3178.27422	7.41577
3176.34565	7.27894
3174.41709	7.19856
3172.48853	7.15168
3170.55996	7.09208
3168.63140	7.02505
3166.70283	6.96278
3164.77427	6.92469
3162.84570	6.89855
3160.91714	6.84158
3158.98857	6.75266
3157.06001	6.66590
3155.13145	6.61151
3153.20288	6.56265
3151.27432	6.47776
3149.34575	6.38941
3147.41719	6.33529
3145.48862	6.28145
3143.56006	6.20082
3141.63149	6.12795
3139.70293	6.07194
3137.77437	6.00596
3135.84580	5.92560
3133.91724	5.84512
3131.98867	5.76930
3130.06011	5.69808
3128.13154	5.62925
3126.20298	5.55718
3124.27441	5.48594
3122.34585	5.41477
3120.41729	5.33972
3118.48872	5.26587
3116.56016	5.19337
3114.63159	5.11887
3112.70303	5.04602
3110.77446	4.97571
3108.84590	4.90510
3106.91733	4.83846
3104.98877	4.77409
3103.06021	4.70304
3101.13164	4.62884
3099.20308	4.56016
3097.27451	4.49567
3095.34595	4.43205
3093.41738	4.36659
3091.48882	4.29659
3089.56025	4.22732
3087.63169	4.16454
3085.70312	4.10412
3083.77456	4.04095
3081.84600	3.97844
3079.91743	3.91802
3077.98887	3.85617
3076.06030	3.79368
3074.13174	3.73276
3072.20317	3.67366
3070.27461	3.61563
3068.34604	3.55792
3066.41748	3.50160
3064.48892	3.44662
3062.56035	3.39077
3060.63179	3.33465
3058.70322	3.27943
3056.77466	3.22452
3054.84609	3.17009
3052.91753	3.11637
3050.98896	3.06317
3049.06040	3.01077
3047.13184	2.95949
3045.20327	2.90939
3043.27471	2.86055
3041.34614	2.81275
3039.41758	2.76493
3037.48901	2.71619
3035.56045	2.66737
3033.63188	2.62062
3031.70332	2.57629
3029.77476	2.53266
3027.84619	2.48891
3025.91763	2.44520
3023.98906	2.40166
3022.06050	2.35903
3020.13193	2.31762
3018.20337	2.27703
3016.27480	2.23763
3014.34624	2.19922
3012.41768	2.16050
3010.48911	2.12156
3008.56055	2.08348
3006.63198	2.04625
3004.70342	2.01003
3002.77485	1.97492
3000.84629	1.93982
2998.91772	1.90489
2996.98916	1.87133
2995.06060	1.83885
2993.13203	1.80661
2991.20347	1.77524
2989.27490	1.74496
2987.34634	1.71446
2985.41777	1.68394
2983.48921	1.65471
2981.56064	1.62652
2979.63208	1.59864
2977.70352	1.57136
2975.77495	1.54467
2973.84639	1.51814
2971.91782	1.49186
2969.98926	1.46615
2968.06069	1.44102
2966.13213	1.41628
2964.20356	1.39192
2962.27500	1.36796
2960.34644	1.34402
2958.41787	1.31982
2956.48931	1.29595
2954.56074	1.27261
2952.63218	1.24934
2950.70361	1.22634
2948.77505	1.20417
2946.84648	1.18290
2944.91792	1.16200
2942.98936	1.14123
2941.06079	1.12102
2939.13223	1.10148
2937.20366	1.08209
2935.27510	1.06242
2933.34653	1.04307
2931.41797	1.02439
2929.48940	1.00580
2927.56084	0.98740
2925.63228	0.96946
2923.70371	0.95167
2921.77515	0.93375
2919.84658	0.91606
2917.91802	0.89889
2915.98945	0.88221
2914.06089	0.86626
2912.13232	0.85092
2910.20376	0.83573
2908.27520	0.82100
2906.34663	0.80671
2904.41807	0.79234
2902.48950	0.77825
2900.56094	0.76457
2898.63237	0.75089
2896.70381	0.73758
2894.77524	0.72489
2892.84668	0.71263
2890.91812	0.70079
2888.98955	0.68940
2887.06099	0.67822
2885.13242	0.66720
2883.20386	0.65671
2881.27529	0.64680
2879.34673	0.63699
2877.41816	0.62700
2875.48960	0.61716
2873.56104	0.60755
2871.63247	0.59768
2869.70391	0.58750
2867.77534	0.57710
2865.84678	0.56619
2863.91821	0.55507
2861.98965	0.54443
2860.06108	0.53449
2858.13252	0.52501
2856.20396	0.51585
2854.27539	0.50698
2852.34683	0.49849
2850.41826	0.49042
2848.48970	0.48241
2846.56113	0.47423
2844.63257	0.46625
2842.70400	0.45896
2840.77544	0.45241
2838.84687	0.44639
2836.91831	0.44043
2834.98975	0.43420
2833.06118	0.42807
2831.13262	0.42225
2829.20405	0.41642
2827.27549	0.41031
2825.34692	0.40407
2823.41836	0.39808
2821.48979	0.39240
2819.56123	0.38685
2817.63267	0.38121
2815.70410	0.37550
2813.77554	0.36997
2811.84697	0.36468
2809.91841	0.35945
2807.98984	0.35413
2806.06128	0.34878
2804.13271	0.34370
2802.20415	0.33903
2800.27559	0.33441
2798.34702	0.32970
2796.41846	0.32517
2794.48989	0.32085
2792.56133	0.31653
2790.63276	0.31208
2788.70420	0.30760
2786.77563	0.30331
2784.84707	0.29926
2782.91851	0.29535
2780.98994	0.29151
2779.06138	0.28775
2777.13281	0.28403
2775.20425	0.28029
2773.27568	0.27648
2771.34712	0.27281
2769.41855	0.26943
2767.48999	0.26614
2765.56143	0.26280
2763.63286	0.25939
2761.70430	0.25610
2759.77573	0.25298
2757.84717	0.24980
2755.91860	0.24662
2753.99004	0.24367
2752.06147	0.24076
2750.13291	0.23780
2748.20435	0.23514
2746.27578	0.23274
2744.34722	0.23022
2742.41865	0.22762
2740.49009	0.22520
2738.56152	0.22279
2736.63296	0.22025
2734.70439	0.21770
2732.77583	0.21530
2730.84727	0.21313
2728.91870	0.21110
2726.99014	0.20899
2725.06157	0.20686
2723.13301	0.20480
2721.20444	0.20276
2719.27588	0.20079
2717.34731	0.19890
2715.41875	0.19708
2713.49019	0.19540
2711.56162	0.19390
2709.63306	0.19237
2707.70449	0.19072
2705.77593	0.18913
2703.84736	0.18757
2701.91880	0.18597
2699.99023	0.18442
2698.06167	0.18295
2696.13311	0.18154
2694.20454	0.18014
2692.27598	0.17885
2690.34741	0.17767
2688.41885	0.17648
2686.49028	0.17525
2684.56172	0.17401
2682.63315	0.17276
2680.70459	0.17150
2678.77603	0.17024
2676.84746	0.16915
2674.91890	0.16823
2672.99033	0.16737
2671.06177	0.16651
2669.13320	0.16549
2667.20464	0.16432
2665.27607	0.16338
2663.34751	0.16278
2661.41895	0.16218
2659.49038	0.16140
2657.56182	0.16061
2655.63325	0.15994
2653.70469	0.15936
2651.77612	0.15868
2649.84756	0.15787
2647.91899	0.15711
2645.99043	0.15656
2644.06187	0.15617
2642.13330	0.15576
2640.20474	0.15518
2638.27617	0.15443
2636.34761	0.15384
2634.41904	0.15352
2632.49048	0.15320
2630.56191	0.15288
2628.63335	0.15269
2626.70479	0.15257
2624.77622	0.15241
2622.84766	0.15214
2620.91909	0.15181
2618.99053	0.15153
2617.06196	0.15123
2615.13340	0.15098
2613.20483	0.15084
2611.27627	0.15074
2609.34771	0.15071
2607.41914	0.15075
2605.49058	0.15068
2603.56201	0.15059
2601.63345	0.15060
2599.70488	0.15064
2597.77632	0.15077
2595.84775	0.15093
2593.91919	0.15101
2591.99062	0.15111
2590.06206	0.15122
2588.13350	0.15145
2586.20493	0.15178
2584.27637	0.15203
2582.34780	0.15212
2580.41924	0.15218
2578.49067	0.15236
2576.56211	0.15271
2574.63354	0.15315
2572.70498	0.15369
2570.77642	0.15416
2568.84785	0.15441
2566.91929	0.15461
2564.99072	0.15502
2563.06216	0.15566
2561.13359	0.15627
2559.20503	0.15663
2557.27646	0.15689
2555.34790	0.15736
2553.41934	0.15809
2551.49077	0.15876
2549.56221	0.15920
2547.63364	0.15961
2545.70508	0.16021
2543.77651	0.16085
2541.84795	0.16142
2539.91938	0.16204
2537.99082	0.16272
2536.06226	0.16332
2534.13369	0.16391
2532.20513	0.16468
2530.27656	0.16553
2528.34800	0.16631
2526.41943	0.16701
2524.49087	0.16770
2522.56230	0.16843
2520.63374	0.16921
2518.70518	0.16999
2516.77661	0.17076
2514.84805	0.17150
2512.91948	0.17222
2510.99092	0.17291
2509.06235	0.17365
2507.13379	0.17452
2505.20522	0.17547
2503.27666	0.17647
2501.34810	0.17738
2499.41953	0.17808
2497.49097	0.17881
2495.56240	0.17974
2493.63384	0.18073
2491.70527	0.18161
2489.77671	0.18238
2487.84814	0.18315
2485.91958	0.18405
2483.99102	0.18494
2482.06245	0.18565
2480.13389	0.18640
2478.20532	0.18747
2476.27676	0.18860
2474.34819	0.18949
2472.41963	0.19024
2470.49106	0.19103
2468.56250	0.19196
2466.63394	0.19299
2464.70537	0.19391
2462.77681	0.19478
2460.84824	0.19577
2458.91968	0.19681
2456.99111	0.19787
2455.06255	0.19885
2453.13398	0.19966
2451.20542	0.20049
2449.27686	0.20152
2447.34829	0.20264
2445.41973	0.20368
2443.49116	0.20466
2441.56260	0.20567
2439.63403	0.20662
2437.70547	0.20759
2435.77690	0.20875
2433.84834	0.21002
2431.91978	0.21121
2429.99121	0.21223
2428.06265	0.21314
2426.13408	0.21410
2424.20552	0.21519
2422.27695	0.21626
2420.34839	0.21725
2418.41982	0.21835
2416.49126	0.21953
2414.56270	0.22061
2412.63413	0.22163
2410.70557	0.22283
2408.77700	0.22419
2406.84844	0.22551
2404.91987	0.22673
2402.99131	0.22789
2401.06274	0.22907
2399.13418	0.23037
2397.20562	0.23168
2395.27705	0.23285
2393.34849	0.23399
2391.41992	0.23523
2389.49136	0.23664
2387.56279	0.23849
2385.63423	0.24124
2383.70566	0.24531
2381.77710	0.25072
2379.84854	0.25723
2377.91997	0.26456
2375.99141	0.27280
2374.06284	0.28234
2372.13428	0.29324
2370.20571	0.30514
2368.27715	0.31728
2366.34858	0.32866
2364.42002	0.33852
2362.49146	0.34664
2360.56289	0.35255
2358.63433	0.35465
2356.70576	0.35092
2354.77720	0.34203
2352.84863	0.33095
2350.92007	0.31998
2348.99150	0.31353
2347.06294	0.31461
2345.13437	0.32299
2343.20581	0.33348
2341.27725	0.33930
2339.34868	0.34102
2337.42012	0.34125
2335.49155	0.34088
2333.56299	0.34050
2331.63442	0.34057
2329.70586	0.34022
2327.77729	0.33890
2325.84873	0.33703
2323.92017	0.33505
2321.99160	0.33293
2320.06304	0.33052
2318.13447	0.32784
2316.20591	0.32534
2314.27734	0.32375
2312.34878	0.32310
2310.42021	0.32275
2308.49165	0.32206
2306.56309	0.32090
2304.63452	0.31988
2302.70596	0.31967
2300.77739	0.32004
2298.84883	0.32053
2296.92026	0.32118
2294.99170	0.32200
2293.06313	0.32280
2291.13457	0.32359
2289.20601	0.32437
2287.27744	0.32507
2285.34888	0.32585
2283.42031	0.32710
2281.49175	0.32895
2279.56318	0.33120
2277.63462	0.33355
2275.70605	0.33583
2273.77749	0.33802
2271.84893	0.34025
2269.92036	0.34243
2267.99180	0.34440
2266.06323	0.34628
2264.13467	0.34821
2262.20610	0.35019
2260.27754	0.35220
2258.34897	0.35419
2256.42041	0.35610
2254.49185	0.35803
2252.56328	0.35999
2250.63472	0.36200
2248.70615	0.36408
2246.77759	0.36611
2244.84902	0.36816
2242.92046	0.37037
2240.99189	0.37261
2239.06333	0.37472
2237.13477	0.37679
2235.20620	0.37896
2233.27764	0.38125
2231.34907	0.38353
2229.42051	0.38571
2227.49194	0.38775
2225.56338	0.38982
2223.63481	0.39208
2221.70625	0.39447
2219.77769	0.39684
2217.84912	0.39904
2215.92056	0.40116
2213.99199	0.40332
2212.06343	0.40547
2210.13486	0.40764
2208.20630	0.40983
2206.27773	0.41187
2204.34917	0.41374
2202.42061	0.41566
2200.49204	0.41780
2198.56348	0.42002
2196.63491	0.42209
2194.70635	0.42404
2192.77778	0.42588
2190.84922	0.42767
2188.92065	0.42955
2186.99209	0.43143
2185.06353	0.43321
2183.13496	0.43486
2181.20640	0.43646
2179.27783	0.43814
2177.34927	0.43980
2175.42070	0.44130
2173.49214	0.44274
2171.56357	0.44412
2169.63501	0.44552
2167.70645	0.44709
2165.77788	0.44846
2163.84932	0.44945
2161.92075	0.45036
2159.99219	0.45141
2158.06362	0.45246
2156.13506	0.45347
2154.20649	0.45441
2152.27793	0.45517
2150.34937	0.45581
2148.42080	0.45637
2146.49224	0.45690
2144.56367	0.45744
2142.63511	0.45792
2140.70654	0.45822
2138.77798	0.45837
2136.84941	0.45853
2134.92085	0.45868
2132.99229	0.45866
2131.06372	0.45849
2129.13516	0.45831
2127.20659	0.45810
2125.27803	0.45776
2123.34946	0.45735
2121.42090	0.45680
2119.49233	0.45607
2117.56377	0.45532
2115.63521	0.45460
2113.70664	0.45379
2111.77808	0.45294
2109.84951	0.45206
2107.92095	0.45100
2105.99238	0.44977
2104.06382	0.44853
2102.13525	0.44728
2100.20669	0.44594
2098.27812	0.44446
2096.34956	0.44291
2094.42100	0.44138
2092.49243	0.43980
2090.56387	0.43815
2088.63530	0.43644
2086.70674	0.43461
2084.77817	0.43266
2082.84961	0.43068
2080.92104	0.42869
2078.99248	0.42667
2077.06392	0.42460
2075.13535	0.42238
2073.20679	0.42006
2071.27822	0.41781
2069.34966	0.41565
2067.42109	0.41347
2065.49253	0.41115
2063.56396	0.40861
2061.63540	0.40610
2059.70684	0.40370
2057.77827	0.40122
2055.84971	0.39851
2053.92114	0.39567
2051.99258	0.39301
2050.06401	0.39055
2048.13545	0.38809
2046.20688	0.38542
2044.27832	0.38266
2042.34976	0.37996
2040.42119	0.37727
2038.49263	0.37437
2036.56406	0.37145
2034.63550	0.36880
2032.70693	0.36629
2030.77837	0.36364
2028.84980	0.36079
2026.92124	0.35787
2024.99268	0.35504
2023.06411	0.35227
2021.13555	0.34955
2019.20698	0.34688
2017.27842	0.34418
2015.34985	0.34146
2013.42129	0.33876
2011.49272	0.33593
2009.56416	0.33303
2007.63560	0.33024
2005.70703	0.32750
2003.77847	0.32480
2001.84990	0.32222
1999.92134	0.31972
1997.99277	0.31717
1996.06421	0.31465
1994.13564	0.31225
1992.20708	0.30989
1990.27852	0.30743
1988.34995	0.30491
1986.42139	0.30234
1984.49282	0.29982
1982.56426	0.29744
1980.63569	0.29514
1978.70713	0.29285
1976.77856	0.29055
1974.85000	0.28835
1972.92144	0.28634
1970.99287	0.28435
1969.06431	0.28226
1967.13574	0.28015
1965.20718	0.27805
1963.27861	0.27600
1961.35005	0.27407
1959.42148	0.27221
1957.49292	0.27040
1955.56436	0.26869
1953.63579	0.26704
1951.70723	0.26535
1949.77866	0.26367
1947.85010	0.26213
1945.92153	0.26074
1943.99297	0.25945
1942.06440	0.25809
1940.13584	0.25648
1938.20728	0.25484
1936.27871	0.25339
1934.35015	0.25207
1932.42158	0.25088
1930.49302	0.24973
1928.56445	0.24857
1926.63589	0.24751
1924.70732	0.24666
1922.77876	0.24587
1920.85020	0.24497
1918.92163	0.24412
1916.99307	0.24329
1915.06450	0.24227
1913.13594	0.24128
1911.20737	0.24052
1909.27881	0.23984
1907.35024	0.23912
1905.42168	0.23837
1903.49312	0.23772
1901.56455	0.23715
1899.63599	0.23662
1897.70742	0.23627
1895.77886	0.23606
1893.85029	0.23583
1891.92173	0.23556
1889.99316	0.23543
1888.06460	0.23516
1886.13604	0.23467
1884.20747	0.23432
1882.27891	0.23411
1880.35034	0.23399
1878.42178	0.23397
1876.49321	0.23400
1874.56465	0.23402
1872.63608	0.23426
1870.70752	0.23479
1868.77896	0.23547
1866.85039	0.23566
1864.92183	0.23533
1862.99326	0.23521
1861.06470	0.23549
1859.13613	0.23596
1857.20757	0.23633
1855.27900	0.23667
1853.35044	0.23705
1851.42187	0.23763
1849.49331	0.23838
1847.56475	0.23919
1845.63618	0.24011
1843.70762	0.24105
1841.77905	0.24163
1839.85049	0.24204
1837.92192	0.24289
1835.99336	0.24384
1834.06479	0.24471
1832.13623	0.24574
1830.20767	0.24732
1828.27910	0.24893
1826.35054	0.25003
1824.42197	0.25130
1822.49341	0.25244
1820.56484	0.25341
1818.63628	0.25461
1816.70771	0.25621
1814.77915	0.25793
1812.85059	0.25988
1810.92202	0.26210
1808.99346	0.26415
1807.06489	0.26594
1805.13633	0.26775
1803.20776	0.27001
1801.27920	0.27271
1799.35063	0.27561
1797.42207	0.27809
1795.49351	0.28046
1793.56494	0.28338
1791.63638	0.28706
1789.70781	0.29036
1787.77925	0.29283
1785.85068	0.29593
1783.92212	0.29974
1781.99355	0.30384
1780.06499	0.30806
1778.13643	0.31231
1776.20786	0.31639
1774.27930	0.32085
1772.35073	0.32677
1770.42217	0.33296
1768.49360	0.33820
1766.56504	0.34339
1764.63647	0.34881
1762.70791	0.35480
1760.77935	0.36218
1758.85078	0.36908
1756.92222	0.37616
1754.99365	0.38394
1753.06509	0.39110
1751.13652	0.39982
1749.20796	0.41069
1747.27939	0.42106
1745.35083	0.43018
1743.42227	0.44002
1741.49370	0.45080
1739.56514	0.46327
1737.63657	0.47572
1735.70801	0.48688
1733.77944	0.50348
1731.85088	0.52286
1729.92231	0.53811
1727.99375	0.55360
1726.06519	0.57059
1724.13662	0.58933
1722.20806	0.60941
1720.27949	0.62818
1718.35093	0.65050
1716.42236	0.68248
1714.49380	0.71222
1712.56523	0.73644
1710.63667	0.76026
1708.70811	0.78609
1706.77954	0.81532
1704.85098	0.84989
1702.92241	0.88109
1700.99385	0.91241
1699.06528	0.95792
1697.13672	0.99958
1695.20815	1.04237
1693.27959	1.08439
1691.35103	1.11889
1689.42246	1.15852
1687.49390	1.20007
1685.56533	1.24061
1683.63677	1.30118
1681.70820	1.36249
1679.77964	1.40275
1677.85107	1.44173
1675.92251	1.48660
1673.99395	1.54136
1672.06538	1.59013
1670.13682	1.63798
1668.20825	1.69889
1666.27969	1.74920
1664.35112	1.79306
1662.42256	1.84690
1660.49399	1.90534
1658.56543	1.95107
1656.63687	1.98923
1654.70830	2.02547
1652.77974	2.08213
1650.85117	2.13599
1648.92261	2.15612
1646.99404	2.18026
1645.06548	2.20757
1643.13691	2.22610
1641.20835	2.23698
1639.27979	2.24575
1637.35122	2.24965
1635.42266	2.24724
1633.49409	2.23908
1631.56553	2.22563
1629.63696	2.20850
1627.70840	2.18061
1625.77983	2.14783
1623.85127	2.10801
1621.92271	2.06027
1619.99414	2.01682
1618.06558	1.97371
1616.13701	1.91303
1614.20845	1.85061
1612.27988	1.80198
1610.35132	1.75148
1608.42275	1.69697
1606.49419	1.64337
1604.56562	1.59421
1602.63706	1.54681
1600.70850	1.50028
1598.77993	1.45738
1596.85137	1.41723
1594.92280	1.37830
1592.99424	1.34067
1591.06567	1.30617
1589.13711	1.27373
1587.20854	1.24343
1585.27998	1.21572
1583.35142	1.19010
1581.42285	1.16666
1579.49429	1.14641
1577.56572	1.12803
1575.63716	1.10605
1573.70859	1.08675
1571.78003	1.07407
1569.85146	1.06106
1567.92290	1.04664
1565.99434	1.03573
1564.06577	1.02754
1562.13721	1.02125
1560.20864	1.01713
1558.28008	1.01247
1556.35151	1.00751
1554.42295	1.00357
1552.49438	0.99992
1550.56582	0.99586
1548.63726	0.99013
1546.70869	0.98294
1544.78013	0.97440
1542.85156	0.96435
1540.92300	0.95080
1538.99443	0.92898
1537.06587	0.91140
1535.13730	0.89959
1533.20874	0.88506
1531.28018	0.86943
1529.35161	0.85797
1527.42305	0.84747
1525.49448	0.83651
1523.56592	0.82701
1521.63735	0.81790
1519.70879	0.80833
1517.78022	0.80008
1515.85166	0.79065
1513.92310	0.78052
1511.99453	0.77192
1510.06597	0.76474
1508.13740	0.75834
1506.20884	0.74810
1504.28027	0.73765
1502.35171	0.73134
1500.42314	0.72620
1498.49458	0.72099
1496.56602	0.71507
1494.63745	0.70907
1492.70889	0.70438
1490.78032	0.70048
1488.85176	0.69583
1486.92319	0.69081
1484.99463	0.68656
1483.06606	0.68318
1481.13750	0.68030
1479.20894	0.67795
1477.28037	0.67644
1475.35181	0.67551
1473.42324	0.67475
1471.49468	0.67314
1469.56611	0.67053
1467.63755	0.66812
1465.70898	0.66643
1463.78042	0.66503
1461.85186	0.66376
1459.92329	0.66319
1457.99473	0.66312
1456.06616	0.66201
1454.13760	0.65938
1452.20903	0.65668
1450.28047	0.65432
1448.35190	0.65235
1446.42334	0.65033
1444.49478	0.64827
1442.56621	0.64623
1440.63765	0.64400
1438.70908	0.64182
1436.78052	0.63939
1434.85195	0.63639
1432.92339	0.63376
1430.99482	0.63195
1429.06626	0.63071
1427.13770	0.62994
1425.20913	0.62971
1423.28057	0.62974
1421.35200	0.62972
1419.42344	0.62959
1417.49487	0.62874
1415.56631	0.62721
1413.63774	0.62604
1411.70918	0.62544
1409.78062	0.62518
1407.85205	0.62526
1405.92349	0.62572
1403.99492	0.62611
1402.06636	0.62596
1400.13779	0.62541
1398.20923	0.62432
1396.28066	0.62244
1394.35210	0.61961
1392.42354	0.61621
1390.49497	0.61312
1388.56641	0.61035
1386.63784	0.60726
1384.70928	0.60368
1382.78071	0.60008
1380.85215	0.59676
1378.92358	0.59408
1376.99502	0.59216
1375.06646	0.59088
1373.13789	0.58976
1371.20933	0.58865
1369.28076	0.58770
1367.35220	0.58662
1365.42363	0.58533
1363.49507	0.58422
1361.56650	0.58310
1359.63794	0.58167
1357.70937	0.58035
1355.78081	0.57923
1353.85225	0.57807
1351.92368	0.57694
1349.99512	0.57598
1348.06655	0.57509
1346.13799	0.57419
1344.20942	0.57345
1342.28086	0.57289
1340.35229	0.57243
1338.42373	0.57184
1336.49517	0.57095
1334.56660	0.57005
1332.63804	0.56938
1330.70947	0.56902
1328.78091	0.56891
1326.85234	0.56894
1324.92378	0.56899
1322.99521	0.56903
1321.06665	0.56916
1319.13809	0.56927
1317.20952	0.56904
1315.28096	0.56861
1313.35239	0.56824
1311.42383	0.56771
1309.49526	0.56693
1307.56670	0.56620
1305.63813	0.56561
1303.70957	0.56498
1301.78101	0.56427
1299.85244	0.56348
1297.92388	0.56268
1295.99531	0.56186
1294.06675	0.56091
1292.13818	0.55986
1290.20962	0.55883
1288.28105	0.55799
1286.35249	0.55730
1284.42393	0.55646
1282.49536	0.55539
1280.56680	0.55434
1278.63823	0.55340
1276.70967	0.55255
1274.78110	0.55171
1272.85254	0.55093
1270.92397	0.55025
1268.99541	0.54952
1267.06685	0.54867
1265.13828	0.54787
1263.20972	0.54728
1261.28115	0.54672
1259.35259	0.54612
1257.42402	0.54557
1255.49546	0.54513
1253.56689	0.54478
1251.63833	0.54465
1249.70977	0.54476
1247.78120	0.54473
1245.85264	0.54439
1243.92407	0.54404
1241.99551	0.54364
1240.06694	0.54272
1238.13838	0.54119
1236.20981	0.53945
1234.28125	0.53771
1232.35269	0.53599
1230.42412	0.53436
1228.49556	0.53287
1226.56699	0.53151
1224.63843	0.53033
1222.70986	0.52927
1220.78130	0.52819
1218.85273	0.52708
1216.92417	0.52597
1214.99561	0.52502
1213.06704	0.52427
1211.13848	0.52350
1209.20991	0.52265
1207.28135	0.52200
1205.35278	0.52156
1203.42422	0.52099
1201.49565	0.52010
1199.56709	0.51914
1197.63853	0.51846
1195.70996	0.51795
1193.78140	0.51733
1191.85283	0.51669
1189.92427	0.51622
1187.99570	0.51591
1186.06714	0.51565
1184.13857	0.51548
1182.21001	0.51557
1180.28145	0.51598
1178.35288	0.51668
1176.42432	0.51759
1174.49575	0.51849
1172.56719	0.51902
1170.63862	0.51917
1168.71006	0.51925
1166.78149	0.51938
1164.85293	0.51948
1162.92437	0.51953
1160.99580	0.51951
1159.06724	0.51937
1157.13867	0.51906
1155.21011	0.51838
1153.28154	0.51710
1151.35298	0.51535
1149.42441	0.51341
1147.49585	0.51142
1145.56729	0.50933
1143.63872	0.50713
1141.71016	0.50494
1139.78159	0.50283
1137.85303	0.50086
1135.92446	0.49924
1133.99590	0.49822
1132.06733	0.49749
1130.13877	0.49665
1128.21021	0.49572
1126.28164	0.49480
1124.35308	0.49391
1122.42451	0.49316
1120.49595	0.49259
1118.56738	0.49227
1116.63882	0.49234
1114.71025	0.49274
1112.78169	0.49327
1110.85312	0.49379
1108.92456	0.49444
1106.99600	0.49530
1105.06743	0.49634
1103.13887	0.49755
1101.21030	0.49881
1099.28174	0.50016
1097.35317	0.50211
1095.42461	0.50501
1093.49604	0.50874
1091.56748	0.51325
1089.63892	0.51873
1087.71035	0.52531
1085.78179	0.53265
1083.85322	0.54005
1081.92466	0.54674
1079.99609	0.55212
1078.06753	0.55557
1076.13896	0.55635
1074.21040	0.55394
1072.28184	0.54882
1070.35327	0.54222
1068.42471	0.53518
1066.49614	0.52843
1064.56758	0.52239
1062.63901	0.51708
1060.71045	0.51229
1058.78188	0.50790
1056.85332	0.50397
1054.92476	0.50058
1052.99619	0.49774
1051.06763	0.49542
1049.13906	0.49345
1047.21050	0.49178
1045.28193	0.49062
1043.35337	0.48992
1041.42480	0.48955
1039.49624	0.48942
1037.56768	0.48926
1035.63911	0.48898
1033.71055	0.48855
1031.78198	0.48779
1029.85342	0.48693
1027.92485	0.48632
1025.99629	0.48587
1024.06772	0.48554
1022.13916	0.48542
1020.21060	0.48559
1018.28203	0.48606
1016.35347	0.48662
1014.42490	0.48703
1012.49634	0.48744
1010.56777	0.48807
1008.63921	0.48880
1006.71064	0.48968
1004.78208	0.49103
1002.85352	0.49313
1000.92495	0.49596
998.99639	0.49919
997.06782	0.50273
995.13926	0.50668
993.21069	0.51075
991.28213	0.51421
989.35356	0.51653
987.42500	0.51779
985.49644	0.51837
983.56787	0.51872
981.63931	0.51931
979.71074	0.52046
977.78218	0.52230
975.85361	0.52482
973.92505	0.52771
971.99648	0.53074
970.06792	0.53391
968.13936	0.53728
966.21079	0.54123
964.28223	0.54593
962.35366	0.55102
960.42510	0.55632
958.49653	0.56176
956.56797	0.56737
954.63940	0.57338
952.71084	0.57979
950.78228	0.58644
948.85371	0.59319
946.92515	0.59975
944.99658	0.60592
943.06802	0.61194
941.13945	0.61807
939.21089	0.62408
937.28232	0.63009
935.35376	0.63613
933.42520	0.64182
931.49663	0.64742
929.56807	0.65324
927.63950	0.65902
925.71094	0.66480
923.78237	0.67108
921.85381	0.67799
919.92524	0.68506
917.99668	0.69195
916.06812	0.69922
914.13955	0.70747
912.21099	0.71609
910.28242	0.72425
908.35386	0.73193
906.42529	0.73968
904.49673	0.74844
902.56816	0.75812
900.63960	0.76726
898.71104	0.77577
896.78247	0.78474
894.85391	0.79462
892.92534	0.80560
890.99678	0.81658
889.06821	0.82641
887.13965	0.83678
885.21108	0.84931
883.28252	0.86207
881.35396	0.87273
879.42539	0.88318
877.49683	0.89575
875.56826	0.90857
873.63970	0.91947
871.71113	0.92833
869.78257	0.93733
867.85400	0.94906
865.92544	0.96182
863.99687	0.97280
862.06831	0.98271
860.13975	0.99384
858.21118	1.00650
856.28262	1.01766
854.35405	1.02705
852.42549	1.03869
850.49692	1.05342
848.56836	1.06853
846.63979	1.08281
844.71123	1.09622
842.78267	1.10857
840.85410	1.12070
838.92554	1.13350
836.99697	1.14654
835.06841	1.15782
833.13984	1.16665
831.21128	1.17510
829.28271	1.18514
827.35415	1.19891
825.42559	1.21468
823.49702	1.22857
821.56846	1.24178
819.63989	1.25220
817.71133	1.25495
815.78276	1.25942
813.85420	1.27099
811.92563	1.27752
809.99707	1.28724
808.06851	1.31688
806.13994	1.34701
804.21138	1.35604
802.28281	1.35346
800.35425	1.35849
798.42568	1.38141
796.49712	1.39923
794.56855	1.41369
792.63999	1.45616
790.71143	1.50270
788.78286	1.52681
786.85430	1.53835
784.92573	1.52454
782.99717	1.48771
781.06860	1.51238
779.14004	1.63361
777.21147	1.70201
775.28291	1.65972
773.35435	1.55955
771.42578	1.45048
769.49722	1.48870
767.56865	1.65288
765.64009	1.54733
763.71152	1.37848
761.78296	1.31356
759.85439	1.31172
757.92583	1.42629
755.99727	1.57515
754.06870	1.38834
752.14014	1.19036
750.21157	1.14748
748.28301	1.14638
746.35444	1.06644
744.42588	1.01881
742.49731	1.09006
740.56875	1.14616
738.64019	0.98516
736.71162	0.84174
734.78306	0.88024
732.85449	1.22706
730.92593	1.69232
728.99736	1.15335
727.06880	1.06920
725.14023	1.01947
723.21167	0.84369
721.28311	0.66271
719.35454	0.56574
717.42598	0.53874
715.49741	0.46557
713.56885	0.41484
711.64028	0.43029
709.71172	0.42894
707.78315	0.49438
705.85459	0.78390
703.92603	0.77962
701.99746	0.65716
700.06890	0.52840
698.14033	0.36186
696.21177	0.36350
694.28320	0.55899
692.35464	0.64038
690.42607	0.48722
688.49751	0.46586
686.56895	0.43305
684.64038	0.28478
682.71182	0.30662
680.78325	0.62258
678.85469	0.91266
676.92612	0.67277
674.99756	0.55381
673.06899	0.47095
671.14043	0.39671
669.21187	0.30939
667.28330	0.27942
665.35474	0.33950
663.42617	0.40417
661.49761	0.35278
659.56904	0.35041
657.64048	0.49221
655.71191	0.69907
653.78335	0.68390
651.85479	0.52414
649.92622	0.41656
647.99766	0.38663
646.06909	0.42483
644.14053	0.43659
642.21196	0.30366
640.28340	0.19243
638.35483	0.18925
636.42627	0.24145
634.49771	0.25921
632.56914	0.24592
630.64058	0.30385
628.71201	0.46088
626.78345	0.48698
624.85488	0.39604
622.92632	0.36473
620.99775	0.31217
619.06919	0.23854
617.14062	0.25762
615.21206	0.41741
613.28350	0.57144
611.35493	0.32882
609.42637	0.21322
607.49780	0.26238
605.56924	0.44945
603.64067	1.34595
601.71211	3.61027
599.78354	0.76670
597.85498	0.40482
595.92642	0.26036
593.99785	0.18120
592.06929	0.19396
590.14072	0.25405
588.21216	0.28467
586.28359	0.27623
584.35503	0.26177
582.42646	0.24379
580.49790	0.24705
578.56934	0.27319
576.64077	0.26292
574.71221	0.21009
572.78364	0.21472
570.85508	0.27204
568.92651	0.34041
566.99795	0.45475
565.06938	0.52983
563.14082	0.39570
561.21226	0.29239
559.28369	0.27277
557.35513	0.33330
555.42656	0.46979
553.49800	0.51372
551.56943	0.38322
549.64087	0.27443
547.71230	0.18516
545.78374	0.11475
543.85518	0.11626
541.92661	0.19870
539.99805	0.38215
538.06948	1.10991
536.14092	0.96850
534.21235	0.43177
532.28379	0.30681
530.35522	0.26743
528.42666	0.27671
526.49810	0.33691
524.56953	0.47051
522.64097	0.45272
520.71240	0.32836
518.78384	0.25930
516.85527	0.24453
514.92671	0.28289
512.99814	0.29397
511.06958	0.30045
509.14102	0.32850
507.21245	0.28610
505.28389	0.22134
503.35532	0.23400
501.42676	0.31764
499.49819	0.40738
