3997.91411	0.06980
3995.98555	0.07009
3994.05698	0.07054
3992.12842	0.07084
3990.19985	0.07127
3988.27129	0.07205
3986.34272	0.07269
3984.41416	0.07297
3982.48560	0.07299
3980.55703	0.07299
3978.62847	0.07307
3976.69990	0.07309
3974.77134	0.07306
3972.84277	0.07315
3970.91421	0.07353
3968.98564	0.07395
3967.05708	0.07389
3965.12852	0.07346
3963.19995	0.07354
3961.27139	0.07431
3959.34282	0.07493
3957.41426	0.07493
3955.48569	0.07457
3953.55713	0.07420
3951.62856	0.07422
3949.70000	0.07465
3947.77144	0.07514
3945.84287	0.07551
3943.91431	0.07580
3941.98574	0.07594
3940.05718	0.07538
3938.12861	0.07451
3936.20005	0.07416
3934.27148	0.07446
3932.34292	0.07510
3930.41436	0.07519
3928.48579	0.07436
3926.55723	0.07344
3924.62866	0.07325
3922.70010	0.07361
3920.77153	0.07378
3918.84297	0.07376
3916.91440	0.07373
3914.98584	0.07354
3913.05728	0.07339
3911.12871	0.07349
3909.20015	0.07378
3907.27158	0.07426
3905.34302	0.07480
3903.41445	0.07511
3901.48589	0.07520
3899.55732	0.07508
3897.62876	0.07432
3895.70020	0.07327
3893.77163	0.07286
3891.84307	0.07328
3889.91450	0.07393
3887.98594	0.07407
3886.05737	0.07428
3884.12881	0.07502
3882.20024	0.07545
3880.27168	0.07533
3878.34312	0.07500
3876.41455	0.07484
3874.48599	0.07533
3872.55742	0.07618
3870.62886	0.07690
3868.70029	0.07712
3866.77173	0.07662
3864.84316	0.07658
3862.91460	0.07726
3860.98604	0.07743
3859.05747	0.07723
3857.12891	0.07755
3855.20034	0.07838
3853.27178	0.07959
3851.34321	0.08033
3849.41465	0.07990
3847.48608	0.07962
3845.55752	0.08002
3843.62896	0.08089
3841.70039	0.08166
3839.77183	0.08214
3837.84326	0.08294
3835.91470	0.08360
3833.98613	0.08345
3832.05757	0.08336
3830.12900	0.08400
3828.20044	0.08495
3826.27187	0.08584
3824.34331	0.08666
3822.41475	0.08773
3820.48618	0.08948
3818.55762	0.09069
3816.62905	0.09112
3814.70049	0.09170
3812.77192	0.09216
3810.84336	0.09257
3808.91479	0.09336
3806.98623	0.09479
3805.05767	0.09638
3803.12910	0.09762
3801.20054	0.09929
3799.27197	0.10083
3797.34341	0.10137
3795.41484	0.10192
3793.48628	0.10269
3791.55771	0.10347
3789.62915	0.10462
3787.70059	0.10618
3785.77202	0.10774
3783.84346	0.10903
3781.91489	0.11018
3779.98633	0.11159
3778.05776	0.11329
3776.12920	0.11474
3774.20063	0.11618
3772.27207	0.11785
3770.34351	0.11981
3768.41494	0.12210
3766.48638	0.12391
3764.55781	0.12534
3762.62925	0.12718
3760.70068	0.12972
3758.77212	0.13263
3756.84355	0.13519
3754.91499	0.13742
3752.98643	0.14018
3751.05786	0.14428
3749.12930	0.14839
3747.20073	0.15016
3745.27217	0.15160
3743.34360	0.15510
3741.41504	0.15902
3739.48647	0.16205
3737.55791	0.16557
3735.62935	0.17035
3733.70078	0.17615
3731.77222	0.18155
3729.84365	0.18591
3727.91509	0.18980
3725.98652	0.19485
3724.05796	0.20140
3722.12939	0.20801
3720.20083	0.21420
3718.27227	0.22026
3716.34370	0.22666
3714.41514	0.23363
3712.48657	0.24254
3710.55801	0.25567
3708.62944	0.27054
3706.70088	0.28277
3704.77231	0.29328
3702.84375	0.30511
3700.91519	0.32143
3698.98662	0.34026
3697.05806	0.35802
3695.12949	0.37609
3693.20093	0.39523
3691.27236	0.41654
3689.34380	0.44391
3687.41523	0.47689
3685.48667	0.50611
3683.55811	0.53151
3681.62954	0.55907
3679.70098	0.59069
3677.77241	0.62400
3675.84385	0.66258
3673.91528	0.71327
3671.98672	0.75556
3670.05815	0.79347
3668.12959	0.84430
3666.20103	0.89174
3664.27246	0.93255
3662.34390	0.97622
3660.41533	1.02298
3658.48677	1.06874
3656.55820	1.11684
3654.62964	1.17014
3652.70107	1.21545
3650.77251	1.25491
3648.84395	1.30859
3646.91538	1.37510
3644.98682	1.42593
3643.05825	1.46558
3641.12969	1.50580
3639.20112	1.54947
3637.27256	1.59300
3635.34399	1.63511
3633.41543	1.67720
3631.48687	1.71709
3629.55830	1.75798
3627.62974	1.81061
3625.70117	1.85996
3623.77261	1.89422
3621.84404	1.92677
3619.91548	1.96414
3617.98691	2.01025
3616.05835	2.05507
3614.12979	2.09141
3612.20122	2.12853
3610.27266	2.16664
3608.34409	2.20596
3606.41553	2.24879
3604.48696	2.28851
3602.55840	2.32277
3600.62983	2.35997
3598.70127	2.40114
3596.77271	2.44011
3594.84414	2.47904
3592.91558	2.52102
3590.98701	2.56100
3589.05845	2.59777
3587.12988	2.64223
3585.20132	2.69110
3583.27275	2.73179
3581.34419	2.76911
3579.41562	2.80793
3577.48706	2.84769
3575.55850	2.88904
3573.62993	2.93345
3571.70137	2.97646
3569.77280	3.01590
3567.84424	3.05727
3565.91567	3.10738
3563.98711	3.15754
3562.05854	3.20135
3560.12998	3.24411
3558.20142	3.28783
3556.27285	3.33225
3554.34429	3.37676
3552.41572	3.42396
3550.48716	3.47172
3548.55859	3.51583
3546.63003	3.55897
3544.70146	3.60617
3542.77290	3.65476
3540.84434	3.70193
3538.91577	3.74977
3536.98721	3.79766
3535.05864	3.84589
3533.13008	3.89338
3531.20151	3.94188
3529.27295	3.99295
3527.34438	4.04329
3525.41582	4.08924
3523.48726	4.13373
3521.55869	4.18134
3519.63013	4.22939
3517.70156	4.27918
3515.77300	4.33010
3513.84443	4.37619
3511.91587	4.41852
3509.98730	4.46328
3508.05874	4.51205
3506.13018	4.56145
3504.20161	4.60881
3502.27305	4.65650
3500.34448	4.70693
3498.41592	4.75464
3496.48735	4.79798
3494.55879	4.84073
3492.63022	4.88418
3490.70166	4.93163
3488.77310	4.98401
3486.84453	5.03577
3484.91597	5.08345
3482.98740	5.12838
3481.05884	5.17261
3479.13027	5.21235
3477.20171	5.25171
3475.27314	5.30467
3473.34458	5.36651
3471.41602	5.41950
3469.48745	5.46480
3467.55889	5.51469
3465.63032	5.57067
3463.70176	5.62808
3461.77319	5.68209
3459.84463	5.73078
3457.91606	5.76969
3455.98750	5.80482
3454.05894	5.85131
3452.13037	5.90413
3450.20181	5.95088
3448.27324	5.99478
3446.34468	6.03829
3444.41611	6.07675
3442.48755	6.12592
3440.55898	6.18712
3438.63042	6.24394
3436.70186	6.29395
3434.77329	6.34075
3432.84473	6.38859
3430.91616	6.43022
3428.98760	6.46913
3427.05903	6.52517
3425.13047	6.59770
3423.20190	6.65942
3421.27334	6.70321
3419.34478	6.73053
3417.41621	6.75846
3415.48765	6.80783
3413.55908	6.85409
3411.63052	6.90600
3409.70195	6.96916
3407.77339	7.01127
3405.84482	7.04252
3403.91626	7.06253
3401.98770	7.05773
3400.05913	7.08032
3398.13057	7.13634
3396.20200	7.20192
3394.27344	7.27753
3392.34487	7.30469
3390.41631	7.30445
3388.48774	7.34462
3386.55918	7.42123
3384.63062	7.49866
3382.70205	7.54959
3380.77349	7.56570
3378.84492	7.56087
3376.91636	7.56325
3374.98779	7.56731
3373.05923	7.59978
3371.13066	7.65380
3369.20210	7.67092
3367.27354	7.67144
3365.34497	7.69378
3363.41641	7.69423
3361.48784	7.68566
3359.55928	7.73265
3357.63071	7.79063
3355.70215	7.82027
3353.77358	7.82788
3351.84502	7.82986
3349.91646	7.83136
3347.98789	7.81130
3346.05933	7.77839
3344.13076	7.78336
3342.20220	7.84044
3340.27363	7.91455
3338.34507	7.96336
3336.41650	7.92093
3334.48794	7.86744
3332.55937	7.89243
3330.63081	7.92373
3328.70225	7.89564
3326.77368	7.87315
3324.84512	7.90576
3322.91655	7.92737
3320.98799	7.94485
3319.05942	8.00387
3317.13086	8.07841
3315.20229	8.12315
3313.27373	8.10459
3311.34517	8.03979
3309.41660	7.97047
3307.48804	7.93563
3305.55947	8.02791
3303.63091	8.21912
3301.70234	8.24540
3299.77378	8.11238
3297.84521	8.02835
3295.91665	8.00902
3293.98809	8.03661
3292.05952	8.15685
3290.13096	8.33818
3288.20239	8.40188
3286.27383	8.27143
3284.34526	8.12369
3282.41670	8.09102
3280.48813	8.07355
3278.55957	7.99435
3276.63101	7.94871
3274.70244	8.00392
3272.77388	8.10888
3270.84531	8.17644
3268.91675	8.19119
3266.98818	8.17115
3265.05962	8.17281
3263.13105	8.22039
3261.20249	8.26715
3259.27393	8.27369
3257.34536	8.19517
3255.41680	8.03586
3253.48823	7.92142
3251.55967	7.92993
3249.63110	8.01451
3247.70254	8.11369
3245.77397	8.18723
3243.84541	8.16754
3241.91685	8.05480
3239.98828	7.97690
3238.05972	7.96647
3236.13115	7.96282
3234.20259	7.97856
3232.27402	8.01547
3230.34546	8.02322
3228.41689	7.98957
3226.48833	7.96299
3224.55977	7.98227
3222.63120	7.97752
3220.70264	7.93891
3218.77407	7.97894
3216.84551	8.01997
3214.91694	7.90626
3212.98838	7.74940
3211.05981	7.72251
3209.13125	7.81305
3207.20269	7.87627
3205.27412	7.85452
3203.34556	7.78001
3201.41699	7.69200
3199.48843	7.64057
3197.55986	7.62256
3195.63130	7.60317
3193.70273	7.61245
3191.77417	7.65493
3189.84561	7.63132
3187.91704	7.51346
3185.98848	7.39164
3184.05991	7.34302
3182.13135	7.34862
3180.20278	7.34201
3178.27422	7.31050
3176.34565	7.24809
3174.41709	7.15848
3172.48853	7.07055
3170.55996	6.99461
3168.63140	6.93056
3166.70283	6.86806
3164.77427	6.81587
3162.84570	6.77535
3160.91714	6.71531
3158.98857	6.63443
3157.06001	6.55317
3155.13145	6.48680
3153.20288	6.44442
3151.27432	6.41386
3149.34575	6.36043
3147.41719	6.27781
3145.48862	6.19349
3143.56006	6.12114
3141.63149	6.06235
3139.70293	6.00404
3137.77437	5.93694
3135.84580	5.86735
3133.91724	5.79729
3131.98867	5.72581
3130.06011	5.64961
3128.13154	5.56954
3126.20298	5.50075
3124.27441	5.44964
3122.34585	5.39310
3120.41729	5.31710
3118.48872	5.23788
3116.56016	5.16486
3114.63159	5.09071
3112.70303	5.01834
3110.77446	4.95432
3108.84590	4.88811
3106.91733	4.81493
3104.98877	4.74507
3103.06021	4.67938
3101.13164	4.61243
3099.20308	4.54634
3097.27451	4.48140
3095.34595	4.41586
3093.41738	4.35093
3091.48882	4.28592
3089.56025	4.22076
3087.63169	4.15795
3085.70312	4.09810
3083.77456	4.03858
3081.84600	3.97582
3079.91743	3.90920
3077.98887	3.84483
3076.06030	3.78608
3074.13174	3.72721
3072.20317	3.66578
3070.27461	3.60587
3068.34604	3.54905
3066.41748	3.49386
3064.48892	3.43954
3062.56035	3.38517
3060.63179	3.33109
3058.70322	3.27805
3056.77466	3.22442
3054.84609	3.16987
3052.91753	3.11685
3050.98896	3.06563
3049.06040	3.01415
3047.13184	2.96296
3045.20327	2.91306
3043.27471	2.86448
3041.34614	2.81696
3039.41758	2.76882
3037.48901	2.71995
3035.56045	2.67215
3033.63188	2.62638
3031.70332	2.58140
3029.77476	2.53658
3027.84619	2.49286
3025.91763	2.44954
3023.98906	2.40594
3022.06050	2.36322
3020.13193	2.32167
3018.20337	2.28091
3016.27480	2.24142
3014.34624	2.20305
3012.41768	2.16509
3010.48911	2.12693
3008.56055	2.08873
3006.63198	2.05170
3004.70342	2.01604
3002.77485	1.98106
3000.84629	1.94642
2998.91772	1.91211
2996.98916	1.87861
2995.06060	1.84578
2993.13203	1.81334
2991.20347	1.78170
2989.27490	1.75104
2987.34634	1.72145
2985.41777	1.69267
2983.48921	1.66415
2981.56064	1.63578
2979.63208	1.60785
2977.70352	1.58084
2975.77495	1.55464
2973.84639	1.52838
2971.91782	1.50202
2969.98926	1.47646
2968.06069	1.45196
2966.13213	1.42813
2964.20356	1.40451
2962.27500	1.38070
2960.34644	1.35659
2958.41787	1.33227
2956.48931	1.30843
2954.56074	1.28524
2952.63218	1.26161
2950.70361	1.23766
2948.77505	1.21449
2946.84648	1.19247
2944.91792	1.17141
2942.98936	1.15081
2941.06079	1.13038
2939.13223	1.11022
2937.20366	1.09034
2935.27510	1.07083
2933.34653	1.05188
2931.41797	1.03324
2929.48940	1.01462
2927.56084	0.99596
2925.63228	0.97730
2923.70371	0.95907
2921.77515	0.94122
2919.84658	0.92363
2917.91802	0.90656
2915.98945	0.88992
2914.06089	0.87359
2912.13232	0.85773
2910.20376	0.84238
2908.27520	0.82735
2906.34663	0.81225
2904.41807	0.79711
2902.48950	0.78247
2900.56094	0.76870
2898.63237	0.75567
2896.70381	0.74297
2894.77524	0.73043
2892.84668	0.71821
2890.91812	0.70622
2888.98955	0.69425
2887.06099	0.68261
2885.13242	0.67168
2883.20386	0.66127
2881.27529	0.65120
2879.34673	0.64134
2877.41816	0.63142
2875.48960	0.62161
2873.56104	0.61214
2871.63247	0.60240
2869.70391	0.59179
2867.77534	0.58061
2865.84678	0.56936
2863.91821	0.55835
2861.98965	0.54789
2860.06108	0.53793
2858.13252	0.52826
2856.20396	0.51887
2854.27539	0.50994
2852.34683	0.50155
2850.41826	0.49346
2848.48970	0.48543
2846.56113	0.47742
2844.63257	0.46952
2842.70400	0.46206
2840.77544	0.45535
2838.84687	0.44918
2836.91831	0.44310
2834.98975	0.43692
2833.06118	0.43069
2831.13262	0.42456
2829.20405	0.41857
2827.27549	0.41251
2825.34692	0.40642
2823.41836	0.40059
2821.48979	0.39499
2819.56123	0.38944
2817.63267	0.38391
2815.70410	0.37843
2813.77554	0.37304
2811.84697	0.36776
2809.91841	0.36245
2807.98984	0.35712
2806.06128	0.35198
2804.13271	0.34704
2802.20415	0.34213
2800.27559	0.33730
2798.34702	0.33266
2796.41846	0.32812
2794.48989	0.32342
2792.56133	0.31872
2790.63276	0.31426
2788.70420	0.30996
2786.77563	0.30580
2784.84707	0.30179
2782.91851	0.29779
2780.98994	0.29390
2779.06138	0.29009
2777.13281	0.28622
2775.20425	0.28239
2773.27568	0.27871
2771.34712	0.27513
2769.41855	0.27159
2767.48999	0.26815
2765.56143	0.26485
2763.63286	0.26169
2761.70430	0.25845
2759.77573	0.25504
2757.84717	0.25180
2755.91860	0.24879
2753.99004	0.24581
2752.06147	0.24281
2750.13291	0.23989
2748.20435	0.23714
2746.27578	0.23443
2744.34722	0.23166
2742.41865	0.22892
2740.49009	0.22637
2738.56152	0.22389
2736.63296	0.22141
2734.70439	0.21912
2732.77583	0.21701
2730.84727	0.21484
2728.91870	0.21261
2726.99014	0.21043
2725.06157	0.20822
2723.13301	0.20604
2721.20444	0.20398
2719.27588	0.20202
2717.34731	0.20011
2715.41875	0.19824
2713.49019	0.19642
2711.56162	0.19458
2709.63306	0.19279
2707.70449	0.19126
2705.77593	0.18992
2703.84736	0.18850
2701.91880	0.18693
2699.99023	0.18531
2698.06167	0.18371
2696.13311	0.18224
2694.20454	0.18093
2692.27598	0.17973
2690.34741	0.17855
2688.41885	0.17721
2686.49028	0.17574
2684.56172	0.17441
2682.63315	0.17332
2680.70459	0.17228
2678.77603	0.17121
2676.84746	0.17019
2674.91890	0.16926
2672.99033	0.16832
2671.06177	0.16736
2669.13320	0.16645
2667.20464	0.16547
2665.27607	0.16445
2663.34751	0.16355
2661.41895	0.16288
2659.49038	0.16237
2657.56182	0.16174
2655.63325	0.16087
2653.70469	0.15994
2651.77612	0.15915
2649.84756	0.15858
2647.91899	0.15808
2645.99043	0.15750
2644.06187	0.15691
2642.13330	0.15636
2640.20474	0.15579
2638.27617	0.15527
2636.34761	0.15494
2634.41904	0.15470
2632.49048	0.15440
2630.56191	0.15404
2628.63335	0.15373
2626.70479	0.15353
2624.77622	0.15331
2622.84766	0.15309
2620.91909	0.15284
2618.99053	0.15243
2617.06196	0.15206
2615.13340	0.15201
2613.20483	0.15202
2611.27627	0.15181
2609.34771	0.15151
2607.41914	0.15130
2605.49058	0.15120
2603.56201	0.15122
2601.63345	0.15145
2599.70488	0.15175
2597.77632	0.15189
2595.84775	0.15197
2593.91919	0.15204
2591.99062	0.15198
2590.06206	0.15186
2588.13350	0.15194
2586.20493	0.15224
2584.27637	0.15258
2582.34780	0.15287
2580.41924	0.15304
2578.49067	0.15321
2576.56211	0.15362
2574.63354	0.15414
2572.70498	0.15454
2570.77642	0.15482
2568.84785	0.15507
2566.91929	0.15538
2564.99072	0.15578
2563.06216	0.15620
2561.13359	0.15662
2559.20503	0.15705
2557.27646	0.15749
2555.34790	0.15805
2553.41934	0.15869
2551.49077	0.15935
2549.56221	0.15996
2547.63364	0.16043
2545.70508	0.16084
2543.77651	0.16135
2541.84795	0.16200
2539.91938	0.16267
2537.99082	0.16323
2536.06226	0.16379
2534.13369	0.16446
2532.20513	0.16528
2530.27656	0.16614
2528.34800	0.16690
2526.41943	0.16747
2524.49087	0.16804
2522.56230	0.16870
2520.63374	0.16939
2518.70518	0.17012
2516.77661	0.17099
2514.84805	0.17193
2512.91948	0.17282
2510.99092	0.17358
2509.06235	0.17418
2507.13379	0.17486
2505.20522	0.17580
2503.27666	0.17684
2501.34810	0.17772
2499.41953	0.17842
2497.49097	0.17907
2495.56240	0.17984
2493.63384	0.18064
2491.70527	0.18140
2489.77671	0.18228
2487.84814	0.18325
2485.91958	0.18416
2483.99102	0.18512
2482.06245	0.18613
2480.13389	0.18691
2478.20532	0.18757
2476.27676	0.18839
2474.34819	0.18935
2472.41963	0.19037
2470.49106	0.19132
2468.56250	0.19216
2466.63394	0.19306
2464.70537	0.19408
2462.77681	0.19515
2460.84824	0.19626
2458.91968	0.19736
2456.99111	0.19826
2455.06255	0.19893
2453.13398	0.19965
2451.20542	0.20064
2449.27686	0.20181
2447.34829	0.20297
2445.41973	0.20393
2443.49116	0.20484
2441.56260	0.20582
2439.63403	0.20694
2437.70547	0.20810
2435.77690	0.20908
2433.84834	0.20988
2431.91978	0.21076
2429.99121	0.21176
2428.06265	0.21294
2426.13408	0.21426
2424.20552	0.21538
2422.27695	0.21626
2420.34839	0.21724
2418.41982	0.21849
2416.49126	0.21976
2414.56270	0.22085
2412.63413	0.22181
2410.70557	0.22292
2408.77700	0.22422
2406.84844	0.22547
2404.91987	0.22662
2402.99131	0.22785
2401.06274	0.22906
2399.13418	0.23014
2397.20562	0.23131
2395.27705	0.23261
2393.34849	0.23390
2391.41992	0.23515
2389.49136	0.23644
2387.56279	0.23797
2385.63423	0.23990
2383.70566	0.24234
2381.77710	0.24551
2379.84854	0.24943
2377.91997	0.25367
2375.99141	0.25806
2374.06284	0.26299
2372.13428	0.26850
2370.20571	0.27467
2368.27715	0.28153
2366.34858	0.28821
2364.42002	0.29441
2362.49146	0.30024
2360.56289	0.30409
2358.63433	0.30500
2356.70576	0.30356
2354.77720	0.30043
2352.84863	0.29615
2350.92007	0.29137
2348.99150	0.28845
2347.06294	0.28912
2345.13437	0.29373
2343.20581	0.29991
2341.27725	0.30369
2339.34868	0.30523
2337.42012	0.30610
2335.49155	0.30668
2333.56299	0.30700
2331.63442	0.30762
2329.70586	0.30867
2327.77729	0.30970
2325.84873	0.31030
2323.92017	0.31028
2321.99160	0.30991
2320.06304	0.30938
2318.13447	0.30878
2316.20591	0.30848
2314.27734	0.30876
2312.34878	0.30952
2310.42021	0.31034
2308.49165	0.31088
2306.56309	0.31127
2304.63452	0.31174
2302.70596	0.31253
2300.77739	0.31368
2298.84883	0.31495
2296.92026	0.31628
2294.99170	0.31764
2293.06313	0.31895
2291.13457	0.32023
2289.20601	0.32155
2287.27744	0.32298
2285.34888	0.32455
2283.42031	0.32625
2281.49175	0.32821
2279.56318	0.33035
2277.63462	0.33241
2275.70605	0.33440
2273.77749	0.33640
2271.84893	0.33847
2269.92036	0.34071
2267.99180	0.34304
2266.06323	0.34529
2264.13467	0.34736
2262.20610	0.34926
2260.27754	0.35098
2258.34897	0.35273
2256.42041	0.35476
2254.49185	0.35699
2252.56328	0.35927
2250.63472	0.36154
2248.70615	0.36369
2246.77759	0.36569
2244.84902	0.36770
2242.92046	0.36980
2240.99189	0.37201
2239.06333	0.37428
2237.13477	0.37646
2235.20620	0.37854
2233.27764	0.38072
2231.34907	0.38308
2229.42051	0.38540
2227.49194	0.38764
2225.56338	0.38989
2223.63481	0.39213
2221.70625	0.39432
2219.77769	0.39650
2217.84912	0.39870
2215.92056	0.40095
2213.99199	0.40317
2212.06343	0.40528
2210.13486	0.40733
2208.20630	0.40940
2206.27773	0.41144
2204.34917	0.41352
2202.42061	0.41567
2200.49204	0.41774
2198.56348	0.41961
2196.63491	0.42145
2194.70635	0.42344
2192.77778	0.42543
2190.84922	0.42732
2188.92065	0.42917
2186.99209	0.43089
2185.06353	0.43256
2183.13496	0.43430
2181.20640	0.43605
2179.27783	0.43771
2177.34927	0.43932
2175.42070	0.44086
2173.49214	0.44235
2171.56357	0.44383
2169.63501	0.44522
2167.70645	0.44643
2165.77788	0.44761
2163.84932	0.44889
2161.92075	0.45008
2159.99219	0.45116
2158.06362	0.45231
2156.13506	0.45335
2154.20649	0.45415
2152.27793	0.45494
2150.34937	0.45577
2148.42080	0.45640
2146.49224	0.45684
2144.56367	0.45716
2142.63511	0.45743
2140.70654	0.45769
2138.77798	0.45790
2136.84941	0.45800
2134.92085	0.45808
2132.99229	0.45822
2131.06372	0.45825
2129.13516	0.45801
2127.20659	0.45762
2125.27803	0.45727
2123.34946	0.45690
2121.42090	0.45644
2119.49233	0.45583
2117.56377	0.45508
2115.63521	0.45428
2113.70664	0.45352
2111.77808	0.45275
2109.84951	0.45184
2107.92095	0.45077
2105.99238	0.44960
2104.06382	0.44838
2102.13525	0.44712
2100.20669	0.44577
2098.27812	0.44420
2096.34956	0.44251
2094.42100	0.44086
2092.49243	0.43929
2090.56387	0.43778
2088.63530	0.43610
2086.70674	0.43415
2084.77817	0.43214
2082.84961	0.43022
2080.92104	0.42828
2078.99248	0.42623
2077.06392	0.42410
2075.13535	0.42185
2073.20679	0.41958
2071.27822	0.41730
2069.34966	0.41500
2067.42109	0.41272
2065.49253	0.41052
2063.56396	0.40823
2061.63540	0.40582
2059.70684	0.40335
2057.77827	0.40081
2055.84971	0.39818
2053.92114	0.39545
2051.99258	0.39274
2050.06401	0.39006
2048.13545	0.38737
2046.20688	0.38471
2044.27832	0.38219
2042.34976	0.37963
2040.42119	0.37685
2038.49263	0.37401
2036.56406	0.37128
2034.63550	0.36859
2032.70693	0.36580
2030.77837	0.36297
2028.84980	0.36017
2026.92124	0.35746
2024.99268	0.35474
2023.06411	0.35195
2021.13555	0.34918
2019.20698	0.34640
2017.27842	0.34356
2015.34985	0.34068
2013.42129	0.33793
2011.49272	0.33530
2009.56416	0.33266
2007.63560	0.32996
2005.70703	0.32728
2003.77847	0.32463
2001.84990	0.32196
1999.92134	0.31932
1997.99277	0.31671
1996.06421	0.31411
1994.13564	0.31151
1992.20708	0.30895
1990.27852	0.30645
1988.34995	0.30407
1986.42139	0.30170
1984.49282	0.29928
1982.56426	0.29688
1980.63569	0.29455
1978.70713	0.29230
1976.77856	0.29008
1974.85000	0.28790
1972.92144	0.28575
1970.99287	0.28363
1969.06431	0.28158
1967.13574	0.27961
1965.20718	0.27765
1963.27861	0.27568
1961.35005	0.27362
1959.42148	0.27151
1957.49292	0.26960
1955.56436	0.26801
1953.63579	0.26649
1951.70723	0.26478
1949.77866	0.26301
1947.85010	0.26137
1945.92153	0.25988
1943.99297	0.25855
1942.06440	0.25719
1940.13584	0.25559
1938.20728	0.25405
1936.27871	0.25275
1934.35015	0.25150
1932.42158	0.25032
1930.49302	0.24919
1928.56445	0.24802
1926.63589	0.24692
1924.70732	0.24603
1922.77876	0.24519
1920.85020	0.24424
1918.92163	0.24329
1916.99307	0.24235
1915.06450	0.24141
1913.13594	0.24056
1911.20737	0.23989
1909.27881	0.23922
1907.35024	0.23845
1905.42168	0.23774
1903.49312	0.23720
1901.56455	0.23668
1899.63599	0.23615
1897.70742	0.23574
1895.77886	0.23537
1893.85029	0.23504
1891.92173	0.23474
1889.99316	0.23453
1888.06460	0.23432
1886.13604	0.23410
1884.20747	0.23391
1882.27891	0.23370
1880.35034	0.23347
1878.42178	0.23332
1876.49321	0.23328
1874.56465	0.23319
1872.63608	0.23324
1870.70752	0.23357
1868.77896	0.23416
1866.85039	0.23451
1864.92183	0.23444
1862.99326	0.23441
1861.06470	0.23460
1859.13613	0.23494
1857.20757	0.23534
1855.27900	0.23583
1853.35044	0.23625
1851.42187	0.23676
1849.49331	0.23742
1847.56475	0.23816
1845.63618	0.23907
1843.70762	0.24012
1841.77905	0.24085
1839.85049	0.24125
1837.92192	0.24201
1835.99336	0.24295
1834.06479	0.24381
1832.13623	0.24478
1830.20767	0.24630
1828.27910	0.24788
1826.35054	0.24894
1824.42197	0.25013
1822.49341	0.25135
1820.56484	0.25252
1818.63628	0.25380
1816.70771	0.25534
1814.77915	0.25698
1812.85059	0.25885
1810.92202	0.26098
1808.99346	0.26300
1807.06489	0.26481
1805.13633	0.26664
1803.20776	0.26890
1801.27920	0.27150
1799.35063	0.27426
1797.42207	0.27677
1795.49351	0.27923
1793.56494	0.28209
1791.63638	0.28572
1789.70781	0.28917
1787.77925	0.29175
1785.85068	0.29478
1783.92212	0.29847
1781.99355	0.30251
1780.06499	0.30670
1778.13643	0.31102
1776.20786	0.31519
1774.27930	0.31957
1772.35073	0.32529
1770.42217	0.33155
1768.49360	0.33694
1766.56504	0.34212
1764.63647	0.34744
1762.70791	0.35325
1760.77935	0.36052
1758.85078	0.36756
1756.92222	0.37484
1754.99365	0.38278
1753.06509	0.38992
1751.13652	0.39815
1749.20796	0.40847
1747.27939	0.41897
1745.35083	0.42842
1743.42227	0.43819
1741.49370	0.44876
1739.56514	0.46122
1737.63657	0.47387
1735.70801	0.48505
1733.77944	0.50152
1731.85088	0.52110
1729.92231	0.53676
1727.99375	0.55251
1726.06519	0.56935
1724.13662	0.58764
1722.20806	0.60739
1720.27949	0.62589
1718.35093	0.64754
1716.42236	0.67879
1714.49380	0.70872
1712.56523	0.73362
1710.63667	0.75795
1708.70811	0.78396
1706.77954	0.81305
1704.85098	0.84751
1702.92241	0.87867
1700.99385	0.90983
1699.06528	0.95570
1697.13672	0.99811
1695.20815	1.04174
1693.27959	1.08482
1691.35103	1.12003
1689.42246	1.16024
1687.49390	1.20230
1685.56533	1.24274
1683.63677	1.30410
1681.70820	1.36838
1679.77964	1.41078
1677.85107	1.45100
1675.92251	1.49716
1673.99395	1.55385
1672.06538	1.60443
1670.13682	1.65398
1668.20825	1.71816
1666.27969	1.77126
1664.35112	1.81629
1662.42256	1.87325
1660.49399	1.93810
1658.56543	1.98859
1656.63687	2.02856
1654.70830	2.06469
1652.77974	2.11970
1650.85117	2.17217
1648.92261	2.19071
1646.99404	2.21279
1645.06548	2.24063
1643.13691	2.26060
1641.20835	2.27050
1639.27979	2.27739
1637.35122	2.27962
1635.42266	2.27611
1633.49409	2.26878
1631.56553	2.25616
1629.63696	2.23875
1627.70840	2.21011
1625.77983	2.17655
1623.85127	2.13417
1621.92271	2.08272
1619.99414	2.03766
1618.06558	1.99438
1616.13701	1.93377
1614.20845	1.87162
1612.27988	1.82299
1610.35132	1.77218
1608.42275	1.71772
1606.49419	1.66397
1604.56562	1.61346
1602.63706	1.56488
1600.70850	1.51828
1598.77993	1.47506
1596.85137	1.43405
1594.92280	1.39495
1592.99424	1.35801
1591.06567	1.32410
1589.13711	1.29232
1587.20854	1.26297
1585.27998	1.23604
1583.35142	1.21101
1581.42285	1.18814
1579.49429	1.16838
1577.56572	1.15047
1575.63716	1.12936
1573.70859	1.11104
1571.78003	1.09898
1569.85146	1.08702
1567.92290	1.07446
1565.99434	1.06528
1564.06577	1.05842
1562.13721	1.05287
1560.20864	1.04906
1558.28008	1.04683
1556.35151	1.04596
1554.42295	1.04486
1552.49438	1.04354
1550.56582	1.04110
1548.63726	1.03666
1546.70869	1.03023
1544.78013	1.02138
1542.85156	1.01005
1540.92300	0.99389
1538.99443	0.96883
1537.06587	0.94981
1535.13730	0.93659
1533.20874	0.91974
1531.28018	0.90210
1529.35161	0.88904
1527.42305	0.87658
1525.49448	0.86353
1523.56592	0.85231
1521.63735	0.84191
1519.70879	0.83161
1517.78022	0.82255
1515.85166	0.81210
1513.92310	0.80130
1511.99453	0.79181
1510.06597	0.78312
1508.13740	0.77437
1506.20884	0.76132
1504.28027	0.75046
1502.35171	0.74447
1500.42314	0.73903
1498.49458	0.73292
1496.56602	0.72585
1494.63745	0.71899
1492.70889	0.71372
1490.78032	0.70915
1488.85176	0.70381
1486.92319	0.69854
1484.99463	0.69430
1483.06606	0.69085
1481.13750	0.68791
1479.20894	0.68561
1477.28037	0.68410
1475.35181	0.68319
1473.42324	0.68254
1471.49468	0.68131
1469.56611	0.67927
1467.63755	0.67694
1465.70898	0.67483
1463.78042	0.67321
1461.85186	0.67217
1459.92329	0.67170
1457.99473	0.67164
1456.06616	0.67108
1454.13760	0.66911
1452.20903	0.66675
1450.28047	0.66433
1448.35190	0.66184
1446.42334	0.65914
1444.49478	0.65645
1442.56621	0.65395
1440.63765	0.65162
1438.70908	0.64937
1436.78052	0.64643
1434.85195	0.64286
1432.92339	0.64000
1430.99482	0.63816
1429.06626	0.63717
1427.13770	0.63677
1425.20913	0.63687
1423.28057	0.63739
1421.35200	0.63782
1419.42344	0.63806
1417.49487	0.63794
1415.56631	0.63702
1413.63774	0.63606
1411.70918	0.63561
1409.78062	0.63573
1407.85205	0.63630
1405.92349	0.63726
1403.99492	0.63812
1402.06636	0.63813
1400.13779	0.63744
1398.20923	0.63618
1396.28066	0.63410
1394.35210	0.63093
1392.42354	0.62715
1390.49497	0.62344
1388.56641	0.61971
1386.63784	0.61560
1384.70928	0.61129
1382.78071	0.60722
1380.85215	0.60349
1378.92358	0.60025
1376.99502	0.59765
1375.06646	0.59566
1373.13789	0.59416
1371.20933	0.59309
1369.28076	0.59219
1367.35220	0.59108
1365.42363	0.58970
1363.49507	0.58820
1361.56650	0.58670
1359.63794	0.58534
1357.70937	0.58408
1355.78081	0.58295
1353.85225	0.58206
1351.92368	0.58130
1349.99512	0.58057
1348.06655	0.57988
1346.13799	0.57910
1344.20942	0.57829
1342.28086	0.57759
1340.35229	0.57703
1338.42373	0.57644
1336.49517	0.57576
1334.56660	0.57515
1332.63804	0.57482
1330.70947	0.57481
1328.78091	0.57501
1326.85234	0.57541
1324.92378	0.57589
1322.99521	0.57627
1321.06665	0.57652
1319.13809	0.57675
1317.20952	0.57694
1315.28096	0.57692
1313.35239	0.57662
1311.42383	0.57614
1309.49526	0.57553
1307.56670	0.57487
1305.63813	0.57430
1303.70957	0.57373
1301.78101	0.57301
1299.85244	0.57212
1297.92388	0.57103
1295.99531	0.56992
1294.06675	0.56896
1292.13818	0.56797
1290.20962	0.56686
1288.28105	0.56585
1286.35249	0.56491
1284.42393	0.56379
1282.49536	0.56253
1280.56680	0.56137
1278.63823	0.56027
1276.70967	0.55909
1274.78110	0.55795
1272.85254	0.55704
1270.92397	0.55637
1268.99541	0.55581
1267.06685	0.55521
1265.13828	0.55439
1263.20972	0.55342
1261.28115	0.55263
1259.35259	0.55199
1257.42402	0.55139
1255.49546	0.55108
1253.56689	0.55098
1251.63833	0.55085
1249.70977	0.55074
1247.78120	0.55060
1245.85264	0.55032
1243.92407	0.54986
1241.99551	0.54917
1240.06694	0.54810
1238.13838	0.54661
1236.20981	0.54498
1234.28125	0.54325
1232.35269	0.54133
1230.42412	0.53933
1228.49556	0.53750
1226.56699	0.53600
1224.63843	0.53473
1222.70986	0.53348
1220.78130	0.53219
1218.85273	0.53087
1216.92417	0.52965
1214.99561	0.52867
1213.06704	0.52780
1211.13848	0.52704
1209.20991	0.52647
1207.28135	0.52576
1205.35278	0.52466
1203.42422	0.52359
1201.49565	0.52280
1199.56709	0.52220
1197.63853	0.52157
1195.70996	0.52082
1193.78140	0.52019
1191.85283	0.51982
1189.92427	0.51947
1187.99570	0.51907
1186.06714	0.51895
1184.13857	0.51919
1182.21001	0.51968
1180.28145	0.52031
1178.35288	0.52106
1176.42432	0.52194
1174.49575	0.52269
1172.56719	0.52301
1170.63862	0.52300
1168.71006	0.52300
1166.78149	0.52298
1164.85293	0.52270
1162.92437	0.52230
1160.99580	0.52199
1159.06724	0.52159
1157.13867	0.52097
1155.21011	0.52019
1153.28154	0.51905
1151.35298	0.51736
1149.42441	0.51522
1147.49585	0.51287
1145.56729	0.51052
1143.63872	0.50846
1141.71016	0.50663
1139.78159	0.50483
1137.85303	0.50313
1135.92446	0.50155
1133.99590	0.50034
1132.06733	0.49977
1130.13877	0.49947
1128.21021	0.49886
1126.28164	0.49795
1124.35308	0.49705
1122.42451	0.49605
1120.49595	0.49503
1118.56738	0.49458
1116.63882	0.49443
1114.71025	0.49389
1112.78169	0.49342
1110.85312	0.49370
1108.92456	0.49456
1106.99600	0.49552
1105.06743	0.49642
1103.13887	0.49748
1101.21030	0.49895
1099.28174	0.50098
1097.35317	0.50354
1095.42461	0.50663
1093.49604	0.51033
1091.56748	0.51468
1089.63892	0.51958
1087.71035	0.52482
1085.78179	0.53043
1083.85322	0.53668
1081.92466	0.54307
1079.99609	0.54846
1078.06753	0.55192
1076.13896	0.55294
1074.21040	0.55128
1072.28184	0.54711
1070.35327	0.54122
1068.42471	0.53451
1066.49614	0.52775
1064.56758	0.52145
1062.63901	0.51549
1060.71045	0.50980
1058.78188	0.50485
1056.85332	0.50078
1054.92476	0.49707
1052.99619	0.49359
1051.06763	0.49083
1049.13906	0.48876
1047.21050	0.48701
1045.28193	0.48560
1043.35337	0.48444
1041.42480	0.48320
1039.49624	0.48197
1037.56768	0.48110
1035.63911	0.48067
1033.71055	0.48033
1031.78198	0.47998
1029.85342	0.47976
1027.92485	0.47958
1025.99629	0.47939
1024.06772	0.47934
1022.13916	0.47963
1020.21060	0.48025
1018.28203	0.48103
1016.35347	0.48188
1014.42490	0.48279
1012.49634	0.48366
1010.56777	0.48460
1008.63921	0.48583
1006.71064	0.48742
1004.78208	0.48944
1002.85352	0.49190
1000.92495	0.49466
998.99639	0.49762
997.06782	0.50101
995.13926	0.50505
993.21069	0.50942
991.28213	0.51325
989.35356	0.51593
987.42500	0.51744
985.49644	0.51811
983.56787	0.51855
981.63931	0.51935
979.71074	0.52056
977.78218	0.52235
975.85361	0.52491
973.92505	0.52777
971.99648	0.53066
970.06792	0.53404
968.13936	0.53816
966.21079	0.54245
964.28223	0.54667
962.35366	0.55142
960.42510	0.55669
958.49653	0.56203
956.56797	0.56753
954.63940	0.57336
952.71084	0.57962
950.78228	0.58636
948.85371	0.59292
946.92515	0.59855
944.99658	0.60389
943.06802	0.61014
941.13945	0.61682
939.21089	0.62283
937.28232	0.62863
935.35376	0.63506
933.42520	0.64128
931.49663	0.64643
929.56807	0.65150
927.63950	0.65702
925.71094	0.66273
923.78237	0.66888
921.85381	0.67560
919.92524	0.68249
917.99668	0.68900
916.06812	0.69534
914.13955	0.70273
912.21099	0.71144
910.28242	0.72011
908.35386	0.72813
906.42529	0.73648
904.49673	0.74539
902.56816	0.75419
900.63960	0.76348
898.71104	0.77358
896.78247	0.78293
894.85391	0.79162
892.92534	0.80137
890.99678	0.81151
889.06821	0.82154
887.13965	0.83341
885.21108	0.84706
883.28252	0.85939
881.35396	0.86940
879.42539	0.87973
877.49683	0.89142
875.56826	0.90251
873.63970	0.91327
871.71113	0.92587
869.78257	0.93922
867.85400	0.95160
865.92544	0.96289
863.99687	0.97305
862.06831	0.98365
860.13975	0.99543
858.21118	1.00681
856.28262	1.01706
854.35405	1.02738
852.42549	1.03919
850.49692	1.05237
848.56836	1.06392
846.63979	1.07257
844.71123	1.08349
842.78267	1.09764
840.85410	1.10889
838.92554	1.11770
836.99697	1.12891
835.06841	1.14039
833.13984	1.15015
831.21128	1.16045
829.28271	1.16829
827.35415	1.17405
825.42559	1.18421
823.49702	1.19454
821.56846	1.19980
819.63989	1.20317
817.71133	1.20543
815.78276	1.20991
813.85420	1.22057
811.92563	1.23407
809.99707	1.24505
808.06851	1.25042
806.13994	1.25530
804.21138	1.26748
802.28281	1.28268
800.35425	1.28396
798.42568	1.26939
796.49712	1.26091
794.56855	1.26564
792.63999	1.25973
790.71143	1.23680
788.78286	1.22111
786.85430	1.21733
784.92573	1.21323
782.99717	1.20094
781.06860	1.19999
779.14004	1.23251
777.21147	1.27886
775.28291	1.27531
773.35435	1.22164
771.42578	1.20316
769.49722	1.21004
767.56865	1.17387
765.64009	1.11190
763.71152	1.07478
761.78296	1.08554
759.85439	1.09347
757.92583	1.03616
755.99727	0.98962
754.06870	1.01669
752.14014	1.07898
750.21157	1.07841
748.28301	0.99012
746.35444	0.90201
744.42588	0.87185
742.49731	0.87107
740.56875	0.83459
738.64019	0.78939
736.71162	0.77355
734.78306	0.75657
732.85449	0.69891
730.92593	0.59565
728.99736	0.49318
727.06880	0.43098
725.14023	0.43300
723.21167	0.44821
721.28311	0.38101
719.35454	0.27349
717.42598	0.21586
715.49741	0.24820
713.56885	0.32915
711.64028	0.31177
709.71172	0.26264
707.78315	0.21666
705.85459	0.12453
703.92603	0.05028
701.99746	0.04636
700.06890	0.05431
698.14033	0.05344
696.21177	0.06631
694.28320	0.09549
692.35464	0.11090
690.42607	0.08064
688.49751	0.02421
686.56895	0.00392
684.64038	0.07298
682.71182	0.16137
680.78325	0.16316
678.85469	0.11192
676.92612	0.05153
674.99756	0.03125
673.06899	0.02730
671.14043	-0.01656
669.21187	-0.03361
667.28330	0.04928
665.35474	0.17303
663.42617	0.18327
661.49761	0.11679
659.56904	0.09979
657.64048	0.16605
655.71191	0.23116
653.78335	0.21151
651.85479	0.16625
649.92622	0.14708
647.99766	0.12705
646.06909	0.09547
644.14053	0.07451
642.21196	0.09408
640.28340	0.14801
638.35483	0.17244
636.42627	0.11571
634.49771	0.01100
632.56914	-0.00491
630.64058	0.04094
628.71201	-0.02678
626.78345	-0.13769
624.85488	-0.08875
622.92632	0.02094
620.99775	0.07492
619.06919	0.09070
617.14062	0.12410
615.21206	0.17592
613.28350	0.15617
611.35493	0.07701
609.42637	0.00530
607.49780	-0.06529
605.56924	-0.10350
603.64067	-0.08268
601.71211	-0.02660
599.78354	0.03540
597.85498	0.08071
595.92642	0.08366
593.99785	0.06193
592.06929	0.05473
590.14072	0.04808
588.21216	0.02965
586.28359	0.03472
584.35503	0.05594
582.42646	0.03737
580.49790	-0.01996
578.56934	-0.05734
576.64077	-0.02070
574.71221	0.02973
572.78364	0.02693
570.85508	0.03043
568.92651	0.07271
566.99795	0.12981
565.06938	0.10992
563.14082	0.00795
561.21226	-0.04882
559.28369	-0.01855
557.35513	0.01468
555.42656	0.06040
553.49800	0.13312
551.56943	0.15017
549.64087	0.09205
547.71230	0.05506
545.78374	0.06901
543.85518	0.06579
541.92661	0.04974
539.99805	0.05593
538.06948	0.05492
536.14092	0.04782
534.21235	0.05779
532.28379	0.06130
530.35522	0.04392
528.42666	0.03235
526.49810	0.03828
524.56953	0.06385
522.64097	0.08474
520.71240	0.05872
518.78384	0.04192
516.85527	0.03635
514.92671	0.01794
512.99814	0.04007
511.06958	0.10508
509.14102	0.12062
507.21245	0.09142
505.28389	0.07373
503.35532	0.05800
501.42676	0.02713
499.49819	0.00991
