3997.91411	0.07594
3995.98555	0.07670
3994.05698	0.07732
3992.12842	0.07739
3990.19985	0.07708
3988.27129	0.07699
3986.34272	0.07747
3984.41416	0.07801
3982.48560	0.07806
3980.55703	0.07801
3978.62847	0.07820
3976.69990	0.07860
3974.77134	0.07902
3972.84277	0.07898
3970.91421	0.07860
3968.98564	0.07873
3967.05708	0.07950
3965.12852	0.08016
3963.19995	0.08031
3961.27139	0.08020
3959.34282	0.08004
3957.41426	0.08000
3955.48569	0.08015
3953.55713	0.08019
3951.62856	0.08023
3949.70000	0.08066
3947.77144	0.08110
3945.84287	0.08104
3943.91431	0.08098
3941.98574	0.08114
3940.05718	0.08076
3938.12861	0.08017
3936.20005	0.08016
3934.27148	0.08048
3932.34292	0.08058
3930.41436	0.08021
3928.48579	0.07994
3926.55723	0.08004
3924.62866	0.08028
3922.70010	0.08027
3920.77153	0.08004
3918.84297	0.08022
3916.91440	0.08075
3914.98584	0.08041
3913.05728	0.07922
3911.12871	0.07864
3909.20015	0.07894
3907.27158	0.07952
3905.34302	0.08043
3903.41445	0.08186
3901.48589	0.08294
3899.55732	0.08241
3897.62876	0.08069
3895.70020	0.07928
3893.77163	0.07906
3891.84307	0.08002
3889.91450	0.08093
3887.98594	0.08098
3886.05737	0.08126
3884.12881	0.08167
3882.20024	0.08129
3880.27168	0.08081
3878.34312	0.08051
3876.41455	0.08042
3874.48599	0.08094
3872.55742	0.08182
3870.62886	0.08275
3868.70029	0.08346
3866.77173	0.08317
3864.84316	0.08288
3862.91460	0.08316
3860.98604	0.08307
3859.05747	0.08283
3857.12891	0.08332
3855.20034	0.08497
3853.27178	0.08767
3851.34321	0.08884
3849.41465	0.08724
3847.48608	0.08594
3845.55752	0.08614
3843.62896	0.08753
3841.70039	0.08919
3839.77183	0.09043
3837.84326	0.09095
3835.91470	0.09072
3833.98613	0.09058
3832.05757	0.09095
3830.12900	0.09124
3828.20044	0.09112
3826.27187	0.09130
3824.34331	0.09223
3822.41475	0.09393
3820.48618	0.09637
3818.55762	0.09771
3816.62905	0.09809
3814.70049	0.09849
3812.77192	0.09821
3810.84336	0.09795
3808.91479	0.09856
3806.98623	0.10016
3805.05767	0.10193
3803.12910	0.10366
3801.20054	0.10649
3799.27197	0.10840
3797.34341	0.10830
3795.41484	0.10843
3793.48628	0.10879
3791.55771	0.10912
3789.62915	0.10969
3787.70059	0.11087
3785.77202	0.11295
3783.84346	0.11505
3781.91489	0.11658
3779.98633	0.11806
3778.05776	0.11950
3776.12920	0.12040
3774.20063	0.12133
3772.27207	0.12281
3770.34351	0.12491
3768.41494	0.12736
3766.48638	0.12951
3764.55781	0.13143
3762.62925	0.13315
3760.70068	0.13509
3758.77212	0.13801
3756.84355	0.14113
3754.91499	0.14363
3752.98643	0.14652
3751.05786	0.15082
3749.12930	0.15519
3747.20073	0.15719
3745.27217	0.15859
3743.34360	0.16195
3741.41504	0.16616
3739.48647	0.16954
3737.55791	0.17334
3735.62935	0.17874
3733.70078	0.18493
3731.77222	0.18983
3729.84365	0.19379
3727.91509	0.19797
3725.98652	0.20358
3724.05796	0.21005
3722.12939	0.21589
3720.20083	0.22143
3718.27227	0.22710
3716.34370	0.23323
3714.41514	0.24035
3712.48657	0.25009
3710.55801	0.26398
3708.62944	0.27827
3706.70088	0.28947
3704.77231	0.29983
3702.84375	0.31205
3700.91519	0.32823
3698.98662	0.34638
3697.05806	0.36377
3695.12949	0.38195
3693.20093	0.40129
3691.27236	0.42240
3689.34380	0.44928
3687.41523	0.48194
3685.48667	0.51108
3683.55811	0.53649
3681.62954	0.56370
3679.70098	0.59455
3677.77241	0.62760
3675.84385	0.66654
3673.91528	0.71733
3671.98672	0.75954
3670.05815	0.79774
3668.12959	0.84908
3666.20103	0.89659
3664.27246	0.93672
3662.34390	0.97931
3660.41533	1.02534
3658.48677	1.07112
3656.55820	1.12016
3654.62964	1.17464
3652.70107	1.22043
3650.77251	1.26027
3648.84395	1.31413
3646.91538	1.37953
3644.98682	1.42888
3643.05825	1.46735
3641.12969	1.50725
3639.20112	1.55149
3637.27256	1.59520
3635.34399	1.63732
3633.41543	1.68059
3631.48687	1.72274
3629.55830	1.76546
3627.62974	1.81807
3625.70117	1.86587
3623.77261	1.89890
3621.84404	1.93138
3619.91548	1.96930
3617.98691	2.01431
3616.05835	2.05744
3614.12979	2.09461
3612.20122	2.13404
3610.27266	2.17379
3608.34409	2.21309
3606.41553	2.25424
3604.48696	2.29394
3602.55840	2.33082
3600.62983	2.36932
3598.70127	2.40930
3596.77271	2.44810
3594.84414	2.48791
3592.91558	2.52837
3590.98701	2.56590
3589.05845	2.60298
3587.12988	2.64844
3585.20132	2.69562
3583.27275	2.73513
3581.34419	2.77363
3579.41562	2.81464
3577.48706	2.85690
3575.55850	2.89894
3573.62993	2.94154
3571.70137	2.98461
3569.77280	3.02785
3567.84424	3.07285
3565.91567	3.12266
3563.98711	3.16932
3562.05854	3.21123
3560.12998	3.25637
3558.20142	3.30341
3556.27285	3.34841
3554.34429	3.39127
3552.41572	3.43533
3550.48716	3.48087
3548.55859	3.52600
3546.63003	3.57095
3544.70146	3.61917
3542.77290	3.66987
3540.84434	3.71805
3538.91577	3.76353
3536.98721	3.80994
3535.05864	3.86079
3533.13008	3.91073
3531.20151	3.95661
3529.27295	4.00348
3527.34438	4.05309
3525.41582	4.10240
3523.48726	4.15180
3521.55869	4.19987
3519.63013	4.24449
3517.70156	4.29185
3515.77300	4.34147
3513.84443	4.38929
3511.91587	4.43805
3509.98730	4.48909
3508.05874	4.53955
3506.13018	4.58691
3504.20161	4.63290
3502.27305	4.68214
3500.34448	4.73030
3498.41592	4.77529
3496.48735	4.82588
3494.55879	4.87566
3492.63022	4.91904
3490.70166	4.96676
3488.77310	5.01890
3486.84453	5.06693
3484.91597	5.11436
3482.98740	5.17083
3481.05884	5.22595
3479.13027	5.26916
3477.20171	5.32125
3475.27314	5.38339
3473.34458	5.43162
3471.41602	5.46854
3469.48745	5.51080
3467.55889	5.56067
3465.63032	5.61089
3463.70176	5.66402
3461.77319	5.72014
3459.84463	5.76571
3457.91606	5.80391
3455.98750	5.85703
3454.05894	5.92069
3452.13037	5.97166
3450.20181	6.01153
3448.27324	6.05484
3446.34468	6.11185
3444.41611	6.17505
3442.48755	6.22645
3440.55898	6.25978
3438.63042	6.29608
3436.70186	6.35735
3434.77329	6.43019
3432.84473	6.49362
3430.91616	6.54449
3428.98760	6.58523
3427.05903	6.62925
3425.13047	6.69369
3423.20190	6.75396
3421.27334	6.80126
3419.34478	6.85641
3417.41621	6.92466
3415.48765	6.98395
3413.55908	7.00827
3411.63052	7.02011
3409.70195	7.03386
3407.77339	7.06569
3405.84482	7.12535
3403.91626	7.19171
3401.98770	7.23686
3400.05913	7.26010
3398.13057	7.29568
3396.20200	7.34867
3394.27344	7.40249
3392.34487	7.44821
3390.41631	7.50378
3388.48774	7.58074
3386.55918	7.67210
3384.63062	7.72638
3382.70205	7.69768
3380.77349	7.64716
3378.84492	7.64941
3376.91636	7.70022
3374.98779	7.74897
3373.05923	7.77633
3371.13066	7.78792
3369.20210	7.82609
3367.27354	7.86452
3365.34497	7.84588
3363.41641	7.81258
3361.48784	7.81558
3359.55928	7.87002
3357.63071	7.94250
3355.70215	7.99643
3353.77358	8.04630
3351.84502	8.09988
3349.91646	8.09693
3347.98789	8.09465
3346.05933	8.20947
3344.13076	8.35416
3342.20220	8.33615
3340.27363	8.22985
3338.34507	8.21667
3336.41650	8.21805
3334.48794	8.13109
3332.55937	8.07003
3330.63081	8.13891
3328.70225	8.22502
3326.77368	8.22256
3324.84512	8.19436
3322.91655	8.16631
3320.98799	8.15585
3319.05942	8.15859
3317.13086	8.17598
3315.20229	8.22348
3313.27373	8.26902
3311.34517	8.26443
3309.41660	8.28890
3307.48804	8.38511
3305.55947	8.40934
3303.63091	8.36626
3301.70234	8.37213
3299.77378	8.39463
3297.84521	8.30170
3295.91665	8.15511
3293.98809	8.10563
3292.05952	8.15749
3290.13096	8.24428
3288.20239	8.32554
3286.27383	8.38965
3284.34526	8.42354
3282.41670	8.43629
3280.48813	8.38968
3278.55957	8.29027
3276.63101	8.19599
3274.70244	8.15496
3272.77388	8.20567
3270.84531	8.31008
3268.91675	8.42756
3266.98818	8.57393
3265.05962	8.68636
3263.13105	8.63198
3261.20249	8.50858
3259.27393	8.39781
3257.34536	8.29777
3255.41680	8.31533
3253.48823	8.41042
3251.55967	8.39533
3249.63110	8.33847
3247.70254	8.39694
3245.77397	8.48480
3243.84541	8.47614
3241.91685	8.45911
3239.98828	8.47913
3238.05972	8.40584
3236.13115	8.31839
3234.20259	8.41483
3232.27402	8.61434
3230.34546	8.64844
3228.41689	8.46238
3226.48833	8.29044
3224.55977	8.28890
3222.63120	8.32914
3220.70264	8.24624
3218.77407	8.18306
3216.84551	8.25269
3214.91694	8.34509
3212.98838	8.35073
3211.05981	8.26011
3209.13125	8.15532
3207.20269	8.15464
3205.27412	8.19108
3203.34556	8.11878
3201.41699	8.03436
3199.48843	8.01295
3197.55986	7.97368
3195.63130	7.88318
3193.70273	7.76385
3191.77417	7.68089
3189.84561	7.68423
3187.91704	7.68991
3185.98848	7.63843
3184.05991	7.58701
3182.13135	7.54220
3180.20278	7.50223
3178.27422	7.47371
3176.34565	7.43712
3174.41709	7.37878
3172.48853	7.28250
3170.55996	7.18048
3168.63140	7.12172
3166.70283	7.09033
3164.77427	7.06249
3162.84570	7.02922
3160.91714	6.95537
3158.98857	6.83660
3157.06001	6.73002
3155.13145	6.67180
3153.20288	6.61667
3151.27432	6.53030
3149.34575	6.44962
3147.41719	6.38998
3145.48862	6.33142
3143.56006	6.26694
3141.63149	6.19299
3139.70293	6.10125
3137.77437	6.01116
3135.84580	5.94160
3133.91724	5.88406
3131.98867	5.82409
3130.06011	5.74620
3128.13154	5.65321
3126.20298	5.57040
3124.27441	5.50583
3122.34585	5.43690
3120.41729	5.35616
3118.48872	5.28168
3116.56016	5.21536
3114.63159	5.14637
3112.70303	5.07714
3110.77446	5.01116
3108.84590	4.94245
3106.91733	4.87043
3104.98877	4.79878
3103.06021	4.72875
3101.13164	4.65951
3099.20308	4.58951
3097.27451	4.52064
3095.34595	4.45514
3093.41738	4.38707
3091.48882	4.31205
3089.56025	4.24124
3087.63169	4.18090
3085.70312	4.12113
3083.77456	4.05671
3081.84600	3.99193
3079.91743	3.92886
3077.98887	3.86610
3076.06030	3.80295
3074.13174	3.74104
3072.20317	3.68110
3070.27461	3.62220
3068.34604	3.56528
3066.41748	3.50881
3064.48892	3.45042
3062.56035	3.39216
3060.63179	3.33558
3058.70322	3.28122
3056.77466	3.22810
3054.84609	3.17337
3052.91753	3.11878
3050.98896	3.06771
3049.06040	3.01810
3047.13184	2.96721
3045.20327	2.91594
3043.27471	2.86519
3041.34614	2.81516
3039.41758	2.76654
3037.48901	2.71947
3035.56045	2.67358
3033.63188	2.62766
3031.70332	2.58114
3029.77476	2.53528
3027.84619	2.49112
3025.91763	2.44830
3023.98906	2.40545
3022.06050	2.36231
3020.13193	2.32052
3018.20337	2.28037
3016.27480	2.23995
3014.34624	2.19919
3012.41768	2.16003
3010.48911	2.12269
3008.56055	2.08594
3006.63198	2.04926
3004.70342	2.01249
3002.77485	1.97549
3000.84629	1.93932
2998.91772	1.90503
2996.98916	1.87217
2995.06060	1.83992
2993.13203	1.80784
2991.20347	1.77597
2989.27490	1.74475
2987.34634	1.71429
2985.41777	1.68437
2983.48921	1.65488
2981.56064	1.62575
2979.63208	1.59717
2977.70352	1.56932
2975.77495	1.54200
2973.84639	1.51486
2971.91782	1.48810
2969.98926	1.46203
2968.06069	1.43625
2966.13213	1.41074
2964.20356	1.38581
2962.27500	1.36109
2960.34644	1.33680
2958.41787	1.31365
2956.48931	1.29113
2954.56074	1.26830
2952.63218	1.24548
2950.70361	1.22312
2948.77505	1.20096
2946.84648	1.17926
2944.91792	1.15851
2942.98936	1.13825
2941.06079	1.11824
2939.13223	1.09889
2937.20366	1.08003
2935.27510	1.06124
2933.34653	1.04276
2931.41797	1.02424
2929.48940	1.00558
2927.56084	0.98781
2925.63228	0.97079
2923.70371	0.95345
2921.77515	0.93587
2919.84658	0.91871
2917.91802	0.90219
2915.98945	0.88638
2914.06089	0.87116
2912.13232	0.85572
2910.20376	0.83980
2908.27520	0.82445
2906.34663	0.81047
2904.41807	0.79721
2902.48950	0.78376
2900.56094	0.77003
2898.63237	0.75659
2896.70381	0.74385
2894.77524	0.73168
2892.84668	0.71976
2890.91812	0.70788
2888.98955	0.69598
2887.06099	0.68420
2885.13242	0.67301
2883.20386	0.66257
2881.27529	0.65244
2879.34673	0.64215
2877.41816	0.63158
2875.48960	0.62114
2873.56104	0.61124
2871.63247	0.60174
2869.70391	0.59199
2867.77534	0.58162
2865.84678	0.57091
2863.91821	0.56057
2861.98965	0.55092
2860.06108	0.54168
2858.13252	0.53244
2856.20396	0.52310
2854.27539	0.51397
2852.34683	0.50533
2850.41826	0.49710
2848.48970	0.48894
2846.56113	0.48066
2844.63257	0.47273
2842.70400	0.46561
2840.77544	0.45911
2838.84687	0.45285
2836.91831	0.44654
2834.98975	0.43998
2833.06118	0.43342
2831.13262	0.42731
2829.20405	0.42153
2827.27549	0.41562
2825.34692	0.40960
2823.41836	0.40373
2821.48979	0.39787
2819.56123	0.39200
2817.63267	0.38626
2815.70410	0.38056
2813.77554	0.37491
2811.84697	0.36934
2809.91841	0.36382
2807.98984	0.35848
2806.06128	0.35338
2804.13271	0.34842
2802.20415	0.34356
2800.27559	0.33877
2798.34702	0.33403
2796.41846	0.32940
2794.48989	0.32492
2792.56133	0.32049
2790.63276	0.31601
2788.70420	0.31163
2786.77563	0.30749
2784.84707	0.30357
2782.91851	0.29971
2780.98994	0.29574
2779.06138	0.29182
2777.13281	0.28811
2775.20425	0.28441
2773.27568	0.28072
2771.34712	0.27721
2769.41855	0.27379
2767.48999	0.27031
2765.56143	0.26690
2763.63286	0.26359
2761.70430	0.26039
2759.77573	0.25719
2757.84717	0.25402
2755.91860	0.25100
2753.99004	0.24809
2752.06147	0.24516
2750.13291	0.24232
2748.20435	0.23973
2746.27578	0.23723
2744.34722	0.23459
2742.41865	0.23199
2740.49009	0.22963
2738.56152	0.22720
2736.63296	0.22463
2734.70439	0.22235
2732.77583	0.22022
2730.84727	0.21796
2728.91870	0.21567
2726.99014	0.21349
2725.06157	0.21142
2723.13301	0.20936
2721.20444	0.20722
2719.27588	0.20509
2717.34731	0.20312
2715.41875	0.20130
2713.49019	0.19961
2711.56162	0.19802
2709.63306	0.19636
2707.70449	0.19470
2705.77593	0.19321
2703.84736	0.19159
2701.91880	0.18980
2699.99023	0.18820
2698.06167	0.18689
2696.13311	0.18573
2694.20454	0.18449
2692.27598	0.18312
2690.34741	0.18175
2688.41885	0.18043
2686.49028	0.17914
2684.56172	0.17800
2682.63315	0.17689
2680.70459	0.17560
2678.77603	0.17426
2676.84746	0.17305
2674.91890	0.17196
2672.99033	0.17095
2671.06177	0.16993
2669.13320	0.16878
2667.20464	0.16763
2665.27607	0.16672
2663.34751	0.16601
2661.41895	0.16527
2659.49038	0.16438
2657.56182	0.16352
2655.63325	0.16280
2653.70469	0.16218
2651.77612	0.16152
2649.84756	0.16071
2647.91899	0.15990
2645.99043	0.15921
2644.06187	0.15865
2642.13330	0.15818
2640.20474	0.15751
2638.27617	0.15664
2636.34761	0.15607
2634.41904	0.15584
2632.49048	0.15558
2630.56191	0.15519
2628.63335	0.15476
2626.70479	0.15442
2624.77622	0.15418
2622.84766	0.15395
2620.91909	0.15372
2618.99053	0.15359
2617.06196	0.15342
2615.13340	0.15315
2613.20483	0.15294
2611.27627	0.15286
2609.34771	0.15292
2607.41914	0.15299
2605.49058	0.15289
2603.56201	0.15272
2601.63345	0.15258
2599.70488	0.15257
2597.77632	0.15288
2595.84775	0.15318
2593.91919	0.15325
2591.99062	0.15325
2590.06206	0.15322
2588.13350	0.15332
2586.20493	0.15362
2584.27637	0.15385
2582.34780	0.15395
2580.41924	0.15410
2578.49067	0.15442
2576.56211	0.15490
2574.63354	0.15531
2572.70498	0.15555
2570.77642	0.15574
2568.84785	0.15605
2566.91929	0.15655
2564.99072	0.15719
2563.06216	0.15778
2561.13359	0.15815
2559.20503	0.15841
2557.27646	0.15881
2555.34790	0.15933
2553.41934	0.15990
2551.49077	0.16050
2549.56221	0.16099
2547.63364	0.16144
2545.70508	0.16208
2543.77651	0.16280
2541.84795	0.16350
2539.91938	0.16417
2537.99082	0.16485
2536.06226	0.16556
2534.13369	0.16622
2532.20513	0.16692
2530.27656	0.16761
2528.34800	0.16821
2526.41943	0.16879
2524.49087	0.16948
2522.56230	0.17026
2520.63374	0.17100
2518.70518	0.17174
2516.77661	0.17247
2514.84805	0.17313
2512.91948	0.17391
2510.99092	0.17487
2509.06235	0.17577
2507.13379	0.17657
2505.20522	0.17738
2503.27666	0.17819
2501.34810	0.17901
2499.41953	0.17995
2497.49097	0.18095
2495.56240	0.18182
2493.63384	0.18260
2491.70527	0.18345
2489.77671	0.18425
2487.84814	0.18501
2485.91958	0.18590
2483.99102	0.18685
2482.06245	0.18764
2480.13389	0.18841
2478.20532	0.18944
2476.27676	0.19055
2474.34819	0.19136
2472.41963	0.19206
2470.49106	0.19291
2468.56250	0.19389
2466.63394	0.19484
2464.70537	0.19571
2462.77681	0.19665
2460.84824	0.19769
2458.91968	0.19866
2456.99111	0.19954
2455.06255	0.20042
2453.13398	0.20132
2451.20542	0.20230
2449.27686	0.20335
2447.34829	0.20440
2445.41973	0.20542
2443.49116	0.20640
2441.56260	0.20741
2439.63403	0.20837
2437.70547	0.20927
2435.77690	0.21033
2433.84834	0.21153
2431.91978	0.21265
2429.99121	0.21365
2428.06265	0.21468
2426.13408	0.21581
2424.20552	0.21695
2422.27695	0.21801
2420.34839	0.21900
2418.41982	0.22000
2416.49126	0.22115
2414.56270	0.22241
2412.63413	0.22352
2410.70557	0.22458
2408.77700	0.22581
2406.84844	0.22706
2404.91987	0.22827
2402.99131	0.22952
2401.06274	0.23075
2399.13418	0.23195
2397.20562	0.23316
2395.27705	0.23433
2393.34849	0.23550
2391.41992	0.23678
2389.49136	0.23818
2387.56279	0.23986
2385.63423	0.24211
2383.70566	0.24526
2381.77710	0.24939
2379.84854	0.25425
2377.91997	0.25951
2375.99141	0.26524
2374.06284	0.27176
2372.13428	0.27914
2370.20571	0.28761
2368.27715	0.29732
2366.34858	0.30666
2364.42002	0.31400
2362.49146	0.31994
2360.56289	0.32430
2358.63433	0.32541
2356.70576	0.32267
2354.77720	0.31670
2352.84863	0.30954
2350.92007	0.30298
2348.99150	0.29960
2347.06294	0.30113
2345.13437	0.30754
2343.20581	0.31548
2341.27725	0.31988
2339.34868	0.32112
2337.42012	0.32177
2335.49155	0.32228
2333.56299	0.32278
2331.63442	0.32342
2329.70586	0.32338
2327.77729	0.32259
2325.84873	0.32177
2323.92017	0.32116
2321.99160	0.32022
2320.06304	0.31880
2318.13447	0.31734
2316.20591	0.31615
2314.27734	0.31577
2312.34878	0.31613
2310.42021	0.31658
2308.49165	0.31669
2306.56309	0.31652
2304.63452	0.31651
2302.70596	0.31697
2300.77739	0.31776
2298.84883	0.31864
2296.92026	0.31970
2294.99170	0.32088
2293.06313	0.32199
2291.13457	0.32307
2289.20601	0.32422
2287.27744	0.32542
2285.34888	0.32668
2283.42031	0.32813
2281.49175	0.32989
2279.56318	0.33201
2277.63462	0.33437
2275.70605	0.33668
2273.77749	0.33888
2271.84893	0.34108
2269.92036	0.34316
2267.99180	0.34505
2266.06323	0.34691
2264.13467	0.34893
2262.20610	0.35108
2260.27754	0.35317
2258.34897	0.35518
2256.42041	0.35724
2254.49185	0.35933
2252.56328	0.36139
2250.63472	0.36341
2248.70615	0.36543
2246.77759	0.36744
2244.84902	0.36947
2242.92046	0.37163
2240.99189	0.37393
2239.06333	0.37618
2237.13477	0.37825
2235.20620	0.38028
2233.27764	0.38249
2231.34907	0.38483
2229.42051	0.38706
2227.49194	0.38916
2225.56338	0.39134
2223.63481	0.39365
2221.70625	0.39594
2219.77769	0.39816
2217.84912	0.40035
2215.92056	0.40252
2213.99199	0.40460
2212.06343	0.40669
2210.13486	0.40887
2208.20630	0.41107
2206.27773	0.41319
2204.34917	0.41521
2202.42061	0.41723
2200.49204	0.41938
2198.56348	0.42165
2196.63491	0.42375
2194.70635	0.42552
2192.77778	0.42720
2190.84922	0.42907
2188.92065	0.43113
2186.99209	0.43306
2185.06353	0.43473
2183.13496	0.43627
2181.20640	0.43785
2179.27783	0.43951
2177.34927	0.44113
2175.42070	0.44268
2173.49214	0.44420
2171.56357	0.44559
2169.63501	0.44694
2167.70645	0.44832
2165.77788	0.44962
2163.84932	0.45078
2161.92075	0.45189
2159.99219	0.45303
2158.06362	0.45413
2156.13506	0.45511
2154.20649	0.45590
2152.27793	0.45653
2150.34937	0.45722
2148.42080	0.45798
2146.49224	0.45854
2144.56367	0.45891
2142.63511	0.45930
2140.70654	0.45971
2138.77798	0.46002
2136.84941	0.46014
2134.92085	0.46013
2132.99229	0.45999
2131.06372	0.45976
2129.13516	0.45955
2127.20659	0.45938
2125.27803	0.45914
2123.34946	0.45865
2121.42090	0.45800
2119.49233	0.45733
2117.56377	0.45667
2115.63521	0.45596
2113.70664	0.45516
2111.77808	0.45433
2109.84951	0.45345
2107.92095	0.45245
2105.99238	0.45132
2104.06382	0.45014
2102.13525	0.44877
2100.20669	0.44720
2098.27812	0.44569
2096.34956	0.44432
2094.42100	0.44289
2092.49243	0.44125
2090.56387	0.43948
2088.63530	0.43773
2086.70674	0.43598
2084.77817	0.43407
2082.84961	0.43206
2080.92104	0.43011
2078.99248	0.42820
2077.06392	0.42609
2075.13535	0.42373
2073.20679	0.42145
2071.27822	0.41941
2069.34966	0.41733
2067.42109	0.41506
2065.49253	0.41265
2063.56396	0.41018
2061.63540	0.40774
2059.70684	0.40525
2057.77827	0.40267
2055.84971	0.40007
2053.92114	0.39747
2051.99258	0.39485
2050.06401	0.39217
2048.13545	0.38946
2046.20688	0.38675
2044.27832	0.38406
2042.34976	0.38142
2040.42119	0.37880
2038.49263	0.37602
2036.56406	0.37313
2034.63550	0.37036
2032.70693	0.36768
2030.77837	0.36496
2028.84980	0.36211
2026.92124	0.35927
2024.99268	0.35653
2023.06411	0.35386
2021.13555	0.35110
2019.20698	0.34829
2017.27842	0.34552
2015.34985	0.34271
2013.42129	0.33997
2011.49272	0.33728
2009.56416	0.33456
2007.63560	0.33187
2005.70703	0.32921
2003.77847	0.32650
2001.84990	0.32383
1999.92134	0.32129
1997.99277	0.31873
1996.06421	0.31614
1994.13564	0.31363
1992.20708	0.31116
1990.27852	0.30867
1988.34995	0.30616
1986.42139	0.30367
1984.49282	0.30125
1982.56426	0.29886
1980.63569	0.29655
1978.70713	0.29434
1976.77856	0.29208
1974.85000	0.28984
1972.92144	0.28771
1970.99287	0.28567
1969.06431	0.28362
1967.13574	0.28158
1965.20718	0.27954
1963.27861	0.27749
1961.35005	0.27549
1959.42148	0.27367
1957.49292	0.27193
1955.56436	0.27006
1953.63579	0.26820
1951.70723	0.26647
1949.77866	0.26483
1947.85010	0.26327
1945.92153	0.26188
1943.99297	0.26061
1942.06440	0.25922
1940.13584	0.25759
1938.20728	0.25596
1936.27871	0.25452
1934.35015	0.25329
1932.42158	0.25221
1930.49302	0.25111
1928.56445	0.24994
1926.63589	0.24883
1924.70732	0.24791
1922.77876	0.24707
1920.85020	0.24616
1918.92163	0.24533
1916.99307	0.24446
1915.06450	0.24343
1913.13594	0.24244
1911.20737	0.24172
1909.27881	0.24112
1907.35024	0.24046
1905.42168	0.23971
1903.49312	0.23903
1901.56455	0.23849
1899.63599	0.23805
1897.70742	0.23770
1895.77886	0.23739
1893.85029	0.23704
1891.92173	0.23671
1889.99316	0.23654
1888.06460	0.23629
1886.13604	0.23596
1884.20747	0.23565
1882.27891	0.23532
1880.35034	0.23514
1878.42178	0.23515
1876.49321	0.23516
1874.56465	0.23517
1872.63608	0.23541
1870.70752	0.23587
1868.77896	0.23652
1866.85039	0.23683
1864.92183	0.23663
1862.99326	0.23651
1861.06470	0.23669
1859.13613	0.23711
1857.20757	0.23753
1855.27900	0.23795
1853.35044	0.23831
1851.42187	0.23873
1849.49331	0.23936
1847.56475	0.24023
1845.63618	0.24121
1843.70762	0.24217
1841.77905	0.24288
1839.85049	0.24330
1837.92192	0.24404
1835.99336	0.24495
1834.06479	0.24587
1832.13623	0.24690
1830.20767	0.24840
1828.27910	0.24994
1826.35054	0.25104
1824.42197	0.25229
1822.49341	0.25347
1820.56484	0.25461
1818.63628	0.25591
1816.70771	0.25742
1814.77915	0.25897
1812.85059	0.26080
1810.92202	0.26294
1808.99346	0.26501
1807.06489	0.26701
1805.13633	0.26900
1803.20776	0.27123
1801.27920	0.27373
1799.35063	0.27644
1797.42207	0.27900
1795.49351	0.28161
1793.56494	0.28466
1791.63638	0.28829
1789.70781	0.29150
1787.77925	0.29399
1785.85068	0.29713
1783.92212	0.30090
1781.99355	0.30495
1780.06499	0.30921
1778.13643	0.31354
1776.20786	0.31763
1774.27930	0.32208
1772.35073	0.32798
1770.42217	0.33409
1768.49360	0.33923
1766.56504	0.34439
1764.63647	0.34979
1762.70791	0.35573
1760.77935	0.36318
1758.85078	0.37026
1756.92222	0.37742
1754.99365	0.38517
1753.06509	0.39222
1751.13652	0.40062
1749.20796	0.41118
1747.27939	0.42172
1745.35083	0.43118
1743.42227	0.44108
1741.49370	0.45184
1739.56514	0.46442
1737.63657	0.47700
1735.70801	0.48802
1733.77944	0.50432
1731.85088	0.52380
1729.92231	0.53945
1727.99375	0.55530
1726.06519	0.57238
1724.13662	0.59098
1722.20806	0.61102
1720.27949	0.62977
1718.35093	0.65162
1716.42236	0.68284
1714.49380	0.71267
1712.56523	0.73739
1710.63667	0.76141
1708.70811	0.78722
1706.77954	0.81643
1704.85098	0.85108
1702.92241	0.88241
1700.99385	0.91379
1699.06528	0.95918
1697.13672	1.00032
1695.20815	1.04254
1693.27959	1.08444
1691.35103	1.11886
1689.42246	1.15780
1687.49390	1.19809
1685.56533	1.23735
1683.63677	1.29728
1681.70820	1.35889
1679.77964	1.39901
1677.85107	1.43731
1675.92251	1.48132
1673.99395	1.53512
1672.06538	1.58325
1670.13682	1.63056
1668.20825	1.68988
1666.27969	1.73686
1664.35112	1.77609
1662.42256	1.82509
1660.49399	1.88065
1658.56543	1.92489
1656.63687	1.96072
1654.70830	1.99366
1652.77974	2.04553
1650.85117	2.09650
1648.92261	2.11864
1646.99404	2.14688
1645.06548	2.17671
1643.13691	2.19566
1641.20835	2.20833
1639.27979	2.22032
1637.35122	2.22767
1635.42266	2.22826
1633.49409	2.22344
1631.56553	2.21330
1629.63696	2.19926
1627.70840	2.17448
1625.77983	2.14429
1623.85127	2.10598
1621.92271	2.05888
1619.99414	2.01649
1618.06558	1.97527
1616.13701	1.91645
1614.20845	1.85471
1612.27988	1.80674
1610.35132	1.75761
1608.42275	1.70546
1606.49419	1.65477
1604.56562	1.60774
1602.63706	1.56171
1600.70850	1.51657
1598.77993	1.47480
1596.85137	1.43507
1594.92280	1.39644
1592.99424	1.35926
1591.06567	1.32466
1589.13711	1.29151
1587.20854	1.26026
1585.27998	1.23114
1583.35142	1.20353
1581.42285	1.17782
1579.49429	1.15555
1577.56572	1.13546
1575.63716	1.11084
1573.70859	1.08829
1571.78003	1.07283
1569.85146	1.05648
1567.92290	1.03825
1565.99434	1.02381
1564.06577	1.01162
1562.13721	1.00166
1560.20864	0.99413
1558.28008	0.98248
1556.35151	0.97077
1554.42295	0.96299
1552.49438	0.95529
1550.56582	0.94720
1548.63726	0.93848
1546.70869	0.93003
1544.78013	0.92152
1542.85156	0.91216
1540.92300	0.90000
1538.99443	0.88140
1537.06587	0.86695
1535.13730	0.85724
1533.20874	0.84534
1531.28018	0.83266
1529.35161	0.82344
1527.42305	0.81518
1525.49448	0.80634
1523.56592	0.79801
1521.63735	0.78988
1519.70879	0.78176
1517.78022	0.77489
1515.85166	0.76750
1513.92310	0.75976
1511.99453	0.75309
1510.06597	0.74740
1508.13740	0.74227
1506.20884	0.73423
1504.28027	0.72609
1502.35171	0.72105
1500.42314	0.71700
1498.49458	0.71312
1496.56602	0.70871
1494.63745	0.70423
1492.70889	0.70077
1490.78032	0.69794
1488.85176	0.69486
1486.92319	0.69179
1484.99463	0.68912
1483.06606	0.68704
1481.13750	0.68544
1479.20894	0.68413
1477.28037	0.68319
1475.35181	0.68273
1473.42324	0.68255
1471.49468	0.68145
1469.56611	0.67918
1467.63755	0.67686
1465.70898	0.67503
1463.78042	0.67351
1461.85186	0.67198
1459.92329	0.67076
1457.99473	0.66972
1456.06616	0.66736
1454.13760	0.66401
1452.20903	0.66121
1450.28047	0.65864
1448.35190	0.65592
1446.42334	0.65290
1444.49478	0.64999
1442.56621	0.64754
1440.63765	0.64544
1438.70908	0.64347
1436.78052	0.64112
1434.85195	0.63846
1432.92339	0.63626
1430.99482	0.63450
1429.06626	0.63300
1427.13770	0.63201
1425.20913	0.63146
1423.28057	0.63089
1421.35200	0.63030
1419.42344	0.62981
1417.49487	0.62873
1415.56631	0.62684
1413.63774	0.62496
1411.70918	0.62343
1409.78062	0.62212
1407.85205	0.62099
1405.92349	0.62023
1403.99492	0.61947
1402.06636	0.61838
1400.13779	0.61716
1398.20923	0.61566
1396.28066	0.61388
1394.35210	0.61176
1392.42354	0.60933
1390.49497	0.60714
1388.56641	0.60514
1386.63784	0.60287
1384.70928	0.60046
1382.78071	0.59831
1380.85215	0.59632
1378.92358	0.59460
1376.99502	0.59345
1375.06646	0.59265
1373.13789	0.59175
1371.20933	0.59104
1369.28076	0.59070
1367.35220	0.59017
1365.42363	0.58930
1363.49507	0.58837
1361.56650	0.58711
1359.63794	0.58551
1357.70937	0.58410
1355.78081	0.58294
1353.85225	0.58180
1351.92368	0.58064
1349.99512	0.57955
1348.06655	0.57845
1346.13799	0.57724
1344.20942	0.57607
1342.28086	0.57506
1340.35229	0.57417
1338.42373	0.57325
1336.49517	0.57215
1334.56660	0.57100
1332.63804	0.57002
1330.70947	0.56932
1328.78091	0.56888
1326.85234	0.56861
1324.92378	0.56842
1322.99521	0.56830
1321.06665	0.56827
1319.13809	0.56821
1317.20952	0.56786
1315.28096	0.56727
1313.35239	0.56661
1311.42383	0.56578
1309.49526	0.56463
1307.56670	0.56332
1305.63813	0.56216
1303.70957	0.56110
1301.78101	0.56001
1299.85244	0.55900
1297.92388	0.55815
1295.99531	0.55725
1294.06675	0.55620
1292.13818	0.55523
1290.20962	0.55447
1288.28105	0.55379
1286.35249	0.55314
1284.42393	0.55241
1282.49536	0.55145
1280.56680	0.55039
1278.63823	0.54953
1276.70967	0.54887
1274.78110	0.54824
1272.85254	0.54767
1270.92397	0.54714
1268.99541	0.54650
1267.06685	0.54580
1265.13828	0.54519
1263.20972	0.54466
1261.28115	0.54411
1259.35259	0.54361
1257.42402	0.54309
1255.49546	0.54261
1253.56689	0.54238
1251.63833	0.54218
1249.70977	0.54181
1247.78120	0.54130
1245.85264	0.54066
1243.92407	0.53999
1241.99551	0.53937
1240.06694	0.53861
1238.13838	0.53766
1236.20981	0.53663
1234.28125	0.53555
1232.35269	0.53444
1230.42412	0.53325
1228.49556	0.53203
1226.56699	0.53086
1224.63843	0.52959
1222.70986	0.52815
1220.78130	0.52690
1218.85273	0.52598
1216.92417	0.52515
1214.99561	0.52430
1213.06704	0.52354
1211.13848	0.52289
1209.20991	0.52230
1207.28135	0.52185
1205.35278	0.52140
1203.42422	0.52072
1201.49565	0.51989
1199.56709	0.51919
1197.63853	0.51857
1195.70996	0.51776
1193.78140	0.51688
1191.85283	0.51627
1189.92427	0.51586
1187.99570	0.51543
1186.06714	0.51507
1184.13857	0.51495
1182.21001	0.51509
1180.28145	0.51551
1178.35288	0.51618
1176.42432	0.51702
1174.49575	0.51801
1172.56719	0.51908
1170.63862	0.52014
1168.71006	0.52134
1166.78149	0.52273
1164.85293	0.52403
1162.92437	0.52496
1160.99580	0.52568
1159.06724	0.52639
1157.13867	0.52691
1155.21011	0.52687
1153.28154	0.52605
1151.35298	0.52445
1149.42441	0.52222
1147.49585	0.51960
1145.56729	0.51688
1143.63872	0.51422
1141.71016	0.51178
1139.78159	0.50981
1137.85303	0.50830
1135.92446	0.50717
1133.99590	0.50657
1132.06733	0.50644
1130.13877	0.50630
1128.21021	0.50607
1126.28164	0.50578
1124.35308	0.50536
1122.42451	0.50511
1120.49595	0.50522
1118.56738	0.50536
1116.63882	0.50552
1114.71025	0.50609
1112.78169	0.50706
1110.85312	0.50802
1108.92456	0.50891
1106.99600	0.50987
1105.06743	0.51065
1103.13887	0.51105
1101.21030	0.51147
1099.28174	0.51233
1097.35317	0.51377
1095.42461	0.51605
1093.49604	0.51963
1091.56748	0.52492
1089.63892	0.53193
1087.71035	0.54045
1085.78179	0.55010
1083.85322	0.56013
1081.92466	0.56904
1079.99609	0.57523
1078.06753	0.57794
1076.13896	0.57718
1074.21040	0.57340
1072.28184	0.56739
1070.35327	0.56022
1068.42471	0.55292
1066.49614	0.54591
1064.56758	0.53939
1062.63901	0.53370
1060.71045	0.52894
1058.78188	0.52497
1056.85332	0.52166
1054.92476	0.51880
1052.99619	0.51634
1051.06763	0.51446
1049.13906	0.51338
1047.21050	0.51340
1045.28193	0.51441
1043.35337	0.51580
1041.42480	0.51712
1039.49624	0.51822
1037.56768	0.51908
1035.63911	0.51939
1033.71055	0.51872
1031.78198	0.51717
1029.85342	0.51504
1027.92485	0.51255
1025.99629	0.51014
1024.06772	0.50831
1022.13916	0.50709
1020.21060	0.50631
1018.28203	0.50559
1016.35347	0.50461
1014.42490	0.50373
1012.49634	0.50303
1010.56777	0.50224
1008.63921	0.50144
1006.71064	0.50097
1004.78208	0.50123
1002.85352	0.50250
1000.92495	0.50482
998.99639	0.50801
997.06782	0.51197
995.13926	0.51640
993.21069	0.52051
991.28213	0.52354
989.35356	0.52518
987.42500	0.52548
985.49644	0.52487
983.56787	0.52425
981.63931	0.52422
979.71074	0.52481
977.78218	0.52605
975.85361	0.52804
973.92505	0.53060
971.99648	0.53344
970.06792	0.53662
968.13936	0.54022
966.21079	0.54414
964.28223	0.54841
962.35366	0.55319
960.42510	0.55843
958.49653	0.56387
956.56797	0.56949
954.63940	0.57558
952.71084	0.58211
950.78228	0.58875
948.85371	0.59511
946.92515	0.60110
944.99658	0.60714
943.06802	0.61341
941.13945	0.61943
939.21089	0.62509
937.28232	0.63097
935.35376	0.63717
933.42520	0.64325
931.49663	0.64871
929.56807	0.65394
927.63950	0.66004
925.71094	0.66676
923.78237	0.67337
921.85381	0.68007
919.92524	0.68731
917.99668	0.69500
916.06812	0.70215
914.13955	0.70892
912.21099	0.71679
910.28242	0.72574
908.35386	0.73430
906.42529	0.74223
904.49673	0.75100
902.56816	0.76148
900.63960	0.77259
898.71104	0.78263
896.78247	0.79143
894.85391	0.80047
892.92534	0.81085
890.99678	0.82192
889.06821	0.83289
887.13965	0.84364
885.21108	0.85392
883.28252	0.86419
881.35396	0.87562
879.42539	0.88766
877.49683	0.89874
875.56826	0.90950
873.63970	0.92053
871.71113	0.93187
869.78257	0.94453
867.85400	0.95762
865.92544	0.96953
863.99687	0.98144
862.06831	0.99439
860.13975	1.00720
858.21118	1.01895
856.28262	1.02949
854.35405	1.03921
852.42549	1.04870
850.49692	1.05866
848.56836	1.07049
846.63979	1.08310
844.71123	1.09473
842.78267	1.10744
840.85410	1.12218
838.92554	1.13618
836.99697	1.14813
835.06841	1.16132
833.13984	1.17799
831.21128	1.19048
829.28271	1.19449
827.35415	1.19850
825.42559	1.20680
823.49702	1.21942
821.56846	1.23842
819.63989	1.26147
817.71133	1.28115
815.78276	1.29867
813.85420	1.32458
811.92563	1.35361
809.99707	1.36500
808.06851	1.37392
806.13994	1.40489
804.21138	1.43286
802.28281	1.44414
800.35425	1.44382
798.42568	1.43108
796.49712	1.44266
794.56855	1.49956
792.63999	1.51474
790.71143	1.45155
788.78286	1.44772
786.85430	1.53440
784.92573	1.61592
782.99717	1.75430
781.06860	1.96638
779.14004	1.78594
777.21147	1.50310
775.28291	1.45103
773.35435	1.53747
771.42578	1.50320
769.49722	1.49183
767.56865	1.49871
765.64009	1.36217
763.71152	1.20286
761.78296	1.12294
759.85439	1.14709
757.92583	1.27918
755.99727	1.33688
754.06870	1.21643
752.14014	1.12604
750.21157	1.11780
748.28301	1.16209
746.35444	1.15892
744.42588	1.11443
742.49731	1.11855
740.56875	1.02786
738.64019	0.82788
736.71162	0.69271
734.78306	0.62973
732.85449	0.57727
730.92593	0.53439
728.99736	0.56201
727.06880	0.64913
725.14023	0.66443
723.21167	0.53346
721.28311	0.40543
719.35454	0.38239
717.42598	0.41263
715.49741	0.46282
713.56885	0.65967
711.64028	0.74708
709.71172	0.44121
707.78315	0.23901
705.85459	0.13791
703.92603	0.12641
701.99746	0.12766
700.06890	0.13778
698.14033	0.24675
696.21177	0.44024
694.28320	0.47731
692.35464	0.37895
690.42607	0.32700
688.49751	0.26426
686.56895	0.17557
684.64038	0.09991
682.71182	0.07802
680.78325	0.13316
678.85469	0.21087
676.92612	0.23315
674.99756	0.17969
673.06899	0.10757
671.14043	0.07438
669.21187	0.09505
667.28330	0.13285
665.35474	0.13432
663.42617	0.11107
661.49761	0.13897
659.56904	0.14622
657.64048	0.11008
655.71191	0.15018
653.78335	0.18639
651.85479	0.13832
649.92622	0.14060
647.99766	0.23200
646.06909	0.30908
644.14053	0.30568
642.21196	0.25601
640.28340	0.21823
638.35483	0.18148
636.42627	0.13737
634.49771	0.13196
632.56914	0.15587
630.64058	0.17816
628.71201	0.17996
626.78345	0.17278
624.85488	0.15673
622.92632	0.12692
620.99775	0.14144
619.06919	0.25852
617.14062	0.42027
615.21206	0.36300
613.28350	0.21079
611.35493	0.13768
609.42637	0.17536
607.49780	0.23072
605.56924	0.27005
603.64067	0.23273
601.71211	0.12241
599.78354	0.09290
597.85498	0.14466
595.92642	0.16353
593.99785	0.16434
592.06929	0.24413
590.14072	0.41257
588.21216	0.51280
586.28359	0.34490
584.35503	0.15659
582.42646	0.04602
580.49790	0.05263
578.56934	0.09067
576.64077	0.08108
574.71221	0.09885
572.78364	0.16704
570.85508	0.19638
568.92651	0.21297
566.99795	0.22816
565.06938	0.27358
563.14082	0.34740
561.21226	0.29115
559.28369	0.20792
557.35513	0.21037
555.42656	0.27110
553.49800	0.30885
551.56943	0.30372
549.64087	0.29092
547.71230	0.23757
545.78374	0.15881
543.85518	0.15505
541.92661	0.21311
539.99805	0.23330
538.06948	0.16581
536.14092	0.07904
534.21235	0.03948
532.28379	0.05386
530.35522	0.11609
528.42666	0.20549
526.49810	0.28519
524.56953	0.28379
522.64097	0.22143
520.71240	0.18729
518.78384	0.17499
516.85527	0.16380
514.92671	0.17719
512.99814	0.22435
511.06958	0.26511
509.14102	0.29512
507.21245	0.32311
505.28389	0.30335
503.35532	0.23773
501.42676	0.18119
499.49819	0.15328
