3997.91411	0.07552
3995.98555	0.07593
3994.05698	0.07633
3992.12842	0.07696
3990.19985	0.07745
3988.27129	0.07740
3986.34272	0.07726
3984.41416	0.07745
3982.48560	0.07791
3980.55703	0.07829
3978.62847	0.07852
3976.69990	0.07899
3974.77134	0.07949
3972.84277	0.07963
3970.91421	0.07963
3968.98564	0.07957
3967.05708	0.07955
3965.12852	0.07984
3963.19995	0.08025
3961.27139	0.08038
3959.34282	0.08020
3957.41426	0.07992
3955.48569	0.07988
3953.55713	0.08015
3951.62856	0.08045
3949.70000	0.08059
3947.77144	0.08061
3945.84287	0.08053
3943.91431	0.08045
3941.98574	0.08042
3940.05718	0.08038
3938.12861	0.08044
3936.20005	0.08046
3934.27148	0.08037
3932.34292	0.08049
3930.41436	0.08059
3928.48579	0.08024
3926.55723	0.08002
3924.62866	0.08035
3922.70010	0.08045
3920.77153	0.08038
3918.84297	0.08070
3916.91440	0.08086
3914.98584	0.08042
3913.05728	0.07979
3911.12871	0.07917
3909.20015	0.07867
3907.27158	0.07875
3905.34302	0.07940
3903.41445	0.08020
3901.48589	0.08093
3899.55732	0.08122
3897.62876	0.08068
3895.70020	0.07973
3893.77163	0.07911
3891.84307	0.07913
3889.91450	0.07957
3887.98594	0.07967
3886.05737	0.07984
3884.12881	0.08062
3882.20024	0.08142
3880.27168	0.08190
3878.34312	0.08166
3876.41455	0.08117
3874.48599	0.08148
3872.55742	0.08221
3870.62886	0.08232
3868.70029	0.08193
3866.77173	0.08150
3864.84316	0.08180
3862.91460	0.08280
3860.98604	0.08291
3859.05747	0.08251
3857.12891	0.08270
3855.20034	0.08328
3853.27178	0.08452
3851.34321	0.08582
3849.41465	0.08550
3847.48608	0.08483
3845.55752	0.08470
3843.62896	0.08521
3841.70039	0.08612
3839.77183	0.08744
3837.84326	0.08933
3835.91470	0.09050
3833.98613	0.09040
3832.05757	0.09028
3830.12900	0.09041
3828.20044	0.09074
3826.27187	0.09159
3824.34331	0.09258
3822.41475	0.09362
3820.48618	0.09520
3818.55762	0.09631
3816.62905	0.09648
3814.70049	0.09668
3812.77192	0.09711
3810.84336	0.09768
3808.91479	0.09836
3806.98623	0.09944
3805.05767	0.10104
3803.12910	0.10272
3801.20054	0.10457
3799.27197	0.10610
3797.34341	0.10696
3795.41484	0.10772
3793.48628	0.10828
3791.55771	0.10884
3789.62915	0.10972
3787.70059	0.11088
3785.77202	0.11226
3783.84346	0.11347
3781.91489	0.11461
3779.98633	0.11644
3778.05776	0.11871
3776.12920	0.12024
3774.20063	0.12135
3772.27207	0.12283
3770.34351	0.12470
3768.41494	0.12676
3766.48638	0.12876
3764.55781	0.13076
3762.62925	0.13252
3760.70068	0.13428
3758.77212	0.13689
3756.84355	0.13987
3754.91499	0.14203
3752.98643	0.14405
3751.05786	0.14723
3749.12930	0.15128
3747.20073	0.15412
3745.27217	0.15661
3743.34360	0.16030
3741.41504	0.16357
3739.48647	0.16603
3737.55791	0.16942
3735.62935	0.17475
3733.70078	0.18086
3731.77222	0.18553
3729.84365	0.18936
3727.91509	0.19310
3725.98652	0.19792
3724.05796	0.20437
3722.12939	0.21130
3720.20083	0.21817
3718.27227	0.22500
3716.34370	0.23187
3714.41514	0.23881
3712.48657	0.24739
3710.55801	0.25990
3708.62944	0.27388
3706.70088	0.28604
3704.77231	0.29768
3702.84375	0.31077
3700.91519	0.32702
3698.98662	0.34451
3697.05806	0.36138
3695.12949	0.37944
3693.20093	0.39865
3691.27236	0.41946
3689.34380	0.44595
3687.41523	0.47843
3685.48667	0.50775
3683.55811	0.53377
3681.62954	0.56206
3679.70098	0.59387
3677.77241	0.62672
3675.84385	0.66440
3673.91528	0.71452
3671.98672	0.75728
3670.05815	0.79545
3668.12959	0.84578
3666.20103	0.89304
3664.27246	0.93385
3662.34390	0.97686
3660.41533	1.02275
3658.48677	1.06854
3656.55820	1.11734
3654.62964	1.17093
3652.70107	1.21653
3650.77251	1.25705
3648.84395	1.31174
3646.91538	1.37728
3644.98682	1.42690
3643.05825	1.46614
3641.12969	1.50622
3639.20112	1.55061
3637.27256	1.59593
3635.34399	1.63967
3633.41543	1.68233
3631.48687	1.72221
3629.55830	1.76316
3627.62974	1.81553
3625.70117	1.86393
3623.77261	1.89719
3621.84404	1.92921
3619.91548	1.96662
3617.98691	2.01216
3616.05835	2.05614
3614.12979	2.09331
3612.20122	2.13193
3610.27266	2.17050
3608.34409	2.20946
3606.41553	2.25190
3604.48696	2.29233
3602.55840	2.32844
3600.62983	2.36661
3598.70127	2.40723
3596.77271	2.44697
3594.84414	2.48807
3592.91558	2.53028
3590.98701	2.56915
3589.05845	2.60501
3587.12988	2.64693
3585.20132	2.69340
3583.27275	2.73508
3581.34419	2.77501
3579.41562	2.81665
3577.48706	2.85807
3575.55850	2.89916
3573.62993	2.94277
3571.70137	2.98570
3569.77280	3.02592
3567.84424	3.06912
3565.91567	3.12273
3563.98711	3.17552
3562.05854	3.21903
3560.12998	3.26059
3558.20142	3.30293
3556.27285	3.34653
3554.34429	3.39075
3552.41572	3.43535
3550.48716	3.48073
3548.55859	3.52787
3546.63003	3.57509
3544.70146	3.62201
3542.77290	3.66983
3540.84434	3.71828
3538.91577	3.76592
3536.98721	3.81093
3535.05864	3.85596
3533.13008	3.90228
3531.20151	3.95045
3529.27295	4.00095
3527.34438	4.05275
3525.41582	4.10258
3523.48726	4.15054
3521.55869	4.20054
3519.63013	4.25212
3517.70156	4.30242
3515.77300	4.34730
3513.84443	4.39162
3511.91587	4.44387
3509.98730	4.49837
3508.05874	4.54389
3506.13018	4.58157
3504.20161	4.62165
3502.27305	4.67223
3500.34448	4.72715
3498.41592	4.77571
3496.48735	4.82281
3494.55879	4.87071
3492.63022	4.91691
3490.70166	4.96415
3488.77310	5.01443
3486.84453	5.06497
3484.91597	5.10982
3482.98740	5.15398
3481.05884	5.20336
3479.13027	5.24915
3477.20171	5.29797
3475.27314	5.35857
3473.34458	5.41163
3471.41602	5.44898
3469.48745	5.49039
3467.55889	5.54802
3465.63032	5.61023
3463.70176	5.66758
3461.77319	5.71814
3459.84463	5.75919
3457.91606	5.79906
3455.98750	5.84311
3454.05894	5.89225
3452.13037	5.95127
3450.20181	6.00362
3448.27324	6.03280
3446.34468	6.06548
3444.41611	6.12419
3442.48755	6.19691
3440.55898	6.26541
3438.63042	6.32158
3436.70186	6.36601
3434.77329	6.40836
3432.84473	6.45948
3430.91616	6.50377
3428.98760	6.53262
3427.05903	6.57736
3425.13047	6.64568
3423.20190	6.69287
3421.27334	6.71849
3419.34478	6.76272
3417.41621	6.83044
3415.48765	6.89857
3413.55908	6.95303
3411.63052	6.99716
3409.70195	7.03089
3407.77339	7.07208
3405.84482	7.11965
3403.91626	7.15749
3401.98770	7.19560
3400.05913	7.25349
3398.13057	7.32644
3396.20200	7.38730
3394.27344	7.42240
3392.34487	7.43195
3390.41631	7.44309
3388.48774	7.47880
3386.55918	7.53935
3384.63062	7.57533
3382.70205	7.56038
3380.77349	7.55159
3378.84492	7.60345
3376.91636	7.68885
3374.98779	7.72386
3373.05923	7.73454
3371.13066	7.76509
3369.20210	7.80387
3367.27354	7.84996
3365.34497	7.90060
3363.41641	7.91022
3361.48784	7.88237
3359.55928	7.88642
3357.63071	7.90243
3355.70215	7.92455
3353.77358	7.96982
3351.84502	7.99719
3349.91646	8.01173
3347.98789	8.06590
3346.05933	8.11721
3344.13076	8.10873
3342.20220	8.07268
3340.27363	8.03560
3338.34507	8.01903
3336.41650	8.06731
3334.48794	8.20699
3332.55937	8.29789
3330.63081	8.24293
3328.70225	8.19526
3326.77368	8.21270
3324.84512	8.19799
3322.91655	8.18981
3320.98799	8.24232
3319.05942	8.22604
3317.13086	8.16821
3315.20229	8.19576
3313.27373	8.31385
3311.34517	8.38583
3309.41660	8.30440
3307.48804	8.20104
3305.55947	8.19387
3303.63091	8.28410
3301.70234	8.38377
3299.77378	8.42002
3297.84521	8.40541
3295.91665	8.36493
3293.98809	8.29346
3292.05952	8.23699
3290.13096	8.26129
3288.20239	8.33649
3286.27383	8.36950
3284.34526	8.35012
3282.41670	8.40171
3280.48813	8.52583
3278.55957	8.55878
3276.63101	8.38437
3274.70244	8.12390
3272.77388	8.00608
3270.84531	8.07740
3268.91675	8.17058
3266.98818	8.16299
3265.05962	8.14707
3263.13105	8.20108
3261.20249	8.29319
3259.27393	8.32160
3257.34536	8.26801
3255.41680	8.22244
3253.48823	8.25720
3251.55967	8.36810
3249.63110	8.45068
3247.70254	8.44342
3245.77397	8.40208
3243.84541	8.41366
3241.91685	8.47552
3239.98828	8.52057
3238.05972	8.48117
3236.13115	8.35126
3234.20259	8.25838
3232.27402	8.23946
3230.34546	8.23209
3228.41689	8.29564
3226.48833	8.40260
3224.55977	8.34090
3222.63120	8.22253
3220.70264	8.21669
3218.77407	8.17526
3216.84551	8.03674
3214.91694	7.92427
3212.98838	7.84565
3211.05981	7.81368
3209.13125	7.86716
3207.20269	7.93088
3205.27412	7.95042
3203.34556	7.93237
3201.41699	7.87108
3199.48843	7.82388
3197.55986	7.84204
3195.63130	7.86037
3193.70273	7.78209
3191.77417	7.66662
3189.84561	7.60450
3187.91704	7.56498
3185.98848	7.52127
3184.05991	7.47601
3182.13135	7.38513
3180.20278	7.26763
3178.27422	7.20405
3176.34565	7.21023
3174.41709	7.21504
3172.48853	7.16031
3170.55996	7.08446
3168.63140	7.01968
3166.70283	6.94284
3164.77427	6.86853
3162.84570	6.82997
3160.91714	6.79908
3158.98857	6.73091
3157.06001	6.63780
3155.13145	6.55869
3153.20288	6.50279
3151.27432	6.46048
3149.34575	6.41718
3147.41719	6.35631
3145.48862	6.27363
3143.56006	6.17586
3141.63149	6.07919
3139.70293	6.00249
3137.77437	5.94150
3135.84580	5.87467
3133.91724	5.80753
3131.98867	5.74650
3130.06011	5.67809
3128.13154	5.60338
3126.20298	5.53006
3124.27441	5.46124
3122.34585	5.39220
3120.41729	5.31797
3118.48872	5.24277
3116.56016	5.17183
3114.63159	5.10487
3112.70303	5.03478
3110.77446	4.96323
3108.84590	4.89718
3106.91733	4.83235
3104.98877	4.76472
3103.06021	4.69855
3101.13164	4.63480
3099.20308	4.56807
3097.27451	4.49853
3095.34595	4.43056
3093.41738	4.36341
3091.48882	4.29832
3089.56025	4.23695
3087.63169	4.17662
3085.70312	4.11642
3083.77456	4.05523
3081.84600	3.99219
3079.91743	3.92872
3077.98887	3.86841
3076.06030	3.81268
3074.13174	3.75555
3072.20317	3.69572
3070.27461	3.63827
3068.34604	3.58273
3066.41748	3.52666
3064.48892	3.47003
3062.56035	3.41333
3060.63179	3.35792
3058.70322	3.30430
3056.77466	3.25126
3054.84609	3.19760
3052.91753	3.14456
3050.98896	3.09340
3049.06040	3.04201
3047.13184	2.98963
3045.20327	2.93869
3043.27471	2.89042
3041.34614	2.84303
3039.41758	2.79479
3037.48901	2.74652
3035.56045	2.69967
3033.63188	2.65446
3031.70332	2.60986
3029.77476	2.56518
3027.84619	2.52119
3025.91763	2.47808
3023.98906	2.43521
3022.06050	2.39271
3020.13193	2.35062
3018.20337	2.30864
3016.27480	2.26721
3014.34624	2.22713
3012.41768	2.18875
3010.48911	2.15146
3008.56055	2.11458
3006.63198	2.07786
3004.70342	2.04149
3002.77485	2.00594
3000.84629	1.97131
2998.91772	1.93735
2996.98916	1.90434
2995.06060	1.87271
2993.13203	1.84187
2991.20347	1.81137
2989.27490	1.78171
2987.34634	1.75278
2985.41777	1.72390
2983.48921	1.69534
2981.56064	1.66776
2979.63208	1.64096
2977.70352	1.61474
2975.77495	1.58946
2973.84639	1.56490
2971.91782	1.54022
2969.98926	1.51540
2968.06069	1.49104
2966.13213	1.46759
2964.20356	1.44488
2962.27500	1.42200
2960.34644	1.39838
2958.41787	1.37445
2956.48931	1.35072
2954.56074	1.32718
2952.63218	1.30378
2950.70361	1.28079
2948.77505	1.25850
2946.84648	1.23664
2944.91792	1.21504
2942.98936	1.19437
2941.06079	1.17439
2939.13223	1.15420
2937.20366	1.13417
2935.27510	1.11465
2933.34653	1.09479
2931.41797	1.07454
2929.48940	1.05522
2927.56084	1.03708
2925.63228	1.01903
2923.70371	1.00056
2921.77515	0.98241
2919.84658	0.96509
2917.91802	0.94788
2915.98945	0.93072
2914.06089	0.91421
2912.13232	0.89808
2910.20376	0.88195
2908.27520	0.86596
2906.34663	0.85029
2904.41807	0.83504
2902.48950	0.82053
2900.56094	0.80676
2898.63237	0.79324
2896.70381	0.77982
2894.77524	0.76660
2892.84668	0.75370
2890.91812	0.74157
2888.98955	0.73028
2887.06099	0.71947
2885.13242	0.70884
2883.20386	0.69826
2881.27529	0.68814
2879.34673	0.67866
2877.41816	0.66932
2875.48960	0.65969
2873.56104	0.64994
2871.63247	0.63986
2869.70391	0.62865
2867.77534	0.61642
2865.84678	0.60425
2863.91821	0.59267
2861.98965	0.58141
2860.06108	0.57048
2858.13252	0.56006
2856.20396	0.54985
2854.27539	0.53977
2852.34683	0.53045
2850.41826	0.52218
2848.48970	0.51415
2846.56113	0.50586
2844.63257	0.49794
2842.70400	0.49059
2840.77544	0.48350
2838.84687	0.47688
2836.91831	0.47075
2834.98975	0.46457
2833.06118	0.45808
2831.13262	0.45153
2829.20405	0.44531
2827.27549	0.43952
2825.34692	0.43383
2823.41836	0.42786
2821.48979	0.42158
2819.56123	0.41529
2817.63267	0.40924
2815.70410	0.40351
2813.77554	0.39806
2811.84697	0.39271
2809.91841	0.38745
2807.98984	0.38203
2806.06128	0.37630
2804.13271	0.37079
2802.20415	0.36571
2800.27559	0.36069
2798.34702	0.35586
2796.41846	0.35130
2794.48989	0.34659
2792.56133	0.34160
2790.63276	0.33677
2788.70420	0.33231
2786.77563	0.32802
2784.84707	0.32372
2782.91851	0.31935
2780.98994	0.31505
2779.06138	0.31109
2777.13281	0.30734
2775.20425	0.30346
2773.27568	0.29941
2771.34712	0.29542
2769.41855	0.29162
2767.48999	0.28795
2765.56143	0.28446
2763.63286	0.28118
2761.70430	0.27792
2759.77573	0.27463
2757.84717	0.27139
2755.91860	0.26810
2753.99004	0.26476
2752.06147	0.26164
2750.13291	0.25870
2748.20435	0.25576
2746.27578	0.25288
2744.34722	0.25004
2742.41865	0.24714
2740.49009	0.24428
2738.56152	0.24152
2736.63296	0.23886
2734.70439	0.23649
2732.77583	0.23436
2730.84727	0.23214
2728.91870	0.22983
2726.99014	0.22754
2725.06157	0.22522
2723.13301	0.22299
2721.20444	0.22096
2719.27588	0.21887
2717.34731	0.21658
2715.41875	0.21435
2713.49019	0.21246
2711.56162	0.21077
2709.63306	0.20912
2707.70449	0.20744
2705.77593	0.20569
2703.84736	0.20386
2701.91880	0.20215
2699.99023	0.20059
2698.06167	0.19905
2696.13311	0.19752
2694.20454	0.19617
2692.27598	0.19492
2690.34741	0.19366
2688.41885	0.19232
2686.49028	0.19086
2684.56172	0.18943
2682.63315	0.18819
2680.70459	0.18697
2678.77603	0.18571
2676.84746	0.18457
2674.91890	0.18354
2672.99033	0.18256
2671.06177	0.18146
2669.13320	0.18027
2667.20464	0.17922
2665.27607	0.17827
2663.34751	0.17741
2661.41895	0.17669
2659.49038	0.17592
2657.56182	0.17506
2655.63325	0.17412
2653.70469	0.17314
2651.77612	0.17233
2649.84756	0.17167
2647.91899	0.17101
2645.99043	0.17035
2644.06187	0.16961
2642.13330	0.16881
2640.20474	0.16824
2638.27617	0.16788
2636.34761	0.16741
2634.41904	0.16670
2632.49048	0.16598
2630.56191	0.16543
2628.63335	0.16514
2626.70479	0.16504
2624.77622	0.16488
2622.84766	0.16456
2620.91909	0.16421
2618.99053	0.16395
2617.06196	0.16369
2615.13340	0.16337
2613.20483	0.16311
2611.27627	0.16295
2609.34771	0.16279
2607.41914	0.16261
2605.49058	0.16241
2603.56201	0.16221
2601.63345	0.16212
2599.70488	0.16205
2597.77632	0.16198
2595.84775	0.16203
2593.91919	0.16214
2591.99062	0.16213
2590.06206	0.16204
2588.13350	0.16205
2586.20493	0.16217
2584.27637	0.16234
2582.34780	0.16248
2580.41924	0.16265
2578.49067	0.16290
2576.56211	0.16316
2574.63354	0.16329
2572.70498	0.16344
2570.77642	0.16381
2568.84785	0.16432
2566.91929	0.16488
2564.99072	0.16545
2563.06216	0.16579
2561.13359	0.16595
2559.20503	0.16626
2557.27646	0.16677
2555.34790	0.16728
2553.41934	0.16768
2551.49077	0.16793
2549.56221	0.16822
2547.63364	0.16868
2545.70508	0.16932
2543.77651	0.17007
2541.84795	0.17073
2539.91938	0.17126
2537.99082	0.17183
2536.06226	0.17241
2534.13369	0.17294
2532.20513	0.17353
2530.27656	0.17421
2528.34800	0.17483
2526.41943	0.17544
2524.49087	0.17619
2522.56230	0.17704
2520.63374	0.17783
2518.70518	0.17842
2516.77661	0.17891
2514.84805	0.17953
2512.91948	0.18025
2510.99092	0.18100
2509.06235	0.18187
2507.13379	0.18279
2505.20522	0.18355
2503.27666	0.18413
2501.34810	0.18471
2499.41953	0.18547
2497.49097	0.18639
2495.56240	0.18731
2493.63384	0.18817
2491.70527	0.18895
2489.77671	0.18962
2487.84814	0.19034
2485.91958	0.19118
2483.99102	0.19199
2482.06245	0.19280
2480.13389	0.19362
2478.20532	0.19445
2476.27676	0.19532
2474.34819	0.19618
2472.41963	0.19703
2470.49106	0.19786
2468.56250	0.19876
2466.63394	0.19976
2464.70537	0.20068
2462.77681	0.20141
2460.84824	0.20209
2458.91968	0.20278
2456.99111	0.20356
2455.06255	0.20458
2453.13398	0.20575
2451.20542	0.20678
2449.27686	0.20757
2447.34829	0.20834
2445.41973	0.20928
2443.49116	0.21037
2441.56260	0.21138
2439.63403	0.21232
2437.70547	0.21336
2435.77690	0.21438
2433.84834	0.21530
2431.91978	0.21625
2429.99121	0.21726
2428.06265	0.21828
2426.13408	0.21937
2424.20552	0.22053
2422.27695	0.22154
2420.34839	0.22236
2418.41982	0.22326
2416.49126	0.22434
2414.56270	0.22562
2412.63413	0.22698
2410.70557	0.22814
2408.77700	0.22913
2406.84844	0.23024
2404.91987	0.23151
2402.99131	0.23273
2401.06274	0.23369
2399.13418	0.23461
2397.20562	0.23587
2395.27705	0.23724
2393.34849	0.23848
2391.41992	0.23980
2389.49136	0.24120
2387.56279	0.24263
2385.63423	0.24422
2383.70566	0.24610
2381.77710	0.24856
2379.84854	0.25177
2377.91997	0.25535
2375.99141	0.25905
2374.06284	0.26304
2372.13428	0.26759
2370.20571	0.27277
2368.27715	0.27811
2366.34858	0.28297
2364.42002	0.28678
2362.49146	0.28988
2360.56289	0.29273
2358.63433	0.29400
2356.70576	0.29338
2354.77720	0.29244
2352.84863	0.29082
2350.92007	0.28795
2348.99150	0.28627
2347.06294	0.28731
2345.13437	0.29118
2343.20581	0.29630
2341.27725	0.29973
2339.34868	0.30114
2337.42012	0.30188
2335.49155	0.30261
2333.56299	0.30325
2331.63442	0.30429
2329.70586	0.30596
2327.77729	0.30748
2325.84873	0.30802
2323.92017	0.30785
2321.99160	0.30777
2320.06304	0.30794
2318.13447	0.30812
2316.20591	0.30828
2314.27734	0.30872
2312.34878	0.30950
2310.42021	0.31038
2308.49165	0.31125
2306.56309	0.31209
2304.63452	0.31292
2302.70596	0.31401
2300.77739	0.31541
2298.84883	0.31685
2296.92026	0.31829
2294.99170	0.31983
2293.06313	0.32138
2291.13457	0.32276
2289.20601	0.32407
2287.27744	0.32569
2285.34888	0.32757
2283.42031	0.32938
2281.49175	0.33117
2279.56318	0.33324
2277.63462	0.33542
2275.70605	0.33742
2273.77749	0.33939
2271.84893	0.34139
2269.92036	0.34337
2267.99180	0.34548
2266.06323	0.34773
2264.13467	0.34984
2262.20610	0.35171
2260.27754	0.35363
2258.34897	0.35570
2256.42041	0.35777
2254.49185	0.35984
2252.56328	0.36201
2250.63472	0.36425
2248.70615	0.36634
2246.77759	0.36825
2244.84902	0.37027
2242.92046	0.37257
2240.99189	0.37500
2239.06333	0.37728
2237.13477	0.37935
2235.20620	0.38140
2233.27764	0.38360
2231.34907	0.38591
2229.42051	0.38821
2227.49194	0.39044
2225.56338	0.39260
2223.63481	0.39465
2221.70625	0.39673
2219.77769	0.39899
2217.84912	0.40126
2215.92056	0.40333
2213.99199	0.40536
2212.06343	0.40747
2210.13486	0.40957
2208.20630	0.41169
2206.27773	0.41388
2204.34917	0.41606
2202.42061	0.41816
2200.49204	0.42011
2198.56348	0.42194
2196.63491	0.42380
2194.70635	0.42573
2192.77778	0.42762
2190.84922	0.42947
2188.92065	0.43131
2186.99209	0.43320
2185.06353	0.43515
2183.13496	0.43695
2181.20640	0.43859
2179.27783	0.44019
2177.34927	0.44180
2175.42070	0.44333
2173.49214	0.44479
2171.56357	0.44619
2169.63501	0.44752
2167.70645	0.44876
2165.77788	0.44988
2163.84932	0.45096
2161.92075	0.45208
2159.99219	0.45317
2158.06362	0.45424
2156.13506	0.45529
2154.20649	0.45625
2152.27793	0.45706
2150.34937	0.45776
2148.42080	0.45833
2146.49224	0.45872
2144.56367	0.45907
2142.63511	0.45950
2140.70654	0.45995
2138.77798	0.46026
2136.84941	0.46034
2134.92085	0.46029
2132.99229	0.46019
2131.06372	0.46011
2129.13516	0.46001
2127.20659	0.45976
2125.27803	0.45932
2123.34946	0.45872
2121.42090	0.45813
2119.49233	0.45761
2117.56377	0.45711
2115.63521	0.45643
2113.70664	0.45546
2111.77808	0.45446
2109.84951	0.45356
2107.92095	0.45250
2105.99238	0.45114
2104.06382	0.44976
2102.13525	0.44857
2100.20669	0.44735
2098.27812	0.44591
2096.34956	0.44439
2094.42100	0.44282
2092.49243	0.44120
2090.56387	0.43951
2088.63530	0.43774
2086.70674	0.43598
2084.77817	0.43427
2082.84961	0.43246
2080.92104	0.43039
2078.99248	0.42824
2077.06392	0.42612
2075.13535	0.42392
2073.20679	0.42156
2071.27822	0.41908
2069.34966	0.41668
2067.42109	0.41444
2065.49253	0.41221
2063.56396	0.40978
2061.63540	0.40725
2059.70684	0.40470
2057.77827	0.40220
2055.84971	0.39973
2053.92114	0.39713
2051.99258	0.39439
2050.06401	0.39168
2048.13545	0.38915
2046.20688	0.38658
2044.27832	0.38380
2042.34976	0.38100
2040.42119	0.37832
2038.49263	0.37566
2036.56406	0.37295
2034.63550	0.37023
2032.70693	0.36740
2030.77837	0.36454
2028.84980	0.36181
2026.92124	0.35910
2024.99268	0.35629
2023.06411	0.35351
2021.13555	0.35077
2019.20698	0.34799
2017.27842	0.34518
2015.34985	0.34240
2013.42129	0.33975
2011.49272	0.33712
2009.56416	0.33443
2007.63560	0.33167
2005.70703	0.32894
2003.77847	0.32632
2001.84990	0.32374
1999.92134	0.32113
1997.99277	0.31845
1996.06421	0.31579
1994.13564	0.31328
1992.20708	0.31092
1990.27852	0.30851
1988.34995	0.30602
1986.42139	0.30353
1984.49282	0.30104
1982.56426	0.29859
1980.63569	0.29619
1978.70713	0.29389
1976.77856	0.29171
1974.85000	0.28962
1972.92144	0.28753
1970.99287	0.28544
1969.06431	0.28337
1967.13574	0.28138
1965.20718	0.27943
1963.27861	0.27745
1961.35005	0.27546
1959.42148	0.27347
1957.49292	0.27152
1955.56436	0.26973
1953.63579	0.26812
1951.70723	0.26654
1949.77866	0.26487
1947.85010	0.26314
1945.92153	0.26159
1943.99297	0.26031
1942.06440	0.25906
1940.13584	0.25766
1938.20728	0.25621
1936.27871	0.25477
1934.35015	0.25342
1932.42158	0.25221
1930.49302	0.25097
1928.56445	0.24974
1926.63589	0.24866
1924.70732	0.24784
1922.77876	0.24709
1920.85020	0.24622
1918.92163	0.24531
1916.99307	0.24440
1915.06450	0.24341
1913.13594	0.24252
1911.20737	0.24190
1909.27881	0.24134
1907.35024	0.24059
1905.42168	0.23979
1903.49312	0.23914
1901.56455	0.23863
1899.63599	0.23814
1897.70742	0.23770
1895.77886	0.23733
1893.85029	0.23705
1891.92173	0.23678
1889.99316	0.23659
1888.06460	0.23635
1886.13604	0.23603
1884.20747	0.23576
1882.27891	0.23559
1880.35034	0.23551
1878.42178	0.23542
1876.49321	0.23543
1874.56465	0.23547
1872.63608	0.23549
1870.70752	0.23563
1868.77896	0.23613
1866.85039	0.23650
1864.92183	0.23651
1862.99326	0.23660
1861.06470	0.23685
1859.13613	0.23720
1857.20757	0.23751
1855.27900	0.23787
1853.35044	0.23833
1851.42187	0.23890
1849.49331	0.23956
1847.56475	0.24036
1845.63618	0.24123
1843.70762	0.24208
1841.77905	0.24276
1839.85049	0.24326
1837.92192	0.24398
1835.99336	0.24481
1834.06479	0.24575
1832.13623	0.24686
1830.20767	0.24832
1828.27910	0.24979
1826.35054	0.25084
1824.42197	0.25196
1822.49341	0.25314
1820.56484	0.25448
1818.63628	0.25604
1816.70771	0.25767
1814.77915	0.25915
1812.85059	0.26084
1810.92202	0.26295
1808.99346	0.26504
1807.06489	0.26689
1805.13633	0.26879
1803.20776	0.27109
1801.27920	0.27363
1799.35063	0.27628
1797.42207	0.27868
1795.49351	0.28108
1793.56494	0.28398
1791.63638	0.28765
1789.70781	0.29109
1787.77925	0.29371
1785.85068	0.29680
1783.92212	0.30044
1781.99355	0.30430
1780.06499	0.30836
1778.13643	0.31262
1776.20786	0.31674
1774.27930	0.32113
1772.35073	0.32686
1770.42217	0.33304
1768.49360	0.33836
1766.56504	0.34346
1764.63647	0.34870
1762.70791	0.35459
1760.77935	0.36206
1758.85078	0.36905
1756.92222	0.37594
1754.99365	0.38346
1753.06509	0.39057
1751.13652	0.39908
1749.20796	0.40952
1747.27939	0.41984
1745.35083	0.42920
1743.42227	0.43912
1741.49370	0.44987
1739.56514	0.46217
1737.63657	0.47439
1735.70801	0.48530
1733.77944	0.50160
1731.85088	0.52081
1729.92231	0.53614
1727.99375	0.55184
1726.06519	0.56890
1724.13662	0.58734
1722.20806	0.60704
1720.27949	0.62541
1718.35093	0.64699
1716.42236	0.67817
1714.49380	0.70800
1712.56523	0.73289
1710.63667	0.75736
1708.70811	0.78361
1706.77954	0.81312
1704.85098	0.84791
1702.92241	0.87922
1700.99385	0.91082
1699.06528	0.95736
1697.13672	1.00042
1695.20815	1.04516
1693.27959	1.08966
1691.35103	1.12631
1689.42246	1.16806
1687.49390	1.21160
1685.56533	1.25406
1683.63677	1.31984
1681.70820	1.38914
1679.77964	1.43402
1677.85107	1.47549
1675.92251	1.52313
1673.99395	1.58299
1672.06538	1.63781
1670.13682	1.69162
1668.20825	1.75956
1666.27969	1.81618
1664.35112	1.86585
1662.42256	1.92860
1660.49399	2.00023
1658.56543	2.05760
1656.63687	2.10390
1654.70830	2.14504
1652.77974	2.20399
1650.85117	2.25849
1648.92261	2.27782
1646.99404	2.29973
1645.06548	2.32424
1643.13691	2.34183
1641.20835	2.35002
1639.27979	2.35509
1637.35122	2.35597
1635.42266	2.35081
1633.49409	2.33973
1631.56553	2.32384
1629.63696	2.30495
1627.70840	2.27381
1625.77983	2.23594
1623.85127	2.19023
1621.92271	2.13711
1619.99414	2.08966
1618.06558	2.04253
1616.13701	1.97681
1614.20845	1.91091
1612.27988	1.85988
1610.35132	1.80608
1608.42275	1.74798
1606.49419	1.69148
1604.56562	1.64053
1602.63706	1.59242
1600.70850	1.54524
1598.77993	1.50102
1596.85137	1.45958
1594.92280	1.42027
1592.99424	1.38300
1591.06567	1.34889
1589.13711	1.31724
1587.20854	1.28823
1585.27998	1.26173
1583.35142	1.23759
1581.42285	1.21616
1579.49429	1.19793
1577.56572	1.18178
1575.63716	1.16330
1573.70859	1.14745
1571.78003	1.13716
1569.85146	1.12739
1567.92290	1.11777
1565.99434	1.11166
1564.06577	1.10841
1562.13721	1.10664
1560.20864	1.10716
1558.28008	1.11336
1556.35151	1.11970
1554.42295	1.12266
1552.49438	1.12568
1550.56582	1.12723
1548.63726	1.12593
1546.70869	1.12123
1544.78013	1.11227
1542.85156	1.09888
1540.92300	1.07890
1538.99443	1.04904
1537.06587	1.02660
1535.13730	1.01063
1533.20874	0.98948
1531.28018	0.96661
1529.35161	0.94947
1527.42305	0.93381
1525.49448	0.91826
1523.56592	0.90491
1521.63735	0.89186
1519.70879	0.87900
1517.78022	0.86865
1515.85166	0.85663
1513.92310	0.84314
1511.99453	0.83086
1510.06597	0.81979
1508.13740	0.80924
1506.20884	0.79383
1504.28027	0.77999
1502.35171	0.77187
1500.42314	0.76488
1498.49458	0.75755
1496.56602	0.74922
1494.63745	0.74097
1492.70889	0.73446
1490.78032	0.72874
1488.85176	0.72237
1486.92319	0.71647
1484.99463	0.71187
1483.06606	0.70833
1481.13750	0.70556
1479.20894	0.70363
1477.28037	0.70284
1475.35181	0.70316
1473.42324	0.70400
1471.49468	0.70383
1469.56611	0.70223
1467.63755	0.70026
1465.70898	0.69870
1463.78042	0.69799
1461.85186	0.69800
1459.92329	0.69850
1457.99473	0.69934
1456.06616	0.69912
1454.13760	0.69711
1452.20903	0.69483
1450.28047	0.69240
1448.35190	0.68966
1446.42334	0.68668
1444.49478	0.68386
1442.56621	0.68107
1440.63765	0.67805
1438.70908	0.67499
1436.78052	0.67149
1434.85195	0.66754
1432.92339	0.66439
1430.99482	0.66248
1429.06626	0.66156
1427.13770	0.66132
1425.20913	0.66173
1423.28057	0.66267
1421.35200	0.66359
1419.42344	0.66434
1417.49487	0.66459
1415.56631	0.66389
1413.63774	0.66325
1411.70918	0.66337
1409.78062	0.66436
1407.85205	0.66597
1405.92349	0.66803
1403.99492	0.66998
1402.06636	0.67076
1400.13779	0.67034
1398.20923	0.66881
1396.28066	0.66604
1394.35210	0.66179
1392.42354	0.65679
1390.49497	0.65230
1388.56641	0.64788
1386.63784	0.64259
1384.70928	0.63690
1382.78071	0.63159
1380.85215	0.62663
1378.92358	0.62238
1376.99502	0.61930
1375.06646	0.61731
1373.13789	0.61595
1371.20933	0.61498
1369.28076	0.61419
1367.35220	0.61310
1365.42363	0.61166
1363.49507	0.61014
1361.56650	0.60854
1359.63794	0.60686
1357.70937	0.60532
1355.78081	0.60391
1353.85225	0.60270
1351.92368	0.60178
1349.99512	0.60102
1348.06655	0.60023
1346.13799	0.59939
1344.20942	0.59850
1342.28086	0.59757
1340.35229	0.59678
1338.42373	0.59618
1336.49517	0.59563
1334.56660	0.59528
1332.63804	0.59528
1330.70947	0.59549
1328.78091	0.59586
1326.85234	0.59655
1324.92378	0.59752
1322.99521	0.59854
1321.06665	0.59946
1319.13809	0.60027
1317.20952	0.60083
1315.28096	0.60099
1313.35239	0.60084
1311.42383	0.60037
1309.49526	0.59962
1307.56670	0.59880
1305.63813	0.59816
1303.70957	0.59778
1301.78101	0.59731
1299.85244	0.59634
1297.92388	0.59498
1295.99531	0.59358
1294.06675	0.59228
1292.13818	0.59103
1290.20962	0.58978
1288.28105	0.58857
1286.35249	0.58734
1284.42393	0.58602
1282.49536	0.58448
1280.56680	0.58277
1278.63823	0.58106
1276.70967	0.57953
1274.78110	0.57824
1272.85254	0.57717
1270.92397	0.57631
1268.99541	0.57551
1267.06685	0.57468
1265.13828	0.57383
1263.20972	0.57302
1261.28115	0.57234
1259.35259	0.57158
1257.42402	0.57056
1255.49546	0.56969
1253.56689	0.56938
1251.63833	0.56956
1249.70977	0.56977
1247.78120	0.56969
1245.85264	0.56937
1243.92407	0.56879
1241.99551	0.56780
1240.06694	0.56633
1238.13838	0.56437
1236.20981	0.56194
1234.28125	0.55945
1232.35269	0.55712
1230.42412	0.55479
1228.49556	0.55241
1226.56699	0.55012
1224.63843	0.54810
1222.70986	0.54635
1220.78130	0.54468
1218.85273	0.54297
1216.92417	0.54128
1214.99561	0.53982
1213.06704	0.53878
1211.13848	0.53814
1209.20991	0.53752
1207.28135	0.53677
1205.35278	0.53597
1203.42422	0.53514
1201.49565	0.53422
1199.56709	0.53321
1197.63853	0.53227
1195.70996	0.53151
1193.78140	0.53087
1191.85283	0.53030
1189.92427	0.52984
1187.99570	0.52949
1186.06714	0.52925
1184.13857	0.52930
1182.21001	0.52965
1180.28145	0.53039
1178.35288	0.53179
1176.42432	0.53360
1174.49575	0.53509
1172.56719	0.53591
1170.63862	0.53619
1168.71006	0.53616
1166.78149	0.53619
1164.85293	0.53658
1162.92437	0.53702
1160.99580	0.53700
1159.06724	0.53660
1157.13867	0.53596
1155.21011	0.53498
1153.28154	0.53379
1151.35298	0.53240
1149.42441	0.53047
1147.49585	0.52793
1145.56729	0.52516
1143.63872	0.52252
1141.71016	0.52015
1139.78159	0.51826
1137.85303	0.51705
1135.92446	0.51651
1133.99590	0.51642
1132.06733	0.51662
1130.13877	0.51683
1128.21021	0.51677
1126.28164	0.51643
1124.35308	0.51593
1122.42451	0.51554
1120.49595	0.51554
1118.56738	0.51590
1116.63882	0.51628
1114.71025	0.51657
1112.78169	0.51685
1110.85312	0.51718
1108.92456	0.51781
1106.99600	0.51873
1105.06743	0.51959
1103.13887	0.52037
1101.21030	0.52132
1099.28174	0.52275
1097.35317	0.52492
1095.42461	0.52780
1093.49604	0.53122
1091.56748	0.53554
1089.63892	0.54139
1087.71035	0.54881
1085.78179	0.55731
1083.85322	0.56587
1081.92466	0.57317
1079.99609	0.57843
1078.06753	0.58109
1076.13896	0.58079
1074.21040	0.57762
1072.28184	0.57217
1070.35327	0.56539
1068.42471	0.55811
1066.49614	0.55101
1064.56758	0.54466
1062.63901	0.53915
1060.71045	0.53432
1058.78188	0.53000
1056.85332	0.52603
1054.92476	0.52241
1052.99619	0.51927
1051.06763	0.51686
1049.13906	0.51539
1047.21050	0.51454
1045.28193	0.51393
1043.35337	0.51345
1041.42480	0.51309
1039.49624	0.51278
1037.56768	0.51242
1035.63911	0.51203
1033.71055	0.51144
1031.78198	0.51044
1029.85342	0.50903
1027.92485	0.50727
1025.99629	0.50551
1024.06772	0.50423
1022.13916	0.50347
1020.21060	0.50302
1018.28203	0.50270
1016.35347	0.50228
1014.42490	0.50183
1012.49634	0.50162
1010.56777	0.50165
1008.63921	0.50187
1006.71064	0.50248
1004.78208	0.50362
1002.85352	0.50521
1000.92495	0.50746
998.99639	0.51072
997.06782	0.51489
995.13926	0.51946
993.21069	0.52372
991.28213	0.52703
989.35356	0.52901
987.42500	0.52970
985.49644	0.52961
983.56787	0.52948
981.63931	0.52960
979.71074	0.53005
977.78218	0.53103
975.85361	0.53264
973.92505	0.53506
971.99648	0.53834
970.06792	0.54183
968.13936	0.54515
966.21079	0.54886
964.28223	0.55337
962.35366	0.55822
960.42510	0.56299
958.49653	0.56816
956.56797	0.57397
954.63940	0.57992
952.71084	0.58597
950.78228	0.59251
948.85371	0.59920
946.92515	0.60546
944.99658	0.61157
943.06802	0.61818
941.13945	0.62501
939.21089	0.63121
937.28232	0.63660
935.35376	0.64179
933.42520	0.64760
931.49663	0.65378
929.56807	0.65949
927.63950	0.66509
925.71094	0.67094
923.78237	0.67671
921.85381	0.68279
919.92524	0.68972
917.99668	0.69725
916.06812	0.70486
914.13955	0.71220
912.21099	0.71952
910.28242	0.72729
908.35386	0.73568
906.42529	0.74525
904.49673	0.75576
902.56816	0.76560
900.63960	0.77421
898.71104	0.78283
896.78247	0.79234
894.85391	0.80219
892.92534	0.81318
890.99678	0.82602
889.06821	0.83784
887.13965	0.84751
885.21108	0.85749
883.28252	0.86811
881.35396	0.87840
879.42539	0.88880
877.49683	0.90036
875.56826	0.91344
873.63970	0.92587
871.71113	0.93603
869.78257	0.94572
867.85400	0.95723
865.92544	0.97039
863.99687	0.98262
862.06831	0.99335
860.13975	1.00528
858.21118	1.01940
856.28262	1.03376
854.35405	1.04758
852.42549	1.05943
850.49692	1.06841
848.56836	1.07802
846.63979	1.09018
844.71123	1.10283
842.78267	1.11541
840.85410	1.12889
838.92554	1.14133
836.99697	1.15187
835.06841	1.16203
833.13984	1.17198
831.21128	1.18090
829.28271	1.18786
827.35415	1.19583
825.42559	1.20656
823.49702	1.21799
821.56846	1.23150
819.63989	1.24684
817.71133	1.25593
815.78276	1.26025
813.85420	1.27488
811.92563	1.30504
809.99707	1.33828
808.06851	1.35360
806.13994	1.36273
804.21138	1.39416
802.28281	1.42380
800.35425	1.41681
798.42568	1.38967
796.49712	1.35386
794.56855	1.31545
792.63999	1.30516
790.71143	1.34345
788.78286	1.40026
786.85430	1.47994
784.92573	1.67260
782.99717	1.77979
781.06860	1.57864
779.14004	1.49312
777.21147	1.54617
775.28291	1.58968
773.35435	1.61728
771.42578	1.79238
769.49722	1.92193
767.56865	1.81432
765.64009	1.92765
763.71152	4.58227
761.78296	2.74938
759.85439	1.77550
757.92583	1.61954
755.99727	2.11104
754.06870	4.52441
752.14014	2.36587
750.21157	1.45423
748.28301	1.41908
746.35444	1.59717
744.42588	1.41415
742.49731	1.28518
740.56875	1.46588
738.64019	1.41881
736.71162	1.06488
734.78306	0.87040
732.85449	0.77992
730.92593	0.68956
728.99736	0.54620
727.06880	0.51854
725.14023	0.60445
723.21167	0.32017
721.28311	-0.05614
719.35454	-0.19097
717.42598	-0.14571
715.49741	0.02898
713.56885	0.23703
711.64028	0.32303
709.71172	0.25469
707.78315	0.15346
705.85459	0.16342
703.92603	0.17528
701.99746	0.15737
700.06890	0.21015
698.14033	0.38352
696.21177	0.81781
694.28320	1.42595
692.35464	0.64737
690.42607	0.40160
688.49751	0.40517
686.56895	0.57687
684.64038	0.68605
682.71182	0.61284
680.78325	0.59397
678.85469	0.67325
676.92612	0.74632
674.99756	0.68381
673.06899	0.58737
671.14043	0.60103
669.21187	0.64073
667.28330	0.61282
665.35474	0.69594
663.42617	1.87509
661.49761	1.27157
659.56904	0.61317
657.64048	0.57869
655.71191	0.66852
653.78335	0.72927
651.85479	0.73787
649.92622	0.54836
647.99766	0.38774
646.06909	0.32539
644.14053	0.31494
642.21196	0.32786
640.28340	0.31815
638.35483	0.29902
636.42627	0.30234
634.49771	0.30176
632.56914	0.27194
630.64058	0.29796
628.71201	0.49705
626.78345	0.81055
624.85488	0.60072
622.92632	0.42790
620.99775	0.36883
619.06919	0.33096
617.14062	0.28271
615.21206	0.25016
613.28350	0.25158
611.35493	0.29680
609.42637	0.46161
607.49780	0.73329
605.56924	0.61599
603.64067	0.43416
601.71211	0.39644
599.78354	0.43481
597.85498	0.36148
595.92642	0.28537
593.99785	0.31861
592.06929	0.40516
590.14072	0.41960
588.21216	0.42677
586.28359	0.41286
584.35503	0.33338
582.42646	0.31583
580.49790	0.35100
578.56934	0.41197
576.64077	0.48617
574.71221	0.47766
572.78364	0.41149
570.85508	0.38640
568.92651	0.41406
566.99795	0.39725
565.06938	0.28346
563.14082	0.23725
561.21226	0.29361
559.28369	0.31204
557.35513	0.25326
555.42656	0.24530
553.49800	0.28369
551.56943	0.31243
549.64087	0.34288
547.71230	0.38734
545.78374	0.47057
543.85518	0.73063
541.92661	0.98791
539.99805	0.64424
538.06948	0.53125
536.14092	0.59250
534.21235	0.56481
532.28379	0.37673
530.35522	0.29801
528.42666	0.32270
526.49810	0.34099
524.56953	0.31562
522.64097	0.27443
520.71240	0.26512
518.78384	0.31018
516.85527	0.40430
514.92671	0.42844
512.99814	0.37209
511.06958	0.38262
509.14102	0.39894
507.21245	0.31275
505.28389	0.25382
503.35532	0.26880
501.42676	0.33235
499.49819	0.38511
