3997.91411	0.07040
3995.98555	0.07033
3994.05698	0.07037
3992.12842	0.07090
3990.19985	0.07172
3988.27129	0.07200
3986.34272	0.07181
3984.41416	0.07179
3982.48560	0.07183
3980.55703	0.07197
3978.62847	0.07268
3976.69990	0.07377
3974.77134	0.07435
3972.84277	0.07411
3970.91421	0.07362
3968.98564	0.07321
3967.05708	0.07305
3965.12852	0.07328
3963.19995	0.07357
3961.27139	0.07368
3959.34282	0.07374
3957.41426	0.07367
3955.48569	0.07371
3953.55713	0.07437
3951.62856	0.07546
3949.70000	0.07642
3947.77144	0.07673
3945.84287	0.07625
3943.91431	0.07570
3941.98574	0.07542
3940.05718	0.07504
3938.12861	0.07453
3936.20005	0.07411
3934.27148	0.07438
3932.34292	0.07552
3930.41436	0.07638
3928.48579	0.07591
3926.55723	0.07504
3924.62866	0.07499
3922.70010	0.07515
3920.77153	0.07496
3918.84297	0.07520
3916.91440	0.07583
3914.98584	0.07563
3913.05728	0.07447
3911.12871	0.07345
3909.20015	0.07318
3907.27158	0.07389
3905.34302	0.07597
3903.41445	0.07873
3901.48589	0.07980
3899.55732	0.07884
3897.62876	0.07701
3895.70020	0.07503
3893.77163	0.07456
3891.84307	0.07614
3889.91450	0.07725
3887.98594	0.07667
3886.05737	0.07700
3884.12881	0.07826
3882.20024	0.07855
3880.27168	0.07838
3878.34312	0.07753
3876.41455	0.07632
3874.48599	0.07657
3872.55742	0.07831
3870.62886	0.08050
3868.70029	0.08172
3866.77173	0.08079
3864.84316	0.08019
3862.91460	0.08104
3860.98604	0.08083
3859.05747	0.07961
3857.12891	0.07978
3855.20034	0.08230
3853.27178	0.08687
3851.34321	0.08821
3849.41465	0.08442
3847.48608	0.08149
3845.55752	0.08124
3843.62896	0.08311
3841.70039	0.08574
3839.77183	0.08820
3837.84326	0.09021
3835.91470	0.09045
3833.98613	0.08909
3832.05757	0.08785
3830.12900	0.08710
3828.20044	0.08699
3826.27187	0.08796
3824.34331	0.08954
3822.41475	0.09180
3820.48618	0.09512
3818.55762	0.09665
3816.62905	0.09638
3814.70049	0.09574
3812.77192	0.09411
3810.84336	0.09307
3808.91479	0.09403
3806.98623	0.09689
3805.05767	0.09969
3803.12910	0.10173
3801.20054	0.10451
3799.27197	0.10597
3797.34341	0.10529
3795.41484	0.10463
3793.48628	0.10402
3791.55771	0.10378
3789.62915	0.10434
3787.70059	0.10573
3785.77202	0.10800
3783.84346	0.11026
3781.91489	0.11175
3779.98633	0.11336
3778.05776	0.11491
3776.12920	0.11528
3774.20063	0.11597
3772.27207	0.11819
3770.34351	0.12139
3768.41494	0.12430
3766.48638	0.12607
3764.55781	0.12743
3762.62925	0.12863
3760.70068	0.13056
3758.77212	0.13405
3756.84355	0.13747
3754.91499	0.13989
3752.98643	0.14329
3751.05786	0.14928
3749.12930	0.15528
3747.20073	0.15735
3745.27217	0.15920
3743.34360	0.16402
3741.41504	0.16860
3739.48647	0.17210
3737.55791	0.17760
3735.62935	0.18634
3733.70078	0.19541
3731.77222	0.20067
3729.84365	0.20408
3727.91509	0.20796
3725.98652	0.21320
3724.05796	0.21917
3722.12939	0.22447
3720.20083	0.22867
3718.27227	0.23186
3716.34370	0.23525
3714.41514	0.24066
3712.48657	0.25106
3710.55801	0.26802
3708.62944	0.28449
3706.70088	0.29564
3704.77231	0.30599
3702.84375	0.31885
3700.91519	0.33510
3698.98662	0.35233
3697.05806	0.36889
3695.12949	0.38658
3693.20093	0.40579
3691.27236	0.42755
3689.34380	0.45501
3687.41523	0.48666
3685.48667	0.51398
3683.55811	0.53815
3681.62954	0.56512
3679.70098	0.59664
3677.77241	0.63082
3675.84385	0.67124
3673.91528	0.72275
3671.98672	0.76426
3670.05815	0.80242
3668.12959	0.85330
3666.20103	0.89852
3664.27246	0.93726
3662.34390	0.98005
3660.41533	1.02675
3658.48677	1.07336
3656.55820	1.12272
3654.62964	1.17634
3652.70107	1.22222
3650.77251	1.26536
3648.84395	1.32456
3646.91538	1.39072
3644.98682	1.43679
3643.05825	1.47344
3641.12969	1.51255
3639.20112	1.55645
3637.27256	1.60133
3635.34399	1.64573
3633.41543	1.69077
3631.48687	1.73332
3629.55830	1.77664
3627.62974	1.83141
3625.70117	1.88066
3623.77261	1.91336
3621.84404	1.94416
3619.91548	1.98014
3617.98691	2.02430
3616.05835	2.06620
3614.12979	2.10163
3612.20122	2.13993
3610.27266	2.17921
3608.34409	2.22005
3606.41553	2.26408
3604.48696	2.30392
3602.55840	2.33863
3600.62983	2.37614
3598.70127	2.41747
3596.77271	2.45860
3594.84414	2.49985
3592.91558	2.54016
3590.98701	2.57686
3589.05845	2.61254
3587.12988	2.65570
3585.20132	2.70167
3583.27275	2.74146
3581.34419	2.77988
3579.41562	2.82085
3577.48706	2.86303
3575.55850	2.90483
3573.62993	2.94734
3571.70137	2.98900
3569.77280	3.03071
3567.84424	3.07688
3565.91567	3.13024
3563.98711	3.17879
3562.05854	3.21750
3560.12998	3.25587
3558.20142	3.29735
3556.27285	3.34176
3554.34429	3.38958
3552.41572	3.44021
3550.48716	3.48762
3548.55859	3.53191
3546.63003	3.57993
3544.70146	3.63281
3542.77290	3.68176
3540.84434	3.72369
3538.91577	3.76709
3536.98721	3.81500
3535.05864	3.86449
3533.13008	3.91234
3531.20151	3.96035
3529.27295	4.00911
3527.34438	4.05641
3525.41582	4.10250
3523.48726	4.15041
3521.55869	4.20178
3519.63013	4.25232
3517.70156	4.29937
3515.77300	4.34439
3513.84443	4.39170
3511.91587	4.44293
3509.98730	4.49600
3508.05874	4.54748
3506.13018	4.59595
3504.20161	4.64599
3502.27305	4.69894
3500.34448	4.74801
3498.41592	4.78945
3496.48735	4.83171
3494.55879	4.88193
3492.63022	4.93522
3490.70166	4.98767
3488.77310	5.03963
3486.84453	5.08693
3484.91597	5.12893
3482.98740	5.17359
3481.05884	5.22375
3479.13027	5.27242
3477.20171	5.31879
3475.27314	5.36739
3473.34458	5.41802
3471.41602	5.46997
3469.48745	5.52321
3467.55889	5.57527
3465.63032	5.62078
3463.70176	5.66376
3461.77319	5.71350
3459.84463	5.76823
3457.91606	5.82308
3455.98750	5.88000
3454.05894	5.93474
3452.13037	5.98452
3450.20181	6.03180
3448.27324	6.07760
3446.34468	6.13018
3444.41611	6.18211
3442.48755	6.22680
3440.55898	6.27805
3438.63042	6.33546
3436.70186	6.38106
3434.77329	6.42943
3432.84473	6.50110
3430.91616	6.57040
3428.98760	6.62233
3427.05903	6.66643
3425.13047	6.71325
3423.20190	6.77366
3421.27334	6.84319
3419.34478	6.88389
3417.41621	6.90161
3415.48765	6.94638
3413.55908	7.00789
3411.63052	7.05665
3409.70195	7.09381
3407.77339	7.13080
3405.84482	7.16136
3403.91626	7.20533
3401.98770	7.27599
3400.05913	7.33779
3398.13057	7.35078
3396.20200	7.32760
3394.27344	7.36473
3392.34487	7.48927
3390.41631	7.59537
3388.48774	7.62829
3386.55918	7.67643
3384.63062	7.73757
3382.70205	7.72611
3380.77349	7.68817
3378.84492	7.71330
3376.91636	7.78193
3374.98779	7.82394
3373.05923	7.85583
3371.13066	7.90608
3369.20210	7.94991
3367.27354	7.94585
3365.34497	7.95746
3363.41641	8.02685
3361.48784	8.07701
3359.55928	8.08931
3357.63071	8.06538
3355.70215	8.04469
3353.77358	8.09077
3351.84502	8.18864
3349.91646	8.25386
3347.98789	8.24187
3346.05933	8.19986
3344.13076	8.19388
3342.20220	8.20559
3340.27363	8.21871
3338.34507	8.24346
3336.41650	8.20328
3334.48794	8.17039
3332.55937	8.22682
3330.63081	8.31324
3328.70225	8.37794
3326.77368	8.42319
3324.84512	8.48564
3322.91655	8.53607
3320.98799	8.53707
3319.05942	8.50326
3317.13086	8.46153
3315.20229	8.42440
3313.27373	8.46841
3311.34517	8.60133
3309.41660	8.66641
3307.48804	8.59449
3305.55947	8.50255
3303.63091	8.49203
3301.70234	8.53829
3299.77378	8.60142
3297.84521	8.63037
3295.91665	8.61339
3293.98809	8.56698
3292.05952	8.50670
3290.13096	8.47779
3288.20239	8.43516
3286.27383	8.36939
3284.34526	8.35666
3282.41670	8.39299
3280.48813	8.40267
3278.55957	8.38166
3276.63101	8.37395
3274.70244	8.40112
3272.77388	8.45969
3270.84531	8.54464
3268.91675	8.62555
3266.98818	8.65712
3265.05962	8.66352
3263.13105	8.59965
3261.20249	8.48226
3259.27393	8.46331
3257.34536	8.51556
3255.41680	8.45692
3253.48823	8.38711
3251.55967	8.48009
3249.63110	8.58232
3247.70254	8.56148
3245.77397	8.50110
3243.84541	8.44151
3241.91685	8.42526
3239.98828	8.41948
3238.05972	8.35976
3236.13115	8.34103
3234.20259	8.40678
3232.27402	8.44821
3230.34546	8.41559
3228.41689	8.36898
3226.48833	8.35379
3224.55977	8.38010
3222.63120	8.43766
3220.70264	8.47349
3218.77407	8.48057
3216.84551	8.47012
3214.91694	8.41657
3212.98838	8.34340
3211.05981	8.29029
3209.13125	8.28638
3207.20269	8.28397
3205.27412	8.20656
3203.34556	8.10472
3201.41699	8.03679
3199.48843	7.98345
3197.55986	7.93680
3195.63130	7.90059
3193.70273	7.85398
3191.77417	7.80442
3189.84561	7.75074
3187.91704	7.67008
3185.98848	7.60225
3184.05991	7.57735
3182.13135	7.56350
3180.20278	7.50923
3178.27422	7.40146
3176.34565	7.30995
3174.41709	7.28865
3172.48853	7.30787
3170.55996	7.28603
3168.63140	7.19407
3166.70283	7.09890
3164.77427	7.03399
3162.84570	6.97120
3160.91714	6.90651
3158.98857	6.84527
3157.06001	6.76401
3155.13145	6.67229
3153.20288	6.60555
3151.27432	6.56605
3149.34575	6.52719
3147.41719	6.46520
3145.48862	6.37890
3143.56006	6.28389
3141.63149	6.19586
3139.70293	6.11625
3137.77437	6.03984
3135.84580	5.96302
3133.91724	5.88449
3131.98867	5.80557
3130.06011	5.73747
3128.13154	5.68189
3126.20298	5.61445
3124.27441	5.52971
3122.34585	5.44628
3120.41729	5.37294
3118.48872	5.31104
3116.56016	5.25017
3114.63159	5.17275
3112.70303	5.08814
3110.77446	5.01392
3108.84590	4.94496
3106.91733	4.87591
3104.98877	4.80942
3103.06021	4.74374
3101.13164	4.67438
3099.20308	4.60329
3097.27451	4.53478
3095.34595	4.46602
3093.41738	4.39438
3091.48882	4.32358
3089.56025	4.25848
3087.63169	4.19778
3085.70312	4.13430
3083.77456	4.06898
3081.84600	4.00843
3079.91743	3.94911
3077.98887	3.88576
3076.06030	3.82064
3074.13174	3.75862
3072.20317	3.70110
3070.27461	3.64403
3068.34604	3.58465
3066.41748	3.52453
3064.48892	3.46649
3062.56035	3.41175
3060.63179	3.35846
3058.70322	3.30321
3056.77466	3.24559
3054.84609	3.18890
3052.91753	3.13498
3050.98896	3.08261
3049.06040	3.03044
3047.13184	2.97908
3045.20327	2.92946
3043.27471	2.88097
3041.34614	2.83215
3039.41758	2.78303
3037.48901	2.73433
3035.56045	2.68634
3033.63188	2.64000
3031.70332	2.59517
3029.77476	2.55090
3027.84619	2.50689
3025.91763	2.46286
3023.98906	2.41884
3022.06050	2.37598
3020.13193	2.33465
3018.20337	2.29381
3016.27480	2.25337
3014.34624	2.21355
3012.41768	2.17364
3010.48911	2.13396
3008.56055	2.09591
3006.63198	2.05951
3004.70342	2.02346
3002.77485	1.98741
3000.84629	1.95200
2998.91772	1.91755
2996.98916	1.88406
2995.06060	1.85138
2993.13203	1.81900
2991.20347	1.78702
2989.27490	1.75577
2987.34634	1.72518
2985.41777	1.69556
2983.48921	1.66635
2981.56064	1.63672
2979.63208	1.60734
2977.70352	1.57938
2975.77495	1.55279
2973.84639	1.52638
2971.91782	1.49934
2969.98926	1.47215
2968.06069	1.44602
2966.13213	1.42135
2964.20356	1.39695
2962.27500	1.37199
2960.34644	1.34707
2958.41787	1.32285
2956.48931	1.29902
2954.56074	1.27517
2952.63218	1.25153
2950.70361	1.22835
2948.77505	1.20559
2946.84648	1.18363
2944.91792	1.16274
2942.98936	1.14205
2941.06079	1.12078
2939.13223	1.09936
2937.20366	1.07868
2935.27510	1.05897
2933.34653	1.03980
2931.41797	1.02083
2929.48940	1.00199
2927.56084	0.98316
2925.63228	0.96461
2923.70371	0.94694
2921.77515	0.93010
2919.84658	0.91324
2917.91802	0.89613
2915.98945	0.87956
2914.06089	0.86355
2912.13232	0.84764
2910.20376	0.83212
2908.27520	0.81725
2906.34663	0.80297
2904.41807	0.78890
2902.48950	0.77488
2900.56094	0.76136
2898.63237	0.74854
2896.70381	0.73597
2894.77524	0.72328
2892.84668	0.71074
2890.91812	0.69861
2888.98955	0.68685
2887.06099	0.67529
2885.13242	0.66413
2883.20386	0.65371
2881.27529	0.64377
2879.34673	0.63384
2877.41816	0.62392
2875.48960	0.61398
2873.56104	0.60377
2871.63247	0.59338
2869.70391	0.58307
2867.77534	0.57268
2865.84678	0.56193
2863.91821	0.55107
2861.98965	0.54059
2860.06108	0.53045
2858.13252	0.52058
2856.20396	0.51129
2854.27539	0.50251
2852.34683	0.49406
2850.41826	0.48598
2848.48970	0.47829
2846.56113	0.47090
2844.63257	0.46382
2842.70400	0.45706
2840.77544	0.45051
2838.84687	0.44419
2836.91831	0.43795
2834.98975	0.43178
2833.06118	0.42587
2831.13262	0.41994
2829.20405	0.41384
2827.27549	0.40799
2825.34692	0.40249
2823.41836	0.39681
2821.48979	0.39074
2819.56123	0.38471
2817.63267	0.37895
2815.70410	0.37342
2813.77554	0.36810
2811.84697	0.36289
2809.91841	0.35766
2807.98984	0.35240
2806.06128	0.34709
2804.13271	0.34191
2802.20415	0.33707
2800.27559	0.33247
2798.34702	0.32787
2796.41846	0.32310
2794.48989	0.31826
2792.56133	0.31377
2790.63276	0.30974
2788.70420	0.30571
2786.77563	0.30145
2784.84707	0.29732
2782.91851	0.29340
2780.98994	0.28939
2779.06138	0.28539
2777.13281	0.28169
2775.20425	0.27814
2773.27568	0.27456
2771.34712	0.27093
2769.41855	0.26732
2767.48999	0.26388
2765.56143	0.26075
2763.63286	0.25775
2761.70430	0.25454
2759.77573	0.25117
2757.84717	0.24789
2755.91860	0.24488
2753.99004	0.24210
2752.06147	0.23924
2750.13291	0.23622
2748.20435	0.23329
2746.27578	0.23062
2744.34722	0.22813
2742.41865	0.22563
2740.49009	0.22311
2738.56152	0.22066
2736.63296	0.21815
2734.70439	0.21555
2732.77583	0.21308
2730.84727	0.21088
2728.91870	0.20878
2726.99014	0.20662
2725.06157	0.20456
2723.13301	0.20267
2721.20444	0.20071
2719.27588	0.19863
2717.34731	0.19665
2715.41875	0.19482
2713.49019	0.19300
2711.56162	0.19112
2709.63306	0.18938
2707.70449	0.18789
2705.77593	0.18653
2703.84736	0.18511
2701.91880	0.18361
2699.99023	0.18211
2698.06167	0.18067
2696.13311	0.17930
2694.20454	0.17792
2692.27598	0.17648
2690.34741	0.17502
2688.41885	0.17367
2686.49028	0.17256
2684.56172	0.17153
2682.63315	0.17040
2680.70459	0.16933
2678.77603	0.16828
2676.84746	0.16713
2674.91890	0.16597
2672.99033	0.16494
2671.06177	0.16412
2669.13320	0.16338
2667.20464	0.16266
2665.27607	0.16197
2663.34751	0.16123
2661.41895	0.16039
2659.49038	0.15954
2657.56182	0.15871
2655.63325	0.15784
2653.70469	0.15715
2651.77612	0.15668
2649.84756	0.15617
2647.91899	0.15544
2645.99043	0.15466
2644.06187	0.15412
2642.13330	0.15380
2640.20474	0.15344
2638.27617	0.15296
2636.34761	0.15250
2634.41904	0.15212
2632.49048	0.15185
2630.56191	0.15165
2628.63335	0.15134
2626.70479	0.15092
2624.77622	0.15057
2622.84766	0.15036
2620.91909	0.15018
2618.99053	0.14990
2617.06196	0.14963
2615.13340	0.14953
2613.20483	0.14948
2611.27627	0.14931
2609.34771	0.14904
2607.41914	0.14886
2605.49058	0.14888
2603.56201	0.14900
2601.63345	0.14916
2599.70488	0.14925
2597.77632	0.14924
2595.84775	0.14923
2593.91919	0.14935
2591.99062	0.14961
2590.06206	0.14985
2588.13350	0.15003
2586.20493	0.15029
2584.27637	0.15060
2582.34780	0.15086
2580.41924	0.15111
2578.49067	0.15146
2576.56211	0.15183
2574.63354	0.15209
2572.70498	0.15236
2570.77642	0.15266
2568.84785	0.15290
2566.91929	0.15324
2564.99072	0.15371
2563.06216	0.15421
2561.13359	0.15467
2559.20503	0.15518
2557.27646	0.15565
2555.34790	0.15611
2553.41934	0.15669
2551.49077	0.15739
2549.56221	0.15808
2547.63364	0.15877
2545.70508	0.15944
2543.77651	0.15999
2541.84795	0.16051
2539.91938	0.16117
2537.99082	0.16193
2536.06226	0.16259
2534.13369	0.16315
2532.20513	0.16383
2530.27656	0.16465
2528.34800	0.16548
2526.41943	0.16626
2524.49087	0.16694
2522.56230	0.16750
2520.63374	0.16812
2518.70518	0.16895
2516.77661	0.16985
2514.84805	0.17071
2512.91948	0.17158
2510.99092	0.17237
2509.06235	0.17312
2507.13379	0.17381
2505.20522	0.17440
2503.27666	0.17521
2501.34810	0.17628
2499.41953	0.17732
2497.49097	0.17815
2495.56240	0.17890
2493.63384	0.17980
2491.70527	0.18080
2489.77671	0.18172
2487.84814	0.18262
2485.91958	0.18347
2483.99102	0.18423
2482.06245	0.18506
2480.13389	0.18596
2478.20532	0.18688
2476.27676	0.18783
2474.34819	0.18881
2472.41963	0.18971
2470.49106	0.19055
2468.56250	0.19149
2466.63394	0.19252
2464.70537	0.19346
2462.77681	0.19435
2460.84824	0.19531
2458.91968	0.19636
2456.99111	0.19747
2455.06255	0.19857
2453.13398	0.19957
2451.20542	0.20048
2449.27686	0.20140
2447.34829	0.20233
2445.41973	0.20335
2443.49116	0.20447
2441.56260	0.20554
2439.63403	0.20659
2437.70547	0.20765
2435.77690	0.20867
2433.84834	0.20963
2431.91978	0.21058
2429.99121	0.21168
2428.06265	0.21286
2426.13408	0.21388
2424.20552	0.21482
2422.27695	0.21584
2420.34839	0.21702
2418.41982	0.21829
2416.49126	0.21951
2414.56270	0.22067
2412.63413	0.22190
2410.70557	0.22308
2408.77700	0.22416
2406.84844	0.22521
2404.91987	0.22639
2402.99131	0.22770
2401.06274	0.22900
2399.13418	0.23028
2397.20562	0.23156
2395.27705	0.23277
2393.34849	0.23395
2391.41992	0.23534
2389.49136	0.23711
2387.56279	0.23967
2385.63423	0.24390
2383.70566	0.25053
2381.77710	0.25960
2379.84854	0.27078
2377.91997	0.28378
2375.99141	0.29874
2374.06284	0.31612
2372.13428	0.33590
2370.20571	0.35723
2368.27715	0.37899
2366.34858	0.39948
2364.42002	0.41641
2362.49146	0.42935
2360.56289	0.43820
2358.63433	0.43967
2356.70576	0.43156
2354.77720	0.41598
2352.84863	0.39571
2350.92007	0.37423
2348.99150	0.36052
2347.06294	0.36056
2345.13437	0.37485
2343.20581	0.39482
2341.27725	0.40612
2339.34868	0.40778
2337.42012	0.40602
2335.49155	0.40386
2333.56299	0.40169
2331.63442	0.39985
2329.70586	0.39770
2327.77729	0.39435
2325.84873	0.38957
2323.92017	0.38380
2321.99160	0.37736
2320.06304	0.37001
2318.13447	0.36239
2316.20591	0.35596
2314.27734	0.35158
2312.34878	0.34886
2310.42021	0.34647
2308.49165	0.34335
2306.56309	0.33947
2304.63452	0.33573
2302.70596	0.33355
2300.77739	0.33283
2298.84883	0.33220
2296.92026	0.33141
2294.99170	0.33087
2293.06313	0.33046
2291.13457	0.33007
2289.20601	0.32975
2287.27744	0.32935
2285.34888	0.32903
2283.42031	0.32944
2281.49175	0.33104
2279.56318	0.33362
2277.63462	0.33638
2275.70605	0.33894
2273.77749	0.34138
2271.84893	0.34371
2269.92036	0.34578
2267.99180	0.34770
2266.06323	0.34963
2264.13467	0.35144
2262.20610	0.35307
2260.27754	0.35473
2258.34897	0.35649
2256.42041	0.35823
2254.49185	0.35984
2252.56328	0.36138
2250.63472	0.36309
2248.70615	0.36509
2246.77759	0.36721
2244.84902	0.36925
2242.92046	0.37119
2240.99189	0.37320
2239.06333	0.37534
2237.13477	0.37753
2235.20620	0.37972
2233.27764	0.38183
2231.34907	0.38393
2229.42051	0.38619
2227.49194	0.38854
2225.56338	0.39075
2223.63481	0.39283
2221.70625	0.39495
2219.77769	0.39719
2217.84912	0.39942
2215.92056	0.40160
2213.99199	0.40379
2212.06343	0.40601
2210.13486	0.40815
2208.20630	0.41009
2206.27773	0.41200
2204.34917	0.41416
2202.42061	0.41646
2200.49204	0.41865
2198.56348	0.42071
2196.63491	0.42267
2194.70635	0.42455
2192.77778	0.42636
2190.84922	0.42817
2188.92065	0.43004
2186.99209	0.43199
2185.06353	0.43389
2183.13496	0.43562
2181.20640	0.43730
2179.27783	0.43894
2177.34927	0.44046
2175.42070	0.44185
2173.49214	0.44321
2171.56357	0.44473
2169.63501	0.44638
2167.70645	0.44792
2165.77788	0.44918
2163.84932	0.45024
2161.92075	0.45121
2159.99219	0.45219
2158.06362	0.45315
2156.13506	0.45411
2154.20649	0.45512
2152.27793	0.45611
2150.34937	0.45694
2148.42080	0.45751
2146.49224	0.45797
2144.56367	0.45847
2142.63511	0.45894
2140.70654	0.45918
2138.77798	0.45931
2136.84941	0.45943
2134.92085	0.45948
2132.99229	0.45948
2131.06372	0.45943
2129.13516	0.45922
2127.20659	0.45884
2125.27803	0.45830
2123.34946	0.45770
2121.42090	0.45724
2119.49233	0.45684
2117.56377	0.45633
2115.63521	0.45566
2113.70664	0.45484
2111.77808	0.45392
2109.84951	0.45290
2107.92095	0.45176
2105.99238	0.45054
2104.06382	0.44933
2102.13525	0.44807
2100.20669	0.44670
2098.27812	0.44528
2096.34956	0.44384
2094.42100	0.44230
2092.49243	0.44064
2090.56387	0.43890
2088.63530	0.43705
2086.70674	0.43507
2084.77817	0.43309
2082.84961	0.43119
2080.92104	0.42928
2078.99248	0.42736
2077.06392	0.42531
2075.13535	0.42300
2073.20679	0.42054
2071.27822	0.41819
2069.34966	0.41609
2067.42109	0.41401
2065.49253	0.41181
2063.56396	0.40939
2061.63540	0.40677
2059.70684	0.40406
2057.77827	0.40132
2055.84971	0.39873
2053.92114	0.39629
2051.99258	0.39378
2050.06401	0.39114
2048.13545	0.38845
2046.20688	0.38574
2044.27832	0.38314
2042.34976	0.38055
2040.42119	0.37778
2038.49263	0.37491
2036.56406	0.37208
2034.63550	0.36927
2032.70693	0.36644
2030.77837	0.36365
2028.84980	0.36087
2026.92124	0.35809
2024.99268	0.35536
2023.06411	0.35265
2021.13555	0.34986
2019.20698	0.34715
2017.27842	0.34451
2015.34985	0.34161
2013.42129	0.33855
2011.49272	0.33567
2009.56416	0.33301
2007.63560	0.33038
2005.70703	0.32764
2003.77847	0.32487
2001.84990	0.32222
1999.92134	0.31962
1997.99277	0.31701
1996.06421	0.31453
1994.13564	0.31232
1992.20708	0.31014
1990.27852	0.30753
1988.34995	0.30473
1986.42139	0.30210
1984.49282	0.29959
1982.56426	0.29715
1980.63569	0.29485
1978.70713	0.29262
1976.77856	0.29038
1974.85000	0.28819
1972.92144	0.28607
1970.99287	0.28402
1969.06431	0.28210
1967.13574	0.28021
1965.20718	0.27801
1963.27861	0.27564
1961.35005	0.27356
1959.42148	0.27180
1957.49292	0.27014
1955.56436	0.26843
1953.63579	0.26661
1951.70723	0.26475
1949.77866	0.26306
1947.85010	0.26156
1945.92153	0.26023
1943.99297	0.25909
1942.06440	0.25782
1940.13584	0.25609
1938.20728	0.25426
1936.27871	0.25276
1934.35015	0.25148
1932.42158	0.25024
1930.49302	0.24897
1928.56445	0.24780
1926.63589	0.24685
1924.70732	0.24622
1922.77876	0.24560
1920.85020	0.24473
1918.92163	0.24391
1916.99307	0.24292
1915.06450	0.24153
1913.13594	0.24041
1911.20737	0.23995
1909.27881	0.23960
1907.35024	0.23887
1905.42168	0.23790
1903.49312	0.23712
1901.56455	0.23655
1899.63599	0.23609
1897.70742	0.23581
1895.77886	0.23565
1893.85029	0.23539
1891.92173	0.23504
1889.99316	0.23496
1888.06460	0.23473
1886.13604	0.23420
1884.20747	0.23378
1882.27891	0.23353
1880.35034	0.23340
1878.42178	0.23333
1876.49321	0.23331
1874.56465	0.23334
1872.63608	0.23361
1870.70752	0.23437
1868.77896	0.23551
1866.85039	0.23576
1864.92183	0.23507
1862.99326	0.23466
1861.06470	0.23474
1859.13613	0.23505
1857.20757	0.23543
1855.27900	0.23589
1853.35044	0.23633
1851.42187	0.23690
1849.49331	0.23772
1847.56475	0.23872
1845.63618	0.23992
1843.70762	0.24113
1841.77905	0.24156
1839.85049	0.24157
1837.92192	0.24218
1835.99336	0.24307
1834.06479	0.24397
1832.13623	0.24533
1830.20767	0.24746
1828.27910	0.24921
1826.35054	0.25002
1824.42197	0.25097
1822.49341	0.25190
1820.56484	0.25278
1818.63628	0.25398
1816.70771	0.25567
1814.77915	0.25753
1812.85059	0.25959
1810.92202	0.26185
1808.99346	0.26380
1807.06489	0.26550
1805.13633	0.26732
1803.20776	0.26973
1801.27920	0.27267
1799.35063	0.27573
1797.42207	0.27825
1795.49351	0.28070
1793.56494	0.28390
1791.63638	0.28787
1789.70781	0.29088
1787.77925	0.29286
1785.85068	0.29578
1783.92212	0.29957
1781.99355	0.30367
1780.06499	0.30790
1778.13643	0.31212
1776.20786	0.31633
1774.27930	0.32133
1772.35073	0.32792
1770.42217	0.33409
1768.49360	0.33869
1766.56504	0.34331
1764.63647	0.34857
1762.70791	0.35485
1760.77935	0.36259
1758.85078	0.36967
1756.92222	0.37686
1754.99365	0.38456
1753.06509	0.39173
1751.13652	0.40086
1749.20796	0.41209
1747.27939	0.42237
1745.35083	0.43120
1743.42227	0.44085
1741.49370	0.45176
1739.56514	0.46439
1737.63657	0.47684
1735.70801	0.48817
1733.77944	0.50511
1731.85088	0.52435
1729.92231	0.53923
1727.99375	0.55433
1726.06519	0.57098
1724.13662	0.58964
1722.20806	0.60985
1720.27949	0.62891
1718.35093	0.65182
1716.42236	0.68438
1714.49380	0.71424
1712.56523	0.73828
1710.63667	0.76183
1708.70811	0.78766
1706.77954	0.81751
1704.85098	0.85286
1702.92241	0.88441
1700.99385	0.91622
1699.06528	0.96264
1697.13672	1.00475
1695.20815	1.04717
1693.27959	1.08838
1691.35103	1.12249
1689.42246	1.16216
1687.49390	1.20374
1685.56533	1.24461
1683.63677	1.30630
1681.70820	1.36804
1679.77964	1.40749
1677.85107	1.44578
1675.92251	1.49096
1673.99395	1.54667
1672.06538	1.59606
1670.13682	1.64391
1668.20825	1.70425
1666.27969	1.75408
1664.35112	1.79740
1662.42256	1.85118
1660.49399	1.91123
1658.56543	1.95888
1656.63687	1.99788
1654.70830	2.03511
1652.77974	2.09175
1650.85117	2.14153
1648.92261	2.16104
1646.99404	2.18819
1645.06548	2.21670
1643.13691	2.23324
1641.20835	2.24206
1639.27979	2.25049
1637.35122	2.25729
1635.42266	2.25857
1633.49409	2.24904
1631.56553	2.23300
1629.63696	2.21575
1627.70840	2.18935
1625.77983	2.15669
1623.85127	2.11582
1621.92271	2.06812
1619.99414	2.02529
1618.06558	1.98284
1616.13701	1.92285
1614.20845	1.86021
1612.27988	1.81130
1610.35132	1.76079
1608.42275	1.70623
1606.49419	1.65239
1604.56562	1.60273
1602.63706	1.55534
1600.70850	1.50929
1598.77993	1.46625
1596.85137	1.42548
1594.92280	1.38610
1592.99424	1.34829
1591.06567	1.31398
1589.13711	1.28207
1587.20854	1.25209
1585.27998	1.22409
1583.35142	1.19804
1581.42285	1.17444
1579.49429	1.15453
1577.56572	1.13700
1575.63716	1.11512
1573.70859	1.09474
1571.78003	1.08165
1569.85146	1.06880
1567.92290	1.05373
1565.99434	1.04155
1564.06577	1.03248
1562.13721	1.02613
1560.20864	1.02258
1558.28008	1.01721
1556.35151	1.01020
1554.42295	1.00554
1552.49438	1.00147
1550.56582	0.99661
1548.63726	0.98995
1546.70869	0.98239
1544.78013	0.97423
1542.85156	0.96490
1540.92300	0.95205
1538.99443	0.93014
1537.06587	0.91178
1535.13730	0.89997
1533.20874	0.88610
1531.28018	0.87061
1529.35161	0.85872
1527.42305	0.84823
1525.49448	0.83799
1523.56592	0.82941
1521.63735	0.82118
1519.70879	0.81170
1517.78022	0.80284
1515.85166	0.79297
1513.92310	0.78273
1511.99453	0.77445
1510.06597	0.76806
1508.13740	0.76254
1506.20884	0.75208
1504.28027	0.74045
1502.35171	0.73370
1500.42314	0.72871
1498.49458	0.72390
1496.56602	0.71790
1494.63745	0.71130
1492.70889	0.70644
1490.78032	0.70303
1488.85176	0.69885
1486.92319	0.69352
1484.99463	0.68867
1483.06606	0.68498
1481.13750	0.68217
1479.20894	0.67999
1477.28037	0.67858
1475.35181	0.67785
1473.42324	0.67716
1471.49468	0.67472
1469.56611	0.67106
1467.63755	0.66827
1465.70898	0.66643
1463.78042	0.66457
1461.85186	0.66285
1459.92329	0.66241
1457.99473	0.66320
1456.06616	0.66256
1454.13760	0.65941
1452.20903	0.65639
1450.28047	0.65387
1448.35190	0.65165
1446.42334	0.64921
1444.49478	0.64668
1442.56621	0.64451
1440.63765	0.64257
1438.70908	0.64079
1436.78052	0.63879
1434.85195	0.63608
1432.92339	0.63361
1430.99482	0.63210
1429.06626	0.63102
1427.13770	0.62994
1425.20913	0.62940
1423.28057	0.62945
1421.35200	0.62961
1419.42344	0.63000
1417.49487	0.62966
1415.56631	0.62785
1413.63774	0.62617
1411.70918	0.62538
1409.78062	0.62516
1407.85205	0.62521
1405.92349	0.62558
1403.99492	0.62585
1402.06636	0.62545
1400.13779	0.62481
1398.20923	0.62400
1396.28066	0.62244
1394.35210	0.61960
1392.42354	0.61581
1390.49497	0.61235
1388.56641	0.60946
1386.63784	0.60616
1384.70928	0.60232
1382.78071	0.59881
1380.85215	0.59588
1378.92358	0.59340
1376.99502	0.59145
1375.06646	0.59022
1373.13789	0.58908
1371.20933	0.58776
1369.28076	0.58670
1367.35220	0.58561
1365.42363	0.58438
1363.49507	0.58338
1361.56650	0.58216
1359.63794	0.58044
1357.70937	0.57898
1355.78081	0.57791
1353.85225	0.57693
1351.92368	0.57606
1349.99512	0.57541
1348.06655	0.57476
1346.13799	0.57386
1344.20942	0.57293
1342.28086	0.57239
1340.35229	0.57233
1338.42373	0.57186
1336.49517	0.57070
1334.56660	0.56967
1332.63804	0.56908
1330.70947	0.56871
1328.78091	0.56842
1326.85234	0.56834
1324.92378	0.56856
1322.99521	0.56881
1321.06665	0.56899
1319.13809	0.56909
1317.20952	0.56889
1315.28096	0.56850
1313.35239	0.56794
1311.42383	0.56709
1309.49526	0.56614
1307.56670	0.56540
1305.63813	0.56477
1303.70957	0.56406
1301.78101	0.56333
1299.85244	0.56260
1297.92388	0.56182
1295.99531	0.56103
1294.06675	0.56014
1292.13818	0.55904
1290.20962	0.55780
1288.28105	0.55664
1286.35249	0.55554
1284.42393	0.55445
1282.49536	0.55342
1280.56680	0.55251
1278.63823	0.55171
1276.70967	0.55094
1274.78110	0.55018
1272.85254	0.54948
1270.92397	0.54880
1268.99541	0.54816
1267.06685	0.54757
1265.13828	0.54694
1263.20972	0.54628
1261.28115	0.54563
1259.35259	0.54505
1257.42402	0.54458
1255.49546	0.54416
1253.56689	0.54392
1251.63833	0.54393
1249.70977	0.54404
1247.78120	0.54402
1245.85264	0.54374
1243.92407	0.54317
1241.99551	0.54236
1240.06694	0.54143
1238.13838	0.54036
1236.20981	0.53901
1234.28125	0.53742
1232.35269	0.53588
1230.42412	0.53440
1228.49556	0.53294
1226.56699	0.53156
1224.63843	0.53030
1222.70986	0.52920
1220.78130	0.52828
1218.85273	0.52732
1216.92417	0.52624
1214.99561	0.52529
1213.06704	0.52462
1211.13848	0.52398
1209.20991	0.52320
1207.28135	0.52237
1205.35278	0.52152
1203.42422	0.52066
1201.49565	0.51985
1199.56709	0.51920
1197.63853	0.51863
1195.70996	0.51803
1193.78140	0.51750
1191.85283	0.51710
1189.92427	0.51673
1187.99570	0.51637
1186.06714	0.51611
1184.13857	0.51597
1182.21001	0.51608
1180.28145	0.51659
1178.35288	0.51743
1176.42432	0.51833
1174.49575	0.51911
1172.56719	0.51964
1170.63862	0.51986
1168.71006	0.51990
1166.78149	0.51985
1164.85293	0.51982
1162.92437	0.51986
1160.99580	0.51970
1159.06724	0.51917
1157.13867	0.51850
1155.21011	0.51765
1153.28154	0.51625
1151.35298	0.51438
1149.42441	0.51238
1147.49585	0.51033
1145.56729	0.50822
1143.63872	0.50599
1141.71016	0.50374
1139.78159	0.50176
1137.85303	0.50008
1135.92446	0.49863
1133.99590	0.49749
1132.06733	0.49650
1130.13877	0.49547
1128.21021	0.49454
1126.28164	0.49381
1124.35308	0.49301
1122.42451	0.49201
1120.49595	0.49119
1118.56738	0.49073
1116.63882	0.49043
1114.71025	0.49025
1112.78169	0.49033
1110.85312	0.49058
1108.92456	0.49092
1106.99600	0.49145
1105.06743	0.49234
1103.13887	0.49373
1101.21030	0.49568
1099.28174	0.49797
1097.35317	0.50040
1095.42461	0.50324
1093.49604	0.50682
1091.56748	0.51112
1089.63892	0.51603
1087.71035	0.52155
1085.78179	0.52759
1083.85322	0.53409
1081.92466	0.54078
1079.99609	0.54670
1078.06753	0.55067
1076.13896	0.55179
1074.21040	0.54978
1072.28184	0.54519
1070.35327	0.53904
1068.42471	0.53239
1066.49614	0.52583
1064.56758	0.51931
1062.63901	0.51320
1060.71045	0.50814
1058.78188	0.50390
1056.85332	0.49991
1054.92476	0.49633
1052.99619	0.49327
1051.06763	0.49063
1049.13906	0.48849
1047.21050	0.48680
1045.28193	0.48526
1043.35337	0.48384
1041.42480	0.48265
1039.49624	0.48157
1037.56768	0.48075
1035.63911	0.48036
1033.71055	0.47996
1031.78198	0.47945
1029.85342	0.47920
1027.92485	0.47916
1025.99629	0.47911
1024.06772	0.47928
1022.13916	0.47981
1020.21060	0.48057
1018.28203	0.48148
1016.35347	0.48240
1014.42490	0.48316
1012.49634	0.48386
1010.56777	0.48477
1008.63921	0.48614
1006.71064	0.48796
1004.78208	0.48991
1002.85352	0.49190
1000.92495	0.49440
998.99639	0.49768
997.06782	0.50146
995.13926	0.50544
993.21069	0.50935
991.28213	0.51276
989.35356	0.51544
987.42500	0.51717
985.49644	0.51804
983.56787	0.51879
981.63931	0.51990
979.71074	0.52125
977.78218	0.52294
975.85361	0.52518
973.92505	0.52788
971.99648	0.53101
970.06792	0.53455
968.13936	0.53836
966.21079	0.54254
964.28223	0.54711
962.35366	0.55179
960.42510	0.55668
958.49653	0.56208
956.56797	0.56811
954.63940	0.57458
952.71084	0.58129
950.78228	0.58802
948.85371	0.59448
946.92515	0.60063
944.99658	0.60656
943.06802	0.61243
941.13945	0.61831
939.21089	0.62410
937.28232	0.62990
935.35376	0.63582
933.42520	0.64178
931.49663	0.64773
929.56807	0.65370
927.63950	0.65985
925.71094	0.66625
923.78237	0.67272
921.85381	0.67916
919.92524	0.68577
917.99668	0.69265
916.06812	0.69982
914.13955	0.70797
912.21099	0.71735
910.28242	0.72665
908.35386	0.73474
906.42529	0.74197
904.49673	0.74978
902.56816	0.75901
900.63960	0.76898
898.71104	0.77927
896.78247	0.78985
894.85391	0.79998
892.92534	0.80957
890.99678	0.82038
889.06821	0.83298
887.13965	0.84573
885.21108	0.85706
883.28252	0.86644
881.35396	0.87613
879.42539	0.88814
877.49683	0.90071
875.56826	0.91283
873.63970	0.92558
871.71113	0.93838
869.78257	0.94932
867.85400	0.95945
865.92544	0.97053
863.99687	0.98136
862.06831	0.99227
860.13975	1.00466
858.21118	1.01752
856.28262	1.02939
854.35405	1.04093
852.42549	1.05347
850.49692	1.06591
848.56836	1.07739
846.63979	1.08939
844.71123	1.10154
842.78267	1.11313
840.85410	1.12725
838.92554	1.14274
836.99697	1.15484
835.06841	1.16506
833.13984	1.17659
831.21128	1.19091
829.28271	1.20736
827.35415	1.22004
825.42559	1.22689
823.49702	1.23459
821.56846	1.24622
819.63989	1.25737
817.71133	1.26608
815.78276	1.28177
813.85420	1.31335
811.92563	1.35591
809.99707	1.38837
808.06851	1.39018
806.13994	1.38413
804.21138	1.39623
802.28281	1.41164
800.35425	1.42972
798.42568	1.47038
796.49712	1.50037
794.56855	1.49581
792.63999	1.51002
790.71143	1.57257
788.78286	1.67234
786.85430	1.81921
784.92573	2.02868
782.99717	2.00496
781.06860	1.88002
779.14004	1.89011
777.21147	1.86004
775.28291	1.81629
773.35435	1.84474
771.42578	1.87333
769.49722	1.85289
767.56865	1.89440
765.64009	2.18305
763.71152	4.58227
761.78296	4.57070
759.85439	4.55913
757.92583	1.51975
755.99727	1.33849
754.06870	1.29235
752.14014	1.30272
750.21157	1.24553
748.28301	1.17713
746.35444	1.16013
744.42588	1.09077
742.49731	1.01427
740.56875	1.03815
738.64019	1.07881
736.71162	1.01158
734.78306	0.90509
732.85449	0.73353
730.92593	0.57345
728.99736	0.52774
727.06880	0.57124
725.14023	0.48491
723.21167	0.27009
721.28311	0.09338
719.35454	-0.06547
717.42598	-0.29802
715.49741	-0.72498
713.56885	-0.68154
711.64028	-0.24638
709.71172	-0.01088
707.78315	-0.03208
705.85459	-0.05545
703.92603	0.03128
701.99746	0.14017
700.06890	0.21021
698.14033	0.31566
696.21177	0.41705
694.28320	0.31310
692.35464	0.23032
690.42607	0.29079
688.49751	0.32187
686.56895	0.26472
684.64038	0.24755
682.71182	0.30939
680.78325	0.37958
678.85469	0.33935
676.92612	0.25669
674.99756	0.22486
673.06899	0.24923
671.14043	0.31175
669.21187	0.29187
667.28330	0.20114
665.35474	0.20827
663.42617	0.29735
661.49761	0.28768
659.56904	0.15702
657.64048	0.13134
655.71191	0.21623
653.78335	0.27203
651.85479	0.25772
649.92622	0.29278
647.99766	0.37681
646.06909	0.40059
644.14053	0.31827
642.21196	0.23733
640.28340	0.23914
638.35483	0.30746
636.42627	0.41730
634.49771	0.48287
632.56914	0.42148
630.64058	0.33293
628.71201	0.24003
626.78345	0.17002
624.85488	0.19276
622.92632	0.27140
620.99775	0.31042
619.06919	0.32943
617.14062	0.43930
615.21206	0.45767
613.28350	0.30647
611.35493	0.22710
609.42637	0.21113
607.49780	0.22472
605.56924	0.30501
603.64067	0.40264
601.71211	0.33153
599.78354	0.25309
597.85498	0.24079
595.92642	0.26088
593.99785	0.32013
592.06929	0.42304
590.14072	0.37294
588.21216	0.20220
586.28359	0.08444
584.35503	0.06838
582.42646	0.13150
580.49790	0.19804
578.56934	0.26533
576.64077	0.28032
574.71221	0.20105
572.78364	0.11267
570.85508	0.08991
568.92651	0.13898
566.99795	0.18657
565.06938	0.18511
563.14082	0.18781
561.21226	0.24240
559.28369	0.28792
557.35513	0.25537
555.42656	0.21676
553.49800	0.20947
551.56943	0.24122
549.64087	0.25206
547.71230	0.23621
545.78374	0.24632
543.85518	0.23572
541.92661	0.17673
539.99805	0.11925
538.06948	0.11235
536.14092	0.15432
534.21235	0.21849
532.28379	0.28020
530.35522	0.28144
528.42666	0.24335
526.49810	0.24452
524.56953	0.25884
522.64097	0.21518
520.71240	0.17262
518.78384	0.18977
516.85527	0.20420
514.92671	0.16693
512.99814	0.13975
511.06958	0.15900
509.14102	0.17064
507.21245	0.15655
505.28389	0.17273
503.35532	0.20048
501.42676	0.21203
499.49819	0.23783
