3997.91411	0.08031
3995.98555	0.08055
3994.05698	0.08103
3992.12842	0.08151
3990.19985	0.08160
3988.27129	0.08174
3986.34272	0.08233
3984.41416	0.08252
3982.48560	0.08185
3980.55703	0.08152
3978.62847	0.08208
3976.69990	0.08252
3974.77134	0.08272
3972.84277	0.08323
3970.91421	0.08371
3968.98564	0.08404
3967.05708	0.08442
3965.12852	0.08465
3963.19995	0.08456
3961.27139	0.08411
3959.34282	0.08373
3957.41426	0.08378
3955.48569	0.08399
3953.55713	0.08410
3951.62856	0.08430
3949.70000	0.08478
3947.77144	0.08513
3945.84287	0.08502
3943.91431	0.08479
3941.98574	0.08464
3940.05718	0.08406
3938.12861	0.08340
3936.20005	0.08359
3934.27148	0.08440
3932.34292	0.08508
3930.41436	0.08515
3928.48579	0.08478
3926.55723	0.08454
3924.62866	0.08462
3922.70010	0.08467
3920.77153	0.08460
3918.84297	0.08471
3916.91440	0.08476
3914.98584	0.08425
3913.05728	0.08348
3911.12871	0.08314
3909.20015	0.08300
3907.27158	0.08308
3905.34302	0.08399
3903.41445	0.08546
3901.48589	0.08642
3899.55732	0.08638
3897.62876	0.08523
3895.70020	0.08389
3893.77163	0.08379
3891.84307	0.08464
3889.91450	0.08489
3887.98594	0.08440
3886.05737	0.08452
3884.12881	0.08534
3882.20024	0.08593
3880.27168	0.08635
3878.34312	0.08614
3876.41455	0.08536
3874.48599	0.08560
3872.55742	0.08678
3870.62886	0.08746
3868.70029	0.08748
3866.77173	0.08736
3864.84316	0.08809
3862.91460	0.08931
3860.98604	0.08881
3859.05747	0.08739
3857.12891	0.08722
3855.20034	0.08836
3853.27178	0.09049
3851.34321	0.09194
3849.41465	0.09078
3847.48608	0.08936
3845.55752	0.08901
3843.62896	0.08973
3841.70039	0.09119
3839.77183	0.09299
3837.84326	0.09464
3835.91470	0.09523
3833.98613	0.09482
3832.05757	0.09474
3830.12900	0.09488
3828.20044	0.09478
3826.27187	0.09521
3824.34331	0.09625
3822.41475	0.09782
3820.48618	0.10046
3818.55762	0.10196
3816.62905	0.10176
3814.70049	0.10191
3812.77192	0.10196
3810.84336	0.10193
3808.91479	0.10287
3806.98623	0.10507
3805.05767	0.10728
3803.12910	0.10856
3801.20054	0.10989
3799.27197	0.11074
3797.34341	0.11086
3795.41484	0.11130
3793.48628	0.11177
3791.55771	0.11214
3789.62915	0.11274
3787.70059	0.11391
3785.77202	0.11562
3783.84346	0.11730
3781.91489	0.11887
3779.98633	0.12074
3778.05776	0.12263
3776.12920	0.12379
3774.20063	0.12475
3772.27207	0.12635
3770.34351	0.12884
3768.41494	0.13139
3766.48638	0.13296
3764.55781	0.13445
3762.62925	0.13605
3760.70068	0.13792
3758.77212	0.14103
3756.84355	0.14431
3754.91499	0.14630
3752.98643	0.14865
3751.05786	0.15358
3749.12930	0.15944
3747.20073	0.16181
3745.27217	0.16334
3743.34360	0.16708
3741.41504	0.17032
3739.48647	0.17243
3737.55791	0.17560
3735.62935	0.18080
3733.70078	0.18765
3731.77222	0.19309
3729.84365	0.19627
3727.91509	0.19953
3725.98652	0.20471
3724.05796	0.21128
3722.12939	0.21765
3720.20083	0.22360
3718.27227	0.22951
3716.34370	0.23591
3714.41514	0.24322
3712.48657	0.25308
3710.55801	0.26694
3708.62944	0.28095
3706.70088	0.29209
3704.77231	0.30291
3702.84375	0.31573
3700.91519	0.33173
3698.98662	0.34899
3697.05806	0.36606
3695.12949	0.38438
3693.20093	0.40354
3691.27236	0.42445
3689.34380	0.45145
3687.41523	0.48405
3685.48667	0.51290
3683.55811	0.53827
3681.62954	0.56592
3679.70098	0.59748
3677.77241	0.63113
3675.84385	0.67077
3673.91528	0.72189
3671.98672	0.76333
3670.05815	0.80103
3668.12959	0.85213
3666.20103	0.89862
3664.27246	0.93831
3662.34390	0.98162
3660.41533	1.02801
3658.48677	1.07334
3656.55820	1.12211
3654.62964	1.17657
3652.70107	1.22253
3650.77251	1.26343
3648.84395	1.31890
3646.91538	1.38376
3644.98682	1.43141
3643.05825	1.46922
3641.12969	1.50871
3639.20112	1.55254
3637.27256	1.59701
3635.34399	1.64026
3633.41543	1.68306
3631.48687	1.72328
3629.55830	1.76402
3627.62974	1.81541
3625.70117	1.86301
3623.77261	1.89675
3621.84404	1.93019
3619.91548	1.96840
3617.98691	2.01288
3616.05835	2.05461
3614.12979	2.09027
3612.20122	2.12904
3610.27266	2.16864
3608.34409	2.20843
3606.41553	2.25094
3604.48696	2.29115
3602.55840	2.32716
3600.62983	2.36518
3598.70127	2.40590
3596.77271	2.44561
3594.84414	2.48614
3592.91558	2.52818
3590.98701	2.56743
3589.05845	2.60298
3587.12988	2.64465
3585.20132	2.69245
3583.27275	2.73374
3581.34419	2.77010
3579.41562	2.80958
3577.48706	2.85334
3575.55850	2.89661
3573.62993	2.93858
3571.70137	2.97994
3569.77280	3.02049
3567.84424	3.06309
3565.91567	3.11459
3563.98711	3.16562
3562.05854	3.20797
3560.12998	3.24888
3558.20142	3.29215
3556.27285	3.33812
3554.34429	3.38402
3552.41572	3.43034
3550.48716	3.47741
3548.55859	3.52339
3546.63003	3.56960
3544.70146	3.61861
3542.77290	3.66722
3540.84434	3.71273
3538.91577	3.75773
3536.98721	3.80326
3535.05864	3.85100
3533.13008	3.90027
3531.20151	3.94830
3529.27295	3.99507
3527.34438	4.04391
3525.41582	4.09249
3523.48726	4.14063
3521.55869	4.19471
3519.63013	4.24872
3517.70156	4.29401
3515.77300	4.33368
3513.84443	4.37884
3511.91587	4.43237
3509.98730	4.48438
3508.05874	4.53049
3506.13018	4.57861
3504.20161	4.62943
3502.27305	4.67509
3500.34448	4.71741
3498.41592	4.76384
3496.48735	4.81362
3494.55879	4.86272
3492.63022	4.91400
3490.70166	4.96570
3488.77310	5.01419
3486.84453	5.06368
3484.91597	5.11196
3482.98740	5.15933
3481.05884	5.20984
3479.13027	5.25985
3477.20171	5.31076
3475.27314	5.36373
3473.34458	5.41445
3471.41602	5.45897
3469.48745	5.50196
3467.55889	5.54885
3465.63032	5.59418
3463.70176	5.64138
3461.77319	5.68911
3459.84463	5.73264
3457.91606	5.78582
3455.98750	5.85956
3454.05894	5.93684
3452.13037	5.99016
3450.20181	6.02503
3448.27324	6.06687
3446.34468	6.12277
3444.41611	6.17624
3442.48755	6.21528
3440.55898	6.24196
3438.63042	6.26979
3436.70186	6.31697
3434.77329	6.39370
3432.84473	6.47627
3430.91616	6.53591
3428.98760	6.59420
3427.05903	6.65627
3425.13047	6.71005
3423.20190	6.76461
3421.27334	6.81380
3419.34478	6.83297
3417.41621	6.84618
3415.48765	6.88482
3413.55908	6.93526
3411.63052	7.00032
3409.70195	7.07233
3407.77339	7.13138
3405.84482	7.17554
3403.91626	7.21813
3401.98770	7.24573
3400.05913	7.26600
3398.13057	7.31099
3396.20200	7.35196
3394.27344	7.39957
3392.34487	7.46907
3390.41631	7.51734
3388.48774	7.53874
3386.55918	7.56439
3384.63062	7.58279
3382.70205	7.59373
3380.77349	7.61920
3378.84492	7.66308
3376.91636	7.71976
3374.98779	7.75747
3373.05923	7.78008
3371.13066	7.78521
3369.20210	7.79594
3367.27354	7.83806
3365.34497	7.87367
3363.41641	7.90914
3361.48784	7.98621
3359.55928	8.06354
3357.63071	8.04817
3355.70215	7.98723
3353.77358	7.96279
3351.84502	7.97945
3349.91646	7.99764
3347.98789	8.02044
3346.05933	8.07884
3344.13076	8.12373
3342.20220	8.11935
3340.27363	8.10463
3338.34507	8.12201
3336.41650	8.17021
3334.48794	8.22408
3332.55937	8.22976
3330.63081	8.21596
3328.70225	8.23144
3326.77368	8.22773
3324.84512	8.21255
3322.91655	8.20853
3320.98799	8.17845
3319.05942	8.14441
3317.13086	8.15896
3315.20229	8.19554
3313.27373	8.23030
3311.34517	8.21908
3309.41660	8.16665
3307.48804	8.19652
3305.55947	8.28464
3303.63091	8.30194
3301.70234	8.29001
3299.77378	8.30105
3297.84521	8.28296
3295.91665	8.28997
3293.98809	8.32971
3292.05952	8.34338
3290.13096	8.38578
3288.20239	8.45073
3286.27383	8.45555
3284.34526	8.37900
3282.41670	8.29021
3280.48813	8.27747
3278.55957	8.35158
3276.63101	8.43342
3274.70244	8.45916
3272.77388	8.45033
3270.84531	8.44976
3268.91675	8.44424
3266.98818	8.43644
3265.05962	8.49275
3263.13105	8.56242
3261.20249	8.50845
3259.27393	8.42126
3257.34536	8.45576
3255.41680	8.55146
3253.48823	8.65007
3251.55967	8.66603
3249.63110	8.48293
3247.70254	8.32169
3245.77397	8.31040
3243.84541	8.34761
3241.91685	8.40331
3239.98828	8.49607
3238.05972	8.52549
3236.13115	8.45385
3234.20259	8.36295
3232.27402	8.32744
3230.34546	8.35278
3228.41689	8.34031
3226.48833	8.34039
3224.55977	8.41869
3222.63120	8.40502
3220.70264	8.26469
3218.77407	8.12655
3216.84551	8.01588
3214.91694	7.94356
3212.98838	7.92528
3211.05981	7.97016
3209.13125	8.05541
3207.20269	8.11709
3205.27412	8.12047
3203.34556	8.06877
3201.41699	8.01787
3199.48843	7.99940
3197.55986	7.97180
3195.63130	7.94850
3193.70273	7.98293
3191.77417	7.98692
3189.84561	7.86938
3187.91704	7.74248
3185.98848	7.66844
3184.05991	7.58937
3182.13135	7.52023
3180.20278	7.51009
3178.27422	7.48515
3176.34565	7.40210
3174.41709	7.32653
3172.48853	7.23931
3170.55996	7.12742
3168.63140	7.05389
3166.70283	7.00991
3164.77427	6.95195
3162.84570	6.89752
3160.91714	6.85643
3158.98857	6.79736
3157.06001	6.71810
3155.13145	6.64972
3153.20288	6.57972
3151.27432	6.48614
3149.34575	6.39767
3147.41719	6.32501
3145.48862	6.25506
3143.56006	6.19619
3141.63149	6.13916
3139.70293	6.06719
3137.77437	6.00394
3135.84580	5.95425
3133.91724	5.88492
3131.98867	5.79594
3130.06011	5.72105
3128.13154	5.66387
3126.20298	5.59540
3124.27441	5.51190
3122.34585	5.43800
3120.41729	5.37443
3118.48872	5.30043
3116.56016	5.21913
3114.63159	5.14628
3112.70303	5.07858
3110.77446	5.00928
3108.84590	4.94279
3106.91733	4.87974
3104.98877	4.81234
3103.06021	4.73719
3101.13164	4.65932
3099.20308	4.58728
3097.27451	4.52380
3095.34595	4.46286
3093.41738	4.39556
3091.48882	4.32135
3089.56025	4.25040
3087.63169	4.18744
3085.70312	4.12811
3083.77456	4.06855
3081.84600	4.00829
3079.91743	3.94696
3077.98887	3.88420
3076.06030	3.82122
3074.13174	3.75962
3072.20317	3.70124
3070.27461	3.64560
3068.34604	3.58917
3066.41748	3.52986
3064.48892	3.46923
3062.56035	3.41098
3060.63179	3.35688
3058.70322	3.30404
3056.77466	3.24944
3054.84609	3.19331
3052.91753	3.13793
3050.98896	3.08595
3049.06040	3.03640
3047.13184	2.98656
3045.20327	2.93682
3043.27471	2.88782
3041.34614	2.83862
3039.41758	2.78957
3037.48901	2.74159
3035.56045	2.69457
3033.63188	2.64851
3031.70332	2.60318
3029.77476	2.55831
3027.84619	2.51434
3025.91763	2.47101
3023.98906	2.42792
3022.06050	2.38565
3020.13193	2.34405
3018.20337	2.30227
3016.27480	2.26097
3014.34624	2.22122
3012.41768	2.18223
3010.48911	2.14369
3008.56055	2.10662
3006.63198	2.07000
3004.70342	2.03265
3002.77485	1.99622
3000.84629	1.96157
2998.91772	1.92759
2996.98916	1.89412
2995.06060	1.86181
2993.13203	1.83032
2991.20347	1.79929
2989.27490	1.76908
2987.34634	1.73925
2985.41777	1.70954
2983.48921	1.68061
2981.56064	1.65189
2979.63208	1.62299
2977.70352	1.59510
2975.77495	1.56876
2973.84639	1.54324
2971.91782	1.51844
2969.98926	1.49458
2968.06069	1.47064
2966.13213	1.44574
2964.20356	1.42056
2962.27500	1.39661
2960.34644	1.37367
2958.41787	1.35015
2956.48931	1.32583
2954.56074	1.30147
2952.63218	1.27752
2950.70361	1.25434
2948.77505	1.23199
2946.84648	1.21022
2944.91792	1.18874
2942.98936	1.16720
2941.06079	1.14613
2939.13223	1.12610
2937.20366	1.10634
2935.27510	1.08629
2933.34653	1.06660
2931.41797	1.04786
2929.48940	1.02975
2927.56084	1.01142
2925.63228	0.99272
2923.70371	0.97409
2921.77515	0.95611
2919.84658	0.93943
2917.91802	0.92329
2915.98945	0.90633
2914.06089	0.88906
2912.13232	0.87254
2910.20376	0.85661
2908.27520	0.84100
2906.34663	0.82568
2904.41807	0.81079
2902.48950	0.79655
2900.56094	0.78255
2898.63237	0.76874
2896.70381	0.75555
2894.77524	0.74299
2892.84668	0.73095
2890.91812	0.71915
2888.98955	0.70740
2887.06099	0.69601
2885.13242	0.68491
2883.20386	0.67406
2881.27529	0.66385
2879.34673	0.65433
2877.41816	0.64514
2875.48960	0.63562
2873.56104	0.62542
2871.63247	0.61484
2869.70391	0.60409
2867.77534	0.59314
2865.84678	0.58210
2863.91821	0.57110
2861.98965	0.56015
2860.06108	0.54949
2858.13252	0.53968
2856.20396	0.53066
2854.27539	0.52197
2852.34683	0.51345
2850.41826	0.50503
2848.48970	0.49667
2846.56113	0.48852
2844.63257	0.48074
2842.70400	0.47349
2840.77544	0.46670
2838.84687	0.46023
2836.91831	0.45404
2834.98975	0.44807
2833.06118	0.44213
2831.13262	0.43601
2829.20405	0.42982
2827.27549	0.42362
2825.34692	0.41747
2823.41836	0.41151
2821.48979	0.40586
2819.56123	0.40036
2817.63267	0.39471
2815.70410	0.38889
2813.77554	0.38316
2811.84697	0.37766
2809.91841	0.37238
2807.98984	0.36735
2806.06128	0.36248
2804.13271	0.35749
2802.20415	0.35237
2800.27559	0.34736
2798.34702	0.34261
2796.41846	0.33809
2794.48989	0.33367
2792.56133	0.32922
2790.63276	0.32477
2788.70420	0.32034
2786.77563	0.31584
2784.84707	0.31145
2782.91851	0.30732
2780.98994	0.30334
2779.06138	0.29946
2777.13281	0.29556
2775.20425	0.29168
2773.27568	0.28809
2771.34712	0.28474
2769.41855	0.28145
2767.48999	0.27807
2765.56143	0.27456
2763.63286	0.27105
2761.70430	0.26765
2759.77573	0.26433
2757.84717	0.26102
2755.91860	0.25766
2753.99004	0.25443
2752.06147	0.25147
2750.13291	0.24853
2748.20435	0.24554
2746.27578	0.24285
2744.34722	0.24044
2742.41865	0.23805
2740.49009	0.23562
2738.56152	0.23313
2736.63296	0.23054
2734.70439	0.22788
2732.77583	0.22540
2730.84727	0.22326
2728.91870	0.22122
2726.99014	0.21898
2725.06157	0.21660
2723.13301	0.21442
2721.20444	0.21254
2719.27588	0.21061
2717.34731	0.20863
2715.41875	0.20674
2713.49019	0.20495
2711.56162	0.20321
2709.63306	0.20147
2707.70449	0.19968
2705.77593	0.19795
2703.84736	0.19640
2701.91880	0.19502
2699.99023	0.19368
2698.06167	0.19234
2696.13311	0.19094
2694.20454	0.18937
2692.27598	0.18779
2690.34741	0.18644
2688.41885	0.18544
2686.49028	0.18453
2684.56172	0.18340
2682.63315	0.18199
2680.70459	0.18057
2678.77603	0.17937
2676.84746	0.17832
2674.91890	0.17736
2672.99033	0.17641
2671.06177	0.17549
2669.13320	0.17461
2667.20464	0.17371
2665.27607	0.17279
2663.34751	0.17178
2661.41895	0.17070
2659.49038	0.16985
2657.56182	0.16928
2655.63325	0.16874
2653.70469	0.16808
2651.77612	0.16733
2649.84756	0.16662
2647.91899	0.16609
2645.99043	0.16566
2644.06187	0.16515
2642.13330	0.16457
2640.20474	0.16399
2638.27617	0.16347
2636.34761	0.16301
2634.41904	0.16254
2632.49048	0.16206
2630.56191	0.16168
2628.63335	0.16141
2626.70479	0.16126
2624.77622	0.16104
2622.84766	0.16054
2620.91909	0.15997
2618.99053	0.15965
2617.06196	0.15957
2615.13340	0.15943
2613.20483	0.15915
2611.27627	0.15903
2609.34771	0.15920
2607.41914	0.15940
2605.49058	0.15948
2603.56201	0.15945
2601.63345	0.15945
2599.70488	0.15950
2597.77632	0.15942
2595.84775	0.15917
2593.91919	0.15904
2591.99062	0.15924
2590.06206	0.15952
2588.13350	0.15971
2586.20493	0.15984
2584.27637	0.15984
2582.34780	0.15990
2580.41924	0.16021
2578.49067	0.16053
2576.56211	0.16085
2574.63354	0.16133
2572.70498	0.16175
2570.77642	0.16198
2568.84785	0.16229
2566.91929	0.16272
2564.99072	0.16308
2563.06216	0.16342
2561.13359	0.16387
2559.20503	0.16442
2557.27646	0.16490
2555.34790	0.16533
2553.41934	0.16580
2551.49077	0.16636
2549.56221	0.16698
2547.63364	0.16758
2545.70508	0.16814
2543.77651	0.16867
2541.84795	0.16921
2539.91938	0.16981
2537.99082	0.17043
2536.06226	0.17102
2534.13369	0.17163
2532.20513	0.17226
2530.27656	0.17295
2528.34800	0.17374
2526.41943	0.17454
2524.49087	0.17519
2522.56230	0.17574
2520.63374	0.17640
2518.70518	0.17731
2516.77661	0.17835
2514.84805	0.17932
2512.91948	0.18012
2510.99092	0.18073
2509.06235	0.18131
2507.13379	0.18208
2505.20522	0.18292
2503.27666	0.18364
2501.34810	0.18435
2499.41953	0.18519
2497.49097	0.18611
2495.56240	0.18703
2493.63384	0.18793
2491.70527	0.18874
2489.77671	0.18945
2487.84814	0.19018
2485.91958	0.19105
2483.99102	0.19207
2482.06245	0.19313
2480.13389	0.19399
2478.20532	0.19469
2476.27676	0.19552
2474.34819	0.19649
2472.41963	0.19744
2470.49106	0.19829
2468.56250	0.19911
2466.63394	0.20001
2464.70537	0.20099
2462.77681	0.20190
2460.84824	0.20272
2458.91968	0.20353
2456.99111	0.20447
2455.06255	0.20551
2453.13398	0.20644
2451.20542	0.20733
2449.27686	0.20846
2447.34829	0.20979
2445.41973	0.21099
2443.49116	0.21187
2441.56260	0.21251
2439.63403	0.21328
2437.70547	0.21440
2435.77690	0.21558
2433.84834	0.21649
2431.91978	0.21737
2429.99121	0.21852
2428.06265	0.21977
2426.13408	0.22094
2424.20552	0.22204
2422.27695	0.22309
2420.34839	0.22411
2418.41982	0.22511
2416.49126	0.22613
2414.56270	0.22728
2412.63413	0.22851
2410.70557	0.22970
2408.77700	0.23087
2406.84844	0.23208
2404.91987	0.23333
2402.99131	0.23454
2401.06274	0.23565
2399.13418	0.23676
2397.20562	0.23795
2395.27705	0.23920
2393.34849	0.24057
2391.41992	0.24198
2389.49136	0.24336
2387.56279	0.24487
2385.63423	0.24674
2383.70566	0.24915
2381.77710	0.25214
2379.84854	0.25573
2377.91997	0.25985
2375.99141	0.26433
2374.06284	0.26939
2372.13428	0.27545
2370.20571	0.28210
2368.27715	0.28818
2366.34858	0.29391
2364.42002	0.29989
2362.49146	0.30458
2360.56289	0.30693
2358.63433	0.30852
2356.70576	0.30923
2354.77720	0.30665
2352.84863	0.30181
2350.92007	0.29741
2348.99150	0.29506
2347.06294	0.29570
2345.13437	0.30002
2343.20581	0.30616
2341.27725	0.30999
2339.34868	0.31178
2337.42012	0.31359
2335.49155	0.31518
2333.56299	0.31567
2331.63442	0.31579
2329.70586	0.31624
2327.77729	0.31661
2325.84873	0.31638
2323.92017	0.31595
2321.99160	0.31570
2320.06304	0.31527
2318.13447	0.31467
2316.20591	0.31454
2314.27734	0.31495
2312.34878	0.31551
2310.42021	0.31630
2308.49165	0.31727
2306.56309	0.31798
2304.63452	0.31844
2302.70596	0.31908
2300.77739	0.31995
2298.84883	0.32099
2296.92026	0.32234
2294.99170	0.32391
2293.06313	0.32538
2291.13457	0.32674
2289.20601	0.32820
2287.27744	0.32968
2285.34888	0.33109
2283.42031	0.33266
2281.49175	0.33464
2279.56318	0.33698
2277.63462	0.33925
2275.70605	0.34123
2273.77749	0.34313
2271.84893	0.34522
2269.92036	0.34736
2267.99180	0.34940
2266.06323	0.35143
2264.13467	0.35351
2262.20610	0.35558
2260.27754	0.35762
2258.34897	0.35968
2256.42041	0.36174
2254.49185	0.36378
2252.56328	0.36577
2250.63472	0.36780
2248.70615	0.37001
2246.77759	0.37231
2244.84902	0.37450
2242.92046	0.37657
2240.99189	0.37867
2239.06333	0.38088
2237.13477	0.38312
2235.20620	0.38529
2233.27764	0.38748
2231.34907	0.38971
2229.42051	0.39196
2227.49194	0.39420
2225.56338	0.39640
2223.63481	0.39857
2221.70625	0.40072
2219.77769	0.40292
2217.84912	0.40527
2215.92056	0.40759
2213.99199	0.40970
2212.06343	0.41166
2210.13486	0.41365
2208.20630	0.41579
2206.27773	0.41801
2204.34917	0.42013
2202.42061	0.42206
2200.49204	0.42393
2198.56348	0.42588
2196.63491	0.42792
2194.70635	0.42996
2192.77778	0.43186
2190.84922	0.43374
2188.92065	0.43570
2186.99209	0.43766
2185.06353	0.43939
2183.13496	0.44094
2181.20640	0.44259
2179.27783	0.44426
2177.34927	0.44586
2175.42070	0.44749
2173.49214	0.44908
2171.56357	0.45049
2169.63501	0.45190
2167.70645	0.45337
2165.77788	0.45463
2163.84932	0.45561
2161.92075	0.45649
2159.99219	0.45741
2158.06362	0.45837
2156.13506	0.45934
2154.20649	0.46028
2152.27793	0.46115
2150.34937	0.46191
2148.42080	0.46248
2146.49224	0.46296
2144.56367	0.46345
2142.63511	0.46385
2140.70654	0.46406
2138.77798	0.46417
2136.84941	0.46425
2134.92085	0.46424
2132.99229	0.46414
2131.06372	0.46398
2129.13516	0.46370
2127.20659	0.46344
2125.27803	0.46329
2123.34946	0.46299
2121.42090	0.46245
2119.49233	0.46177
2117.56377	0.46098
2115.63521	0.46013
2113.70664	0.45931
2111.77808	0.45850
2109.84951	0.45750
2107.92095	0.45628
2105.99238	0.45503
2104.06382	0.45381
2102.13525	0.45254
2100.20669	0.45120
2098.27812	0.44985
2096.34956	0.44841
2094.42100	0.44671
2092.49243	0.44489
2090.56387	0.44324
2088.63530	0.44161
2086.70674	0.43972
2084.77817	0.43770
2082.84961	0.43572
2080.92104	0.43366
2078.99248	0.43157
2077.06392	0.42945
2075.13535	0.42718
2073.20679	0.42483
2071.27822	0.42254
2069.34966	0.42029
2067.42109	0.41805
2065.49253	0.41577
2063.56396	0.41328
2061.63540	0.41064
2059.70684	0.40795
2057.77827	0.40535
2055.84971	0.40298
2053.92114	0.40059
2051.99258	0.39793
2050.06401	0.39517
2048.13545	0.39254
2046.20688	0.38993
2044.27832	0.38723
2042.34976	0.38442
2040.42119	0.38150
2038.49263	0.37859
2036.56406	0.37582
2034.63550	0.37317
2032.70693	0.37042
2030.77837	0.36759
2028.84980	0.36480
2026.92124	0.36204
2024.99268	0.35921
2023.06411	0.35635
2021.13555	0.35362
2019.20698	0.35103
2017.27842	0.34837
2015.34985	0.34547
2013.42129	0.34246
2011.49272	0.33955
2009.56416	0.33688
2007.63560	0.33433
2005.70703	0.33166
2003.77847	0.32892
2001.84990	0.32634
1999.92134	0.32380
1997.99277	0.32120
1996.06421	0.31867
1994.13564	0.31621
1992.20708	0.31367
1990.27852	0.31099
1988.34995	0.30841
1986.42139	0.30593
1984.49282	0.30348
1982.56426	0.30112
1980.63569	0.29887
1978.70713	0.29661
1976.77856	0.29432
1974.85000	0.29213
1972.92144	0.29009
1970.99287	0.28812
1969.06431	0.28609
1967.13574	0.28397
1965.20718	0.28180
1963.27861	0.27976
1961.35005	0.27786
1959.42148	0.27602
1957.49292	0.27423
1955.56436	0.27243
1953.63579	0.27064
1951.70723	0.26893
1949.77866	0.26732
1947.85010	0.26579
1945.92153	0.26430
1943.99297	0.26284
1942.06440	0.26135
1940.13584	0.25981
1938.20728	0.25835
1936.27871	0.25696
1934.35015	0.25560
1932.42158	0.25435
1930.49302	0.25317
1928.56445	0.25204
1926.63589	0.25103
1924.70732	0.25022
1922.77876	0.24945
1920.85020	0.24847
1918.92163	0.24754
1916.99307	0.24676
1915.06450	0.24584
1913.13594	0.24487
1911.20737	0.24415
1909.27881	0.24356
1907.35024	0.24290
1905.42168	0.24214
1903.49312	0.24152
1901.56455	0.24102
1899.63599	0.24047
1897.70742	0.24005
1895.77886	0.23982
1893.85029	0.23956
1891.92173	0.23916
1889.99316	0.23885
1888.06460	0.23860
1886.13604	0.23825
1884.20747	0.23794
1882.27891	0.23777
1880.35034	0.23768
1878.42178	0.23759
1876.49321	0.23763
1874.56465	0.23774
1872.63608	0.23787
1870.70752	0.23811
1868.77896	0.23864
1866.85039	0.23895
1864.92183	0.23877
1862.99326	0.23866
1861.06470	0.23890
1859.13613	0.23936
1857.20757	0.23977
1855.27900	0.24022
1853.35044	0.24072
1851.42187	0.24128
1849.49331	0.24193
1847.56475	0.24269
1845.63618	0.24363
1843.70762	0.24466
1841.77905	0.24529
1839.85049	0.24560
1837.92192	0.24634
1835.99336	0.24729
1834.06479	0.24824
1832.13623	0.24930
1830.20767	0.25082
1828.27910	0.25236
1826.35054	0.25334
1824.42197	0.25438
1822.49341	0.25553
1820.56484	0.25678
1818.63628	0.25827
1816.70771	0.26001
1814.77915	0.26163
1812.85059	0.26336
1810.92202	0.26551
1808.99346	0.26761
1807.06489	0.26943
1805.13633	0.27130
1803.20776	0.27358
1801.27920	0.27621
1799.35063	0.27917
1797.42207	0.28179
1795.49351	0.28413
1793.56494	0.28697
1791.63638	0.29065
1789.70781	0.29394
1787.77925	0.29650
1785.85068	0.29977
1783.92212	0.30356
1781.99355	0.30747
1780.06499	0.31159
1778.13643	0.31580
1776.20786	0.31971
1774.27930	0.32395
1772.35073	0.32979
1770.42217	0.33622
1768.49360	0.34162
1766.56504	0.34665
1764.63647	0.35186
1762.70791	0.35775
1760.77935	0.36514
1758.85078	0.37208
1756.92222	0.37918
1754.99365	0.38698
1753.06509	0.39421
1751.13652	0.40291
1749.20796	0.41360
1747.27939	0.42397
1745.35083	0.43324
1743.42227	0.44304
1741.49370	0.45377
1739.56514	0.46639
1737.63657	0.47903
1735.70801	0.49030
1733.77944	0.50699
1731.85088	0.52646
1729.92231	0.54179
1727.99375	0.55720
1726.06519	0.57383
1724.13662	0.59208
1722.20806	0.61189
1720.27949	0.63058
1718.35093	0.65257
1716.42236	0.68405
1714.49380	0.71392
1712.56523	0.73868
1710.63667	0.76281
1708.70811	0.78872
1706.77954	0.81816
1704.85098	0.85308
1702.92241	0.88454
1700.99385	0.91627
1699.06528	0.96240
1697.13672	1.00446
1695.20815	1.04800
1693.27959	1.09115
1691.35103	1.12652
1689.42246	1.16724
1687.49390	1.21033
1685.56533	1.25227
1683.63677	1.31479
1681.70820	1.37911
1679.77964	1.42156
1677.85107	1.46202
1675.92251	1.50867
1673.99395	1.56610
1672.06538	1.61749
1670.13682	1.66868
1668.20825	1.73446
1666.27969	1.78799
1664.35112	1.83420
1662.42256	1.89302
1660.49399	1.95900
1658.56543	2.01065
1656.63687	2.05268
1654.70830	2.09149
1652.77974	2.14760
1650.85117	2.19865
1648.92261	2.21841
1646.99404	2.24275
1645.06548	2.26875
1643.13691	2.28536
1641.20835	2.29377
1639.27979	2.30212
1637.35122	2.30935
1635.42266	2.30803
1633.49409	2.29558
1631.56553	2.27997
1629.63696	2.26241
1627.70840	2.23372
1625.77983	2.19930
1623.85127	2.15580
1621.92271	2.10374
1619.99414	2.05844
1618.06558	2.01500
1616.13701	1.95271
1614.20845	1.88760
1612.27988	1.83744
1610.35132	1.78572
1608.42275	1.72953
1606.49419	1.67442
1604.56562	1.62447
1602.63706	1.57692
1600.70850	1.53032
1598.77993	1.48694
1596.85137	1.44664
1594.92280	1.40818
1592.99424	1.37045
1591.06567	1.33522
1589.13711	1.30259
1587.20854	1.27258
1585.27998	1.24495
1583.35142	1.21931
1581.42285	1.19636
1579.49429	1.17708
1577.56572	1.15973
1575.63716	1.13902
1573.70859	1.12086
1571.78003	1.10914
1569.85146	1.09782
1567.92290	1.08565
1565.99434	1.07636
1564.06577	1.06952
1562.13721	1.06474
1560.20864	1.06305
1558.28008	1.06455
1556.35151	1.06517
1554.42295	1.06436
1552.49438	1.06366
1550.56582	1.06184
1548.63726	1.05770
1546.70869	1.05128
1544.78013	1.04239
1542.85156	1.03100
1540.92300	1.01482
1538.99443	0.98930
1537.06587	0.96915
1535.13730	0.95507
1533.20874	0.93732
1531.28018	0.91838
1529.35161	0.90410
1527.42305	0.89084
1525.49448	0.87761
1523.56592	0.86651
1521.63735	0.85581
1519.70879	0.84467
1517.78022	0.83517
1515.85166	0.82449
1513.92310	0.81315
1511.99453	0.80320
1510.06597	0.79418
1508.13740	0.78534
1506.20884	0.77226
1504.28027	0.76055
1502.35171	0.75369
1500.42314	0.74780
1498.49458	0.74176
1496.56602	0.73489
1494.63745	0.72784
1492.70889	0.72236
1490.78032	0.71795
1488.85176	0.71287
1486.92319	0.70738
1484.99463	0.70285
1483.06606	0.69955
1481.13750	0.69702
1479.20894	0.69501
1477.28037	0.69376
1475.35181	0.69330
1473.42324	0.69324
1471.49468	0.69230
1469.56611	0.69014
1467.63755	0.68787
1465.70898	0.68602
1463.78042	0.68436
1461.85186	0.68306
1459.92329	0.68267
1457.99473	0.68309
1456.06616	0.68255
1454.13760	0.67996
1452.20903	0.67716
1450.28047	0.67460
1448.35190	0.67212
1446.42334	0.66941
1444.49478	0.66662
1442.56621	0.66398
1440.63765	0.66133
1438.70908	0.65856
1436.78052	0.65536
1434.85195	0.65189
1432.92339	0.64902
1430.99482	0.64696
1429.06626	0.64565
1427.13770	0.64512
1425.20913	0.64524
1423.28057	0.64565
1421.35200	0.64594
1419.42344	0.64627
1417.49487	0.64607
1415.56631	0.64478
1413.63774	0.64366
1411.70918	0.64333
1409.78062	0.64380
1407.85205	0.64485
1405.92349	0.64612
1403.99492	0.64695
1402.06636	0.64690
1400.13779	0.64634
1398.20923	0.64527
1396.28066	0.64321
1394.35210	0.63994
1392.42354	0.63588
1390.49497	0.63203
1388.56641	0.62852
1386.63784	0.62446
1384.70928	0.61969
1382.78071	0.61510
1380.85215	0.61103
1378.92358	0.60760
1376.99502	0.60493
1375.06646	0.60308
1373.13789	0.60168
1371.20933	0.60039
1369.28076	0.59920
1367.35220	0.59795
1365.42363	0.59654
1363.49507	0.59523
1361.56650	0.59408
1359.63794	0.59274
1357.70937	0.59129
1355.78081	0.58994
1353.85225	0.58878
1351.92368	0.58792
1349.99512	0.58728
1348.06655	0.58660
1346.13799	0.58587
1344.20942	0.58521
1342.28086	0.58454
1340.35229	0.58384
1338.42373	0.58314
1336.49517	0.58238
1334.56660	0.58177
1332.63804	0.58159
1330.70947	0.58178
1328.78091	0.58204
1326.85234	0.58226
1324.92378	0.58249
1322.99521	0.58289
1321.06665	0.58337
1319.13809	0.58383
1317.20952	0.58419
1315.28096	0.58420
1313.35239	0.58383
1311.42383	0.58326
1309.49526	0.58259
1307.56670	0.58191
1305.63813	0.58135
1303.70957	0.58083
1301.78101	0.58034
1299.85244	0.57967
1297.92388	0.57865
1295.99531	0.57746
1294.06675	0.57626
1292.13818	0.57510
1290.20962	0.57406
1288.28105	0.57300
1286.35249	0.57176
1284.42393	0.57062
1282.49536	0.56957
1280.56680	0.56841
1278.63823	0.56714
1276.70967	0.56589
1274.78110	0.56482
1272.85254	0.56398
1270.92397	0.56333
1268.99541	0.56276
1267.06685	0.56203
1265.13828	0.56093
1263.20972	0.55975
1261.28115	0.55894
1259.35259	0.55841
1257.42402	0.55784
1255.49546	0.55730
1253.56689	0.55707
1251.63833	0.55711
1249.70977	0.55718
1247.78120	0.55709
1245.85264	0.55678
1243.92407	0.55624
1241.99551	0.55551
1240.06694	0.55442
1238.13838	0.55278
1236.20981	0.55070
1234.28125	0.54856
1232.35269	0.54654
1230.42412	0.54463
1228.49556	0.54280
1226.56699	0.54110
1224.63843	0.53948
1222.70986	0.53789
1220.78130	0.53652
1218.85273	0.53540
1216.92417	0.53431
1214.99561	0.53319
1213.06704	0.53228
1211.13848	0.53165
1209.20991	0.53106
1207.28135	0.53029
1205.35278	0.52933
1203.42422	0.52845
1201.49565	0.52769
1199.56709	0.52682
1197.63853	0.52585
1195.70996	0.52511
1193.78140	0.52479
1191.85283	0.52458
1189.92427	0.52422
1187.99570	0.52389
1186.06714	0.52367
1184.13857	0.52355
1182.21001	0.52392
1180.28145	0.52486
1178.35288	0.52603
1176.42432	0.52714
1174.49575	0.52811
1172.56719	0.52875
1170.63862	0.52888
1168.71006	0.52866
1166.78149	0.52850
1164.85293	0.52857
1162.92437	0.52862
1160.99580	0.52832
1159.06724	0.52766
1157.13867	0.52682
1155.21011	0.52590
1153.28154	0.52481
1151.35298	0.52333
1149.42441	0.52129
1147.49585	0.51883
1145.56729	0.51631
1143.63872	0.51397
1141.71016	0.51171
1139.78159	0.50950
1137.85303	0.50765
1135.92446	0.50631
1133.99590	0.50529
1132.06733	0.50458
1130.13877	0.50418
1128.21021	0.50361
1126.28164	0.50258
1124.35308	0.50143
1122.42451	0.50044
1120.49595	0.49956
1118.56738	0.49900
1116.63882	0.49881
1114.71025	0.49881
1112.78169	0.49897
1110.85312	0.49941
1108.92456	0.50020
1106.99600	0.50125
1105.06743	0.50225
1103.13887	0.50334
1101.21030	0.50498
1099.28174	0.50701
1097.35317	0.50908
1095.42461	0.51162
1093.49604	0.51507
1091.56748	0.51929
1089.63892	0.52424
1087.71035	0.53013
1085.78179	0.53683
1083.85322	0.54391
1081.92466	0.55074
1079.99609	0.55629
1078.06753	0.55949
1076.13896	0.55984
1074.21040	0.55736
1072.28184	0.55255
1070.35327	0.54629
1068.42471	0.53952
1066.49614	0.53287
1064.56758	0.52657
1062.63901	0.52066
1060.71045	0.51535
1058.78188	0.51078
1056.85332	0.50683
1054.92476	0.50329
1052.99619	0.50009
1051.06763	0.49739
1049.13906	0.49543
1047.21050	0.49396
1045.28193	0.49268
1043.35337	0.49163
1041.42480	0.49057
1039.49624	0.48941
1037.56768	0.48871
1035.63911	0.48856
1033.71055	0.48828
1031.78198	0.48755
1029.85342	0.48663
1027.92485	0.48589
1025.99629	0.48568
1024.06772	0.48594
1022.13916	0.48628
1020.21060	0.48673
1018.28203	0.48739
1016.35347	0.48808
1014.42490	0.48870
1012.49634	0.48927
1010.56777	0.48993
1008.63921	0.49089
1006.71064	0.49232
1004.78208	0.49414
1002.85352	0.49620
1000.92495	0.49872
998.99639	0.50192
997.06782	0.50578
995.13926	0.51007
993.21069	0.51427
991.28213	0.51773
989.35356	0.52006
987.42500	0.52140
985.49644	0.52221
983.56787	0.52298
981.63931	0.52400
979.71074	0.52533
977.78218	0.52685
975.85361	0.52881
973.92505	0.53149
971.99648	0.53463
970.06792	0.53793
968.13936	0.54166
966.21079	0.54606
964.28223	0.55092
962.35366	0.55587
960.42510	0.56074
958.49653	0.56585
956.56797	0.57157
954.63940	0.57770
952.71084	0.58391
950.78228	0.59020
948.85371	0.59675
946.92515	0.60356
944.99658	0.61023
943.06802	0.61649
941.13945	0.62249
939.21089	0.62812
937.28232	0.63366
935.35376	0.63993
933.42520	0.64645
931.49663	0.65194
929.56807	0.65673
927.63950	0.66213
925.71094	0.66828
923.78237	0.67469
921.85381	0.68158
919.92524	0.68924
917.99668	0.69692
916.06812	0.70391
914.13955	0.71051
912.21099	0.71753
910.28242	0.72583
908.35386	0.73541
906.42529	0.74495
904.49673	0.75352
902.56816	0.76219
900.63960	0.77199
898.71104	0.78275
896.78247	0.79337
894.85391	0.80271
892.92534	0.81211
890.99678	0.82325
889.06821	0.83499
887.13965	0.84623
885.21108	0.85744
883.28252	0.86863
881.35396	0.87942
879.42539	0.88977
877.49683	0.90072
875.56826	0.91312
873.63970	0.92574
871.71113	0.93823
869.78257	0.95072
867.85400	0.96209
865.92544	0.97209
863.99687	0.98223
862.06831	0.99314
860.13975	1.00363
858.21118	1.01368
856.28262	1.02385
854.35405	1.03552
852.42549	1.04981
850.49692	1.06494
848.56836	1.07768
846.63979	1.08720
844.71123	1.09754
842.78267	1.11021
840.85410	1.12306
838.92554	1.13689
836.99697	1.15269
835.06841	1.16761
833.13984	1.17779
831.21128	1.18328
829.28271	1.19084
827.35415	1.20695
825.42559	1.22650
823.49702	1.24284
821.56846	1.25630
819.63989	1.26987
817.71133	1.28710
815.78276	1.30017
813.85420	1.30067
811.92563	1.30607
809.99707	1.33027
808.06851	1.35007
806.13994	1.34290
804.21138	1.32625
802.28281	1.32465
800.35425	1.33417
798.42568	1.35666
796.49712	1.40537
794.56855	1.43521
792.63999	1.42348
790.71143	1.43647
788.78286	1.50846
786.85430	1.59294
784.92573	1.61132
782.99717	1.58514
781.06860	1.52204
779.14004	1.44736
777.21147	1.42338
775.28291	1.43964
773.35435	1.49253
771.42578	1.62090
769.49722	1.76990
767.56865	1.90958
765.64009	1.73557
763.71152	1.57101
761.78296	1.54925
759.85439	1.44155
757.92583	1.38188
755.99727	1.56515
754.06870	2.26551
752.14014	1.75598
750.21157	1.40964
748.28301	1.34032
746.35444	1.31410
744.42588	1.27653
742.49731	1.20146
740.56875	1.10254
738.64019	1.07556
736.71162	1.05815
734.78306	1.00376
732.85449	1.11029
730.92593	1.89601
728.99736	1.63135
727.06880	1.07019
725.14023	0.99583
723.21167	1.21830
721.28311	1.48418
719.35454	0.88730
717.42598	0.66939
715.49741	0.56468
713.56885	0.52338
711.64028	0.55822
709.71172	0.55416
707.78315	0.48876
705.85459	0.38681
703.92603	0.24841
701.99746	0.18441
700.06890	0.18528
698.14033	0.16616
696.21177	0.16197
694.28320	0.24725
692.35464	0.36293
690.42607	0.41762
688.49751	0.43362
686.56895	0.45086
684.64038	0.48523
682.71182	0.43597
680.78325	0.36921
678.85469	0.44366
676.92612	0.50347
674.99756	0.43730
673.06899	0.41744
671.14043	0.37572
669.21187	0.26360
667.28330	0.18003
665.35474	0.13674
663.42617	0.17506
661.49761	0.46786
659.56904	3.95741
657.64048	0.62850
655.71191	0.30299
653.78335	0.27270
651.85479	0.28539
649.92622	0.25633
647.99766	0.26234
646.06909	0.32797
644.14053	0.42536
642.21196	0.47422
640.28340	0.41800
638.35483	0.32501
636.42627	0.23174
634.49771	0.16054
632.56914	0.11819
630.64058	0.11708
628.71201	0.16829
626.78345	0.23638
624.85488	0.27350
622.92632	0.30817
620.99775	0.27525
619.06919	0.23562
617.14062	0.20460
615.21206	0.14675
613.28350	0.18465
611.35493	0.36865
609.42637	0.42316
607.49780	0.36622
605.56924	0.33528
603.64067	0.34268
601.71211	0.40291
599.78354	0.37567
597.85498	0.33130
595.92642	0.29965
593.99785	0.23959
592.06929	0.22295
590.14072	0.23105
588.21216	0.19343
586.28359	0.16812
584.35503	0.18067
582.42646	0.19149
580.49790	0.20012
578.56934	0.21622
576.64077	0.22686
574.71221	0.26880
572.78364	0.35137
570.85508	0.34435
568.92651	0.28612
566.99795	0.30882
565.06938	0.39360
563.14082	0.33044
561.21226	0.26728
559.28369	0.28348
557.35513	0.27677
555.42656	0.27903
553.49800	0.27860
551.56943	0.22149
549.64087	0.22161
547.71230	0.34718
545.78374	0.52862
543.85518	0.51026
541.92661	0.40747
539.99805	0.37179
538.06948	0.33767
536.14092	0.25096
534.21235	0.23743
532.28379	0.32979
530.35522	0.36828
528.42666	0.31065
526.49810	0.19919
524.56953	0.12944
522.64097	0.15462
520.71240	0.26044
518.78384	0.35798
516.85527	0.31834
514.92671	0.23066
512.99814	0.20450
511.06958	0.22831
509.14102	0.22021
507.21245	0.15413
505.28389	0.11439
503.35532	0.18821
501.42676	0.40694
499.49819	0.66124
