3997.91411	0.07373
3995.98555	0.07384
3994.05698	0.07386
3992.12842	0.07395
3990.19985	0.07414
3988.27129	0.07437
3986.34272	0.07469
3984.41416	0.07518
3982.48560	0.07564
3980.55703	0.07575
3978.62847	0.07566
3976.69990	0.07559
3974.77134	0.07567
3972.84277	0.07603
3970.91421	0.07651
3968.98564	0.07671
3967.05708	0.07675
3965.12852	0.07696
3963.19995	0.07711
3961.27139	0.07719
3959.34282	0.07748
3957.41426	0.07773
3955.48569	0.07784
3953.55713	0.07791
3951.62856	0.07786
3949.70000	0.07795
3947.77144	0.07821
3945.84287	0.07824
3943.91431	0.07816
3941.98574	0.07805
3940.05718	0.07778
3938.12861	0.07764
3936.20005	0.07780
3934.27148	0.07813
3932.34292	0.07860
3930.41436	0.07880
3928.48579	0.07820
3926.55723	0.07744
3924.62866	0.07753
3922.70010	0.07813
3920.77153	0.07820
3918.84297	0.07780
3916.91440	0.07767
3914.98584	0.07777
3913.05728	0.07715
3911.12871	0.07601
3909.20015	0.07548
3907.27158	0.07603
3905.34302	0.07761
3903.41445	0.07927
3901.48589	0.07977
3899.55732	0.07977
3897.62876	0.07930
3895.70020	0.07825
3893.77163	0.07785
3891.84307	0.07827
3889.91450	0.07830
3887.98594	0.07763
3886.05737	0.07770
3884.12881	0.07896
3882.20024	0.07986
3880.27168	0.07980
3878.34312	0.07887
3876.41455	0.07805
3874.48599	0.07864
3872.55742	0.07982
3870.62886	0.08045
3868.70029	0.08095
3866.77173	0.08125
3864.84316	0.08164
3862.91460	0.08179
3860.98604	0.08102
3859.05747	0.08063
3857.12891	0.08117
3855.20034	0.08249
3853.27178	0.08548
3851.34321	0.08734
3849.41465	0.08503
3847.48608	0.08300
3845.55752	0.08273
3843.62896	0.08358
3841.70039	0.08512
3839.77183	0.08729
3837.84326	0.08942
3835.91470	0.08977
3833.98613	0.08875
3832.05757	0.08815
3830.12900	0.08817
3828.20044	0.08860
3826.27187	0.08978
3824.34331	0.09113
3822.41475	0.09215
3820.48618	0.09379
3818.55762	0.09528
3816.62905	0.09595
3814.70049	0.09622
3812.77192	0.09558
3810.84336	0.09513
3808.91479	0.09599
3806.98623	0.09807
3805.05767	0.10005
3803.12910	0.10144
3801.20054	0.10350
3799.27197	0.10480
3797.34341	0.10460
3795.41484	0.10481
3793.48628	0.10521
3791.55771	0.10580
3789.62915	0.10701
3787.70059	0.10842
3785.77202	0.10996
3783.84346	0.11167
3781.91489	0.11308
3779.98633	0.11476
3778.05776	0.11677
3776.12920	0.11768
3774.20063	0.11818
3772.27207	0.11957
3770.34351	0.12206
3768.41494	0.12508
3766.48638	0.12747
3764.55781	0.12958
3762.62925	0.13148
3760.70068	0.13323
3758.77212	0.13541
3756.84355	0.13760
3754.91499	0.13965
3752.98643	0.14257
3751.05786	0.14720
3749.12930	0.15177
3747.20073	0.15344
3745.27217	0.15488
3743.34360	0.15845
3741.41504	0.16148
3739.48647	0.16295
3737.55791	0.16530
3735.62935	0.17009
3733.70078	0.17590
3731.77222	0.17968
3729.84365	0.18229
3727.91509	0.18532
3725.98652	0.19010
3724.05796	0.19689
3722.12939	0.20431
3720.20083	0.21156
3718.27227	0.21865
3716.34370	0.22606
3714.41514	0.23391
3712.48657	0.24350
3710.55801	0.25626
3708.62944	0.26893
3706.70088	0.27930
3704.77231	0.28981
3702.84375	0.30273
3700.91519	0.31958
3698.98662	0.33767
3697.05806	0.35473
3695.12949	0.37289
3693.20093	0.39253
3691.27236	0.41464
3689.34380	0.44305
3687.41523	0.47618
3685.48667	0.50469
3683.55811	0.52988
3681.62954	0.55778
3679.70098	0.58970
3677.77241	0.62344
3675.84385	0.66310
3673.91528	0.71456
3671.98672	0.75676
3670.05815	0.79501
3668.12959	0.84628
3666.20103	0.89292
3664.27246	0.93218
3662.34390	0.97470
3660.41533	1.02127
3658.48677	1.06738
3656.55820	1.11575
3654.62964	1.16890
3652.70107	1.21393
3650.77251	1.25385
3648.84395	1.30847
3646.91538	1.37395
3644.98682	1.42293
3643.05825	1.46153
3641.12969	1.50107
3639.20112	1.54479
3637.27256	1.58938
3635.34399	1.63224
3633.41543	1.67361
3631.48687	1.71225
3629.55830	1.75313
3627.62974	1.80680
3625.70117	1.85620
3623.77261	1.89019
3621.84404	1.92343
3619.91548	1.96162
3617.98691	2.00629
3616.05835	2.04912
3614.12979	2.08709
3612.20122	2.12762
3610.27266	2.16733
3608.34409	2.20619
3606.41553	2.24714
3604.48696	2.28570
3602.55840	2.32136
3600.62983	2.36061
3598.70127	2.40241
3596.77271	2.44228
3594.84414	2.48300
3592.91558	2.52452
3590.98701	2.56221
3589.05845	2.59811
3587.12988	2.64237
3585.20132	2.69082
3583.27275	2.73225
3581.34419	2.77143
3579.41562	2.81361
3577.48706	2.85715
3575.55850	2.89948
3573.62993	2.94178
3571.70137	2.98361
3569.77280	3.02455
3567.84424	3.06713
3565.91567	3.11845
3563.98711	3.17138
3562.05854	3.21677
3560.12998	3.26009
3558.20142	3.30306
3556.27285	3.34533
3554.34429	3.38860
3552.41572	3.43519
3550.48716	3.48266
3548.55859	3.52924
3546.63003	3.57739
3544.70146	3.62837
3542.77290	3.67735
3540.84434	3.72268
3538.91577	3.76829
3536.98721	3.81580
3535.05864	3.86610
3533.13008	3.91416
3531.20151	3.95862
3529.27295	4.00415
3527.34438	4.05202
3525.41582	4.09993
3523.48726	4.14674
3521.55869	4.19490
3519.63013	4.24504
3517.70156	4.29561
3515.77300	4.34522
3513.84443	4.39413
3511.91587	4.44065
3509.98730	4.48652
3508.05874	4.53588
3506.13018	4.58554
3504.20161	4.63113
3502.27305	4.67430
3500.34448	4.72139
3498.41592	4.77320
3496.48735	4.82437
3494.55879	4.87243
3492.63022	4.92106
3490.70166	4.97376
3488.77310	5.02485
3486.84453	5.06843
3484.91597	5.10762
3482.98740	5.14853
3481.05884	5.19828
3479.13027	5.25377
3477.20171	5.30579
3475.27314	5.35474
3473.34458	5.40321
3471.41602	5.45636
3469.48745	5.51395
3467.55889	5.56532
3465.63032	5.61309
3463.70176	5.66820
3461.77319	5.72136
3459.84463	5.76197
3457.91606	5.80067
3455.98750	5.85233
3454.05894	5.90749
3452.13037	5.94900
3450.20181	5.98117
3448.27324	6.02160
3446.34468	6.08660
3444.41611	6.16173
3442.48755	6.22114
3440.55898	6.25663
3438.63042	6.28155
3436.70186	6.32115
3434.77329	6.38052
3432.84473	6.43788
3430.91616	6.48268
3428.98760	6.52784
3427.05903	6.57191
3425.13047	6.63273
3423.20190	6.71426
3421.27334	6.78022
3419.34478	6.81842
3417.41621	6.85057
3415.48765	6.88677
3413.55908	6.91966
3411.63052	6.96083
3409.70195	7.01580
3407.77339	7.08485
3405.84482	7.14651
3403.91626	7.18834
3401.98770	7.22154
3400.05913	7.23797
3398.13057	7.25725
3396.20200	7.30473
3394.27344	7.35148
3392.34487	7.36080
3390.41631	7.36544
3388.48774	7.39870
3386.55918	7.45695
3384.63062	7.50886
3382.70205	7.54064
3380.77349	7.56829
3378.84492	7.58868
3376.91636	7.61842
3374.98779	7.66360
3373.05923	7.70826
3371.13066	7.76473
3369.20210	7.83277
3367.27354	7.85150
3365.34497	7.85599
3363.41641	7.92106
3361.48784	8.00875
3359.55928	8.01916
3357.63071	7.95145
3355.70215	7.94959
3353.77358	8.00454
3351.84502	8.01917
3349.91646	8.01655
3347.98789	8.05684
3346.05933	8.12861
3344.13076	8.15797
3342.20220	8.11761
3340.27363	8.08220
3338.34507	8.12591
3336.41650	8.16914
3334.48794	8.16168
3332.55937	8.14534
3330.63081	8.13325
3328.70225	8.12196
3326.77368	8.09916
3324.84512	8.09649
3322.91655	8.17741
3320.98799	8.30744
3319.05942	8.30496
3317.13086	8.22159
3315.20229	8.22061
3313.27373	8.23786
3311.34517	8.20783
3309.41660	8.19879
3307.48804	8.22729
3305.55947	8.24059
3303.63091	8.23999
3301.70234	8.25349
3299.77378	8.29109
3297.84521	8.31050
3295.91665	8.31574
3293.98809	8.31917
3292.05952	8.28989
3290.13096	8.27188
3288.20239	8.27819
3286.27383	8.28960
3284.34526	8.33996
3282.41670	8.43066
3280.48813	8.46915
3278.55957	8.40059
3276.63101	8.30233
3274.70244	8.28689
3272.77388	8.34833
3270.84531	8.40251
3268.91675	8.42935
3266.98818	8.40643
3265.05962	8.34673
3263.13105	8.32751
3261.20249	8.34384
3259.27393	8.32543
3257.34536	8.30173
3255.41680	8.30036
3253.48823	8.30566
3251.55967	8.37190
3249.63110	8.48718
3247.70254	8.54605
3245.77397	8.53303
3243.84541	8.51301
3241.91685	8.49063
3239.98828	8.41577
3238.05972	8.28343
3236.13115	8.18484
3234.20259	8.16160
3232.27402	8.18197
3230.34546	8.25617
3228.41689	8.31035
3226.48833	8.22580
3224.55977	8.13389
3222.63120	8.14842
3220.70264	8.15254
3218.77407	8.11110
3216.84551	8.12899
3214.91694	8.15228
3212.98838	8.09837
3211.05981	8.07548
3209.13125	8.11363
3207.20269	8.09488
3205.27412	8.00995
3203.34556	7.91896
3201.41699	7.85646
3199.48843	7.85333
3197.55986	7.88117
3195.63130	7.87394
3193.70273	7.82295
3191.77417	7.74494
3189.84561	7.67772
3187.91704	7.66958
3185.98848	7.67504
3184.05991	7.63314
3182.13135	7.57591
3180.20278	7.51215
3178.27422	7.41230
3176.34565	7.30672
3174.41709	7.23348
3172.48853	7.18828
3170.55996	7.14716
3168.63140	7.10209
3166.70283	7.05417
3164.77427	6.98244
3162.84570	6.89886
3160.91714	6.82462
3158.98857	6.75006
3157.06001	6.68596
3155.13145	6.63682
3153.20288	6.56676
3151.27432	6.47117
3149.34575	6.39115
3147.41719	6.33437
3145.48862	6.27240
3143.56006	6.19896
3141.63149	6.12910
3139.70293	6.06925
3137.77437	6.01309
3135.84580	5.94624
3133.91724	5.86977
3131.98867	5.79664
3130.06011	5.73086
3128.13154	5.67070
3126.20298	5.60599
3124.27441	5.53439
3122.34585	5.46575
3120.41729	5.39383
3118.48872	5.31306
3116.56016	5.23876
3114.63159	5.17389
3112.70303	5.10554
3110.77446	5.03041
3108.84590	4.95308
3106.91733	4.87830
3104.98877	4.80982
3103.06021	4.74734
3101.13164	4.68311
3099.20308	4.61399
3097.27451	4.54481
3095.34595	4.47846
3093.41738	4.41538
3091.48882	4.35212
3089.56025	4.28764
3087.63169	4.22497
3085.70312	4.16281
3083.77456	4.09891
3081.84600	4.03435
3079.91743	3.97135
3077.98887	3.91059
3076.06030	3.85046
3074.13174	3.79046
3072.20317	3.73153
3070.27461	3.67442
3068.34604	3.61907
3066.41748	3.56406
3064.48892	3.50864
3062.56035	3.45319
3060.63179	3.39786
3058.70322	3.34257
3056.77466	3.28757
3054.84609	3.23270
3052.91753	3.17794
3050.98896	3.12509
3049.06040	3.07437
3047.13184	3.02350
3045.20327	2.97271
3043.27471	2.92354
3041.34614	2.87473
3039.41758	2.82540
3037.48901	2.77636
3035.56045	2.72862
3033.63188	2.68326
3031.70332	2.63902
3029.77476	2.59354
3027.84619	2.54767
3025.91763	2.50363
3023.98906	2.46109
3022.06050	2.41786
3020.13193	2.37401
3018.20337	2.33179
3016.27480	2.29151
3014.34624	2.25182
3012.41768	2.21226
3010.48911	2.17321
3008.56055	2.13545
3006.63198	2.09903
3004.70342	2.06290
3002.77485	2.02690
3000.84629	1.99205
2998.91772	1.95839
2996.98916	1.92516
2995.06060	1.89253
2993.13203	1.86074
2991.20347	1.82947
2989.27490	1.79886
2987.34634	1.76894
2985.41777	1.73921
2983.48921	1.70979
2981.56064	1.68154
2979.63208	1.65491
2977.70352	1.62899
2975.77495	1.60309
2973.84639	1.57755
2971.91782	1.55208
2969.98926	1.52652
2968.06069	1.50152
2966.13213	1.47698
2964.20356	1.45242
2962.27500	1.42759
2960.34644	1.40232
2958.41787	1.37743
2956.48931	1.35357
2954.56074	1.32986
2952.63218	1.30590
2950.70361	1.28236
2948.77505	1.25933
2946.84648	1.23648
2944.91792	1.21393
2942.98936	1.19201
2941.06079	1.17086
2939.13223	1.15012
2937.20366	1.12924
2935.27510	1.10774
2933.34653	1.08558
2931.41797	1.06359
2929.48940	1.04229
2927.56084	1.02142
2925.63228	1.00064
2923.70371	0.98036
2921.77515	0.96161
2919.84658	0.94428
2917.91802	0.92762
2915.98945	0.91194
2914.06089	0.89725
2912.13232	0.88299
2910.20376	0.86922
2908.27520	0.85594
2906.34663	0.84271
2904.41807	0.82918
2902.48950	0.81545
2900.56094	0.80188
2898.63237	0.78863
2896.70381	0.77587
2894.77524	0.76346
2892.84668	0.75099
2890.91812	0.73880
2888.98955	0.72744
2887.06099	0.71662
2885.13242	0.70597
2883.20386	0.69573
2881.27529	0.68597
2879.34673	0.67651
2877.41816	0.66707
2875.48960	0.65725
2873.56104	0.64695
2871.63247	0.63619
2869.70391	0.62484
2867.77534	0.61295
2865.84678	0.60063
2863.91821	0.58808
2861.98965	0.57565
2860.06108	0.56336
2858.13252	0.55115
2856.20396	0.53908
2854.27539	0.52747
2852.34683	0.51701
2850.41826	0.50804
2848.48970	0.50049
2846.56113	0.49435
2844.63257	0.48911
2842.70400	0.48400
2840.77544	0.47883
2838.84687	0.47368
2836.91831	0.46837
2834.98975	0.46275
2833.06118	0.45685
2831.13262	0.45080
2829.20405	0.44480
2827.27549	0.43890
2825.34692	0.43303
2823.41836	0.42710
2821.48979	0.42107
2819.56123	0.41502
2817.63267	0.40908
2815.70410	0.40339
2813.77554	0.39793
2811.84697	0.39246
2809.91841	0.38683
2807.98984	0.38131
2806.06128	0.37607
2804.13271	0.37075
2802.20415	0.36535
2800.27559	0.36030
2798.34702	0.35543
2796.41846	0.35040
2794.48989	0.34543
2792.56133	0.34068
2790.63276	0.33608
2788.70420	0.33168
2786.77563	0.32747
2784.84707	0.32322
2782.91851	0.31893
2780.98994	0.31467
2779.06138	0.31043
2777.13281	0.30629
2775.20425	0.30234
2773.27568	0.29843
2771.34712	0.29449
2769.41855	0.29067
2767.48999	0.28700
2765.56143	0.28350
2763.63286	0.28004
2761.70430	0.27652
2759.77573	0.27314
2757.84717	0.27000
2755.91860	0.26672
2753.99004	0.26324
2752.06147	0.26006
2750.13291	0.25728
2748.20435	0.25446
2746.27578	0.25140
2744.34722	0.24839
2742.41865	0.24552
2740.49009	0.24275
2738.56152	0.24015
2736.63296	0.23761
2734.70439	0.23504
2732.77583	0.23255
2730.84727	0.23016
2728.91870	0.22780
2726.99014	0.22542
2725.06157	0.22300
2723.13301	0.22069
2721.20444	0.21863
2719.27588	0.21670
2717.34731	0.21475
2715.41875	0.21272
2713.49019	0.21066
2711.56162	0.20878
2709.63306	0.20711
2707.70449	0.20547
2705.77593	0.20379
2703.84736	0.20208
2701.91880	0.20046
2699.99023	0.19893
2698.06167	0.19746
2696.13311	0.19604
2694.20454	0.19455
2692.27598	0.19285
2690.34741	0.19118
2688.41885	0.18988
2686.49028	0.18891
2684.56172	0.18784
2682.63315	0.18648
2680.70459	0.18508
2678.77603	0.18386
2676.84746	0.18265
2674.91890	0.18138
2672.99033	0.18034
2671.06177	0.17956
2669.13320	0.17865
2667.20464	0.17747
2665.27607	0.17636
2663.34751	0.17545
2661.41895	0.17465
2659.49038	0.17382
2657.56182	0.17290
2655.63325	0.17194
2653.70469	0.17104
2651.77612	0.17027
2649.84756	0.16966
2647.91899	0.16917
2645.99043	0.16857
2644.06187	0.16771
2642.13330	0.16693
2640.20474	0.16642
2638.27617	0.16595
2636.34761	0.16546
2634.41904	0.16499
2632.49048	0.16439
2630.56191	0.16362
2628.63335	0.16303
2626.70479	0.16280
2624.77622	0.16260
2622.84766	0.16216
2620.91909	0.16167
2618.99053	0.16138
2617.06196	0.16132
2615.13340	0.16129
2613.20483	0.16110
2611.27627	0.16078
2609.34771	0.16050
2607.41914	0.16033
2605.49058	0.16023
2603.56201	0.16007
2601.63345	0.15987
2599.70488	0.15986
2597.77632	0.16002
2595.84775	0.16020
2593.91919	0.16028
2591.99062	0.16019
2590.06206	0.16014
2588.13350	0.16026
2586.20493	0.16044
2584.27637	0.16056
2582.34780	0.16063
2580.41924	0.16080
2578.49067	0.16112
2576.56211	0.16144
2574.63354	0.16183
2572.70498	0.16225
2570.77642	0.16255
2568.84785	0.16278
2566.91929	0.16308
2564.99072	0.16351
2563.06216	0.16401
2561.13359	0.16437
2559.20503	0.16472
2557.27646	0.16517
2555.34790	0.16554
2553.41934	0.16591
2551.49077	0.16645
2549.56221	0.16699
2547.63364	0.16751
2545.70508	0.16813
2543.77651	0.16874
2541.84795	0.16932
2539.91938	0.16989
2537.99082	0.17037
2536.06226	0.17080
2534.13369	0.17135
2532.20513	0.17197
2530.27656	0.17261
2528.34800	0.17339
2526.41943	0.17417
2524.49087	0.17479
2522.56230	0.17548
2520.63374	0.17640
2518.70518	0.17726
2516.77661	0.17792
2514.84805	0.17851
2512.91948	0.17918
2510.99092	0.17995
2509.06235	0.18074
2507.13379	0.18147
2505.20522	0.18201
2503.27666	0.18250
2501.34810	0.18324
2499.41953	0.18424
2497.49097	0.18521
2495.56240	0.18606
2493.63384	0.18687
2491.70527	0.18770
2489.77671	0.18850
2487.84814	0.18937
2485.91958	0.19036
2483.99102	0.19130
2482.06245	0.19207
2480.13389	0.19278
2478.20532	0.19361
2476.27676	0.19446
2474.34819	0.19526
2472.41963	0.19604
2470.49106	0.19681
2468.56250	0.19764
2466.63394	0.19865
2464.70537	0.19975
2462.77681	0.20069
2460.84824	0.20133
2458.91968	0.20186
2456.99111	0.20266
2455.06255	0.20376
2453.13398	0.20481
2451.20542	0.20576
2449.27686	0.20673
2447.34829	0.20770
2445.41973	0.20865
2443.49116	0.20973
2441.56260	0.21093
2439.63403	0.21204
2437.70547	0.21296
2435.77690	0.21384
2433.84834	0.21475
2431.91978	0.21569
2429.99121	0.21674
2428.06265	0.21784
2426.13408	0.21889
2424.20552	0.21990
2422.27695	0.22098
2420.34839	0.22201
2418.41982	0.22294
2416.49126	0.22395
2414.56270	0.22509
2412.63413	0.22623
2410.70557	0.22734
2408.77700	0.22852
2406.84844	0.22974
2404.91987	0.23102
2402.99131	0.23233
2401.06274	0.23348
2399.13418	0.23449
2397.20562	0.23562
2395.27705	0.23687
2393.34849	0.23810
2391.41992	0.23932
2389.49136	0.24053
2387.56279	0.24166
2385.63423	0.24254
2383.70566	0.24302
2381.77710	0.24300
2379.84854	0.24245
2377.91997	0.24151
2375.99141	0.23999
2374.06284	0.23774
2372.13428	0.23519
2370.20571	0.23267
2368.27715	0.23005
2366.34858	0.22732
2364.42002	0.22456
2362.49146	0.22300
2360.56289	0.22376
2358.63433	0.22609
2356.70576	0.22963
2354.77720	0.23515
2352.84863	0.24240
2350.92007	0.24920
2348.99150	0.25294
2347.06294	0.25311
2345.13437	0.25093
2343.20581	0.24916
2341.27725	0.24980
2339.34868	0.25200
2337.42012	0.25436
2335.49155	0.25666
2333.56299	0.25927
2331.63442	0.26201
2329.70586	0.26450
2327.77729	0.26687
2325.84873	0.26963
2323.92017	0.27307
2321.99160	0.27691
2320.06304	0.28067
2318.13447	0.28413
2316.20591	0.28718
2314.27734	0.28996
2312.34878	0.29279
2310.42021	0.29568
2308.49165	0.29847
2306.56309	0.30115
2304.63452	0.30383
2302.70596	0.30647
2300.77739	0.30885
2298.84883	0.31096
2296.92026	0.31304
2294.99170	0.31524
2293.06313	0.31751
2291.13457	0.31984
2289.20601	0.32232
2287.27744	0.32476
2285.34888	0.32702
2283.42031	0.32908
2281.49175	0.33101
2279.56318	0.33292
2277.63462	0.33480
2275.70605	0.33667
2273.77749	0.33861
2271.84893	0.34060
2269.92036	0.34259
2267.99180	0.34470
2266.06323	0.34699
2264.13467	0.34932
2262.20610	0.35152
2260.27754	0.35370
2258.34897	0.35593
2256.42041	0.35811
2254.49185	0.36026
2252.56328	0.36249
2250.63472	0.36484
2248.70615	0.36719
2246.77759	0.36940
2244.84902	0.37151
2242.92046	0.37375
2240.99189	0.37617
2239.06333	0.37857
2237.13477	0.38079
2235.20620	0.38284
2233.27764	0.38487
2231.34907	0.38708
2229.42051	0.38951
2227.49194	0.39198
2225.56338	0.39424
2223.63481	0.39632
2221.70625	0.39845
2219.77769	0.40060
2217.84912	0.40272
2215.92056	0.40487
2213.99199	0.40714
2212.06343	0.40945
2210.13486	0.41166
2208.20630	0.41374
2206.27773	0.41580
2204.34917	0.41790
2202.42061	0.42000
2200.49204	0.42207
2198.56348	0.42416
2196.63491	0.42622
2194.70635	0.42819
2192.77778	0.43006
2190.84922	0.43180
2188.92065	0.43348
2186.99209	0.43520
2185.06353	0.43693
2183.13496	0.43866
2181.20640	0.44039
2179.27783	0.44206
2177.34927	0.44358
2175.42070	0.44508
2173.49214	0.44666
2171.56357	0.44820
2169.63501	0.44962
2167.70645	0.45090
2165.77788	0.45206
2163.84932	0.45323
2161.92075	0.45445
2159.99219	0.45549
2158.06362	0.45629
2156.13506	0.45711
2154.20649	0.45799
2152.27793	0.45883
2150.34937	0.45958
2148.42080	0.46024
2146.49224	0.46080
2144.56367	0.46127
2142.63511	0.46167
2140.70654	0.46195
2138.77798	0.46204
2136.84941	0.46205
2134.92085	0.46217
2132.99229	0.46228
2131.06372	0.46221
2129.13516	0.46197
2127.20659	0.46157
2125.27803	0.46107
2123.34946	0.46051
2121.42090	0.45993
2119.49233	0.45931
2117.56377	0.45868
2115.63521	0.45801
2113.70664	0.45722
2111.77808	0.45630
2109.84951	0.45528
2107.92095	0.45422
2105.99238	0.45303
2104.06382	0.45164
2102.13525	0.45021
2100.20669	0.44885
2098.27812	0.44748
2096.34956	0.44604
2094.42100	0.44450
2092.49243	0.44282
2090.56387	0.44103
2088.63530	0.43917
2086.70674	0.43721
2084.77817	0.43512
2082.84961	0.43302
2080.92104	0.43102
2078.99248	0.42899
2077.06392	0.42678
2075.13535	0.42453
2073.20679	0.42243
2071.27822	0.42026
2069.34966	0.41787
2067.42109	0.41542
2065.49253	0.41306
2063.56396	0.41066
2061.63540	0.40815
2059.70684	0.40559
2057.77827	0.40303
2055.84971	0.40044
2053.92114	0.39781
2051.99258	0.39514
2050.06401	0.39239
2048.13545	0.38964
2046.20688	0.38696
2044.27832	0.38440
2042.34976	0.38184
2040.42119	0.37909
2038.49263	0.37616
2036.56406	0.37322
2034.63550	0.37042
2032.70693	0.36767
2030.77837	0.36485
2028.84980	0.36201
2026.92124	0.35926
2024.99268	0.35660
2023.06411	0.35398
2021.13555	0.35124
2019.20698	0.34843
2017.27842	0.34570
2015.34985	0.34297
2013.42129	0.34008
2011.49272	0.33715
2009.56416	0.33443
2007.63560	0.33177
2005.70703	0.32909
2003.77847	0.32644
2001.84990	0.32374
1999.92134	0.32095
1997.99277	0.31819
1996.06421	0.31562
1994.13564	0.31322
1992.20708	0.31078
1990.27852	0.30822
1988.34995	0.30571
1986.42139	0.30329
1984.49282	0.30087
1982.56426	0.29846
1980.63569	0.29611
1978.70713	0.29379
1976.77856	0.29152
1974.85000	0.28936
1972.92144	0.28723
1970.99287	0.28509
1969.06431	0.28305
1967.13574	0.28115
1965.20718	0.27918
1963.27861	0.27714
1961.35005	0.27512
1959.42148	0.27320
1957.49292	0.27149
1955.56436	0.26980
1953.63579	0.26801
1951.70723	0.26621
1949.77866	0.26455
1947.85010	0.26300
1945.92153	0.26157
1943.99297	0.26028
1942.06440	0.25892
1940.13584	0.25730
1938.20728	0.25566
1936.27871	0.25427
1934.35015	0.25302
1932.42158	0.25182
1930.49302	0.25058
1928.56445	0.24938
1926.63589	0.24832
1924.70732	0.24747
1922.77876	0.24666
1920.85020	0.24574
1918.92163	0.24486
1916.99307	0.24399
1915.06450	0.24296
1913.13594	0.24201
1911.20737	0.24132
1909.27881	0.24071
1907.35024	0.24008
1905.42168	0.23950
1903.49312	0.23896
1901.56455	0.23843
1899.63599	0.23791
1897.70742	0.23748
1895.77886	0.23715
1893.85029	0.23679
1891.92173	0.23639
1889.99316	0.23620
1888.06460	0.23599
1886.13604	0.23559
1884.20747	0.23523
1882.27891	0.23502
1880.35034	0.23493
1878.42178	0.23484
1876.49321	0.23488
1874.56465	0.23498
1872.63608	0.23512
1870.70752	0.23551
1868.77896	0.23624
1866.85039	0.23657
1864.92183	0.23629
1862.99326	0.23612
1861.06470	0.23625
1859.13613	0.23658
1857.20757	0.23694
1855.27900	0.23744
1853.35044	0.23799
1851.42187	0.23854
1849.49331	0.23912
1847.56475	0.23993
1845.63618	0.24103
1843.70762	0.24210
1841.77905	0.24263
1839.85049	0.24288
1837.92192	0.24361
1835.99336	0.24457
1834.06479	0.24553
1832.13623	0.24663
1830.20767	0.24821
1828.27910	0.24982
1826.35054	0.25098
1824.42197	0.25226
1822.49341	0.25345
1820.56484	0.25457
1818.63628	0.25589
1816.70771	0.25751
1814.77915	0.25916
1812.85059	0.26100
1810.92202	0.26310
1808.99346	0.26507
1807.06489	0.26686
1805.13633	0.26868
1803.20776	0.27086
1801.27920	0.27348
1799.35063	0.27641
1797.42207	0.27899
1795.49351	0.28144
1793.56494	0.28445
1791.63638	0.28825
1789.70781	0.29154
1787.77925	0.29390
1785.85068	0.29695
1783.92212	0.30069
1781.99355	0.30461
1780.06499	0.30865
1778.13643	0.31288
1776.20786	0.31708
1774.27930	0.32174
1772.35073	0.32779
1770.42217	0.33386
1768.49360	0.33882
1766.56504	0.34374
1764.63647	0.34891
1762.70791	0.35466
1760.77935	0.36198
1758.85078	0.36890
1756.92222	0.37574
1754.99365	0.38318
1753.06509	0.39003
1751.13652	0.39815
1749.20796	0.40823
1747.27939	0.41826
1745.35083	0.42728
1743.42227	0.43690
1741.49370	0.44760
1739.56514	0.46017
1737.63657	0.47271
1735.70801	0.48394
1733.77944	0.50067
1731.85088	0.52014
1729.92231	0.53559
1727.99375	0.55140
1726.06519	0.56854
1724.13662	0.58713
1722.20806	0.60698
1720.27949	0.62557
1718.35093	0.64773
1716.42236	0.67967
1714.49380	0.70967
1712.56523	0.73439
1710.63667	0.75876
1708.70811	0.78518
1706.77954	0.81513
1704.85098	0.85027
1702.92241	0.88165
1700.99385	0.91349
1699.06528	0.96057
1697.13672	1.00395
1695.20815	1.04846
1693.27959	1.09236
1691.35103	1.12866
1689.42246	1.17062
1687.49390	1.21484
1685.56533	1.25809
1683.63677	1.32360
1681.70820	1.39085
1679.77964	1.43454
1677.85107	1.47630
1675.92251	1.52500
1673.99395	1.58520
1672.06538	1.63914
1670.13682	1.69230
1668.20825	1.76068
1666.27969	1.81851
1664.35112	1.86989
1662.42256	1.93416
1660.49399	2.00587
1658.56543	2.06296
1656.63687	2.10977
1654.70830	2.15169
1652.77974	2.20807
1650.85117	2.25827
1648.92261	2.27772
1646.99404	2.30103
1645.06548	2.32506
1643.13691	2.34125
1641.20835	2.34930
1639.27979	2.35443
1637.35122	2.35505
1635.42266	2.35124
1633.49409	2.34266
1631.56553	2.32671
1629.63696	2.30627
1627.70840	2.27547
1625.77983	2.23990
1623.85127	2.19496
1621.92271	2.14041
1619.99414	2.09111
1618.06558	2.04285
1616.13701	1.97709
1614.20845	1.91129
1612.27988	1.86059
1610.35132	1.80767
1608.42275	1.75030
1606.49419	1.69408
1604.56562	1.64287
1602.63706	1.59423
1600.70850	1.54676
1598.77993	1.50256
1596.85137	1.46126
1594.92280	1.42163
1592.99424	1.38363
1591.06567	1.34930
1589.13711	1.31801
1587.20854	1.28943
1585.27998	1.26328
1583.35142	1.23923
1581.42285	1.21759
1579.49429	1.19921
1577.56572	1.18318
1575.63716	1.16519
1573.70859	1.14986
1571.78003	1.14012
1569.85146	1.13119
1567.92290	1.12222
1565.99434	1.11616
1564.06577	1.11273
1562.13721	1.11111
1560.20864	1.11257
1558.28008	1.12011
1556.35151	1.12654
1554.42295	1.12960
1552.49438	1.13282
1550.56582	1.13439
1548.63726	1.13280
1546.70869	1.12769
1544.78013	1.11890
1542.85156	1.10652
1540.92300	1.08772
1538.99443	1.05760
1537.06587	1.03385
1535.13730	1.01722
1533.20874	0.99587
1531.28018	0.97286
1529.35161	0.95550
1527.42305	0.93951
1525.49448	0.92357
1523.56592	0.91025
1521.63735	0.89796
1519.70879	0.88560
1517.78022	0.87485
1515.85166	0.86236
1513.92310	0.84853
1511.99453	0.83583
1510.06597	0.82462
1508.13740	0.81446
1506.20884	0.79911
1504.28027	0.78446
1502.35171	0.77595
1500.42314	0.76891
1498.49458	0.76167
1496.56602	0.75335
1494.63745	0.74489
1492.70889	0.73827
1490.78032	0.73270
1488.85176	0.72630
1486.92319	0.71984
1484.99463	0.71469
1483.06606	0.71090
1481.13750	0.70791
1479.20894	0.70569
1477.28037	0.70478
1475.35181	0.70495
1473.42324	0.70533
1471.49468	0.70455
1469.56611	0.70240
1467.63755	0.70009
1465.70898	0.69842
1463.78042	0.69763
1461.85186	0.69756
1459.92329	0.69817
1457.99473	0.69948
1456.06616	0.70012
1454.13760	0.69825
1452.20903	0.69558
1450.28047	0.69307
1448.35190	0.69078
1446.42334	0.68822
1444.49478	0.68550
1442.56621	0.68288
1440.63765	0.68018
1438.70908	0.67745
1436.78052	0.67409
1434.85195	0.67004
1432.92339	0.66687
1430.99482	0.66509
1429.06626	0.66434
1427.13770	0.66421
1425.20913	0.66481
1423.28057	0.66603
1421.35200	0.66713
1419.42344	0.66805
1417.49487	0.66841
1415.56631	0.66763
1413.63774	0.66677
1411.70918	0.66674
1409.78062	0.66779
1407.85205	0.66943
1405.92349	0.67139
1403.99492	0.67336
1402.06636	0.67432
1400.13779	0.67393
1398.20923	0.67231
1396.28066	0.66968
1394.35210	0.66573
1392.42354	0.66068
1390.49497	0.65583
1388.56641	0.65118
1386.63784	0.64580
1384.70928	0.63992
1382.78071	0.63435
1380.85215	0.62927
1378.92358	0.62501
1376.99502	0.62191
1375.06646	0.61992
1373.13789	0.61852
1371.20933	0.61754
1369.28076	0.61687
1367.35220	0.61582
1365.42363	0.61426
1363.49507	0.61274
1361.56650	0.61119
1359.63794	0.60937
1357.70937	0.60776
1355.78081	0.60648
1353.85225	0.60536
1351.92368	0.60443
1349.99512	0.60370
1348.06655	0.60297
1346.13799	0.60210
1344.20942	0.60116
1342.28086	0.60036
1340.35229	0.59986
1338.42373	0.59936
1336.49517	0.59863
1334.56660	0.59803
1332.63804	0.59791
1330.70947	0.59825
1328.78091	0.59896
1326.85234	0.59988
1324.92378	0.60078
1322.99521	0.60162
1321.06665	0.60245
1319.13809	0.60326
1317.20952	0.60386
1315.28096	0.60401
1313.35239	0.60372
1311.42383	0.60314
1309.49526	0.60246
1307.56670	0.60179
1305.63813	0.60121
1303.70957	0.60066
1301.78101	0.59995
1299.85244	0.59891
1297.92388	0.59764
1295.99531	0.59643
1294.06675	0.59529
1292.13818	0.59410
1290.20962	0.59276
1288.28105	0.59129
1286.35249	0.58974
1284.42393	0.58815
1282.49536	0.58655
1280.56680	0.58501
1278.63823	0.58351
1276.70967	0.58201
1274.78110	0.58065
1272.85254	0.57953
1270.92397	0.57859
1268.99541	0.57771
1267.06685	0.57686
1265.13828	0.57606
1263.20972	0.57513
1261.28115	0.57403
1259.35259	0.57312
1257.42402	0.57252
1255.49546	0.57211
1253.56689	0.57189
1251.63833	0.57190
1249.70977	0.57206
1247.78120	0.57217
1245.85264	0.57204
1243.92407	0.57142
1241.99551	0.57034
1240.06694	0.56894
1238.13838	0.56710
1236.20981	0.56471
1234.28125	0.56206
1232.35269	0.55954
1230.42412	0.55720
1228.49556	0.55493
1226.56699	0.55260
1224.63843	0.55026
1222.70986	0.54826
1220.78130	0.54667
1218.85273	0.54512
1216.92417	0.54366
1214.99561	0.54254
1213.06704	0.54159
1211.13848	0.54073
1209.20991	0.54002
1207.28135	0.53927
1205.35278	0.53841
1203.42422	0.53755
1201.49565	0.53655
1199.56709	0.53540
1197.63853	0.53428
1195.70996	0.53337
1193.78140	0.53271
1191.85283	0.53212
1189.92427	0.53152
1187.99570	0.53109
1186.06714	0.53085
1184.13857	0.53087
1182.21001	0.53124
1180.28145	0.53206
1178.35288	0.53341
1176.42432	0.53508
1174.49575	0.53652
1172.56719	0.53742
1170.63862	0.53777
1168.71006	0.53780
1166.78149	0.53786
1164.85293	0.53796
1162.92437	0.53791
1160.99580	0.53782
1159.06724	0.53772
1157.13867	0.53733
1155.21011	0.53654
1153.28154	0.53538
1151.35298	0.53392
1149.42441	0.53207
1147.49585	0.52965
1145.56729	0.52677
1143.63872	0.52384
1141.71016	0.52128
1139.78159	0.51940
1137.85303	0.51824
1135.92446	0.51765
1133.99590	0.51764
1132.06733	0.51801
1130.13877	0.51822
1128.21021	0.51802
1126.28164	0.51768
1124.35308	0.51734
1122.42451	0.51705
1120.49595	0.51697
1118.56738	0.51718
1116.63882	0.51754
1114.71025	0.51796
1112.78169	0.51846
1110.85312	0.51907
1108.92456	0.51978
1106.99600	0.52060
1105.06743	0.52147
1103.13887	0.52243
1101.21030	0.52358
1099.28174	0.52496
1097.35317	0.52667
1095.42461	0.52913
1093.49604	0.53277
1091.56748	0.53766
1089.63892	0.54386
1087.71035	0.55139
1085.78179	0.55966
1083.85322	0.56786
1081.92466	0.57532
1079.99609	0.58105
1078.06753	0.58399
1076.13896	0.58371
1074.21040	0.58053
1072.28184	0.57512
1070.35327	0.56824
1068.42471	0.56074
1066.49614	0.55346
1064.56758	0.54688
1062.63901	0.54108
1060.71045	0.53608
1058.78188	0.53173
1056.85332	0.52772
1054.92476	0.52403
1052.99619	0.52085
1051.06763	0.51832
1049.13906	0.51658
1047.21050	0.51553
1045.28193	0.51485
1043.35337	0.51443
1041.42480	0.51427
1039.49624	0.51430
1037.56768	0.51424
1035.63911	0.51380
1033.71055	0.51295
1031.78198	0.51187
1029.85342	0.51052
1027.92485	0.50891
1025.99629	0.50725
1024.06772	0.50584
1022.13916	0.50477
1020.21060	0.50424
1018.28203	0.50422
1016.35347	0.50412
1014.42490	0.50378
1012.49634	0.50348
1010.56777	0.50333
1008.63921	0.50350
1006.71064	0.50414
1004.78208	0.50520
1002.85352	0.50674
1000.92495	0.50902
998.99639	0.51231
997.06782	0.51657
995.13926	0.52118
993.21069	0.52533
991.28213	0.52856
989.35356	0.53070
987.42500	0.53174
985.49644	0.53191
983.56787	0.53161
981.63931	0.53154
979.71074	0.53216
977.78218	0.53348
975.85361	0.53527
973.92505	0.53744
971.99648	0.54029
970.06792	0.54378
968.13936	0.54750
966.21079	0.55139
964.28223	0.55562
962.35366	0.56033
960.42510	0.56543
958.49653	0.57084
956.56797	0.57661
954.63940	0.58273
952.71084	0.58903
950.78228	0.59542
948.85371	0.60194
946.92515	0.60844
944.99658	0.61487
943.06802	0.62144
941.13945	0.62802
939.21089	0.63422
937.28232	0.64012
935.35376	0.64622
933.42520	0.65238
931.49663	0.65786
929.56807	0.66294
927.63950	0.66869
925.71094	0.67499
923.78237	0.68118
921.85381	0.68788
919.92524	0.69520
917.99668	0.70236
916.06812	0.70923
914.13955	0.71627
912.21099	0.72407
910.28242	0.73258
908.35386	0.74147
906.42529	0.75084
904.49673	0.75983
902.56816	0.76767
900.63960	0.77575
898.71104	0.78587
896.78247	0.79760
894.85391	0.80826
892.92534	0.81735
890.99678	0.82769
889.06821	0.83972
887.13965	0.85161
885.21108	0.86342
883.28252	0.87534
881.35396	0.88759
879.42539	0.90031
877.49683	0.91153
875.56826	0.92133
873.63970	0.93227
871.71113	0.94461
869.78257	0.95613
867.85400	0.96597
865.92544	0.97672
863.99687	0.98936
862.06831	1.00176
860.13975	1.01347
858.21118	1.02532
856.28262	1.03672
854.35405	1.04703
852.42549	1.05768
850.49692	1.07062
848.56836	1.08377
846.63979	1.09385
844.71123	1.10477
842.78267	1.12127
840.85410	1.13920
838.92554	1.15259
836.99697	1.16123
835.06841	1.16779
833.13984	1.17695
831.21128	1.19076
829.28271	1.20529
827.35415	1.21579
825.42559	1.22185
823.49702	1.23028
821.56846	1.24494
819.63989	1.26397
817.71133	1.28807
815.78276	1.31108
813.85420	1.31746
811.92563	1.31183
809.99707	1.31553
808.06851	1.32942
806.13994	1.34259
804.21138	1.35457
802.28281	1.36227
800.35425	1.35820
798.42568	1.35925
796.49712	1.38622
794.56855	1.43197
792.63999	1.46762
790.71143	1.45954
788.78286	1.43531
786.85430	1.44426
784.92573	1.46042
782.99717	1.43968
781.06860	1.40631
779.14004	1.39536
777.21147	1.41134
775.28291	1.44508
773.35435	1.46204
771.42578	1.44276
769.49722	1.42834
767.56865	1.46669
765.64009	1.44981
763.71152	1.36376
761.78296	1.27423
759.85439	1.18978
757.92583	1.14565
755.99727	1.14714
754.06870	1.14189
752.14014	1.11167
750.21157	1.11336
748.28301	1.12249
746.35444	1.10124
744.42588	1.09340
742.49731	1.03019
740.56875	0.86814
738.64019	0.74407
736.71162	0.69810
734.78306	0.69155
732.85449	0.67858
730.92593	0.63367
728.99736	0.53562
727.06880	0.41688
725.14023	0.33797
723.21167	0.27798
721.28311	0.23700
719.35454	0.26998
717.42598	0.32627
715.49741	0.29892
713.56885	0.25076
711.64028	0.22609
709.71172	0.19508
707.78315	0.14602
705.85459	0.11717
703.92603	0.15198
701.99746	0.23328
700.06890	0.28123
698.14033	0.27387
696.21177	0.23814
694.28320	0.18136
692.35464	0.15459
690.42607	0.17377
688.49751	0.17690
686.56895	0.13843
684.64038	0.09905
682.71182	0.11557
680.78325	0.15750
678.85469	0.12538
676.92612	0.07084
674.99756	0.07144
673.06899	0.11718
671.14043	0.14647
669.21187	0.14876
667.28330	0.15937
665.35474	0.21538
663.42617	0.28303
661.49761	0.28711
659.56904	0.20788
657.64048	0.12438
655.71191	0.06913
653.78335	0.01153
651.85479	-0.02351
649.92622	0.08128
647.99766	0.22060
646.06909	0.15018
644.14053	0.00787
642.21196	0.05899
640.28340	0.15318
638.35483	0.12355
636.42627	0.08232
634.49771	0.08420
632.56914	0.08258
630.64058	0.08454
628.71201	0.14994
626.78345	0.22333
624.85488	0.18026
622.92632	0.14336
620.99775	0.21246
619.06919	0.27369
617.14062	0.22591
615.21206	0.19838
613.28350	0.27024
611.35493	0.33691
609.42637	0.29056
607.49780	0.18488
605.56924	0.10883
603.64067	0.10747
601.71211	0.14600
599.78354	0.17204
597.85498	0.15802
595.92642	0.16414
593.99785	0.22483
592.06929	0.23679
590.14072	0.16039
588.21216	0.08985
586.28359	0.08993
584.35503	0.13471
582.42646	0.14248
580.49790	0.10681
578.56934	0.08199
576.64077	0.13086
574.71221	0.23434
572.78364	0.23709
570.85508	0.12639
568.92651	0.06127
566.99795	0.09940
565.06938	0.18627
563.14082	0.22974
561.21226	0.20362
559.28369	0.15424
557.35513	0.11653
555.42656	0.11402
553.49800	0.08678
551.56943	0.03375
549.64087	0.02485
547.71230	0.11035
545.78374	0.21532
543.85518	0.26779
541.92661	0.23591
539.99805	0.20244
538.06948	0.19094
536.14092	0.13271
534.21235	0.05600
532.28379	0.05144
530.35522	0.09319
528.42666	0.10326
526.49810	0.07766
524.56953	0.08669
522.64097	0.10936
520.71240	0.09459
518.78384	0.07526
516.85527	0.08300
514.92671	0.09651
512.99814	0.09989
511.06958	0.10596
509.14102	0.14516
507.21245	0.20735
505.28389	0.21810
503.35532	0.20801
501.42676	0.23265
499.49819	0.23983
