3997.91411	0.06599
3995.98555	0.06674
3994.05698	0.06706
3992.12842	0.06705
3990.19985	0.06708
3988.27129	0.06727
3986.34272	0.06768
3984.41416	0.06807
3982.48560	0.06803
3980.55703	0.06780
3978.62847	0.06780
3976.69990	0.06826
3974.77134	0.06906
3972.84277	0.06953
3970.91421	0.06941
3968.98564	0.06899
3967.05708	0.06882
3965.12852	0.06910
3963.19995	0.06948
3961.27139	0.06996
3959.34282	0.07052
3957.41426	0.07085
3955.48569	0.07095
3953.55713	0.07099
3951.62856	0.07126
3949.70000	0.07178
3947.77144	0.07193
3945.84287	0.07162
3943.91431	0.07153
3941.98574	0.07161
3940.05718	0.07131
3938.12861	0.07094
3936.20005	0.07094
3934.27148	0.07138
3932.34292	0.07213
3930.41436	0.07261
3928.48579	0.07222
3926.55723	0.07132
3924.62866	0.07086
3922.70010	0.07102
3920.77153	0.07149
3918.84297	0.07239
3916.91440	0.07306
3914.98584	0.07221
3913.05728	0.07048
3911.12871	0.06951
3909.20015	0.06960
3907.27158	0.07061
3905.34302	0.07280
3903.41445	0.07540
3901.48589	0.07643
3899.55732	0.07559
3897.62876	0.07374
3895.70020	0.07198
3893.77163	0.07183
3891.84307	0.07320
3889.91450	0.07386
3887.98594	0.07313
3886.05737	0.07307
3884.12881	0.07370
3882.20024	0.07398
3880.27168	0.07394
3878.34312	0.07297
3876.41455	0.07206
3874.48599	0.07305
3872.55742	0.07539
3870.62886	0.07743
3868.70029	0.07809
3866.77173	0.07726
3864.84316	0.07702
3862.91460	0.07761
3860.98604	0.07705
3859.05747	0.07606
3857.12891	0.07654
3855.20034	0.07890
3853.27178	0.08278
3851.34321	0.08421
3849.41465	0.08128
3847.48608	0.07873
3845.55752	0.07846
3843.62896	0.08014
3841.70039	0.08252
3839.77183	0.08480
3837.84326	0.08647
3835.91470	0.08635
3833.98613	0.08525
3832.05757	0.08470
3830.12900	0.08444
3828.20044	0.08444
3826.27187	0.08522
3824.34331	0.08660
3822.41475	0.08893
3820.48618	0.09212
3818.55762	0.09308
3816.62905	0.09245
3814.70049	0.09199
3812.77192	0.09092
3810.84336	0.09036
3808.91479	0.09132
3806.98623	0.09369
3805.05767	0.09618
3803.12910	0.09844
3801.20054	0.10163
3799.27197	0.10320
3797.34341	0.10246
3795.41484	0.10214
3793.48628	0.10203
3791.55771	0.10199
3789.62915	0.10253
3787.70059	0.10392
3785.77202	0.10618
3783.84346	0.10816
3781.91489	0.10926
3779.98633	0.11078
3778.05776	0.11260
3776.12920	0.11324
3774.20063	0.11388
3772.27207	0.11591
3770.34351	0.11896
3768.41494	0.12169
3766.48638	0.12378
3764.55781	0.12601
3762.62925	0.12778
3760.70068	0.12959
3758.77212	0.13262
3756.84355	0.13571
3754.91499	0.13788
3752.98643	0.14087
3751.05786	0.14626
3749.12930	0.15187
3747.20073	0.15434
3745.27217	0.15623
3743.34360	0.15928
3741.41504	0.16198
3739.48647	0.16469
3737.55791	0.16947
3735.62935	0.17731
3733.70078	0.18522
3731.77222	0.18910
3729.84365	0.19116
3727.91509	0.19431
3725.98652	0.19965
3724.05796	0.20648
3722.12939	0.21317
3720.20083	0.21883
3718.27227	0.22360
3716.34370	0.22911
3714.41514	0.23646
3712.48657	0.24705
3710.55801	0.26193
3708.62944	0.27648
3706.70088	0.28738
3704.77231	0.29763
3702.84375	0.31031
3700.91519	0.32700
3698.98662	0.34483
3697.05806	0.36182
3695.12949	0.38027
3693.20093	0.40035
3691.27236	0.42281
3689.34380	0.45119
3687.41523	0.48370
3685.48667	0.51165
3683.55811	0.53672
3681.62954	0.56464
3679.70098	0.59670
3677.77241	0.63094
3675.84385	0.67152
3673.91528	0.72413
3671.98672	0.76676
3670.05815	0.80467
3668.12959	0.85543
3666.20103	0.90207
3664.27246	0.94169
3662.34390	0.98427
3660.41533	1.03045
3658.48677	1.07653
3656.55820	1.12584
3654.62964	1.18022
3652.70107	1.22609
3650.77251	1.26622
3648.84395	1.32052
3646.91538	1.38657
3644.98682	1.43551
3643.05825	1.47292
3641.12969	1.51178
3639.20112	1.55547
3637.27256	1.59979
3635.34399	1.64290
3633.41543	1.68645
3631.48687	1.72811
3629.55830	1.76975
3627.62974	1.82070
3625.70117	1.86713
3623.77261	1.89925
3621.84404	1.93073
3619.91548	1.96761
3617.98691	2.01208
3616.05835	2.05447
3614.12979	2.09024
3612.20122	2.12862
3610.27266	2.16813
3608.34409	2.20816
3606.41553	2.25033
3604.48696	2.28941
3602.55840	2.32437
3600.62983	2.36184
3598.70127	2.40254
3596.77271	2.44215
3594.84414	2.48157
3592.91558	2.52155
3590.98701	2.55943
3589.05845	2.59608
3587.12988	2.63957
3585.20132	2.68609
3583.27275	2.72564
3581.34419	2.76209
3579.41562	2.80128
3577.48706	2.84346
3575.55850	2.88588
3573.62993	2.92947
3571.70137	2.97268
3569.77280	3.01369
3567.84424	3.05679
3565.91567	3.10815
3563.98711	3.15751
3562.05854	3.19938
3560.12998	3.24097
3558.20142	3.28373
3556.27285	3.32828
3554.34429	3.37283
3552.41572	3.41675
3550.48716	3.46137
3548.55859	3.50622
3546.63003	3.55187
3544.70146	3.60197
3542.77290	3.65255
3540.84434	3.69784
3538.91577	3.74102
3536.98721	3.78606
3535.05864	3.83589
3533.13008	3.88650
3531.20151	3.93374
3529.27295	3.98027
3527.34438	4.02793
3525.41582	4.07260
3523.48726	4.11701
3521.55869	4.16903
3519.63013	4.22252
3517.70156	4.27082
3515.77300	4.31574
3513.84443	4.36044
3511.91587	4.40828
3509.98730	4.46061
3508.05874	4.51239
3506.13018	4.55700
3504.20161	4.59903
3502.27305	4.64778
3500.34448	4.69937
3498.41592	4.75002
3496.48735	4.80546
3494.55879	4.85809
3492.63022	4.90056
3490.70166	4.94295
3488.77310	4.98974
3486.84453	5.03863
3484.91597	5.09137
3482.98740	5.14366
3481.05884	5.18967
3479.13027	5.23293
3477.20171	5.27884
3475.27314	5.32725
3473.34458	5.38140
3471.41602	5.43617
3469.48745	5.47769
3467.55889	5.51572
3465.63032	5.56174
3463.70176	5.61244
3461.77319	5.66706
3459.84463	5.72612
3457.91606	5.78329
3455.98750	5.83068
3454.05894	5.86840
3452.13037	5.91406
3450.20181	5.97960
3448.27324	6.03901
3446.34468	6.08533
3444.41611	6.14171
3442.48755	6.19812
3440.55898	6.23970
3438.63042	6.27759
3436.70186	6.31385
3434.77329	6.35990
3432.84473	6.43058
3430.91616	6.49628
3428.98760	6.53513
3427.05903	6.56942
3425.13047	6.62254
3423.20190	6.68667
3421.27334	6.74583
3419.34478	6.79251
3417.41621	6.84507
3415.48765	6.92456
3413.55908	7.00965
3411.63052	7.05979
3409.70195	7.07050
3407.77339	7.08627
3405.84482	7.10482
3403.91626	7.13068
3401.98770	7.17785
3400.05913	7.20470
3398.13057	7.20674
3396.20200	7.22685
3394.27344	7.27276
3392.34487	7.30077
3390.41631	7.31318
3388.48774	7.35023
3386.55918	7.43712
3384.63062	7.55842
3382.70205	7.65491
3380.77349	7.67592
3378.84492	7.64012
3376.91636	7.60144
3374.98779	7.58618
3373.05923	7.62327
3371.13066	7.69067
3369.20210	7.73992
3367.27354	7.74712
3365.34497	7.77751
3363.41641	7.88003
3361.48784	7.96006
3359.55928	7.97280
3357.63071	7.95474
3355.70215	7.93506
3353.77358	7.91608
3351.84502	7.88446
3349.91646	7.83366
3347.98789	7.80304
3346.05933	7.80992
3344.13076	7.82717
3342.20220	7.84179
3340.27363	7.83490
3338.34507	7.84173
3336.41650	7.88140
3334.48794	7.90170
3332.55937	7.87664
3330.63081	7.85676
3328.70225	7.88451
3326.77368	7.96871
3324.84512	8.06828
3322.91655	8.10683
3320.98799	8.06326
3319.05942	7.97984
3317.13086	7.97880
3315.20229	8.01900
3313.27373	7.96592
3311.34517	7.93801
3309.41660	8.01974
3307.48804	8.07079
3305.55947	8.06498
3303.63091	8.10195
3301.70234	8.13292
3299.77378	8.10703
3297.84521	8.05534
3295.91665	8.06396
3293.98809	8.13109
3292.05952	8.15458
3290.13096	8.15133
3288.20239	8.16592
3286.27383	8.19797
3284.34526	8.23582
3282.41670	8.22410
3280.48813	8.16342
3278.55957	8.17018
3276.63101	8.24635
3274.70244	8.25704
3272.77388	8.17568
3270.84531	8.09741
3268.91675	8.06288
3266.98818	8.09563
3265.05962	8.23545
3263.13105	8.31252
3261.20249	8.19729
3259.27393	8.13172
3257.34536	8.21826
3255.41680	8.27666
3253.48823	8.22464
3251.55967	8.15631
3249.63110	8.06825
3247.70254	7.98450
3245.77397	8.04007
3243.84541	8.22448
3241.91685	8.27763
3239.98828	8.14587
3238.05972	8.06417
3236.13115	8.09868
3234.20259	8.13249
3232.27402	8.12475
3230.34546	8.12158
3228.41689	8.08751
3226.48833	8.03715
3224.55977	8.01230
3222.63120	7.96656
3220.70264	7.91292
3218.77407	7.93796
3216.84551	7.99285
3214.91694	7.99251
3212.98838	7.96726
3211.05981	7.93325
3209.13125	7.89840
3207.20269	7.88928
3205.27412	7.87135
3203.34556	7.79600
3201.41699	7.74422
3199.48843	7.74548
3197.55986	7.70754
3195.63130	7.64922
3193.70273	7.63075
3191.77417	7.61546
3189.84561	7.58014
3187.91704	7.55860
3185.98848	7.50367
3184.05991	7.37584
3182.13135	7.26223
3180.20278	7.21350
3178.27422	7.21505
3176.34565	7.24543
3174.41709	7.26471
3172.48853	7.22326
3170.55996	7.13367
3168.63140	7.04981
3166.70283	6.96304
3164.77427	6.87134
3162.84570	6.83163
3160.91714	6.81601
3158.98857	6.73060
3157.06001	6.61775
3155.13145	6.55561
3153.20288	6.51445
3151.27432	6.46205
3149.34575	6.40327
3147.41719	6.33467
3145.48862	6.25347
3143.56006	6.16671
3141.63149	6.08924
3139.70293	6.01845
3137.77437	5.94168
3135.84580	5.86655
3133.91724	5.79867
3131.98867	5.72849
3130.06011	5.65506
3128.13154	5.58028
3126.20298	5.50165
3124.27441	5.42508
3122.34585	5.35196
3120.41729	5.27727
3118.48872	5.20602
3116.56016	5.14032
3114.63159	5.07008
3112.70303	4.99157
3110.77446	4.91173
3108.84590	4.83882
3106.91733	4.77208
3104.98877	4.70332
3103.06021	4.62928
3101.13164	4.55299
3099.20308	4.48292
3097.27451	4.41836
3095.34595	4.35127
3093.41738	4.28355
3091.48882	4.21745
3089.56025	4.15076
3087.63169	4.08273
3085.70312	4.01339
3083.77456	3.94593
3081.84600	3.88369
3079.91743	3.82273
3077.98887	3.76002
3076.06030	3.69813
3074.13174	3.63703
3072.20317	3.57560
3070.27461	3.51434
3068.34604	3.45340
3066.41748	3.39325
3064.48892	3.33517
3062.56035	3.27950
3060.63179	3.22527
3058.70322	3.17099
3056.77466	3.11563
3054.84609	3.06056
3052.91753	3.00759
3050.98896	2.95490
3049.06040	2.90059
3047.13184	2.84725
3045.20327	2.79676
3043.27471	2.74773
3041.34614	2.69868
3039.41758	2.64976
3037.48901	2.60260
3035.56045	2.55690
3033.63188	2.51065
3031.70332	2.46420
3029.77476	2.41873
3027.84619	2.37371
3025.91763	2.32953
3023.98906	2.28702
3022.06050	2.24538
3020.13193	2.20415
3018.20337	2.16364
3016.27480	2.12438
3014.34624	2.08631
3012.41768	2.04806
3010.48911	2.00919
3008.56055	1.97089
3006.63198	1.93389
3004.70342	1.89778
3002.77485	1.86182
3000.84629	1.82633
2998.91772	1.79187
2996.98916	1.75809
2995.06060	1.72438
2993.13203	1.69109
2991.20347	1.65907
2989.27490	1.62804
2987.34634	1.59704
2985.41777	1.56618
2983.48921	1.53612
2981.56064	1.50664
2979.63208	1.47727
2977.70352	1.44824
2975.77495	1.41991
2973.84639	1.39217
2971.91782	1.36469
2969.98926	1.33761
2968.06069	1.31123
2966.13213	1.28558
2964.20356	1.26056
2962.27500	1.23583
2960.34644	1.21122
2958.41787	1.18715
2956.48931	1.16395
2954.56074	1.14129
2952.63218	1.11886
2950.70361	1.09696
2948.77505	1.07541
2946.84648	1.05380
2944.91792	1.03255
2942.98936	1.01179
2941.06079	0.99132
2939.13223	0.97154
2937.20366	0.95290
2935.27510	0.93502
2933.34653	0.91685
2931.41797	0.89831
2929.48940	0.88040
2927.56084	0.86337
2925.63228	0.84666
2923.70371	0.83009
2921.77515	0.81395
2919.84658	0.79812
2917.91802	0.78230
2915.98945	0.76701
2914.06089	0.75246
2912.13232	0.73816
2910.20376	0.72420
2908.27520	0.71085
2906.34663	0.69794
2904.41807	0.68510
2902.48950	0.67240
2900.56094	0.65994
2898.63237	0.64773
2896.70381	0.63608
2894.77524	0.62489
2892.84668	0.61355
2890.91812	0.60206
2888.98955	0.59089
2887.06099	0.57999
2885.13242	0.56916
2883.20386	0.55876
2881.27529	0.54896
2879.34673	0.53930
2877.41816	0.52934
2875.48960	0.51936
2873.56104	0.50975
2871.63247	0.50044
2869.70391	0.49128
2867.77534	0.48224
2865.84678	0.47317
2863.91821	0.46410
2861.98965	0.45525
2860.06108	0.44687
2858.13252	0.43905
2856.20396	0.43140
2854.27539	0.42362
2852.34683	0.41614
2850.41826	0.40922
2848.48970	0.40241
2846.56113	0.39532
2844.63257	0.38839
2842.70400	0.38223
2840.77544	0.37678
2838.84687	0.37153
2836.91831	0.36620
2834.98975	0.36090
2833.06118	0.35586
2831.13262	0.35081
2829.20405	0.34540
2827.27549	0.33985
2825.34692	0.33454
2823.41836	0.32951
2821.48979	0.32460
2819.56123	0.31975
2817.63267	0.31486
2815.70410	0.30986
2813.77554	0.30490
2811.84697	0.30008
2809.91841	0.29548
2807.98984	0.29100
2806.06128	0.28644
2804.13271	0.28202
2802.20415	0.27775
2800.27559	0.27338
2798.34702	0.26923
2796.41846	0.26541
2794.48989	0.26164
2792.56133	0.25783
2790.63276	0.25403
2788.70420	0.25040
2786.77563	0.24701
2784.84707	0.24362
2782.91851	0.24026
2780.98994	0.23707
2779.06138	0.23393
2777.13281	0.23076
2775.20425	0.22762
2773.27568	0.22450
2771.34712	0.22154
2769.41855	0.21863
2767.48999	0.21563
2765.56143	0.21279
2763.63286	0.21015
2761.70430	0.20747
2759.77573	0.20474
2757.84717	0.20208
2755.91860	0.19961
2753.99004	0.19715
2752.06147	0.19456
2750.13291	0.19197
2748.20435	0.18970
2746.27578	0.18776
2744.34722	0.18569
2742.41865	0.18341
2740.49009	0.18126
2738.56152	0.17930
2736.63296	0.17738
2734.70439	0.17546
2732.77583	0.17354
2730.84727	0.17164
2728.91870	0.16989
2726.99014	0.16831
2725.06157	0.16674
2723.13301	0.16503
2721.20444	0.16332
2719.27588	0.16181
2717.34731	0.16046
2715.41875	0.15901
2713.49019	0.15749
2711.56162	0.15611
2709.63306	0.15469
2707.70449	0.15323
2705.77593	0.15196
2703.84736	0.15078
2701.91880	0.14954
2699.99023	0.14831
2698.06167	0.14717
2696.13311	0.14616
2694.20454	0.14531
2692.27598	0.14449
2690.34741	0.14358
2688.41885	0.14258
2686.49028	0.14152
2684.56172	0.14045
2682.63315	0.13948
2680.70459	0.13870
2678.77603	0.13794
2676.84746	0.13712
2674.91890	0.13641
2672.99033	0.13578
2671.06177	0.13499
2669.13320	0.13410
2667.20464	0.13336
2665.27607	0.13277
2663.34751	0.13219
2661.41895	0.13157
2659.49038	0.13100
2657.56182	0.13063
2655.63325	0.13038
2653.70469	0.13006
2651.77612	0.12960
2649.84756	0.12900
2647.91899	0.12846
2645.99043	0.12811
2644.06187	0.12784
2642.13330	0.12767
2640.20474	0.12753
2638.27617	0.12716
2636.34761	0.12673
2634.41904	0.12651
2632.49048	0.12648
2630.56191	0.12646
2628.63335	0.12637
2626.70479	0.12625
2624.77622	0.12615
2622.84766	0.12608
2620.91909	0.12614
2618.99053	0.12623
2617.06196	0.12615
2615.13340	0.12609
2613.20483	0.12613
2611.27627	0.12603
2609.34771	0.12592
2607.41914	0.12600
2605.49058	0.12611
2603.56201	0.12619
2601.63345	0.12637
2599.70488	0.12682
2597.77632	0.12746
2595.84775	0.12789
2593.91919	0.12807
2591.99062	0.12824
2590.06206	0.12835
2588.13350	0.12853
2586.20493	0.12892
2584.27637	0.12927
2582.34780	0.12948
2580.41924	0.12980
2578.49067	0.13026
2576.56211	0.13078
2574.63354	0.13134
2572.70498	0.13185
2570.77642	0.13228
2568.84785	0.13270
2566.91929	0.13315
2564.99072	0.13367
2563.06216	0.13427
2561.13359	0.13490
2559.20503	0.13551
2557.27646	0.13599
2555.34790	0.13650
2553.41934	0.13720
2551.49077	0.13787
2549.56221	0.13836
2547.63364	0.13890
2545.70508	0.13959
2543.77651	0.14030
2541.84795	0.14103
2539.91938	0.14179
2537.99082	0.14247
2536.06226	0.14320
2534.13369	0.14404
2532.20513	0.14484
2530.27656	0.14561
2528.34800	0.14632
2526.41943	0.14698
2524.49087	0.14774
2522.56230	0.14879
2520.63374	0.14995
2518.70518	0.15087
2516.77661	0.15156
2514.84805	0.15221
2512.91948	0.15295
2510.99092	0.15384
2509.06235	0.15476
2507.13379	0.15555
2505.20522	0.15634
2503.27666	0.15734
2501.34810	0.15844
2499.41953	0.15949
2497.49097	0.16049
2495.56240	0.16134
2493.63384	0.16209
2491.70527	0.16294
2489.77671	0.16390
2487.84814	0.16486
2485.91958	0.16583
2483.99102	0.16671
2482.06245	0.16742
2480.13389	0.16818
2478.20532	0.16927
2476.27676	0.17050
2474.34819	0.17154
2472.41963	0.17241
2470.49106	0.17325
2468.56250	0.17418
2466.63394	0.17524
2464.70537	0.17636
2462.77681	0.17734
2460.84824	0.17819
2458.91968	0.17917
2456.99111	0.18034
2455.06255	0.18146
2453.13398	0.18246
2451.20542	0.18352
2449.27686	0.18473
2447.34829	0.18597
2445.41973	0.18704
2443.49116	0.18801
2441.56260	0.18907
2439.63403	0.19019
2437.70547	0.19123
2435.77690	0.19226
2433.84834	0.19348
2431.91978	0.19477
2429.99121	0.19593
2428.06265	0.19712
2426.13408	0.19836
2424.20552	0.19950
2422.27695	0.20054
2420.34839	0.20163
2418.41982	0.20285
2416.49126	0.20416
2414.56270	0.20548
2412.63413	0.20671
2410.70557	0.20787
2408.77700	0.20912
2406.84844	0.21038
2404.91987	0.21150
2402.99131	0.21264
2401.06274	0.21397
2399.13418	0.21536
2397.20562	0.21666
2395.27705	0.21795
2393.34849	0.21936
2391.41992	0.22084
2389.49136	0.22235
2387.56279	0.22417
2385.63423	0.22666
2383.70566	0.23012
2381.77710	0.23468
2379.84854	0.24014
2377.91997	0.24609
2375.99141	0.25236
2374.06284	0.25934
2372.13428	0.26730
2370.20571	0.27618
2368.27715	0.28579
2366.34858	0.29530
2364.42002	0.30302
2362.49146	0.30817
2360.56289	0.31125
2358.63433	0.31222
2356.70576	0.31007
2354.77720	0.30534
2352.84863	0.29930
2350.92007	0.29263
2348.99150	0.28865
2347.06294	0.28998
2345.13437	0.29665
2343.20581	0.30494
2341.27725	0.30943
2339.34868	0.31053
2337.42012	0.31103
2335.49155	0.31181
2333.56299	0.31230
2331.63442	0.31208
2329.70586	0.31164
2327.77729	0.31164
2325.84873	0.31169
2323.92017	0.31145
2321.99160	0.31061
2320.06304	0.30915
2318.13447	0.30773
2316.20591	0.30657
2314.27734	0.30599
2312.34878	0.30624
2310.42021	0.30661
2308.49165	0.30646
2306.56309	0.30595
2304.63452	0.30566
2302.70596	0.30614
2300.77739	0.30708
2298.84883	0.30786
2296.92026	0.30872
2294.99170	0.30985
2293.06313	0.31098
2291.13457	0.31211
2289.20601	0.31320
2287.27744	0.31422
2285.34888	0.31543
2283.42031	0.31704
2281.49175	0.31900
2279.56318	0.32120
2277.63462	0.32354
2275.70605	0.32583
2273.77749	0.32799
2271.84893	0.33016
2269.92036	0.33233
2267.99180	0.33446
2266.06323	0.33654
2264.13467	0.33856
2262.20610	0.34065
2260.27754	0.34281
2258.34897	0.34492
2256.42041	0.34686
2254.49185	0.34867
2252.56328	0.35054
2250.63472	0.35264
2248.70615	0.35494
2246.77759	0.35720
2244.84902	0.35939
2242.92046	0.36169
2240.99189	0.36404
2239.06333	0.36631
2237.13477	0.36850
2235.20620	0.37067
2233.27764	0.37290
2231.34907	0.37518
2229.42051	0.37737
2227.49194	0.37947
2225.56338	0.38164
2223.63481	0.38385
2221.70625	0.38612
2219.77769	0.38853
2217.84912	0.39097
2215.92056	0.39323
2213.99199	0.39534
2212.06343	0.39748
2210.13486	0.39970
2208.20630	0.40186
2206.27773	0.40390
2204.34917	0.40597
2202.42061	0.40815
2200.49204	0.41041
2198.56348	0.41258
2196.63491	0.41457
2194.70635	0.41646
2192.77778	0.41825
2190.84922	0.42000
2188.92065	0.42193
2186.99209	0.42404
2185.06353	0.42605
2183.13496	0.42781
2181.20640	0.42948
2179.27783	0.43117
2177.34927	0.43286
2175.42070	0.43444
2173.49214	0.43588
2171.56357	0.43732
2169.63501	0.43888
2167.70645	0.44039
2165.77788	0.44169
2163.84932	0.44290
2161.92075	0.44409
2159.99219	0.44526
2158.06362	0.44635
2156.13506	0.44732
2154.20649	0.44814
2152.27793	0.44891
2150.34937	0.44974
2148.42080	0.45054
2146.49224	0.45115
2144.56367	0.45156
2142.63511	0.45195
2140.70654	0.45231
2138.77798	0.45254
2136.84941	0.45267
2134.92085	0.45282
2132.99229	0.45292
2131.06372	0.45287
2129.13516	0.45272
2127.20659	0.45249
2125.27803	0.45207
2123.34946	0.45152
2121.42090	0.45105
2119.49233	0.45064
2117.56377	0.45008
2115.63521	0.44933
2113.70664	0.44855
2111.77808	0.44772
2109.84951	0.44670
2107.92095	0.44561
2105.99238	0.44453
2104.06382	0.44340
2102.13525	0.44215
2100.20669	0.44084
2098.27812	0.43946
2096.34956	0.43797
2094.42100	0.43637
2092.49243	0.43472
2090.56387	0.43306
2088.63530	0.43131
2086.70674	0.42944
2084.77817	0.42753
2082.84961	0.42566
2080.92104	0.42378
2078.99248	0.42186
2077.06392	0.41983
2075.13535	0.41764
2073.20679	0.41537
2071.27822	0.41312
2069.34966	0.41084
2067.42109	0.40851
2065.49253	0.40618
2063.56396	0.40371
2061.63540	0.40113
2059.70684	0.39861
2057.77827	0.39618
2055.84971	0.39370
2053.92114	0.39113
2051.99258	0.38858
2050.06401	0.38601
2048.13545	0.38338
2046.20688	0.38065
2044.27832	0.37789
2042.34976	0.37522
2040.42119	0.37259
2038.49263	0.36983
2036.56406	0.36704
2034.63550	0.36439
2032.70693	0.36175
2030.77837	0.35902
2028.84980	0.35619
2026.92124	0.35340
2024.99268	0.35068
2023.06411	0.34803
2021.13555	0.34538
2019.20698	0.34272
2017.27842	0.34002
2015.34985	0.33716
2013.42129	0.33428
2011.49272	0.33147
2009.56416	0.32870
2007.63560	0.32595
2005.70703	0.32322
2003.77847	0.32060
2001.84990	0.31807
1999.92134	0.31555
1997.99277	0.31293
1996.06421	0.31033
1994.13564	0.30793
1992.20708	0.30560
1990.27852	0.30312
1988.34995	0.30059
1986.42139	0.29803
1984.49282	0.29546
1982.56426	0.29300
1980.63569	0.29065
1978.70713	0.28833
1976.77856	0.28601
1974.85000	0.28383
1972.92144	0.28181
1970.99287	0.27980
1969.06431	0.27780
1967.13574	0.27583
1965.20718	0.27376
1963.27861	0.27163
1961.35005	0.26961
1959.42148	0.26768
1957.49292	0.26587
1955.56436	0.26416
1953.63579	0.26251
1951.70723	0.26083
1949.77866	0.25913
1947.85010	0.25750
1945.92153	0.25607
1943.99297	0.25488
1942.06440	0.25366
1940.13584	0.25204
1938.20728	0.25026
1936.27871	0.24867
1934.35015	0.24733
1932.42158	0.24624
1930.49302	0.24519
1928.56445	0.24414
1926.63589	0.24316
1924.70732	0.24239
1922.77876	0.24161
1920.85020	0.24067
1918.92163	0.23981
1916.99307	0.23894
1915.06450	0.23778
1913.13594	0.23667
1911.20737	0.23596
1909.27881	0.23545
1907.35024	0.23477
1905.42168	0.23389
1903.49312	0.23316
1901.56455	0.23262
1899.63599	0.23217
1897.70742	0.23186
1895.77886	0.23160
1893.85029	0.23120
1891.92173	0.23084
1889.99316	0.23084
1888.06460	0.23073
1886.13604	0.23025
1884.20747	0.22980
1882.27891	0.22955
1880.35034	0.22952
1878.42178	0.22957
1876.49321	0.22959
1874.56465	0.22962
1872.63608	0.22992
1870.70752	0.23067
1868.77896	0.23164
1866.85039	0.23180
1864.92183	0.23117
1862.99326	0.23079
1861.06470	0.23102
1859.13613	0.23158
1857.20757	0.23200
1855.27900	0.23233
1853.35044	0.23268
1851.42187	0.23320
1849.49331	0.23398
1847.56475	0.23497
1845.63618	0.23606
1843.70762	0.23711
1841.77905	0.23762
1839.85049	0.23783
1837.92192	0.23851
1835.99336	0.23944
1834.06479	0.24040
1832.13623	0.24165
1830.20767	0.24348
1828.27910	0.24504
1826.35054	0.24596
1824.42197	0.24716
1822.49341	0.24829
1820.56484	0.24929
1818.63628	0.25047
1816.70771	0.25194
1814.77915	0.25364
1812.85059	0.25572
1810.92202	0.25804
1808.99346	0.26003
1807.06489	0.26182
1805.13633	0.26374
1803.20776	0.26612
1801.27920	0.26889
1799.35063	0.27180
1797.42207	0.27430
1795.49351	0.27682
1793.56494	0.28002
1791.63638	0.28388
1789.70781	0.28691
1787.77925	0.28899
1785.85068	0.29196
1783.92212	0.29584
1781.99355	0.30003
1780.06499	0.30436
1778.13643	0.30869
1776.20786	0.31284
1774.27930	0.31755
1772.35073	0.32389
1770.42217	0.33025
1768.49360	0.33512
1766.56504	0.33978
1764.63647	0.34492
1762.70791	0.35099
1760.77935	0.35869
1758.85078	0.36588
1756.92222	0.37306
1754.99365	0.38078
1753.06509	0.38797
1751.13652	0.39690
1749.20796	0.40795
1747.27939	0.41830
1745.35083	0.42722
1743.42227	0.43674
1741.49370	0.44733
1739.56514	0.45980
1737.63657	0.47234
1735.70801	0.48366
1733.77944	0.50057
1731.85088	0.52010
1729.92231	0.53535
1727.99375	0.55085
1726.06519	0.56771
1724.13662	0.58635
1722.20806	0.60659
1720.27949	0.62563
1718.35093	0.64814
1716.42236	0.68014
1714.49380	0.70974
1712.56523	0.73379
1710.63667	0.75748
1708.70811	0.78325
1706.77954	0.81257
1704.85098	0.84696
1702.92241	0.87745
1700.99385	0.90791
1699.06528	0.95232
1697.13672	0.99208
1695.20815	1.03181
1693.27959	1.07061
1691.35103	1.10233
1689.42246	1.13871
1687.49390	1.17661
1685.56533	1.21339
1683.63677	1.26841
1681.70820	1.32371
1679.77964	1.35937
1677.85107	1.39372
1675.92251	1.43382
1673.99395	1.48312
1672.06538	1.52623
1670.13682	1.56736
1668.20825	1.61932
1666.27969	1.66139
1664.35112	1.69628
1662.42256	1.73783
1660.49399	1.78417
1658.56543	1.82219
1656.63687	1.85414
1654.70830	1.88404
1652.77974	1.93260
1650.85117	1.98202
1648.92261	2.00365
1646.99404	2.03094
1645.06548	2.06400
1643.13691	2.08722
1641.20835	2.10141
1639.27979	2.11314
1637.35122	2.12112
1635.42266	2.12424
1633.49409	2.12145
1631.56553	2.11175
1629.63696	2.09811
1627.70840	2.07583
1625.77983	2.04968
1623.85127	2.01589
1621.92271	1.97284
1619.99414	1.93282
1618.06558	1.89334
1616.13701	1.83899
1614.20845	1.78294
1612.27988	1.73835
1610.35132	1.69138
1608.42275	1.64054
1606.49419	1.59025
1604.56562	1.54337
1602.63706	1.49784
1600.70850	1.45286
1598.77993	1.41062
1596.85137	1.37056
1594.92280	1.33185
1592.99424	1.29444
1591.06567	1.25971
1589.13711	1.22682
1587.20854	1.19577
1585.27998	1.16644
1583.35142	1.13838
1581.42285	1.11222
1579.49429	1.08951
1577.56572	1.06895
1575.63716	1.04367
1573.70859	1.02020
1571.78003	1.00395
1569.85146	0.98646
1567.92290	0.96615
1565.99434	0.94946
1564.06577	0.93518
1562.13721	0.92342
1560.20864	0.91374
1558.28008	0.89606
1556.35151	0.87799
1554.42295	0.86637
1552.49438	0.85530
1550.56582	0.84493
1548.63726	0.83476
1546.70869	0.82590
1544.78013	0.81856
1542.85156	0.81192
1540.92300	0.80423
1538.99443	0.79183
1537.06587	0.78175
1535.13730	0.77562
1533.20874	0.76878
1531.28018	0.76078
1529.35161	0.75446
1527.42305	0.74910
1525.49448	0.74369
1523.56592	0.73870
1521.63735	0.73341
1519.70879	0.72695
1517.78022	0.72113
1515.85166	0.71511
1513.92310	0.70911
1511.99453	0.70460
1510.06597	0.70156
1508.13740	0.69955
1506.20884	0.69507
1504.28027	0.68860
1502.35171	0.68433
1500.42314	0.68129
1498.49458	0.67861
1496.56602	0.67530
1494.63745	0.67137
1492.70889	0.66829
1490.78032	0.66619
1488.85176	0.66355
1486.92319	0.65987
1484.99463	0.65622
1483.06606	0.65303
1481.13750	0.65013
1479.20894	0.64753
1477.28037	0.64540
1475.35181	0.64352
1473.42324	0.64140
1471.49468	0.63778
1469.56611	0.63356
1467.63755	0.63051
1465.70898	0.62835
1463.78042	0.62601
1461.85186	0.62373
1459.92329	0.62253
1457.99473	0.62174
1456.06616	0.61899
1454.13760	0.61530
1452.20903	0.61272
1450.28047	0.61090
1448.35190	0.60949
1446.42334	0.60786
1444.49478	0.60595
1442.56621	0.60439
1440.63765	0.60320
1438.70908	0.60211
1436.78052	0.60080
1434.85195	0.59915
1432.92339	0.59756
1430.99482	0.59621
1429.06626	0.59475
1427.13770	0.59313
1425.20913	0.59180
1423.28057	0.59059
1421.35200	0.58937
1419.42344	0.58828
1417.49487	0.58667
1415.56631	0.58447
1413.63774	0.58272
1411.70918	0.58140
1409.78062	0.57997
1407.85205	0.57862
1405.92349	0.57761
1403.99492	0.57635
1402.06636	0.57483
1400.13779	0.57369
1398.20923	0.57284
1396.28066	0.57190
1394.35210	0.57051
1392.42354	0.56867
1390.49497	0.56706
1388.56641	0.56598
1386.63784	0.56491
1384.70928	0.56342
1382.78071	0.56197
1380.85215	0.56087
1378.92358	0.56005
1376.99502	0.55942
1375.06646	0.55888
1373.13789	0.55788
1371.20933	0.55650
1369.28076	0.55528
1367.35220	0.55409
1365.42363	0.55308
1363.49507	0.55264
1361.56650	0.55210
1359.63794	0.55087
1357.70937	0.54961
1355.78081	0.54861
1353.85225	0.54769
1351.92368	0.54682
1349.99512	0.54600
1348.06655	0.54513
1346.13799	0.54419
1344.20942	0.54332
1342.28086	0.54263
1340.35229	0.54209
1338.42373	0.54131
1336.49517	0.54000
1334.56660	0.53862
1332.63804	0.53753
1330.70947	0.53669
1328.78091	0.53594
1326.85234	0.53512
1324.92378	0.53414
1322.99521	0.53315
1321.06665	0.53232
1319.13809	0.53159
1317.20952	0.53074
1315.28096	0.52977
1313.35239	0.52880
1311.42383	0.52789
1309.49526	0.52709
1307.56670	0.52626
1305.63813	0.52529
1303.70957	0.52429
1301.78101	0.52340
1299.85244	0.52271
1297.92388	0.52198
1295.99531	0.52098
1294.06675	0.51989
1292.13818	0.51896
1290.20962	0.51822
1288.28105	0.51760
1286.35249	0.51690
1284.42393	0.51607
1282.49536	0.51533
1280.56680	0.51478
1278.63823	0.51422
1276.70967	0.51349
1274.78110	0.51267
1272.85254	0.51189
1270.92397	0.51114
1268.99541	0.51024
1267.06685	0.50926
1265.13828	0.50839
1263.20972	0.50774
1261.28115	0.50714
1259.35259	0.50644
1257.42402	0.50573
1255.49546	0.50509
1253.56689	0.50444
1251.63833	0.50381
1249.70977	0.50331
1247.78120	0.50279
1245.85264	0.50222
1243.92407	0.50162
1241.99551	0.50085
1240.06694	0.49990
1238.13838	0.49905
1236.20981	0.49841
1234.28125	0.49771
1232.35269	0.49685
1230.42412	0.49596
1228.49556	0.49513
1226.56699	0.49443
1224.63843	0.49385
1222.70986	0.49318
1220.78130	0.49228
1218.85273	0.49134
1216.92417	0.49047
1214.99561	0.48971
1213.06704	0.48891
1211.13848	0.48795
1209.20991	0.48694
1207.28135	0.48604
1205.35278	0.48523
1203.42422	0.48450
1201.49565	0.48371
1199.56709	0.48288
1197.63853	0.48208
1195.70996	0.48107
1193.78140	0.47986
1191.85283	0.47880
1189.92427	0.47787
1187.99570	0.47686
1186.06714	0.47583
1184.13857	0.47488
1182.21001	0.47386
1180.28145	0.47282
1178.35288	0.47204
1176.42432	0.47143
1174.49575	0.47069
1172.56719	0.46970
1170.63862	0.46863
1168.71006	0.46755
1166.78149	0.46643
1164.85293	0.46539
1162.92437	0.46450
1160.99580	0.46371
1159.06724	0.46299
1157.13867	0.46230
1155.21011	0.46163
1153.28154	0.46099
1151.35298	0.46028
1149.42441	0.45947
1147.49585	0.45867
1145.56729	0.45783
1143.63872	0.45684
1141.71016	0.45577
1139.78159	0.45487
1137.85303	0.45405
1135.92446	0.45321
1133.99590	0.45259
1132.06733	0.45201
1130.13877	0.45124
1128.21021	0.45033
1126.28164	0.44942
1124.35308	0.44864
1122.42451	0.44795
1120.49595	0.44731
1118.56738	0.44676
1116.63882	0.44616
1114.71025	0.44550
1112.78169	0.44499
1110.85312	0.44466
1108.92456	0.44440
1106.99600	0.44407
1105.06743	0.44352
1103.13887	0.44292
1101.21030	0.44251
1099.28174	0.44224
1097.35317	0.44195
1095.42461	0.44172
1093.49604	0.44150
1091.56748	0.44110
1089.63892	0.44064
1087.71035	0.44050
1085.78179	0.44053
1083.85322	0.44036
1081.92466	0.44002
1079.99609	0.43976
1078.06753	0.43964
1076.13896	0.43942
1074.21040	0.43903
1072.28184	0.43890
1070.35327	0.43924
1068.42471	0.43954
1066.49614	0.43953
1064.56758	0.43965
1062.63901	0.44005
1060.71045	0.44040
1058.78188	0.44049
1056.85332	0.44056
1054.92476	0.44089
1052.99619	0.44138
1051.06763	0.44176
1049.13906	0.44208
1047.21050	0.44246
1045.28193	0.44294
1043.35337	0.44339
1041.42480	0.44379
1039.49624	0.44424
1037.56768	0.44485
1035.63911	0.44565
1033.71055	0.44645
1031.78198	0.44726
1029.85342	0.44830
1027.92485	0.44944
1025.99629	0.45055
1024.06772	0.45175
1022.13916	0.45312
1020.21060	0.45453
1018.28203	0.45574
1016.35347	0.45680
1014.42490	0.45799
1012.49634	0.45933
1010.56777	0.46080
1008.63921	0.46248
1006.71064	0.46427
1004.78208	0.46598
1002.85352	0.46759
1000.92495	0.46924
998.99639	0.47114
997.06782	0.47318
995.13926	0.47536
993.21069	0.47788
991.28213	0.48049
989.35356	0.48286
987.42500	0.48522
985.49644	0.48772
983.56787	0.49038
981.63931	0.49331
979.71074	0.49643
977.78218	0.49950
975.85361	0.50260
973.92505	0.50582
971.99648	0.50919
970.06792	0.51279
968.13936	0.51659
966.21079	0.52034
964.28223	0.52402
962.35366	0.52804
960.42510	0.53249
958.49653	0.53705
956.56797	0.54159
954.63940	0.54624
952.71084	0.55122
950.78228	0.55637
948.85371	0.56136
946.92515	0.56632
944.99658	0.57137
943.06802	0.57649
941.13945	0.58222
939.21089	0.58860
937.28232	0.59496
935.35376	0.60125
933.42520	0.60779
931.49663	0.61449
929.56807	0.62133
927.63950	0.62854
925.71094	0.63573
923.78237	0.64249
921.85381	0.64936
919.92524	0.65699
917.99668	0.66538
916.06812	0.67406
914.13955	0.68262
912.21099	0.69120
910.28242	0.69991
908.35386	0.70835
906.42529	0.71663
904.49673	0.72540
902.56816	0.73493
900.63960	0.74527
898.71104	0.75570
896.78247	0.76556
894.85391	0.77548
892.92534	0.78565
890.99678	0.79499
889.06821	0.80365
887.13965	0.81315
885.21108	0.82419
883.28252	0.83579
881.35396	0.84659
879.42539	0.85723
877.49683	0.86875
875.56826	0.88071
873.63970	0.89266
871.71113	0.90501
869.78257	0.91607
867.85400	0.92414
865.92544	0.93346
863.99687	0.94673
862.06831	0.96001
860.13975	0.97182
858.21118	0.98392
856.28262	0.99483
854.35405	1.00452
852.42549	1.01618
850.49692	1.02997
848.56836	1.04402
846.63979	1.05672
844.71123	1.06633
842.78267	1.07381
840.85410	1.08275
838.92554	1.09512
836.99697	1.11039
835.06841	1.12328
833.13984	1.13036
831.21128	1.13715
829.28271	1.14560
827.35415	1.15431
825.42559	1.16399
823.49702	1.17220
821.56846	1.18269
819.63989	1.20231
817.71133	1.22104
815.78276	1.22615
813.85420	1.22542
811.92563	1.23293
809.99707	1.24736
808.06851	1.25441
806.13994	1.24999
804.21138	1.24074
802.28281	1.23420
800.35425	1.23872
798.42568	1.25480
796.49712	1.26868
794.56855	1.28019
792.63999	1.29663
790.71143	1.28983
788.78286	1.26058
786.85430	1.24658
784.92573	1.24992
782.99717	1.25047
781.06860	1.24541
779.14004	1.25678
777.21147	1.29274
775.28291	1.32030
773.35435	1.32155
771.42578	1.30411
769.49722	1.24200
767.56865	1.15425
765.64009	1.09391
763.71152	1.08420
761.78296	1.10215
759.85439	1.10550
757.92583	1.07548
755.99727	1.03716
754.06870	0.99314
752.14014	0.95176
750.21157	0.96840
748.28301	1.02295
746.35444	1.00930
744.42588	0.91020
742.49731	0.80664
740.56875	0.77330
738.64019	0.82065
736.71162	0.82804
734.78306	0.72321
732.85449	0.64515
730.92593	0.62289
728.99736	0.57971
727.06880	0.48197
725.14023	0.40606
723.21167	0.37789
721.28311	0.34021
719.35454	0.30805
717.42598	0.31811
715.49741	0.31412
713.56885	0.27685
711.64028	0.29310
709.71172	0.29967
707.78315	0.13174
705.85459	0.01026
703.92603	0.02643
701.99746	0.05128
700.06890	0.10025
698.14033	0.15700
696.21177	0.15425
694.28320	0.15659
692.35464	0.12518
690.42607	0.06813
688.49751	0.06512
686.56895	0.05925
684.64038	-0.00426
682.71182	-0.02411
680.78325	0.04103
678.85469	0.11169
676.92612	0.11191
674.99756	0.09765
673.06899	0.09771
671.14043	0.09069
669.21187	0.09101
667.28330	0.11049
665.35474	0.10964
663.42617	0.07016
661.49761	0.06258
659.56904	0.09767
657.64048	0.12268
655.71191	0.11049
653.78335	0.09312
651.85479	0.07825
649.92622	0.08075
647.99766	0.12714
646.06909	0.21617
644.14053	0.23940
642.21196	0.14531
640.28340	0.06891
638.35483	0.03082
636.42627	0.02262
634.49771	0.06581
632.56914	0.10512
630.64058	0.09469
628.71201	0.12668
626.78345	0.21578
624.85488	0.23864
622.92632	0.18313
620.99775	0.14508
619.06919	0.12768
617.14062	0.12579
615.21206	0.14504
613.28350	0.11611
611.35493	0.02767
609.42637	0.03810
607.49780	0.09096
605.56924	0.12556
603.64067	0.13278
601.71211	0.07714
599.78354	0.04555
597.85498	0.07676
595.92642	0.08841
593.99785	0.09934
592.06929	0.15630
590.14072	0.20537
588.21216	0.22935
586.28359	0.24561
584.35503	0.22330
582.42646	0.18902
580.49790	0.18663
578.56934	0.14820
576.64077	0.07218
574.71221	0.05476
572.78364	0.11218
570.85508	0.12016
568.92651	0.10499
566.99795	0.11911
565.06938	0.13235
563.14082	0.13714
561.21226	0.14471
559.28369	0.16425
557.35513	0.18838
555.42656	0.25599
553.49800	0.37889
551.56943	0.32356
549.64087	0.23599
547.71230	0.23094
545.78374	0.25478
543.85518	0.25915
541.92661	0.27514
539.99805	0.27720
538.06948	0.16987
536.14092	0.04494
534.21235	-0.01977
532.28379	-0.03107
530.35522	0.00438
528.42666	0.04042
526.49810	0.04761
524.56953	0.06801
522.64097	0.10651
520.71240	0.12459
518.78384	0.13100
516.85527	0.13297
514.92671	0.12877
512.99814	0.13197
511.06958	0.15275
509.14102	0.16026
507.21245	0.13279
505.28389	0.09105
503.35532	0.06642
501.42676	0.07549
499.49819	0.07875
