3997.91411	0.06819
3995.98555	0.06869
3994.05698	0.06892
3992.12842	0.06900
3990.19985	0.06914
3988.27129	0.06952
3986.34272	0.07015
3984.41416	0.07077
3982.48560	0.07110
3980.55703	0.07117
3978.62847	0.07112
3976.69990	0.07117
3974.77134	0.07147
3972.84277	0.07150
3970.91421	0.07095
3968.98564	0.07040
3967.05708	0.07025
3965.12852	0.07047
3963.19995	0.07123
3961.27139	0.07235
3959.34282	0.07295
3957.41426	0.07283
3955.48569	0.07257
3953.55713	0.07248
3951.62856	0.07295
3949.70000	0.07384
3947.77144	0.07422
3945.84287	0.07381
3943.91431	0.07331
3941.98574	0.07294
3940.05718	0.07244
3938.12861	0.07218
3936.20005	0.07244
3934.27148	0.07292
3932.34292	0.07336
3930.41436	0.07360
3928.48579	0.07350
3926.55723	0.07312
3924.62866	0.07270
3922.70010	0.07249
3920.77153	0.07278
3918.84297	0.07342
3916.91440	0.07366
3914.98584	0.07289
3913.05728	0.07167
3911.12871	0.07093
3909.20015	0.07075
3907.27158	0.07119
3905.34302	0.07281
3903.41445	0.07537
3901.48589	0.07709
3899.55732	0.07677
3897.62876	0.07503
3895.70020	0.07336
3893.77163	0.07308
3891.84307	0.07408
3889.91450	0.07454
3887.98594	0.07400
3886.05737	0.07444
3884.12881	0.07567
3882.20024	0.07597
3880.27168	0.07545
3878.34312	0.07426
3876.41455	0.07334
3874.48599	0.07397
3872.55742	0.07565
3870.62886	0.07703
3868.70029	0.07739
3866.77173	0.07698
3864.84316	0.07725
3862.91460	0.07817
3860.98604	0.07803
3859.05747	0.07720
3857.12891	0.07744
3855.20034	0.07969
3853.27178	0.08381
3851.34321	0.08530
3849.41465	0.08225
3847.48608	0.07985
3845.55752	0.07993
3843.62896	0.08152
3841.70039	0.08312
3839.77183	0.08476
3837.84326	0.08639
3835.91470	0.08649
3833.98613	0.08586
3832.05757	0.08574
3830.12900	0.08539
3828.20044	0.08491
3826.27187	0.08523
3824.34331	0.08646
3822.41475	0.08893
3820.48618	0.09243
3818.55762	0.09390
3816.62905	0.09372
3814.70049	0.09338
3812.77192	0.09208
3810.84336	0.09114
3808.91479	0.09175
3806.98623	0.09398
3805.05767	0.09663
3803.12910	0.09908
3801.20054	0.10250
3799.27197	0.10442
3797.34341	0.10332
3795.41484	0.10227
3793.48628	0.10203
3791.55771	0.10240
3789.62915	0.10326
3787.70059	0.10438
3785.77202	0.10599
3783.84346	0.10790
3781.91489	0.10967
3779.98633	0.11172
3778.05776	0.11358
3776.12920	0.11419
3774.20063	0.11483
3772.27207	0.11659
3770.34351	0.11904
3768.41494	0.12154
3766.48638	0.12379
3764.55781	0.12601
3762.62925	0.12757
3760.70068	0.12909
3758.77212	0.13197
3756.84355	0.13497
3754.91499	0.13706
3752.98643	0.14024
3751.05786	0.14593
3749.12930	0.15165
3747.20073	0.15414
3745.27217	0.15582
3743.34360	0.15868
3741.41504	0.16154
3739.48647	0.16416
3737.55791	0.16839
3735.62935	0.17553
3733.70078	0.18312
3731.77222	0.18736
3729.84365	0.19006
3727.91509	0.19364
3725.98652	0.19908
3724.05796	0.20581
3722.12939	0.21218
3720.20083	0.21753
3718.27227	0.22240
3716.34370	0.22799
3714.41514	0.23507
3712.48657	0.24510
3710.55801	0.25929
3708.62944	0.27349
3706.70088	0.28435
3704.77231	0.29449
3702.84375	0.30692
3700.91519	0.32348
3698.98662	0.34138
3697.05806	0.35821
3695.12949	0.37627
3693.20093	0.39607
3691.27236	0.41814
3689.34380	0.44584
3687.41523	0.47822
3685.48667	0.50664
3683.55811	0.53189
3681.62954	0.55934
3679.70098	0.59043
3677.77241	0.62376
3675.84385	0.66368
3673.91528	0.71581
3671.98672	0.75800
3670.05815	0.79559
3668.12959	0.84650
3666.20103	0.89346
3664.27246	0.93335
3662.34390	0.97638
3660.41533	1.02273
3658.48677	1.06803
3656.55820	1.11624
3654.62964	1.17038
3652.70107	1.21710
3650.77251	1.25910
3648.84395	1.31510
3646.91538	1.38005
3644.98682	1.42766
3643.05825	1.46548
3641.12969	1.50532
3639.20112	1.54948
3637.27256	1.59371
3635.34399	1.63665
3633.41543	1.67998
3631.48687	1.72155
3629.55830	1.76426
3627.62974	1.81729
3625.70117	1.86414
3623.77261	1.89611
3621.84404	1.92830
3619.91548	1.96689
3617.98691	2.01400
3616.05835	2.05780
3614.12979	2.09311
3612.20122	2.12999
3610.27266	2.16786
3608.34409	2.20725
3606.41553	2.24962
3604.48696	2.28858
3602.55840	2.32318
3600.62983	2.36139
3598.70127	2.40353
3596.77271	2.44379
3594.84414	2.48371
3592.91558	2.52450
3590.98701	2.56235
3589.05845	2.59860
3587.12988	2.64261
3585.20132	2.69035
3583.27275	2.73126
3581.34419	2.76940
3579.41562	2.81004
3577.48706	2.85232
3575.55850	2.89412
3573.62993	2.93658
3571.70137	2.97794
3569.77280	3.01837
3567.84424	3.06249
3565.91567	3.11402
3563.98711	3.16238
3562.05854	3.20444
3560.12998	3.24823
3558.20142	3.29359
3556.27285	3.33730
3554.34429	3.37932
3552.41572	3.42548
3550.48716	3.47514
3548.55859	3.52273
3546.63003	3.56906
3544.70146	3.61629
3542.77290	3.66108
3540.84434	3.70401
3538.91577	3.75003
3536.98721	3.79872
3535.05864	3.84883
3533.13008	3.89845
3531.20151	3.94668
3529.27295	3.99384
3527.34438	4.04184
3525.41582	4.08866
3523.48726	4.13298
3521.55869	4.17903
3519.63013	4.22664
3517.70156	4.27468
3515.77300	4.32049
3513.84443	4.36701
3511.91587	4.42067
3509.98730	4.47757
3508.05874	4.52812
3506.13018	4.56927
3504.20161	4.60694
3502.27305	4.65020
3500.34448	4.70030
3498.41592	4.74955
3496.48735	4.80035
3494.55879	4.85702
3492.63022	4.91149
3490.70166	4.95925
3488.77310	5.00757
3486.84453	5.05783
3484.91597	5.10223
3482.98740	5.14406
3481.05884	5.19201
3479.13027	5.24338
3477.20171	5.29612
3475.27314	5.34682
3473.34458	5.38762
3471.41602	5.42091
3469.48745	5.45682
3467.55889	5.50391
3465.63032	5.55572
3463.70176	5.60336
3461.77319	5.65654
3459.84463	5.72464
3457.91606	5.79466
3455.98750	5.84785
3454.05894	5.88222
3452.13037	5.91708
3450.20181	5.96646
3448.27324	6.01895
3446.34468	6.07328
3444.41611	6.13386
3442.48755	6.18665
3440.55898	6.22487
3438.63042	6.26039
3436.70186	6.29770
3434.77329	6.34430
3432.84473	6.40320
3430.91616	6.45352
3428.98760	6.49472
3427.05903	6.53653
3425.13047	6.59364
3423.20190	6.66214
3421.27334	6.70670
3419.34478	6.73466
3417.41621	6.79053
3415.48765	6.87316
3413.55908	6.93075
3411.63052	6.94269
3409.70195	6.94846
3407.77339	6.98734
3405.84482	7.04384
3403.91626	7.09348
3401.98770	7.14774
3400.05913	7.21808
3398.13057	7.26505
3396.20200	7.28137
3394.27344	7.32238
3392.34487	7.38200
3390.41631	7.43624
3388.48774	7.45273
3386.55918	7.43284
3384.63062	7.43278
3382.70205	7.45940
3380.77349	7.49377
3378.84492	7.54445
3376.91636	7.62658
3374.98779	7.72458
3373.05923	7.77662
3371.13066	7.73271
3369.20210	7.68656
3367.27354	7.71497
3365.34497	7.75941
3363.41641	7.76154
3361.48784	7.77434
3359.55928	7.82839
3357.63071	7.82863
3355.70215	7.78373
3353.77358	7.82181
3351.84502	7.93384
3349.91646	7.95958
3347.98789	7.91592
3346.05933	7.93061
3344.13076	7.97642
3342.20220	8.00657
3340.27363	8.01135
3338.34507	7.94923
3336.41650	7.87559
3334.48794	7.91426
3332.55937	8.01751
3330.63081	8.05371
3328.70225	7.98704
3326.77368	7.93295
3324.84512	8.00245
3322.91655	8.11297
3320.98799	8.14325
3319.05942	8.10977
3317.13086	8.07508
3315.20229	8.03779
3313.27373	8.00577
3311.34517	7.98767
3309.41660	7.98815
3307.48804	8.00121
3305.55947	7.98154
3303.63091	7.94699
3301.70234	7.94432
3299.77378	7.98426
3297.84521	8.02633
3295.91665	8.04290
3293.98809	8.05897
3292.05952	8.11779
3290.13096	8.16089
3288.20239	8.09688
3286.27383	8.05826
3284.34526	8.13432
3282.41670	8.17010
3280.48813	8.11659
3278.55957	8.14960
3276.63101	8.18678
3274.70244	8.07068
3272.77388	8.00476
3270.84531	8.10372
3268.91675	8.20117
3266.98818	8.18163
3265.05962	8.10021
3263.13105	8.01485
3261.20249	7.98527
3259.27393	7.98806
3257.34536	8.02687
3255.41680	8.12967
3253.48823	8.15572
3251.55967	8.06846
3249.63110	8.00896
3247.70254	8.02230
3245.77397	8.11379
3243.84541	8.23887
3241.91685	8.24196
3239.98828	8.16614
3238.05972	8.19193
3236.13115	8.25856
3234.20259	8.23048
3232.27402	8.17357
3230.34546	8.11598
3228.41689	8.06049
3226.48833	8.06250
3224.55977	8.05092
3222.63120	7.97385
3220.70264	7.91321
3218.77407	7.89320
3216.84551	7.84955
3214.91694	7.81306
3212.98838	7.84108
3211.05981	7.87859
3209.13125	7.86397
3207.20269	7.80714
3205.27412	7.76825
3203.34556	7.73902
3201.41699	7.69648
3199.48843	7.67722
3197.55986	7.66152
3195.63130	7.65409
3193.70273	7.68928
3191.77417	7.67801
3189.84561	7.56353
3187.91704	7.46110
3185.98848	7.45628
3184.05991	7.48408
3182.13135	7.43148
3180.20278	7.30007
3178.27422	7.16149
3176.34565	7.09216
3174.41709	7.10050
3172.48853	7.11153
3170.55996	7.08909
3168.63140	7.02644
3166.70283	6.93442
3164.77427	6.85533
3162.84570	6.79130
3160.91714	6.73100
3158.98857	6.67719
3157.06001	6.62241
3155.13145	6.55877
3153.20288	6.48063
3151.27432	6.38987
3149.34575	6.31129
3147.41719	6.26834
3145.48862	6.23024
3143.56006	6.15625
3141.63149	6.07087
3139.70293	5.99548
3137.77437	5.92356
3135.84580	5.85983
3133.91724	5.79803
3131.98867	5.72399
3130.06011	5.64789
3128.13154	5.58528
3126.20298	5.52869
3124.27441	5.46009
3122.34585	5.37654
3120.41729	5.29059
3118.48872	5.21330
3116.56016	5.14572
3114.63159	5.08211
3112.70303	5.02007
3110.77446	4.95529
3108.84590	4.88419
3106.91733	4.81205
3104.98877	4.74284
3103.06021	4.67630
3101.13164	4.60921
3099.20308	4.54045
3097.27451	4.47015
3095.34595	4.40060
3093.41738	4.33607
3091.48882	4.27443
3089.56025	4.21270
3087.63169	4.14915
3085.70312	4.08535
3083.77456	4.02569
3081.84600	3.96748
3079.91743	3.90625
3077.98887	3.84379
3076.06030	3.78137
3074.13174	3.71922
3072.20317	3.65971
3070.27461	3.60163
3068.34604	3.54212
3066.41748	3.48284
3064.48892	3.42634
3062.56035	3.37089
3060.63179	3.31534
3058.70322	3.26129
3056.77466	3.20846
3054.84609	3.15616
3052.91753	3.10494
3050.98896	3.05426
3049.06040	3.00304
3047.13184	2.95153
3045.20327	2.90051
3043.27471	2.85046
3041.34614	2.80112
3039.41758	2.75291
3037.48901	2.70652
3035.56045	2.66031
3033.63188	2.61352
3031.70332	2.56696
3029.77476	2.52142
3027.84619	2.47768
3025.91763	2.43517
3023.98906	2.39336
3022.06050	2.35173
3020.13193	2.30965
3018.20337	2.26797
3016.27480	2.22794
3014.34624	2.18952
3012.41768	2.15173
3010.48911	2.11406
3008.56055	2.07669
3006.63198	2.03971
3004.70342	2.00322
3002.77485	1.96770
3000.84629	1.93317
2998.91772	1.89894
2996.98916	1.86490
2995.06060	1.83171
2993.13203	1.80013
2991.20347	1.77001
2989.27490	1.73993
2987.34634	1.70931
2985.41777	1.67920
2983.48921	1.65000
2981.56064	1.62118
2979.63208	1.59312
2977.70352	1.56628
2975.77495	1.53990
2973.84639	1.51348
2971.91782	1.48732
2969.98926	1.46147
2968.06069	1.43620
2966.13213	1.41201
2964.20356	1.38848
2962.27500	1.36449
2960.34644	1.33999
2958.41787	1.31603
2956.48931	1.29296
2954.56074	1.27005
2952.63218	1.24703
2950.70361	1.22425
2948.77505	1.20151
2946.84648	1.17934
2944.91792	1.15842
2942.98936	1.13814
2941.06079	1.11812
2939.13223	1.09826
2937.20366	1.07867
2935.27510	1.05973
2933.34653	1.04090
2931.41797	1.02183
2929.48940	1.00332
2927.56084	0.98565
2925.63228	0.96818
2923.70371	0.95050
2921.77515	0.93287
2919.84658	0.91558
2917.91802	0.89844
2915.98945	0.88175
2914.06089	0.86575
2912.13232	0.85003
2910.20376	0.83460
2908.27520	0.81962
2906.34663	0.80514
2904.41807	0.79087
2902.48950	0.77670
2900.56094	0.76298
2898.63237	0.74967
2896.70381	0.73660
2894.77524	0.72399
2892.84668	0.71211
2890.91812	0.70066
2888.98955	0.68915
2887.06099	0.67766
2885.13242	0.66665
2883.20386	0.65625
2881.27529	0.64636
2879.34673	0.63669
2877.41816	0.62676
2875.48960	0.61663
2873.56104	0.60667
2871.63247	0.59678
2869.70391	0.58661
2867.77534	0.57592
2865.84678	0.56498
2863.91821	0.55437
2861.98965	0.54415
2860.06108	0.53426
2858.13252	0.52489
2856.20396	0.51596
2854.27539	0.50708
2852.34683	0.49838
2850.41826	0.49032
2848.48970	0.48246
2846.56113	0.47434
2844.63257	0.46642
2842.70400	0.45915
2840.77544	0.45243
2838.84687	0.44599
2836.91831	0.43971
2834.98975	0.43353
2833.06118	0.42740
2831.13262	0.42118
2829.20405	0.41495
2827.27549	0.40895
2825.34692	0.40322
2823.41836	0.39753
2821.48979	0.39164
2819.56123	0.38577
2817.63267	0.38011
2815.70410	0.37451
2813.77554	0.36911
2811.84697	0.36390
2809.91841	0.35865
2807.98984	0.35339
2806.06128	0.34818
2804.13271	0.34316
2802.20415	0.33833
2800.27559	0.33348
2798.34702	0.32872
2796.41846	0.32431
2794.48989	0.32006
2792.56133	0.31561
2790.63276	0.31108
2788.70420	0.30676
2786.77563	0.30260
2784.84707	0.29854
2782.91851	0.29466
2780.98994	0.29089
2779.06138	0.28705
2777.13281	0.28315
2775.20425	0.27930
2773.27568	0.27552
2771.34712	0.27183
2769.41855	0.26832
2767.48999	0.26491
2765.56143	0.26165
2763.63286	0.25852
2761.70430	0.25535
2759.77573	0.25206
2757.84717	0.24869
2755.91860	0.24546
2753.99004	0.24255
2752.06147	0.23982
2750.13291	0.23711
2748.20435	0.23442
2746.27578	0.23177
2744.34722	0.22905
2742.41865	0.22623
2740.49009	0.22365
2738.56152	0.22143
2736.63296	0.21917
2734.70439	0.21675
2732.77583	0.21436
2730.84727	0.21210
2728.91870	0.20999
2726.99014	0.20794
2725.06157	0.20596
2723.13301	0.20398
2721.20444	0.20181
2719.27588	0.19958
2717.34731	0.19752
2715.41875	0.19570
2713.49019	0.19416
2711.56162	0.19285
2709.63306	0.19132
2707.70449	0.18940
2705.77593	0.18753
2703.84736	0.18594
2701.91880	0.18450
2699.99023	0.18305
2698.06167	0.18162
2696.13311	0.18028
2694.20454	0.17892
2692.27598	0.17750
2690.34741	0.17622
2688.41885	0.17510
2686.49028	0.17395
2684.56172	0.17270
2682.63315	0.17141
2680.70459	0.17021
2678.77603	0.16913
2676.84746	0.16809
2674.91890	0.16700
2672.99033	0.16579
2671.06177	0.16457
2669.13320	0.16354
2667.20464	0.16269
2665.27607	0.16198
2663.34751	0.16142
2661.41895	0.16074
2659.49038	0.15979
2657.56182	0.15897
2655.63325	0.15845
2653.70469	0.15794
2651.77612	0.15715
2649.84756	0.15617
2647.91899	0.15535
2645.99043	0.15486
2644.06187	0.15446
2642.13330	0.15396
2640.20474	0.15339
2638.27617	0.15280
2636.34761	0.15233
2634.41904	0.15195
2632.49048	0.15150
2630.56191	0.15108
2628.63335	0.15079
2626.70479	0.15060
2624.77622	0.15038
2622.84766	0.15007
2620.91909	0.14979
2618.99053	0.14965
2617.06196	0.14947
2615.13340	0.14919
2613.20483	0.14897
2611.27627	0.14887
2609.34771	0.14882
2607.41914	0.14880
2605.49058	0.14878
2603.56201	0.14879
2601.63345	0.14882
2599.70488	0.14889
2597.77632	0.14897
2595.84775	0.14898
2593.91919	0.14905
2591.99062	0.14920
2590.06206	0.14920
2588.13350	0.14923
2586.20493	0.14955
2584.27637	0.15001
2582.34780	0.15033
2580.41924	0.15050
2578.49067	0.15063
2576.56211	0.15081
2574.63354	0.15103
2572.70498	0.15133
2570.77642	0.15171
2568.84785	0.15208
2566.91929	0.15244
2564.99072	0.15294
2563.06216	0.15356
2561.13359	0.15403
2559.20503	0.15427
2557.27646	0.15453
2555.34790	0.15501
2553.41934	0.15570
2551.49077	0.15635
2549.56221	0.15673
2547.63364	0.15715
2545.70508	0.15789
2543.77651	0.15860
2541.84795	0.15908
2539.91938	0.15967
2537.99082	0.16050
2536.06226	0.16132
2534.13369	0.16195
2532.20513	0.16261
2530.27656	0.16336
2528.34800	0.16389
2526.41943	0.16438
2524.49087	0.16518
2522.56230	0.16610
2520.63374	0.16692
2518.70518	0.16766
2516.77661	0.16836
2514.84805	0.16899
2512.91948	0.16972
2510.99092	0.17064
2509.06235	0.17154
2507.13379	0.17235
2505.20522	0.17312
2503.27666	0.17392
2501.34810	0.17474
2499.41953	0.17560
2497.49097	0.17653
2495.56240	0.17743
2493.63384	0.17825
2491.70527	0.17913
2489.77671	0.18000
2487.84814	0.18072
2485.91958	0.18155
2483.99102	0.18253
2482.06245	0.18339
2480.13389	0.18418
2478.20532	0.18516
2476.27676	0.18626
2474.34819	0.18714
2472.41963	0.18784
2470.49106	0.18869
2468.56250	0.18969
2466.63394	0.19060
2464.70537	0.19144
2462.77681	0.19228
2460.84824	0.19314
2458.91968	0.19412
2456.99111	0.19528
2455.06255	0.19636
2453.13398	0.19725
2451.20542	0.19818
2449.27686	0.19921
2447.34829	0.20018
2445.41973	0.20109
2443.49116	0.20209
2441.56260	0.20319
2439.63403	0.20428
2437.70547	0.20529
2435.77690	0.20631
2433.84834	0.20731
2431.91978	0.20823
2429.99121	0.20923
2428.06265	0.21036
2426.13408	0.21156
2424.20552	0.21271
2422.27695	0.21373
2420.34839	0.21477
2418.41982	0.21597
2416.49126	0.21715
2414.56270	0.21821
2412.63413	0.21919
2410.70557	0.22027
2408.77700	0.22158
2406.84844	0.22279
2404.91987	0.22380
2402.99131	0.22498
2401.06274	0.22634
2399.13418	0.22758
2397.20562	0.22867
2395.27705	0.22980
2393.34849	0.23115
2391.41992	0.23267
2389.49136	0.23415
2387.56279	0.23573
2385.63423	0.23796
2383.70566	0.24122
2381.77710	0.24556
2379.84854	0.25075
2377.91997	0.25647
2375.99141	0.26276
2374.06284	0.26999
2372.13428	0.27850
2370.20571	0.28809
2368.27715	0.29773
2366.34858	0.30617
2364.42002	0.31332
2362.49146	0.31975
2360.56289	0.32487
2358.63433	0.32737
2356.70576	0.32581
2354.77720	0.31989
2352.84863	0.31159
2350.92007	0.30330
2348.99150	0.29862
2347.06294	0.29982
2345.13437	0.30708
2343.20581	0.31648
2341.27725	0.32167
2339.34868	0.32282
2337.42012	0.32274
2335.49155	0.32251
2333.56299	0.32262
2331.63442	0.32306
2329.70586	0.32324
2327.77729	0.32275
2325.84873	0.32147
2323.92017	0.32015
2321.99160	0.31900
2320.06304	0.31742
2318.13447	0.31569
2316.20591	0.31440
2314.27734	0.31389
2312.34878	0.31412
2310.42021	0.31442
2308.49165	0.31432
2306.56309	0.31392
2304.63452	0.31366
2302.70596	0.31389
2300.77739	0.31450
2298.84883	0.31519
2296.92026	0.31608
2294.99170	0.31721
2293.06313	0.31833
2291.13457	0.31935
2289.20601	0.32046
2287.27744	0.32161
2285.34888	0.32269
2283.42031	0.32403
2281.49175	0.32589
2279.56318	0.32811
2277.63462	0.33037
2275.70605	0.33245
2273.77749	0.33445
2271.84893	0.33661
2269.92036	0.33883
2267.99180	0.34096
2266.06323	0.34300
2264.13467	0.34502
2262.20610	0.34707
2260.27754	0.34910
2258.34897	0.35109
2256.42041	0.35304
2254.49185	0.35495
2252.56328	0.35688
2250.63472	0.35892
2248.70615	0.36109
2246.77759	0.36330
2244.84902	0.36553
2242.92046	0.36776
2240.99189	0.36990
2239.06333	0.37193
2237.13477	0.37403
2235.20620	0.37626
2233.27764	0.37851
2231.34907	0.38072
2229.42051	0.38290
2227.49194	0.38501
2225.56338	0.38720
2223.63481	0.38952
2221.70625	0.39184
2219.77769	0.39404
2217.84912	0.39624
2215.92056	0.39846
2213.99199	0.40054
2212.06343	0.40249
2210.13486	0.40458
2208.20630	0.40685
2206.27773	0.40908
2204.34917	0.41110
2202.42061	0.41306
2200.49204	0.41516
2198.56348	0.41728
2196.63491	0.41922
2194.70635	0.42106
2192.77778	0.42292
2190.84922	0.42483
2188.92065	0.42671
2186.99209	0.42847
2185.06353	0.43025
2183.13496	0.43202
2181.20640	0.43365
2179.27783	0.43518
2177.34927	0.43675
2175.42070	0.43831
2173.49214	0.43973
2171.56357	0.44105
2169.63501	0.44256
2167.70645	0.44410
2165.77788	0.44531
2163.84932	0.44634
2161.92075	0.44752
2159.99219	0.44881
2158.06362	0.44997
2156.13506	0.45088
2154.20649	0.45147
2152.27793	0.45202
2150.34937	0.45283
2148.42080	0.45371
2146.49224	0.45436
2144.56367	0.45483
2142.63511	0.45523
2140.70654	0.45551
2138.77798	0.45559
2136.84941	0.45563
2134.92085	0.45584
2132.99229	0.45600
2131.06372	0.45585
2129.13516	0.45549
2127.20659	0.45514
2125.27803	0.45483
2123.34946	0.45448
2121.42090	0.45401
2119.49233	0.45339
2117.56377	0.45273
2115.63521	0.45205
2113.70664	0.45125
2111.77808	0.45032
2109.84951	0.44933
2107.92095	0.44832
2105.99238	0.44728
2104.06382	0.44616
2102.13525	0.44481
2100.20669	0.44333
2098.27812	0.44187
2096.34956	0.44045
2094.42100	0.43898
2092.49243	0.43732
2090.56387	0.43552
2088.63530	0.43374
2086.70674	0.43201
2084.77817	0.43012
2082.84961	0.42807
2080.92104	0.42599
2078.99248	0.42396
2077.06392	0.42191
2075.13535	0.41971
2073.20679	0.41746
2071.27822	0.41530
2069.34966	0.41322
2067.42109	0.41109
2065.49253	0.40884
2063.56396	0.40635
2061.63540	0.40371
2059.70684	0.40115
2057.77827	0.39862
2055.84971	0.39606
2053.92114	0.39356
2051.99258	0.39098
2050.06401	0.38833
2048.13545	0.38571
2046.20688	0.38295
2044.27832	0.38014
2042.34976	0.37746
2040.42119	0.37480
2038.49263	0.37207
2036.56406	0.36937
2034.63550	0.36677
2032.70693	0.36413
2030.77837	0.36136
2028.84980	0.35847
2026.92124	0.35562
2024.99268	0.35288
2023.06411	0.35022
2021.13555	0.34753
2019.20698	0.34485
2017.27842	0.34221
2015.34985	0.33943
2013.42129	0.33654
2011.49272	0.33370
2009.56416	0.33096
2007.63560	0.32829
2005.70703	0.32564
2003.77847	0.32300
2001.84990	0.32033
1999.92134	0.31768
1997.99277	0.31514
1996.06421	0.31273
1994.13564	0.31035
1992.20708	0.30790
1990.27852	0.30535
1988.34995	0.30278
1986.42139	0.30024
1984.49282	0.29779
1982.56426	0.29542
1980.63569	0.29300
1978.70713	0.29060
1976.77856	0.28836
1974.85000	0.28631
1972.92144	0.28431
1970.99287	0.28230
1969.06431	0.28032
1967.13574	0.27825
1965.20718	0.27604
1963.27861	0.27391
1961.35005	0.27202
1959.42148	0.27030
1957.49292	0.26862
1955.56436	0.26689
1953.63579	0.26516
1951.70723	0.26345
1949.77866	0.26174
1947.85010	0.26020
1945.92153	0.25889
1943.99297	0.25772
1942.06440	0.25638
1940.13584	0.25464
1938.20728	0.25283
1936.27871	0.25136
1934.35015	0.25019
1932.42158	0.24910
1930.49302	0.24798
1928.56445	0.24683
1926.63589	0.24571
1924.70732	0.24480
1922.77876	0.24401
1920.85020	0.24312
1918.92163	0.24231
1916.99307	0.24142
1915.06450	0.24027
1913.13594	0.23928
1911.20737	0.23865
1909.27881	0.23808
1907.35024	0.23743
1905.42168	0.23668
1903.49312	0.23599
1901.56455	0.23539
1899.63599	0.23483
1897.70742	0.23442
1895.77886	0.23419
1893.85029	0.23394
1891.92173	0.23369
1889.99316	0.23366
1888.06460	0.23351
1886.13604	0.23307
1884.20747	0.23261
1882.27891	0.23232
1880.35034	0.23223
1878.42178	0.23218
1876.49321	0.23215
1874.56465	0.23218
1872.63608	0.23242
1870.70752	0.23300
1868.77896	0.23396
1866.85039	0.23428
1864.92183	0.23375
1862.99326	0.23343
1861.06470	0.23357
1859.13613	0.23392
1857.20757	0.23427
1855.27900	0.23470
1853.35044	0.23515
1851.42187	0.23573
1849.49331	0.23656
1847.56475	0.23757
1845.63618	0.23861
1843.70762	0.23965
1841.77905	0.24027
1839.85049	0.24052
1837.92192	0.24117
1835.99336	0.24204
1834.06479	0.24287
1832.13623	0.24396
1830.20767	0.24574
1828.27910	0.24741
1826.35054	0.24848
1824.42197	0.24974
1822.49341	0.25080
1820.56484	0.25171
1818.63628	0.25292
1816.70771	0.25449
1814.77915	0.25611
1812.85059	0.25807
1810.92202	0.26042
1808.99346	0.26247
1807.06489	0.26416
1805.13633	0.26599
1803.20776	0.26835
1801.27920	0.27107
1799.35063	0.27391
1797.42207	0.27646
1795.49351	0.27909
1793.56494	0.28224
1791.63638	0.28589
1789.70781	0.28891
1787.77925	0.29112
1785.85068	0.29406
1783.92212	0.29777
1781.99355	0.30189
1780.06499	0.30629
1778.13643	0.31063
1776.20786	0.31467
1774.27930	0.31932
1772.35073	0.32562
1770.42217	0.33180
1768.49360	0.33662
1766.56504	0.34142
1764.63647	0.34661
1762.70791	0.35258
1760.77935	0.36011
1758.85078	0.36716
1756.92222	0.37428
1754.99365	0.38209
1753.06509	0.38938
1751.13652	0.39817
1749.20796	0.40897
1747.27939	0.41936
1745.35083	0.42855
1743.42227	0.43824
1741.49370	0.44888
1739.56514	0.46135
1737.63657	0.47379
1735.70801	0.48497
1733.77944	0.50176
1731.85088	0.52110
1729.92231	0.53612
1727.99375	0.55154
1726.06519	0.56840
1724.13662	0.58692
1722.20806	0.60702
1720.27949	0.62602
1718.35093	0.64840
1716.42236	0.68000
1714.49380	0.70938
1712.56523	0.73357
1710.63667	0.75750
1708.70811	0.78355
1706.77954	0.81313
1704.85098	0.84805
1702.92241	0.87931
1700.99385	0.91062
1699.06528	0.95646
1697.13672	0.99845
1695.20815	1.04122
1693.27959	1.08316
1691.35103	1.11782
1689.42246	1.15779
1687.49390	1.19959
1685.56533	1.24017
1683.63677	1.30145
1681.70820	1.36454
1679.77964	1.40599
1677.85107	1.44556
1675.92251	1.49121
1673.99395	1.54712
1672.06538	1.59639
1670.13682	1.64392
1668.20825	1.70513
1666.27969	1.75688
1664.35112	1.80173
1662.42256	1.85616
1660.49399	1.91633
1658.56543	1.96417
1656.63687	2.00315
1654.70830	2.03880
1652.77974	2.09395
1650.85117	2.14562
1648.92261	2.16421
1646.99404	2.18763
1645.06548	2.21546
1643.13691	2.23435
1641.20835	2.24524
1639.27979	2.25628
1637.35122	2.26390
1635.42266	2.26144
1633.49409	2.25087
1631.56553	2.23829
1629.63696	2.22406
1627.70840	2.19896
1625.77983	2.16733
1623.85127	2.12695
1621.92271	2.07775
1619.99414	2.03313
1618.06558	1.98948
1616.13701	1.92854
1614.20845	1.86641
1612.27988	1.81867
1610.35132	1.76892
1608.42275	1.71510
1606.49419	1.66253
1604.56562	1.61421
1602.63706	1.56728
1600.70850	1.52154
1598.77993	1.47955
1596.85137	1.43990
1594.92280	1.40129
1592.99424	1.36359
1591.06567	1.32837
1589.13711	1.29515
1587.20854	1.26413
1585.27998	1.23530
1583.35142	1.20834
1581.42285	1.18361
1579.49429	1.16244
1577.56572	1.14373
1575.63716	1.12137
1573.70859	1.10118
1571.78003	1.08763
1569.85146	1.07372
1567.92290	1.05840
1565.99434	1.04670
1564.06577	1.03753
1562.13721	1.03040
1560.20864	1.02564
1558.28008	1.02024
1556.35151	1.01493
1554.42295	1.01060
1552.49438	1.00616
1550.56582	1.00091
1548.63726	0.99421
1546.70869	0.98692
1544.78013	0.97855
1542.85156	0.96808
1540.92300	0.95373
1538.99443	0.93187
1537.06587	0.91453
1535.13730	0.90289
1533.20874	0.88855
1531.28018	0.87255
1529.35161	0.86025
1527.42305	0.84909
1525.49448	0.83790
1523.56592	0.82850
1521.63735	0.81951
1519.70879	0.80970
1517.78022	0.80103
1515.85166	0.79165
1513.92310	0.78193
1511.99453	0.77355
1510.06597	0.76654
1508.13740	0.76059
1506.20884	0.75077
1504.28027	0.74004
1502.35171	0.73350
1500.42314	0.72835
1498.49458	0.72323
1496.56602	0.71749
1494.63745	0.71175
1492.70889	0.70737
1490.78032	0.70396
1488.85176	0.70002
1486.92319	0.69563
1484.99463	0.69183
1483.06606	0.68897
1481.13750	0.68678
1479.20894	0.68511
1477.28037	0.68413
1475.35181	0.68383
1473.42324	0.68387
1471.49468	0.68269
1469.56611	0.68013
1467.63755	0.67779
1465.70898	0.67606
1463.78042	0.67436
1461.85186	0.67274
1459.92329	0.67213
1457.99473	0.67253
1456.06616	0.67131
1454.13760	0.66771
1452.20903	0.66433
1450.28047	0.66124
1448.35190	0.65828
1446.42334	0.65535
1444.49478	0.65254
1442.56621	0.64994
1440.63765	0.64756
1438.70908	0.64552
1436.78052	0.64319
1434.85195	0.63991
1432.92339	0.63687
1430.99482	0.63487
1429.06626	0.63363
1427.13770	0.63291
1425.20913	0.63270
1423.28057	0.63269
1421.35200	0.63257
1419.42344	0.63248
1417.49487	0.63181
1415.56631	0.63018
1413.63774	0.62879
1411.70918	0.62798
1409.78062	0.62746
1407.85205	0.62727
1405.92349	0.62760
1403.99492	0.62785
1402.06636	0.62745
1400.13779	0.62668
1398.20923	0.62535
1396.28066	0.62327
1394.35210	0.62045
1392.42354	0.61723
1390.49497	0.61433
1388.56641	0.61164
1386.63784	0.60848
1384.70928	0.60482
1382.78071	0.60131
1380.85215	0.59813
1378.92358	0.59540
1376.99502	0.59340
1375.06646	0.59206
1373.13789	0.59089
1371.20933	0.58986
1369.28076	0.58905
1367.35220	0.58800
1365.42363	0.58685
1363.49507	0.58605
1361.56650	0.58512
1359.63794	0.58356
1357.70937	0.58199
1355.78081	0.58067
1353.85225	0.57951
1351.92368	0.57853
1349.99512	0.57763
1348.06655	0.57671
1346.13799	0.57579
1344.20942	0.57495
1342.28086	0.57416
1340.35229	0.57346
1338.42373	0.57266
1336.49517	0.57168
1334.56660	0.57085
1332.63804	0.57041
1330.70947	0.57025
1328.78091	0.57025
1326.85234	0.57023
1324.92378	0.57004
1322.99521	0.57003
1321.06665	0.57038
1319.13809	0.57082
1317.20952	0.57092
1315.28096	0.57060
1313.35239	0.56999
1311.42383	0.56914
1309.49526	0.56825
1307.56670	0.56749
1305.63813	0.56673
1303.70957	0.56590
1301.78101	0.56502
1299.85244	0.56407
1297.92388	0.56315
1295.99531	0.56219
1294.06675	0.56119
1292.13818	0.56023
1290.20962	0.55921
1288.28105	0.55819
1286.35249	0.55731
1284.42393	0.55652
1282.49536	0.55561
1280.56680	0.55456
1278.63823	0.55344
1276.70967	0.55236
1274.78110	0.55140
1272.85254	0.55054
1270.92397	0.54990
1268.99541	0.54934
1267.06685	0.54861
1265.13828	0.54778
1263.20972	0.54705
1261.28115	0.54643
1259.35259	0.54591
1257.42402	0.54544
1255.49546	0.54506
1253.56689	0.54487
1251.63833	0.54480
1249.70977	0.54463
1247.78120	0.54432
1245.85264	0.54390
1243.92407	0.54337
1241.99551	0.54271
1240.06694	0.54180
1238.13838	0.54052
1236.20981	0.53908
1234.28125	0.53761
1232.35269	0.53599
1230.42412	0.53431
1228.49556	0.53281
1226.56699	0.53147
1224.63843	0.53021
1222.70986	0.52892
1220.78130	0.52753
1218.85273	0.52622
1216.92417	0.52519
1214.99561	0.52446
1213.06704	0.52382
1211.13848	0.52310
1209.20991	0.52238
1207.28135	0.52175
1205.35278	0.52113
1203.42422	0.52038
1201.49565	0.51954
1199.56709	0.51887
1197.63853	0.51843
1195.70996	0.51789
1193.78140	0.51717
1191.85283	0.51660
1189.92427	0.51620
1187.99570	0.51584
1186.06714	0.51561
1184.13857	0.51559
1182.21001	0.51578
1180.28145	0.51628
1178.35288	0.51715
1176.42432	0.51827
1174.49575	0.51926
1172.56719	0.51994
1170.63862	0.52042
1168.71006	0.52089
1166.78149	0.52147
1164.85293	0.52211
1162.92437	0.52256
1160.99580	0.52272
1159.06724	0.52268
1157.13867	0.52234
1155.21011	0.52160
1153.28154	0.52053
1151.35298	0.51906
1149.42441	0.51705
1147.49585	0.51460
1145.56729	0.51194
1143.63872	0.50931
1141.71016	0.50690
1139.78159	0.50482
1137.85303	0.50307
1135.92446	0.50160
1133.99590	0.50065
1132.06733	0.50020
1130.13877	0.49974
1128.21021	0.49908
1126.28164	0.49849
1124.35308	0.49793
1122.42451	0.49725
1120.49595	0.49660
1118.56738	0.49619
1116.63882	0.49607
1114.71025	0.49642
1112.78169	0.49718
1110.85312	0.49777
1108.92456	0.49809
1106.99600	0.49861
1105.06743	0.49947
1103.13887	0.50050
1101.21030	0.50175
1099.28174	0.50324
1097.35317	0.50514
1095.42461	0.50782
1093.49604	0.51146
1091.56748	0.51604
1089.63892	0.52160
1087.71035	0.52841
1085.78179	0.53631
1083.85322	0.54449
1081.92466	0.55182
1079.99609	0.55731
1078.06753	0.56025
1076.13896	0.56037
1074.21040	0.55777
1072.28184	0.55285
1070.35327	0.54651
1068.42471	0.53946
1066.49614	0.53240
1064.56758	0.52613
1062.63901	0.52066
1060.71045	0.51583
1058.78188	0.51163
1056.85332	0.50775
1054.92476	0.50416
1052.99619	0.50114
1051.06763	0.49886
1049.13906	0.49728
1047.21050	0.49638
1045.28193	0.49598
1043.35337	0.49574
1041.42480	0.49558
1039.49624	0.49553
1037.56768	0.49549
1035.63911	0.49535
1033.71055	0.49492
1031.78198	0.49402
1029.85342	0.49283
1027.92485	0.49160
1025.99629	0.49046
1024.06772	0.48963
1022.13916	0.48926
1020.21060	0.48937
1018.28203	0.48976
1016.35347	0.49006
1014.42490	0.49010
1012.49634	0.49006
1010.56777	0.49008
1008.63921	0.49038
1006.71064	0.49122
1004.78208	0.49255
1002.85352	0.49435
1000.92495	0.49682
998.99639	0.50001
997.06782	0.50369
995.13926	0.50776
993.21069	0.51190
991.28213	0.51528
989.35356	0.51736
987.42500	0.51835
985.49644	0.51867
983.56787	0.51895
981.63931	0.51988
979.71074	0.52127
977.78218	0.52267
975.85361	0.52453
973.92505	0.52722
971.99648	0.53045
970.06792	0.53398
968.13936	0.53764
966.21079	0.54143
964.28223	0.54548
962.35366	0.54993
960.42510	0.55474
958.49653	0.55999
956.56797	0.56599
954.63940	0.57256
952.71084	0.57905
950.78228	0.58534
948.85371	0.59143
946.92515	0.59723
944.99658	0.60326
943.06802	0.60981
941.13945	0.61621
939.21089	0.62218
937.28232	0.62828
935.35376	0.63425
933.42520	0.63953
931.49663	0.64494
929.56807	0.65148
927.63950	0.65806
925.71094	0.66369
923.78237	0.66939
921.85381	0.67540
919.92524	0.68183
917.99668	0.68917
916.06812	0.69666
914.13955	0.70413
912.21099	0.71181
910.28242	0.71926
908.35386	0.72719
906.42529	0.73612
904.49673	0.74509
902.56816	0.75376
900.63960	0.76215
898.71104	0.77114
896.78247	0.78185
894.85391	0.79266
892.92534	0.80248
890.99678	0.81239
889.06821	0.82235
887.13965	0.83205
885.21108	0.84322
883.28252	0.85611
881.35396	0.86825
879.42539	0.87936
877.49683	0.89051
875.56826	0.90155
873.63970	0.91228
871.71113	0.92255
869.78257	0.93253
867.85400	0.94279
865.92544	0.95391
863.99687	0.96589
862.06831	0.97808
860.13975	0.99032
858.21118	1.00295
856.28262	1.01610
854.35405	1.02957
852.42549	1.04100
850.49692	1.05037
848.56836	1.06221
846.63979	1.07521
844.71123	1.08589
842.78267	1.09718
840.85410	1.10950
838.92554	1.11860
836.99697	1.12604
835.06841	1.13571
833.13984	1.14666
831.21128	1.15692
829.28271	1.16337
827.35415	1.16846
825.42559	1.18065
823.49702	1.19893
821.56846	1.21614
819.63989	1.22894
817.71133	1.23954
815.78276	1.25248
813.85420	1.26900
811.92563	1.28767
809.99707	1.29228
808.06851	1.28102
806.13994	1.28767
804.21138	1.31087
802.28281	1.31217
800.35425	1.29745
798.42568	1.30124
796.49712	1.31065
794.56855	1.29237
792.63999	1.28125
790.71143	1.32470
788.78286	1.37216
786.85430	1.33494
784.92573	1.28812
782.99717	1.29632
781.06860	1.32497
779.14004	1.31617
777.21147	1.27508
775.28291	1.23518
773.35435	1.21381
771.42578	1.22743
769.49722	1.24259
767.56865	1.20245
765.64009	1.12681
763.71152	1.09047
761.78296	1.13558
759.85439	1.22310
757.92583	1.21771
755.99727	1.13145
754.06870	1.09080
752.14014	1.07429
750.21157	1.03798
748.28301	1.00383
746.35444	0.98032
744.42588	0.97700
742.49731	1.00181
740.56875	1.03759
738.64019	1.00147
736.71162	0.84302
734.78306	0.72314
732.85449	0.68651
730.92593	0.63788
728.99736	0.52752
727.06880	0.41793
725.14023	0.35924
723.21167	0.34767
721.28311	0.35154
719.35454	0.42631
717.42598	0.68403
715.49741	1.07912
713.56885	0.80046
711.64028	0.54736
709.71172	0.37271
707.78315	0.18409
705.85459	0.05147
703.92603	0.06689
701.99746	0.20820
700.06890	0.53556
698.14033	0.63631
696.21177	0.36810
694.28320	0.24766
692.35464	0.19397
690.42607	0.19988
688.49751	0.26513
686.56895	0.31020
684.64038	0.24577
682.71182	0.17779
680.78325	0.21810
678.85469	0.29690
676.92612	0.32014
674.99756	0.32035
673.06899	0.28710
671.14043	0.18600
669.21187	0.13172
667.28330	0.13167
665.35474	0.06969
663.42617	0.00327
661.49761	0.02547
659.56904	0.06134
657.64048	0.10788
655.71191	0.20707
653.78335	0.24561
651.85479	0.19793
649.92622	0.17026
647.99766	0.16670
646.06909	0.18251
644.14053	0.23686
642.21196	0.24469
640.28340	0.19526
638.35483	0.17229
636.42627	0.19490
634.49771	0.25553
632.56914	0.26185
630.64058	0.22272
628.71201	0.22867
626.78345	0.22335
624.85488	0.19723
622.92632	0.16682
620.99775	0.11309
619.06919	0.09538
617.14062	0.16424
615.21206	0.25765
613.28350	0.22601
611.35493	0.16587
609.42637	0.23021
607.49780	0.26347
605.56924	0.21968
603.64067	0.15343
601.71211	0.07288
599.78354	0.07674
597.85498	0.15405
595.92642	0.15482
593.99785	0.12231
592.06929	0.16835
590.14072	0.23413
588.21216	0.24513
586.28359	0.19883
584.35503	0.12072
582.42646	0.08047
580.49790	0.12673
578.56934	0.16781
576.64077	0.15614
574.71221	0.14929
572.78364	0.16739
570.85508	0.18472
568.92651	0.17892
566.99795	0.16075
565.06938	0.18121
563.14082	0.21925
561.21226	0.20461
559.28369	0.17108
557.35513	0.17985
555.42656	0.21586
553.49800	0.18913
551.56943	0.14437
549.64087	0.14822
547.71230	0.14997
545.78374	0.11899
543.85518	0.12523
541.92661	0.15354
539.99805	0.16015
538.06948	0.14700
536.14092	0.10344
534.21235	0.08399
532.28379	0.14239
530.35522	0.24794
528.42666	0.25602
526.49810	0.16567
524.56953	0.08136
522.64097	0.05471
520.71240	0.07164
518.78384	0.09507
516.85527	0.10150
514.92671	0.10979
512.99814	0.12491
511.06958	0.13270
509.14102	0.14780
507.21245	0.16329
505.28389	0.14233
503.35532	0.11136
501.42676	0.11475
499.49819	0.12863
