3997.91411	0.07302
3995.98555	0.07309
3994.05698	0.07333
3992.12842	0.07383
3990.19985	0.07479
3988.27129	0.07551
3986.34272	0.07539
3984.41416	0.07514
3982.48560	0.07555
3980.55703	0.07642
3978.62847	0.07686
3976.69990	0.07677
3974.77134	0.07666
3972.84277	0.07653
3970.91421	0.07630
3968.98564	0.07628
3967.05708	0.07657
3965.12852	0.07690
3963.19995	0.07733
3961.27139	0.07801
3959.34282	0.07844
3957.41426	0.07817
3955.48569	0.07758
3953.55713	0.07744
3951.62856	0.07809
3949.70000	0.07911
3947.77144	0.07953
3945.84287	0.07902
3943.91431	0.07885
3941.98574	0.07927
3940.05718	0.07869
3938.12861	0.07741
3936.20005	0.07704
3934.27148	0.07802
3932.34292	0.07958
3930.41436	0.08045
3928.48579	0.08001
3926.55723	0.07913
3924.62866	0.07893
3922.70010	0.07909
3920.77153	0.07873
3918.84297	0.07810
3916.91440	0.07799
3914.98584	0.07814
3913.05728	0.07773
3911.12871	0.07706
3909.20015	0.07682
3907.27158	0.07736
3905.34302	0.07893
3903.41445	0.08128
3901.48589	0.08282
3899.55732	0.08239
3897.62876	0.08075
3895.70020	0.07910
3893.77163	0.07810
3891.84307	0.07813
3889.91450	0.07861
3887.98594	0.07862
3886.05737	0.07924
3884.12881	0.08062
3882.20024	0.08132
3880.27168	0.08131
3878.34312	0.08031
3876.41455	0.07922
3874.48599	0.07971
3872.55742	0.08138
3870.62886	0.08317
3868.70029	0.08414
3866.77173	0.08346
3864.84316	0.08302
3862.91460	0.08346
3860.98604	0.08297
3859.05747	0.08197
3857.12891	0.08214
3855.20034	0.08408
3853.27178	0.08760
3851.34321	0.08900
3849.41465	0.08642
3847.48608	0.08411
3845.55752	0.08373
3843.62896	0.08516
3841.70039	0.08740
3839.77183	0.08959
3837.84326	0.09153
3835.91470	0.09238
3833.98613	0.09197
3832.05757	0.09124
3830.12900	0.09085
3828.20044	0.09116
3826.27187	0.09217
3824.34331	0.09325
3822.41475	0.09484
3820.48618	0.09771
3818.55762	0.09883
3816.62905	0.09802
3814.70049	0.09774
3812.77192	0.09728
3810.84336	0.09682
3808.91479	0.09772
3806.98623	0.10000
3805.05767	0.10191
3803.12910	0.10324
3801.20054	0.10529
3799.27197	0.10645
3797.34341	0.10656
3795.41484	0.10686
3793.48628	0.10636
3791.55771	0.10603
3789.62915	0.10723
3787.70059	0.10928
3785.77202	0.11133
3783.84346	0.11301
3781.91489	0.11426
3779.98633	0.11586
3778.05776	0.11808
3776.12920	0.11950
3774.20063	0.12003
3772.27207	0.12101
3770.34351	0.12357
3768.41494	0.12691
3766.48638	0.12901
3764.55781	0.13034
3762.62925	0.13165
3760.70068	0.13366
3758.77212	0.13713
3756.84355	0.14044
3754.91499	0.14241
3752.98643	0.14542
3751.05786	0.15137
3749.12930	0.15715
3747.20073	0.15900
3745.27217	0.16043
3743.34360	0.16382
3741.41504	0.16700
3739.48647	0.16972
3737.55791	0.17421
3735.62935	0.18140
3733.70078	0.18861
3731.77222	0.19220
3729.84365	0.19433
3727.91509	0.19777
3725.98652	0.20319
3724.05796	0.20920
3722.12939	0.21458
3720.20083	0.22001
3718.27227	0.22588
3716.34370	0.23231
3714.41514	0.23949
3712.48657	0.24930
3710.55801	0.26387
3708.62944	0.27853
3706.70088	0.28915
3704.77231	0.29934
3702.84375	0.31207
3700.91519	0.32831
3698.98662	0.34580
3697.05806	0.36278
3695.12949	0.38083
3693.20093	0.40015
3691.27236	0.42182
3689.34380	0.44956
3687.41523	0.48193
3685.48667	0.50994
3683.55811	0.53499
3681.62954	0.56274
3679.70098	0.59416
3677.77241	0.62738
3675.84385	0.66715
3673.91528	0.71903
3671.98672	0.76050
3670.05815	0.79760
3668.12959	0.84827
3666.20103	0.89479
3664.27246	0.93434
3662.34390	0.97719
3660.41533	1.02363
3658.48677	1.06961
3656.55820	1.11875
3654.62964	1.17332
3652.70107	1.21943
3650.77251	1.26037
3648.84395	1.31657
3646.91538	1.38268
3644.98682	1.42998
3643.05825	1.46717
3641.12969	1.50679
3639.20112	1.55061
3637.27256	1.59481
3635.34399	1.63862
3633.41543	1.68250
3631.48687	1.72345
3629.55830	1.76547
3627.62974	1.81928
3625.70117	1.86793
3623.77261	1.90096
3621.84404	1.93396
3619.91548	1.97222
3617.98691	2.01708
3616.05835	2.06023
3614.12979	2.09635
3612.20122	2.13314
3610.27266	2.17062
3608.34409	2.20993
3606.41553	2.25236
3604.48696	2.29247
3602.55840	2.32960
3600.62983	2.36941
3598.70127	2.41050
3596.77271	2.44881
3594.84414	2.48828
3592.91558	2.53032
3590.98701	2.56929
3589.05845	2.60544
3587.12988	2.64871
3585.20132	2.69570
3583.27275	2.73663
3581.34419	2.77539
3579.41562	2.81581
3577.48706	2.85862
3575.55850	2.90280
3573.62993	2.94637
3571.70137	2.98763
3569.77280	3.02812
3567.84424	3.07179
3565.91567	3.12348
3563.98711	3.17298
3562.05854	3.21465
3560.12998	3.25635
3558.20142	3.30022
3556.27285	3.34476
3554.34429	3.38868
3552.41572	3.43631
3550.48716	3.48623
3548.55859	3.53138
3546.63003	3.57417
3544.70146	3.62041
3542.77290	3.66874
3540.84434	3.71719
3538.91577	3.76574
3536.98721	3.81424
3535.05864	3.86445
3533.13008	3.91247
3531.20151	3.95751
3529.27295	4.00477
3527.34438	4.05508
3525.41582	4.10345
3523.48726	4.15101
3521.55869	4.20198
3519.63013	4.25131
3517.70156	4.29666
3515.77300	4.34169
3513.84443	4.39015
3511.91587	4.43996
3509.98730	4.48735
3508.05874	4.53459
3506.13018	4.58302
3504.20161	4.63228
3502.27305	4.68572
3500.34448	4.73725
3498.41592	4.77857
3496.48735	4.81847
3494.55879	4.86418
3492.63022	4.91344
3490.70166	4.96533
3488.77310	5.01856
3486.84453	5.07010
3484.91597	5.12234
3482.98740	5.17413
3481.05884	5.21935
3479.13027	5.25906
3477.20171	5.30013
3475.27314	5.34691
3473.34458	5.39765
3471.41602	5.45123
3469.48745	5.50525
3467.55889	5.55259
3465.63032	5.59500
3463.70176	5.64721
3461.77319	5.70797
3459.84463	5.75688
3457.91606	5.79716
3455.98750	5.85244
3454.05894	5.91666
3452.13037	5.96383
3450.20181	5.99913
3448.27324	6.04771
3446.34468	6.11157
3444.41611	6.17273
3442.48755	6.23138
3440.55898	6.29603
3438.63042	6.36047
3436.70186	6.40546
3434.77329	6.42754
3432.84473	6.45187
3430.91616	6.49399
3428.98760	6.54618
3427.05903	6.59799
3425.13047	6.64854
3423.20190	6.69653
3421.27334	6.75978
3419.34478	6.84604
3417.41621	6.92722
3415.48765	6.98057
3413.55908	7.01565
3411.63052	7.03939
3409.70195	7.03955
3407.77339	7.04315
3405.84482	7.06751
3403.91626	7.12082
3401.98770	7.20001
3400.05913	7.25692
3398.13057	7.27118
3396.20200	7.29516
3394.27344	7.36633
3392.34487	7.42946
3390.41631	7.44477
3388.48774	7.42825
3386.55918	7.42393
3384.63062	7.46276
3382.70205	7.54054
3380.77349	7.61877
3378.84492	7.62537
3376.91636	7.58828
3374.98779	7.60937
3373.05923	7.69855
3371.13066	7.78200
3369.20210	7.82574
3367.27354	7.82219
3365.34497	7.81380
3363.41641	7.83430
3361.48784	7.84493
3359.55928	7.85083
3357.63071	7.86877
3355.70215	7.87484
3353.77358	7.89156
3351.84502	7.99645
3349.91646	8.14006
3347.98789	8.20523
3346.05933	8.18968
3344.13076	8.16406
3342.20220	8.14889
3340.27363	8.13577
3338.34507	8.15373
3336.41650	8.15636
3334.48794	8.13461
3332.55937	8.13019
3330.63081	8.15856
3328.70225	8.22571
3326.77368	8.24436
3324.84512	8.15720
3322.91655	8.11479
3320.98799	8.19463
3319.05942	8.26122
3317.13086	8.24404
3315.20229	8.18626
3313.27373	8.19741
3311.34517	8.32103
3309.41660	8.42205
3307.48804	8.42403
3305.55947	8.38772
3303.63091	8.35279
3301.70234	8.32060
3299.77378	8.30845
3297.84521	8.29691
3295.91665	8.26564
3293.98809	8.21542
3292.05952	8.22382
3290.13096	8.36059
3288.20239	8.47239
3286.27383	8.38732
3284.34526	8.23842
3282.41670	8.21671
3280.48813	8.32216
3278.55957	8.43563
3276.63101	8.45003
3274.70244	8.41944
3272.77388	8.45922
3270.84531	8.51148
3268.91675	8.50207
3266.98818	8.49245
3265.05962	8.52435
3263.13105	8.54200
3261.20249	8.47497
3259.27393	8.33375
3257.34536	8.21731
3255.41680	8.21330
3253.48823	8.36285
3251.55967	8.53167
3249.63110	8.52224
3247.70254	8.49570
3245.77397	8.56880
3243.84541	8.57534
3241.91685	8.46333
3239.98828	8.39753
3238.05972	8.43549
3236.13115	8.46631
3234.20259	8.40526
3232.27402	8.34218
3230.34546	8.37525
3228.41689	8.46827
3226.48833	8.48255
3224.55977	8.35341
3222.63120	8.22102
3220.70264	8.15669
3218.77407	8.10258
3216.84551	8.08885
3214.91694	8.17771
3212.98838	8.23210
3211.05981	8.14937
3209.13125	8.09523
3207.20269	8.07095
3205.27412	7.97614
3203.34556	7.90236
3201.41699	7.90661
3199.48843	7.88703
3197.55986	7.83104
3195.63130	7.83530
3193.70273	7.82486
3191.77417	7.74009
3189.84561	7.70124
3187.91704	7.68255
3185.98848	7.57794
3184.05991	7.45640
3182.13135	7.39877
3180.20278	7.39669
3178.27422	7.39693
3176.34565	7.33165
3174.41709	7.22271
3172.48853	7.15775
3170.55996	7.14632
3168.63140	7.13446
3166.70283	7.09495
3164.77427	7.02479
3162.84570	6.92942
3160.91714	6.83397
3158.98857	6.75720
3157.06001	6.69666
3155.13145	6.63582
3153.20288	6.55788
3151.27432	6.47403
3149.34575	6.40575
3147.41719	6.35153
3145.48862	6.29149
3143.56006	6.22128
3141.63149	6.15402
3139.70293	6.08396
3137.77437	6.00181
3135.84580	5.92112
3133.91724	5.84784
3131.98867	5.76929
3130.06011	5.69571
3128.13154	5.63423
3126.20298	5.56476
3124.27441	5.48813
3122.34585	5.41623
3120.41729	5.34369
3118.48872	5.26583
3116.56016	5.19049
3114.63159	5.12209
3112.70303	5.05440
3110.77446	4.98344
3108.84590	4.91350
3106.91733	4.84652
3104.98877	4.77922
3103.06021	4.71223
3101.13164	4.64503
3099.20308	4.57606
3097.27451	4.50817
3095.34595	4.44496
3093.41738	4.38542
3091.48882	4.32499
3089.56025	4.26103
3087.63169	4.19247
3085.70312	4.12193
3083.77456	4.05473
3081.84600	3.99308
3079.91743	3.93476
3077.98887	3.87690
3076.06030	3.81836
3074.13174	3.76020
3072.20317	3.70317
3070.27461	3.64539
3068.34604	3.58696
3066.41748	3.52939
3064.48892	3.47218
3062.56035	3.41470
3060.63179	3.35863
3058.70322	3.30475
3056.77466	3.25181
3054.84609	3.19892
3052.91753	3.14545
3050.98896	3.09307
3049.06040	3.04294
3047.13184	2.99220
3045.20327	2.93977
3043.27471	2.88886
3041.34614	2.84058
3039.41758	2.79284
3037.48901	2.74533
3035.56045	2.69906
3033.63188	2.65373
3031.70332	2.60885
3029.77476	2.56468
3027.84619	2.52064
3025.91763	2.47637
3023.98906	2.43252
3022.06050	2.38958
3020.13193	2.34761
3018.20337	2.30660
3016.27480	2.26673
3014.34624	2.22766
3012.41768	2.18842
3010.48911	2.14900
3008.56055	2.11092
3006.63198	2.07465
3004.70342	2.03869
3002.77485	2.00250
3000.84629	1.96711
2998.91772	1.93326
2996.98916	1.90038
2995.06060	1.86760
2993.13203	1.83534
2991.20347	1.80439
2989.27490	1.77455
2987.34634	1.74508
2985.41777	1.71580
2983.48921	1.68708
2981.56064	1.65934
2979.63208	1.63289
2977.70352	1.60717
2975.77495	1.58121
2973.84639	1.55529
2971.91782	1.52987
2969.98926	1.50466
2968.06069	1.47977
2966.13213	1.45557
2964.20356	1.43185
2962.27500	1.40797
2960.34644	1.38400
2958.41787	1.36080
2956.48931	1.33799
2954.56074	1.31403
2952.63218	1.28934
2950.70361	1.26580
2948.77505	1.24335
2946.84648	1.22128
2944.91792	1.19997
2942.98936	1.17960
2941.06079	1.15950
2939.13223	1.13895
2937.20366	1.11809
2935.27510	1.09724
2933.34653	1.07661
2931.41797	1.05611
2929.48940	1.03544
2927.56084	1.01562
2925.63228	0.99745
2923.70371	0.97965
2921.77515	0.96207
2919.84658	0.94561
2917.91802	0.92957
2915.98945	0.91339
2914.06089	0.89744
2912.13232	0.88143
2910.20376	0.86526
2908.27520	0.84962
2906.34663	0.83453
2904.41807	0.81975
2902.48950	0.80564
2900.56094	0.79178
2898.63237	0.77777
2896.70381	0.76463
2894.77524	0.75244
2892.84668	0.74030
2890.91812	0.72828
2888.98955	0.71653
2887.06099	0.70507
2885.13242	0.69445
2883.20386	0.68475
2881.27529	0.67546
2879.34673	0.66610
2877.41816	0.65644
2875.48960	0.64642
2873.56104	0.63611
2871.63247	0.62555
2869.70391	0.61450
2867.77534	0.60276
2865.84678	0.59067
2863.91821	0.57872
2861.98965	0.56720
2860.06108	0.55632
2858.13252	0.54596
2856.20396	0.53589
2854.27539	0.52644
2852.34683	0.51778
2850.41826	0.50961
2848.48970	0.50170
2846.56113	0.49404
2844.63257	0.48687
2842.70400	0.48018
2840.77544	0.47373
2838.84687	0.46731
2836.91831	0.46095
2834.98975	0.45486
2833.06118	0.44895
2831.13262	0.44289
2829.20405	0.43672
2827.27549	0.43060
2825.34692	0.42450
2823.41836	0.41849
2821.48979	0.41270
2819.56123	0.40695
2817.63267	0.40119
2815.70410	0.39555
2813.77554	0.39004
2811.84697	0.38455
2809.91841	0.37909
2807.98984	0.37373
2806.06128	0.36835
2804.13271	0.36302
2802.20415	0.35794
2800.27559	0.35311
2798.34702	0.34833
2796.41846	0.34363
2794.48989	0.33897
2792.56133	0.33429
2790.63276	0.32975
2788.70420	0.32542
2786.77563	0.32115
2784.84707	0.31685
2782.91851	0.31254
2780.98994	0.30836
2779.06138	0.30443
2777.13281	0.30060
2775.20425	0.29663
2773.27568	0.29262
2771.34712	0.28874
2769.41855	0.28507
2767.48999	0.28161
2765.56143	0.27820
2763.63286	0.27465
2761.70430	0.27113
2759.77573	0.26794
2757.84717	0.26488
2755.91860	0.26167
2753.99004	0.25847
2752.06147	0.25532
2750.13291	0.25222
2748.20435	0.24936
2746.27578	0.24676
2744.34722	0.24411
2742.41865	0.24130
2740.49009	0.23858
2738.56152	0.23608
2736.63296	0.23359
2734.70439	0.23095
2732.77583	0.22836
2730.84727	0.22599
2728.91870	0.22372
2726.99014	0.22145
2725.06157	0.21922
2723.13301	0.21714
2721.20444	0.21519
2719.27588	0.21313
2717.34731	0.21098
2715.41875	0.20896
2713.49019	0.20708
2711.56162	0.20530
2709.63306	0.20358
2707.70449	0.20189
2705.77593	0.20028
2703.84736	0.19874
2701.91880	0.19716
2699.99023	0.19569
2698.06167	0.19438
2696.13311	0.19294
2694.20454	0.19128
2692.27598	0.18972
2690.34741	0.18846
2688.41885	0.18723
2686.49028	0.18582
2684.56172	0.18434
2682.63315	0.18310
2680.70459	0.18204
2678.77603	0.18084
2676.84746	0.17957
2674.91890	0.17851
2672.99033	0.17757
2671.06177	0.17659
2669.13320	0.17558
2667.20464	0.17460
2665.27607	0.17364
2663.34751	0.17276
2661.41895	0.17204
2659.49038	0.17144
2657.56182	0.17076
2655.63325	0.16987
2653.70469	0.16888
2651.77612	0.16808
2649.84756	0.16753
2647.91899	0.16691
2645.99043	0.16612
2644.06187	0.16548
2642.13330	0.16499
2640.20474	0.16452
2638.27617	0.16401
2636.34761	0.16348
2634.41904	0.16301
2632.49048	0.16256
2630.56191	0.16217
2628.63335	0.16182
2626.70479	0.16134
2624.77622	0.16074
2622.84766	0.16028
2620.91909	0.16014
2618.99053	0.16015
2617.06196	0.15995
2615.13340	0.15960
2613.20483	0.15933
2611.27627	0.15905
2609.34771	0.15882
2607.41914	0.15878
2605.49058	0.15886
2603.56201	0.15891
2601.63345	0.15879
2599.70488	0.15858
2597.77632	0.15849
2595.84775	0.15861
2593.91919	0.15881
2591.99062	0.15891
2590.06206	0.15903
2588.13350	0.15915
2586.20493	0.15913
2584.27637	0.15908
2582.34780	0.15911
2580.41924	0.15930
2578.49067	0.15976
2576.56211	0.16025
2574.63354	0.16050
2572.70498	0.16064
2570.77642	0.16093
2568.84785	0.16132
2566.91929	0.16162
2564.99072	0.16189
2563.06216	0.16233
2561.13359	0.16279
2559.20503	0.16309
2557.27646	0.16338
2555.34790	0.16382
2553.41934	0.16435
2551.49077	0.16489
2549.56221	0.16550
2547.63364	0.16609
2545.70508	0.16656
2543.77651	0.16700
2541.84795	0.16757
2539.91938	0.16825
2537.99082	0.16893
2536.06226	0.16945
2534.13369	0.16988
2532.20513	0.17050
2530.27656	0.17129
2528.34800	0.17206
2526.41943	0.17277
2524.49087	0.17342
2522.56230	0.17404
2520.63374	0.17462
2518.70518	0.17526
2516.77661	0.17613
2514.84805	0.17708
2512.91948	0.17792
2510.99092	0.17864
2509.06235	0.17934
2507.13379	0.18009
2505.20522	0.18087
2503.27666	0.18166
2501.34810	0.18245
2499.41953	0.18321
2497.49097	0.18390
2495.56240	0.18465
2493.63384	0.18552
2491.70527	0.18652
2489.77671	0.18755
2487.84814	0.18845
2485.91958	0.18910
2483.99102	0.18960
2482.06245	0.19031
2480.13389	0.19135
2478.20532	0.19244
2476.27676	0.19335
2474.34819	0.19415
2472.41963	0.19490
2470.49106	0.19564
2468.56250	0.19646
2466.63394	0.19738
2464.70537	0.19840
2462.77681	0.19942
2460.84824	0.20035
2458.91968	0.20122
2456.99111	0.20208
2455.06255	0.20300
2453.13398	0.20404
2451.20542	0.20504
2449.27686	0.20588
2447.34829	0.20669
2445.41973	0.20762
2443.49116	0.20864
2441.56260	0.20966
2439.63403	0.21069
2437.70547	0.21171
2435.77690	0.21272
2433.84834	0.21376
2431.91978	0.21485
2429.99121	0.21590
2428.06265	0.21688
2426.13408	0.21790
2424.20552	0.21905
2422.27695	0.22028
2420.34839	0.22144
2418.41982	0.22253
2416.49126	0.22357
2414.56270	0.22456
2412.63413	0.22558
2410.70557	0.22672
2408.77700	0.22795
2406.84844	0.22910
2404.91987	0.23016
2402.99131	0.23120
2401.06274	0.23233
2399.13418	0.23364
2397.20562	0.23503
2395.27705	0.23636
2393.34849	0.23750
2391.41992	0.23863
2389.49136	0.24002
2387.56279	0.24182
2385.63423	0.24424
2383.70566	0.24755
2381.77710	0.25190
2379.84854	0.25721
2377.91997	0.26334
2375.99141	0.27023
2374.06284	0.27794
2372.13428	0.28653
2370.20571	0.29579
2368.27715	0.30542
2366.34858	0.31476
2364.42002	0.32276
2362.49146	0.32904
2360.56289	0.33337
2358.63433	0.33515
2356.70576	0.33335
2354.77720	0.32765
2352.84863	0.31992
2350.92007	0.31231
2348.99150	0.30765
2347.06294	0.30819
2345.13437	0.31472
2343.20581	0.32395
2341.27725	0.32942
2339.34868	0.33061
2337.42012	0.33069
2335.49155	0.33062
2333.56299	0.33010
2331.63442	0.33002
2329.70586	0.33031
2327.77729	0.33016
2325.84873	0.32943
2323.92017	0.32831
2321.99160	0.32690
2320.06304	0.32512
2318.13447	0.32315
2316.20591	0.32153
2314.27734	0.32079
2312.34878	0.32080
2310.42021	0.32089
2308.49165	0.32081
2306.56309	0.32058
2304.63452	0.32027
2302.70596	0.32031
2300.77739	0.32096
2298.84883	0.32173
2296.92026	0.32234
2294.99170	0.32304
2293.06313	0.32398
2291.13457	0.32505
2289.20601	0.32610
2287.27744	0.32714
2285.34888	0.32836
2283.42031	0.32986
2281.49175	0.33158
2279.56318	0.33353
2277.63462	0.33579
2275.70605	0.33816
2273.77749	0.34030
2271.84893	0.34225
2269.92036	0.34424
2267.99180	0.34634
2266.06323	0.34845
2264.13467	0.35060
2262.20610	0.35278
2260.27754	0.35480
2258.34897	0.35665
2256.42041	0.35850
2254.49185	0.36043
2252.56328	0.36250
2250.63472	0.36467
2248.70615	0.36678
2246.77759	0.36877
2244.84902	0.37081
2242.92046	0.37292
2240.99189	0.37502
2239.06333	0.37710
2237.13477	0.37918
2235.20620	0.38134
2233.27764	0.38364
2231.34907	0.38597
2229.42051	0.38822
2227.49194	0.39047
2225.56338	0.39271
2223.63481	0.39487
2221.70625	0.39702
2219.77769	0.39925
2217.84912	0.40154
2215.92056	0.40377
2213.99199	0.40590
2212.06343	0.40797
2210.13486	0.41000
2208.20630	0.41204
2206.27773	0.41420
2204.34917	0.41639
2202.42061	0.41852
2200.49204	0.42054
2198.56348	0.42245
2196.63491	0.42439
2194.70635	0.42637
2192.77778	0.42828
2190.84922	0.43007
2188.92065	0.43182
2186.99209	0.43367
2185.06353	0.43558
2183.13496	0.43729
2181.20640	0.43885
2179.27783	0.44044
2177.34927	0.44209
2175.42070	0.44367
2173.49214	0.44517
2171.56357	0.44664
2169.63501	0.44795
2167.70645	0.44901
2165.77788	0.45006
2163.84932	0.45136
2161.92075	0.45283
2159.99219	0.45417
2158.06362	0.45515
2156.13506	0.45584
2154.20649	0.45653
2152.27793	0.45726
2150.34937	0.45794
2148.42080	0.45860
2146.49224	0.45922
2144.56367	0.45962
2142.63511	0.45988
2140.70654	0.46009
2138.77798	0.46032
2136.84941	0.46058
2134.92085	0.46075
2132.99229	0.46079
2131.06372	0.46072
2129.13516	0.46048
2127.20659	0.46004
2125.27803	0.45949
2123.34946	0.45890
2121.42090	0.45845
2119.49233	0.45802
2117.56377	0.45740
2115.63521	0.45663
2113.70664	0.45582
2111.77808	0.45496
2109.84951	0.45400
2107.92095	0.45287
2105.99238	0.45150
2104.06382	0.45009
2102.13525	0.44884
2100.20669	0.44761
2098.27812	0.44621
2096.34956	0.44477
2094.42100	0.44328
2092.49243	0.44158
2090.56387	0.43974
2088.63530	0.43786
2086.70674	0.43602
2084.77817	0.43415
2082.84961	0.43223
2080.92104	0.43029
2078.99248	0.42833
2077.06392	0.42624
2075.13535	0.42395
2073.20679	0.42153
2071.27822	0.41916
2069.34966	0.41695
2067.42109	0.41475
2065.49253	0.41248
2063.56396	0.41006
2061.63540	0.40750
2059.70684	0.40486
2057.77827	0.40224
2055.84971	0.39971
2053.92114	0.39726
2051.99258	0.39473
2050.06401	0.39199
2048.13545	0.38924
2046.20688	0.38663
2044.27832	0.38405
2042.34976	0.38143
2040.42119	0.37870
2038.49263	0.37583
2036.56406	0.37294
2034.63550	0.37016
2032.70693	0.36744
2030.77837	0.36470
2028.84980	0.36185
2026.92124	0.35897
2024.99268	0.35614
2023.06411	0.35328
2021.13555	0.35040
2019.20698	0.34770
2017.27842	0.34508
2015.34985	0.34238
2013.42129	0.33967
2011.49272	0.33700
2009.56416	0.33433
2007.63560	0.33162
2005.70703	0.32892
2003.77847	0.32625
2001.84990	0.32361
1999.92134	0.32097
1997.99277	0.31830
1996.06421	0.31575
1994.13564	0.31341
1992.20708	0.31106
1990.27852	0.30847
1988.34995	0.30582
1986.42139	0.30328
1984.49282	0.30080
1982.56426	0.29835
1980.63569	0.29597
1978.70713	0.29370
1976.77856	0.29147
1974.85000	0.28927
1972.92144	0.28709
1970.99287	0.28499
1969.06431	0.28313
1967.13574	0.28135
1965.20718	0.27929
1963.27861	0.27710
1961.35005	0.27506
1959.42148	0.27323
1957.49292	0.27156
1955.56436	0.26982
1953.63579	0.26797
1951.70723	0.26613
1949.77866	0.26449
1947.85010	0.26305
1945.92153	0.26176
1943.99297	0.26058
1942.06440	0.25927
1940.13584	0.25755
1938.20728	0.25585
1936.27871	0.25444
1934.35015	0.25308
1932.42158	0.25174
1930.49302	0.25051
1928.56445	0.24949
1926.63589	0.24864
1924.70732	0.24794
1922.77876	0.24716
1920.85020	0.24611
1918.92163	0.24519
1916.99307	0.24430
1915.06450	0.24311
1913.13594	0.24196
1911.20737	0.24126
1909.27881	0.24079
1907.35024	0.24024
1905.42168	0.23959
1903.49312	0.23893
1901.56455	0.23826
1899.63599	0.23764
1897.70742	0.23722
1895.77886	0.23703
1893.85029	0.23684
1891.92173	0.23654
1889.99316	0.23642
1888.06460	0.23617
1886.13604	0.23567
1884.20747	0.23528
1882.27891	0.23505
1880.35034	0.23490
1878.42178	0.23480
1876.49321	0.23481
1874.56465	0.23490
1872.63608	0.23511
1870.70752	0.23569
1868.77896	0.23671
1866.85039	0.23703
1864.92183	0.23648
1862.99326	0.23619
1861.06470	0.23638
1859.13613	0.23675
1857.20757	0.23708
1855.27900	0.23745
1853.35044	0.23784
1851.42187	0.23834
1849.49331	0.23904
1847.56475	0.23997
1845.63618	0.24115
1843.70762	0.24232
1841.77905	0.24281
1839.85049	0.24299
1837.92192	0.24368
1835.99336	0.24455
1834.06479	0.24549
1832.13623	0.24682
1830.20767	0.24876
1828.27910	0.25038
1826.35054	0.25122
1824.42197	0.25223
1822.49341	0.25320
1820.56484	0.25415
1818.63628	0.25541
1816.70771	0.25704
1814.77915	0.25878
1812.85059	0.26077
1810.92202	0.26305
1808.99346	0.26512
1807.06489	0.26681
1805.13633	0.26851
1803.20776	0.27081
1801.27920	0.27363
1799.35063	0.27656
1797.42207	0.27899
1795.49351	0.28145
1793.56494	0.28466
1791.63638	0.28855
1789.70781	0.29161
1787.77925	0.29377
1785.85068	0.29672
1783.92212	0.30038
1781.99355	0.30437
1780.06499	0.30866
1778.13643	0.31299
1776.20786	0.31708
1774.27930	0.32164
1772.35073	0.32773
1770.42217	0.33395
1768.49360	0.33892
1766.56504	0.34370
1764.63647	0.34882
1762.70791	0.35479
1760.77935	0.36240
1758.85078	0.36950
1756.92222	0.37654
1754.99365	0.38414
1753.06509	0.39137
1751.13652	0.40040
1749.20796	0.41140
1747.27939	0.42163
1745.35083	0.43041
1743.42227	0.43980
1741.49370	0.45045
1739.56514	0.46312
1737.63657	0.47575
1735.70801	0.48702
1733.77944	0.50383
1731.85088	0.52322
1729.92231	0.53827
1727.99375	0.55352
1726.06519	0.57027
1724.13662	0.58882
1722.20806	0.60870
1720.27949	0.62732
1718.35093	0.64973
1716.42236	0.68190
1714.49380	0.71172
1712.56523	0.73595
1710.63667	0.75968
1708.70811	0.78561
1706.77954	0.81545
1704.85098	0.85082
1702.92241	0.88242
1700.99385	0.91437
1699.06528	0.96142
1697.13672	1.00430
1695.20815	1.04807
1693.27959	1.09130
1691.35103	1.12720
1689.42246	1.16882
1687.49390	1.21284
1685.56533	1.25629
1683.63677	1.32148
1681.70820	1.38715
1679.77964	1.43007
1677.85107	1.47207
1675.92251	1.52093
1673.99395	1.58047
1672.06538	1.63353
1670.13682	1.68586
1668.20825	1.75267
1666.27969	1.80816
1664.35112	1.85732
1662.42256	1.91965
1660.49399	1.98932
1658.56543	2.04446
1656.63687	2.09005
1654.70830	2.13232
1652.77974	2.19215
1650.85117	2.24408
1648.92261	2.26198
1646.99404	2.28511
1645.06548	2.31070
1643.13691	2.32765
1641.20835	2.33687
1639.27979	2.34390
1637.35122	2.34591
1635.42266	2.34057
1633.49409	2.32824
1631.56553	2.31154
1629.63696	2.29265
1627.70840	2.26302
1625.77983	2.22718
1623.85127	2.18211
1621.92271	2.12797
1619.99414	2.07960
1618.06558	2.03321
1616.13701	1.96930
1614.20845	1.90376
1612.27988	1.85232
1610.35132	1.79895
1608.42275	1.74234
1606.49419	1.68700
1604.56562	1.63548
1602.63706	1.58587
1600.70850	1.53803
1598.77993	1.49408
1596.85137	1.45298
1594.92280	1.41352
1592.99424	1.37572
1591.06567	1.34145
1589.13711	1.30973
1587.20854	1.28010
1585.27998	1.25284
1583.35142	1.22830
1581.42285	1.20687
1579.49429	1.18867
1577.56572	1.17235
1575.63716	1.15346
1573.70859	1.13724
1571.78003	1.12725
1569.85146	1.11812
1567.92290	1.10823
1565.99434	1.10086
1564.06577	1.09626
1562.13721	1.09379
1560.20864	1.09493
1558.28008	1.10186
1556.35151	1.10643
1554.42295	1.10785
1552.49438	1.10986
1550.56582	1.11041
1548.63726	1.10800
1546.70869	1.10262
1544.78013	1.09414
1542.85156	1.08262
1540.92300	1.06496
1538.99443	1.03561
1537.06587	1.01255
1535.13730	0.99680
1533.20874	0.97663
1531.28018	0.95490
1529.35161	0.93876
1527.42305	0.92390
1525.49448	0.90868
1523.56592	0.89579
1521.63735	0.88413
1519.70879	0.87251
1517.78022	0.86229
1515.85166	0.84995
1513.92310	0.83655
1511.99453	0.82487
1510.06597	0.81470
1508.13740	0.80538
1506.20884	0.79055
1504.28027	0.77562
1502.35171	0.76692
1500.42314	0.76020
1498.49458	0.75367
1496.56602	0.74595
1494.63745	0.73759
1492.70889	0.73108
1490.78032	0.72598
1488.85176	0.72007
1486.92319	0.71364
1484.99463	0.70834
1483.06606	0.70444
1481.13750	0.70160
1479.20894	0.69969
1477.28037	0.69884
1475.35181	0.69894
1473.42324	0.69970
1471.49468	0.69929
1469.56611	0.69683
1467.63755	0.69426
1465.70898	0.69264
1463.78042	0.69163
1461.85186	0.69098
1459.92329	0.69137
1457.99473	0.69303
1456.06616	0.69356
1454.13760	0.69090
1452.20903	0.68784
1450.28047	0.68522
1448.35190	0.68287
1446.42334	0.68026
1444.49478	0.67744
1442.56621	0.67476
1440.63765	0.67214
1438.70908	0.66949
1436.78052	0.66607
1434.85195	0.66183
1432.92339	0.65856
1430.99482	0.65665
1429.06626	0.65564
1427.13770	0.65525
1425.20913	0.65563
1423.28057	0.65667
1421.35200	0.65765
1419.42344	0.65843
1417.49487	0.65863
1415.56631	0.65762
1413.63774	0.65659
1411.70918	0.65649
1409.78062	0.65733
1407.85205	0.65879
1405.92349	0.66081
1403.99492	0.66276
1402.06636	0.66352
1400.13779	0.66332
1398.20923	0.66220
1396.28066	0.65964
1394.35210	0.65559
1392.42354	0.65081
1390.49497	0.64643
1388.56641	0.64219
1386.63784	0.63715
1384.70928	0.63158
1382.78071	0.62634
1380.85215	0.62159
1378.92358	0.61753
1376.99502	0.61452
1375.06646	0.61265
1373.13789	0.61126
1371.20933	0.60988
1369.28076	0.60874
1367.35220	0.60751
1365.42363	0.60602
1363.49507	0.60460
1361.56650	0.60322
1359.63794	0.60158
1357.70937	0.59987
1355.78081	0.59834
1353.85225	0.59709
1351.92368	0.59616
1349.99512	0.59552
1348.06655	0.59498
1346.13799	0.59425
1344.20942	0.59339
1342.28086	0.59278
1340.35229	0.59250
1338.42373	0.59193
1336.49517	0.59103
1334.56660	0.59042
1332.63804	0.59021
1330.70947	0.59037
1328.78091	0.59090
1326.85234	0.59154
1324.92378	0.59224
1322.99521	0.59310
1321.06665	0.59404
1319.13809	0.59490
1317.20952	0.59542
1315.28096	0.59543
1313.35239	0.59514
1311.42383	0.59467
1309.49526	0.59401
1307.56670	0.59325
1305.63813	0.59259
1303.70957	0.59214
1301.78101	0.59170
1299.85244	0.59090
1297.92388	0.58984
1295.99531	0.58868
1294.06675	0.58732
1292.13818	0.58594
1290.20962	0.58482
1288.28105	0.58376
1286.35249	0.58239
1284.42393	0.58080
1282.49536	0.57933
1280.56680	0.57800
1278.63823	0.57665
1276.70967	0.57523
1274.78110	0.57393
1272.85254	0.57293
1270.92397	0.57218
1268.99541	0.57149
1267.06685	0.57071
1265.13828	0.56973
1263.20972	0.56878
1261.28115	0.56793
1259.35259	0.56714
1257.42402	0.56646
1255.49546	0.56594
1253.56689	0.56573
1251.63833	0.56582
1249.70977	0.56584
1247.78120	0.56560
1245.85264	0.56525
1243.92407	0.56460
1241.99551	0.56343
1240.06694	0.56195
1238.13838	0.56030
1236.20981	0.55831
1234.28125	0.55591
1232.35269	0.55346
1230.42412	0.55131
1228.49556	0.54939
1226.56699	0.54745
1224.63843	0.54546
1222.70986	0.54369
1220.78130	0.54214
1218.85273	0.54057
1216.92417	0.53905
1214.99561	0.53775
1213.06704	0.53679
1211.13848	0.53610
1209.20991	0.53537
1207.28135	0.53454
1205.35278	0.53380
1203.42422	0.53308
1201.49565	0.53213
1199.56709	0.53108
1197.63853	0.53021
1195.70996	0.52952
1193.78140	0.52894
1191.85283	0.52838
1189.92427	0.52790
1187.99570	0.52757
1186.06714	0.52736
1184.13857	0.52733
1182.21001	0.52770
1180.28145	0.52856
1178.35288	0.52976
1176.42432	0.53104
1174.49575	0.53223
1172.56719	0.53307
1170.63862	0.53333
1168.71006	0.53320
1166.78149	0.53314
1164.85293	0.53330
1162.92437	0.53341
1160.99580	0.53318
1159.06724	0.53267
1157.13867	0.53209
1155.21011	0.53122
1153.28154	0.52981
1151.35298	0.52805
1149.42441	0.52616
1147.49585	0.52412
1145.56729	0.52179
1143.63872	0.51923
1141.71016	0.51680
1139.78159	0.51493
1137.85303	0.51367
1135.92446	0.51284
1133.99590	0.51227
1132.06733	0.51194
1130.13877	0.51165
1128.21021	0.51108
1126.28164	0.51042
1124.35308	0.51003
1122.42451	0.50964
1120.49595	0.50913
1118.56738	0.50887
1116.63882	0.50896
1114.71025	0.50920
1112.78169	0.50968
1110.85312	0.51058
1108.92456	0.51152
1106.99600	0.51223
1105.06743	0.51305
1103.13887	0.51419
1101.21030	0.51549
1099.28174	0.51710
1097.35317	0.51911
1095.42461	0.52167
1093.49604	0.52507
1091.56748	0.52955
1089.63892	0.53525
1087.71035	0.54199
1085.78179	0.54943
1083.85322	0.55713
1081.92466	0.56418
1079.99609	0.56952
1078.06753	0.57259
1076.13896	0.57298
1074.21040	0.57039
1072.28184	0.56528
1070.35327	0.55880
1068.42471	0.55177
1066.49614	0.54465
1064.56758	0.53797
1062.63901	0.53212
1060.71045	0.52707
1058.78188	0.52248
1056.85332	0.51829
1054.92476	0.51477
1052.99619	0.51181
1051.06763	0.50922
1049.13906	0.50710
1047.21050	0.50550
1045.28193	0.50428
1043.35337	0.50350
1041.42480	0.50311
1039.49624	0.50260
1037.56768	0.50191
1035.63911	0.50139
1033.71055	0.50095
1031.78198	0.50039
1029.85342	0.49956
1027.92485	0.49827
1025.99629	0.49682
1024.06772	0.49587
1022.13916	0.49567
1020.21060	0.49596
1018.28203	0.49628
1016.35347	0.49632
1014.42490	0.49616
1012.49634	0.49617
1010.56777	0.49654
1008.63921	0.49714
1006.71064	0.49802
1004.78208	0.49939
1002.85352	0.50118
1000.92495	0.50352
998.99639	0.50690
997.06782	0.51119
995.13926	0.51566
993.21069	0.51964
991.28213	0.52281
989.35356	0.52504
987.42500	0.52621
985.49644	0.52653
983.56787	0.52679
981.63931	0.52744
979.71074	0.52826
977.78218	0.52935
975.85361	0.53107
973.92505	0.53358
971.99648	0.53680
970.06792	0.54034
968.13936	0.54391
966.21079	0.54778
964.28223	0.55219
962.35366	0.55698
960.42510	0.56199
958.49653	0.56726
956.56797	0.57296
954.63940	0.57913
952.71084	0.58550
950.78228	0.59172
948.85371	0.59785
946.92515	0.60417
944.99658	0.61061
943.06802	0.61677
941.13945	0.62271
939.21089	0.62882
937.28232	0.63512
935.35376	0.64124
933.42520	0.64689
931.49663	0.65229
929.56807	0.65798
927.63950	0.66388
925.71094	0.66975
923.78237	0.67582
921.85381	0.68225
919.92524	0.68862
917.99668	0.69494
916.06812	0.70210
914.13955	0.71032
912.21099	0.71880
910.28242	0.72706
908.35386	0.73532
906.42529	0.74388
904.49673	0.75298
902.56816	0.76282
900.63960	0.77300
898.71104	0.78287
896.78247	0.79244
894.85391	0.80236
892.92534	0.81304
890.99678	0.82405
889.06821	0.83482
887.13965	0.84501
885.21108	0.85530
883.28252	0.86685
881.35396	0.87823
879.42539	0.88884
877.49683	0.90109
875.56826	0.91457
873.63970	0.92738
871.71113	0.93925
869.78257	0.95014
867.85400	0.96048
865.92544	0.97108
863.99687	0.98209
862.06831	0.99335
860.13975	1.00489
858.21118	1.01645
856.28262	1.02827
854.35405	1.04148
852.42549	1.05598
850.49692	1.06973
848.56836	1.08153
846.63979	1.09269
844.71123	1.10442
842.78267	1.11562
840.85410	1.12580
838.92554	1.13674
836.99697	1.14925
835.06841	1.16220
833.13984	1.17543
831.21128	1.18982
829.28271	1.20472
827.35415	1.21857
825.42559	1.23226
823.49702	1.24684
821.56846	1.26056
819.63989	1.27347
817.71133	1.28189
815.78276	1.28267
813.85420	1.28712
811.92563	1.30242
809.99707	1.32200
808.06851	1.33873
806.13994	1.34755
804.21138	1.35797
802.28281	1.38685
800.35425	1.41947
798.42568	1.42773
796.49712	1.43778
794.56855	1.50128
792.63999	1.57901
790.71143	1.59029
788.78286	1.60270
786.85430	1.61042
784.92573	1.58018
782.99717	1.58664
781.06860	1.64941
779.14004	1.56564
777.21147	1.39155
775.28291	1.31456
773.35435	1.36073
771.42578	1.46076
769.49722	1.43513
767.56865	1.26721
765.64009	1.15101
763.71152	1.15637
761.78296	1.22660
759.85439	1.25596
757.92583	1.23242
755.99727	1.21133
754.06870	1.21160
752.14014	1.15485
750.21157	1.07633
748.28301	1.04758
746.35444	0.96673
744.42588	0.83592
742.49731	0.77679
740.56875	0.77413
738.64019	0.73698
736.71162	0.69888
734.78306	0.67505
732.85449	0.54994
730.92593	0.38711
728.99736	0.28646
727.06880	0.21755
725.14023	0.10552
723.21167	-0.00331
721.28311	-0.04135
719.35454	-0.05066
717.42598	-0.11316
715.49741	-0.11855
713.56885	-0.02134
711.64028	0.04594
709.71172	0.09334
707.78315	0.09721
705.85459	0.09876
703.92603	0.13666
701.99746	0.16995
700.06890	0.17298
698.14033	0.15182
696.21177	0.12332
694.28320	0.11343
692.35464	0.11383
690.42607	0.11788
688.49751	0.11975
686.56895	0.11057
684.64038	0.06495
682.71182	0.00913
680.78325	0.01124
678.85469	0.04743
676.92612	0.08570
674.99756	0.14480
673.06899	0.25851
671.14043	0.34905
669.21187	0.29319
667.28330	0.23107
665.35474	0.21827
663.42617	0.25882
661.49761	0.30250
659.56904	0.24464
657.64048	0.17430
655.71191	0.17167
653.78335	0.18134
651.85479	0.14631
649.92622	0.06410
647.99766	0.04542
646.06909	0.10594
644.14053	0.10588
642.21196	0.06539
640.28340	0.10720
638.35483	0.17950
636.42627	0.18466
634.49771	0.14997
632.56914	0.16283
630.64058	0.21707
628.71201	0.23305
626.78345	0.17085
624.85488	0.08976
622.92632	0.08019
620.99775	0.16522
619.06919	0.23683
617.14062	0.21307
615.21206	0.16290
613.28350	0.16379
611.35493	0.20501
609.42637	0.20480
607.49780	0.17050
605.56924	0.18153
603.64067	0.20741
601.71211	0.18782
599.78354	0.15067
597.85498	0.15631
595.92642	0.17923
593.99785	0.17582
592.06929	0.17334
590.14072	0.18512
588.21216	0.19673
586.28359	0.21860
584.35503	0.23688
582.42646	0.19994
580.49790	0.14839
578.56934	0.14828
576.64077	0.19068
574.71221	0.20573
572.78364	0.17681
570.85508	0.17028
568.92651	0.14846
566.99795	0.08504
565.06938	0.04799
563.14082	0.07586
561.21226	0.12943
559.28369	0.16163
557.35513	0.20230
555.42656	0.35600
553.49800	0.50532
551.56943	0.25616
549.64087	0.13033
547.71230	0.08241
545.78374	0.06547
543.85518	0.09025
541.92661	0.12436
539.99805	0.11175
538.06948	0.08390
536.14092	0.09994
534.21235	0.15856
532.28379	0.20668
530.35522	0.22555
528.42666	0.23426
526.49810	0.21729
524.56953	0.19466
522.64097	0.19346
520.71240	0.19144
518.78384	0.19554
516.85527	0.20549
514.92671	0.21106
512.99814	0.22324
511.06958	0.19725
509.14102	0.11603
507.21245	0.05137
505.28389	0.04900
503.35532	0.09084
501.42676	0.12351
499.49819	0.13453
