3997.91411	0.07351
3995.98555	0.07355
3994.05698	0.07394
3992.12842	0.07464
3990.19985	0.07548
3988.27129	0.07619
3986.34272	0.07641
3984.41416	0.07626
3982.48560	0.07630
3980.55703	0.07682
3978.62847	0.07726
3976.69990	0.07736
3974.77134	0.07762
3972.84277	0.07774
3970.91421	0.07726
3968.98564	0.07689
3967.05708	0.07709
3965.12852	0.07747
3963.19995	0.07772
3961.27139	0.07796
3959.34282	0.07825
3957.41426	0.07835
3955.48569	0.07811
3953.55713	0.07793
3951.62856	0.07832
3949.70000	0.07913
3947.77144	0.07971
3945.84287	0.07950
3943.91431	0.07915
3941.98574	0.07935
3940.05718	0.07914
3938.12861	0.07808
3936.20005	0.07732
3934.27148	0.07772
3932.34292	0.07914
3930.41436	0.08029
3928.48579	0.08006
3926.55723	0.07940
3924.62866	0.07916
3922.70010	0.07864
3920.77153	0.07765
3918.84297	0.07688
3916.91440	0.07709
3914.98584	0.07798
3913.05728	0.07812
3911.12871	0.07748
3909.20015	0.07706
3907.27158	0.07732
3905.34302	0.07833
3903.41445	0.07988
3901.48589	0.08085
3899.55732	0.08083
3897.62876	0.08019
3895.70020	0.07916
3893.77163	0.07859
3891.84307	0.07883
3889.91450	0.07893
3887.98594	0.07851
3886.05737	0.07872
3884.12881	0.07957
3882.20024	0.07996
3880.27168	0.07985
3878.34312	0.07919
3876.41455	0.07882
3874.48599	0.07975
3872.55742	0.08124
3870.62886	0.08233
3868.70029	0.08269
3866.77173	0.08225
3864.84316	0.08233
3862.91460	0.08277
3860.98604	0.08210
3859.05747	0.08123
3857.12891	0.08150
3855.20034	0.08319
3853.27178	0.08617
3851.34321	0.08754
3849.41465	0.08585
3847.48608	0.08431
3845.55752	0.08402
3843.62896	0.08497
3841.70039	0.08648
3839.77183	0.08800
3837.84326	0.08962
3835.91470	0.09070
3833.98613	0.09068
3832.05757	0.09004
3830.12900	0.08968
3828.20044	0.09009
3826.27187	0.09114
3824.34331	0.09223
3822.41475	0.09363
3820.48618	0.09578
3818.55762	0.09634
3816.62905	0.09588
3814.70049	0.09644
3812.77192	0.09672
3810.84336	0.09665
3808.91479	0.09746
3806.98623	0.09920
3805.05767	0.10093
3803.12910	0.10250
3801.20054	0.10428
3799.27197	0.10505
3797.34341	0.10517
3795.41484	0.10586
3793.48628	0.10614
3791.55771	0.10618
3789.62915	0.10720
3787.70059	0.10918
3785.77202	0.11129
3783.84346	0.11285
3781.91489	0.11379
3779.98633	0.11513
3778.05776	0.11724
3776.12920	0.11880
3774.20063	0.11963
3772.27207	0.12074
3770.34351	0.12294
3768.41494	0.12598
3766.48638	0.12835
3764.55781	0.12994
3762.62925	0.13127
3760.70068	0.13300
3758.77212	0.13575
3756.84355	0.13870
3754.91499	0.14095
3752.98643	0.14359
3751.05786	0.14812
3749.12930	0.15331
3747.20073	0.15602
3745.27217	0.15788
3743.34360	0.16108
3741.41504	0.16415
3739.48647	0.16644
3737.55791	0.16973
3735.62935	0.17494
3733.70078	0.18095
3731.77222	0.18556
3729.84365	0.18878
3727.91509	0.19213
3725.98652	0.19728
3724.05796	0.20363
3722.12939	0.20951
3720.20083	0.21548
3718.27227	0.22211
3716.34370	0.22938
3714.41514	0.23697
3712.48657	0.24599
3710.55801	0.25892
3708.62944	0.27311
3706.70088	0.28438
3704.77231	0.29494
3702.84375	0.30779
3700.91519	0.32441
3698.98662	0.34231
3697.05806	0.35930
3695.12949	0.37734
3693.20093	0.39687
3691.27236	0.41867
3689.34380	0.44634
3687.41523	0.47906
3685.48667	0.50792
3683.55811	0.53354
3681.62954	0.56135
3679.70098	0.59248
3677.77241	0.62523
3675.84385	0.66438
3673.91528	0.71573
3671.98672	0.75740
3670.05815	0.79513
3668.12959	0.84669
3666.20103	0.89379
3664.27246	0.93323
3662.34390	0.97608
3660.41533	1.02317
3658.48677	1.06958
3656.55820	1.11806
3654.62964	1.17140
3652.70107	1.21698
3650.77251	1.25795
3648.84395	1.31314
3646.91538	1.37736
3644.98682	1.42528
3643.05825	1.46412
3641.12969	1.50424
3639.20112	1.54797
3637.27256	1.59175
3635.34399	1.63431
3633.41543	1.67711
3631.48687	1.71731
3629.55830	1.75826
3627.62974	1.81184
3625.70117	1.86185
3623.77261	1.89643
3621.84404	1.93045
3619.91548	1.96898
3617.98691	2.01300
3616.05835	2.05496
3614.12979	2.09150
3612.20122	2.12970
3610.27266	2.16843
3608.34409	2.20952
3606.41553	2.25305
3604.48696	2.29221
3602.55840	2.32763
3600.62983	2.36567
3598.70127	2.40598
3596.77271	2.44492
3594.84414	2.48438
3592.91558	2.52575
3590.98701	2.56521
3589.05845	2.60179
3587.12988	2.64479
3585.20132	2.69314
3583.27275	2.73583
3581.34419	2.77453
3579.41562	2.81437
3577.48706	2.85670
3575.55850	2.90036
3573.62993	2.94519
3571.70137	2.98828
3569.77280	3.02835
3567.84424	3.07066
3565.91567	3.12154
3563.98711	3.16986
3562.05854	3.21021
3560.12998	3.25245
3558.20142	3.29817
3556.27285	3.34351
3554.34429	3.38757
3552.41572	3.43447
3550.48716	3.48239
3548.55859	3.52763
3546.63003	3.57402
3544.70146	3.62427
3542.77290	3.67311
3540.84434	3.71916
3538.91577	3.76607
3536.98721	3.81292
3535.05864	3.85939
3533.13008	3.90519
3531.20151	3.95245
3529.27295	4.00160
3527.34438	4.05044
3525.41582	4.09810
3523.48726	4.14375
3521.55869	4.19183
3519.63013	4.24424
3517.70156	4.29409
3515.77300	4.34030
3513.84443	4.38879
3511.91587	4.43912
3509.98730	4.48991
3508.05874	4.54096
3506.13018	4.58838
3504.20161	4.63138
3502.27305	4.67461
3500.34448	4.71985
3498.41592	4.76574
3496.48735	4.81577
3494.55879	4.86959
3492.63022	4.92368
3490.70166	4.97740
3488.77310	5.02661
3486.84453	5.07115
3484.91597	5.11766
3482.98740	5.16539
3481.05884	5.20847
3479.13027	5.24967
3477.20171	5.29784
3475.27314	5.34901
3473.34458	5.39459
3471.41602	5.44098
3469.48745	5.49557
3467.55889	5.54926
3465.63032	5.59491
3463.70176	5.63893
3461.77319	5.68817
3459.84463	5.75213
3457.91606	5.82078
3455.98750	5.87846
3454.05894	5.92627
3452.13037	5.96751
3450.20181	6.01248
3448.27324	6.06314
3446.34468	6.11693
3444.41611	6.16981
3442.48755	6.21470
3440.55898	6.26015
3438.63042	6.32188
3436.70186	6.37455
3434.77329	6.39521
3432.84473	6.41791
3430.91616	6.46236
3428.98760	6.51569
3427.05903	6.56360
3425.13047	6.62829
3423.20190	6.71984
3421.27334	6.79181
3419.34478	6.82349
3417.41621	6.84954
3415.48765	6.89143
3413.55908	6.94161
3411.63052	6.98889
3409.70195	7.02252
3407.77339	7.04994
3405.84482	7.09609
3403.91626	7.17701
3401.98770	7.23343
3400.05913	7.24368
3398.13057	7.27341
3396.20200	7.33425
3394.27344	7.39701
3392.34487	7.43859
3390.41631	7.49910
3388.48774	7.58516
3386.55918	7.62816
3384.63062	7.60814
3382.70205	7.60536
3380.77349	7.67728
3378.84492	7.77007
3376.91636	7.80207
3374.98779	7.75529
3373.05923	7.73104
3371.13066	7.77742
3369.20210	7.82467
3367.27354	7.83621
3365.34497	7.85770
3363.41641	7.88571
3361.48784	7.88907
3359.55928	7.89852
3357.63071	7.92254
3355.70215	7.93735
3353.77358	7.94721
3351.84502	8.02436
3349.91646	8.11192
3347.98789	8.10786
3346.05933	8.07652
3344.13076	8.08179
3342.20220	8.13655
3340.27363	8.18608
3338.34507	8.18765
3336.41650	8.14031
3334.48794	8.09099
3332.55937	8.11341
3330.63081	8.20253
3328.70225	8.29347
3326.77368	8.32890
3324.84512	8.25167
3322.91655	8.14141
3320.98799	8.12282
3319.05942	8.12848
3317.13086	8.14791
3315.20229	8.21920
3313.27373	8.26687
3311.34517	8.29228
3309.41660	8.34501
3307.48804	8.36136
3305.55947	8.33926
3303.63091	8.36129
3301.70234	8.34012
3299.77378	8.27277
3297.84521	8.26593
3295.91665	8.27353
3293.98809	8.25915
3292.05952	8.28882
3290.13096	8.34562
3288.20239	8.35790
3286.27383	8.35575
3284.34526	8.33770
3282.41670	8.30163
3280.48813	8.33800
3278.55957	8.46491
3276.63101	8.57327
3274.70244	8.58487
3272.77388	8.50911
3270.84531	8.40981
3268.91675	8.33021
3266.98818	8.28920
3265.05962	8.33377
3263.13105	8.42378
3261.20249	8.52725
3259.27393	8.62148
3257.34536	8.61329
3255.41680	8.57301
3253.48823	8.55059
3251.55967	8.48211
3249.63110	8.43782
3247.70254	8.47109
3245.77397	8.50149
3243.84541	8.50605
3241.91685	8.51487
3239.98828	8.48415
3238.05972	8.42241
3236.13115	8.43559
3234.20259	8.50674
3232.27402	8.51725
3230.34546	8.45905
3228.41689	8.39989
3226.48833	8.35321
3224.55977	8.28415
3222.63120	8.21366
3220.70264	8.16860
3218.77407	8.14497
3216.84551	8.18132
3214.91694	8.27424
3212.98838	8.24945
3211.05981	8.07102
3209.13125	7.95396
3207.20269	7.95982
3205.27412	8.00102
3203.34556	7.98834
3201.41699	7.91036
3199.48843	7.84878
3197.55986	7.85141
3195.63130	7.87285
3193.70273	7.84272
3191.77417	7.76706
3189.84561	7.69619
3187.91704	7.64520
3185.98848	7.62082
3184.05991	7.61568
3182.13135	7.58270
3180.20278	7.48021
3178.27422	7.34366
3176.34565	7.25959
3174.41709	7.23131
3172.48853	7.19862
3170.55996	7.14765
3168.63140	7.09465
3166.70283	7.04686
3164.77427	6.99975
3162.84570	6.92604
3160.91714	6.81280
3158.98857	6.70675
3157.06001	6.64906
3155.13145	6.62054
3153.20288	6.56473
3151.27432	6.46967
3149.34575	6.39195
3147.41719	6.35582
3145.48862	6.31887
3143.56006	6.25063
3141.63149	6.16209
3139.70293	6.06592
3137.77437	5.97761
3135.84580	5.90708
3133.91724	5.84453
3131.98867	5.77770
3130.06011	5.70725
3128.13154	5.63795
3126.20298	5.56970
3124.27441	5.50381
3122.34585	5.43262
3120.41729	5.35127
3118.48872	5.27453
3116.56016	5.20664
3114.63159	5.13483
3112.70303	5.06049
3110.77446	4.99134
3108.84590	4.92415
3106.91733	4.85738
3104.98877	4.79202
3103.06021	4.72611
3101.13164	4.65683
3099.20308	4.58639
3097.27451	4.51944
3095.34595	4.45477
3093.41738	4.39192
3091.48882	4.33149
3089.56025	4.26577
3087.63169	4.19267
3085.70312	4.12426
3083.77456	4.06389
3081.84600	4.00456
3079.91743	3.94615
3077.98887	3.88914
3076.06030	3.82914
3074.13174	3.76654
3072.20317	3.70531
3070.27461	3.64600
3068.34604	3.58723
3066.41748	3.52897
3064.48892	3.47274
3062.56035	3.41884
3060.63179	3.36532
3058.70322	3.31039
3056.77466	3.25497
3054.84609	3.20019
3052.91753	3.14671
3050.98896	3.09551
3049.06040	3.04440
3047.13184	2.99240
3045.20327	2.94225
3043.27471	2.89385
3041.34614	2.84543
3039.41758	2.79738
3037.48901	2.75061
3035.56045	2.70514
3033.63188	2.65990
3031.70332	2.61361
3029.77476	2.56727
3027.84619	2.52268
3025.91763	2.47957
3023.98906	2.43679
3022.06050	2.39415
3020.13193	2.35195
3018.20337	2.31030
3016.27480	2.26914
3014.34624	2.22864
3012.41768	2.18914
3010.48911	2.15049
3008.56055	2.11291
3006.63198	2.07643
3004.70342	2.04025
3002.77485	2.00459
3000.84629	1.96998
2998.91772	1.93578
2996.98916	1.90186
2995.06060	1.86936
2993.13203	1.83839
2991.20347	1.80779
2989.27490	1.77740
2987.34634	1.74779
2985.41777	1.71886
2983.48921	1.69043
2981.56064	1.66271
2979.63208	1.63534
2977.70352	1.60821
2975.77495	1.58192
2973.84639	1.55631
2971.91782	1.53090
2969.98926	1.50616
2968.06069	1.48224
2966.13213	1.45811
2964.20356	1.43364
2962.27500	1.40973
2960.34644	1.38624
2958.41787	1.36268
2956.48931	1.33908
2954.56074	1.31549
2952.63218	1.29182
2950.70361	1.26853
2948.77505	1.24612
2946.84648	1.22436
2944.91792	1.20306
2942.98936	1.18229
2941.06079	1.16196
2939.13223	1.14170
2937.20366	1.12148
2935.27510	1.10091
2933.34653	1.07964
2931.41797	1.05880
2929.48940	1.03919
2927.56084	1.02042
2925.63228	1.00177
2923.70371	0.98322
2921.77515	0.96573
2919.84658	0.94913
2917.91802	0.93230
2915.98945	0.91536
2914.06089	0.89905
2912.13232	0.88350
2910.20376	0.86833
2908.27520	0.85344
2906.34663	0.83880
2904.41807	0.82401
2902.48950	0.80928
2900.56094	0.79539
2898.63237	0.78233
2896.70381	0.76969
2894.77524	0.75719
2892.84668	0.74453
2890.91812	0.73195
2888.98955	0.71991
2887.06099	0.70872
2885.13242	0.69854
2883.20386	0.68896
2881.27529	0.67928
2879.34673	0.66948
2877.41816	0.65977
2875.48960	0.64988
2873.56104	0.63958
2871.63247	0.62883
2869.70391	0.61759
2867.77534	0.60599
2865.84678	0.59420
2863.91821	0.58243
2861.98965	0.57092
2860.06108	0.55981
2858.13252	0.54893
2856.20396	0.53847
2854.27539	0.52893
2852.34683	0.52016
2850.41826	0.51190
2848.48970	0.50410
2846.56113	0.49671
2844.63257	0.48974
2842.70400	0.48305
2840.77544	0.47636
2838.84687	0.46972
2836.91831	0.46337
2834.98975	0.45728
2833.06118	0.45131
2831.13262	0.44531
2829.20405	0.43913
2827.27549	0.43289
2825.34692	0.42678
2823.41836	0.42080
2821.48979	0.41492
2819.56123	0.40920
2817.63267	0.40360
2815.70410	0.39786
2813.77554	0.39204
2811.84697	0.38643
2809.91841	0.38093
2807.98984	0.37542
2806.06128	0.37013
2804.13271	0.36512
2802.20415	0.36022
2800.27559	0.35538
2798.34702	0.35057
2796.41846	0.34564
2794.48989	0.34065
2792.56133	0.33585
2790.63276	0.33137
2788.70420	0.32714
2786.77563	0.32302
2784.84707	0.31881
2782.91851	0.31443
2780.98994	0.31000
2779.06138	0.30576
2777.13281	0.30178
2775.20425	0.29800
2773.27568	0.29432
2771.34712	0.29062
2769.41855	0.28683
2767.48999	0.28314
2765.56143	0.27961
2763.63286	0.27610
2761.70430	0.27266
2759.77573	0.26946
2757.84717	0.26633
2755.91860	0.26309
2753.99004	0.25994
2752.06147	0.25694
2750.13291	0.25389
2748.20435	0.25091
2746.27578	0.24815
2744.34722	0.24543
2742.41865	0.24278
2740.49009	0.24026
2738.56152	0.23763
2736.63296	0.23496
2734.70439	0.23236
2732.77583	0.22987
2730.84727	0.22752
2728.91870	0.22521
2726.99014	0.22299
2725.06157	0.22085
2723.13301	0.21872
2721.20444	0.21667
2719.27588	0.21460
2717.34731	0.21252
2715.41875	0.21066
2713.49019	0.20882
2711.56162	0.20684
2709.63306	0.20501
2707.70449	0.20340
2705.77593	0.20183
2703.84736	0.20020
2701.91880	0.19857
2699.99023	0.19700
2698.06167	0.19540
2696.13311	0.19382
2694.20454	0.19228
2692.27598	0.19080
2690.34741	0.18951
2688.41885	0.18828
2686.49028	0.18693
2684.56172	0.18552
2682.63315	0.18423
2680.70459	0.18300
2678.77603	0.18178
2676.84746	0.18070
2674.91890	0.17980
2672.99033	0.17885
2671.06177	0.17787
2669.13320	0.17694
2667.20464	0.17595
2665.27607	0.17490
2663.34751	0.17394
2661.41895	0.17307
2659.49038	0.17228
2657.56182	0.17157
2655.63325	0.17079
2653.70469	0.16987
2651.77612	0.16903
2649.84756	0.16845
2647.91899	0.16792
2645.99043	0.16725
2644.06187	0.16658
2642.13330	0.16602
2640.20474	0.16552
2638.27617	0.16495
2636.34761	0.16433
2634.41904	0.16388
2632.49048	0.16353
2630.56191	0.16304
2628.63335	0.16247
2626.70479	0.16196
2624.77622	0.16160
2622.84766	0.16130
2620.91909	0.16096
2618.99053	0.16073
2617.06196	0.16061
2615.13340	0.16042
2613.20483	0.16017
2611.27627	0.15983
2609.34771	0.15952
2607.41914	0.15947
2605.49058	0.15962
2603.56201	0.15973
2601.63345	0.15965
2599.70488	0.15942
2597.77632	0.15925
2595.84775	0.15929
2593.91919	0.15949
2591.99062	0.15963
2590.06206	0.15966
2588.13350	0.15973
2586.20493	0.15989
2584.27637	0.15999
2582.34780	0.15999
2580.41924	0.16014
2578.49067	0.16050
2576.56211	0.16083
2574.63354	0.16107
2572.70498	0.16137
2570.77642	0.16178
2568.84785	0.16208
2566.91929	0.16232
2564.99072	0.16268
2563.06216	0.16312
2561.13359	0.16358
2559.20503	0.16409
2557.27646	0.16454
2555.34790	0.16494
2553.41934	0.16537
2551.49077	0.16582
2549.56221	0.16632
2547.63364	0.16684
2545.70508	0.16719
2543.77651	0.16749
2541.84795	0.16796
2539.91938	0.16860
2537.99082	0.16931
2536.06226	0.16994
2534.13369	0.17054
2532.20513	0.17127
2530.27656	0.17203
2528.34800	0.17269
2526.41943	0.17332
2524.49087	0.17398
2522.56230	0.17461
2520.63374	0.17520
2518.70518	0.17590
2516.77661	0.17677
2514.84805	0.17764
2512.91948	0.17839
2510.99092	0.17900
2509.06235	0.17966
2507.13379	0.18056
2505.20522	0.18150
2503.27666	0.18232
2501.34810	0.18307
2499.41953	0.18383
2497.49097	0.18460
2495.56240	0.18542
2493.63384	0.18627
2491.70527	0.18712
2489.77671	0.18798
2487.84814	0.18893
2485.91958	0.18982
2483.99102	0.19045
2482.06245	0.19101
2480.13389	0.19185
2478.20532	0.19290
2476.27676	0.19388
2474.34819	0.19469
2472.41963	0.19546
2470.49106	0.19634
2468.56250	0.19723
2466.63394	0.19805
2464.70537	0.19890
2462.77681	0.19983
2460.84824	0.20079
2458.91968	0.20169
2456.99111	0.20252
2455.06255	0.20341
2453.13398	0.20438
2451.20542	0.20531
2449.27686	0.20627
2447.34829	0.20734
2445.41973	0.20833
2443.49116	0.20926
2441.56260	0.21022
2439.63403	0.21125
2437.70547	0.21229
2435.77690	0.21327
2433.84834	0.21425
2431.91978	0.21530
2429.99121	0.21642
2428.06265	0.21749
2426.13408	0.21847
2424.20552	0.21941
2422.27695	0.22034
2420.34839	0.22143
2418.41982	0.22268
2416.49126	0.22391
2414.56270	0.22499
2412.63413	0.22593
2410.70557	0.22689
2408.77700	0.22800
2406.84844	0.22917
2404.91987	0.23036
2402.99131	0.23154
2401.06274	0.23281
2399.13418	0.23415
2397.20562	0.23542
2395.27705	0.23658
2393.34849	0.23768
2391.41992	0.23890
2389.49136	0.24022
2387.56279	0.24161
2385.63423	0.24328
2383.70566	0.24531
2381.77710	0.24762
2379.84854	0.25023
2377.91997	0.25321
2375.99141	0.25642
2374.06284	0.25983
2372.13428	0.26351
2370.20571	0.26752
2368.27715	0.27159
2366.34858	0.27524
2364.42002	0.27853
2362.49146	0.28190
2360.56289	0.28487
2358.63433	0.28686
2356.70576	0.28779
2354.77720	0.28744
2352.84863	0.28575
2350.92007	0.28352
2348.99150	0.28243
2347.06294	0.28346
2345.13437	0.28699
2343.20581	0.29171
2341.27725	0.29477
2339.34868	0.29603
2337.42012	0.29686
2335.49155	0.29771
2333.56299	0.29835
2331.63442	0.29919
2329.70586	0.30043
2327.77729	0.30167
2325.84873	0.30257
2323.92017	0.30322
2321.99160	0.30386
2320.06304	0.30456
2318.13447	0.30506
2316.20591	0.30544
2314.27734	0.30623
2312.34878	0.30741
2310.42021	0.30849
2308.49165	0.30944
2306.56309	0.31057
2304.63452	0.31191
2302.70596	0.31333
2300.77739	0.31479
2298.84883	0.31626
2296.92026	0.31766
2294.99170	0.31914
2293.06313	0.32075
2291.13457	0.32229
2289.20601	0.32373
2287.27744	0.32528
2285.34888	0.32710
2283.42031	0.32906
2281.49175	0.33092
2279.56318	0.33280
2277.63462	0.33490
2275.70605	0.33712
2273.77749	0.33922
2271.84893	0.34118
2269.92036	0.34314
2267.99180	0.34529
2266.06323	0.34764
2264.13467	0.34994
2262.20610	0.35201
2260.27754	0.35387
2258.34897	0.35573
2256.42041	0.35777
2254.49185	0.36004
2252.56328	0.36234
2250.63472	0.36450
2248.70615	0.36659
2246.77759	0.36874
2244.84902	0.37089
2242.92046	0.37304
2240.99189	0.37529
2239.06333	0.37754
2237.13477	0.37964
2235.20620	0.38166
2233.27764	0.38384
2231.34907	0.38617
2229.42051	0.38838
2227.49194	0.39055
2225.56338	0.39286
2223.63481	0.39518
2221.70625	0.39738
2219.77769	0.39955
2217.84912	0.40171
2215.92056	0.40386
2213.99199	0.40599
2212.06343	0.40796
2210.13486	0.40987
2208.20630	0.41204
2206.27773	0.41440
2204.34917	0.41661
2202.42061	0.41869
2200.49204	0.42084
2198.56348	0.42305
2196.63491	0.42505
2194.70635	0.42669
2192.77778	0.42823
2190.84922	0.43000
2188.92065	0.43192
2186.99209	0.43384
2185.06353	0.43571
2183.13496	0.43746
2181.20640	0.43914
2179.27783	0.44075
2177.34927	0.44231
2175.42070	0.44382
2173.49214	0.44524
2171.56357	0.44664
2169.63501	0.44806
2167.70645	0.44940
2165.77788	0.45063
2163.84932	0.45194
2161.92075	0.45325
2159.99219	0.45439
2158.06362	0.45529
2156.13506	0.45601
2154.20649	0.45666
2152.27793	0.45737
2150.34937	0.45819
2148.42080	0.45896
2146.49224	0.45948
2144.56367	0.45978
2142.63511	0.46008
2140.70654	0.46040
2138.77798	0.46067
2136.84941	0.46085
2134.92085	0.46093
2132.99229	0.46086
2131.06372	0.46071
2129.13516	0.46052
2127.20659	0.46024
2125.27803	0.45987
2123.34946	0.45945
2121.42090	0.45895
2119.49233	0.45825
2117.56377	0.45743
2115.63521	0.45671
2113.70664	0.45595
2111.77808	0.45499
2109.84951	0.45395
2107.92095	0.45287
2105.99238	0.45165
2104.06382	0.45039
2102.13525	0.44915
2100.20669	0.44779
2098.27812	0.44638
2096.34956	0.44505
2094.42100	0.44360
2092.49243	0.44194
2090.56387	0.44013
2088.63530	0.43821
2086.70674	0.43620
2084.77817	0.43418
2082.84961	0.43216
2080.92104	0.43010
2078.99248	0.42808
2077.06392	0.42606
2075.13535	0.42390
2073.20679	0.42160
2071.27822	0.41928
2069.34966	0.41699
2067.42109	0.41469
2065.49253	0.41244
2063.56396	0.41013
2061.63540	0.40769
2059.70684	0.40522
2057.77827	0.40272
2055.84971	0.40005
2053.92114	0.39729
2051.99258	0.39468
2050.06401	0.39214
2048.13545	0.38958
2046.20688	0.38697
2044.27832	0.38427
2042.34976	0.38147
2040.42119	0.37866
2038.49263	0.37590
2036.56406	0.37315
2034.63550	0.37038
2032.70693	0.36763
2030.77837	0.36491
2028.84980	0.36212
2026.92124	0.35934
2024.99268	0.35656
2023.06411	0.35369
2021.13555	0.35083
2019.20698	0.34804
2017.27842	0.34530
2015.34985	0.34258
2013.42129	0.33988
2011.49272	0.33712
2009.56416	0.33430
2007.63560	0.33157
2005.70703	0.32893
2003.77847	0.32621
2001.84990	0.32346
1999.92134	0.32087
1997.99277	0.31838
1996.06421	0.31586
1994.13564	0.31341
1992.20708	0.31102
1990.27852	0.30851
1988.34995	0.30595
1986.42139	0.30339
1984.49282	0.30086
1982.56426	0.29847
1980.63569	0.29614
1978.70713	0.29379
1976.77856	0.29154
1974.85000	0.28941
1972.92144	0.28726
1970.99287	0.28518
1969.06431	0.28324
1967.13574	0.28130
1965.20718	0.27928
1963.27861	0.27732
1961.35005	0.27539
1959.42148	0.27342
1957.49292	0.27159
1955.56436	0.26995
1953.63579	0.26831
1951.70723	0.26652
1949.77866	0.26477
1947.85010	0.26317
1945.92153	0.26172
1943.99297	0.26048
1942.06440	0.25917
1940.13584	0.25758
1938.20728	0.25601
1936.27871	0.25462
1934.35015	0.25328
1932.42158	0.25204
1930.49302	0.25087
1928.56445	0.24976
1926.63589	0.24875
1924.70732	0.24789
1922.77876	0.24693
1920.85020	0.24588
1918.92163	0.24508
1916.99307	0.24433
1915.06450	0.24332
1913.13594	0.24236
1911.20737	0.24165
1909.27881	0.24103
1907.35024	0.24041
1905.42168	0.23976
1903.49312	0.23905
1901.56455	0.23836
1899.63599	0.23781
1897.70742	0.23748
1895.77886	0.23726
1893.85029	0.23693
1891.92173	0.23652
1889.99316	0.23636
1888.06460	0.23617
1886.13604	0.23582
1884.20747	0.23549
1882.27891	0.23528
1880.35034	0.23518
1878.42178	0.23513
1876.49321	0.23517
1874.56465	0.23526
1872.63608	0.23543
1870.70752	0.23581
1868.77896	0.23649
1866.85039	0.23674
1864.92183	0.23642
1862.99326	0.23634
1861.06470	0.23661
1859.13613	0.23697
1857.20757	0.23727
1855.27900	0.23765
1853.35044	0.23807
1851.42187	0.23859
1849.49331	0.23929
1847.56475	0.24017
1845.63618	0.24119
1843.70762	0.24222
1841.77905	0.24281
1839.85049	0.24311
1837.92192	0.24382
1835.99336	0.24469
1834.06479	0.24557
1832.13623	0.24664
1830.20767	0.24824
1828.27910	0.24987
1826.35054	0.25096
1824.42197	0.25214
1822.49341	0.25326
1820.56484	0.25432
1818.63628	0.25563
1816.70771	0.25732
1814.77915	0.25912
1812.85059	0.26100
1810.92202	0.26305
1808.99346	0.26501
1807.06489	0.26680
1805.13633	0.26861
1803.20776	0.27088
1801.27920	0.27356
1799.35063	0.27642
1797.42207	0.27882
1795.49351	0.28109
1793.56494	0.28396
1791.63638	0.28776
1789.70781	0.29122
1787.77925	0.29370
1785.85068	0.29664
1783.92212	0.30026
1781.99355	0.30431
1780.06499	0.30859
1778.13643	0.31284
1776.20786	0.31685
1774.27930	0.32124
1772.35073	0.32714
1770.42217	0.33338
1768.49360	0.33848
1766.56504	0.34344
1764.63647	0.34874
1762.70791	0.35479
1760.77935	0.36237
1758.85078	0.36943
1756.92222	0.37644
1754.99365	0.38405
1753.06509	0.39115
1751.13652	0.39966
1749.20796	0.41007
1747.27939	0.42027
1745.35083	0.42952
1743.42227	0.43936
1741.49370	0.45010
1739.56514	0.46267
1737.63657	0.47540
1735.70801	0.48674
1733.77944	0.50322
1731.85088	0.52229
1729.92231	0.53747
1727.99375	0.55312
1726.06519	0.57016
1724.13662	0.58859
1722.20806	0.60826
1720.27949	0.62672
1718.35093	0.64863
1716.42236	0.68001
1714.49380	0.70967
1712.56523	0.73440
1710.63667	0.75872
1708.70811	0.78487
1706.77954	0.81455
1704.85098	0.84976
1702.92241	0.88146
1700.99385	0.91360
1699.06528	0.96076
1697.13672	1.00370
1695.20815	1.04750
1693.27959	1.09071
1691.35103	1.12640
1689.42246	1.16772
1687.49390	1.21147
1685.56533	1.25439
1683.63677	1.31938
1681.70820	1.38620
1679.77964	1.42962
1677.85107	1.47076
1675.92251	1.51830
1673.99395	1.57708
1672.06538	1.63008
1670.13682	1.68265
1668.20825	1.74999
1666.27969	1.80576
1664.35112	1.85432
1662.42256	1.91591
1660.49399	1.98608
1658.56543	2.04222
1656.63687	2.08765
1654.70830	2.12880
1652.77974	2.18940
1650.85117	2.24259
1648.92261	2.25884
1646.99404	2.28004
1645.06548	2.30546
1643.13691	2.32129
1641.20835	2.32767
1639.27979	2.33448
1637.35122	2.34055
1635.42266	2.33890
1633.49409	2.32639
1631.56553	2.30821
1629.63696	2.28657
1627.70840	2.25438
1625.77983	2.21953
1623.85127	2.17769
1621.92271	2.12533
1619.99414	2.07689
1618.06558	2.03040
1616.13701	1.96606
1614.20845	1.89948
1612.27988	1.84848
1610.35132	1.79666
1608.42275	1.74004
1606.49419	1.68358
1604.56562	1.63225
1602.63706	1.58331
1600.70850	1.53542
1598.77993	1.49122
1596.85137	1.44998
1594.92280	1.41066
1592.99424	1.37323
1591.06567	1.33904
1589.13711	1.30715
1587.20854	1.27752
1585.27998	1.25034
1583.35142	1.22556
1581.42285	1.20376
1579.49429	1.18568
1577.56572	1.16988
1575.63716	1.15115
1573.70859	1.13459
1571.78003	1.12421
1569.85146	1.11460
1567.92290	1.10436
1565.99434	1.09703
1564.06577	1.09250
1562.13721	1.08985
1560.20864	1.09019
1558.28008	1.09556
1556.35151	1.09971
1554.42295	1.10128
1552.49438	1.10310
1550.56582	1.10339
1548.63726	1.10095
1546.70869	1.09597
1544.78013	1.08812
1542.85156	1.07663
1540.92300	1.05868
1538.99443	1.02983
1537.06587	1.00687
1535.13730	0.99093
1533.20874	0.97113
1531.28018	0.95016
1529.35161	0.93449
1527.42305	0.91965
1525.49448	0.90424
1523.56592	0.89137
1521.63735	0.87968
1519.70879	0.86782
1517.78022	0.85761
1515.85166	0.84588
1513.92310	0.83318
1511.99453	0.82177
1510.06597	0.81154
1508.13740	0.80201
1506.20884	0.78755
1504.28027	0.77372
1502.35171	0.76537
1500.42314	0.75846
1498.49458	0.75170
1496.56602	0.74380
1494.63745	0.73552
1492.70889	0.72918
1490.78032	0.72403
1488.85176	0.71828
1486.92319	0.71235
1484.99463	0.70732
1483.06606	0.70359
1481.13750	0.70087
1479.20894	0.69888
1477.28037	0.69786
1475.35181	0.69787
1473.42324	0.69853
1471.49468	0.69828
1469.56611	0.69628
1467.63755	0.69395
1465.70898	0.69232
1463.78042	0.69136
1461.85186	0.69089
1459.92329	0.69121
1457.99473	0.69233
1456.06616	0.69246
1454.13760	0.69015
1452.20903	0.68729
1450.28047	0.68462
1448.35190	0.68217
1446.42334	0.67966
1444.49478	0.67715
1442.56621	0.67464
1440.63765	0.67198
1438.70908	0.66924
1436.78052	0.66585
1434.85195	0.66174
1432.92339	0.65837
1430.99482	0.65624
1429.06626	0.65524
1427.13770	0.65506
1425.20913	0.65542
1423.28057	0.65621
1421.35200	0.65700
1419.42344	0.65758
1417.49487	0.65748
1415.56631	0.65657
1413.63774	0.65592
1411.70918	0.65597
1409.78062	0.65671
1407.85205	0.65810
1405.92349	0.66007
1403.99492	0.66178
1402.06636	0.66221
1400.13779	0.66174
1398.20923	0.66049
1396.28066	0.65811
1394.35210	0.65443
1392.42354	0.65003
1390.49497	0.64583
1388.56641	0.64153
1386.63784	0.63643
1384.70928	0.63104
1382.78071	0.62597
1380.85215	0.62119
1378.92358	0.61710
1376.99502	0.61422
1375.06646	0.61257
1373.13789	0.61147
1371.20933	0.61037
1369.28076	0.60931
1367.35220	0.60809
1365.42363	0.60661
1363.49507	0.60506
1361.56650	0.60359
1359.63794	0.60210
1357.70937	0.60054
1355.78081	0.59903
1353.85225	0.59773
1351.92368	0.59670
1349.99512	0.59593
1348.06655	0.59525
1346.13799	0.59457
1344.20942	0.59387
1342.28086	0.59317
1340.35229	0.59261
1338.42373	0.59205
1336.49517	0.59134
1334.56660	0.59076
1332.63804	0.59056
1330.70947	0.59062
1328.78091	0.59080
1326.85234	0.59121
1324.92378	0.59196
1322.99521	0.59285
1321.06665	0.59366
1319.13809	0.59439
1317.20952	0.59487
1315.28096	0.59488
1313.35239	0.59451
1311.42383	0.59393
1309.49526	0.59325
1307.56670	0.59268
1305.63813	0.59235
1303.70957	0.59200
1301.78101	0.59133
1299.85244	0.59036
1297.92388	0.58933
1295.99531	0.58830
1294.06675	0.58715
1292.13818	0.58585
1290.20962	0.58451
1288.28105	0.58316
1286.35249	0.58175
1284.42393	0.58037
1282.49536	0.57912
1280.56680	0.57796
1278.63823	0.57673
1276.70967	0.57535
1274.78110	0.57401
1272.85254	0.57283
1270.92397	0.57194
1268.99541	0.57128
1267.06685	0.57054
1265.13828	0.56968
1263.20972	0.56879
1261.28115	0.56776
1259.35259	0.56673
1257.42402	0.56614
1255.49546	0.56597
1253.56689	0.56582
1251.63833	0.56566
1249.70977	0.56557
1247.78120	0.56545
1245.85264	0.56519
1243.92407	0.56462
1241.99551	0.56367
1240.06694	0.56236
1238.13838	0.56067
1236.20981	0.55866
1234.28125	0.55633
1232.35269	0.55380
1230.42412	0.55137
1228.49556	0.54922
1226.56699	0.54728
1224.63843	0.54549
1222.70986	0.54376
1220.78130	0.54208
1218.85273	0.54048
1216.92417	0.53904
1214.99561	0.53792
1213.06704	0.53706
1211.13848	0.53626
1209.20991	0.53533
1207.28135	0.53441
1205.35278	0.53366
1203.42422	0.53293
1201.49565	0.53199
1199.56709	0.53101
1197.63853	0.53023
1195.70996	0.52959
1193.78140	0.52892
1191.85283	0.52818
1189.92427	0.52760
1187.99570	0.52732
1186.06714	0.52735
1184.13857	0.52763
1182.21001	0.52801
1180.28145	0.52856
1178.35288	0.52960
1176.42432	0.53107
1174.49575	0.53237
1172.56719	0.53315
1170.63862	0.53348
1168.71006	0.53358
1166.78149	0.53367
1164.85293	0.53394
1162.92437	0.53422
1160.99580	0.53423
1159.06724	0.53395
1157.13867	0.53342
1155.21011	0.53270
1153.28154	0.53167
1151.35298	0.53008
1149.42441	0.52780
1147.49585	0.52526
1145.56729	0.52277
1143.63872	0.52026
1141.71016	0.51789
1139.78159	0.51602
1137.85303	0.51467
1135.92446	0.51377
1133.99590	0.51330
1132.06733	0.51319
1130.13877	0.51319
1128.21021	0.51284
1126.28164	0.51201
1124.35308	0.51123
1122.42451	0.51090
1120.49595	0.51100
1118.56738	0.51135
1116.63882	0.51158
1114.71025	0.51169
1112.78169	0.51217
1110.85312	0.51308
1108.92456	0.51383
1106.99600	0.51446
1105.06743	0.51548
1103.13887	0.51673
1101.21030	0.51789
1099.28174	0.51920
1097.35317	0.52102
1095.42461	0.52361
1093.49604	0.52716
1091.56748	0.53182
1089.63892	0.53778
1087.71035	0.54494
1085.78179	0.55292
1083.85322	0.56100
1081.92466	0.56818
1079.99609	0.57364
1078.06753	0.57681
1076.13896	0.57709
1074.21040	0.57424
1072.28184	0.56894
1070.35327	0.56233
1068.42471	0.55518
1066.49614	0.54785
1064.56758	0.54084
1062.63901	0.53485
1060.71045	0.53019
1058.78188	0.52628
1056.85332	0.52240
1054.92476	0.51867
1052.99619	0.51543
1051.06763	0.51276
1049.13906	0.51075
1047.21050	0.50940
1045.28193	0.50850
1043.35337	0.50790
1041.42480	0.50759
1039.49624	0.50747
1037.56768	0.50743
1035.63911	0.50728
1033.71055	0.50686
1031.78198	0.50608
1029.85342	0.50476
1027.92485	0.50301
1025.99629	0.50136
1024.06772	0.50017
1022.13916	0.49960
1020.21060	0.49951
1018.28203	0.49937
1016.35347	0.49903
1014.42490	0.49882
1012.49634	0.49891
1010.56777	0.49914
1008.63921	0.49948
1006.71064	0.50030
1004.78208	0.50163
1002.85352	0.50323
1000.92495	0.50540
998.99639	0.50866
997.06782	0.51292
995.13926	0.51768
993.21069	0.52216
991.28213	0.52553
989.35356	0.52752
987.42500	0.52823
985.49644	0.52818
983.56787	0.52810
981.63931	0.52837
979.71074	0.52913
977.78218	0.53046
975.85361	0.53245
973.92505	0.53496
971.99648	0.53778
970.06792	0.54115
968.13936	0.54498
966.21079	0.54873
964.28223	0.55274
962.35366	0.55747
960.42510	0.56258
958.49653	0.56785
956.56797	0.57354
954.63940	0.57967
952.71084	0.58585
950.78228	0.59212
948.85371	0.59879
946.92515	0.60534
944.99658	0.61122
943.06802	0.61692
941.13945	0.62319
939.21089	0.62978
937.28232	0.63590
935.35376	0.64144
933.42520	0.64688
931.49663	0.65257
929.56807	0.65877
927.63950	0.66522
925.71094	0.67115
923.78237	0.67691
921.85381	0.68355
919.92524	0.69117
917.99668	0.69898
916.06812	0.70622
914.13955	0.71309
912.21099	0.72057
910.28242	0.72903
908.35386	0.73838
906.42529	0.74797
904.49673	0.75642
902.56816	0.76439
900.63960	0.77397
898.71104	0.78383
896.78247	0.79202
894.85391	0.80101
892.92534	0.81235
890.99678	0.82362
889.06821	0.83482
887.13965	0.84651
885.21108	0.85726
883.28252	0.86817
881.35396	0.88096
879.42539	0.89441
877.49683	0.90602
875.56826	0.91574
873.63970	0.92667
871.71113	0.93959
869.78257	0.95198
867.85400	0.96359
865.92544	0.97512
863.99687	0.98522
862.06831	0.99470
860.13975	1.00579
858.21118	1.01771
856.28262	1.02943
854.35405	1.04232
852.42549	1.05709
850.49692	1.07289
848.56836	1.08899
846.63979	1.10361
844.71123	1.11484
842.78267	1.12401
840.85410	1.13267
838.92554	1.14044
836.99697	1.14923
835.06841	1.15924
833.13984	1.16969
831.21128	1.18452
829.28271	1.20435
827.35415	1.22260
825.42559	1.23432
823.49702	1.24169
821.56846	1.24983
819.63989	1.26056
817.71133	1.26673
815.78276	1.27010
813.85420	1.28030
811.92563	1.29510
809.99707	1.31872
808.06851	1.34860
806.13994	1.36354
804.21138	1.36617
802.28281	1.38042
800.35425	1.41337
798.42568	1.43874
796.49712	1.43034
794.56855	1.41274
792.63999	1.40481
790.71143	1.41248
788.78286	1.42707
786.85430	1.42168
784.92573	1.44243
782.99717	1.51629
781.06860	1.61761
779.14004	1.75252
777.21147	1.83838
775.28291	1.79707
773.35435	1.77906
771.42578	1.74288
769.49722	1.62043
767.56865	1.70694
765.64009	4.59384
763.71152	4.58227
761.78296	4.57070
759.85439	2.65158
757.92583	1.71408
755.99727	1.49985
754.06870	1.34594
752.14014	1.18438
750.21157	1.07404
748.28301	1.04943
746.35444	1.13127
744.42588	1.37935
742.49731	1.59929
740.56875	1.21319
738.64019	0.94377
736.71162	0.84136
734.78306	0.95384
732.85449	1.03664
730.92593	0.67904
728.99736	0.49681
727.06880	0.45445
725.14023	0.31148
723.21167	0.12127
721.28311	0.04294
719.35454	-0.00044
717.42598	-0.08905
715.49741	-0.05838
713.56885	0.10430
711.64028	0.15465
709.71172	0.11085
707.78315	0.06962
705.85459	0.13664
703.92603	0.47527
701.99746	0.70680
700.06890	0.40670
698.14033	0.32760
696.21177	0.37587
694.28320	0.45776
692.35464	0.45191
690.42607	0.47909
688.49751	0.52907
686.56895	0.38380
684.64038	0.32993
682.71182	0.46812
680.78325	0.49078
678.85469	0.34606
676.92612	0.41112
674.99756	1.14440
673.06899	4.03841
671.14043	0.71724
669.21187	0.50594
667.28330	0.48229
665.35474	0.44552
663.42617	0.49176
661.49761	0.52212
659.56904	0.42106
657.64048	0.32588
655.71191	0.24648
653.78335	0.22463
651.85479	0.32528
649.92622	0.42027
647.99766	0.29704
646.06909	0.28368
644.14053	0.38759
642.21196	0.48704
640.28340	0.51108
638.35483	0.61215
636.42627	0.64938
634.49771	0.65757
632.56914	0.82781
630.64058	0.72619
628.71201	0.58253
626.78345	0.51197
624.85488	0.37624
622.92632	0.28155
620.99775	0.28232
619.06919	0.30301
617.14062	0.34467
615.21206	0.43650
613.28350	0.47120
611.35493	0.51576
609.42637	0.62291
607.49780	0.49897
605.56924	0.35856
603.64067	0.35935
601.71211	0.36529
599.78354	0.25334
597.85498	0.19556
595.92642	0.22730
593.99785	0.29389
592.06929	0.35145
590.14072	0.34085
588.21216	0.30214
586.28359	0.29772
584.35503	0.34311
582.42646	0.39924
580.49790	0.42986
578.56934	0.50753
576.64077	0.55317
574.71221	0.43503
572.78364	0.32231
570.85508	0.32530
568.92651	0.38057
566.99795	0.37354
565.06938	0.34639
563.14082	0.37298
561.21226	0.37174
559.28369	0.33919
557.35513	0.37663
555.42656	0.55068
553.49800	0.64997
551.56943	0.43662
549.64087	0.36522
547.71230	0.40286
545.78374	0.46533
543.85518	0.40203
541.92661	0.28632
539.99805	0.24603
538.06948	0.25977
536.14092	0.24478
534.21235	0.22180
532.28379	0.21537
530.35522	0.20626
528.42666	0.22775
526.49810	0.29577
524.56953	0.35940
522.64097	0.36502
520.71240	0.31922
518.78384	0.29389
516.85527	0.28515
514.92671	0.26307
512.99814	0.22755
511.06958	0.20266
509.14102	0.21087
507.21245	0.25412
505.28389	0.27692
503.35532	0.25613
501.42676	0.27055
499.49819	0.35083
