3997.91411	0.07491
3995.98555	0.07541
3994.05698	0.07601
3992.12842	0.07642
3990.19985	0.07704
3988.27129	0.07768
3986.34272	0.07783
3984.41416	0.07779
3982.48560	0.07795
3980.55703	0.07831
3978.62847	0.07867
3976.69990	0.07897
3974.77134	0.07911
3972.84277	0.07896
3970.91421	0.07870
3968.98564	0.07860
3967.05708	0.07880
3965.12852	0.07920
3963.19995	0.07971
3961.27139	0.08025
3959.34282	0.08058
3957.41426	0.08047
3955.48569	0.08009
3953.55713	0.08000
3951.62856	0.08054
3949.70000	0.08142
3947.77144	0.08194
3945.84287	0.08163
3943.91431	0.08124
3941.98574	0.08136
3940.05718	0.08110
3938.12861	0.08021
3936.20005	0.07963
3934.27148	0.08013
3932.34292	0.08158
3930.41436	0.08255
3928.48579	0.08197
3926.55723	0.08107
3924.62866	0.08104
3922.70010	0.08118
3920.77153	0.08087
3918.84297	0.08057
3916.91440	0.08057
3914.98584	0.08059
3913.05728	0.08000
3911.12871	0.07909
3909.20015	0.07862
3907.27158	0.07917
3905.34302	0.08116
3903.41445	0.08412
3901.48589	0.08585
3899.55732	0.08513
3897.62876	0.08316
3895.70020	0.08134
3893.77163	0.08069
3891.84307	0.08148
3889.91450	0.08203
3887.98594	0.08137
3886.05737	0.08159
3884.12881	0.08280
3882.20024	0.08324
3880.27168	0.08326
3878.34312	0.08268
3876.41455	0.08198
3874.48599	0.08286
3872.55742	0.08469
3870.62886	0.08638
3868.70029	0.08724
3866.77173	0.08642
3864.84316	0.08629
3862.91460	0.08736
3860.98604	0.08668
3859.05747	0.08505
3857.12891	0.08505
3855.20034	0.08702
3853.27178	0.09058
3851.34321	0.09239
3849.41465	0.09014
3847.48608	0.08770
3845.55752	0.08696
3843.62896	0.08817
3841.70039	0.09046
3839.77183	0.09297
3837.84326	0.09546
3835.91470	0.09660
3833.98613	0.09607
3832.05757	0.09509
3830.12900	0.09402
3828.20044	0.09358
3826.27187	0.09458
3824.34331	0.09598
3822.41475	0.09766
3820.48618	0.10049
3818.55762	0.10148
3816.62905	0.10053
3814.70049	0.10030
3812.77192	0.10012
3810.84336	0.09991
3808.91479	0.10074
3806.98623	0.10280
3805.05767	0.10482
3803.12910	0.10645
3801.20054	0.10862
3799.27197	0.10975
3797.34341	0.10966
3795.41484	0.10952
3793.48628	0.10878
3791.55771	0.10860
3789.62915	0.10981
3787.70059	0.11177
3785.77202	0.11391
3783.84346	0.11581
3781.91489	0.11740
3779.98633	0.11929
3778.05776	0.12143
3776.12920	0.12247
3774.20063	0.12259
3772.27207	0.12358
3770.34351	0.12676
3768.41494	0.13067
3766.48638	0.13269
3764.55781	0.13365
3762.62925	0.13459
3760.70068	0.13639
3758.77212	0.13984
3756.84355	0.14318
3754.91499	0.14519
3752.98643	0.14840
3751.05786	0.15486
3749.12930	0.16125
3747.20073	0.16316
3745.27217	0.16436
3743.34360	0.16757
3741.41504	0.17053
3739.48647	0.17285
3737.55791	0.17694
3735.62935	0.18411
3733.70078	0.19162
3731.77222	0.19512
3729.84365	0.19693
3727.91509	0.20011
3725.98652	0.20535
3724.05796	0.21137
3722.12939	0.21689
3720.20083	0.22246
3718.27227	0.22837
3716.34370	0.23471
3714.41514	0.24195
3712.48657	0.25226
3710.55801	0.26713
3708.62944	0.28116
3706.70088	0.29135
3704.77231	0.30158
3702.84375	0.31448
3700.91519	0.33110
3698.98662	0.34862
3697.05806	0.36532
3695.12949	0.38356
3693.20093	0.40350
3691.27236	0.42593
3689.34380	0.45432
3687.41523	0.48691
3685.48667	0.51469
3683.55811	0.53916
3681.62954	0.56647
3679.70098	0.59827
3677.77241	0.63244
3675.84385	0.67272
3673.91528	0.72436
3671.98672	0.76593
3670.05815	0.80376
3668.12959	0.85433
3666.20103	0.89971
3664.27246	0.93882
3662.34390	0.98208
3660.41533	1.02888
3658.48677	1.07476
3656.55820	1.12355
3654.62964	1.17758
3652.70107	1.22358
3650.77251	1.26557
3648.84395	1.32361
3646.91538	1.39026
3644.98682	1.43651
3643.05825	1.47245
3641.12969	1.51105
3639.20112	1.55470
3637.27256	1.59882
3635.34399	1.64156
3633.41543	1.68458
3631.48687	1.72565
3629.55830	1.76878
3627.62974	1.82449
3625.70117	1.87298
3623.77261	1.90412
3621.84404	1.93554
3619.91548	1.97387
3617.98691	2.02038
3616.05835	2.06431
3614.12979	2.10108
3612.20122	2.13993
3610.27266	2.17918
3608.34409	2.21875
3606.41553	2.26008
3604.48696	2.29837
3602.55840	2.33314
3600.62983	2.37018
3598.70127	2.41065
3596.77271	2.45133
3594.84414	2.49234
3592.91558	2.53314
3590.98701	2.57053
3589.05845	2.60642
3587.12988	2.65094
3585.20132	2.69994
3583.27275	2.74063
3581.34419	2.77751
3579.41562	2.81710
3577.48706	2.85964
3575.55850	2.90310
3573.62993	2.94660
3571.70137	2.98799
3569.77280	3.02871
3567.84424	3.07443
3565.91567	3.12910
3563.98711	3.17897
3562.05854	3.21903
3560.12998	3.25996
3558.20142	3.30358
3556.27285	3.34710
3554.34429	3.39032
3552.41572	3.43773
3550.48716	3.48695
3548.55859	3.53286
3546.63003	3.57827
3544.70146	3.62614
3542.77290	3.67369
3540.84434	3.71797
3538.91577	3.76153
3536.98721	3.80722
3535.05864	3.85360
3533.13008	3.89981
3531.20151	3.95028
3529.27295	4.00340
3527.34438	4.05613
3525.41582	4.10793
3523.48726	4.15873
3521.55869	4.20995
3519.63013	4.25893
3517.70156	4.30648
3515.77300	4.35323
3513.84443	4.39760
3511.91587	4.44282
3509.98730	4.49263
3508.05874	4.54445
3506.13018	4.59333
3504.20161	4.64099
3502.27305	4.69195
3500.34448	4.74538
3498.41592	4.79572
3496.48735	4.84033
3494.55879	4.88235
3492.63022	4.92531
3490.70166	4.97084
3488.77310	5.01959
3486.84453	5.06842
3484.91597	5.11697
3482.98740	5.16772
3481.05884	5.22116
3479.13027	5.27684
3477.20171	5.33455
3475.27314	5.39083
3473.34458	5.43949
3471.41602	5.48004
3469.48745	5.51835
3467.55889	5.56143
3465.63032	5.60994
3463.70176	5.66198
3461.77319	5.71397
3459.84463	5.76557
3457.91606	5.81642
3455.98750	5.86551
3454.05894	5.91806
3452.13037	5.96478
3450.20181	5.99987
3448.27324	6.04185
3446.34468	6.09840
3444.41611	6.16164
3442.48755	6.22747
3440.55898	6.29189
3438.63042	6.35164
3436.70186	6.38462
3434.77329	6.39526
3432.84473	6.43913
3430.91616	6.52768
3428.98760	6.60891
3427.05903	6.65366
3425.13047	6.69542
3423.20190	6.75112
3421.27334	6.80210
3419.34478	6.83109
3417.41621	6.86374
3415.48765	6.92464
3413.55908	6.98218
3411.63052	7.02807
3409.70195	7.07813
3407.77339	7.12226
3405.84482	7.15090
3403.91626	7.19506
3401.98770	7.26692
3400.05913	7.34812
3398.13057	7.41021
3396.20200	7.43563
3394.27344	7.45317
3392.34487	7.47952
3390.41631	7.52582
3388.48774	7.57315
3386.55918	7.61631
3384.63062	7.68955
3382.70205	7.77001
3380.77349	7.77856
3378.84492	7.72895
3376.91636	7.70705
3374.98779	7.73861
3373.05923	7.80994
3371.13066	7.88679
3369.20210	7.97954
3367.27354	8.06152
3365.34497	8.07662
3363.41641	8.06081
3361.48784	8.06757
3359.55928	8.10273
3357.63071	8.16856
3355.70215	8.24582
3353.77358	8.23149
3351.84502	8.16254
3349.91646	8.09772
3347.98789	8.05396
3346.05933	8.06584
3344.13076	8.10571
3342.20220	8.14848
3340.27363	8.20949
3338.34507	8.28067
3336.41650	8.25712
3334.48794	8.18094
3332.55937	8.17131
3330.63081	8.22442
3328.70225	8.28821
3326.77368	8.32920
3324.84512	8.34947
3322.91655	8.34617
3320.98799	8.32162
3319.05942	8.30069
3317.13086	8.33142
3315.20229	8.36731
3313.27373	8.39799
3311.34517	8.47747
3309.41660	8.54629
3307.48804	8.49804
3305.55947	8.35780
3303.63091	8.30263
3301.70234	8.42309
3299.77378	8.59313
3297.84521	8.55623
3295.91665	8.44575
3293.98809	8.50494
3292.05952	8.63681
3290.13096	8.66347
3288.20239	8.61955
3286.27383	8.60300
3284.34526	8.59965
3282.41670	8.57828
3280.48813	8.55230
3278.55957	8.59981
3276.63101	8.69169
3274.70244	8.72824
3272.77388	8.67672
3270.84531	8.54084
3268.91675	8.42472
3266.98818	8.37123
3265.05962	8.39744
3263.13105	8.45964
3261.20249	8.48952
3259.27393	8.56526
3257.34536	8.70787
3255.41680	8.76661
3253.48823	8.65811
3251.55967	8.56821
3249.63110	8.60050
3247.70254	8.63078
3245.77397	8.62220
3243.84541	8.64023
3241.91685	8.58602
3239.98828	8.42981
3238.05972	8.36633
3236.13115	8.48877
3234.20259	8.60676
3232.27402	8.52308
3230.34546	8.40140
3228.41689	8.39800
3226.48833	8.49158
3224.55977	8.51589
3222.63120	8.40715
3220.70264	8.37516
3218.77407	8.41182
3216.84551	8.35045
3214.91694	8.27437
3212.98838	8.26278
3211.05981	8.28701
3209.13125	8.31747
3207.20269	8.32058
3205.27412	8.27247
3203.34556	8.17144
3201.41699	8.06910
3199.48843	8.02201
3197.55986	8.00430
3195.63130	7.94373
3193.70273	7.87782
3191.77417	7.83749
3189.84561	7.78245
3187.91704	7.75864
3185.98848	7.78439
3184.05991	7.77304
3182.13135	7.69067
3180.20278	7.57562
3178.27422	7.44465
3176.34565	7.34534
3174.41709	7.33077
3172.48853	7.33767
3170.55996	7.26167
3168.63140	7.13636
3166.70283	7.05223
3164.77427	7.01062
3162.84570	6.96417
3160.91714	6.90825
3158.98857	6.85984
3157.06001	6.80454
3155.13145	6.73010
3153.20288	6.64422
3151.27432	6.55692
3149.34575	6.47229
3147.41719	6.39291
3145.48862	6.32074
3143.56006	6.25086
3141.63149	6.18577
3139.70293	6.12480
3137.77437	6.05810
3135.84580	5.97899
3133.91724	5.89027
3131.98867	5.80739
3130.06011	5.74190
3128.13154	5.67984
3126.20298	5.60726
3124.27441	5.53760
3122.34585	5.47033
3120.41729	5.39110
3118.48872	5.30819
3116.56016	5.23021
3114.63159	5.15310
3112.70303	5.07907
3110.77446	5.01014
3108.84590	4.94174
3106.91733	4.87324
3104.98877	4.80354
3103.06021	4.72989
3101.13164	4.65241
3099.20308	4.57849
3097.27451	4.51509
3095.34595	4.45623
3093.41738	4.39384
3091.48882	4.32855
3089.56025	4.26333
3087.63169	4.19673
3085.70312	4.12982
3083.77456	4.06484
3081.84600	3.99996
3079.91743	3.93596
3077.98887	3.87287
3076.06030	3.81015
3074.13174	3.75057
3072.20317	3.69209
3070.27461	3.63145
3068.34604	3.57150
3066.41748	3.51357
3064.48892	3.45528
3062.56035	3.39686
3060.63179	3.34062
3058.70322	3.28676
3056.77466	3.23368
3054.84609	3.18062
3052.91753	3.12791
3050.98896	3.07599
3049.06040	3.02464
3047.13184	2.97339
3045.20327	2.92246
3043.27471	2.87216
3041.34614	2.82279
3039.41758	2.77469
3037.48901	2.72698
3035.56045	2.67887
3033.63188	2.63160
3031.70332	2.58631
3029.77476	2.54256
3027.84619	2.49964
3025.91763	2.45667
3023.98906	2.41305
3022.06050	2.36984
3020.13193	2.32831
3018.20337	2.28770
3016.27480	2.24669
3014.34624	2.20643
3012.41768	2.16805
3010.48911	2.13011
3008.56055	2.09170
3006.63198	2.05379
3004.70342	2.01734
3002.77485	1.98247
3000.84629	1.94809
2998.91772	1.91331
2996.98916	1.87896
2995.06060	1.84587
2993.13203	1.81374
2991.20347	1.78231
2989.27490	1.75127
2987.34634	1.72057
2985.41777	1.69073
2983.48921	1.66149
2981.56064	1.63248
2979.63208	1.60416
2977.70352	1.57615
2975.77495	1.54828
2973.84639	1.52106
2971.91782	1.49408
2969.98926	1.46746
2968.06069	1.44167
2966.13213	1.41621
2964.20356	1.39091
2962.27500	1.36622
2960.34644	1.34229
2958.41787	1.31877
2956.48931	1.29511
2954.56074	1.27124
2952.63218	1.24779
2950.70361	1.22552
2948.77505	1.20426
2946.84648	1.18312
2944.91792	1.16179
2942.98936	1.14071
2941.06079	1.12023
2939.13223	1.10022
2937.20366	1.08043
2935.27510	1.06054
2933.34653	1.04056
2931.41797	1.02108
2929.48940	1.00207
2927.56084	0.98294
2925.63228	0.96363
2923.70371	0.94489
2921.77515	0.92785
2919.84658	0.91239
2917.91802	0.89726
2915.98945	0.88217
2914.06089	0.86734
2912.13232	0.85231
2910.20376	0.83698
2908.27520	0.82194
2906.34663	0.80748
2904.41807	0.79356
2902.48950	0.77995
2900.56094	0.76656
2898.63237	0.75373
2896.70381	0.74151
2894.77524	0.72932
2892.84668	0.71703
2890.91812	0.70512
2888.98955	0.69353
2887.06099	0.68201
2885.13242	0.67097
2883.20386	0.66067
2881.27529	0.65063
2879.34673	0.64040
2877.41816	0.63017
2875.48960	0.62019
2873.56104	0.61016
2871.63247	0.59985
2869.70391	0.58945
2867.77534	0.57893
2865.84678	0.56828
2863.91821	0.55762
2861.98965	0.54693
2860.06108	0.53643
2858.13252	0.52660
2856.20396	0.51732
2854.27539	0.50833
2852.34683	0.49990
2850.41826	0.49216
2848.48970	0.48477
2846.56113	0.47747
2844.63257	0.47033
2842.70400	0.46358
2840.77544	0.45723
2838.84687	0.45099
2836.91831	0.44476
2834.98975	0.43876
2833.06118	0.43291
2831.13262	0.42691
2829.20405	0.42086
2827.27549	0.41507
2825.34692	0.40939
2823.41836	0.40349
2821.48979	0.39750
2819.56123	0.39166
2817.63267	0.38592
2815.70410	0.38036
2813.77554	0.37497
2811.84697	0.36958
2809.91841	0.36421
2807.98984	0.35885
2806.06128	0.35356
2804.13271	0.34855
2802.20415	0.34374
2800.27559	0.33905
2798.34702	0.33458
2796.41846	0.33009
2794.48989	0.32544
2792.56133	0.32089
2790.63276	0.31662
2788.70420	0.31252
2786.77563	0.30850
2784.84707	0.30438
2782.91851	0.30013
2780.98994	0.29597
2779.06138	0.29205
2777.13281	0.28834
2775.20425	0.28465
2773.27568	0.28082
2771.34712	0.27703
2769.41855	0.27356
2767.48999	0.27040
2765.56143	0.26729
2763.63286	0.26407
2761.70430	0.26078
2759.77573	0.25763
2757.84717	0.25463
2755.91860	0.25159
2753.99004	0.24863
2752.06147	0.24578
2750.13291	0.24288
2748.20435	0.24005
2746.27578	0.23743
2744.34722	0.23489
2742.41865	0.23236
2740.49009	0.22988
2738.56152	0.22741
2736.63296	0.22488
2734.70439	0.22242
2732.77583	0.22009
2730.84727	0.21779
2728.91870	0.21541
2726.99014	0.21313
2725.06157	0.21107
2723.13301	0.20910
2721.20444	0.20711
2719.27588	0.20514
2717.34731	0.20322
2715.41875	0.20149
2713.49019	0.19995
2711.56162	0.19828
2709.63306	0.19640
2707.70449	0.19466
2705.77593	0.19322
2703.84736	0.19180
2701.91880	0.19021
2699.99023	0.18873
2698.06167	0.18736
2696.13311	0.18579
2694.20454	0.18415
2692.27598	0.18288
2690.34741	0.18186
2688.41885	0.18069
2686.49028	0.17931
2684.56172	0.17789
2682.63315	0.17665
2680.70459	0.17554
2678.77603	0.17429
2676.84746	0.17306
2674.91890	0.17212
2672.99033	0.17126
2671.06177	0.17034
2669.13320	0.16947
2667.20464	0.16856
2665.27607	0.16757
2663.34751	0.16664
2661.41895	0.16581
2659.49038	0.16506
2657.56182	0.16431
2655.63325	0.16347
2653.70469	0.16258
2651.77612	0.16184
2649.84756	0.16124
2647.91899	0.16060
2645.99043	0.15998
2644.06187	0.15945
2642.13330	0.15901
2640.20474	0.15865
2638.27617	0.15835
2636.34761	0.15790
2634.41904	0.15729
2632.49048	0.15678
2630.56191	0.15641
2628.63335	0.15603
2626.70479	0.15567
2624.77622	0.15538
2622.84766	0.15508
2620.91909	0.15481
2618.99053	0.15473
2617.06196	0.15473
2615.13340	0.15461
2613.20483	0.15432
2611.27627	0.15397
2609.34771	0.15374
2607.41914	0.15377
2605.49058	0.15388
2603.56201	0.15389
2601.63345	0.15384
2599.70488	0.15375
2597.77632	0.15373
2595.84775	0.15388
2593.91919	0.15412
2591.99062	0.15429
2590.06206	0.15438
2588.13350	0.15457
2586.20493	0.15487
2584.27637	0.15504
2582.34780	0.15503
2580.41924	0.15522
2578.49067	0.15575
2576.56211	0.15621
2574.63354	0.15644
2572.70498	0.15665
2570.77642	0.15696
2568.84785	0.15730
2566.91929	0.15757
2564.99072	0.15790
2563.06216	0.15840
2561.13359	0.15892
2559.20503	0.15940
2557.27646	0.15993
2555.34790	0.16049
2553.41934	0.16092
2551.49077	0.16128
2549.56221	0.16186
2547.63364	0.16262
2545.70508	0.16322
2543.77651	0.16369
2541.84795	0.16427
2539.91938	0.16504
2537.99082	0.16579
2536.06226	0.16640
2534.13369	0.16705
2532.20513	0.16792
2530.27656	0.16888
2528.34800	0.16960
2526.41943	0.17001
2524.49087	0.17045
2522.56230	0.17109
2520.63374	0.17187
2518.70518	0.17272
2516.77661	0.17360
2514.84805	0.17454
2512.91948	0.17547
2510.99092	0.17625
2509.06235	0.17695
2507.13379	0.17770
2505.20522	0.17847
2503.27666	0.17922
2501.34810	0.18002
2499.41953	0.18091
2497.49097	0.18178
2495.56240	0.18258
2493.63384	0.18349
2491.70527	0.18455
2489.77671	0.18554
2487.84814	0.18636
2485.91958	0.18711
2483.99102	0.18788
2482.06245	0.18879
2480.13389	0.18982
2478.20532	0.19076
2476.27676	0.19159
2474.34819	0.19249
2472.41963	0.19338
2470.49106	0.19418
2468.56250	0.19499
2466.63394	0.19596
2464.70537	0.19707
2462.77681	0.19820
2460.84824	0.19927
2458.91968	0.20023
2456.99111	0.20110
2455.06255	0.20201
2453.13398	0.20297
2451.20542	0.20388
2449.27686	0.20483
2447.34829	0.20587
2445.41973	0.20696
2443.49116	0.20804
2441.56260	0.20900
2439.63403	0.20990
2437.70547	0.21091
2435.77690	0.21199
2433.84834	0.21310
2431.91978	0.21422
2429.99121	0.21531
2428.06265	0.21627
2426.13408	0.21722
2424.20552	0.21830
2422.27695	0.21940
2420.34839	0.22045
2418.41982	0.22162
2416.49126	0.22284
2414.56270	0.22396
2412.63413	0.22503
2410.70557	0.22618
2408.77700	0.22738
2406.84844	0.22855
2404.91987	0.22968
2402.99131	0.23071
2401.06274	0.23173
2399.13418	0.23292
2397.20562	0.23428
2395.27705	0.23564
2393.34849	0.23684
2391.41992	0.23806
2389.49136	0.23945
2387.56279	0.24111
2385.63423	0.24333
2383.70566	0.24636
2381.77710	0.25020
2379.84854	0.25488
2377.91997	0.26044
2375.99141	0.26668
2374.06284	0.27329
2372.13428	0.28023
2370.20571	0.28812
2368.27715	0.29723
2366.34858	0.30594
2364.42002	0.31288
2362.49146	0.31837
2360.56289	0.32210
2358.63433	0.32356
2356.70576	0.32233
2354.77720	0.31789
2352.84863	0.31150
2350.92007	0.30489
2348.99150	0.30081
2347.06294	0.30142
2345.13437	0.30722
2343.20581	0.31526
2341.27725	0.32012
2339.34868	0.32154
2337.42012	0.32217
2335.49155	0.32271
2333.56299	0.32281
2331.63442	0.32300
2329.70586	0.32339
2327.77729	0.32378
2325.84873	0.32365
2323.92017	0.32284
2321.99160	0.32177
2320.06304	0.32026
2318.13447	0.31838
2316.20591	0.31709
2314.27734	0.31694
2312.34878	0.31744
2310.42021	0.31781
2308.49165	0.31779
2306.56309	0.31755
2304.63452	0.31753
2302.70596	0.31812
2300.77739	0.31917
2298.84883	0.32020
2296.92026	0.32118
2294.99170	0.32229
2293.06313	0.32340
2291.13457	0.32443
2289.20601	0.32552
2287.27744	0.32666
2285.34888	0.32794
2283.42031	0.32950
2281.49175	0.33138
2279.56318	0.33354
2277.63462	0.33586
2275.70605	0.33814
2273.77749	0.34030
2271.84893	0.34239
2269.92036	0.34436
2267.99180	0.34636
2266.06323	0.34852
2264.13467	0.35078
2262.20610	0.35293
2260.27754	0.35484
2258.34897	0.35672
2256.42041	0.35873
2254.49185	0.36078
2252.56328	0.36284
2250.63472	0.36487
2248.70615	0.36682
2246.77759	0.36875
2244.84902	0.37084
2242.92046	0.37313
2240.99189	0.37543
2239.06333	0.37763
2237.13477	0.37976
2235.20620	0.38186
2233.27764	0.38406
2231.34907	0.38640
2229.42051	0.38868
2227.49194	0.39081
2225.56338	0.39297
2223.63481	0.39523
2221.70625	0.39746
2219.77769	0.39967
2217.84912	0.40198
2215.92056	0.40435
2213.99199	0.40658
2212.06343	0.40855
2210.13486	0.41044
2208.20630	0.41258
2206.27773	0.41489
2204.34917	0.41710
2202.42061	0.41912
2200.49204	0.42107
2198.56348	0.42307
2196.63491	0.42517
2194.70635	0.42722
2192.77778	0.42905
2190.84922	0.43076
2188.92065	0.43252
2186.99209	0.43443
2185.06353	0.43640
2183.13496	0.43818
2181.20640	0.43978
2179.27783	0.44134
2177.34927	0.44288
2175.42070	0.44446
2173.49214	0.44612
2171.56357	0.44766
2169.63501	0.44898
2167.70645	0.45016
2165.77788	0.45130
2163.84932	0.45257
2161.92075	0.45389
2159.99219	0.45508
2158.06362	0.45599
2156.13506	0.45667
2154.20649	0.45735
2152.27793	0.45819
2150.34937	0.45905
2148.42080	0.45978
2146.49224	0.46030
2144.56367	0.46060
2142.63511	0.46084
2140.70654	0.46112
2138.77798	0.46142
2136.84941	0.46165
2134.92085	0.46178
2132.99229	0.46178
2131.06372	0.46159
2129.13516	0.46134
2127.20659	0.46110
2125.27803	0.46077
2123.34946	0.46028
2121.42090	0.45977
2119.49233	0.45926
2117.56377	0.45869
2115.63521	0.45799
2113.70664	0.45711
2111.77808	0.45606
2109.84951	0.45495
2107.92095	0.45385
2105.99238	0.45266
2104.06382	0.45143
2102.13525	0.45021
2100.20669	0.44887
2098.27812	0.44738
2096.34956	0.44587
2094.42100	0.44426
2092.49243	0.44257
2090.56387	0.44091
2088.63530	0.43916
2086.70674	0.43723
2084.77817	0.43523
2082.84961	0.43332
2080.92104	0.43149
2078.99248	0.42962
2077.06392	0.42752
2075.13535	0.42525
2073.20679	0.42293
2071.27822	0.42062
2069.34966	0.41834
2067.42109	0.41601
2065.49253	0.41372
2063.56396	0.41141
2061.63540	0.40896
2059.70684	0.40638
2057.77827	0.40372
2055.84971	0.40100
2053.92114	0.39837
2051.99258	0.39593
2050.06401	0.39344
2048.13545	0.39084
2046.20688	0.38818
2044.27832	0.38548
2042.34976	0.38287
2040.42119	0.38026
2038.49263	0.37740
2036.56406	0.37439
2034.63550	0.37147
2032.70693	0.36870
2030.77837	0.36607
2028.84980	0.36333
2026.92124	0.36044
2024.99268	0.35754
2023.06411	0.35474
2021.13555	0.35194
2019.20698	0.34910
2017.27842	0.34637
2015.34985	0.34370
2013.42129	0.34100
2011.49272	0.33827
2009.56416	0.33555
2007.63560	0.33286
2005.70703	0.33018
2003.77847	0.32748
2001.84990	0.32484
1999.92134	0.32226
1997.99277	0.31961
1996.06421	0.31700
1994.13564	0.31462
1992.20708	0.31232
1990.27852	0.30971
1988.34995	0.30692
1986.42139	0.30427
1984.49282	0.30179
1982.56426	0.29947
1980.63569	0.29726
1978.70713	0.29503
1976.77856	0.29275
1974.85000	0.29046
1972.92144	0.28817
1970.99287	0.28601
1969.06431	0.28413
1967.13574	0.28236
1965.20718	0.28033
1963.27861	0.27819
1961.35005	0.27619
1959.42148	0.27436
1957.49292	0.27260
1955.56436	0.27083
1953.63579	0.26903
1951.70723	0.26722
1949.77866	0.26552
1947.85010	0.26403
1945.92153	0.26276
1943.99297	0.26164
1942.06440	0.26030
1940.13584	0.25851
1938.20728	0.25671
1936.27871	0.25522
1934.35015	0.25391
1932.42158	0.25270
1930.49302	0.25157
1928.56445	0.25055
1926.63589	0.24960
1924.70732	0.24879
1922.77876	0.24798
1920.85020	0.24698
1918.92163	0.24611
1916.99307	0.24523
1915.06450	0.24408
1913.13594	0.24309
1911.20737	0.24254
1909.27881	0.24205
1907.35024	0.24133
1905.42168	0.24049
1903.49312	0.23973
1901.56455	0.23911
1899.63599	0.23864
1897.70742	0.23835
1895.77886	0.23816
1893.85029	0.23785
1891.92173	0.23751
1889.99316	0.23750
1888.06460	0.23728
1886.13604	0.23671
1884.20747	0.23629
1882.27891	0.23606
1880.35034	0.23588
1878.42178	0.23580
1876.49321	0.23585
1874.56465	0.23595
1872.63608	0.23624
1870.70752	0.23695
1868.77896	0.23799
1866.85039	0.23825
1864.92183	0.23760
1862.99326	0.23720
1861.06470	0.23733
1859.13613	0.23769
1857.20757	0.23804
1855.27900	0.23843
1853.35044	0.23885
1851.42187	0.23942
1849.49331	0.24023
1847.56475	0.24131
1845.63618	0.24258
1843.70762	0.24379
1841.77905	0.24429
1839.85049	0.24432
1837.92192	0.24484
1835.99336	0.24566
1834.06479	0.24655
1832.13623	0.24777
1830.20767	0.24968
1828.27910	0.25142
1826.35054	0.25234
1824.42197	0.25335
1822.49341	0.25434
1820.56484	0.25530
1818.63628	0.25654
1816.70771	0.25813
1814.77915	0.25979
1812.85059	0.26168
1810.92202	0.26393
1808.99346	0.26605
1807.06489	0.26778
1805.13633	0.26950
1803.20776	0.27183
1801.27920	0.27470
1799.35063	0.27772
1797.42207	0.28031
1795.49351	0.28290
1793.56494	0.28613
1791.63638	0.28997
1789.70781	0.29302
1787.77925	0.29521
1785.85068	0.29819
1783.92212	0.30189
1781.99355	0.30590
1780.06499	0.31010
1778.13643	0.31439
1776.20786	0.31864
1774.27930	0.32352
1772.35073	0.32997
1770.42217	0.33623
1768.49360	0.34093
1766.56504	0.34555
1764.63647	0.35071
1762.70791	0.35686
1760.77935	0.36458
1758.85078	0.37165
1756.92222	0.37869
1754.99365	0.38631
1753.06509	0.39349
1751.13652	0.40246
1749.20796	0.41346
1747.27939	0.42390
1745.35083	0.43308
1743.42227	0.44278
1741.49370	0.45337
1739.56514	0.46573
1737.63657	0.47826
1735.70801	0.48988
1733.77944	0.50719
1731.85088	0.52661
1729.92231	0.54148
1727.99375	0.55662
1726.06519	0.57321
1724.13662	0.59167
1722.20806	0.61164
1720.27949	0.63045
1718.35093	0.65306
1716.42236	0.68530
1714.49380	0.71486
1712.56523	0.73893
1710.63667	0.76280
1708.70811	0.78884
1706.77954	0.81856
1704.85098	0.85367
1702.92241	0.88521
1700.99385	0.91713
1699.06528	0.96348
1697.13672	1.00529
1695.20815	1.04758
1693.27959	1.08881
1691.35103	1.12276
1689.42246	1.16218
1687.49390	1.20367
1685.56533	1.24431
1683.63677	1.30546
1681.70820	1.36728
1679.77964	1.40741
1677.85107	1.44627
1675.92251	1.49158
1673.99395	1.54673
1672.06538	1.59517
1670.13682	1.64241
1668.20825	1.70277
1666.27969	1.75257
1664.35112	1.79576
1662.42256	1.84911
1660.49399	1.90790
1658.56543	1.95367
1656.63687	1.99055
1654.70830	2.02515
1652.77974	2.07940
1650.85117	2.13073
1648.92261	2.15221
1646.99404	2.17921
1645.06548	2.20569
1643.13691	2.22172
1641.20835	2.23266
1639.27979	2.24390
1637.35122	2.25258
1635.42266	2.25452
1633.49409	2.24421
1631.56553	2.22764
1629.63696	2.21064
1627.70840	2.18624
1625.77983	2.15798
1623.85127	2.11937
1621.92271	2.06954
1619.99414	2.02516
1618.06558	1.98297
1616.13701	1.92327
1614.20845	1.86111
1612.27988	1.81274
1610.35132	1.76257
1608.42275	1.70915
1606.49419	1.65724
1604.56562	1.60911
1602.63706	1.56229
1600.70850	1.51612
1598.77993	1.47318
1596.85137	1.43313
1594.92280	1.39449
1592.99424	1.35658
1591.06567	1.32125
1589.13711	1.28814
1587.20854	1.25724
1585.27998	1.22852
1583.35142	1.20175
1581.42285	1.17722
1579.49429	1.15614
1577.56572	1.13728
1575.63716	1.11384
1573.70859	1.09207
1571.78003	1.07806
1569.85146	1.06480
1567.92290	1.04974
1565.99434	1.03720
1564.06577	1.02688
1562.13721	1.01893
1560.20864	1.01418
1558.28008	1.00768
1556.35151	0.99904
1554.42295	0.99250
1552.49438	0.98658
1550.56582	0.98055
1548.63726	0.97332
1546.70869	0.96557
1544.78013	0.95763
1542.85156	0.94891
1540.92300	0.93662
1538.99443	0.91536
1537.06587	0.89774
1535.13730	0.88647
1533.20874	0.87356
1531.28018	0.85932
1529.35161	0.84830
1527.42305	0.83851
1525.49448	0.82878
1523.56592	0.82036
1521.63735	0.81214
1519.70879	0.80301
1517.78022	0.79481
1515.85166	0.78571
1513.92310	0.77624
1511.99453	0.76851
1510.06597	0.76238
1508.13740	0.75728
1506.20884	0.74803
1504.28027	0.73726
1502.35171	0.73076
1500.42314	0.72608
1498.49458	0.72185
1496.56602	0.71682
1494.63745	0.71118
1492.70889	0.70676
1490.78032	0.70352
1488.85176	0.69979
1486.92319	0.69528
1484.99463	0.69130
1483.06606	0.68835
1481.13750	0.68605
1479.20894	0.68423
1477.28037	0.68332
1475.35181	0.68326
1473.42324	0.68314
1471.49468	0.68118
1469.56611	0.67795
1467.63755	0.67536
1465.70898	0.67360
1463.78042	0.67183
1461.85186	0.67017
1459.92329	0.66971
1457.99473	0.67036
1456.06616	0.66927
1454.13760	0.66553
1452.20903	0.66217
1450.28047	0.65948
1448.35190	0.65707
1446.42334	0.65454
1444.49478	0.65197
1442.56621	0.64946
1440.63765	0.64704
1438.70908	0.64505
1436.78052	0.64306
1434.85195	0.64034
1432.92339	0.63775
1430.99482	0.63592
1429.06626	0.63442
1427.13770	0.63310
1425.20913	0.63242
1423.28057	0.63219
1421.35200	0.63200
1419.42344	0.63196
1417.49487	0.63126
1415.56631	0.62935
1413.63774	0.62754
1411.70918	0.62645
1409.78062	0.62598
1407.85205	0.62592
1405.92349	0.62608
1403.99492	0.62586
1402.06636	0.62499
1400.13779	0.62411
1398.20923	0.62324
1396.28066	0.62169
1394.35210	0.61916
1392.42354	0.61607
1390.49497	0.61318
1388.56641	0.61053
1386.63784	0.60756
1384.70928	0.60426
1382.78071	0.60109
1380.85215	0.59828
1378.92358	0.59608
1376.99502	0.59462
1375.06646	0.59371
1373.13789	0.59269
1371.20933	0.59135
1369.28076	0.59020
1367.35220	0.58920
1365.42363	0.58816
1363.49507	0.58725
1361.56650	0.58614
1359.63794	0.58456
1357.70937	0.58298
1355.78081	0.58175
1353.85225	0.58077
1351.92368	0.57988
1349.99512	0.57906
1348.06655	0.57809
1346.13799	0.57694
1344.20942	0.57598
1342.28086	0.57540
1340.35229	0.57503
1338.42373	0.57425
1336.49517	0.57300
1334.56660	0.57193
1332.63804	0.57122
1330.70947	0.57070
1328.78091	0.57032
1326.85234	0.57021
1324.92378	0.57026
1322.99521	0.57024
1321.06665	0.57024
1319.13809	0.57035
1317.20952	0.57028
1315.28096	0.56983
1313.35239	0.56913
1311.42383	0.56831
1309.49526	0.56741
1307.56670	0.56648
1305.63813	0.56561
1303.70957	0.56485
1301.78101	0.56406
1299.85244	0.56317
1297.92388	0.56233
1295.99531	0.56147
1294.06675	0.56029
1292.13818	0.55903
1290.20962	0.55820
1288.28105	0.55764
1286.35249	0.55692
1284.42393	0.55617
1282.49536	0.55535
1280.56680	0.55420
1278.63823	0.55300
1276.70967	0.55208
1274.78110	0.55131
1272.85254	0.55063
1270.92397	0.55004
1268.99541	0.54948
1267.06685	0.54890
1265.13828	0.54825
1263.20972	0.54753
1261.28115	0.54682
1259.35259	0.54617
1257.42402	0.54569
1255.49546	0.54539
1253.56689	0.54514
1251.63833	0.54487
1249.70977	0.54455
1247.78120	0.54417
1245.85264	0.54383
1243.92407	0.54338
1241.99551	0.54268
1240.06694	0.54184
1238.13838	0.54081
1236.20981	0.53953
1234.28125	0.53807
1232.35269	0.53660
1230.42412	0.53527
1228.49556	0.53389
1226.56699	0.53237
1224.63843	0.53103
1222.70986	0.52997
1220.78130	0.52891
1218.85273	0.52776
1216.92417	0.52673
1214.99561	0.52589
1213.06704	0.52517
1211.13848	0.52445
1209.20991	0.52363
1207.28135	0.52291
1205.35278	0.52235
1203.42422	0.52175
1201.49565	0.52100
1199.56709	0.52020
1197.63853	0.51947
1195.70996	0.51884
1193.78140	0.51835
1191.85283	0.51796
1189.92427	0.51761
1187.99570	0.51725
1186.06714	0.51703
1184.13857	0.51702
1182.21001	0.51712
1180.28145	0.51730
1178.35288	0.51777
1176.42432	0.51864
1174.49575	0.51974
1172.56719	0.52082
1170.63862	0.52172
1168.71006	0.52244
1166.78149	0.52308
1164.85293	0.52384
1162.92437	0.52456
1160.99580	0.52485
1159.06724	0.52479
1157.13867	0.52456
1155.21011	0.52400
1153.28154	0.52300
1151.35298	0.52154
1149.42441	0.51946
1147.49585	0.51697
1145.56729	0.51450
1143.63872	0.51197
1141.71016	0.50935
1139.78159	0.50712
1137.85303	0.50553
1135.92446	0.50431
1133.99590	0.50330
1132.06733	0.50265
1130.13877	0.50227
1128.21021	0.50187
1126.28164	0.50128
1124.35308	0.50053
1122.42451	0.49976
1120.49595	0.49933
1118.56738	0.49947
1116.63882	0.50003
1114.71025	0.50067
1112.78169	0.50118
1110.85312	0.50164
1108.92456	0.50219
1106.99600	0.50293
1105.06743	0.50386
1103.13887	0.50493
1101.21030	0.50614
1099.28174	0.50745
1097.35317	0.50917
1095.42461	0.51177
1093.49604	0.51528
1091.56748	0.51979
1089.63892	0.52577
1087.71035	0.53324
1085.78179	0.54160
1083.85322	0.55009
1081.92466	0.55781
1079.99609	0.56369
1078.06753	0.56679
1076.13896	0.56680
1074.21040	0.56393
1072.28184	0.55871
1070.35327	0.55214
1068.42471	0.54526
1066.49614	0.53834
1064.56758	0.53170
1062.63901	0.52603
1060.71045	0.52131
1058.78188	0.51699
1056.85332	0.51299
1054.92476	0.50970
1052.99619	0.50725
1051.06763	0.50528
1049.13906	0.50360
1047.21050	0.50253
1045.28193	0.50227
1043.35337	0.50259
1041.42480	0.50304
1039.49624	0.50304
1037.56768	0.50271
1035.63911	0.50244
1033.71055	0.50197
1031.78198	0.50102
1029.85342	0.49982
1027.92485	0.49858
1025.99629	0.49722
1024.06772	0.49594
1022.13916	0.49509
1020.21060	0.49476
1018.28203	0.49472
1016.35347	0.49472
1014.42490	0.49482
1012.49634	0.49501
1010.56777	0.49510
1008.63921	0.49532
1006.71064	0.49605
1004.78208	0.49726
1002.85352	0.49881
1000.92495	0.50093
998.99639	0.50410
997.06782	0.50819
995.13926	0.51246
993.21069	0.51645
991.28213	0.51990
989.35356	0.52213
987.42500	0.52282
985.49644	0.52284
983.56787	0.52309
981.63931	0.52381
979.71074	0.52477
977.78218	0.52576
975.85361	0.52726
973.92505	0.52974
971.99648	0.53297
970.06792	0.53657
968.13936	0.54029
966.21079	0.54414
964.28223	0.54844
962.35366	0.55316
960.42510	0.55831
958.49653	0.56389
956.56797	0.56966
954.63940	0.57561
952.71084	0.58164
950.78228	0.58760
948.85371	0.59375
946.92515	0.60013
944.99658	0.60639
943.06802	0.61256
941.13945	0.61866
939.21089	0.62453
937.28232	0.63042
935.35376	0.63661
933.42520	0.64285
931.49663	0.64883
929.56807	0.65465
927.63950	0.66093
925.71094	0.66778
923.78237	0.67399
921.85381	0.67909
919.92524	0.68497
917.99668	0.69261
916.06812	0.70090
914.13955	0.70908
912.21099	0.71677
910.28242	0.72425
908.35386	0.73253
906.42529	0.74152
904.49673	0.75068
902.56816	0.76050
900.63960	0.77128
898.71104	0.78167
896.78247	0.79002
894.85391	0.79761
892.92534	0.80751
890.99678	0.82013
889.06821	0.83277
887.13965	0.84368
885.21108	0.85413
883.28252	0.86515
881.35396	0.87577
879.42539	0.88610
877.49683	0.89718
875.56826	0.90815
873.63970	0.91848
871.71113	0.93014
869.78257	0.94398
867.85400	0.95826
865.92544	0.97127
863.99687	0.98361
862.06831	0.99617
860.13975	1.00761
858.21118	1.01754
856.28262	1.02795
854.35405	1.03939
852.42549	1.05069
850.49692	1.06243
848.56836	1.07594
846.63979	1.08997
844.71123	1.10282
842.78267	1.11568
840.85410	1.13038
838.92554	1.14498
836.99697	1.15679
835.06841	1.16657
833.13984	1.17710
831.21128	1.19059
829.28271	1.20424
827.35415	1.21264
825.42559	1.22208
823.49702	1.24183
821.56846	1.26524
819.63989	1.28329
817.71133	1.29346
815.78276	1.29529
813.85420	1.29317
811.92563	1.30089
809.99707	1.32598
808.06851	1.35505
806.13994	1.38146
804.21138	1.40973
802.28281	1.44125
800.35425	1.47575
798.42568	1.52034
796.49712	1.56502
794.56855	1.56453
792.63999	1.56383
790.71143	1.65785
788.78286	1.84264
786.85430	1.93678
784.92573	1.91695
782.99717	2.05900
781.06860	2.78422
779.14004	4.67484
777.21147	4.66327
775.28291	4.65170
773.35435	2.90884
771.42578	2.34119
769.49722	1.84911
767.56865	1.50062
765.64009	1.37534
763.71152	1.39551
761.78296	1.51889
759.85439	1.65174
757.92583	1.46598
755.99727	1.22110
754.06870	1.12001
752.14014	1.17315
750.21157	1.30587
748.28301	1.30390
746.35444	1.17123
744.42588	1.06495
742.49731	1.02286
740.56875	0.97578
738.64019	0.82248
736.71162	0.67000
734.78306	0.57130
732.85449	0.48847
730.92593	0.42307
728.99736	0.39869
727.06880	0.40850
725.14023	0.34966
723.21167	0.18485
721.28311	0.08005
719.35454	0.07500
717.42598	0.02876
715.49741	-0.00037
713.56885	0.16324
711.64028	0.34392
709.71172	0.41383
707.78315	0.36385
705.85459	0.19094
703.92603	0.08112
701.99746	0.16496
700.06890	0.27664
698.14033	0.26573
696.21177	0.24202
694.28320	0.26934
692.35464	0.32551
690.42607	0.31134
688.49751	0.22055
686.56895	0.21913
684.64038	0.25825
682.71182	0.17648
680.78325	0.11495
678.85469	0.13219
676.92612	0.14498
674.99756	0.14879
673.06899	0.16580
671.14043	0.17145
669.21187	0.18343
667.28330	0.24611
665.35474	0.31321
663.42617	0.30574
661.49761	0.27868
659.56904	0.24948
657.64048	0.23082
655.71191	0.22282
653.78335	0.19811
651.85479	0.14985
649.92622	0.06973
647.99766	0.03938
646.06909	0.10188
644.14053	0.20043
642.21196	0.29466
640.28340	0.31762
638.35483	0.26024
636.42627	0.17481
634.49771	0.12920
632.56914	0.14155
630.64058	0.15162
628.71201	0.16939
626.78345	0.23714
624.85488	0.27449
622.92632	0.23934
620.99775	0.22176
619.06919	0.19901
617.14062	0.18207
615.21206	0.22107
613.28350	0.26325
611.35493	0.23253
609.42637	0.20007
607.49780	0.23836
605.56924	0.33226
603.64067	0.38323
601.71211	0.33255
599.78354	0.22297
597.85498	0.13718
595.92642	0.11375
593.99785	0.14670
592.06929	0.18501
590.14072	0.19559
588.21216	0.20464
586.28359	0.18465
584.35503	0.13586
582.42646	0.12380
580.49790	0.17017
578.56934	0.23054
576.64077	0.25443
574.71221	0.26501
572.78364	0.33477
570.85508	0.39028
568.92651	0.29948
566.99795	0.19508
565.06938	0.12707
563.14082	0.13118
561.21226	0.23386
559.28369	0.33298
557.35513	0.28556
555.42656	0.18245
553.49800	0.11098
551.56943	0.13467
549.64087	0.22222
547.71230	0.25674
545.78374	0.23166
543.85518	0.23732
541.92661	0.25081
539.99805	0.24512
538.06948	0.24123
536.14092	0.22233
534.21235	0.18887
532.28379	0.17975
530.35522	0.19483
528.42666	0.21620
526.49810	0.21779
524.56953	0.21498
522.64097	0.25408
520.71240	0.28650
518.78384	0.30284
516.85527	0.38459
514.92671	0.50671
512.99814	0.48595
511.06958	0.35693
509.14102	0.25503
507.21245	0.18860
505.28389	0.19623
503.35532	0.27710
501.42676	0.30358
499.49819	0.24609
