3997.91411	0.07274
3995.98555	0.07304
3994.05698	0.07343
3992.12842	0.07381
3990.19985	0.07421
3988.27129	0.07464
3986.34272	0.07515
3984.41416	0.07545
3982.48560	0.07529
3980.55703	0.07531
3978.62847	0.07562
3976.69990	0.07568
3974.77134	0.07577
3972.84277	0.07603
3970.91421	0.07585
3968.98564	0.07554
3967.05708	0.07587
3965.12852	0.07657
3963.19995	0.07697
3961.27139	0.07697
3959.34282	0.07699
3957.41426	0.07712
3955.48569	0.07709
3953.55713	0.07680
3951.62856	0.07655
3949.70000	0.07670
3947.77144	0.07721
3945.84287	0.07767
3943.91431	0.07785
3941.98574	0.07786
3940.05718	0.07765
3938.12861	0.07730
3936.20005	0.07716
3934.27148	0.07746
3932.34292	0.07808
3930.41436	0.07832
3928.48579	0.07787
3926.55723	0.07750
3924.62866	0.07760
3922.70010	0.07747
3920.77153	0.07701
3918.84297	0.07703
3916.91440	0.07729
3914.98584	0.07695
3913.05728	0.07634
3911.12871	0.07607
3909.20015	0.07598
3907.27158	0.07618
3905.34302	0.07711
3903.41445	0.07865
3901.48589	0.07954
3899.55732	0.07880
3897.62876	0.07739
3895.70020	0.07648
3893.77163	0.07631
3891.84307	0.07659
3889.91450	0.07675
3887.98594	0.07660
3886.05737	0.07684
3884.12881	0.07760
3882.20024	0.07835
3880.27168	0.07905
3878.34312	0.07885
3876.41455	0.07792
3874.48599	0.07783
3872.55742	0.07842
3870.62886	0.07853
3868.70029	0.07840
3866.77173	0.07879
3864.84316	0.07990
3862.91460	0.08093
3860.98604	0.08080
3859.05747	0.08023
3857.12891	0.08015
3855.20034	0.08080
3853.27178	0.08266
3851.34321	0.08450
3849.41465	0.08387
3847.48608	0.08261
3845.55752	0.08230
3843.62896	0.08311
3841.70039	0.08456
3839.77183	0.08605
3837.84326	0.08722
3835.91470	0.08780
3833.98613	0.08785
3832.05757	0.08792
3830.12900	0.08799
3828.20044	0.08777
3826.27187	0.08799
3824.34331	0.08909
3822.41475	0.09079
3820.48618	0.09309
3818.55762	0.09419
3816.62905	0.09390
3814.70049	0.09424
3812.77192	0.09491
3810.84336	0.09517
3808.91479	0.09548
3806.98623	0.09671
3805.05767	0.09880
3803.12910	0.10040
3801.20054	0.10169
3799.27197	0.10284
3797.34341	0.10365
3795.41484	0.10462
3793.48628	0.10553
3791.55771	0.10630
3789.62915	0.10715
3787.70059	0.10823
3785.77202	0.10965
3783.84346	0.11121
3781.91489	0.11279
3779.98633	0.11449
3778.05776	0.11620
3776.12920	0.11739
3774.20063	0.11842
3772.27207	0.11980
3770.34351	0.12186
3768.41494	0.12467
3766.48638	0.12707
3764.55781	0.12870
3762.62925	0.12993
3760.70068	0.13165
3758.77212	0.13469
3756.84355	0.13783
3754.91499	0.13976
3752.98643	0.14175
3751.05786	0.14566
3749.12930	0.15049
3747.20073	0.15279
3745.27217	0.15445
3743.34360	0.15807
3741.41504	0.16133
3739.48647	0.16326
3737.55791	0.16574
3735.62935	0.16990
3733.70078	0.17587
3731.77222	0.18132
3729.84365	0.18488
3727.91509	0.18797
3725.98652	0.19262
3724.05796	0.19913
3722.12939	0.20635
3720.20083	0.21370
3718.27227	0.22062
3716.34370	0.22751
3714.41514	0.23493
3712.48657	0.24407
3710.55801	0.25701
3708.62944	0.27130
3706.70088	0.28311
3704.77231	0.29406
3702.84375	0.30677
3700.91519	0.32300
3698.98662	0.34085
3697.05806	0.35829
3695.12949	0.37651
3693.20093	0.39531
3691.27236	0.41599
3689.34380	0.44330
3687.41523	0.47711
3685.48667	0.50731
3683.55811	0.53339
3681.62954	0.56108
3679.70098	0.59225
3677.77241	0.62507
3675.84385	0.66350
3673.91528	0.71446
3671.98672	0.75707
3670.05815	0.79550
3668.12959	0.84720
3666.20103	0.89486
3664.27246	0.93538
3662.34390	0.97884
3660.41533	1.02545
3658.48677	1.07129
3656.55820	1.12021
3654.62964	1.17412
3652.70107	1.21914
3650.77251	1.25876
3648.84395	1.31323
3646.91538	1.37912
3644.98682	1.42791
3643.05825	1.46567
3641.12969	1.50486
3639.20112	1.54852
3637.27256	1.59277
3635.34399	1.63591
3633.41543	1.67839
3631.48687	1.71749
3629.55830	1.75714
3627.62974	1.80896
3625.70117	1.85805
3623.77261	1.89213
3621.84404	1.92495
3619.91548	1.96262
3617.98691	2.00725
3616.05835	2.04932
3614.12979	2.08463
3612.20122	2.12318
3610.27266	2.16343
3608.34409	2.20339
3606.41553	2.24466
3604.48696	2.28310
3602.55840	2.31810
3600.62983	2.35643
3598.70127	2.39880
3596.77271	2.44022
3594.84414	2.48100
3592.91558	2.52206
3590.98701	2.56130
3589.05845	2.59878
3587.12988	2.64128
3585.20132	2.68660
3583.27275	2.72765
3581.34419	2.76739
3579.41562	2.80861
3577.48706	2.85019
3575.55850	2.89127
3573.62993	2.93354
3571.70137	2.97499
3569.77280	3.01384
3567.84424	3.05386
3565.91567	3.10311
3563.98711	3.15484
3562.05854	3.20075
3560.12998	3.24551
3558.20142	3.29073
3556.27285	3.33527
3554.34429	3.37771
3552.41572	3.42191
3550.48716	3.47017
3548.55859	3.51857
3546.63003	3.56547
3544.70146	3.61302
3542.77290	3.65831
3540.84434	3.70077
3538.91577	3.74709
3536.98721	3.79842
3535.05864	3.85042
3533.13008	3.89695
3531.20151	3.93820
3529.27295	3.97988
3527.34438	4.02723
3525.41582	4.07811
3523.48726	4.12747
3521.55869	4.17803
3519.63013	4.23031
3517.70156	4.28052
3515.77300	4.32750
3513.84443	4.37351
3511.91587	4.42076
3509.98730	4.46983
3508.05874	4.51851
3506.13018	4.56750
3504.20161	4.61974
3502.27305	4.67010
3500.34448	4.71310
3498.41592	4.75249
3496.48735	4.79363
3494.55879	4.83733
3492.63022	4.88304
3490.70166	4.93518
3488.77310	4.99595
3486.84453	5.05535
3484.91597	5.10335
3482.98740	5.14427
3481.05884	5.19052
3479.13027	5.24190
3477.20171	5.29135
3475.27314	5.33858
3473.34458	5.38525
3471.41602	5.43484
3469.48745	5.48503
3467.55889	5.53164
3465.63032	5.57143
3463.70176	5.61082
3461.77319	5.66557
3459.84463	5.72458
3457.91606	5.76212
3455.98750	5.79457
3454.05894	5.84506
3452.13037	5.90016
3450.20181	5.95433
3448.27324	6.01372
3446.34468	6.07653
3444.41611	6.14612
3442.48755	6.21011
3440.55898	6.23760
3438.63042	6.24497
3436.70186	6.27925
3434.77329	6.33947
3432.84473	6.38143
3430.91616	6.39975
3428.98760	6.44536
3427.05903	6.53012
3425.13047	6.60206
3423.20190	6.63965
3421.27334	6.69267
3419.34478	6.76013
3417.41621	6.80439
3415.48765	6.84231
3413.55908	6.89099
3411.63052	6.94016
3409.70195	6.96867
3407.77339	6.99492
3405.84482	7.04435
3403.91626	7.10920
3401.98770	7.16003
3400.05913	7.20027
3398.13057	7.25273
3396.20200	7.29768
3394.27344	7.33086
3392.34487	7.36191
3390.41631	7.38167
3388.48774	7.37440
3386.55918	7.37335
3384.63062	7.42304
3382.70205	7.50819
3380.77349	7.55749
3378.84492	7.57768
3376.91636	7.64018
3374.98779	7.68882
3373.05923	7.66568
3371.13066	7.63445
3369.20210	7.65644
3367.27354	7.68845
3365.34497	7.70992
3363.41641	7.76170
3361.48784	7.83312
3359.55928	7.90045
3357.63071	7.93929
3355.70215	7.93203
3353.77358	7.89528
3351.84502	7.87984
3349.91646	7.84372
3347.98789	7.78330
3346.05933	7.81820
3344.13076	7.97686
3342.20220	8.10022
3340.27363	8.03191
3338.34507	7.93264
3336.41650	7.92975
3334.48794	7.95187
3332.55937	7.96300
3330.63081	8.02436
3328.70225	8.11295
3326.77368	8.14204
3324.84512	8.12050
3322.91655	8.09650
3320.98799	8.07995
3319.05942	8.03598
3317.13086	7.98933
3315.20229	7.97387
3313.27373	8.01253
3311.34517	8.08584
3309.41660	8.12291
3307.48804	8.14115
3305.55947	8.15837
3303.63091	8.13984
3301.70234	8.09401
3299.77378	8.10159
3297.84521	8.13693
3295.91665	8.09091
3293.98809	8.03791
3292.05952	8.05800
3290.13096	8.03341
3288.20239	7.96943
3286.27383	8.02726
3284.34526	8.20360
3282.41670	8.37904
3280.48813	8.41007
3278.55957	8.28153
3276.63101	8.13227
3274.70244	8.03525
3272.77388	8.00266
3270.84531	8.03112
3268.91675	8.06140
3266.98818	8.05810
3265.05962	8.07518
3263.13105	8.06337
3261.20249	7.97372
3259.27393	7.91599
3257.34536	7.96432
3255.41680	8.07878
3253.48823	8.19369
3251.55967	8.25018
3249.63110	8.25174
3247.70254	8.29629
3245.77397	8.26669
3243.84541	8.06299
3241.91685	7.94697
3239.98828	7.97510
3238.05972	7.97030
3236.13115	7.93075
3234.20259	7.93278
3232.27402	7.96742
3230.34546	8.04047
3228.41689	8.12713
3226.48833	8.14168
3224.55977	8.10082
3222.63120	8.06686
3220.70264	8.02748
3218.77407	8.01451
3216.84551	8.03847
3214.91694	8.00231
3212.98838	7.90496
3211.05981	7.89783
3209.13125	8.01096
3207.20269	8.07846
3205.27412	8.00586
3203.34556	7.89629
3201.41699	7.83261
3199.48843	7.78845
3197.55986	7.76478
3195.63130	7.75349
3193.70273	7.66771
3191.77417	7.53554
3189.84561	7.46780
3187.91704	7.48546
3185.98848	7.49012
3184.05991	7.42585
3182.13135	7.36724
3180.20278	7.32731
3178.27422	7.27412
3176.34565	7.20985
3174.41709	7.13365
3172.48853	7.07363
3170.55996	7.03504
3168.63140	6.98495
3166.70283	6.93390
3164.77427	6.90185
3162.84570	6.87190
3160.91714	6.82534
3158.98857	6.75601
3157.06001	6.67372
3155.13145	6.60120
3153.20288	6.52315
3151.27432	6.43073
3149.34575	6.35822
3147.41719	6.31019
3145.48862	6.26291
3143.56006	6.19863
3141.63149	6.11183
3139.70293	6.02276
3137.77437	5.94514
3135.84580	5.86423
3133.91724	5.78329
3131.98867	5.72073
3130.06011	5.67041
3128.13154	5.61010
3126.20298	5.53459
3124.27441	5.46154
3122.34585	5.39871
3120.41729	5.33372
3118.48872	5.25994
3116.56016	5.18795
3114.63159	5.12022
3112.70303	5.05105
3110.77446	4.98150
3108.84590	4.90937
3106.91733	4.83511
3104.98877	4.76652
3103.06021	4.70406
3101.13164	4.63899
3099.20308	4.57105
3097.27451	4.50338
3095.34595	4.43185
3093.41738	4.35927
3091.48882	4.29259
3089.56025	4.22846
3087.63169	4.16204
3085.70312	4.09770
3083.77456	4.03861
3081.84600	3.98283
3079.91743	3.92580
3077.98887	3.86329
3076.06030	3.79924
3074.13174	3.73805
3072.20317	3.67923
3070.27461	3.62126
3068.34604	3.56143
3066.41748	3.50000
3064.48892	3.44103
3062.56035	3.38660
3060.63179	3.33441
3058.70322	3.28220
3056.77466	3.22981
3054.84609	3.17574
3052.91753	3.12044
3050.98896	3.06661
3049.06040	3.01414
3047.13184	2.96271
3045.20327	2.91267
3043.27471	2.86366
3041.34614	2.81619
3039.41758	2.77023
3037.48901	2.72394
3035.56045	2.67658
3033.63188	2.62992
3031.70332	2.58477
3029.77476	2.53985
3027.84619	2.49485
3025.91763	2.45073
3023.98906	2.40749
3022.06050	2.36514
3020.13193	2.32386
3018.20337	2.28298
3016.27480	2.24232
3014.34624	2.20228
3012.41768	2.16314
3010.48911	2.12537
3008.56055	2.08865
3006.63198	2.05157
3004.70342	2.01401
3002.77485	1.97733
3000.84629	1.94223
2998.91772	1.90876
2996.98916	1.87635
2995.06060	1.84394
2993.13203	1.81162
2991.20347	1.77998
2989.27490	1.74879
2987.34634	1.71792
2985.41777	1.68794
2983.48921	1.65908
2981.56064	1.63063
2979.63208	1.60219
2977.70352	1.57435
2975.77495	1.54733
2973.84639	1.52068
2971.91782	1.49450
2969.98926	1.46905
2968.06069	1.44395
2966.13213	1.41892
2964.20356	1.39408
2962.27500	1.36951
2960.34644	1.34541
2958.41787	1.32161
2956.48931	1.29785
2954.56074	1.27430
2952.63218	1.25090
2950.70361	1.22752
2948.77505	1.20454
2946.84648	1.18237
2944.91792	1.16090
2942.98936	1.13985
2941.06079	1.11932
2939.13223	1.09945
2937.20366	1.07979
2935.27510	1.05988
2933.34653	1.03978
2931.41797	1.02001
2929.48940	1.00093
2927.56084	0.98222
2925.63228	0.96341
2923.70371	0.94478
2921.77515	0.92725
2919.84658	0.91089
2917.91802	0.89500
2915.98945	0.87926
2914.06089	0.86380
2912.13232	0.84835
2910.20376	0.83237
2908.27520	0.81644
2906.34663	0.80159
2904.41807	0.78789
2902.48950	0.77476
2900.56094	0.76146
2898.63237	0.74776
2896.70381	0.73418
2894.77524	0.72149
2892.84668	0.70944
2890.91812	0.69735
2888.98955	0.68575
2887.06099	0.67497
2885.13242	0.66438
2883.20386	0.65364
2881.27529	0.64299
2879.34673	0.63292
2877.41816	0.62338
2875.48960	0.61364
2873.56104	0.60340
2871.63247	0.59311
2869.70391	0.58289
2867.77534	0.57236
2865.84678	0.56155
2863.91821	0.55071
2861.98965	0.54005
2860.06108	0.52987
2858.13252	0.52027
2856.20396	0.51104
2854.27539	0.50215
2852.34683	0.49383
2850.41826	0.48600
2848.48970	0.47841
2846.56113	0.47095
2844.63257	0.46380
2842.70400	0.45709
2840.77544	0.45053
2838.84687	0.44407
2836.91831	0.43791
2834.98975	0.43207
2833.06118	0.42634
2831.13262	0.42037
2829.20405	0.41431
2827.27549	0.40861
2825.34692	0.40307
2823.41836	0.39728
2821.48979	0.39139
2819.56123	0.38572
2817.63267	0.38011
2815.70410	0.37440
2813.77554	0.36885
2811.84697	0.36361
2809.91841	0.35857
2807.98984	0.35346
2806.06128	0.34827
2804.13271	0.34315
2802.20415	0.33819
2800.27559	0.33354
2798.34702	0.32917
2796.41846	0.32487
2794.48989	0.32043
2792.56133	0.31586
2790.63276	0.31148
2788.70420	0.30734
2786.77563	0.30308
2784.84707	0.29880
2782.91851	0.29482
2780.98994	0.29099
2779.06138	0.28720
2777.13281	0.28341
2775.20425	0.27961
2773.27568	0.27591
2771.34712	0.27239
2769.41855	0.26911
2767.48999	0.26596
2765.56143	0.26267
2763.63286	0.25931
2761.70430	0.25608
2759.77573	0.25291
2757.84717	0.24972
2755.91860	0.24657
2753.99004	0.24359
2752.06147	0.24085
2750.13291	0.23798
2748.20435	0.23487
2746.27578	0.23205
2744.34722	0.22959
2742.41865	0.22714
2740.49009	0.22466
2738.56152	0.22222
2736.63296	0.21979
2734.70439	0.21739
2732.77583	0.21506
2730.84727	0.21276
2728.91870	0.21041
2726.99014	0.20818
2725.06157	0.20614
2723.13301	0.20418
2721.20444	0.20234
2719.27588	0.20054
2717.34731	0.19869
2715.41875	0.19687
2713.49019	0.19521
2711.56162	0.19369
2709.63306	0.19213
2707.70449	0.19049
2705.77593	0.18882
2703.84736	0.18711
2701.91880	0.18550
2699.99023	0.18405
2698.06167	0.18267
2696.13311	0.18125
2694.20454	0.17978
2692.27598	0.17832
2690.34741	0.17706
2688.41885	0.17602
2686.49028	0.17495
2684.56172	0.17371
2682.63315	0.17243
2680.70459	0.17123
2678.77603	0.17018
2676.84746	0.16923
2674.91890	0.16838
2672.99033	0.16757
2671.06177	0.16670
2669.13320	0.16579
2667.20464	0.16488
2665.27607	0.16382
2663.34751	0.16267
2661.41895	0.16176
2659.49038	0.16115
2657.56182	0.16066
2655.63325	0.16024
2653.70469	0.15980
2651.77612	0.15914
2649.84756	0.15835
2647.91899	0.15761
2645.99043	0.15692
2644.06187	0.15636
2642.13330	0.15597
2640.20474	0.15567
2638.27617	0.15538
2636.34761	0.15500
2634.41904	0.15447
2632.49048	0.15399
2630.56191	0.15371
2628.63335	0.15352
2626.70479	0.15334
2624.77622	0.15314
2622.84766	0.15278
2620.91909	0.15230
2618.99053	0.15201
2617.06196	0.15197
2615.13340	0.15192
2613.20483	0.15169
2611.27627	0.15150
2609.34771	0.15155
2607.41914	0.15173
2605.49058	0.15188
2603.56201	0.15193
2601.63345	0.15193
2599.70488	0.15197
2597.77632	0.15200
2595.84775	0.15197
2593.91919	0.15202
2591.99062	0.15220
2590.06206	0.15230
2588.13350	0.15232
2586.20493	0.15242
2584.27637	0.15264
2582.34780	0.15294
2580.41924	0.15330
2578.49067	0.15360
2576.56211	0.15385
2574.63354	0.15417
2572.70498	0.15449
2570.77642	0.15467
2568.84785	0.15500
2566.91929	0.15567
2564.99072	0.15631
2563.06216	0.15673
2561.13359	0.15709
2559.20503	0.15753
2557.27646	0.15799
2555.34790	0.15849
2553.41934	0.15907
2551.49077	0.15961
2549.56221	0.16006
2547.63364	0.16061
2545.70508	0.16134
2543.77651	0.16199
2541.84795	0.16254
2539.91938	0.16323
2537.99082	0.16410
2536.06226	0.16495
2534.13369	0.16562
2532.20513	0.16617
2530.27656	0.16669
2528.34800	0.16732
2526.41943	0.16812
2524.49087	0.16888
2522.56230	0.16954
2520.63374	0.17026
2518.70518	0.17106
2516.77661	0.17189
2514.84805	0.17280
2512.91948	0.17371
2510.99092	0.17442
2509.06235	0.17498
2507.13379	0.17579
2505.20522	0.17684
2503.27666	0.17775
2501.34810	0.17856
2499.41953	0.17941
2497.49097	0.18026
2495.56240	0.18104
2493.63384	0.18181
2491.70527	0.18262
2489.77671	0.18349
2487.84814	0.18441
2485.91958	0.18536
2483.99102	0.18630
2482.06245	0.18724
2480.13389	0.18806
2478.20532	0.18885
2476.27676	0.18976
2474.34819	0.19076
2472.41963	0.19176
2470.49106	0.19273
2468.56250	0.19361
2466.63394	0.19452
2464.70537	0.19543
2462.77681	0.19632
2460.84824	0.19730
2458.91968	0.19829
2456.99111	0.19927
2455.06255	0.20028
2453.13398	0.20123
2451.20542	0.20220
2449.27686	0.20325
2447.34829	0.20428
2445.41973	0.20537
2443.49116	0.20648
2441.56260	0.20738
2439.63403	0.20820
2437.70547	0.20928
2435.77690	0.21057
2433.84834	0.21164
2431.91978	0.21246
2429.99121	0.21338
2428.06265	0.21440
2426.13408	0.21546
2424.20552	0.21666
2422.27695	0.21797
2420.34839	0.21920
2418.41982	0.22031
2416.49126	0.22142
2414.56270	0.22256
2412.63413	0.22375
2410.70557	0.22498
2408.77700	0.22618
2406.84844	0.22731
2404.91987	0.22841
2402.99131	0.22955
2401.06274	0.23068
2399.13418	0.23183
2397.20562	0.23303
2395.27705	0.23431
2393.34849	0.23567
2391.41992	0.23703
2389.49136	0.23833
2387.56279	0.23953
2385.63423	0.24052
2383.70566	0.24138
2381.77710	0.24228
2379.84854	0.24322
2377.91997	0.24416
2375.99141	0.24512
2374.06284	0.24622
2372.13428	0.24751
2370.20571	0.24868
2368.27715	0.24912
2366.34858	0.24873
2364.42002	0.24829
2362.49146	0.24849
2360.56289	0.24983
2358.63433	0.25289
2356.70576	0.25635
2354.77720	0.25873
2352.84863	0.26136
2350.92007	0.26421
2348.99150	0.26571
2347.06294	0.26588
2345.13437	0.26607
2343.20581	0.26759
2341.27725	0.26969
2339.34868	0.27164
2337.42012	0.27388
2335.49155	0.27604
2333.56299	0.27743
2331.63442	0.27824
2329.70586	0.27951
2327.77729	0.28194
2325.84873	0.28445
2323.92017	0.28611
2321.99160	0.28760
2320.06304	0.28946
2318.13447	0.29142
2316.20591	0.29342
2314.27734	0.29558
2312.34878	0.29785
2310.42021	0.30011
2308.49165	0.30222
2306.56309	0.30421
2304.63452	0.30610
2302.70596	0.30783
2300.77739	0.30952
2298.84883	0.31138
2296.92026	0.31341
2294.99170	0.31540
2293.06313	0.31728
2291.13457	0.31917
2289.20601	0.32124
2287.27744	0.32340
2285.34888	0.32555
2283.42031	0.32762
2281.49175	0.32959
2279.56318	0.33160
2277.63462	0.33364
2275.70605	0.33556
2273.77749	0.33752
2271.84893	0.33967
2269.92036	0.34188
2267.99180	0.34404
2266.06323	0.34621
2264.13467	0.34840
2262.20610	0.35051
2260.27754	0.35262
2258.34897	0.35486
2256.42041	0.35714
2254.49185	0.35934
2252.56328	0.36136
2250.63472	0.36332
2248.70615	0.36544
2246.77759	0.36777
2244.84902	0.37012
2242.92046	0.37234
2240.99189	0.37450
2239.06333	0.37667
2237.13477	0.37884
2235.20620	0.38113
2233.27764	0.38347
2231.34907	0.38566
2229.42051	0.38780
2227.49194	0.39002
2225.56338	0.39225
2223.63481	0.39445
2221.70625	0.39663
2219.77769	0.39882
2217.84912	0.40118
2215.92056	0.40357
2213.99199	0.40570
2212.06343	0.40765
2210.13486	0.40973
2208.20630	0.41194
2206.27773	0.41406
2204.34917	0.41608
2202.42061	0.41811
2200.49204	0.42013
2198.56348	0.42213
2196.63491	0.42406
2194.70635	0.42586
2192.77778	0.42765
2190.84922	0.42960
2188.92065	0.43162
2186.99209	0.43354
2185.06353	0.43529
2183.13496	0.43698
2181.20640	0.43870
2179.27783	0.44032
2177.34927	0.44184
2175.42070	0.44336
2173.49214	0.44489
2171.56357	0.44650
2169.63501	0.44811
2167.70645	0.44949
2165.77788	0.45057
2163.84932	0.45157
2161.92075	0.45265
2159.99219	0.45379
2158.06362	0.45486
2156.13506	0.45588
2154.20649	0.45682
2152.27793	0.45762
2150.34937	0.45825
2148.42080	0.45876
2146.49224	0.45931
2144.56367	0.45983
2142.63511	0.46021
2140.70654	0.46049
2138.77798	0.46067
2136.84941	0.46072
2134.92085	0.46075
2132.99229	0.46075
2131.06372	0.46060
2129.13516	0.46021
2127.20659	0.45977
2125.27803	0.45947
2123.34946	0.45921
2121.42090	0.45884
2119.49233	0.45826
2117.56377	0.45751
2115.63521	0.45667
2113.70664	0.45585
2111.77808	0.45503
2109.84951	0.45402
2107.92095	0.45283
2105.99238	0.45163
2104.06382	0.45045
2102.13525	0.44912
2100.20669	0.44768
2098.27812	0.44630
2096.34956	0.44488
2094.42100	0.44325
2092.49243	0.44152
2090.56387	0.43986
2088.63530	0.43816
2086.70674	0.43622
2084.77817	0.43415
2082.84961	0.43215
2080.92104	0.43016
2078.99248	0.42815
2077.06392	0.42611
2075.13535	0.42396
2073.20679	0.42172
2071.27822	0.41944
2069.34966	0.41709
2067.42109	0.41469
2065.49253	0.41229
2063.56396	0.40988
2061.63540	0.40747
2059.70684	0.40500
2057.77827	0.40241
2055.84971	0.39986
2053.92114	0.39728
2051.99258	0.39465
2050.06401	0.39200
2048.13545	0.38929
2046.20688	0.38657
2044.27832	0.38397
2042.34976	0.38142
2040.42119	0.37882
2038.49263	0.37609
2036.56406	0.37324
2034.63550	0.37040
2032.70693	0.36759
2030.77837	0.36479
2028.84980	0.36196
2026.92124	0.35913
2024.99268	0.35627
2023.06411	0.35343
2021.13555	0.35069
2019.20698	0.34804
2017.27842	0.34538
2015.34985	0.34252
2013.42129	0.33952
2011.49272	0.33661
2009.56416	0.33389
2007.63560	0.33125
2005.70703	0.32862
2003.77847	0.32605
2001.84990	0.32354
1999.92134	0.32094
1997.99277	0.31822
1996.06421	0.31558
1994.13564	0.31315
1992.20708	0.31080
1990.27852	0.30830
1988.34995	0.30564
1986.42139	0.30297
1984.49282	0.30043
1982.56426	0.29810
1980.63569	0.29588
1978.70713	0.29371
1976.77856	0.29148
1974.85000	0.28926
1972.92144	0.28714
1970.99287	0.28505
1969.06431	0.28294
1967.13574	0.28086
1965.20718	0.27879
1963.27861	0.27675
1961.35005	0.27481
1959.42148	0.27300
1957.49292	0.27120
1955.56436	0.26934
1953.63579	0.26756
1951.70723	0.26586
1949.77866	0.26421
1947.85010	0.26263
1945.92153	0.26119
1943.99297	0.25988
1942.06440	0.25857
1940.13584	0.25707
1938.20728	0.25547
1936.27871	0.25401
1934.35015	0.25270
1932.42158	0.25145
1930.49302	0.25022
1928.56445	0.24913
1926.63589	0.24812
1924.70732	0.24718
1922.77876	0.24633
1920.85020	0.24543
1918.92163	0.24452
1916.99307	0.24368
1915.06450	0.24274
1913.13594	0.24177
1911.20737	0.24101
1909.27881	0.24041
1907.35024	0.23981
1905.42168	0.23912
1903.49312	0.23848
1901.56455	0.23794
1899.63599	0.23742
1897.70742	0.23702
1895.77886	0.23677
1893.85029	0.23651
1891.92173	0.23614
1889.99316	0.23587
1888.06460	0.23560
1886.13604	0.23520
1884.20747	0.23482
1882.27891	0.23471
1880.35034	0.23477
1878.42178	0.23473
1876.49321	0.23466
1874.56465	0.23465
1872.63608	0.23477
1870.70752	0.23501
1868.77896	0.23547
1866.85039	0.23584
1864.92183	0.23584
1862.99326	0.23584
1861.06470	0.23608
1859.13613	0.23651
1857.20757	0.23688
1855.27900	0.23727
1853.35044	0.23778
1851.42187	0.23839
1849.49331	0.23903
1847.56475	0.23973
1845.63618	0.24056
1843.70762	0.24154
1841.77905	0.24227
1839.85049	0.24266
1837.92192	0.24334
1835.99336	0.24427
1834.06479	0.24533
1832.13623	0.24640
1830.20767	0.24772
1828.27910	0.24910
1826.35054	0.25014
1824.42197	0.25136
1822.49341	0.25267
1820.56484	0.25396
1818.63628	0.25545
1816.70771	0.25718
1814.77915	0.25878
1812.85059	0.26042
1810.92202	0.26242
1808.99346	0.26454
1807.06489	0.26655
1805.13633	0.26857
1803.20776	0.27091
1801.27920	0.27341
1799.35063	0.27608
1797.42207	0.27856
1795.49351	0.28093
1793.56494	0.28365
1791.63638	0.28724
1789.70781	0.29082
1787.77925	0.29365
1785.85068	0.29691
1783.92212	0.30061
1781.99355	0.30449
1780.06499	0.30860
1778.13643	0.31280
1776.20786	0.31671
1774.27930	0.32094
1772.35073	0.32678
1770.42217	0.33319
1768.49360	0.33862
1766.56504	0.34381
1764.63647	0.34919
1762.70791	0.35520
1760.77935	0.36273
1758.85078	0.36970
1756.92222	0.37665
1754.99365	0.38429
1753.06509	0.39133
1751.13652	0.39958
1749.20796	0.40987
1747.27939	0.42038
1745.35083	0.42994
1743.42227	0.43984
1741.49370	0.45055
1739.56514	0.46309
1737.63657	0.47575
1735.70801	0.48700
1733.77944	0.50345
1731.85088	0.52275
1729.92231	0.53831
1727.99375	0.55419
1726.06519	0.57118
1724.13662	0.58959
1722.20806	0.60952
1720.27949	0.62807
1718.35093	0.64963
1716.42236	0.68091
1714.49380	0.71100
1712.56523	0.73595
1710.63667	0.76023
1708.70811	0.78614
1706.77954	0.81538
1704.85098	0.84999
1702.92241	0.88086
1700.99385	0.91146
1699.06528	0.95683
1697.13672	0.99907
1695.20815	1.04274
1693.27959	1.08603
1691.35103	1.12111
1689.42246	1.16037
1687.49390	1.20114
1685.56533	1.24107
1683.63677	1.30222
1681.70820	1.36555
1679.77964	1.40701
1677.85107	1.44618
1675.92251	1.49097
1673.99395	1.54614
1672.06538	1.59514
1670.13682	1.64248
1668.20825	1.70437
1666.27969	1.75711
1664.35112	1.80182
1662.42256	1.85603
1660.49399	1.91716
1658.56543	1.96564
1656.63687	2.00393
1654.70830	2.03774
1652.77974	2.09086
1650.85117	2.14523
1648.92261	2.16801
1646.99404	2.19315
1645.06548	2.21815
1643.13691	2.23430
1641.20835	2.24382
1639.27979	2.25173
1637.35122	2.25565
1635.42266	2.25471
1633.49409	2.24799
1631.56553	2.23454
1629.63696	2.21727
1627.70840	2.18988
1625.77983	2.15806
1623.85127	2.11894
1621.92271	2.07162
1619.99414	2.02825
1618.06558	1.98425
1616.13701	1.92174
1614.20845	1.85842
1612.27988	1.81004
1610.35132	1.76017
1608.42275	1.70642
1606.49419	1.65293
1604.56562	1.60336
1602.63706	1.55592
1600.70850	1.50943
1598.77993	1.46631
1596.85137	1.42613
1594.92280	1.38735
1592.99424	1.34949
1591.06567	1.31444
1589.13711	1.28197
1587.20854	1.25221
1585.27998	1.22472
1583.35142	1.19869
1581.42285	1.17465
1579.49429	1.15401
1577.56572	1.13544
1575.63716	1.11357
1573.70859	1.09494
1571.78003	1.08293
1569.85146	1.07050
1567.92290	1.05688
1565.99434	1.04653
1564.06577	1.03846
1562.13721	1.03208
1560.20864	1.02745
1558.28008	1.02292
1556.35151	1.02004
1554.42295	1.01800
1552.49438	1.01552
1550.56582	1.01186
1548.63726	1.00658
1546.70869	0.99995
1544.78013	0.99128
1542.85156	0.98034
1540.92300	0.96528
1538.99443	0.94252
1537.06587	0.92525
1535.13730	0.91327
1533.20874	0.89801
1531.28018	0.88167
1529.35161	0.86928
1527.42305	0.85757
1525.49448	0.84566
1523.56592	0.83547
1521.63735	0.82568
1519.70879	0.81561
1517.78022	0.80698
1515.85166	0.79760
1513.92310	0.78791
1511.99453	0.77928
1510.06597	0.77125
1508.13740	0.76340
1506.20884	0.75250
1504.28027	0.74269
1502.35171	0.73633
1500.42314	0.73066
1498.49458	0.72504
1496.56602	0.71905
1494.63745	0.71304
1492.70889	0.70797
1490.78032	0.70345
1488.85176	0.69861
1486.92319	0.69400
1484.99463	0.69003
1483.06606	0.68657
1481.13750	0.68353
1479.20894	0.68110
1477.28037	0.67948
1475.35181	0.67851
1473.42324	0.67783
1471.49468	0.67624
1469.56611	0.67368
1467.63755	0.67122
1465.70898	0.66910
1463.78042	0.66723
1461.85186	0.66577
1459.92329	0.66484
1457.99473	0.66430
1456.06616	0.66321
1454.13760	0.66097
1452.20903	0.65867
1450.28047	0.65643
1448.35190	0.65417
1446.42334	0.65188
1444.49478	0.64961
1442.56621	0.64733
1440.63765	0.64501
1438.70908	0.64260
1436.78052	0.63973
1434.85195	0.63671
1432.92339	0.63428
1430.99482	0.63242
1429.06626	0.63105
1427.13770	0.63022
1425.20913	0.62995
1423.28057	0.63003
1421.35200	0.63001
1419.42344	0.62973
1417.49487	0.62902
1415.56631	0.62799
1413.63774	0.62718
1411.70918	0.62675
1409.78062	0.62676
1407.85205	0.62717
1405.92349	0.62794
1403.99492	0.62868
1402.06636	0.62859
1400.13779	0.62772
1398.20923	0.62638
1396.28066	0.62452
1394.35210	0.62174
1392.42354	0.61826
1390.49497	0.61491
1388.56641	0.61172
1386.63784	0.60810
1384.70928	0.60414
1382.78071	0.60037
1380.85215	0.59690
1378.92358	0.59382
1376.99502	0.59142
1375.06646	0.58976
1373.13789	0.58835
1371.20933	0.58699
1369.28076	0.58583
1367.35220	0.58479
1365.42363	0.58376
1363.49507	0.58260
1361.56650	0.58121
1359.63794	0.57978
1357.70937	0.57860
1355.78081	0.57762
1353.85225	0.57667
1351.92368	0.57568
1349.99512	0.57478
1348.06655	0.57413
1346.13799	0.57360
1344.20942	0.57297
1342.28086	0.57224
1340.35229	0.57152
1338.42373	0.57093
1336.49517	0.57036
1334.56660	0.56978
1332.63804	0.56941
1330.70947	0.56930
1328.78091	0.56926
1326.85234	0.56924
1324.92378	0.56930
1322.99521	0.56938
1321.06665	0.56943
1319.13809	0.56957
1317.20952	0.56973
1315.28096	0.56964
1313.35239	0.56918
1311.42383	0.56852
1309.49526	0.56794
1307.56670	0.56755
1305.63813	0.56717
1303.70957	0.56662
1301.78101	0.56595
1299.85244	0.56509
1297.92388	0.56401
1295.99531	0.56301
1294.06675	0.56216
1292.13818	0.56124
1290.20962	0.56015
1288.28105	0.55913
1286.35249	0.55824
1284.42393	0.55737
1282.49536	0.55647
1280.56680	0.55547
1278.63823	0.55431
1276.70967	0.55315
1274.78110	0.55211
1272.85254	0.55116
1270.92397	0.55039
1268.99541	0.54993
1267.06685	0.54953
1265.13828	0.54887
1263.20972	0.54802
1261.28115	0.54722
1259.35259	0.54644
1257.42402	0.54571
1255.49546	0.54525
1253.56689	0.54511
1251.63833	0.54521
1249.70977	0.54532
1247.78120	0.54520
1245.85264	0.54492
1243.92407	0.54455
1241.99551	0.54392
1240.06694	0.54280
1238.13838	0.54121
1236.20981	0.53954
1234.28125	0.53800
1232.35269	0.53639
1230.42412	0.53461
1228.49556	0.53299
1226.56699	0.53168
1224.63843	0.53048
1222.70986	0.52924
1220.78130	0.52799
1218.85273	0.52690
1216.92417	0.52616
1214.99561	0.52545
1213.06704	0.52451
1211.13848	0.52354
1209.20991	0.52268
1207.28135	0.52196
1205.35278	0.52130
1203.42422	0.52057
1201.49565	0.51979
1199.56709	0.51904
1197.63853	0.51843
1195.70996	0.51795
1193.78140	0.51759
1191.85283	0.51719
1189.92427	0.51669
1187.99570	0.51634
1186.06714	0.51616
1184.13857	0.51601
1182.21001	0.51626
1180.28145	0.51709
1178.35288	0.51806
1176.42432	0.51893
1174.49575	0.51967
1172.56719	0.52021
1170.63862	0.52030
1168.71006	0.51985
1166.78149	0.51930
1164.85293	0.51912
1162.92437	0.51910
1160.99580	0.51877
1159.06724	0.51802
1157.13867	0.51712
1155.21011	0.51620
1153.28154	0.51498
1151.35298	0.51337
1149.42441	0.51150
1147.49585	0.50946
1145.56729	0.50731
1143.63872	0.50510
1141.71016	0.50295
1139.78159	0.50090
1137.85303	0.49897
1135.92446	0.49745
1133.99590	0.49628
1132.06733	0.49492
1130.13877	0.49356
1128.21021	0.49259
1126.28164	0.49162
1124.35308	0.49031
1122.42451	0.48896
1120.49595	0.48804
1118.56738	0.48752
1116.63882	0.48707
1114.71025	0.48678
1112.78169	0.48685
1110.85312	0.48732
1108.92456	0.48807
1106.99600	0.48881
1105.06743	0.48952
1103.13887	0.49057
1101.21030	0.49232
1099.28174	0.49473
1097.35317	0.49752
1095.42461	0.50056
1093.49604	0.50382
1091.56748	0.50754
1089.63892	0.51208
1087.71035	0.51738
1085.78179	0.52328
1083.85322	0.52961
1081.92466	0.53592
1079.99609	0.54147
1078.06753	0.54532
1076.13896	0.54649
1074.21040	0.54449
1072.28184	0.53984
1070.35327	0.53381
1068.42471	0.52746
1066.49614	0.52107
1064.56758	0.51483
1062.63901	0.50895
1060.71045	0.50347
1058.78188	0.49860
1056.85332	0.49464
1054.92476	0.49135
1052.99619	0.48819
1051.06763	0.48533
1049.13906	0.48313
1047.21050	0.48125
1045.28193	0.47925
1043.35337	0.47742
1041.42480	0.47626
1039.49624	0.47564
1037.56768	0.47507
1035.63911	0.47437
1033.71055	0.47376
1031.78198	0.47350
1029.85342	0.47345
1027.92485	0.47341
1025.99629	0.47347
1024.06772	0.47373
1022.13916	0.47423
1020.21060	0.47513
1018.28203	0.47635
1016.35347	0.47750
1014.42490	0.47852
1012.49634	0.47976
1010.56777	0.48124
1008.63921	0.48259
1006.71064	0.48393
1004.78208	0.48576
1002.85352	0.48822
1000.92495	0.49117
998.99639	0.49444
997.06782	0.49815
995.13926	0.50241
993.21069	0.50666
991.28213	0.51019
989.35356	0.51276
987.42500	0.51445
985.49644	0.51554
983.56787	0.51639
981.63931	0.51739
979.71074	0.51877
977.78218	0.52062
975.85361	0.52294
973.92505	0.52566
971.99648	0.52896
970.06792	0.53278
968.13936	0.53671
966.21079	0.54076
964.28223	0.54509
962.35366	0.54958
960.42510	0.55445
958.49653	0.56012
956.56797	0.56636
954.63940	0.57261
952.71084	0.57871
950.78228	0.58490
948.85371	0.59119
946.92515	0.59749
944.99658	0.60396
943.06802	0.61054
941.13945	0.61684
939.21089	0.62248
937.28232	0.62794
935.35376	0.63406
933.42520	0.64056
931.49663	0.64622
929.56807	0.65085
927.63950	0.65570
925.71094	0.66136
923.78237	0.66752
921.85381	0.67428
919.92524	0.68138
917.99668	0.68829
916.06812	0.69547
914.13955	0.70329
912.21099	0.71145
910.28242	0.71956
908.35386	0.72742
906.42529	0.73492
904.49673	0.74218
902.56816	0.75066
900.63960	0.76123
898.71104	0.77231
896.78247	0.78221
894.85391	0.79119
892.92534	0.80057
890.99678	0.81082
889.06821	0.82210
887.13965	0.83472
885.21108	0.84728
883.28252	0.85779
881.35396	0.86745
879.42539	0.87841
877.49683	0.89006
875.56826	0.90215
873.63970	0.91443
871.71113	0.92625
869.78257	0.93837
867.85400	0.95098
865.92544	0.96333
863.99687	0.97399
862.06831	0.98375
860.13975	0.99563
858.21118	1.00833
856.28262	1.01881
854.35405	1.02806
852.42549	1.03790
850.49692	1.04921
848.56836	1.06130
846.63979	1.07232
844.71123	1.08265
842.78267	1.09408
840.85410	1.10710
838.92554	1.12112
836.99697	1.13516
835.06841	1.14474
833.13984	1.14992
831.21128	1.15735
829.28271	1.16589
827.35415	1.17377
825.42559	1.18481
823.49702	1.19862
821.56846	1.21192
819.63989	1.22138
817.71133	1.22268
815.78276	1.21951
813.85420	1.22170
811.92563	1.23275
809.99707	1.24763
808.06851	1.25441
806.13994	1.26054
804.21138	1.28728
802.28281	1.31693
800.35425	1.31244
798.42568	1.29526
796.49712	1.30368
794.56855	1.33473
792.63999	1.34753
790.71143	1.31208
788.78286	1.27066
786.85430	1.26005
784.92573	1.27836
782.99717	1.29175
781.06860	1.24982
779.14004	1.20944
777.21147	1.22277
775.28291	1.23860
773.35435	1.23247
771.42578	1.19943
769.49722	1.13862
767.56865	1.13358
765.64009	1.20063
763.71152	1.25517
761.78296	1.27539
759.85439	1.26875
757.92583	1.18571
755.99727	1.13334
754.06870	1.13732
752.14014	1.05802
750.21157	0.94087
748.28301	0.91250
746.35444	0.97009
744.42588	1.02963
742.49731	1.06079
740.56875	1.03852
738.64019	0.92717
736.71162	0.82239
734.78306	0.75912
732.85449	0.72633
730.92593	0.69279
728.99736	0.62864
727.06880	0.56517
725.14023	0.48006
723.21167	0.34186
721.28311	0.23147
719.35454	0.21583
717.42598	0.25890
715.49741	0.29653
713.56885	0.32711
711.64028	0.32049
709.71172	0.27258
707.78315	0.24437
705.85459	0.18330
703.92603	0.06428
701.99746	-0.02896
700.06890	-0.07464
698.14033	-0.07031
696.21177	-0.01818
694.28320	0.06811
692.35464	0.10918
690.42607	0.07029
688.49751	0.02070
686.56895	0.02748
684.64038	0.07568
682.71182	0.05697
680.78325	0.00060
678.85469	-0.00431
676.92612	0.02504
674.99756	0.10093
673.06899	0.18616
671.14043	0.16800
669.21187	0.08414
667.28330	0.05178
665.35474	0.03608
663.42617	0.00033
661.49761	-0.02597
659.56904	-0.05492
657.64048	-0.04326
655.71191	0.00780
653.78335	0.00969
651.85479	-0.01520
649.92622	-0.00728
647.99766	0.03491
646.06909	0.07701
644.14053	0.09933
642.21196	0.10952
640.28340	0.11704
638.35483	0.12427
636.42627	0.13195
634.49771	0.12778
632.56914	0.11683
630.64058	0.09134
628.71201	0.03002
626.78345	0.00947
624.85488	0.08110
622.92632	0.10416
620.99775	0.06786
619.06919	0.08044
617.14062	0.10289
615.21206	0.08060
613.28350	0.02896
611.35493	0.04411
609.42637	0.14645
607.49780	0.25796
605.56924	0.21766
603.64067	0.11492
601.71211	0.05190
599.78354	0.07214
597.85498	0.14508
595.92642	0.15963
593.99785	0.06744
592.06929	-0.02701
590.14072	-0.03845
588.21216	-0.01191
586.28359	-0.00400
584.35503	0.00089
582.42646	0.02517
580.49790	0.08448
578.56934	0.16526
576.64077	0.23812
574.71221	0.27190
572.78364	0.22885
570.85508	0.14156
568.92651	0.09299
566.99795	0.08891
565.06938	0.07669
563.14082	0.06468
561.21226	0.09365
559.28369	0.10776
557.35513	0.06838
555.42656	0.04407
553.49800	0.07641
551.56943	0.07411
549.64087	0.02793
547.71230	0.01844
545.78374	0.05177
543.85518	0.10736
541.92661	0.19858
539.99805	0.24967
538.06948	0.17921
536.14092	0.05902
534.21235	-0.00278
532.28379	0.04426
530.35522	0.13232
528.42666	0.16641
526.49810	0.17867
524.56953	0.19407
522.64097	0.14470
520.71240	0.07855
518.78384	0.04545
516.85527	0.06150
514.92671	0.13253
512.99814	0.18275
511.06958	0.16371
509.14102	0.11326
507.21245	0.04523
505.28389	-0.00867
503.35532	-0.02263
501.42676	-0.00843
499.49819	0.02442
