3997.91411	0.07316
3995.98555	0.07321
3994.05698	0.07307
3992.12842	0.07295
3990.19985	0.07307
3988.27129	0.07363
3986.34272	0.07469
3984.41416	0.07551
3982.48560	0.07541
3980.55703	0.07510
3978.62847	0.07528
3976.69990	0.07564
3974.77134	0.07580
3972.84277	0.07580
3970.91421	0.07577
3968.98564	0.07598
3967.05708	0.07653
3965.12852	0.07714
3963.19995	0.07735
3961.27139	0.07694
3959.34282	0.07635
3957.41426	0.07606
3955.48569	0.07595
3953.55713	0.07592
3951.62856	0.07618
3949.70000	0.07655
3947.77144	0.07682
3945.84287	0.07721
3943.91431	0.07753
3941.98574	0.07748
3940.05718	0.07715
3938.12861	0.07702
3936.20005	0.07711
3934.27148	0.07719
3932.34292	0.07722
3930.41436	0.07700
3928.48579	0.07659
3926.55723	0.07650
3924.62866	0.07684
3922.70010	0.07703
3920.77153	0.07671
3918.84297	0.07628
3916.91440	0.07607
3914.98584	0.07590
3913.05728	0.07574
3911.12871	0.07584
3909.20015	0.07579
3907.27158	0.07543
3905.34302	0.07532
3903.41445	0.07557
3901.48589	0.07562
3899.55732	0.07558
3897.62876	0.07570
3895.70020	0.07565
3893.77163	0.07555
3891.84307	0.07558
3889.91450	0.07566
3887.98594	0.07566
3886.05737	0.07573
3884.12881	0.07589
3882.20024	0.07619
3880.27168	0.07688
3878.34312	0.07736
3876.41455	0.07733
3874.48599	0.07741
3872.55742	0.07740
3870.62886	0.07694
3868.70029	0.07648
3866.77173	0.07658
3864.84316	0.07730
3862.91460	0.07827
3860.98604	0.07875
3859.05747	0.07871
3857.12891	0.07876
3855.20034	0.07900
3853.27178	0.07953
3851.34321	0.08079
3849.41465	0.08153
3847.48608	0.08150
3845.55752	0.08133
3843.62896	0.08121
3841.70039	0.08143
3839.77183	0.08216
3837.84326	0.08314
3835.91470	0.08388
3833.98613	0.08435
3832.05757	0.08496
3830.12900	0.08563
3828.20044	0.08597
3826.27187	0.08642
3824.34331	0.08737
3822.41475	0.08865
3820.48618	0.09033
3818.55762	0.09139
3816.62905	0.09166
3814.70049	0.09248
3812.77192	0.09345
3810.84336	0.09396
3808.91479	0.09465
3806.98623	0.09610
3805.05767	0.09770
3803.12910	0.09861
3801.20054	0.09951
3799.27197	0.10059
3797.34341	0.10153
3795.41484	0.10291
3793.48628	0.10453
3791.55771	0.10580
3789.62915	0.10677
3787.70059	0.10777
3785.77202	0.10893
3783.84346	0.11019
3781.91489	0.11144
3779.98633	0.11285
3778.05776	0.11478
3776.12920	0.11667
3774.20063	0.11799
3772.27207	0.11923
3770.34351	0.12105
3768.41494	0.12325
3766.48638	0.12486
3764.55781	0.12642
3762.62925	0.12825
3760.70068	0.13001
3758.77212	0.13200
3756.84355	0.13419
3754.91499	0.13618
3752.98643	0.13840
3751.05786	0.14193
3749.12930	0.14656
3747.20073	0.14950
3745.27217	0.15155
3743.34360	0.15497
3741.41504	0.15842
3739.48647	0.16119
3737.55791	0.16423
3735.62935	0.16807
3733.70078	0.17353
3731.77222	0.17929
3729.84365	0.18395
3727.91509	0.18789
3725.98652	0.19226
3724.05796	0.19793
3722.12939	0.20479
3720.20083	0.21217
3718.27227	0.21944
3716.34370	0.22670
3714.41514	0.23408
3712.48657	0.24268
3710.55801	0.25466
3708.62944	0.26850
3706.70088	0.28069
3704.77231	0.29212
3702.84375	0.30485
3700.91519	0.32079
3698.98662	0.33867
3697.05806	0.35620
3695.12949	0.37428
3693.20093	0.39275
3691.27236	0.41248
3689.34380	0.43831
3687.41523	0.47184
3685.48667	0.50291
3683.55811	0.52949
3681.62954	0.55748
3679.70098	0.58864
3677.77241	0.62060
3675.84385	0.65751
3673.91528	0.70731
3671.98672	0.75009
3670.05815	0.78888
3668.12959	0.84061
3666.20103	0.88858
3664.27246	0.92937
3662.34390	0.97270
3660.41533	1.01902
3658.48677	1.06460
3656.55820	1.11303
3654.62964	1.16642
3652.70107	1.21125
3650.77251	1.25024
3648.84395	1.30278
3646.91538	1.36802
3644.98682	1.41950
3643.05825	1.45951
3641.12969	1.49900
3639.20112	1.54243
3637.27256	1.58695
3635.34399	1.63007
3633.41543	1.67263
3631.48687	1.71287
3629.55830	1.75335
3627.62974	1.80470
3625.70117	1.85389
3623.77261	1.88911
3621.84404	1.92284
3619.91548	1.96045
3617.98691	2.00502
3616.05835	2.04852
3614.12979	2.08461
3612.20122	2.12176
3610.27266	2.16023
3608.34409	2.19913
3606.41553	2.24060
3604.48696	2.28102
3602.55840	2.31774
3600.62983	2.35613
3598.70127	2.39705
3596.77271	2.43717
3594.84414	2.47852
3592.91558	2.51986
3590.98701	2.55705
3589.05845	2.59258
3587.12988	2.63540
3585.20132	2.68222
3583.27275	2.72362
3581.34419	2.76333
3579.41562	2.80531
3577.48706	2.84841
3575.55850	2.89109
3573.62993	2.93374
3571.70137	2.97480
3569.77280	3.01465
3567.84424	3.05697
3565.91567	3.10628
3563.98711	3.15462
3562.05854	3.19807
3560.12998	3.24264
3558.20142	3.28869
3556.27285	3.33485
3554.34429	3.37941
3552.41572	3.42409
3550.48716	3.46979
3548.55859	3.51435
3546.63003	3.55829
3544.70146	3.60620
3542.77290	3.65692
3540.84434	3.70674
3538.91577	3.75583
3536.98721	3.80197
3535.05864	3.84651
3533.13008	3.89151
3531.20151	3.93764
3529.27295	3.98318
3527.34438	4.02716
3525.41582	4.07288
3523.48726	4.12289
3521.55869	4.17804
3519.63013	4.23406
3517.70156	4.28434
3515.77300	4.32837
3513.84443	4.37294
3511.91587	4.42245
3509.98730	4.47710
3508.05874	4.53305
3506.13018	4.58166
3504.20161	4.61928
3502.27305	4.65562
3500.34448	4.70374
3498.41592	4.75787
3496.48735	4.80765
3494.55879	4.85860
3492.63022	4.91451
3490.70166	4.96615
3488.77310	5.01138
3486.84453	5.05490
3484.91597	5.09894
3482.98740	5.14612
3481.05884	5.19461
3479.13027	5.24019
3477.20171	5.28725
3475.27314	5.34095
3473.34458	5.39559
3471.41602	5.44250
3469.48745	5.48164
3467.55889	5.51883
3465.63032	5.55674
3463.70176	5.59563
3461.77319	5.64229
3459.84463	5.70484
3457.91606	5.77259
3455.98750	5.83285
3454.05894	5.88522
3452.13037	5.93761
3450.20181	5.99115
3448.27324	6.03549
3446.34468	6.08330
3444.41611	6.14724
3442.48755	6.21893
3440.55898	6.27491
3438.63042	6.29984
3436.70186	6.31941
3434.77329	6.35580
3432.84473	6.40016
3430.91616	6.44738
3428.98760	6.50676
3427.05903	6.58104
3425.13047	6.66545
3423.20190	6.73008
3421.27334	6.75843
3419.34478	6.78383
3417.41621	6.83899
3415.48765	6.90022
3413.55908	6.93482
3411.63052	6.96727
3409.70195	7.00500
3407.77339	7.03605
3405.84482	7.08251
3403.91626	7.16570
3401.98770	7.22573
3400.05913	7.21937
3398.13057	7.21782
3396.20200	7.25686
3394.27344	7.29850
3392.34487	7.32139
3390.41631	7.34957
3388.48774	7.39693
3386.55918	7.45626
3384.63062	7.50511
3382.70205	7.55342
3380.77349	7.60736
3378.84492	7.63310
3376.91636	7.61328
3374.98779	7.59591
3373.05923	7.64468
3371.13066	7.70018
3369.20210	7.73455
3367.27354	7.77446
3365.34497	7.80126
3363.41641	7.82278
3361.48784	7.86205
3359.55928	7.89991
3357.63071	7.90183
3355.70215	7.90325
3353.77358	7.91572
3351.84502	7.95590
3349.91646	8.01265
3347.98789	8.02696
3346.05933	8.01753
3344.13076	8.02665
3342.20220	8.02039
3340.27363	7.97007
3338.34507	7.95946
3336.41650	8.03366
3334.48794	8.15479
3332.55937	8.19801
3330.63081	8.12722
3328.70225	8.06547
3326.77368	8.04721
3324.84512	8.03933
3322.91655	8.05171
3320.98799	8.10248
3319.05942	8.13125
3317.13086	8.12552
3315.20229	8.12854
3313.27373	8.16369
3311.34517	8.19250
3309.41660	8.14011
3307.48804	8.08786
3305.55947	8.13006
3303.63091	8.19335
3301.70234	8.19467
3299.77378	8.20518
3297.84521	8.25901
3295.91665	8.24357
3293.98809	8.11112
3292.05952	8.03007
3290.13096	8.08547
3288.20239	8.19134
3286.27383	8.30087
3284.34526	8.36877
3282.41670	8.36725
3280.48813	8.39376
3278.55957	8.44098
3276.63101	8.37116
3274.70244	8.29090
3272.77388	8.30101
3270.84531	8.27896
3268.91675	8.17595
3266.98818	8.06656
3265.05962	8.02708
3263.13105	8.05563
3261.20249	8.15121
3259.27393	8.27356
3257.34536	8.30125
3255.41680	8.26791
3253.48823	8.24408
3251.55967	8.17880
3249.63110	8.11676
3247.70254	8.15509
3245.77397	8.20577
3243.84541	8.19422
3241.91685	8.18223
3239.98828	8.18202
3238.05972	8.17101
3236.13115	8.15014
3234.20259	8.17150
3232.27402	8.19710
3230.34546	8.16781
3228.41689	8.15329
3226.48833	8.16073
3224.55977	8.13269
3222.63120	8.06490
3220.70264	7.99380
3218.77407	7.90431
3216.84551	7.82999
3214.91694	7.87654
3212.98838	7.97698
3211.05981	7.97369
3209.13125	7.87168
3207.20269	7.80147
3205.27412	7.81901
3203.34556	7.82683
3201.41699	7.78692
3199.48843	7.74841
3197.55986	7.70600
3195.63130	7.65906
3193.70273	7.64424
3191.77417	7.65749
3189.84561	7.65413
3187.91704	7.60645
3185.98848	7.52032
3184.05991	7.44680
3182.13135	7.40612
3180.20278	7.36321
3178.27422	7.31865
3176.34565	7.30974
3174.41709	7.31456
3172.48853	7.27823
3170.55996	7.19975
3168.63140	7.08610
3166.70283	6.96072
3164.77427	6.88547
3162.84570	6.85692
3160.91714	6.81066
3158.98857	6.73473
3157.06001	6.65280
3155.13145	6.57452
3153.20288	6.50664
3151.27432	6.45072
3149.34575	6.39330
3147.41719	6.32343
3145.48862	6.24426
3143.56006	6.16351
3141.63149	6.09165
3139.70293	6.02982
3137.77437	5.97552
3135.84580	5.92262
3133.91724	5.85858
3131.98867	5.77904
3130.06011	5.69644
3128.13154	5.62668
3126.20298	5.56079
3124.27441	5.48145
3122.34585	5.39651
3120.41729	5.32184
3118.48872	5.25394
3116.56016	5.18714
3114.63159	5.12056
3112.70303	5.05183
3110.77446	4.98399
3108.84590	4.91870
3106.91733	4.85515
3104.98877	4.78906
3103.06021	4.71671
3101.13164	4.64119
3099.20308	4.56654
3097.27451	4.49551
3095.34595	4.42970
3093.41738	4.36840
3091.48882	4.30705
3089.56025	4.24415
3087.63169	4.18303
3085.70312	4.12148
3083.77456	4.05618
3081.84600	3.99019
3079.91743	3.92608
3077.98887	3.86451
3076.06030	3.80557
3074.13174	3.74686
3072.20317	3.68731
3070.27461	3.62799
3068.34604	3.56942
3066.41748	3.51226
3064.48892	3.45766
3062.56035	3.40412
3060.63179	3.34875
3058.70322	3.29171
3056.77466	3.23569
3054.84609	3.18317
3052.91753	3.13289
3050.98896	3.08170
3049.06040	3.03009
3047.13184	2.97882
3045.20327	2.92689
3043.27471	2.87583
3041.34614	2.82744
3039.41758	2.78045
3037.48901	2.73312
3035.56045	2.68554
3033.63188	2.63906
3031.70332	2.59377
3029.77476	2.54890
3027.84619	2.50484
3025.91763	2.46141
3023.98906	2.41800
3022.06050	2.37513
3020.13193	2.33313
3018.20337	2.29225
3016.27480	2.25281
3014.34624	2.21409
3012.41768	2.17488
3010.48911	2.13571
3008.56055	2.09819
3006.63198	2.06211
3004.70342	2.02590
3002.77485	1.98943
3000.84629	1.95400
2998.91772	1.91986
2996.98916	1.88648
2995.06060	1.85410
2993.13203	1.82264
2991.20347	1.79151
2989.27490	1.76078
2987.34634	1.73082
2985.41777	1.70130
2983.48921	1.67213
2981.56064	1.64364
2979.63208	1.61582
2977.70352	1.58863
2975.77495	1.56184
2973.84639	1.53515
2971.91782	1.50903
2969.98926	1.48407
2968.06069	1.45978
2966.13213	1.43547
2964.20356	1.41151
2962.27500	1.38817
2960.34644	1.36464
2958.41787	1.34052
2956.48931	1.31633
2954.56074	1.29257
2952.63218	1.26967
2950.70361	1.24770
2948.77505	1.22578
2946.84648	1.20368
2944.91792	1.18250
2942.98936	1.16201
2941.06079	1.14140
2939.13223	1.12162
2937.20366	1.10303
2935.27510	1.08433
2933.34653	1.06487
2931.41797	1.04514
2929.48940	1.02576
2927.56084	1.00748
2925.63228	0.99010
2923.70371	0.97293
2921.77515	0.95588
2919.84658	0.93900
2917.91802	0.92227
2915.98945	0.90537
2914.06089	0.88826
2912.13232	0.87142
2910.20376	0.85552
2908.27520	0.84058
2906.34663	0.82577
2904.41807	0.81091
2902.48950	0.79664
2900.56094	0.78303
2898.63237	0.76977
2896.70381	0.75674
2894.77524	0.74398
2892.84668	0.73170
2890.91812	0.71979
2888.98955	0.70821
2887.06099	0.69718
2885.13242	0.68635
2883.20386	0.67546
2881.27529	0.66495
2879.34673	0.65502
2877.41816	0.64539
2875.48960	0.63558
2873.56104	0.62542
2871.63247	0.61522
2869.70391	0.60500
2867.77534	0.59438
2865.84678	0.58323
2863.91821	0.57203
2861.98965	0.56118
2860.06108	0.55084
2858.13252	0.54107
2856.20396	0.53172
2854.27539	0.52282
2852.34683	0.51433
2850.41826	0.50596
2848.48970	0.49770
2846.56113	0.48945
2844.63257	0.48126
2842.70400	0.47364
2840.77544	0.46659
2838.84687	0.45979
2836.91831	0.45329
2834.98975	0.44723
2833.06118	0.44146
2831.13262	0.43552
2829.20405	0.42923
2827.27549	0.42290
2825.34692	0.41682
2823.41836	0.41087
2821.48979	0.40490
2819.56123	0.39901
2817.63267	0.39309
2815.70410	0.38714
2813.77554	0.38141
2811.84697	0.37604
2809.91841	0.37090
2807.98984	0.36584
2806.06128	0.36080
2804.13271	0.35566
2802.20415	0.35038
2800.27559	0.34526
2798.34702	0.34049
2796.41846	0.33588
2794.48989	0.33134
2792.56133	0.32695
2790.63276	0.32270
2788.70420	0.31838
2786.77563	0.31390
2784.84707	0.30952
2782.91851	0.30529
2780.98994	0.30114
2779.06138	0.29719
2777.13281	0.29335
2775.20425	0.28948
2773.27568	0.28573
2771.34712	0.28211
2769.41855	0.27860
2767.48999	0.27519
2765.56143	0.27172
2763.63286	0.26818
2761.70430	0.26477
2759.77573	0.26144
2757.84717	0.25808
2755.91860	0.25489
2753.99004	0.25207
2752.06147	0.24943
2750.13291	0.24659
2748.20435	0.24364
2746.27578	0.24090
2744.34722	0.23828
2742.41865	0.23565
2740.49009	0.23311
2738.56152	0.23060
2736.63296	0.22804
2734.70439	0.22548
2732.77583	0.22310
2730.84727	0.22088
2728.91870	0.21858
2726.99014	0.21619
2725.06157	0.21384
2723.13301	0.21178
2721.20444	0.21010
2719.27588	0.20846
2717.34731	0.20649
2715.41875	0.20437
2713.49019	0.20247
2711.56162	0.20076
2709.63306	0.19910
2707.70449	0.19743
2705.77593	0.19569
2703.84736	0.19403
2701.91880	0.19262
2699.99023	0.19126
2698.06167	0.18969
2696.13311	0.18794
2694.20454	0.18621
2692.27598	0.18463
2690.34741	0.18340
2688.41885	0.18258
2686.49028	0.18182
2684.56172	0.18068
2682.63315	0.17916
2680.70459	0.17767
2678.77603	0.17651
2676.84746	0.17551
2674.91890	0.17449
2672.99033	0.17341
2671.06177	0.17233
2669.13320	0.17135
2667.20464	0.17033
2665.27607	0.16923
2663.34751	0.16815
2661.41895	0.16720
2659.49038	0.16636
2657.56182	0.16555
2655.63325	0.16485
2653.70469	0.16427
2651.77612	0.16361
2649.84756	0.16281
2647.91899	0.16202
2645.99043	0.16133
2644.06187	0.16075
2642.13330	0.16024
2640.20474	0.15970
2638.27617	0.15916
2636.34761	0.15873
2634.41904	0.15826
2632.49048	0.15776
2630.56191	0.15744
2628.63335	0.15719
2626.70479	0.15686
2624.77622	0.15653
2622.84766	0.15615
2620.91909	0.15568
2618.99053	0.15532
2617.06196	0.15512
2615.13340	0.15494
2613.20483	0.15472
2611.27627	0.15458
2609.34771	0.15460
2607.41914	0.15464
2605.49058	0.15460
2603.56201	0.15455
2601.63345	0.15465
2599.70488	0.15485
2597.77632	0.15493
2595.84775	0.15483
2593.91919	0.15476
2591.99062	0.15484
2590.06206	0.15491
2588.13350	0.15488
2586.20493	0.15487
2584.27637	0.15495
2582.34780	0.15511
2580.41924	0.15542
2578.49067	0.15577
2576.56211	0.15608
2574.63354	0.15646
2572.70498	0.15684
2570.77642	0.15710
2568.84785	0.15738
2566.91929	0.15786
2564.99072	0.15841
2563.06216	0.15887
2561.13359	0.15929
2559.20503	0.15977
2557.27646	0.16027
2555.34790	0.16071
2553.41934	0.16104
2551.49077	0.16137
2549.56221	0.16187
2547.63364	0.16254
2545.70508	0.16329
2543.77651	0.16401
2541.84795	0.16459
2539.91938	0.16501
2537.99082	0.16555
2536.06226	0.16635
2534.13369	0.16713
2532.20513	0.16774
2530.27656	0.16829
2528.34800	0.16887
2526.41943	0.16951
2524.49087	0.17023
2522.56230	0.17098
2520.63374	0.17168
2518.70518	0.17236
2516.77661	0.17313
2514.84805	0.17406
2512.91948	0.17508
2510.99092	0.17582
2509.06235	0.17635
2507.13379	0.17716
2505.20522	0.17813
2503.27666	0.17892
2501.34810	0.17967
2499.41953	0.18048
2497.49097	0.18130
2495.56240	0.18209
2493.63384	0.18282
2491.70527	0.18349
2489.77671	0.18423
2487.84814	0.18514
2485.91958	0.18609
2483.99102	0.18694
2482.06245	0.18785
2480.13389	0.18878
2478.20532	0.18958
2476.27676	0.19035
2474.34819	0.19122
2472.41963	0.19213
2470.49106	0.19308
2468.56250	0.19410
2466.63394	0.19508
2464.70537	0.19596
2462.77681	0.19679
2460.84824	0.19765
2458.91968	0.19856
2456.99111	0.19954
2455.06255	0.20059
2453.13398	0.20161
2451.20542	0.20261
2449.27686	0.20356
2447.34829	0.20452
2445.41973	0.20553
2443.49116	0.20650
2441.56260	0.20735
2439.63403	0.20825
2437.70547	0.20938
2435.77690	0.21048
2433.84834	0.21132
2431.91978	0.21219
2429.99121	0.21327
2428.06265	0.21436
2426.13408	0.21546
2424.20552	0.21669
2422.27695	0.21791
2420.34839	0.21901
2418.41982	0.22007
2416.49126	0.22115
2414.56270	0.22219
2412.63413	0.22312
2410.70557	0.22417
2408.77700	0.22542
2406.84844	0.22660
2404.91987	0.22777
2402.99131	0.22902
2401.06274	0.23023
2399.13418	0.23139
2397.20562	0.23258
2395.27705	0.23382
2393.34849	0.23511
2391.41992	0.23642
2389.49136	0.23772
2387.56279	0.23908
2385.63423	0.24045
2383.70566	0.24185
2381.77710	0.24353
2379.84854	0.24553
2377.91997	0.24765
2375.99141	0.24982
2374.06284	0.25214
2372.13428	0.25490
2370.20571	0.25814
2368.27715	0.26111
2366.34858	0.26379
2364.42002	0.26686
2362.49146	0.26988
2360.56289	0.27210
2358.63433	0.27360
2356.70576	0.27470
2354.77720	0.27532
2352.84863	0.27513
2350.92007	0.27435
2348.99150	0.27400
2347.06294	0.27463
2345.13437	0.27665
2343.20581	0.27983
2341.27725	0.28266
2339.34868	0.28491
2337.42012	0.28700
2335.49155	0.28826
2333.56299	0.28870
2331.63442	0.28954
2329.70586	0.29103
2327.77729	0.29252
2325.84873	0.29357
2323.92017	0.29440
2321.99160	0.29534
2320.06304	0.29625
2318.13447	0.29721
2316.20591	0.29836
2314.27734	0.29978
2312.34878	0.30154
2310.42021	0.30347
2308.49165	0.30511
2306.56309	0.30637
2304.63452	0.30757
2302.70596	0.30901
2300.77739	0.31058
2298.84883	0.31221
2296.92026	0.31397
2294.99170	0.31569
2293.06313	0.31729
2291.13457	0.31902
2289.20601	0.32091
2287.27744	0.32280
2285.34888	0.32466
2283.42031	0.32652
2281.49175	0.32844
2279.56318	0.33056
2277.63462	0.33271
2275.70605	0.33481
2273.77749	0.33698
2271.84893	0.33911
2269.92036	0.34111
2267.99180	0.34314
2266.06323	0.34522
2264.13467	0.34724
2262.20610	0.34921
2260.27754	0.35117
2258.34897	0.35319
2256.42041	0.35540
2254.49185	0.35776
2252.56328	0.36002
2250.63472	0.36210
2248.70615	0.36421
2246.77759	0.36643
2244.84902	0.36859
2242.92046	0.37063
2240.99189	0.37275
2239.06333	0.37511
2237.13477	0.37749
2235.20620	0.37968
2233.27764	0.38181
2231.34907	0.38405
2229.42051	0.38630
2227.49194	0.38841
2225.56338	0.39052
2223.63481	0.39273
2221.70625	0.39496
2219.77769	0.39732
2217.84912	0.39968
2215.92056	0.40181
2213.99199	0.40390
2212.06343	0.40612
2210.13486	0.40819
2208.20630	0.41010
2206.27773	0.41217
2204.34917	0.41437
2202.42061	0.41655
2200.49204	0.41872
2198.56348	0.42083
2196.63491	0.42283
2194.70635	0.42468
2192.77778	0.42639
2190.84922	0.42817
2188.92065	0.43005
2186.99209	0.43187
2185.06353	0.43356
2183.13496	0.43521
2181.20640	0.43684
2179.27783	0.43844
2177.34927	0.44007
2175.42070	0.44165
2173.49214	0.44315
2171.56357	0.44469
2169.63501	0.44631
2167.70645	0.44788
2165.77788	0.44912
2163.84932	0.45009
2161.92075	0.45109
2159.99219	0.45212
2158.06362	0.45298
2156.13506	0.45378
2154.20649	0.45464
2152.27793	0.45547
2150.34937	0.45617
2148.42080	0.45672
2146.49224	0.45722
2144.56367	0.45768
2142.63511	0.45810
2140.70654	0.45843
2138.77798	0.45866
2136.84941	0.45882
2134.92085	0.45898
2132.99229	0.45901
2131.06372	0.45881
2129.13516	0.45849
2127.20659	0.45823
2125.27803	0.45801
2123.34946	0.45764
2121.42090	0.45721
2119.49233	0.45672
2117.56377	0.45599
2115.63521	0.45513
2113.70664	0.45432
2111.77808	0.45346
2109.84951	0.45235
2107.92095	0.45105
2105.99238	0.44976
2104.06382	0.44853
2102.13525	0.44730
2100.20669	0.44603
2098.27812	0.44477
2096.34956	0.44330
2094.42100	0.44147
2092.49243	0.43960
2090.56387	0.43797
2088.63530	0.43636
2086.70674	0.43454
2084.77817	0.43254
2082.84961	0.43057
2080.92104	0.42859
2078.99248	0.42654
2077.06392	0.42447
2075.13535	0.42240
2073.20679	0.42013
2071.27822	0.41773
2069.34966	0.41540
2067.42109	0.41315
2065.49253	0.41085
2063.56396	0.40847
2061.63540	0.40607
2059.70684	0.40352
2057.77827	0.40093
2055.84971	0.39843
2053.92114	0.39581
2051.99258	0.39308
2050.06401	0.39043
2048.13545	0.38788
2046.20688	0.38527
2044.27832	0.38258
2042.34976	0.37978
2040.42119	0.37696
2038.49263	0.37416
2036.56406	0.37142
2034.63550	0.36878
2032.70693	0.36611
2030.77837	0.36336
2028.84980	0.36052
2026.92124	0.35755
2024.99268	0.35458
2023.06411	0.35184
2021.13555	0.34916
2019.20698	0.34640
2017.27842	0.34363
2015.34985	0.34093
2013.42129	0.33822
2011.49272	0.33549
2009.56416	0.33286
2007.63560	0.33032
2005.70703	0.32761
2003.77847	0.32479
2001.84990	0.32208
1999.92134	0.31940
1997.99277	0.31675
1996.06421	0.31427
1994.13564	0.31184
1992.20708	0.30933
1990.27852	0.30675
1988.34995	0.30422
1986.42139	0.30174
1984.49282	0.29931
1982.56426	0.29697
1980.63569	0.29468
1978.70713	0.29240
1976.77856	0.29011
1974.85000	0.28793
1972.92144	0.28591
1970.99287	0.28385
1969.06431	0.28172
1967.13574	0.27965
1965.20718	0.27763
1963.27861	0.27565
1961.35005	0.27374
1959.42148	0.27195
1957.49292	0.27024
1955.56436	0.26848
1953.63579	0.26669
1951.70723	0.26491
1949.77866	0.26314
1947.85010	0.26144
1945.92153	0.25994
1943.99297	0.25856
1942.06440	0.25712
1940.13584	0.25576
1938.20728	0.25450
1936.27871	0.25314
1934.35015	0.25172
1932.42158	0.25041
1930.49302	0.24919
1928.56445	0.24809
1926.63589	0.24702
1924.70732	0.24598
1922.77876	0.24494
1920.85020	0.24395
1918.92163	0.24313
1916.99307	0.24242
1915.06450	0.24167
1913.13594	0.24091
1911.20737	0.24017
1909.27881	0.23938
1907.35024	0.23872
1905.42168	0.23813
1903.49312	0.23746
1901.56455	0.23691
1899.63599	0.23654
1897.70742	0.23624
1895.77886	0.23591
1893.85029	0.23559
1891.92173	0.23516
1889.99316	0.23477
1888.06460	0.23455
1886.13604	0.23438
1884.20747	0.23417
1882.27891	0.23403
1880.35034	0.23398
1878.42178	0.23389
1876.49321	0.23386
1874.56465	0.23383
1872.63608	0.23374
1870.70752	0.23363
1868.77896	0.23379
1866.85039	0.23416
1864.92183	0.23443
1862.99326	0.23466
1861.06470	0.23506
1859.13613	0.23565
1857.20757	0.23613
1855.27900	0.23652
1853.35044	0.23693
1851.42187	0.23737
1849.49331	0.23783
1847.56475	0.23839
1845.63618	0.23914
1843.70762	0.24013
1841.77905	0.24105
1839.85049	0.24159
1837.92192	0.24224
1835.99336	0.24310
1834.06479	0.24411
1832.13623	0.24513
1830.20767	0.24638
1828.27910	0.24780
1826.35054	0.24896
1824.42197	0.25027
1822.49341	0.25165
1820.56484	0.25302
1818.63628	0.25445
1816.70771	0.25607
1814.77915	0.25769
1812.85059	0.25939
1810.92202	0.26133
1808.99346	0.26338
1807.06489	0.26545
1805.13633	0.26746
1803.20776	0.26963
1801.27920	0.27202
1799.35063	0.27472
1797.42207	0.27720
1795.49351	0.27949
1793.56494	0.28208
1791.63638	0.28554
1789.70781	0.28924
1787.77925	0.29233
1785.85068	0.29568
1783.92212	0.29927
1781.99355	0.30302
1780.06499	0.30720
1778.13643	0.31156
1776.20786	0.31546
1774.27930	0.31938
1772.35073	0.32473
1770.42217	0.33109
1768.49360	0.33686
1766.56504	0.34231
1764.63647	0.34772
1762.70791	0.35351
1760.77935	0.36075
1758.85078	0.36772
1756.92222	0.37490
1754.99365	0.38291
1753.06509	0.39014
1751.13652	0.39821
1749.20796	0.40814
1747.27939	0.41860
1745.35083	0.42836
1743.42227	0.43832
1741.49370	0.44888
1739.56514	0.46128
1737.63657	0.47388
1735.70801	0.48488
1733.77944	0.50083
1731.85088	0.52006
1729.92231	0.53588
1727.99375	0.55191
1726.06519	0.56911
1724.13662	0.58771
1722.20806	0.60756
1720.27949	0.62580
1718.35093	0.64679
1716.42236	0.67749
1714.49380	0.70760
1712.56523	0.73287
1710.63667	0.75744
1708.70811	0.78353
1706.77954	0.81273
1704.85098	0.84741
1702.92241	0.87875
1700.99385	0.91001
1699.06528	0.95563
1697.13672	0.99766
1695.20815	1.04149
1693.27959	1.08527
1691.35103	1.12080
1689.42246	1.16063
1687.49390	1.20226
1685.56533	1.24296
1683.63677	1.30482
1681.70820	1.36945
1679.77964	1.41235
1677.85107	1.45275
1675.92251	1.49847
1673.99395	1.55436
1672.06538	1.60430
1670.13682	1.65347
1668.20825	1.71754
1666.27969	1.77106
1664.35112	1.81658
1662.42256	1.87249
1660.49399	1.93505
1658.56543	1.98466
1656.63687	2.02458
1654.70830	2.06016
1652.77974	2.11336
1650.85117	2.16489
1648.92261	2.18507
1646.99404	2.20992
1645.06548	2.23929
1643.13691	2.25963
1641.20835	2.27033
1639.27979	2.27808
1637.35122	2.28238
1635.42266	2.28240
1633.49409	2.27606
1631.56553	2.26269
1629.63696	2.24441
1627.70840	2.21492
1625.77983	2.18121
1623.85127	2.13959
1621.92271	2.08955
1619.99414	2.04523
1618.06558	2.00167
1616.13701	1.94025
1614.20845	1.87751
1612.27988	1.82897
1610.35132	1.77859
1608.42275	1.72428
1606.49419	1.67112
1604.56562	1.62256
1602.63706	1.57594
1600.70850	1.53032
1598.77993	1.48783
1596.85137	1.44747
1594.92280	1.40817
1592.99424	1.37016
1591.06567	1.33557
1589.13711	1.30346
1587.20854	1.27334
1585.27998	1.24523
1583.35142	1.21901
1581.42285	1.19510
1579.49429	1.17443
1577.56572	1.15552
1575.63716	1.13305
1573.70859	1.11358
1571.78003	1.10054
1569.85146	1.08709
1567.92290	1.07313
1565.99434	1.06294
1564.06577	1.05488
1562.13721	1.04837
1560.20864	1.04337
1558.28008	1.03814
1556.35151	1.03563
1554.42295	1.03449
1552.49438	1.03269
1550.56582	1.02919
1548.63726	1.02352
1546.70869	1.01624
1544.78013	1.00667
1542.85156	0.99438
1540.92300	0.97776
1538.99443	0.95441
1537.06587	0.93743
1535.13730	0.92538
1533.20874	0.90951
1531.28018	0.89251
1529.35161	0.87960
1527.42305	0.86714
1525.49448	0.85435
1523.56592	0.84343
1521.63735	0.83301
1519.70879	0.82306
1517.78022	0.81487
1515.85166	0.80540
1513.92310	0.79536
1511.99453	0.78633
1510.06597	0.77778
1508.13740	0.76927
1506.20884	0.75764
1504.28027	0.74803
1502.35171	0.74245
1500.42314	0.73727
1498.49458	0.73139
1496.56602	0.72486
1494.63745	0.71904
1492.70889	0.71446
1490.78032	0.71014
1488.85176	0.70548
1486.92319	0.70153
1484.99463	0.69850
1483.06606	0.69605
1481.13750	0.69408
1479.20894	0.69271
1477.28037	0.69184
1475.35181	0.69117
1473.42324	0.69084
1471.49468	0.69043
1469.56611	0.68918
1467.63755	0.68736
1465.70898	0.68544
1463.78042	0.68380
1461.85186	0.68281
1459.92329	0.68216
1457.99473	0.68131
1456.06616	0.67987
1454.13760	0.67767
1452.20903	0.67514
1450.28047	0.67243
1448.35190	0.66950
1446.42334	0.66641
1444.49478	0.66376
1442.56621	0.66149
1440.63765	0.65905
1438.70908	0.65627
1436.78052	0.65291
1434.85195	0.64959
1432.92339	0.64715
1430.99482	0.64528
1429.06626	0.64389
1427.13770	0.64311
1425.20913	0.64298
1423.28057	0.64337
1421.35200	0.64357
1419.42344	0.64315
1417.49487	0.64236
1415.56631	0.64140
1413.63774	0.64045
1411.70918	0.63975
1409.78062	0.63960
1407.85205	0.63991
1405.92349	0.64040
1403.99492	0.64075
1402.06636	0.64042
1400.13779	0.63931
1398.20923	0.63745
1396.28066	0.63502
1394.35210	0.63216
1392.42354	0.62907
1390.49497	0.62596
1388.56641	0.62261
1386.63784	0.61884
1384.70928	0.61507
1382.78071	0.61156
1380.85215	0.60837
1378.92358	0.60573
1376.99502	0.60360
1375.06646	0.60195
1373.13789	0.60090
1371.20933	0.60021
1369.28076	0.59953
1367.35220	0.59864
1365.42363	0.59740
1363.49507	0.59580
1361.56650	0.59409
1359.63794	0.59265
1357.70937	0.59151
1355.78081	0.59046
1353.85225	0.58935
1351.92368	0.58818
1349.99512	0.58710
1348.06655	0.58622
1346.13799	0.58538
1344.20942	0.58441
1342.28086	0.58341
1340.35229	0.58250
1338.42373	0.58165
1336.49517	0.58089
1334.56660	0.58026
1332.63804	0.57988
1330.70947	0.57974
1328.78091	0.57972
1326.85234	0.57980
1324.92378	0.58004
1322.99521	0.58036
1321.06665	0.58071
1319.13809	0.58111
1317.20952	0.58128
1315.28096	0.58093
1313.35239	0.58021
1311.42383	0.57934
1309.49526	0.57848
1307.56670	0.57770
1305.63813	0.57700
1303.70957	0.57625
1301.78101	0.57540
1299.85244	0.57443
1297.92388	0.57343
1295.99531	0.57247
1294.06675	0.57139
1292.13818	0.57004
1290.20962	0.56871
1288.28105	0.56770
1286.35249	0.56690
1284.42393	0.56604
1282.49536	0.56492
1280.56680	0.56364
1278.63823	0.56240
1276.70967	0.56125
1274.78110	0.56023
1272.85254	0.55947
1270.92397	0.55898
1268.99541	0.55855
1267.06685	0.55794
1265.13828	0.55704
1263.20972	0.55596
1261.28115	0.55491
1259.35259	0.55425
1257.42402	0.55402
1255.49546	0.55383
1253.56689	0.55356
1251.63833	0.55335
1249.70977	0.55315
1247.78120	0.55284
1245.85264	0.55247
1243.92407	0.55195
1241.99551	0.55107
1240.06694	0.54975
1238.13838	0.54812
1236.20981	0.54643
1234.28125	0.54477
1232.35269	0.54306
1230.42412	0.54137
1228.49556	0.53972
1226.56699	0.53808
1224.63843	0.53648
1222.70986	0.53496
1220.78130	0.53349
1218.85273	0.53206
1216.92417	0.53075
1214.99561	0.52965
1213.06704	0.52887
1211.13848	0.52831
1209.20991	0.52766
1207.28135	0.52692
1205.35278	0.52622
1203.42422	0.52555
1201.49565	0.52472
1199.56709	0.52372
1197.63853	0.52286
1195.70996	0.52225
1193.78140	0.52175
1191.85283	0.52125
1189.92427	0.52070
1187.99570	0.52024
1186.06714	0.51995
1184.13857	0.51989
1182.21001	0.52031
1180.28145	0.52115
1178.35288	0.52218
1176.42432	0.52337
1174.49575	0.52453
1172.56719	0.52549
1170.63862	0.52627
1168.71006	0.52695
1166.78149	0.52758
1164.85293	0.52822
1162.92437	0.52883
1160.99580	0.52933
1159.06724	0.52950
1157.13867	0.52926
1155.21011	0.52875
1153.28154	0.52790
1151.35298	0.52636
1149.42441	0.52413
1147.49585	0.52166
1145.56729	0.51927
1143.63872	0.51677
1141.71016	0.51399
1139.78159	0.51150
1137.85303	0.50992
1135.92446	0.50910
1133.99590	0.50877
1132.06733	0.50865
1130.13877	0.50844
1128.21021	0.50811
1126.28164	0.50775
1124.35308	0.50743
1122.42451	0.50717
1120.49595	0.50697
1118.56738	0.50690
1116.63882	0.50696
1114.71025	0.50713
1112.78169	0.50772
1110.85312	0.50876
1108.92456	0.50969
1106.99600	0.51047
1105.06743	0.51131
1103.13887	0.51194
1101.21030	0.51246
1099.28174	0.51347
1097.35317	0.51522
1095.42461	0.51777
1093.49604	0.52122
1091.56748	0.52597
1089.63892	0.53246
1087.71035	0.54048
1085.78179	0.54937
1083.85322	0.55859
1081.92466	0.56692
1079.99609	0.57275
1078.06753	0.57536
1076.13896	0.57488
1074.21040	0.57157
1072.28184	0.56570
1070.35327	0.55832
1068.42471	0.55095
1066.49614	0.54424
1064.56758	0.53817
1062.63901	0.53264
1060.71045	0.52770
1058.78188	0.52351
1056.85332	0.51989
1054.92476	0.51651
1052.99619	0.51343
1051.06763	0.51110
1049.13906	0.50968
1047.21050	0.50899
1045.28193	0.50895
1043.35337	0.50938
1041.42480	0.51007
1039.49624	0.51074
1037.56768	0.51105
1035.63911	0.51098
1033.71055	0.51038
1031.78198	0.50915
1029.85342	0.50737
1027.92485	0.50543
1025.99629	0.50383
1024.06772	0.50254
1022.13916	0.50141
1020.21060	0.50070
1018.28203	0.50041
1016.35347	0.50008
1014.42490	0.49959
1012.49634	0.49911
1010.56777	0.49878
1008.63921	0.49851
1006.71064	0.49846
1004.78208	0.49916
1002.85352	0.50083
1000.92495	0.50322
998.99639	0.50630
997.06782	0.51028
995.13926	0.51492
993.21069	0.51932
991.28213	0.52261
989.35356	0.52449
987.42500	0.52511
985.49644	0.52489
983.56787	0.52456
981.63931	0.52485
979.71074	0.52579
977.78218	0.52697
975.85361	0.52866
973.92505	0.53114
971.99648	0.53408
970.06792	0.53724
968.13936	0.54073
966.21079	0.54470
964.28223	0.54911
962.35366	0.55370
960.42510	0.55847
958.49653	0.56390
956.56797	0.57007
954.63940	0.57650
952.71084	0.58292
950.78228	0.58920
948.85371	0.59526
946.92515	0.60143
944.99658	0.60804
943.06802	0.61476
941.13945	0.62083
939.21089	0.62599
937.28232	0.63114
935.35376	0.63696
933.42520	0.64305
931.49663	0.64935
929.56807	0.65556
927.63950	0.66111
925.71094	0.66643
923.78237	0.67241
921.85381	0.67942
919.92524	0.68699
917.99668	0.69422
916.06812	0.70123
914.13955	0.70861
912.21099	0.71594
910.28242	0.72323
908.35386	0.73132
906.42529	0.74038
904.49673	0.74970
902.56816	0.75859
900.63960	0.76731
898.71104	0.77637
896.78247	0.78609
894.85391	0.79652
892.92534	0.80705
890.99678	0.81773
889.06821	0.82919
887.13965	0.84016
885.21108	0.85022
883.28252	0.86158
881.35396	0.87424
879.42539	0.88672
877.49683	0.89898
875.56826	0.91081
873.63970	0.92157
871.71113	0.93239
869.78257	0.94318
867.85400	0.95185
865.92544	0.96055
863.99687	0.97220
862.06831	0.98523
860.13975	0.99834
858.21118	1.01105
856.28262	1.02273
854.35405	1.03484
852.42549	1.04748
850.49692	1.05854
848.56836	1.06930
846.63979	1.08297
844.71123	1.09802
842.78267	1.10976
840.85410	1.11744
838.92554	1.12445
836.99697	1.13431
835.06841	1.14627
833.13984	1.15683
831.21128	1.16775
829.28271	1.18420
827.35415	1.20286
825.42559	1.21277
823.49702	1.21802
821.56846	1.22807
819.63989	1.23743
817.71133	1.24841
815.78276	1.26394
813.85420	1.26851
811.92563	1.26580
809.99707	1.28152
808.06851	1.31620
806.13994	1.34226
804.21138	1.34722
802.28281	1.34619
800.35425	1.34691
798.42568	1.33856
796.49712	1.31478
794.56855	1.29019
792.63999	1.27892
790.71143	1.29476
788.78286	1.34261
786.85430	1.38282
784.92573	1.38252
782.99717	1.36459
781.06860	1.35245
779.14004	1.35623
777.21147	1.36744
775.28291	1.35587
773.35435	1.33983
771.42578	1.35360
769.49722	1.36823
767.56865	1.36418
765.64009	1.34036
763.71152	1.32235
761.78296	1.31405
759.85439	1.27169
757.92583	1.24808
755.99727	1.29908
754.06870	1.40924
752.14014	1.48324
750.21157	1.38627
748.28301	1.20555
746.35444	1.06805
744.42588	1.03203
742.49731	1.09556
740.56875	1.19087
738.64019	1.11658
736.71162	0.89021
734.78306	0.77433
732.85449	0.83225
730.92593	0.98517
728.99736	0.91193
727.06880	0.69238
725.14023	0.57771
723.21167	0.56610
721.28311	0.55182
719.35454	0.46212
717.42598	0.39336
715.49741	0.41913
713.56885	0.54819
711.64028	0.52853
709.71172	0.40046
707.78315	0.36072
705.85459	0.28900
703.92603	0.21740
701.99746	0.22531
700.06890	0.20912
698.14033	0.19785
696.21177	0.26068
694.28320	0.40080
692.35464	0.58377
690.42607	0.61433
688.49751	0.42088
686.56895	0.26950
684.64038	0.20247
682.71182	0.16683
680.78325	0.20213
678.85469	0.34439
676.92612	0.39727
674.99756	0.30776
673.06899	0.23347
671.14043	0.17197
669.21187	0.13662
667.28330	0.19500
665.35474	0.29735
663.42617	0.29100
661.49761	0.19047
659.56904	0.13437
657.64048	0.26345
655.71191	0.60310
653.78335	0.60218
651.85479	0.28776
649.92622	0.11408
647.99766	0.10855
646.06909	0.17321
644.14053	0.18854
642.21196	0.17345
640.28340	0.20064
638.35483	0.28990
636.42627	0.34658
634.49771	0.29266
632.56914	0.24447
630.64058	0.34752
628.71201	0.59370
626.78345	0.45025
624.85488	0.31197
622.92632	0.40738
620.99775	0.62222
619.06919	0.45821
617.14062	0.23498
615.21206	0.11415
613.28350	0.13442
611.35493	0.29859
609.42637	0.48576
607.49780	0.48032
605.56924	0.35499
603.64067	0.24035
601.71211	0.16199
599.78354	0.19870
597.85498	0.31940
595.92642	0.37314
593.99785	0.33408
592.06929	0.25114
590.14072	0.20536
588.21216	0.19835
586.28359	0.17754
584.35503	0.16484
582.42646	0.18364
580.49790	0.23555
578.56934	0.27504
576.64077	0.24834
574.71221	0.22423
572.78364	0.30724
570.85508	0.52429
568.92651	0.65356
566.99795	0.54370
565.06938	0.53083
563.14082	0.56586
561.21226	0.50553
559.28369	0.38734
557.35513	0.25811
555.42656	0.19561
553.49800	0.23364
551.56943	0.29142
549.64087	0.29720
547.71230	0.22930
545.78374	0.16275
543.85518	0.12836
541.92661	0.12988
539.99805	0.16974
538.06948	0.21754
536.14092	0.21830
534.21235	0.16231
532.28379	0.13114
530.35522	0.13554
528.42666	0.16006
526.49810	0.21046
524.56953	0.21593
522.64097	0.19355
520.71240	0.21759
518.78384	0.25487
516.85527	0.25485
514.92671	0.22393
512.99814	0.19738
511.06958	0.22240
509.14102	0.30767
507.21245	0.40618
505.28389	0.29696
503.35532	0.18687
501.42676	0.20517
499.49819	0.31724
