3997.91411	0.07713
3995.98555	0.07760
3994.05698	0.07813
3992.12842	0.07837
3990.19985	0.07863
3988.27129	0.07911
3986.34272	0.07940
3984.41416	0.07954
3982.48560	0.07993
3980.55703	0.08047
3978.62847	0.08072
3976.69990	0.08083
3974.77134	0.08108
3972.84277	0.08105
3970.91421	0.08062
3968.98564	0.08035
3967.05708	0.08050
3965.12852	0.08096
3963.19995	0.08144
3961.27139	0.08180
3959.34282	0.08188
3957.41426	0.08144
3955.48569	0.08074
3953.55713	0.08062
3951.62856	0.08141
3949.70000	0.08255
3947.77144	0.08315
3945.84287	0.08292
3943.91431	0.08297
3941.98574	0.08366
3940.05718	0.08339
3938.12861	0.08224
3936.20005	0.08167
3934.27148	0.08219
3932.34292	0.08337
3930.41436	0.08396
3928.48579	0.08323
3926.55723	0.08264
3924.62866	0.08304
3922.70010	0.08318
3920.77153	0.08256
3918.84297	0.08219
3916.91440	0.08251
3914.98584	0.08264
3913.05728	0.08171
3911.12871	0.08056
3909.20015	0.08025
3907.27158	0.08103
3905.34302	0.08305
3903.41445	0.08605
3901.48589	0.08806
3899.55732	0.08751
3897.62876	0.08513
3895.70020	0.08285
3893.77163	0.08203
3891.84307	0.08273
3889.91450	0.08349
3887.98594	0.08334
3886.05737	0.08385
3884.12881	0.08495
3882.20024	0.08508
3880.27168	0.08486
3878.34312	0.08410
3876.41455	0.08331
3874.48599	0.08426
3872.55742	0.08631
3870.62886	0.08806
3868.70029	0.08878
3866.77173	0.08812
3864.84316	0.08804
3862.91460	0.08842
3860.98604	0.08725
3859.05747	0.08591
3857.12891	0.08630
3855.20034	0.08860
3853.27178	0.09249
3851.34321	0.09388
3849.41465	0.09095
3847.48608	0.08846
3845.55752	0.08802
3843.62896	0.08949
3841.70039	0.09206
3839.77183	0.09496
3837.84326	0.09742
3835.91470	0.09799
3833.98613	0.09700
3832.05757	0.09578
3830.12900	0.09488
3828.20044	0.09475
3826.27187	0.09566
3824.34331	0.09700
3822.41475	0.09895
3820.48618	0.10206
3818.55762	0.10294
3816.62905	0.10157
3814.70049	0.10087
3812.77192	0.10021
3810.84336	0.09964
3808.91479	0.10061
3806.98623	0.10330
3805.05767	0.10589
3803.12910	0.10801
3801.20054	0.11064
3799.27197	0.11167
3797.34341	0.11122
3795.41484	0.11102
3793.48628	0.11023
3791.55771	0.10974
3789.62915	0.11058
3787.70059	0.11229
3785.77202	0.11445
3783.84346	0.11646
3781.91489	0.11779
3779.98633	0.11933
3778.05776	0.12144
3776.12920	0.12270
3774.20063	0.12338
3772.27207	0.12491
3770.34351	0.12796
3768.41494	0.13153
3766.48638	0.13378
3764.55781	0.13484
3762.62925	0.13554
3760.70068	0.13749
3758.77212	0.14120
3756.84355	0.14453
3754.91499	0.14686
3752.98643	0.15043
3751.05786	0.15648
3749.12930	0.16176
3747.20073	0.16319
3745.27217	0.16464
3743.34360	0.16783
3741.41504	0.17010
3739.48647	0.17202
3737.55791	0.17624
3735.62935	0.18364
3733.70078	0.19128
3731.77222	0.19484
3729.84365	0.19634
3727.91509	0.19917
3725.98652	0.20463
3724.05796	0.21107
3722.12939	0.21661
3720.20083	0.22217
3718.27227	0.22812
3716.34370	0.23441
3714.41514	0.24203
3712.48657	0.25313
3710.55801	0.26828
3708.62944	0.28167
3706.70088	0.29106
3704.77231	0.30066
3702.84375	0.31321
3700.91519	0.32954
3698.98662	0.34687
3697.05806	0.36371
3695.12949	0.38190
3693.20093	0.40147
3691.27236	0.42377
3689.34380	0.45255
3687.41523	0.48540
3685.48667	0.51317
3683.55811	0.53771
3681.62954	0.56489
3679.70098	0.59621
3677.77241	0.63000
3675.84385	0.67048
3673.91528	0.72247
3671.98672	0.76389
3670.05815	0.80158
3668.12959	0.85244
3666.20103	0.89781
3664.27246	0.93623
3662.34390	0.97893
3660.41533	1.02575
3658.48677	1.07210
3656.55820	1.12128
3654.62964	1.17485
3652.70107	1.22006
3650.77251	1.26149
3648.84395	1.31862
3646.91538	1.38408
3644.98682	1.43044
3643.05825	1.46725
3641.12969	1.50656
3639.20112	1.55109
3637.27256	1.59635
3635.34399	1.63994
3633.41543	1.68324
3631.48687	1.72417
3629.55830	1.76615
3627.62974	1.81988
3625.70117	1.86861
3623.77261	1.90172
3621.84404	1.93441
3619.91548	1.97283
3617.98691	2.01933
3616.05835	2.06343
3614.12979	2.09954
3612.20122	2.13683
3610.27266	2.17514
3608.34409	2.21541
3606.41553	2.25784
3604.48696	2.29640
3602.55840	2.33181
3600.62983	2.37099
3598.70127	2.41298
3596.77271	2.45278
3594.84414	2.49264
3592.91558	2.53375
3590.98701	2.57225
3589.05845	2.60884
3587.12988	2.65405
3585.20132	2.70348
3583.27275	2.74363
3581.34419	2.78030
3579.41562	2.82066
3577.48706	2.86397
3575.55850	2.90699
3573.62993	2.95026
3571.70137	2.99356
3569.77280	3.03566
3567.84424	3.07890
3565.91567	3.13002
3563.98711	3.17940
3562.05854	3.21994
3560.12998	3.26167
3558.20142	3.30658
3556.27285	3.35062
3554.34429	3.39424
3552.41572	3.44245
3550.48716	3.49108
3548.55859	3.53518
3546.63003	3.58052
3544.70146	3.62895
3542.77290	3.67447
3540.84434	3.72002
3538.91577	3.77144
3536.98721	3.82428
3535.05864	3.87410
3533.13008	3.92242
3531.20151	3.97276
3529.27295	4.02273
3527.34438	4.06965
3525.41582	4.11466
3523.48726	4.16174
3521.55869	4.21217
3519.63013	4.26126
3517.70156	4.30931
3515.77300	4.35624
3513.84443	4.40231
3511.91587	4.45071
3509.98730	4.50067
3508.05874	4.54701
3506.13018	4.59080
3504.20161	4.63934
3502.27305	4.69332
3500.34448	4.74601
3498.41592	4.79326
3496.48735	4.83846
3494.55879	4.88128
3492.63022	4.92365
3490.70166	4.97426
3488.77310	5.03052
3486.84453	5.08409
3484.91597	5.13787
3482.98740	5.19381
3481.05884	5.24253
3479.13027	5.28567
3477.20171	5.33621
3475.27314	5.38775
3473.34458	5.43224
3471.41602	5.47694
3469.48745	5.52338
3467.55889	5.57675
3465.63032	5.64156
3463.70176	5.70091
3461.77319	5.74298
3459.84463	5.78088
3457.91606	5.82740
3455.98750	5.88035
3454.05894	5.93083
3452.13037	5.98077
3450.20181	6.03757
3448.27324	6.09637
3446.34468	6.14961
3444.41611	6.19570
3442.48755	6.24595
3440.55898	6.31007
3438.63042	6.37252
3436.70186	6.40302
3434.77329	6.41637
3432.84473	6.44469
3430.91616	6.48440
3428.98760	6.54047
3427.05903	6.62265
3425.13047	6.70904
3423.20190	6.76134
3421.27334	6.79549
3419.34478	6.83447
3417.41621	6.87446
3415.48765	6.95014
3413.55908	7.06984
3411.63052	7.16135
3409.70195	7.16117
3407.77339	7.12410
3405.84482	7.12400
3403.91626	7.16059
3401.98770	7.20415
3400.05913	7.26347
3398.13057	7.34329
3396.20200	7.41130
3394.27344	7.43863
3392.34487	7.43439
3390.41631	7.47017
3388.48774	7.55152
3386.55918	7.61849
3384.63062	7.62704
3382.70205	7.60214
3380.77349	7.62871
3378.84492	7.71005
3376.91636	7.76238
3374.98779	7.77639
3373.05923	7.83012
3371.13066	7.89210
3369.20210	7.92398
3367.27354	7.97169
3365.34497	8.01214
3363.41641	7.98108
3361.48784	7.92512
3359.55928	7.92366
3357.63071	7.96609
3355.70215	8.02298
3353.77358	8.09233
3351.84502	8.14220
3349.91646	8.12471
3347.98789	8.11138
3346.05933	8.15210
3344.13076	8.25416
3342.20220	8.36835
3340.27363	8.34359
3338.34507	8.24548
3336.41650	8.20707
3334.48794	8.22982
3332.55937	8.25943
3330.63081	8.30329
3328.70225	8.36659
3326.77368	8.40776
3324.84512	8.40936
3322.91655	8.37307
3320.98799	8.36732
3319.05942	8.39483
3317.13086	8.38793
3315.20229	8.35022
3313.27373	8.35747
3311.34517	8.41895
3309.41660	8.50741
3307.48804	8.57009
3305.55947	8.52491
3303.63091	8.44616
3301.70234	8.40081
3299.77378	8.33919
3297.84521	8.27516
3295.91665	8.30808
3293.98809	8.36411
3292.05952	8.36808
3290.13096	8.42911
3288.20239	8.52035
3286.27383	8.52103
3284.34526	8.45679
3282.41670	8.45205
3280.48813	8.55590
3278.55957	8.67079
3276.63101	8.62772
3274.70244	8.48689
3272.77388	8.44330
3270.84531	8.49829
3268.91675	8.53781
3266.98818	8.55198
3265.05962	8.56689
3263.13105	8.55360
3261.20249	8.57975
3259.27393	8.64548
3257.34536	8.65169
3255.41680	8.66159
3253.48823	8.79115
3251.55967	8.94479
3249.63110	8.92967
3247.70254	8.73144
3245.77397	8.45542
3243.84541	8.31229
3241.91685	8.40686
3239.98828	8.55712
3238.05972	8.52579
3236.13115	8.47156
3234.20259	8.49964
3232.27402	8.41436
3230.34546	8.29098
3228.41689	8.33414
3226.48833	8.44710
3224.55977	8.43852
3222.63120	8.33690
3220.70264	8.24697
3218.77407	8.24253
3216.84551	8.31924
3214.91694	8.42770
3212.98838	8.48873
3211.05981	8.39385
3209.13125	8.22816
3207.20269	8.12493
3205.27412	8.06922
3203.34556	7.97835
3201.41699	7.90019
3199.48843	7.91013
3197.55986	7.92093
3195.63130	7.90413
3193.70273	7.92251
3191.77417	7.93599
3189.84561	7.92593
3187.91704	7.89161
3185.98848	7.80163
3184.05991	7.68970
3182.13135	7.56613
3180.20278	7.43620
3178.27422	7.36691
3176.34565	7.37734
3174.41709	7.37600
3172.48853	7.30837
3170.55996	7.23703
3168.63140	7.17288
3166.70283	7.08751
3164.77427	7.00619
3162.84570	6.92719
3160.91714	6.83904
3158.98857	6.78296
3157.06001	6.76160
3155.13145	6.71654
3153.20288	6.62332
3151.27432	6.51662
3149.34575	6.42872
3147.41719	6.35732
3145.48862	6.28834
3143.56006	6.21797
3141.63149	6.15311
3139.70293	6.10059
3137.77437	6.04834
3135.84580	5.96950
3133.91724	5.87039
3131.98867	5.78701
3130.06011	5.73035
3128.13154	5.67298
3126.20298	5.59291
3124.27441	5.50718
3122.34585	5.42937
3120.41729	5.35476
3118.48872	5.28209
3116.56016	5.20885
3114.63159	5.13647
3112.70303	5.07024
3110.77446	5.00635
3108.84590	4.93908
3106.91733	4.87051
3104.98877	4.80180
3103.06021	4.73191
3101.13164	4.66393
3099.20308	4.59844
3097.27451	4.53035
3095.34595	4.45958
3093.41738	4.39068
3091.48882	4.32468
3089.56025	4.26160
3087.63169	4.20000
3085.70312	4.13660
3083.77456	4.07260
3081.84600	4.00997
3079.91743	3.94667
3077.98887	3.88373
3076.06030	3.82489
3074.13174	3.76965
3072.20317	3.71381
3070.27461	3.65473
3068.34604	3.59579
3066.41748	3.54005
3064.48892	3.48451
3062.56035	3.42695
3060.63179	3.37052
3058.70322	3.31695
3056.77466	3.26342
3054.84609	3.20965
3052.91753	3.15759
3050.98896	3.10624
3049.06040	3.05473
3047.13184	3.00347
3045.20327	2.95270
3043.27471	2.90325
3041.34614	2.85518
3039.41758	2.80711
3037.48901	2.75935
3035.56045	2.71280
3033.63188	2.66665
3031.70332	2.62117
3029.77476	2.57697
3027.84619	2.53299
3025.91763	2.48895
3023.98906	2.44536
3022.06050	2.40270
3020.13193	2.36078
3018.20337	2.31894
3016.27480	2.27804
3014.34624	2.23837
3012.41768	2.19860
3010.48911	2.15904
3008.56055	2.12095
3006.63198	2.08425
3004.70342	2.04859
3002.77485	2.01380
3000.84629	1.97918
2998.91772	1.94476
2996.98916	1.91174
2995.06060	1.88016
2993.13203	1.84915
2991.20347	1.81864
2989.27490	1.78854
2987.34634	1.75885
2985.41777	1.72986
2983.48921	1.70120
2981.56064	1.67312
2979.63208	1.64637
2977.70352	1.62056
2975.77495	1.59542
2973.84639	1.57098
2971.91782	1.54678
2969.98926	1.52273
2968.06069	1.49901
2966.13213	1.47529
2964.20356	1.45108
2962.27500	1.42682
2960.34644	1.40300
2958.41787	1.37927
2956.48931	1.35564
2954.56074	1.33207
2952.63218	1.30824
2950.70361	1.28453
2948.77505	1.26156
2946.84648	1.23951
2944.91792	1.21858
2942.98936	1.19838
2941.06079	1.17777
2939.13223	1.15675
2937.20366	1.13662
2935.27510	1.11734
2933.34653	1.09758
2931.41797	1.07680
2929.48940	1.05550
2927.56084	1.03471
2925.63228	1.01514
2923.70371	0.99680
2921.77515	0.97962
2919.84658	0.96287
2917.91802	0.94565
2915.98945	0.92869
2914.06089	0.91287
2912.13232	0.89746
2910.20376	0.88166
2908.27520	0.86570
2906.34663	0.85030
2904.41807	0.83581
2902.48950	0.82171
2900.56094	0.80749
2898.63237	0.79336
2896.70381	0.78010
2894.77524	0.76788
2892.84668	0.75575
2890.91812	0.74349
2888.98955	0.73164
2887.06099	0.72021
2885.13242	0.70965
2883.20386	0.70019
2881.27529	0.69097
2879.34673	0.68138
2877.41816	0.67161
2875.48960	0.66178
2873.56104	0.65147
2871.63247	0.64042
2869.70391	0.62896
2867.77534	0.61746
2865.84678	0.60570
2863.91821	0.59373
2861.98965	0.58187
2860.06108	0.57032
2858.13252	0.55925
2856.20396	0.54877
2854.27539	0.53903
2852.34683	0.53008
2850.41826	0.52176
2848.48970	0.51371
2846.56113	0.50584
2844.63257	0.49853
2842.70400	0.49180
2840.77544	0.48535
2838.84687	0.47900
2836.91831	0.47251
2834.98975	0.46590
2833.06118	0.45952
2831.13262	0.45353
2829.20405	0.44761
2827.27549	0.44153
2825.34692	0.43540
2823.41836	0.42949
2821.48979	0.42363
2819.56123	0.41766
2817.63267	0.41170
2815.70410	0.40577
2813.77554	0.39993
2811.84697	0.39443
2809.91841	0.38912
2807.98984	0.38368
2806.06128	0.37818
2804.13271	0.37289
2802.20415	0.36783
2800.27559	0.36294
2798.34702	0.35812
2796.41846	0.35322
2794.48989	0.34829
2792.56133	0.34348
2790.63276	0.33893
2788.70420	0.33457
2786.77563	0.33018
2784.84707	0.32575
2782.91851	0.32147
2780.98994	0.31733
2779.06138	0.31302
2777.13281	0.30866
2775.20425	0.30462
2773.27568	0.30086
2771.34712	0.29704
2769.41855	0.29315
2767.48999	0.28950
2765.56143	0.28614
2763.63286	0.28279
2761.70430	0.27942
2759.77573	0.27609
2757.84717	0.27271
2755.91860	0.26936
2753.99004	0.26627
2752.06147	0.26338
2750.13291	0.26034
2748.20435	0.25727
2746.27578	0.25437
2744.34722	0.25151
2742.41865	0.24862
2740.49009	0.24586
2738.56152	0.24328
2736.63296	0.24068
2734.70439	0.23800
2732.77583	0.23545
2730.84727	0.23310
2728.91870	0.23087
2726.99014	0.22865
2725.06157	0.22641
2723.13301	0.22414
2721.20444	0.22195
2719.27588	0.21986
2717.34731	0.21783
2715.41875	0.21594
2713.49019	0.21416
2711.56162	0.21225
2709.63306	0.21034
2707.70449	0.20867
2705.77593	0.20716
2703.84736	0.20557
2701.91880	0.20387
2699.99023	0.20225
2698.06167	0.20076
2696.13311	0.19913
2694.20454	0.19736
2692.27598	0.19587
2690.34741	0.19474
2688.41885	0.19361
2686.49028	0.19228
2684.56172	0.19089
2682.63315	0.18965
2680.70459	0.18852
2678.77603	0.18724
2676.84746	0.18588
2674.91890	0.18472
2672.99033	0.18375
2671.06177	0.18283
2669.13320	0.18190
2667.20464	0.18095
2665.27607	0.17993
2663.34751	0.17887
2661.41895	0.17791
2659.49038	0.17712
2657.56182	0.17636
2655.63325	0.17542
2653.70469	0.17438
2651.77612	0.17355
2649.84756	0.17304
2647.91899	0.17258
2645.99043	0.17187
2644.06187	0.17107
2642.13330	0.17049
2640.20474	0.17014
2638.27617	0.16965
2636.34761	0.16893
2634.41904	0.16828
2632.49048	0.16778
2630.56191	0.16737
2628.63335	0.16697
2626.70479	0.16653
2624.77622	0.16610
2622.84766	0.16572
2620.91909	0.16542
2618.99053	0.16523
2617.06196	0.16497
2615.13340	0.16463
2613.20483	0.16442
2611.27627	0.16428
2609.34771	0.16413
2607.41914	0.16398
2605.49058	0.16372
2603.56201	0.16349
2601.63345	0.16348
2599.70488	0.16355
2597.77632	0.16356
2595.84775	0.16361
2593.91919	0.16368
2591.99062	0.16365
2590.06206	0.16360
2588.13350	0.16367
2586.20493	0.16380
2584.27637	0.16386
2582.34780	0.16384
2580.41924	0.16392
2578.49067	0.16428
2576.56211	0.16478
2574.63354	0.16516
2572.70498	0.16540
2570.77642	0.16555
2568.84785	0.16564
2566.91929	0.16584
2564.99072	0.16629
2563.06216	0.16675
2561.13359	0.16703
2559.20503	0.16734
2557.27646	0.16783
2555.34790	0.16840
2553.41934	0.16891
2551.49077	0.16921
2549.56221	0.16940
2547.63364	0.16975
2545.70508	0.17032
2543.77651	0.17106
2541.84795	0.17191
2539.91938	0.17260
2537.99082	0.17305
2536.06226	0.17340
2534.13369	0.17387
2532.20513	0.17459
2530.27656	0.17543
2528.34800	0.17616
2526.41943	0.17675
2524.49087	0.17730
2522.56230	0.17788
2520.63374	0.17858
2518.70518	0.17933
2516.77661	0.18001
2514.84805	0.18071
2512.91948	0.18146
2510.99092	0.18221
2509.06235	0.18300
2507.13379	0.18383
2505.20522	0.18457
2503.27666	0.18524
2501.34810	0.18597
2499.41953	0.18678
2497.49097	0.18757
2495.56240	0.18838
2493.63384	0.18921
2491.70527	0.19011
2489.77671	0.19110
2487.84814	0.19205
2485.91958	0.19279
2483.99102	0.19332
2482.06245	0.19390
2480.13389	0.19472
2478.20532	0.19562
2476.27676	0.19643
2474.34819	0.19722
2472.41963	0.19806
2470.49106	0.19890
2468.56250	0.19972
2466.63394	0.20063
2464.70537	0.20168
2462.77681	0.20268
2460.84824	0.20356
2458.91968	0.20439
2456.99111	0.20524
2455.06255	0.20611
2453.13398	0.20705
2451.20542	0.20802
2449.27686	0.20895
2447.34829	0.20983
2445.41973	0.21071
2443.49116	0.21164
2441.56260	0.21262
2439.63403	0.21363
2437.70547	0.21463
2435.77690	0.21554
2433.84834	0.21655
2431.91978	0.21766
2429.99121	0.21870
2428.06265	0.21969
2426.13408	0.22074
2424.20552	0.22185
2422.27695	0.22292
2420.34839	0.22400
2418.41982	0.22516
2416.49126	0.22628
2414.56270	0.22736
2412.63413	0.22844
2410.70557	0.22961
2408.77700	0.23081
2406.84844	0.23190
2404.91987	0.23288
2402.99131	0.23389
2401.06274	0.23501
2399.13418	0.23624
2397.20562	0.23760
2395.27705	0.23892
2393.34849	0.23993
2391.41992	0.24092
2389.49136	0.24225
2387.56279	0.24399
2385.63423	0.24620
2383.70566	0.24892
2381.77710	0.25212
2379.84854	0.25589
2377.91997	0.26027
2375.99141	0.26501
2374.06284	0.26986
2372.13428	0.27498
2370.20571	0.28086
2368.27715	0.28718
2366.34858	0.29330
2364.42002	0.29891
2362.49146	0.30315
2360.56289	0.30529
2358.63433	0.30607
2356.70576	0.30600
2354.77720	0.30420
2352.84863	0.30075
2350.92007	0.29695
2348.99150	0.29476
2347.06294	0.29564
2345.13437	0.30005
2343.20581	0.30633
2341.27725	0.31083
2339.34868	0.31276
2337.42012	0.31361
2335.49155	0.31404
2333.56299	0.31412
2331.63442	0.31461
2329.70586	0.31544
2327.77729	0.31599
2325.84873	0.31613
2323.92017	0.31622
2321.99160	0.31637
2320.06304	0.31608
2318.13447	0.31540
2316.20591	0.31501
2314.27734	0.31525
2312.34878	0.31595
2310.42021	0.31674
2308.49165	0.31732
2306.56309	0.31770
2304.63452	0.31811
2302.70596	0.31881
2300.77739	0.31974
2298.84883	0.32076
2296.92026	0.32193
2294.99170	0.32315
2293.06313	0.32435
2291.13457	0.32566
2289.20601	0.32705
2287.27744	0.32843
2285.34888	0.32984
2283.42031	0.33140
2281.49175	0.33318
2279.56318	0.33523
2277.63462	0.33743
2275.70605	0.33966
2273.77749	0.34176
2271.84893	0.34375
2269.92036	0.34579
2267.99180	0.34794
2266.06323	0.35006
2264.13467	0.35213
2262.20610	0.35421
2260.27754	0.35625
2258.34897	0.35825
2256.42041	0.36033
2254.49185	0.36246
2252.56328	0.36455
2250.63472	0.36655
2248.70615	0.36854
2246.77759	0.37067
2244.84902	0.37284
2242.92046	0.37492
2240.99189	0.37706
2239.06333	0.37931
2237.13477	0.38148
2235.20620	0.38353
2233.27764	0.38566
2231.34907	0.38789
2229.42051	0.39010
2227.49194	0.39230
2225.56338	0.39445
2223.63481	0.39663
2221.70625	0.39892
2219.77769	0.40122
2217.84912	0.40345
2215.92056	0.40566
2213.99199	0.40789
2212.06343	0.41006
2210.13486	0.41210
2208.20630	0.41415
2206.27773	0.41628
2204.34917	0.41838
2202.42061	0.42042
2200.49204	0.42243
2198.56348	0.42440
2196.63491	0.42623
2194.70635	0.42806
2192.77778	0.42999
2190.84922	0.43194
2188.92065	0.43380
2186.99209	0.43558
2185.06353	0.43740
2183.13496	0.43916
2181.20640	0.44083
2179.27783	0.44242
2177.34927	0.44392
2175.42070	0.44540
2173.49214	0.44687
2171.56357	0.44825
2169.63501	0.44963
2167.70645	0.45099
2165.77788	0.45214
2163.84932	0.45324
2161.92075	0.45449
2159.99219	0.45574
2158.06362	0.45672
2156.13506	0.45748
2154.20649	0.45823
2152.27793	0.45906
2150.34937	0.45990
2148.42080	0.46067
2146.49224	0.46126
2144.56367	0.46159
2142.63511	0.46174
2140.70654	0.46188
2138.77798	0.46215
2136.84941	0.46242
2134.92085	0.46252
2132.99229	0.46240
2131.06372	0.46210
2129.13516	0.46179
2127.20659	0.46156
2125.27803	0.46130
2123.34946	0.46087
2121.42090	0.46033
2119.49233	0.45973
2117.56377	0.45905
2115.63521	0.45833
2113.70664	0.45751
2111.77808	0.45655
2109.84951	0.45551
2107.92095	0.45433
2105.99238	0.45296
2104.06382	0.45164
2102.13525	0.45042
2100.20669	0.44909
2098.27812	0.44769
2096.34956	0.44642
2094.42100	0.44505
2092.49243	0.44338
2090.56387	0.44156
2088.63530	0.43964
2086.70674	0.43760
2084.77817	0.43553
2082.84961	0.43353
2080.92104	0.43158
2078.99248	0.42957
2077.06392	0.42743
2075.13535	0.42526
2073.20679	0.42310
2071.27822	0.42076
2069.34966	0.41835
2067.42109	0.41614
2065.49253	0.41405
2063.56396	0.41168
2061.63540	0.40911
2059.70684	0.40651
2057.77827	0.40381
2055.84971	0.40113
2053.92114	0.39858
2051.99258	0.39612
2050.06401	0.39364
2048.13545	0.39097
2046.20688	0.38810
2044.27832	0.38530
2042.34976	0.38271
2040.42119	0.38015
2038.49263	0.37735
2036.56406	0.37442
2034.63550	0.37161
2032.70693	0.36885
2030.77837	0.36604
2028.84980	0.36319
2026.92124	0.36037
2024.99268	0.35753
2023.06411	0.35472
2021.13555	0.35202
2019.20698	0.34938
2017.27842	0.34670
2015.34985	0.34387
2013.42129	0.34102
2011.49272	0.33826
2009.56416	0.33555
2007.63560	0.33292
2005.70703	0.33032
2003.77847	0.32763
2001.84990	0.32491
1999.92134	0.32223
1997.99277	0.31957
1996.06421	0.31705
1994.13564	0.31479
1992.20708	0.31251
1990.27852	0.30987
1988.34995	0.30711
1986.42139	0.30447
1984.49282	0.30197
1982.56426	0.29961
1980.63569	0.29726
1978.70713	0.29497
1976.77856	0.29284
1974.85000	0.29076
1972.92144	0.28854
1970.99287	0.28634
1969.06431	0.28440
1967.13574	0.28263
1965.20718	0.28067
1963.27861	0.27863
1961.35005	0.27664
1959.42148	0.27469
1957.49292	0.27287
1955.56436	0.27115
1953.63579	0.26939
1951.70723	0.26759
1949.77866	0.26593
1947.85010	0.26447
1945.92153	0.26320
1943.99297	0.26210
1942.06440	0.26083
1940.13584	0.25904
1938.20728	0.25718
1936.27871	0.25560
1934.35015	0.25420
1932.42158	0.25300
1930.49302	0.25192
1928.56445	0.25085
1926.63589	0.24979
1924.70732	0.24899
1922.77876	0.24829
1920.85020	0.24738
1918.92163	0.24653
1916.99307	0.24573
1915.06450	0.24465
1913.13594	0.24364
1911.20737	0.24299
1909.27881	0.24238
1907.35024	0.24161
1905.42168	0.24084
1903.49312	0.24024
1901.56455	0.23968
1899.63599	0.23913
1897.70742	0.23876
1895.77886	0.23860
1893.85029	0.23835
1891.92173	0.23798
1889.99316	0.23785
1888.06460	0.23762
1886.13604	0.23713
1884.20747	0.23675
1882.27891	0.23654
1880.35034	0.23641
1878.42178	0.23629
1876.49321	0.23624
1874.56465	0.23632
1872.63608	0.23664
1870.70752	0.23740
1868.77896	0.23852
1866.85039	0.23877
1864.92183	0.23802
1862.99326	0.23758
1861.06470	0.23771
1859.13613	0.23809
1857.20757	0.23848
1855.27900	0.23889
1853.35044	0.23930
1851.42187	0.23983
1849.49331	0.24059
1847.56475	0.24164
1845.63618	0.24300
1843.70762	0.24429
1841.77905	0.24466
1839.85049	0.24460
1837.92192	0.24525
1835.99336	0.24619
1834.06479	0.24699
1832.13623	0.24811
1830.20767	0.24997
1828.27910	0.25164
1826.35054	0.25256
1824.42197	0.25364
1822.49341	0.25469
1820.56484	0.25566
1818.63628	0.25686
1816.70771	0.25845
1814.77915	0.26022
1812.85059	0.26228
1810.92202	0.26467
1808.99346	0.26676
1807.06489	0.26835
1805.13633	0.26996
1803.20776	0.27231
1801.27920	0.27524
1799.35063	0.27820
1797.42207	0.28060
1795.49351	0.28302
1793.56494	0.28622
1791.63638	0.29009
1789.70781	0.29302
1787.77925	0.29504
1785.85068	0.29795
1783.92212	0.30164
1781.99355	0.30575
1780.06499	0.31013
1778.13643	0.31440
1776.20786	0.31855
1774.27930	0.32346
1772.35073	0.32994
1770.42217	0.33608
1768.49360	0.34072
1766.56504	0.34529
1764.63647	0.35036
1762.70791	0.35638
1760.77935	0.36389
1758.85078	0.37076
1756.92222	0.37775
1754.99365	0.38547
1753.06509	0.39278
1751.13652	0.40175
1749.20796	0.41258
1747.27939	0.42271
1745.35083	0.43162
1743.42227	0.44120
1741.49370	0.45191
1739.56514	0.46456
1737.63657	0.47716
1735.70801	0.48858
1733.77944	0.50558
1731.85088	0.52469
1729.92231	0.53934
1727.99375	0.55435
1726.06519	0.57094
1724.13662	0.58942
1722.20806	0.60936
1720.27949	0.62818
1718.35093	0.65091
1716.42236	0.68319
1714.49380	0.71252
1712.56523	0.73646
1710.63667	0.76036
1708.70811	0.78657
1706.77954	0.81665
1704.85098	0.85233
1702.92241	0.88450
1700.99385	0.91749
1699.06528	0.96557
1697.13672	1.00851
1695.20815	1.05208
1693.27959	1.09554
1691.35103	1.13211
1689.42246	1.17484
1687.49390	1.22011
1685.56533	1.26527
1683.63677	1.33368
1681.70820	1.40155
1679.77964	1.44465
1677.85107	1.48676
1675.92251	1.53669
1673.99395	1.59888
1672.06538	1.65493
1670.13682	1.70961
1668.20825	1.77817
1666.27969	1.83546
1664.35112	1.88734
1662.42256	1.95313
1660.49399	2.02639
1658.56543	2.08482
1656.63687	2.13375
1654.70830	2.17953
1652.77974	2.24272
1650.85117	2.29562
1648.92261	2.31450
1646.99404	2.33835
1645.06548	2.35981
1643.13691	2.37128
1641.20835	2.37709
1639.27979	2.38322
1637.35122	2.38587
1635.42266	2.38163
1633.49409	2.36883
1631.56553	2.35088
1629.63696	2.33141
1627.70840	2.30117
1625.77983	2.26549
1623.85127	2.22065
1621.92271	2.16505
1619.99414	2.11448
1618.06558	2.06543
1616.13701	1.99719
1614.20845	1.92829
1612.27988	1.87592
1610.35132	1.82211
1608.42275	1.76453
1606.49419	1.70858
1604.56562	1.65749
1602.63706	1.60822
1600.70850	1.55985
1598.77993	1.51524
1596.85137	1.47407
1594.92280	1.43466
1592.99424	1.39622
1591.06567	1.36093
1589.13711	1.32846
1587.20854	1.29851
1585.27998	1.27119
1583.35142	1.24639
1581.42285	1.22432
1579.49429	1.20586
1577.56572	1.19029
1575.63716	1.17253
1573.70859	1.15637
1571.78003	1.14611
1569.85146	1.13750
1567.92290	1.12895
1565.99434	1.12318
1564.06577	1.12047
1562.13721	1.11990
1560.20864	1.12278
1558.28008	1.13285
1556.35151	1.14100
1554.42295	1.14449
1552.49438	1.14821
1550.56582	1.15050
1548.63726	1.14971
1546.70869	1.14551
1544.78013	1.13773
1542.85156	1.12619
1540.92300	1.10773
1538.99443	1.07616
1537.06587	1.05039
1535.13730	1.03259
1533.20874	1.01005
1531.28018	0.98593
1529.35161	0.96834
1527.42305	0.95230
1525.49448	0.93590
1523.56592	0.92229
1521.63735	0.90967
1519.70879	0.89645
1517.78022	0.88499
1515.85166	0.87144
1513.92310	0.85675
1511.99453	0.84416
1510.06597	0.83348
1508.13740	0.82379
1506.20884	0.80754
1504.28027	0.79093
1502.35171	0.78142
1500.42314	0.77419
1498.49458	0.76721
1496.56602	0.75882
1494.63745	0.74973
1492.70889	0.74287
1490.78032	0.73774
1488.85176	0.73189
1486.92319	0.72541
1484.99463	0.72006
1483.06606	0.71631
1481.13750	0.71360
1479.20894	0.71175
1477.28037	0.71129
1475.35181	0.71240
1473.42324	0.71443
1471.49468	0.71482
1469.56611	0.71251
1467.63755	0.70996
1465.70898	0.70845
1463.78042	0.70755
1461.85186	0.70698
1459.92329	0.70774
1457.99473	0.70997
1456.06616	0.71046
1454.13760	0.70718
1452.20903	0.70344
1450.28047	0.70013
1448.35190	0.69738
1446.42334	0.69466
1444.49478	0.69175
1442.56621	0.68878
1440.63765	0.68565
1438.70908	0.68264
1436.78052	0.67901
1434.85195	0.67418
1432.92339	0.67034
1430.99482	0.66818
1429.06626	0.66711
1427.13770	0.66688
1425.20913	0.66752
1423.28057	0.66862
1421.35200	0.66967
1419.42344	0.67076
1417.49487	0.67088
1415.56631	0.66960
1413.63774	0.66873
1411.70918	0.66903
1409.78062	0.67033
1407.85205	0.67226
1405.92349	0.67479
1403.99492	0.67715
1402.06636	0.67804
1400.13779	0.67779
1398.20923	0.67672
1396.28066	0.67431
1394.35210	0.67005
1392.42354	0.66464
1390.49497	0.65962
1388.56641	0.65489
1386.63784	0.64937
1384.70928	0.64319
1382.78071	0.63723
1380.85215	0.63178
1378.92358	0.62730
1376.99502	0.62423
1375.06646	0.62241
1373.13789	0.62086
1371.20933	0.61940
1369.28076	0.61840
1367.35220	0.61725
1365.42363	0.61574
1363.49507	0.61426
1361.56650	0.61264
1359.63794	0.61073
1357.70937	0.60891
1355.78081	0.60729
1353.85225	0.60595
1351.92368	0.60508
1349.99512	0.60452
1348.06655	0.60379
1346.13799	0.60278
1344.20942	0.60186
1342.28086	0.60137
1340.35229	0.60133
1338.42373	0.60097
1336.49517	0.59997
1334.56660	0.59923
1332.63804	0.59924
1330.70947	0.59971
1328.78091	0.60025
1326.85234	0.60086
1324.92378	0.60178
1322.99521	0.60292
1321.06665	0.60392
1319.13809	0.60470
1317.20952	0.60517
1315.28096	0.60532
1313.35239	0.60523
1311.42383	0.60488
1309.49526	0.60425
1307.56670	0.60358
1305.63813	0.60317
1303.70957	0.60300
1301.78101	0.60262
1299.85244	0.60176
1297.92388	0.60068
1295.99531	0.59954
1294.06675	0.59827
1292.13818	0.59697
1290.20962	0.59580
1288.28105	0.59458
1286.35249	0.59306
1284.42393	0.59145
1282.49536	0.58989
1280.56680	0.58826
1278.63823	0.58650
1276.70967	0.58483
1274.78110	0.58347
1272.85254	0.58241
1270.92397	0.58157
1268.99541	0.58079
1267.06685	0.57993
1265.13828	0.57903
1263.20972	0.57812
1261.28115	0.57716
1259.35259	0.57614
1257.42402	0.57537
1255.49546	0.57514
1253.56689	0.57522
1251.63833	0.57527
1249.70977	0.57521
1247.78120	0.57498
1245.85264	0.57456
1243.92407	0.57381
1241.99551	0.57262
1240.06694	0.57104
1238.13838	0.56913
1236.20981	0.56685
1234.28125	0.56427
1232.35269	0.56156
1230.42412	0.55892
1228.49556	0.55653
1226.56699	0.55426
1224.63843	0.55215
1222.70986	0.55035
1220.78130	0.54869
1218.85273	0.54693
1216.92417	0.54532
1214.99561	0.54412
1213.06704	0.54323
1211.13848	0.54247
1209.20991	0.54175
1207.28135	0.54102
1205.35278	0.54006
1203.42422	0.53883
1201.49565	0.53767
1199.56709	0.53672
1197.63853	0.53580
1195.70996	0.53491
1193.78140	0.53419
1191.85283	0.53369
1189.92427	0.53334
1187.99570	0.53306
1186.06714	0.53293
1184.13857	0.53304
1182.21001	0.53351
1180.28145	0.53459
1178.35288	0.53620
1176.42432	0.53794
1174.49575	0.53948
1172.56719	0.54050
1170.63862	0.54079
1168.71006	0.54060
1166.78149	0.54044
1164.85293	0.54054
1162.92437	0.54078
1160.99580	0.54087
1159.06724	0.54058
1157.13867	0.54004
1155.21011	0.53935
1153.28154	0.53827
1151.35298	0.53657
1149.42441	0.53427
1147.49585	0.53159
1145.56729	0.52870
1143.63872	0.52585
1141.71016	0.52346
1139.78159	0.52172
1137.85303	0.52056
1135.92446	0.51993
1133.99590	0.51966
1132.06733	0.51942
1130.13877	0.51905
1128.21021	0.51856
1126.28164	0.51805
1124.35308	0.51771
1122.42451	0.51756
1120.49595	0.51744
1118.56738	0.51745
1116.63882	0.51771
1114.71025	0.51819
1112.78169	0.51881
1110.85312	0.51948
1108.92456	0.52018
1106.99600	0.52107
1105.06743	0.52217
1103.13887	0.52333
1101.21030	0.52457
1099.28174	0.52607
1097.35317	0.52804
1095.42461	0.53068
1093.49604	0.53401
1091.56748	0.53837
1089.63892	0.54422
1087.71035	0.55149
1085.78179	0.55963
1083.85322	0.56788
1081.92466	0.57517
1079.99609	0.58057
1078.06753	0.58341
1076.13896	0.58323
1074.21040	0.58020
1072.28184	0.57490
1070.35327	0.56818
1068.42471	0.56098
1066.49614	0.55380
1064.56758	0.54711
1062.63901	0.54134
1060.71045	0.53632
1058.78188	0.53186
1056.85332	0.52800
1054.92476	0.52466
1052.99619	0.52175
1051.06763	0.51926
1049.13906	0.51704
1047.21050	0.51522
1045.28193	0.51418
1043.35337	0.51368
1041.42480	0.51326
1039.49624	0.51296
1037.56768	0.51284
1035.63911	0.51257
1033.71055	0.51198
1031.78198	0.51114
1029.85342	0.50996
1027.92485	0.50845
1025.99629	0.50681
1024.06772	0.50532
1022.13916	0.50442
1020.21060	0.50417
1018.28203	0.50421
1016.35347	0.50424
1014.42490	0.50413
1012.49634	0.50381
1010.56777	0.50351
1008.63921	0.50354
1006.71064	0.50401
1004.78208	0.50508
1002.85352	0.50675
1000.92495	0.50919
998.99639	0.51261
997.06782	0.51682
995.13926	0.52124
993.21069	0.52540
991.28213	0.52896
989.35356	0.53148
987.42500	0.53257
985.49644	0.53253
983.56787	0.53225
981.63931	0.53218
979.71074	0.53259
977.78218	0.53377
975.85361	0.53563
973.92505	0.53791
971.99648	0.54080
970.06792	0.54435
968.13936	0.54812
966.21079	0.55200
964.28223	0.55626
962.35366	0.56095
960.42510	0.56592
958.49653	0.57109
956.56797	0.57661
954.63940	0.58260
952.71084	0.58882
950.78228	0.59487
948.85371	0.60096
946.92515	0.60753
944.99658	0.61421
943.06802	0.62073
941.13945	0.62734
939.21089	0.63361
937.28232	0.63932
935.35376	0.64510
933.42520	0.65078
931.49663	0.65610
929.56807	0.66181
927.63950	0.66790
925.71094	0.67409
923.78237	0.68051
921.85381	0.68737
919.92524	0.69504
917.99668	0.70255
916.06812	0.70930
914.13955	0.71660
912.21099	0.72484
910.28242	0.73294
908.35386	0.74109
906.42529	0.75053
904.49673	0.76074
902.56816	0.77026
900.63960	0.77899
898.71104	0.78732
896.78247	0.79610
894.85391	0.80638
892.92534	0.81742
890.99678	0.82835
889.06821	0.83922
887.13965	0.84979
885.21108	0.86112
883.28252	0.87391
881.35396	0.88631
879.42539	0.89720
877.49683	0.90813
875.56826	0.92052
873.63970	0.93368
871.71113	0.94647
869.78257	0.95801
867.85400	0.96824
865.92544	0.97818
863.99687	0.98844
862.06831	0.99991
860.13975	1.01282
858.21118	1.02575
856.28262	1.03808
854.35405	1.04969
852.42549	1.06127
850.49692	1.07465
848.56836	1.08826
846.63979	1.09951
844.71123	1.11054
842.78267	1.12291
840.85410	1.13675
838.92554	1.15347
836.99697	1.17239
835.06841	1.19069
833.13984	1.20479
831.21128	1.21254
829.28271	1.22108
827.35415	1.23564
825.42559	1.24727
823.49702	1.25715
821.56846	1.27250
819.63989	1.28409
817.71133	1.29339
815.78276	1.31418
813.85420	1.34224
811.92563	1.36785
809.99707	1.38876
808.06851	1.40349
806.13994	1.41532
804.21138	1.43373
802.28281	1.47074
800.35425	1.50898
798.42568	1.52365
796.49712	1.53346
794.56855	1.54808
792.63999	1.57701
790.71143	1.63700
788.78286	1.68324
786.85430	1.65132
784.92573	1.60559
782.99717	1.59661
781.06860	1.61195
779.14004	1.61360
777.21147	1.58838
775.28291	1.53727
773.35435	1.47624
771.42578	1.46752
769.49722	1.50675
767.56865	1.50656
765.64009	1.47370
763.71152	1.52688
761.78296	1.65999
759.85439	1.64758
757.92583	1.45097
755.99727	1.30064
754.06870	1.17272
752.14014	1.07182
750.21157	1.00614
748.28301	0.95448
746.35444	0.91205
744.42588	0.87875
742.49731	0.86239
740.56875	0.85168
738.64019	0.80673
736.71162	0.74121
734.78306	0.68262
732.85449	0.61407
730.92593	0.54799
728.99736	0.50749
727.06880	0.43101
725.14023	0.25342
723.21167	0.09539
721.28311	0.03516
719.35454	0.01840
717.42598	-0.01706
715.49741	-0.00936
713.56885	0.02621
711.64028	0.08390
709.71172	0.23224
707.78315	0.34350
705.85459	0.32987
703.92603	0.27780
701.99746	0.21039
700.06890	0.16733
698.14033	0.16042
696.21177	0.17345
694.28320	0.17434
692.35464	0.14019
690.42607	0.10946
688.49751	0.12624
686.56895	0.15006
684.64038	0.14649
682.71182	0.17679
680.78325	0.23035
678.85469	0.21448
676.92612	0.19266
674.99756	0.23507
673.06899	0.29499
671.14043	0.30715
669.21187	0.25479
667.28330	0.16627
665.35474	0.11784
663.42617	0.16528
661.49761	0.22511
659.56904	0.22571
657.64048	0.25123
655.71191	0.27218
653.78335	0.22170
651.85479	0.14086
649.92622	0.07331
647.99766	0.11392
646.06909	0.24546
644.14053	0.35137
642.21196	0.37460
640.28340	0.32847
638.35483	0.28344
636.42627	0.24683
634.49771	0.22277
632.56914	0.21935
630.64058	0.18959
628.71201	0.17188
626.78345	0.22655
624.85488	0.31983
622.92632	0.40380
620.99775	0.37469
619.06919	0.25214
617.14062	0.16825
615.21206	0.15862
613.28350	0.19834
611.35493	0.25623
609.42637	0.32197
607.49780	0.35254
605.56924	0.35365
603.64067	0.36882
601.71211	0.36648
599.78354	0.33801
597.85498	0.30902
595.92642	0.25359
593.99785	0.20698
592.06929	0.22349
590.14072	0.23026
588.21216	0.18325
586.28359	0.16945
584.35503	0.17243
582.42646	0.09935
580.49790	0.03169
578.56934	0.04835
576.64077	0.12582
574.71221	0.24900
572.78364	0.43446
570.85508	0.53500
568.92651	0.43229
566.99795	0.35411
565.06938	0.29562
563.14082	0.23274
561.21226	0.22037
559.28369	0.19982
557.35513	0.15780
555.42656	0.15800
553.49800	0.19004
551.56943	0.18825
549.64087	0.17492
547.71230	0.15959
545.78374	0.12873
543.85518	0.12284
541.92661	0.16129
539.99805	0.21453
538.06948	0.23402
536.14092	0.20462
534.21235	0.17989
532.28379	0.19416
530.35522	0.22674
528.42666	0.23322
526.49810	0.19438
524.56953	0.14972
522.64097	0.14899
520.71240	0.20802
518.78384	0.25704
516.85527	0.23427
514.92671	0.18647
512.99814	0.15473
511.06958	0.14022
509.14102	0.13238
507.21245	0.13366
505.28389	0.12312
503.35532	0.10284
501.42676	0.12645
499.49819	0.19556
