3997.91411	0.06805
3995.98555	0.06846
3994.05698	0.06926
3992.12842	0.07000
3990.19985	0.07047
3988.27129	0.07088
3986.34272	0.07112
3984.41416	0.07093
3982.48560	0.07094
3980.55703	0.07161
3978.62847	0.07209
3976.69990	0.07226
3974.77134	0.07266
3972.84277	0.07254
3970.91421	0.07159
3968.98564	0.07106
3967.05708	0.07150
3965.12852	0.07238
3963.19995	0.07326
3961.27139	0.07374
3959.34282	0.07352
3957.41426	0.07284
3955.48569	0.07236
3953.55713	0.07263
3951.62856	0.07371
3949.70000	0.07504
3947.77144	0.07548
3945.84287	0.07480
3943.91431	0.07431
3941.98574	0.07432
3940.05718	0.07387
3938.12861	0.07309
3936.20005	0.07276
3934.27148	0.07335
3932.34292	0.07452
3930.41436	0.07506
3928.48579	0.07465
3926.55723	0.07429
3924.62866	0.07441
3922.70010	0.07432
3920.77153	0.07387
3918.84297	0.07376
3916.91440	0.07406
3914.98584	0.07392
3913.05728	0.07296
3911.12871	0.07207
3909.20015	0.07197
3907.27158	0.07289
3905.34302	0.07509
3903.41445	0.07792
3901.48589	0.07916
3899.55732	0.07830
3897.62876	0.07659
3895.70020	0.07489
3893.77163	0.07423
3891.84307	0.07493
3889.91450	0.07556
3887.98594	0.07536
3886.05737	0.07580
3884.12881	0.07679
3882.20024	0.07726
3880.27168	0.07728
3878.34312	0.07612
3876.41455	0.07476
3874.48599	0.07512
3872.55742	0.07683
3870.62886	0.07876
3868.70029	0.07990
3866.77173	0.07974
3864.84316	0.07987
3862.91460	0.08039
3860.98604	0.07988
3859.05747	0.07885
3857.12891	0.07880
3855.20034	0.08059
3853.27178	0.08414
3851.34321	0.08542
3849.41465	0.08274
3847.48608	0.08037
3845.55752	0.08007
3843.62896	0.08194
3841.70039	0.08464
3839.77183	0.08708
3837.84326	0.08916
3835.91470	0.08970
3833.98613	0.08862
3832.05757	0.08730
3830.12900	0.08659
3828.20044	0.08690
3826.27187	0.08798
3824.34331	0.08902
3822.41475	0.09087
3820.48618	0.09449
3818.55762	0.09593
3816.62905	0.09464
3814.70049	0.09382
3812.77192	0.09333
3810.84336	0.09319
3808.91479	0.09441
3806.98623	0.09689
3805.05767	0.09898
3803.12910	0.10066
3801.20054	0.10289
3799.27197	0.10388
3797.34341	0.10364
3795.41484	0.10329
3793.48628	0.10249
3791.55771	0.10247
3789.62915	0.10382
3787.70059	0.10572
3785.77202	0.10778
3783.84346	0.10981
3781.91489	0.11154
3779.98633	0.11344
3778.05776	0.11535
3776.12920	0.11613
3774.20063	0.11647
3772.27207	0.11792
3770.34351	0.12109
3768.41494	0.12455
3766.48638	0.12654
3764.55781	0.12780
3762.62925	0.12905
3760.70068	0.13112
3758.77212	0.13457
3756.84355	0.13800
3754.91499	0.14031
3752.98643	0.14333
3751.05786	0.14895
3749.12930	0.15454
3747.20073	0.15639
3745.27217	0.15773
3743.34360	0.16110
3741.41504	0.16455
3739.48647	0.16744
3737.55791	0.17193
3735.62935	0.17878
3733.70078	0.18545
3731.77222	0.18905
3729.84365	0.19124
3727.91509	0.19457
3725.98652	0.20023
3724.05796	0.20686
3722.12939	0.21277
3720.20083	0.21846
3718.27227	0.22435
3716.34370	0.23076
3714.41514	0.23817
3712.48657	0.24842
3710.55801	0.26289
3708.62944	0.27673
3706.70088	0.28697
3704.77231	0.29732
3702.84375	0.31062
3700.91519	0.32770
3698.98662	0.34555
3697.05806	0.36233
3695.12949	0.38054
3693.20093	0.40066
3691.27236	0.42351
3689.34380	0.45224
3687.41523	0.48453
3685.48667	0.51227
3683.55811	0.53736
3681.62954	0.56521
3679.70098	0.59717
3677.77241	0.63109
3675.84385	0.67107
3673.91528	0.72310
3671.98672	0.76498
3670.05815	0.80206
3668.12959	0.85258
3666.20103	0.89937
3664.27246	0.93896
3662.34390	0.98150
3660.41533	1.02770
3658.48677	1.07379
3656.55820	1.12353
3654.62964	1.17903
3652.70107	1.22641
3650.77251	1.26876
3648.84395	1.32527
3646.91538	1.39023
3644.98682	1.43710
3643.05825	1.47420
3641.12969	1.51357
3639.20112	1.55759
3637.27256	1.60189
3635.34399	1.64485
3633.41543	1.68791
3631.48687	1.72911
3629.55830	1.77187
3627.62974	1.82531
3625.70117	1.87291
3623.77261	1.90642
3621.84404	1.94017
3619.91548	1.97821
3617.98691	2.02208
3616.05835	2.06405
3614.12979	2.10071
3612.20122	2.13985
3610.27266	2.17914
3608.34409	2.21899
3606.41553	2.26089
3604.48696	2.29964
3602.55840	2.33502
3600.62983	2.37277
3598.70127	2.41271
3596.77271	2.45180
3594.84414	2.49194
3592.91558	2.53303
3590.98701	2.57126
3589.05845	2.60778
3587.12988	2.65230
3585.20132	2.70090
3583.27275	2.74159
3581.34419	2.77885
3579.41562	2.81907
3577.48706	2.86143
3575.55850	2.90280
3573.62993	2.94434
3571.70137	2.98610
3569.77280	3.02790
3567.84424	3.07271
3565.91567	3.12431
3563.98711	3.17132
3562.05854	3.21029
3560.12998	3.25287
3558.20142	3.29977
3556.27285	3.34435
3554.34429	3.38594
3552.41572	3.43252
3550.48716	3.48369
3548.55859	3.53165
3546.63003	3.57691
3544.70146	3.62305
3542.77290	3.66798
3540.84434	3.71217
3538.91577	3.76038
3536.98721	3.81258
3535.05864	3.86325
3533.13008	3.90695
3531.20151	3.94813
3529.27295	3.99332
3527.34438	4.04530
3525.41582	4.09707
3523.48726	4.14311
3521.55869	4.19099
3519.63013	4.24108
3517.70156	4.28839
3515.77300	4.33490
3513.84443	4.38528
3511.91587	4.43876
3509.98730	4.49065
3508.05874	4.53663
3506.13018	4.57933
3504.20161	4.62454
3502.27305	4.67297
3500.34448	4.72600
3498.41592	4.78118
3496.48735	4.83006
3494.55879	4.87329
3492.63022	4.92063
3490.70166	4.96967
3488.77310	5.01512
3486.84453	5.06176
3484.91597	5.10997
3482.98740	5.15906
3481.05884	5.21490
3479.13027	5.27282
3477.20171	5.32209
3475.27314	5.36798
3473.34458	5.42184
3471.41602	5.47972
3469.48745	5.52841
3467.55889	5.56867
3465.63032	5.61401
3463.70176	5.66989
3461.77319	5.72616
3459.84463	5.77515
3457.91606	5.81412
3455.98750	5.84957
3454.05894	5.89296
3452.13037	5.94241
3450.20181	5.99387
3448.27324	6.04636
3446.34468	6.10538
3444.41611	6.17033
3442.48755	6.22893
3440.55898	6.27442
3438.63042	6.31061
3436.70186	6.34463
3434.77329	6.37809
3432.84473	6.40289
3430.91616	6.42870
3428.98760	6.48638
3427.05903	6.57284
3425.13047	6.66465
3423.20190	6.73148
3421.27334	6.75676
3419.34478	6.77632
3417.41621	6.83158
3415.48765	6.89281
3413.55908	6.91616
3411.63052	6.95286
3409.70195	7.03618
3407.77339	7.11692
3405.84482	7.16835
3403.91626	7.21066
3401.98770	7.22986
3400.05913	7.22801
3398.13057	7.24429
3396.20200	7.28909
3394.27344	7.36284
3392.34487	7.42901
3390.41631	7.46429
3388.48774	7.49431
3386.55918	7.52123
3384.63062	7.53751
3382.70205	7.56689
3380.77349	7.59727
3378.84492	7.61455
3376.91636	7.64177
3374.98779	7.66257
3373.05923	7.68451
3371.13066	7.74175
3369.20210	7.83927
3367.27354	7.92029
3365.34497	7.92337
3363.41641	7.86021
3361.48784	7.82409
3359.55928	7.88329
3357.63071	7.94137
3355.70215	7.90892
3353.77358	7.89570
3351.84502	7.99220
3349.91646	8.07269
3347.98789	8.07681
3346.05933	8.09534
3344.13076	8.13433
3342.20220	8.12909
3340.27363	8.03454
3338.34507	7.95571
3336.41650	7.98732
3334.48794	8.08138
3332.55937	8.10644
3330.63081	8.06624
3328.70225	8.06729
3326.77368	8.11658
3324.84512	8.15254
3322.91655	8.10426
3320.98799	8.01614
3319.05942	7.99010
3317.13086	8.00367
3315.20229	7.99988
3313.27373	8.05072
3311.34517	8.16861
3309.41660	8.21933
3307.48804	8.14090
3305.55947	8.10264
3303.63091	8.20257
3301.70234	8.24284
3299.77378	8.15110
3297.84521	8.06170
3295.91665	8.03451
3293.98809	8.05675
3292.05952	8.08215
3290.13096	8.11344
3288.20239	8.18087
3286.27383	8.26461
3284.34526	8.30022
3282.41670	8.29891
3280.48813	8.29751
3278.55957	8.28574
3276.63101	8.24042
3274.70244	8.17407
3272.77388	8.12978
3270.84531	8.13356
3268.91675	8.17522
3266.98818	8.22249
3265.05962	8.28759
3263.13105	8.33709
3261.20249	8.29525
3259.27393	8.19250
3257.34536	8.12870
3255.41680	8.13739
3253.48823	8.24031
3251.55967	8.41647
3249.63110	8.42952
3247.70254	8.26253
3245.77397	8.19986
3243.84541	8.29019
3241.91685	8.34706
3239.98828	8.29364
3238.05972	8.25840
3236.13115	8.26718
3234.20259	8.29385
3232.27402	8.33925
3230.34546	8.28994
3228.41689	8.15852
3226.48833	8.12430
3224.55977	8.23536
3222.63120	8.35399
3220.70264	8.26521
3218.77407	8.06021
3216.84551	7.98267
3214.91694	8.01278
3212.98838	7.99813
3211.05981	7.96990
3209.13125	8.00587
3207.20269	8.05462
3205.27412	8.03570
3203.34556	7.93440
3201.41699	7.83824
3199.48843	7.77467
3197.55986	7.71933
3195.63130	7.70670
3193.70273	7.69868
3191.77417	7.64033
3189.84561	7.59040
3187.91704	7.55928
3185.98848	7.51565
3184.05991	7.49256
3182.13135	7.47887
3180.20278	7.41444
3178.27422	7.31300
3176.34565	7.23653
3174.41709	7.18776
3172.48853	7.13738
3170.55996	7.08400
3168.63140	7.03002
3166.70283	6.95758
3164.77427	6.87504
3162.84570	6.85018
3160.91714	6.87319
3158.98857	6.83764
3157.06001	6.73555
3155.13145	6.63501
3153.20288	6.54631
3151.27432	6.47257
3149.34575	6.43083
3147.41719	6.39542
3145.48862	6.33151
3143.56006	6.24175
3141.63149	6.14893
3139.70293	6.06851
3137.77437	5.99918
3135.84580	5.93470
3133.91724	5.86731
3131.98867	5.79220
3130.06011	5.71218
3128.13154	5.63378
3126.20298	5.56260
3124.27441	5.49773
3122.34585	5.43526
3120.41729	5.36785
3118.48872	5.28892
3116.56016	5.20928
3114.63159	5.14021
3112.70303	5.07455
3110.77446	5.00721
3108.84590	4.94168
3106.91733	4.87104
3104.98877	4.79138
3103.06021	4.71676
3101.13164	4.65223
3099.20308	4.58743
3097.27451	4.51858
3095.34595	4.44899
3093.41738	4.38062
3091.48882	4.31477
3089.56025	4.24936
3087.63169	4.18198
3085.70312	4.11366
3083.77456	4.04600
3081.84600	3.98261
3079.91743	3.92246
3077.98887	3.85903
3076.06030	3.79255
3074.13174	3.72779
3072.20317	3.66639
3070.27461	3.60774
3068.34604	3.55000
3066.41748	3.49158
3064.48892	3.43292
3062.56035	3.37544
3060.63179	3.31938
3058.70322	3.26290
3056.77466	3.20593
3054.84609	3.15098
3052.91753	3.09857
3050.98896	3.04695
3049.06040	2.99539
3047.13184	2.94460
3045.20327	2.89473
3043.27471	2.84597
3041.34614	2.79740
3039.41758	2.74780
3037.48901	2.69891
3035.56045	2.65190
3033.63188	2.60547
3031.70332	2.55936
3029.77476	2.51383
3027.84619	2.46926
3025.91763	2.42639
3023.98906	2.38425
3022.06050	2.34242
3020.13193	2.30163
3018.20337	2.26150
3016.27480	2.22102
3014.34624	2.17973
3012.41768	2.13927
3010.48911	2.10084
3008.56055	2.06357
3006.63198	2.02691
3004.70342	1.99067
3002.77485	1.95482
3000.84629	1.91930
2998.91772	1.88392
2996.98916	1.84921
2995.06060	1.81593
2993.13203	1.78349
2991.20347	1.75087
2989.27490	1.71832
2987.34634	1.68657
2985.41777	1.65551
2983.48921	1.62477
2981.56064	1.59479
2979.63208	1.56568
2977.70352	1.53651
2975.77495	1.50718
2973.84639	1.47855
2971.91782	1.45038
2969.98926	1.42237
2968.06069	1.39531
2966.13213	1.36881
2964.20356	1.34223
2962.27500	1.31645
2960.34644	1.29163
2958.41787	1.26749
2956.48931	1.24447
2954.56074	1.22208
2952.63218	1.19940
2950.70361	1.17704
2948.77505	1.15569
2946.84648	1.13480
2944.91792	1.11408
2942.98936	1.09345
2941.06079	1.07253
2939.13223	1.05117
2937.20366	1.02986
2935.27510	1.00942
2933.34653	0.99002
2931.41797	0.97112
2929.48940	0.95219
2927.56084	0.93338
2925.63228	0.91547
2923.70371	0.89862
2921.77515	0.88258
2919.84658	0.86737
2917.91802	0.85267
2915.98945	0.83832
2914.06089	0.82431
2912.13232	0.81032
2910.20376	0.79630
2908.27520	0.78258
2906.34663	0.76922
2904.41807	0.75606
2902.48950	0.74307
2900.56094	0.73037
2898.63237	0.71805
2896.70381	0.70606
2894.77524	0.69435
2892.84668	0.68272
2890.91812	0.67105
2888.98955	0.65943
2887.06099	0.64783
2885.13242	0.63656
2883.20386	0.62595
2881.27529	0.61556
2879.34673	0.60495
2877.41816	0.59454
2875.48960	0.58433
2873.56104	0.57389
2871.63247	0.56349
2869.70391	0.55347
2867.77534	0.54377
2865.84678	0.53430
2863.91821	0.52499
2861.98965	0.51567
2860.06108	0.50618
2858.13252	0.49673
2856.20396	0.48749
2854.27539	0.47872
2852.34683	0.47078
2850.41826	0.46371
2848.48970	0.45705
2846.56113	0.45048
2844.63257	0.44408
2842.70400	0.43793
2840.77544	0.43192
2838.84687	0.42597
2836.91831	0.42001
2834.98975	0.41404
2833.06118	0.40819
2831.13262	0.40252
2829.20405	0.39682
2827.27549	0.39101
2825.34692	0.38528
2823.41836	0.37968
2821.48979	0.37409
2819.56123	0.36849
2817.63267	0.36292
2815.70410	0.35735
2813.77554	0.35195
2811.84697	0.34683
2809.91841	0.34170
2807.98984	0.33665
2806.06128	0.33186
2804.13271	0.32710
2802.20415	0.32229
2800.27559	0.31769
2798.34702	0.31335
2796.41846	0.30901
2794.48989	0.30454
2792.56133	0.30015
2790.63276	0.29611
2788.70420	0.29231
2786.77563	0.28841
2784.84707	0.28444
2782.91851	0.28048
2780.98994	0.27645
2779.06138	0.27249
2777.13281	0.26887
2775.20425	0.26555
2773.27568	0.26223
2771.34712	0.25879
2769.41855	0.25546
2767.48999	0.25234
2765.56143	0.24927
2763.63286	0.24606
2761.70430	0.24288
2759.77573	0.23993
2757.84717	0.23707
2755.91860	0.23418
2753.99004	0.23146
2752.06147	0.22882
2750.13291	0.22601
2748.20435	0.22327
2746.27578	0.22079
2744.34722	0.21840
2742.41865	0.21602
2740.49009	0.21374
2738.56152	0.21150
2736.63296	0.20914
2734.70439	0.20672
2732.77583	0.20441
2730.84727	0.20231
2728.91870	0.20047
2726.99014	0.19871
2725.06157	0.19671
2723.13301	0.19462
2721.20444	0.19272
2719.27588	0.19090
2717.34731	0.18912
2715.41875	0.18748
2713.49019	0.18584
2711.56162	0.18410
2709.63306	0.18242
2707.70449	0.18088
2705.77593	0.17941
2703.84736	0.17794
2701.91880	0.17644
2699.99023	0.17505
2698.06167	0.17382
2696.13311	0.17249
2694.20454	0.17096
2692.27598	0.16955
2690.34741	0.16837
2688.41885	0.16728
2686.49028	0.16605
2684.56172	0.16467
2682.63315	0.16334
2680.70459	0.16212
2678.77603	0.16096
2676.84746	0.15999
2674.91890	0.15933
2672.99033	0.15870
2671.06177	0.15784
2669.13320	0.15689
2667.20464	0.15597
2665.27607	0.15509
2663.34751	0.15423
2661.41895	0.15350
2659.49038	0.15297
2657.56182	0.15239
2655.63325	0.15155
2653.70469	0.15063
2651.77612	0.14989
2649.84756	0.14931
2647.91899	0.14871
2645.99043	0.14818
2644.06187	0.14780
2642.13330	0.14744
2640.20474	0.14700
2638.27617	0.14654
2636.34761	0.14616
2634.41904	0.14582
2632.49048	0.14546
2630.56191	0.14511
2628.63335	0.14476
2626.70479	0.14441
2624.77622	0.14413
2622.84766	0.14401
2620.91909	0.14396
2618.99053	0.14394
2617.06196	0.14391
2615.13340	0.14376
2613.20483	0.14351
2611.27627	0.14333
2609.34771	0.14332
2607.41914	0.14343
2605.49058	0.14355
2603.56201	0.14370
2601.63345	0.14382
2599.70488	0.14386
2597.77632	0.14392
2595.84775	0.14415
2593.91919	0.14440
2591.99062	0.14448
2590.06206	0.14466
2588.13350	0.14505
2586.20493	0.14537
2584.27637	0.14549
2582.34780	0.14545
2580.41924	0.14555
2578.49067	0.14604
2576.56211	0.14664
2574.63354	0.14705
2572.70498	0.14739
2570.77642	0.14782
2568.84785	0.14839
2566.91929	0.14892
2564.99072	0.14927
2563.06216	0.14962
2561.13359	0.15012
2559.20503	0.15077
2557.27646	0.15150
2555.34790	0.15217
2553.41934	0.15270
2551.49077	0.15311
2549.56221	0.15363
2547.63364	0.15432
2545.70508	0.15503
2543.77651	0.15566
2541.84795	0.15627
2539.91938	0.15701
2537.99082	0.15784
2536.06226	0.15858
2534.13369	0.15929
2532.20513	0.16006
2530.27656	0.16080
2528.34800	0.16146
2526.41943	0.16213
2524.49087	0.16291
2522.56230	0.16378
2520.63374	0.16458
2518.70518	0.16535
2516.77661	0.16632
2514.84805	0.16739
2512.91948	0.16830
2510.99092	0.16905
2509.06235	0.16975
2507.13379	0.17051
2505.20522	0.17137
2503.27666	0.17227
2501.34810	0.17318
2499.41953	0.17413
2497.49097	0.17505
2495.56240	0.17595
2493.63384	0.17689
2491.70527	0.17774
2489.77671	0.17860
2487.84814	0.17960
2485.91958	0.18055
2483.99102	0.18137
2482.06245	0.18222
2480.13389	0.18314
2478.20532	0.18413
2476.27676	0.18519
2474.34819	0.18626
2472.41963	0.18725
2470.49106	0.18820
2468.56250	0.18915
2466.63394	0.19010
2464.70537	0.19113
2462.77681	0.19218
2460.84824	0.19314
2458.91968	0.19407
2456.99111	0.19495
2455.06255	0.19581
2453.13398	0.19679
2451.20542	0.19786
2449.27686	0.19899
2447.34829	0.20013
2445.41973	0.20120
2443.49116	0.20229
2441.56260	0.20338
2439.63403	0.20444
2437.70547	0.20548
2435.77690	0.20654
2433.84834	0.20764
2431.91978	0.20874
2429.99121	0.20987
2428.06265	0.21100
2426.13408	0.21200
2424.20552	0.21303
2422.27695	0.21425
2420.34839	0.21553
2418.41982	0.21679
2416.49126	0.21798
2414.56270	0.21902
2412.63413	0.22002
2410.70557	0.22115
2408.77700	0.22245
2406.84844	0.22368
2404.91987	0.22476
2402.99131	0.22590
2401.06274	0.22725
2399.13418	0.22863
2397.20562	0.22993
2395.27705	0.23116
2393.34849	0.23225
2391.41992	0.23343
2389.49136	0.23495
2387.56279	0.23681
2385.63423	0.23927
2383.70566	0.24256
2381.77710	0.24648
2379.84854	0.25096
2377.91997	0.25614
2375.99141	0.26202
2374.06284	0.26855
2372.13428	0.27582
2370.20571	0.28375
2368.27715	0.29159
2366.34858	0.29868
2364.42002	0.30540
2362.49146	0.31164
2360.56289	0.31559
2358.63433	0.31666
2356.70576	0.31549
2354.77720	0.31127
2352.84863	0.30489
2350.92007	0.29890
2348.99150	0.29576
2347.06294	0.29694
2345.13437	0.30299
2343.20581	0.31071
2341.27725	0.31443
2339.34868	0.31478
2337.42012	0.31518
2335.49155	0.31633
2333.56299	0.31714
2331.63442	0.31758
2329.70586	0.31819
2327.77729	0.31881
2325.84873	0.31874
2323.92017	0.31821
2321.99160	0.31759
2320.06304	0.31640
2318.13447	0.31493
2316.20591	0.31399
2314.27734	0.31382
2312.34878	0.31411
2310.42021	0.31434
2308.49165	0.31435
2306.56309	0.31435
2304.63452	0.31462
2302.70596	0.31531
2300.77739	0.31619
2298.84883	0.31702
2296.92026	0.31791
2294.99170	0.31894
2293.06313	0.32001
2291.13457	0.32115
2289.20601	0.32245
2287.27744	0.32376
2285.34888	0.32501
2283.42031	0.32644
2281.49175	0.32813
2279.56318	0.33006
2277.63462	0.33232
2275.70605	0.33477
2273.77749	0.33706
2271.84893	0.33913
2269.92036	0.34121
2267.99180	0.34341
2266.06323	0.34561
2264.13467	0.34776
2262.20610	0.34985
2260.27754	0.35173
2258.34897	0.35351
2256.42041	0.35558
2254.49185	0.35794
2252.56328	0.36022
2250.63472	0.36222
2248.70615	0.36412
2246.77759	0.36616
2244.84902	0.36834
2242.92046	0.37054
2240.99189	0.37270
2239.06333	0.37478
2237.13477	0.37691
2235.20620	0.37921
2233.27764	0.38165
2231.34907	0.38400
2229.42051	0.38611
2227.49194	0.38813
2225.56338	0.39032
2223.63481	0.39271
2221.70625	0.39509
2219.77769	0.39734
2217.84912	0.39951
2215.92056	0.40167
2213.99199	0.40384
2212.06343	0.40596
2210.13486	0.40801
2208.20630	0.41009
2206.27773	0.41232
2204.34917	0.41459
2202.42061	0.41678
2200.49204	0.41890
2198.56348	0.42089
2196.63491	0.42278
2194.70635	0.42459
2192.77778	0.42639
2190.84922	0.42833
2188.92065	0.43035
2186.99209	0.43231
2185.06353	0.43414
2183.13496	0.43588
2181.20640	0.43754
2179.27783	0.43909
2177.34927	0.44070
2175.42070	0.44233
2173.49214	0.44377
2171.56357	0.44506
2169.63501	0.44642
2167.70645	0.44781
2165.77788	0.44910
2163.84932	0.45043
2161.92075	0.45181
2159.99219	0.45299
2158.06362	0.45392
2156.13506	0.45470
2154.20649	0.45544
2152.27793	0.45620
2150.34937	0.45695
2148.42080	0.45758
2146.49224	0.45811
2144.56367	0.45848
2142.63511	0.45874
2140.70654	0.45916
2138.77798	0.45971
2136.84941	0.46004
2134.92085	0.46013
2132.99229	0.46004
2131.06372	0.45977
2129.13516	0.45939
2127.20659	0.45903
2125.27803	0.45866
2123.34946	0.45819
2121.42090	0.45771
2119.49233	0.45720
2117.56377	0.45660
2115.63521	0.45594
2113.70664	0.45516
2111.77808	0.45422
2109.84951	0.45321
2107.92095	0.45214
2105.99238	0.45086
2104.06382	0.44945
2102.13525	0.44807
2100.20669	0.44678
2098.27812	0.44556
2096.34956	0.44431
2094.42100	0.44283
2092.49243	0.44115
2090.56387	0.43943
2088.63530	0.43760
2086.70674	0.43557
2084.77817	0.43350
2082.84961	0.43159
2080.92104	0.42964
2078.99248	0.42753
2077.06392	0.42540
2075.13535	0.42334
2073.20679	0.42121
2071.27822	0.41890
2069.34966	0.41655
2067.42109	0.41430
2065.49253	0.41218
2063.56396	0.40989
2061.63540	0.40727
2059.70684	0.40460
2057.77827	0.40205
2055.84971	0.39957
2053.92114	0.39703
2051.99258	0.39442
2050.06401	0.39176
2048.13545	0.38907
2046.20688	0.38635
2044.27832	0.38371
2042.34976	0.38121
2040.42119	0.37859
2038.49263	0.37568
2036.56406	0.37268
2034.63550	0.36985
2032.70693	0.36710
2030.77837	0.36432
2028.84980	0.36152
2026.92124	0.35870
2024.99268	0.35585
2023.06411	0.35305
2021.13555	0.35037
2019.20698	0.34768
2017.27842	0.34484
2015.34985	0.34195
2013.42129	0.33915
2011.49272	0.33643
2009.56416	0.33373
2007.63560	0.33101
2005.70703	0.32832
2003.77847	0.32567
2001.84990	0.32299
1999.92134	0.32036
1997.99277	0.31776
1996.06421	0.31520
1994.13564	0.31278
1992.20708	0.31044
1990.27852	0.30790
1988.34995	0.30520
1986.42139	0.30254
1984.49282	0.30005
1982.56426	0.29768
1980.63569	0.29530
1978.70713	0.29292
1976.77856	0.29067
1974.85000	0.28856
1972.92144	0.28646
1970.99287	0.28434
1969.06431	0.28236
1967.13574	0.28050
1965.20718	0.27848
1963.27861	0.27639
1961.35005	0.27439
1959.42148	0.27243
1957.49292	0.27056
1955.56436	0.26882
1953.63579	0.26707
1951.70723	0.26524
1949.77866	0.26353
1947.85010	0.26202
1945.92153	0.26075
1943.99297	0.25969
1942.06440	0.25844
1940.13584	0.25669
1938.20728	0.25489
1936.27871	0.25342
1934.35015	0.25211
1932.42158	0.25084
1930.49302	0.24963
1928.56445	0.24851
1926.63589	0.24750
1924.70732	0.24669
1922.77876	0.24589
1920.85020	0.24498
1918.92163	0.24423
1916.99307	0.24338
1915.06450	0.24221
1913.13594	0.24119
1911.20737	0.24058
1909.27881	0.24001
1907.35024	0.23922
1905.42168	0.23839
1903.49312	0.23773
1901.56455	0.23718
1899.63599	0.23667
1897.70742	0.23632
1895.77886	0.23614
1893.85029	0.23590
1891.92173	0.23555
1889.99316	0.23539
1888.06460	0.23510
1886.13604	0.23457
1884.20747	0.23415
1882.27891	0.23396
1880.35034	0.23392
1878.42178	0.23389
1876.49321	0.23388
1874.56465	0.23395
1872.63608	0.23421
1870.70752	0.23489
1868.77896	0.23595
1866.85039	0.23628
1864.92183	0.23567
1862.99326	0.23524
1861.06470	0.23536
1859.13613	0.23584
1857.20757	0.23629
1855.27900	0.23660
1853.35044	0.23684
1851.42187	0.23733
1849.49331	0.23817
1847.56475	0.23925
1845.63618	0.24045
1843.70762	0.24159
1841.77905	0.24205
1839.85049	0.24219
1837.92192	0.24290
1835.99336	0.24380
1834.06479	0.24465
1832.13623	0.24589
1830.20767	0.24778
1828.27910	0.24935
1826.35054	0.25020
1824.42197	0.25128
1822.49341	0.25237
1820.56484	0.25341
1818.63628	0.25469
1816.70771	0.25630
1814.77915	0.25804
1812.85059	0.26003
1810.92202	0.26225
1808.99346	0.26427
1807.06489	0.26606
1805.13633	0.26793
1803.20776	0.27037
1801.27920	0.27326
1799.35063	0.27616
1797.42207	0.27864
1795.49351	0.28118
1793.56494	0.28435
1791.63638	0.28822
1789.70781	0.29139
1787.77925	0.29365
1785.85068	0.29668
1783.92212	0.30043
1781.99355	0.30452
1780.06499	0.30883
1778.13643	0.31305
1776.20786	0.31710
1774.27930	0.32185
1772.35073	0.32836
1770.42217	0.33484
1768.49360	0.33969
1766.56504	0.34429
1764.63647	0.34945
1762.70791	0.35561
1760.77935	0.36332
1758.85078	0.37042
1756.92222	0.37755
1754.99365	0.38527
1753.06509	0.39257
1751.13652	0.40169
1749.20796	0.41278
1747.27939	0.42303
1745.35083	0.43197
1743.42227	0.44169
1741.49370	0.45260
1739.56514	0.46538
1737.63657	0.47811
1735.70801	0.48963
1733.77944	0.50683
1731.85088	0.52637
1729.92231	0.54120
1727.99375	0.55622
1726.06519	0.57291
1724.13662	0.59158
1722.20806	0.61184
1720.27949	0.63101
1718.35093	0.65378
1716.42236	0.68605
1714.49380	0.71581
1712.56523	0.74003
1710.63667	0.76390
1708.70811	0.78984
1706.77954	0.81935
1704.85098	0.85393
1702.92241	0.88474
1700.99385	0.91584
1699.06528	0.96086
1697.13672	1.00107
1695.20815	1.04171
1693.27959	1.08135
1691.35103	1.11350
1689.42246	1.15042
1687.49390	1.18921
1685.56533	1.22687
1683.63677	1.28269
1681.70820	1.33905
1679.77964	1.37594
1677.85107	1.41190
1675.92251	1.45370
1673.99395	1.50377
1672.06538	1.54737
1670.13682	1.58998
1668.20825	1.64332
1666.27969	1.68559
1664.35112	1.72093
1662.42256	1.76390
1660.49399	1.81128
1658.56543	1.84903
1656.63687	1.88072
1654.70830	1.91110
1652.77974	1.96001
1650.85117	2.00858
1648.92261	2.03028
1646.99404	2.05926
1645.06548	2.09305
1643.13691	2.11484
1641.20835	2.12807
1639.27979	2.14052
1637.35122	2.15062
1635.42266	2.15594
1633.49409	2.15362
1631.56553	2.14405
1629.63696	2.13075
1627.70840	2.10799
1625.77983	2.08076
1623.85127	2.04626
1621.92271	2.00339
1619.99414	1.96381
1618.06558	1.92395
1616.13701	1.86774
1614.20845	1.81033
1612.27988	1.76580
1610.35132	1.71883
1608.42275	1.66739
1606.49419	1.61684
1604.56562	1.57062
1602.63706	1.52526
1600.70850	1.47976
1598.77993	1.43738
1596.85137	1.39760
1594.92280	1.35929
1592.99424	1.32204
1591.06567	1.28706
1589.13711	1.25365
1587.20854	1.22189
1585.27998	1.19176
1583.35142	1.16283
1581.42285	1.13582
1579.49429	1.11244
1577.56572	1.09129
1575.63716	1.06518
1573.70859	1.04088
1571.78003	1.02407
1569.85146	1.00603
1567.92290	0.98503
1565.99434	0.96758
1564.06577	0.95271
1562.13721	0.94058
1560.20864	0.93050
1558.28008	0.91215
1556.35151	0.89340
1554.42295	0.88136
1552.49438	0.87008
1550.56582	0.85946
1548.63726	0.84892
1546.70869	0.83974
1544.78013	0.83217
1542.85156	0.82517
1540.92300	0.81701
1538.99443	0.80435
1537.06587	0.79410
1535.13730	0.78789
1533.20874	0.78110
1531.28018	0.77320
1529.35161	0.76679
1527.42305	0.76109
1525.49448	0.75532
1523.56592	0.75028
1521.63735	0.74532
1519.70879	0.73910
1517.78022	0.73317
1515.85166	0.72714
1513.92310	0.72121
1511.99453	0.71675
1510.06597	0.71369
1508.13740	0.71150
1506.20884	0.70680
1504.28027	0.70023
1502.35171	0.69585
1500.42314	0.69270
1498.49458	0.69010
1496.56602	0.68722
1494.63745	0.68366
1492.70889	0.68080
1490.78032	0.67918
1488.85176	0.67732
1486.92319	0.67415
1484.99463	0.67071
1483.06606	0.66788
1481.13750	0.66562
1479.20894	0.66364
1477.28037	0.66205
1475.35181	0.66082
1473.42324	0.65947
1471.49468	0.65657
1469.56611	0.65273
1467.63755	0.64979
1465.70898	0.64768
1463.78042	0.64535
1461.85186	0.64300
1459.92329	0.64157
1457.99473	0.64047
1456.06616	0.63762
1454.13760	0.63381
1452.20903	0.63091
1450.28047	0.62858
1448.35190	0.62661
1446.42334	0.62453
1444.49478	0.62220
1442.56621	0.62007
1440.63765	0.61834
1438.70908	0.61720
1436.78052	0.61629
1434.85195	0.61468
1432.92339	0.61269
1430.99482	0.61091
1429.06626	0.60907
1427.13770	0.60727
1425.20913	0.60585
1423.28057	0.60456
1421.35200	0.60329
1419.42344	0.60236
1417.49487	0.60098
1415.56631	0.59856
1413.63774	0.59626
1411.70918	0.59456
1409.78062	0.59312
1407.85205	0.59163
1405.92349	0.59026
1403.99492	0.58889
1402.06636	0.58732
1400.13779	0.58600
1398.20923	0.58507
1396.28066	0.58415
1394.35210	0.58276
1392.42354	0.58101
1390.49497	0.57949
1388.56641	0.57840
1386.63784	0.57730
1384.70928	0.57592
1382.78071	0.57460
1380.85215	0.57354
1378.92358	0.57266
1376.99502	0.57200
1375.06646	0.57166
1373.13789	0.57112
1371.20933	0.57014
1369.28076	0.56909
1367.35220	0.56797
1365.42363	0.56703
1363.49507	0.56658
1361.56650	0.56595
1359.63794	0.56468
1357.70937	0.56327
1355.78081	0.56201
1353.85225	0.56093
1351.92368	0.55994
1349.99512	0.55896
1348.06655	0.55781
1346.13799	0.55657
1344.20942	0.55559
1342.28086	0.55502
1340.35229	0.55471
1338.42373	0.55405
1336.49517	0.55271
1334.56660	0.55125
1332.63804	0.55015
1330.70947	0.54927
1328.78091	0.54831
1326.85234	0.54738
1324.92378	0.54663
1322.99521	0.54599
1321.06665	0.54541
1319.13809	0.54476
1317.20952	0.54380
1315.28096	0.54271
1313.35239	0.54178
1311.42383	0.54092
1309.49526	0.53998
1307.56670	0.53909
1305.63813	0.53833
1303.70957	0.53760
1301.78101	0.53681
1299.85244	0.53595
1297.92388	0.53511
1295.99531	0.53429
1294.06675	0.53357
1292.13818	0.53310
1290.20962	0.53277
1288.28105	0.53231
1286.35249	0.53174
1284.42393	0.53122
1282.49536	0.53070
1280.56680	0.53010
1278.63823	0.52947
1276.70967	0.52887
1274.78110	0.52824
1272.85254	0.52763
1270.92397	0.52713
1268.99541	0.52668
1267.06685	0.52629
1265.13828	0.52595
1263.20972	0.52553
1261.28115	0.52504
1259.35259	0.52463
1257.42402	0.52430
1255.49546	0.52390
1253.56689	0.52348
1251.63833	0.52316
1249.70977	0.52287
1247.78120	0.52250
1245.85264	0.52212
1243.92407	0.52173
1241.99551	0.52131
1240.06694	0.52086
1238.13838	0.52038
1236.20981	0.51981
1234.28125	0.51915
1232.35269	0.51848
1230.42412	0.51788
1228.49556	0.51734
1226.56699	0.51670
1224.63843	0.51598
1222.70986	0.51526
1220.78130	0.51452
1218.85273	0.51380
1216.92417	0.51324
1214.99561	0.51280
1213.06704	0.51238
1211.13848	0.51180
1209.20991	0.51096
1207.28135	0.51018
1205.35278	0.50971
1203.42422	0.50938
1201.49565	0.50892
1199.56709	0.50830
1197.63853	0.50770
1195.70996	0.50716
1193.78140	0.50663
1191.85283	0.50608
1189.92427	0.50553
1187.99570	0.50503
1186.06714	0.50468
1184.13857	0.50460
1182.21001	0.50475
1180.28145	0.50496
1178.35288	0.50518
1176.42432	0.50556
1174.49575	0.50619
1172.56719	0.50693
1170.63862	0.50765
1168.71006	0.50846
1166.78149	0.50934
1164.85293	0.51020
1162.92437	0.51112
1160.99580	0.51187
1159.06724	0.51214
1157.13867	0.51201
1155.21011	0.51152
1153.28154	0.51047
1151.35298	0.50903
1149.42441	0.50745
1147.49585	0.50553
1145.56729	0.50318
1143.63872	0.50057
1141.71016	0.49797
1139.78159	0.49573
1137.85303	0.49389
1135.92446	0.49221
1133.99590	0.49074
1132.06733	0.48957
1130.13877	0.48844
1128.21021	0.48707
1126.28164	0.48576
1124.35308	0.48495
1122.42451	0.48443
1120.49595	0.48379
1118.56738	0.48328
1116.63882	0.48347
1114.71025	0.48414
1112.78169	0.48474
1110.85312	0.48515
1108.92456	0.48552
1106.99600	0.48617
1105.06743	0.48727
1103.13887	0.48863
1101.21030	0.49014
1099.28174	0.49180
1097.35317	0.49389
1095.42461	0.49672
1093.49604	0.50039
1091.56748	0.50496
1089.63892	0.51072
1087.71035	0.51777
1085.78179	0.52577
1083.85322	0.53399
1081.92466	0.54143
1079.99609	0.54731
1078.06753	0.55112
1076.13896	0.55211
1074.21040	0.54985
1072.28184	0.54496
1070.35327	0.53857
1068.42471	0.53153
1066.49614	0.52455
1064.56758	0.51819
1062.63901	0.51262
1060.71045	0.50779
1058.78188	0.50363
1056.85332	0.49991
1054.92476	0.49649
1052.99619	0.49347
1051.06763	0.49120
1049.13906	0.48986
1047.21050	0.48922
1045.28193	0.48902
1043.35337	0.48909
1041.42480	0.48931
1039.49624	0.48962
1037.56768	0.48980
1035.63911	0.48963
1033.71055	0.48917
1031.78198	0.48862
1029.85342	0.48797
1027.92485	0.48723
1025.99629	0.48636
1024.06772	0.48551
1022.13916	0.48511
1020.21060	0.48522
1018.28203	0.48539
1016.35347	0.48534
1014.42490	0.48541
1012.49634	0.48587
1010.56777	0.48642
1008.63921	0.48687
1006.71064	0.48771
1004.78208	0.48930
1002.85352	0.49142
1000.92495	0.49390
998.99639	0.49696
997.06782	0.50075
995.13926	0.50502
993.21069	0.50912
991.28213	0.51235
989.35356	0.51430
987.42500	0.51512
985.49644	0.51547
983.56787	0.51581
981.63931	0.51628
979.71074	0.51728
977.78218	0.51917
975.85361	0.52160
973.92505	0.52410
971.99648	0.52690
970.06792	0.53021
968.13936	0.53394
966.21079	0.53817
964.28223	0.54284
962.35366	0.54764
960.42510	0.55255
958.49653	0.55774
956.56797	0.56327
954.63940	0.56932
952.71084	0.57581
950.78228	0.58254
948.85371	0.58916
946.92515	0.59521
944.99658	0.60103
943.06802	0.60705
941.13945	0.61303
939.21089	0.61890
937.28232	0.62455
935.35376	0.62999
933.42520	0.63597
931.49663	0.64211
929.56807	0.64749
927.63950	0.65244
925.71094	0.65768
923.78237	0.66372
921.85381	0.67024
919.92524	0.67670
917.99668	0.68375
916.06812	0.69180
914.13955	0.70016
912.21099	0.70812
910.28242	0.71602
908.35386	0.72462
906.42529	0.73367
904.49673	0.74286
902.56816	0.75208
900.63960	0.76025
898.71104	0.76817
896.78247	0.77769
894.85391	0.78801
892.92534	0.79855
890.99678	0.80950
889.06821	0.81972
887.13965	0.83003
885.21108	0.84198
883.28252	0.85468
881.35396	0.86746
879.42539	0.87952
877.49683	0.88990
875.56826	0.89962
873.63970	0.91012
871.71113	0.92225
869.78257	0.93546
867.85400	0.94775
865.92544	0.95815
863.99687	0.96800
862.06831	0.97826
860.13975	0.98875
858.21118	1.00033
856.28262	1.01303
854.35405	1.02506
852.42549	1.03493
850.49692	1.04563
848.56836	1.06030
846.63979	1.07524
844.71123	1.08710
842.78267	1.09701
840.85410	1.10648
838.92554	1.11679
836.99697	1.12750
835.06841	1.13600
833.13984	1.14454
831.21128	1.15531
829.28271	1.16487
827.35415	1.17660
825.42559	1.19382
823.49702	1.20730
821.56846	1.21178
819.63989	1.22035
817.71133	1.23525
815.78276	1.24044
813.85420	1.23809
811.92563	1.24733
809.99707	1.27563
808.06851	1.30356
806.13994	1.31549
804.21138	1.32124
802.28281	1.31810
800.35425	1.29344
798.42568	1.26964
796.49712	1.28189
794.56855	1.31933
792.63999	1.34493
790.71143	1.37014
788.78286	1.41507
786.85430	1.41019
784.92573	1.35218
782.99717	1.32008
781.06860	1.29338
779.14004	1.26492
777.21147	1.27174
775.28291	1.29051
773.35435	1.28431
771.42578	1.29396
769.49722	1.35875
767.56865	1.46330
765.64009	1.51508
763.71152	1.38703
761.78296	1.21437
759.85439	1.15620
757.92583	1.20688
755.99727	1.21609
754.06870	1.23290
752.14014	1.44235
750.21157	1.65898
748.28301	1.40874
746.35444	1.17583
744.42588	1.02609
742.49731	0.94125
740.56875	0.87954
738.64019	0.81806
736.71162	0.80664
734.78306	0.86663
732.85449	0.88199
730.92593	0.78071
728.99736	0.68312
727.06880	0.61229
725.14023	0.46345
723.21167	0.24781
721.28311	0.11628
719.35454	0.08228
717.42598	0.04180
715.49741	0.09337
713.56885	0.28414
711.64028	0.27836
709.71172	0.18238
707.78315	0.14370
705.85459	0.16324
703.92603	0.23940
701.99746	0.35898
700.06890	0.42876
698.14033	0.37872
696.21177	0.29584
694.28320	0.26952
692.35464	0.28969
690.42607	0.33496
688.49751	0.46723
686.56895	0.65745
684.64038	0.39531
682.71182	0.17482
680.78325	0.17587
678.85469	0.30627
676.92612	0.44947
674.99756	0.42302
673.06899	0.32304
671.14043	0.25610
669.21187	0.25691
667.28330	0.31650
665.35474	0.33668
663.42617	0.36429
661.49761	0.41923
659.56904	0.34947
657.64048	0.25422
655.71191	0.26195
653.78335	0.33529
651.85479	0.30574
649.92622	0.18760
647.99766	0.19741
646.06909	0.24756
644.14053	0.21867
642.21196	0.23478
640.28340	0.34153
638.35483	0.39429
636.42627	0.38530
634.49771	0.41287
632.56914	0.44374
630.64058	0.41453
628.71201	0.40885
626.78345	0.44764
624.85488	0.41914
622.92632	0.35232
620.99775	0.34263
619.06919	0.34947
617.14062	0.34295
615.21206	0.34160
613.28350	0.36581
611.35493	0.36996
609.42637	0.30774
607.49780	0.26115
605.56924	0.27289
603.64067	0.25815
601.71211	0.19377
599.78354	0.16826
597.85498	0.22856
595.92642	0.29816
593.99785	0.32697
592.06929	0.33499
590.14072	0.26210
588.21216	0.20045
586.28359	0.21382
584.35503	0.23932
582.42646	0.24744
580.49790	0.30828
578.56934	0.38723
576.64077	0.40533
574.71221	0.42852
572.78364	0.53251
570.85508	0.62254
568.92651	0.50739
566.99795	0.36344
565.06938	0.28136
563.14082	0.25451
561.21226	0.28446
559.28369	0.32509
557.35513	0.27990
555.42656	0.18884
553.49800	0.16398
551.56943	0.23465
549.64087	0.31295
547.71230	0.31532
545.78374	0.31015
543.85518	0.33072
541.92661	0.30980
539.99805	0.27076
538.06948	0.24866
536.14092	0.23975
534.21235	0.25247
532.28379	0.26666
530.35522	0.24086
528.42666	0.23168
526.49810	0.30606
524.56953	0.35626
522.64097	0.25173
520.71240	0.20235
518.78384	0.23050
516.85527	0.22877
514.92671	0.20113
512.99814	0.20748
511.06958	0.21723
509.14102	0.16058
507.21245	0.09432
505.28389	0.09245
503.35532	0.14455
501.42676	0.19081
499.49819	0.21674
