3997.91411	0.07271
3995.98555	0.07342
3994.05698	0.07430
3992.12842	0.07528
3990.19985	0.07596
3988.27129	0.07594
3986.34272	0.07562
3984.41416	0.07566
3982.48560	0.07604
3980.55703	0.07647
3978.62847	0.07704
3976.69990	0.07779
3974.77134	0.07803
3972.84277	0.07769
3970.91421	0.07747
3968.98564	0.07749
3967.05708	0.07760
3965.12852	0.07782
3963.19995	0.07807
3961.27139	0.07808
3959.34282	0.07791
3957.41426	0.07804
3955.48569	0.07853
3953.55713	0.07887
3951.62856	0.07879
3949.70000	0.07862
3947.77144	0.07883
3945.84287	0.07914
3943.91431	0.07914
3941.98574	0.07891
3940.05718	0.07860
3938.12861	0.07862
3936.20005	0.07895
3934.27148	0.07912
3932.34292	0.07906
3930.41436	0.07884
3928.48579	0.07846
3926.55723	0.07838
3924.62866	0.07880
3922.70010	0.07900
3920.77153	0.07886
3918.84297	0.07893
3916.91440	0.07892
3914.98584	0.07833
3913.05728	0.07756
3911.12871	0.07704
3909.20015	0.07672
3907.27158	0.07677
3905.34302	0.07723
3903.41445	0.07798
3901.48589	0.07876
3899.55732	0.07906
3897.62876	0.07860
3895.70020	0.07788
3893.77163	0.07761
3891.84307	0.07777
3889.91450	0.07790
3887.98594	0.07786
3886.05737	0.07807
3884.12881	0.07867
3882.20024	0.07941
3880.27168	0.07982
3878.34312	0.07942
3876.41455	0.07895
3874.48599	0.07930
3872.55742	0.08005
3870.62886	0.08030
3868.70029	0.08020
3866.77173	0.08017
3864.84316	0.08043
3862.91460	0.08070
3860.98604	0.08035
3859.05747	0.08001
3857.12891	0.08032
3855.20034	0.08092
3853.27178	0.08187
3851.34321	0.08305
3849.41465	0.08314
3847.48608	0.08274
3845.55752	0.08262
3843.62896	0.08317
3841.70039	0.08445
3839.77183	0.08613
3837.84326	0.08776
3835.91470	0.08846
3833.98613	0.08843
3832.05757	0.08857
3830.12900	0.08876
3828.20044	0.08904
3826.27187	0.08989
3824.34331	0.09115
3822.41475	0.09255
3820.48618	0.09413
3818.55762	0.09494
3816.62905	0.09494
3814.70049	0.09494
3812.77192	0.09515
3810.84336	0.09573
3808.91479	0.09676
3806.98623	0.09807
3805.05767	0.09926
3803.12910	0.10073
3801.20054	0.10296
3799.27197	0.10459
3797.34341	0.10512
3795.41484	0.10556
3793.48628	0.10590
3791.55771	0.10644
3789.62915	0.10743
3787.70059	0.10887
3785.77202	0.11068
3783.84346	0.11214
3781.91489	0.11317
3779.98633	0.11488
3778.05776	0.11723
3776.12920	0.11888
3774.20063	0.12002
3772.27207	0.12126
3770.34351	0.12284
3768.41494	0.12497
3766.48638	0.12724
3764.55781	0.12930
3762.62925	0.13076
3760.70068	0.13223
3758.77212	0.13506
3756.84355	0.13849
3754.91499	0.14098
3752.98643	0.14355
3751.05786	0.14711
3749.12930	0.15065
3747.20073	0.15296
3745.27217	0.15503
3743.34360	0.15794
3741.41504	0.16100
3739.48647	0.16411
3737.55791	0.16788
3735.62935	0.17255
3733.70078	0.17804
3731.77222	0.18293
3729.84365	0.18707
3727.91509	0.19142
3725.98652	0.19676
3724.05796	0.20274
3722.12939	0.20871
3720.20083	0.21511
3718.27227	0.22216
3716.34370	0.22954
3714.41514	0.23694
3712.48657	0.24596
3710.55801	0.25873
3708.62944	0.27235
3706.70088	0.28394
3704.77231	0.29528
3702.84375	0.30802
3700.91519	0.32409
3698.98662	0.34200
3697.05806	0.35922
3695.12949	0.37744
3693.20093	0.39693
3691.27236	0.41779
3689.34380	0.44380
3687.41523	0.47630
3685.48667	0.50673
3683.55811	0.53347
3681.62954	0.56146
3679.70098	0.59254
3677.77241	0.62504
3675.84385	0.66264
3673.91528	0.71237
3671.98672	0.75516
3670.05815	0.79446
3668.12959	0.84630
3666.20103	0.89429
3664.27246	0.93508
3662.34390	0.97758
3660.41533	1.02313
3658.48677	1.06914
3656.55820	1.11822
3654.62964	1.17173
3652.70107	1.21698
3650.77251	1.25707
3648.84395	1.31113
3646.91538	1.37617
3644.98682	1.42610
3643.05825	1.46596
3641.12969	1.50606
3639.20112	1.54965
3637.27256	1.59411
3635.34399	1.63743
3633.41543	1.68001
3631.48687	1.71916
3629.55830	1.75810
3627.62974	1.80978
3625.70117	1.86060
3623.77261	1.89599
3621.84404	1.92894
3619.91548	1.96630
3617.98691	2.01064
3616.05835	2.05283
3614.12979	2.08971
3612.20122	2.12988
3610.27266	2.17013
3608.34409	2.20990
3606.41553	2.25117
3604.48696	2.28967
3602.55840	2.32453
3600.62983	2.36124
3598.70127	2.40132
3596.77271	2.44136
3594.84414	2.48211
3592.91558	2.52579
3590.98701	2.56754
3589.05845	2.60390
3587.12988	2.64523
3585.20132	2.69215
3583.27275	2.73275
3581.34419	2.76941
3579.41562	2.80930
3577.48706	2.85422
3575.55850	2.90021
3573.62993	2.94375
3571.70137	2.98380
3569.77280	3.02270
3567.84424	3.06553
3565.91567	3.11674
3563.98711	3.16483
3562.05854	3.20665
3560.12998	3.25126
3558.20142	3.29791
3556.27285	3.34304
3554.34429	3.38631
3552.41572	3.43234
3550.48716	3.47963
3548.55859	3.52345
3546.63003	3.56808
3544.70146	3.61864
3542.77290	3.66839
3540.84434	3.71283
3538.91577	3.75938
3536.98721	3.80903
3535.05864	3.85727
3533.13008	3.90296
3531.20151	3.94872
3529.27295	3.99610
3527.34438	4.04450
3525.41582	4.09009
3523.48726	4.13489
3521.55869	4.18400
3519.63013	4.23196
3517.70156	4.27878
3515.77300	4.32917
3513.84443	4.37835
3511.91587	4.42385
3509.98730	4.47459
3508.05874	4.53251
3506.13018	4.58670
3504.20161	4.63265
3502.27305	4.67947
3500.34448	4.73104
3498.41592	4.77600
3496.48735	4.81361
3494.55879	4.85440
3492.63022	4.90406
3490.70166	4.95840
3488.77310	5.00928
3486.84453	5.05768
3484.91597	5.10807
3482.98740	5.15769
3481.05884	5.20297
3479.13027	5.24739
3477.20171	5.29256
3475.27314	5.33699
3473.34458	5.38409
3471.41602	5.43096
3469.48745	5.47722
3467.55889	5.52571
3465.63032	5.57064
3463.70176	5.61569
3461.77319	5.66236
3459.84463	5.71097
3457.91606	5.77080
3455.98750	5.83698
3454.05894	5.89671
3452.13037	5.94699
3450.20181	5.98298
3448.27324	6.00717
3446.34468	6.03897
3444.41611	6.08444
3442.48755	6.13485
3440.55898	6.18488
3438.63042	6.24279
3436.70186	6.30248
3434.77329	6.35658
3432.84473	6.41267
3430.91616	6.45297
3428.98760	6.48020
3427.05903	6.52126
3425.13047	6.57725
3423.20190	6.64042
3421.27334	6.70680
3419.34478	6.74713
3417.41621	6.76391
3415.48765	6.79834
3413.55908	6.85439
3411.63052	6.91664
3409.70195	6.96555
3407.77339	7.00985
3405.84482	7.05585
3403.91626	7.08924
3401.98770	7.09494
3400.05913	7.09286
3398.13057	7.13697
3396.20200	7.21718
3394.27344	7.28240
3392.34487	7.32799
3390.41631	7.37688
3388.48774	7.41441
3386.55918	7.44285
3384.63062	7.46675
3382.70205	7.47809
3380.77349	7.48496
3378.84492	7.47416
3376.91636	7.46961
3374.98779	7.51213
3373.05923	7.57778
3371.13066	7.60383
3369.20210	7.61118
3367.27354	7.66638
3365.34497	7.75039
3363.41641	7.79001
3361.48784	7.80542
3359.55928	7.84043
3357.63071	7.84323
3355.70215	7.79708
3353.77358	7.76964
3351.84502	7.81920
3349.91646	7.89738
3347.98789	7.93553
3346.05933	7.92281
3344.13076	7.88463
3342.20220	7.86520
3340.27363	7.86110
3338.34507	7.86434
3336.41650	7.89114
3334.48794	7.92822
3332.55937	7.91756
3330.63081	7.91171
3328.70225	7.97390
3326.77368	8.05230
3324.84512	8.10273
3322.91655	8.11139
3320.98799	8.06840
3319.05942	7.98631
3317.13086	7.95758
3315.20229	8.01320
3313.27373	8.05118
3311.34517	8.03004
3309.41660	8.02820
3307.48804	8.07744
3305.55947	8.12382
3303.63091	8.13129
3301.70234	8.14663
3299.77378	8.19195
3297.84521	8.18780
3295.91665	8.14385
3293.98809	8.12845
3292.05952	8.11715
3290.13096	8.05553
3288.20239	7.98107
3286.27383	7.96730
3284.34526	8.02401
3282.41670	8.08380
3280.48813	8.09200
3278.55957	8.08977
3276.63101	8.01864
3274.70244	7.90575
3272.77388	7.92357
3270.84531	8.03922
3268.91675	8.07602
3266.98818	8.06073
3265.05962	8.10045
3263.13105	8.14770
3261.20249	8.15101
3259.27393	8.11230
3257.34536	8.09340
3255.41680	8.10931
3253.48823	8.12583
3251.55967	8.14759
3249.63110	8.11860
3247.70254	8.04582
3245.77397	7.99893
3243.84541	7.97488
3241.91685	7.96568
3239.98828	8.00908
3238.05972	8.07114
3236.13115	8.07826
3234.20259	8.04405
3232.27402	8.00316
3230.34546	7.96989
3228.41689	7.94036
3226.48833	7.91677
3224.55977	7.92283
3222.63120	7.98701
3220.70264	8.06629
3218.77407	8.08230
3216.84551	8.03228
3214.91694	7.94346
3212.98838	7.85407
3211.05981	7.81318
3209.13125	7.84484
3207.20269	7.92119
3205.27412	7.98529
3203.34556	7.97046
3201.41699	7.84381
3199.48843	7.70148
3197.55986	7.64922
3195.63130	7.66123
3193.70273	7.64249
3191.77417	7.56235
3189.84561	7.48259
3187.91704	7.46015
3185.98848	7.46070
3184.05991	7.41045
3182.13135	7.31409
3180.20278	7.23130
3178.27422	7.15512
3176.34565	7.08852
3174.41709	7.09094
3172.48853	7.10399
3170.55996	7.03167
3168.63140	6.94735
3166.70283	6.90676
3164.77427	6.84542
3162.84570	6.74711
3160.91714	6.65766
3158.98857	6.59567
3157.06001	6.57103
3155.13145	6.56782
3153.20288	6.52554
3151.27432	6.43378
3149.34575	6.34288
3147.41719	6.27352
3145.48862	6.21468
3143.56006	6.15682
3141.63149	6.09175
3139.70293	6.01141
3137.77437	5.92330
3135.84580	5.84092
3133.91724	5.77069
3131.98867	5.71312
3130.06011	5.65720
3128.13154	5.58804
3126.20298	5.50690
3124.27441	5.43143
3122.34585	5.36501
3120.41729	5.29673
3118.48872	5.22715
3116.56016	5.15996
3114.63159	5.09410
3112.70303	5.02682
3110.77446	4.95319
3108.84590	4.87867
3106.91733	4.81437
3104.98877	4.75337
3103.06021	4.68305
3101.13164	4.61104
3099.20308	4.54775
3097.27451	4.48710
3095.34595	4.42350
3093.41738	4.35873
3091.48882	4.29403
3089.56025	4.23112
3087.63169	4.16943
3085.70312	4.10658
3083.77456	4.04488
3081.84600	3.98611
3079.91743	3.92704
3077.98887	3.86560
3076.06030	3.80203
3074.13174	3.73911
3072.20317	3.68061
3070.27461	3.62593
3068.34604	3.57179
3066.41748	3.51610
3064.48892	3.45864
3062.56035	3.40262
3060.63179	3.35084
3058.70322	3.29979
3056.77466	3.24581
3054.84609	3.19093
3052.91753	3.13788
3050.98896	3.08606
3049.06040	3.03401
3047.13184	2.98284
3045.20327	2.93341
3043.27471	2.88425
3041.34614	2.83524
3039.41758	2.78817
3037.48901	2.74243
3035.56045	2.69641
3033.63188	2.65075
3031.70332	2.60586
3029.77476	2.56135
3027.84619	2.51710
3025.91763	2.47316
3023.98906	2.43039
3022.06050	2.38885
3020.13193	2.34734
3018.20337	2.30581
3016.27480	2.26468
3014.34624	2.22397
3012.41768	2.18455
3010.48911	2.14709
3008.56055	2.11090
3006.63198	2.07489
3004.70342	2.03863
3002.77485	2.00303
3000.84629	1.96899
2998.91772	1.93547
2996.98916	1.90188
2995.06060	1.86939
2993.13203	1.83821
2991.20347	1.80766
2989.27490	1.77743
2987.34634	1.74783
2985.41777	1.71946
2983.48921	1.69177
2981.56064	1.66406
2979.63208	1.63694
2977.70352	1.61070
2975.77495	1.58472
2973.84639	1.55908
2971.91782	1.53403
2969.98926	1.50941
2968.06069	1.48532
2966.13213	1.46177
2964.20356	1.43843
2962.27500	1.41462
2960.34644	1.39032
2958.41787	1.36644
2956.48931	1.34330
2954.56074	1.32013
2952.63218	1.29634
2950.70361	1.27271
2948.77505	1.24982
2946.84648	1.22716
2944.91792	1.20524
2942.98936	1.18446
2941.06079	1.16356
2939.13223	1.14228
2937.20366	1.12154
2935.27510	1.10132
2933.34653	1.08121
2931.41797	1.06093
2929.48940	1.04018
2927.56084	1.01970
2925.63228	1.00020
2923.70371	0.98159
2921.77515	0.96401
2919.84658	0.94720
2917.91802	0.93054
2915.98945	0.91407
2914.06089	0.89780
2912.13232	0.88183
2910.20376	0.86658
2908.27520	0.85197
2906.34663	0.83721
2904.41807	0.82215
2902.48950	0.80780
2900.56094	0.79437
2898.63237	0.78113
2896.70381	0.76815
2894.77524	0.75558
2892.84668	0.74302
2890.91812	0.73058
2888.98955	0.71884
2887.06099	0.70794
2885.13242	0.69762
2883.20386	0.68769
2881.27529	0.67812
2879.34673	0.66875
2877.41816	0.65918
2875.48960	0.64915
2873.56104	0.63888
2871.63247	0.62847
2869.70391	0.61742
2867.77534	0.60558
2865.84678	0.59345
2863.91821	0.58160
2861.98965	0.57014
2860.06108	0.55873
2858.13252	0.54753
2856.20396	0.53681
2854.27539	0.52664
2852.34683	0.51749
2850.41826	0.50961
2848.48970	0.50235
2846.56113	0.49511
2844.63257	0.48814
2842.70400	0.48157
2840.77544	0.47506
2838.84687	0.46861
2836.91831	0.46251
2834.98975	0.45660
2833.06118	0.45055
2831.13262	0.44434
2829.20405	0.43819
2827.27549	0.43223
2825.34692	0.42636
2823.41836	0.42045
2821.48979	0.41457
2819.56123	0.40882
2817.63267	0.40308
2815.70410	0.39734
2813.77554	0.39186
2811.84697	0.38665
2809.91841	0.38140
2807.98984	0.37604
2806.06128	0.37066
2804.13271	0.36541
2802.20415	0.36038
2800.27559	0.35543
2798.34702	0.35049
2796.41846	0.34574
2794.48989	0.34119
2792.56133	0.33665
2790.63276	0.33204
2788.70420	0.32736
2786.77563	0.32295
2784.84707	0.31884
2782.91851	0.31462
2780.98994	0.31033
2779.06138	0.30628
2777.13281	0.30245
2775.20425	0.29861
2773.27568	0.29472
2771.34712	0.29095
2769.41855	0.28730
2767.48999	0.28368
2765.56143	0.28007
2763.63286	0.27657
2761.70430	0.27329
2759.77573	0.27019
2757.84717	0.26709
2755.91860	0.26388
2753.99004	0.26058
2752.06147	0.25739
2750.13291	0.25441
2748.20435	0.25147
2746.27578	0.24854
2744.34722	0.24567
2742.41865	0.24279
2740.49009	0.23997
2738.56152	0.23735
2736.63296	0.23493
2734.70439	0.23257
2732.77583	0.23019
2730.84727	0.22773
2728.91870	0.22530
2726.99014	0.22306
2725.06157	0.22095
2723.13301	0.21880
2721.20444	0.21666
2719.27588	0.21450
2717.34731	0.21229
2715.41875	0.21027
2713.49019	0.20855
2711.56162	0.20701
2709.63306	0.20550
2707.70449	0.20375
2705.77593	0.20166
2703.84736	0.19960
2701.91880	0.19792
2699.99023	0.19656
2698.06167	0.19534
2696.13311	0.19403
2694.20454	0.19264
2692.27598	0.19125
2690.34741	0.18978
2688.41885	0.18823
2686.49028	0.18686
2684.56172	0.18581
2682.63315	0.18495
2680.70459	0.18395
2678.77603	0.18275
2676.84746	0.18154
2674.91890	0.18035
2672.99033	0.17923
2671.06177	0.17817
2669.13320	0.17716
2667.20464	0.17625
2665.27607	0.17538
2663.34751	0.17451
2661.41895	0.17368
2659.49038	0.17287
2657.56182	0.17207
2655.63325	0.17124
2653.70469	0.17038
2651.77612	0.16959
2649.84756	0.16894
2647.91899	0.16829
2645.99043	0.16764
2644.06187	0.16710
2642.13330	0.16653
2640.20474	0.16591
2638.27617	0.16540
2636.34761	0.16497
2634.41904	0.16444
2632.49048	0.16395
2630.56191	0.16368
2628.63335	0.16345
2626.70479	0.16318
2624.77622	0.16285
2622.84766	0.16243
2620.91909	0.16198
2618.99053	0.16170
2617.06196	0.16158
2615.13340	0.16146
2613.20483	0.16131
2611.27627	0.16108
2609.34771	0.16077
2607.41914	0.16059
2605.49058	0.16052
2603.56201	0.16038
2601.63345	0.16034
2599.70488	0.16043
2597.77632	0.16053
2595.84775	0.16060
2593.91919	0.16057
2591.99062	0.16048
2590.06206	0.16043
2588.13350	0.16042
2586.20493	0.16048
2584.27637	0.16074
2582.34780	0.16100
2580.41924	0.16110
2578.49067	0.16119
2576.56211	0.16143
2574.63354	0.16178
2572.70498	0.16218
2570.77642	0.16257
2568.84785	0.16289
2566.91929	0.16321
2564.99072	0.16364
2563.06216	0.16409
2561.13359	0.16452
2559.20503	0.16498
2557.27646	0.16545
2555.34790	0.16588
2553.41934	0.16621
2551.49077	0.16644
2549.56221	0.16674
2547.63364	0.16719
2545.70508	0.16780
2543.77651	0.16849
2541.84795	0.16917
2539.91938	0.16980
2537.99082	0.17033
2536.06226	0.17088
2534.13369	0.17156
2532.20513	0.17224
2530.27656	0.17287
2528.34800	0.17355
2526.41943	0.17421
2524.49087	0.17484
2522.56230	0.17548
2520.63374	0.17617
2518.70518	0.17691
2516.77661	0.17769
2514.84805	0.17851
2512.91948	0.17922
2510.99092	0.17979
2509.06235	0.18043
2507.13379	0.18122
2505.20522	0.18203
2503.27666	0.18276
2501.34810	0.18342
2499.41953	0.18424
2497.49097	0.18518
2495.56240	0.18602
2493.63384	0.18675
2491.70527	0.18753
2489.77671	0.18841
2487.84814	0.18927
2485.91958	0.19005
2483.99102	0.19085
2482.06245	0.19169
2480.13389	0.19249
2478.20532	0.19326
2476.27676	0.19416
2474.34819	0.19522
2472.41963	0.19619
2470.49106	0.19699
2468.56250	0.19783
2466.63394	0.19873
2464.70537	0.19950
2462.77681	0.20019
2460.84824	0.20095
2458.91968	0.20181
2456.99111	0.20281
2455.06255	0.20396
2453.13398	0.20510
2451.20542	0.20611
2449.27686	0.20699
2447.34829	0.20784
2445.41973	0.20875
2443.49116	0.20977
2441.56260	0.21081
2439.63403	0.21180
2437.70547	0.21273
2435.77690	0.21371
2433.84834	0.21475
2431.91978	0.21574
2429.99121	0.21670
2428.06265	0.21764
2426.13408	0.21861
2424.20552	0.21971
2422.27695	0.22084
2420.34839	0.22187
2418.41982	0.22284
2416.49126	0.22389
2414.56270	0.22511
2412.63413	0.22639
2410.70557	0.22759
2408.77700	0.22872
2406.84844	0.22984
2404.91987	0.23102
2402.99131	0.23223
2401.06274	0.23333
2399.13418	0.23440
2397.20562	0.23565
2395.27705	0.23695
2393.34849	0.23815
2391.41992	0.23938
2389.49136	0.24071
2387.56279	0.24204
2385.63423	0.24344
2383.70566	0.24513
2381.77710	0.24731
2379.84854	0.24983
2377.91997	0.25226
2375.99141	0.25467
2374.06284	0.25758
2372.13428	0.26095
2370.20571	0.26431
2368.27715	0.26748
2366.34858	0.27058
2364.42002	0.27255
2362.49146	0.27284
2360.56289	0.27423
2358.63433	0.27721
2356.70576	0.27876
2354.77720	0.27939
2352.84863	0.27995
2350.92007	0.27945
2348.99150	0.27886
2347.06294	0.27954
2345.13437	0.28202
2343.20581	0.28568
2341.27725	0.28883
2339.34868	0.29096
2337.42012	0.29234
2335.49155	0.29312
2333.56299	0.29375
2331.63442	0.29499
2329.70586	0.29670
2327.77729	0.29851
2325.84873	0.29994
2323.92017	0.30090
2321.99160	0.30172
2320.06304	0.30228
2318.13447	0.30284
2316.20591	0.30367
2314.27734	0.30462
2312.34878	0.30580
2310.42021	0.30718
2308.49165	0.30838
2306.56309	0.30946
2304.63452	0.31074
2302.70596	0.31231
2300.77739	0.31398
2298.84883	0.31549
2296.92026	0.31699
2294.99170	0.31867
2293.06313	0.32049
2291.13457	0.32225
2289.20601	0.32388
2287.27744	0.32556
2285.34888	0.32736
2283.42031	0.32910
2281.49175	0.33081
2279.56318	0.33273
2277.63462	0.33482
2275.70605	0.33696
2273.77749	0.33910
2271.84893	0.34115
2269.92036	0.34312
2267.99180	0.34508
2266.06323	0.34720
2264.13467	0.34944
2262.20610	0.35155
2260.27754	0.35357
2258.34897	0.35561
2256.42041	0.35760
2254.49185	0.35967
2252.56328	0.36194
2250.63472	0.36428
2248.70615	0.36641
2246.77759	0.36831
2244.84902	0.37035
2242.92046	0.37273
2240.99189	0.37523
2239.06333	0.37752
2237.13477	0.37959
2235.20620	0.38168
2233.27764	0.38381
2231.34907	0.38594
2229.42051	0.38809
2227.49194	0.39033
2225.56338	0.39260
2223.63481	0.39475
2221.70625	0.39682
2219.77769	0.39900
2217.84912	0.40125
2215.92056	0.40346
2213.99199	0.40572
2212.06343	0.40798
2210.13486	0.41002
2208.20630	0.41199
2206.27773	0.41409
2204.34917	0.41623
2202.42061	0.41833
2200.49204	0.42040
2198.56348	0.42244
2196.63491	0.42444
2194.70635	0.42644
2192.77778	0.42828
2190.84922	0.42998
2188.92065	0.43171
2186.99209	0.43352
2185.06353	0.43529
2183.13496	0.43698
2181.20640	0.43866
2179.27783	0.44033
2177.34927	0.44188
2175.42070	0.44334
2173.49214	0.44484
2171.56357	0.44633
2169.63501	0.44769
2167.70645	0.44890
2165.77788	0.45012
2163.84932	0.45144
2161.92075	0.45259
2159.99219	0.45351
2158.06362	0.45444
2156.13506	0.45541
2154.20649	0.45624
2152.27793	0.45701
2150.34937	0.45771
2148.42080	0.45823
2146.49224	0.45859
2144.56367	0.45898
2142.63511	0.45946
2140.70654	0.45995
2138.77798	0.46034
2136.84941	0.46059
2134.92085	0.46067
2132.99229	0.46053
2131.06372	0.46031
2129.13516	0.46006
2127.20659	0.45966
2125.27803	0.45916
2123.34946	0.45865
2121.42090	0.45818
2119.49233	0.45766
2117.56377	0.45704
2115.63521	0.45628
2113.70664	0.45539
2111.77808	0.45438
2109.84951	0.45329
2107.92095	0.45218
2105.99238	0.45104
2104.06382	0.44990
2102.13525	0.44867
2100.20669	0.44723
2098.27812	0.44566
2096.34956	0.44416
2094.42100	0.44262
2092.49243	0.44094
2090.56387	0.43935
2088.63530	0.43779
2086.70674	0.43597
2084.77817	0.43401
2082.84961	0.43206
2080.92104	0.43005
2078.99248	0.42795
2077.06392	0.42576
2075.13535	0.42351
2073.20679	0.42129
2071.27822	0.41904
2069.34966	0.41671
2067.42109	0.41431
2065.49253	0.41187
2063.56396	0.40939
2061.63540	0.40691
2059.70684	0.40438
2057.77827	0.40188
2055.84971	0.39941
2053.92114	0.39689
2051.99258	0.39436
2050.06401	0.39180
2048.13545	0.38911
2046.20688	0.38631
2044.27832	0.38354
2042.34976	0.38086
2040.42119	0.37816
2038.49263	0.37542
2036.56406	0.37264
2034.63550	0.36982
2032.70693	0.36701
2030.77837	0.36430
2028.84980	0.36153
2026.92124	0.35871
2024.99268	0.35595
2023.06411	0.35324
2021.13555	0.35046
2019.20698	0.34759
2017.27842	0.34473
2015.34985	0.34192
2013.42129	0.33912
2011.49272	0.33636
2009.56416	0.33370
2007.63560	0.33107
2005.70703	0.32841
2003.77847	0.32571
2001.84990	0.32298
1999.92134	0.32028
1997.99277	0.31773
1996.06421	0.31526
1994.13564	0.31285
1992.20708	0.31047
1990.27852	0.30797
1988.34995	0.30539
1986.42139	0.30285
1984.49282	0.30037
1982.56426	0.29797
1980.63569	0.29571
1978.70713	0.29356
1976.77856	0.29143
1974.85000	0.28923
1972.92144	0.28699
1970.99287	0.28490
1969.06431	0.28296
1967.13574	0.28103
1965.20718	0.27903
1963.27861	0.27707
1961.35005	0.27513
1959.42148	0.27312
1957.49292	0.27117
1955.56436	0.26944
1953.63579	0.26779
1951.70723	0.26608
1949.77866	0.26443
1947.85010	0.26288
1945.92153	0.26138
1943.99297	0.25994
1942.06440	0.25848
1940.13584	0.25692
1938.20728	0.25543
1936.27871	0.25409
1934.35015	0.25278
1932.42158	0.25149
1930.49302	0.25026
1928.56445	0.24914
1926.63589	0.24813
1924.70732	0.24723
1922.77876	0.24637
1920.85020	0.24550
1918.92163	0.24470
1916.99307	0.24380
1915.06450	0.24274
1913.13594	0.24183
1911.20737	0.24122
1909.27881	0.24067
1907.35024	0.24001
1905.42168	0.23926
1903.49312	0.23861
1901.56455	0.23810
1899.63599	0.23763
1897.70742	0.23724
1895.77886	0.23684
1893.85029	0.23646
1891.92173	0.23618
1889.99316	0.23605
1888.06460	0.23579
1886.13604	0.23543
1884.20747	0.23517
1882.27891	0.23498
1880.35034	0.23479
1878.42178	0.23463
1876.49321	0.23465
1874.56465	0.23474
1872.63608	0.23483
1870.70752	0.23502
1868.77896	0.23550
1866.85039	0.23585
1864.92183	0.23582
1862.99326	0.23582
1861.06470	0.23595
1859.13613	0.23625
1857.20757	0.23662
1855.27900	0.23707
1853.35044	0.23754
1851.42187	0.23811
1849.49331	0.23883
1847.56475	0.23974
1845.63618	0.24074
1843.70762	0.24164
1841.77905	0.24222
1839.85049	0.24259
1837.92192	0.24328
1835.99336	0.24415
1834.06479	0.24514
1832.13623	0.24629
1830.20767	0.24772
1828.27910	0.24914
1826.35054	0.25024
1824.42197	0.25139
1822.49341	0.25250
1820.56484	0.25376
1818.63628	0.25528
1816.70771	0.25695
1814.77915	0.25850
1812.85059	0.26021
1810.92202	0.26231
1808.99346	0.26441
1807.06489	0.26634
1805.13633	0.26826
1803.20776	0.27054
1801.27920	0.27315
1799.35063	0.27591
1797.42207	0.27832
1795.49351	0.28069
1793.56494	0.28353
1791.63638	0.28706
1789.70781	0.29043
1787.77925	0.29306
1785.85068	0.29619
1783.92212	0.29988
1781.99355	0.30377
1780.06499	0.30782
1778.13643	0.31198
1776.20786	0.31594
1774.27930	0.32022
1772.35073	0.32601
1770.42217	0.33239
1768.49360	0.33779
1766.56504	0.34279
1764.63647	0.34791
1762.70791	0.35362
1760.77935	0.36096
1758.85078	0.36810
1756.92222	0.37526
1754.99365	0.38286
1753.06509	0.38971
1751.13652	0.39790
1749.20796	0.40831
1747.27939	0.41877
1745.35083	0.42814
1743.42227	0.43800
1741.49370	0.44873
1739.56514	0.46114
1737.63657	0.47349
1735.70801	0.48448
1733.77944	0.50080
1731.85088	0.52018
1729.92231	0.53572
1727.99375	0.55142
1726.06519	0.56831
1724.13662	0.58654
1722.20806	0.60612
1720.27949	0.62446
1718.35093	0.64609
1716.42236	0.67772
1714.49380	0.70798
1712.56523	0.73274
1710.63667	0.75690
1708.70811	0.78301
1706.77954	0.81262
1704.85098	0.84770
1702.92241	0.87931
1700.99385	0.91108
1699.06528	0.95777
1697.13672	1.00107
1695.20815	1.04624
1693.27959	1.09120
1691.35103	1.12818
1689.42246	1.17053
1687.49390	1.21502
1685.56533	1.25818
1683.63677	1.32397
1681.70820	1.39290
1679.77964	1.43827
1677.85107	1.48097
1675.92251	1.52962
1673.99395	1.58941
1672.06538	1.64386
1670.13682	1.69858
1668.20825	1.76944
1666.27969	1.82890
1664.35112	1.88058
1662.42256	1.94493
1660.49399	2.01682
1658.56543	2.07398
1656.63687	2.12051
1654.70830	2.16061
1652.77974	2.21621
1650.85117	2.27044
1648.92261	2.29194
1646.99404	2.31505
1645.06548	2.33832
1643.13691	2.35471
1641.20835	2.36361
1639.27979	2.37078
1637.35122	2.37288
1635.42266	2.36496
1633.49409	2.35219
1631.56553	2.33859
1629.63696	2.32094
1627.70840	2.28865
1625.77983	2.24944
1623.85127	2.20293
1621.92271	2.14879
1619.99414	2.10091
1618.06558	2.05496
1616.13701	1.99110
1614.20845	1.92501
1612.27988	1.87286
1610.35132	1.81856
1608.42275	1.75992
1606.49419	1.70260
1604.56562	1.65126
1602.63706	1.60326
1600.70850	1.55681
1598.77993	1.51346
1596.85137	1.47221
1594.92280	1.43214
1592.99424	1.39366
1591.06567	1.35854
1589.13711	1.32619
1587.20854	1.29689
1585.27998	1.27012
1583.35142	1.24511
1581.42285	1.22268
1579.49429	1.20409
1577.56572	1.18790
1575.63716	1.16940
1573.70859	1.15401
1571.78003	1.14457
1569.85146	1.13575
1567.92290	1.12675
1565.99434	1.12088
1564.06577	1.11778
1562.13721	1.11621
1560.20864	1.11728
1558.28008	1.12534
1556.35151	1.13378
1554.42295	1.13810
1552.49438	1.14229
1550.56582	1.14463
1548.63726	1.14374
1546.70869	1.13922
1544.78013	1.13050
1542.85156	1.11755
1540.92300	1.09717
1538.99443	1.06565
1537.06587	1.04275
1535.13730	1.02678
1533.20874	1.00499
1531.28018	0.98127
1529.35161	0.96346
1527.42305	0.94673
1525.49448	0.92996
1523.56592	0.91607
1521.63735	0.90313
1519.70879	0.89032
1517.78022	0.87950
1515.85166	0.86653
1513.92310	0.85229
1511.99453	0.83971
1510.06597	0.82854
1508.13740	0.81751
1506.20884	0.80045
1504.28027	0.78561
1502.35171	0.77752
1500.42314	0.77061
1498.49458	0.76327
1496.56602	0.75468
1494.63745	0.74592
1492.70889	0.73908
1490.78032	0.73307
1488.85176	0.72634
1486.92319	0.72029
1484.99463	0.71566
1483.06606	0.71214
1481.13750	0.70957
1479.20894	0.70781
1477.28037	0.70692
1475.35181	0.70695
1473.42324	0.70769
1471.49468	0.70765
1469.56611	0.70587
1467.63755	0.70348
1465.70898	0.70141
1463.78042	0.69998
1461.85186	0.69937
1459.92329	0.69941
1457.99473	0.69985
1456.06616	0.69992
1454.13760	0.69837
1452.20903	0.69587
1450.28047	0.69304
1448.35190	0.69014
1446.42334	0.68697
1444.49478	0.68384
1442.56621	0.68098
1440.63765	0.67808
1438.70908	0.67491
1436.78052	0.67073
1434.85195	0.66605
1432.92339	0.66262
1430.99482	0.66043
1429.06626	0.65938
1427.13770	0.65943
1425.20913	0.66023
1423.28057	0.66137
1421.35200	0.66218
1419.42344	0.66278
1417.49487	0.66307
1415.56631	0.66256
1413.63774	0.66214
1411.70918	0.66254
1409.78062	0.66396
1407.85205	0.66605
1405.92349	0.66850
1403.99492	0.67073
1402.06636	0.67163
1400.13779	0.67110
1398.20923	0.66945
1396.28066	0.66673
1394.35210	0.66265
1392.42354	0.65778
1390.49497	0.65320
1388.56641	0.64836
1386.63784	0.64242
1384.70928	0.63620
1382.78071	0.63040
1380.85215	0.62484
1378.92358	0.62004
1376.99502	0.61655
1375.06646	0.61429
1373.13789	0.61278
1371.20933	0.61172
1369.28076	0.61079
1367.35220	0.60942
1365.42363	0.60760
1363.49507	0.60589
1361.56650	0.60444
1359.63794	0.60288
1357.70937	0.60123
1355.78081	0.59978
1353.85225	0.59868
1351.92368	0.59791
1349.99512	0.59738
1348.06655	0.59683
1346.13799	0.59614
1344.20942	0.59536
1342.28086	0.59462
1340.35229	0.59414
1338.42373	0.59378
1336.49517	0.59336
1334.56660	0.59308
1332.63804	0.59313
1330.70947	0.59352
1328.78091	0.59414
1326.85234	0.59493
1324.92378	0.59583
1322.99521	0.59679
1321.06665	0.59770
1319.13809	0.59854
1317.20952	0.59923
1315.28096	0.59963
1313.35239	0.59974
1311.42383	0.59947
1309.49526	0.59893
1307.56670	0.59842
1305.63813	0.59801
1303.70957	0.59758
1301.78101	0.59709
1299.85244	0.59643
1297.92388	0.59542
1295.99531	0.59406
1294.06675	0.59258
1292.13818	0.59108
1290.20962	0.58965
1288.28105	0.58832
1286.35249	0.58699
1284.42393	0.58554
1282.49536	0.58391
1280.56680	0.58221
1278.63823	0.58068
1276.70967	0.57943
1274.78110	0.57834
1272.85254	0.57739
1270.92397	0.57658
1268.99541	0.57576
1267.06685	0.57470
1265.13828	0.57342
1263.20972	0.57225
1261.28115	0.57137
1259.35259	0.57046
1257.42402	0.56946
1255.49546	0.56885
1253.56689	0.56885
1251.63833	0.56921
1249.70977	0.56946
1247.78120	0.56937
1245.85264	0.56906
1243.92407	0.56854
1241.99551	0.56763
1240.06694	0.56624
1238.13838	0.56426
1236.20981	0.56178
1234.28125	0.55915
1232.35269	0.55664
1230.42412	0.55427
1228.49556	0.55201
1226.56699	0.54973
1224.63843	0.54755
1222.70986	0.54567
1220.78130	0.54406
1218.85273	0.54251
1216.92417	0.54108
1214.99561	0.53994
1213.06704	0.53895
1211.13848	0.53804
1209.20991	0.53724
1207.28135	0.53648
1205.35278	0.53565
1203.42422	0.53457
1201.49565	0.53335
1199.56709	0.53242
1197.63853	0.53188
1195.70996	0.53144
1193.78140	0.53094
1191.85283	0.53042
1189.92427	0.52988
1187.99570	0.52932
1186.06714	0.52895
1184.13857	0.52903
1182.21001	0.52958
1180.28145	0.53050
1178.35288	0.53191
1176.42432	0.53369
1174.49575	0.53524
1172.56719	0.53617
1170.63862	0.53645
1168.71006	0.53623
1166.78149	0.53586
1164.85293	0.53540
1162.92437	0.53481
1160.99580	0.53425
1159.06724	0.53371
1157.13867	0.53299
1155.21011	0.53192
1153.28154	0.53049
1151.35298	0.52869
1149.42441	0.52652
1147.49585	0.52415
1145.56729	0.52167
1143.63872	0.51916
1141.71016	0.51688
1139.78159	0.51498
1137.85303	0.51345
1135.92446	0.51226
1133.99590	0.51143
1132.06733	0.51081
1130.13877	0.51017
1128.21021	0.50948
1126.28164	0.50874
1124.35308	0.50812
1122.42451	0.50769
1120.49595	0.50732
1118.56738	0.50701
1116.63882	0.50685
1114.71025	0.50672
1112.78169	0.50665
1110.85312	0.50668
1108.92456	0.50675
1106.99600	0.50724
1105.06743	0.50866
1103.13887	0.51053
1101.21030	0.51219
1099.28174	0.51398
1097.35317	0.51644
1095.42461	0.51948
1093.49604	0.52298
1091.56748	0.52701
1089.63892	0.53161
1087.71035	0.53695
1085.78179	0.54303
1083.85322	0.54930
1081.92466	0.55535
1079.99609	0.56066
1078.06753	0.56414
1076.13896	0.56509
1074.21040	0.56339
1072.28184	0.55918
1070.35327	0.55318
1068.42471	0.54636
1066.49614	0.53957
1064.56758	0.53322
1062.63901	0.52731
1060.71045	0.52198
1058.78188	0.51735
1056.85332	0.51323
1054.92476	0.50943
1052.99619	0.50597
1051.06763	0.50315
1049.13906	0.50093
1047.21050	0.49873
1045.28193	0.49645
1043.35337	0.49444
1041.42480	0.49279
1039.49624	0.49143
1037.56768	0.49046
1035.63911	0.48994
1033.71055	0.48964
1031.78198	0.48926
1029.85342	0.48866
1027.92485	0.48803
1025.99629	0.48771
1024.06772	0.48781
1022.13916	0.48817
1020.21060	0.48877
1018.28203	0.48942
1016.35347	0.48986
1014.42490	0.49033
1012.49634	0.49116
1010.56777	0.49226
1008.63921	0.49338
1006.71064	0.49463
1004.78208	0.49628
1002.85352	0.49849
1000.92495	0.50127
998.99639	0.50460
997.06782	0.50848
995.13926	0.51269
993.21069	0.51678
991.28213	0.52021
989.35356	0.52258
987.42500	0.52404
985.49644	0.52495
983.56787	0.52550
981.63931	0.52597
979.71074	0.52682
977.78218	0.52841
975.85361	0.53072
973.92505	0.53339
971.99648	0.53642
970.06792	0.53976
968.13936	0.54305
966.21079	0.54670
964.28223	0.55124
962.35366	0.55630
960.42510	0.56152
958.49653	0.56672
956.56797	0.57199
954.63940	0.57780
952.71084	0.58418
950.78228	0.59062
948.85371	0.59668
946.92515	0.60258
944.99658	0.60880
943.06802	0.61515
941.13945	0.62144
939.21089	0.62750
937.28232	0.63305
935.35376	0.63856
933.42520	0.64468
931.49663	0.65105
929.56807	0.65685
927.63950	0.66249
925.71094	0.66893
923.78237	0.67576
921.85381	0.68204
919.92524	0.68802
917.99668	0.69458
916.06812	0.70200
914.13955	0.70944
912.21099	0.71630
910.28242	0.72326
908.35386	0.73115
906.42529	0.74042
904.49673	0.75077
902.56816	0.76118
900.63960	0.77074
898.71104	0.77961
896.78247	0.78878
894.85391	0.79785
892.92534	0.80695
890.99678	0.81722
889.06821	0.82790
887.13965	0.83851
885.21108	0.84898
883.28252	0.85877
881.35396	0.86962
879.42539	0.88315
877.49683	0.89679
875.56826	0.90891
873.63970	0.92084
871.71113	0.93242
869.78257	0.94322
867.85400	0.95391
865.92544	0.96512
863.99687	0.97703
862.06831	0.98873
860.13975	0.99896
858.21118	1.00905
856.28262	1.01982
854.35405	1.03049
852.42549	1.04319
850.49692	1.05815
848.56836	1.07192
846.63979	1.08287
844.71123	1.09261
842.78267	1.10397
840.85410	1.11647
838.92554	1.12733
836.99697	1.13687
835.06841	1.14790
833.13984	1.15965
831.21128	1.16656
829.28271	1.17126
827.35415	1.18324
825.42559	1.19936
823.49702	1.20964
821.56846	1.21324
819.63989	1.21754
817.71133	1.22890
815.78276	1.24383
813.85420	1.25779
811.92563	1.26954
809.99707	1.26817
808.06851	1.25601
806.13994	1.25891
804.21138	1.27754
802.28281	1.27632
800.35425	1.25393
798.42568	1.25847
796.49712	1.28775
794.56855	1.29146
792.63999	1.28324
790.71143	1.28950
788.78286	1.28812
786.85430	1.28830
784.92573	1.32670
782.99717	1.35840
781.06860	1.32529
779.14004	1.29531
777.21147	1.30600
775.28291	1.30769
773.35435	1.29117
771.42578	1.29366
769.49722	1.25661
767.56865	1.18121
765.64009	1.14553
763.71152	1.13714
761.78296	1.12624
759.85439	1.10727
757.92583	1.09576
755.99727	1.15226
754.06870	1.29144
752.14014	1.32956
750.21157	1.13575
748.28301	0.96869
746.35444	0.90579
744.42588	0.88195
742.49731	0.84874
740.56875	0.83094
738.64019	0.83261
736.71162	0.80169
734.78306	0.68959
732.85449	0.58465
730.92593	0.52475
728.99736	0.44611
727.06880	0.35107
725.14023	0.27730
723.21167	0.19225
721.28311	0.00570
719.35454	-0.15554
717.42598	-0.19443
715.49741	-0.12932
713.56885	-0.00421
711.64028	0.16363
709.71172	0.19698
707.78315	-0.00194
705.85459	-0.06221
703.92603	0.01457
701.99746	0.15762
700.06890	0.22201
698.14033	0.20660
696.21177	0.22357
694.28320	0.28898
692.35464	0.40345
690.42607	0.57252
688.49751	0.55460
686.56895	0.42243
684.64038	0.32723
682.71182	0.24347
680.78325	0.22208
678.85469	0.26115
676.92612	0.26674
674.99756	0.19168
673.06899	0.13582
671.14043	0.20310
669.21187	0.30668
667.28330	0.28809
665.35474	0.20584
663.42617	0.14704
661.49761	0.13907
659.56904	0.18635
657.64048	0.23210
655.71191	0.26200
653.78335	0.32125
651.85479	0.39232
649.92622	0.37245
647.99766	0.29208
646.06909	0.25689
644.14053	0.27553
642.21196	0.31099
640.28340	0.30096
638.35483	0.25985
636.42627	0.23603
634.49771	0.22065
632.56914	0.21997
630.64058	0.24691
628.71201	0.26482
626.78345	0.30071
624.85488	0.35842
622.92632	0.35457
620.99775	0.27608
619.06919	0.20553
617.14062	0.16748
615.21206	0.15855
613.28350	0.17507
611.35493	0.16873
609.42637	0.15939
607.49780	0.21343
605.56924	0.26176
603.64067	0.20806
601.71211	0.12336
599.78354	0.11454
597.85498	0.16309
595.92642	0.18604
593.99785	0.17680
592.06929	0.19660
590.14072	0.26491
588.21216	0.34438
586.28359	0.36212
584.35503	0.32725
582.42646	0.32769
580.49790	0.29273
578.56934	0.21423
576.64077	0.17759
574.71221	0.17911
572.78364	0.16225
570.85508	0.13050
568.92651	0.13722
566.99795	0.19614
565.06938	0.27909
563.14082	0.31120
561.21226	0.28940
559.28369	0.24004
557.35513	0.16423
555.42656	0.13940
553.49800	0.19809
551.56943	0.27519
549.64087	0.26438
547.71230	0.18037
545.78374	0.12068
543.85518	0.13362
541.92661	0.16447
539.99805	0.18798
538.06948	0.24331
536.14092	0.33790
534.21235	0.35225
532.28379	0.25843
530.35522	0.20322
528.42666	0.21632
526.49810	0.22391
524.56953	0.21768
522.64097	0.23442
520.71240	0.23316
518.78384	0.20967
516.85527	0.20800
514.92671	0.20428
512.99814	0.18336
511.06958	0.16667
509.14102	0.13966
507.21245	0.11538
505.28389	0.12626
503.35532	0.15679
501.42676	0.20417
499.49819	0.25653
