3997.91411	0.07938
3995.98555	0.07950
3994.05698	0.07955
3992.12842	0.07988
3990.19985	0.08030
3988.27129	0.08058
3986.34272	0.08081
3984.41416	0.08106
3982.48560	0.08116
3980.55703	0.08097
3978.62847	0.08073
3976.69990	0.08108
3974.77134	0.08190
3972.84277	0.08217
3970.91421	0.08179
3968.98564	0.08164
3967.05708	0.08195
3965.12852	0.08245
3963.19995	0.08297
3961.27139	0.08331
3959.34282	0.08347
3957.41426	0.08354
3955.48569	0.08344
3953.55713	0.08313
3951.62856	0.08325
3949.70000	0.08413
3947.77144	0.08490
3945.84287	0.08490
3943.91431	0.08461
3941.98574	0.08438
3940.05718	0.08398
3938.12861	0.08354
3936.20005	0.08333
3934.27148	0.08351
3932.34292	0.08419
3930.41436	0.08488
3928.48579	0.08466
3926.55723	0.08375
3924.62866	0.08350
3922.70010	0.08386
3920.77153	0.08372
3918.84297	0.08357
3916.91440	0.08400
3914.98584	0.08400
3913.05728	0.08301
3911.12871	0.08208
3909.20015	0.08188
3907.27158	0.08260
3905.34302	0.08466
3903.41445	0.08742
3901.48589	0.08855
3899.55732	0.08737
3897.62876	0.08509
3895.70020	0.08312
3893.77163	0.08267
3891.84307	0.08389
3889.91450	0.08492
3887.98594	0.08473
3886.05737	0.08518
3884.12881	0.08629
3882.20024	0.08655
3880.27168	0.08630
3878.34312	0.08530
3876.41455	0.08401
3874.48599	0.08425
3872.55742	0.08601
3870.62886	0.08795
3868.70029	0.08884
3866.77173	0.08816
3864.84316	0.08793
3862.91460	0.08858
3860.98604	0.08810
3859.05747	0.08729
3857.12891	0.08795
3855.20034	0.09034
3853.27178	0.09433
3851.34321	0.09601
3849.41465	0.09294
3847.48608	0.09021
3845.55752	0.08982
3843.62896	0.09136
3841.70039	0.09358
3839.77183	0.09562
3837.84326	0.09712
3835.91470	0.09707
3833.98613	0.09613
3832.05757	0.09569
3830.12900	0.09536
3828.20044	0.09512
3826.27187	0.09587
3824.34331	0.09743
3822.41475	0.09974
3820.48618	0.10284
3818.55762	0.10378
3816.62905	0.10303
3814.70049	0.10266
3812.77192	0.10185
3810.84336	0.10129
3808.91479	0.10227
3806.98623	0.10482
3805.05767	0.10714
3803.12910	0.10890
3801.20054	0.11195
3799.27197	0.11372
3797.34341	0.11300
3795.41484	0.11268
3793.48628	0.11239
3791.55771	0.11200
3789.62915	0.11242
3787.70059	0.11380
3785.77202	0.11582
3783.84346	0.11772
3781.91489	0.11929
3779.98633	0.12114
3778.05776	0.12286
3776.12920	0.12352
3774.20063	0.12419
3772.27207	0.12584
3770.34351	0.12842
3768.41494	0.13125
3766.48638	0.13357
3764.55781	0.13572
3762.62925	0.13755
3760.70068	0.13960
3758.77212	0.14264
3756.84355	0.14526
3754.91499	0.14709
3752.98643	0.15031
3751.05786	0.15595
3749.12930	0.16118
3747.20073	0.16311
3745.27217	0.16492
3743.34360	0.16860
3741.41504	0.17140
3739.48647	0.17311
3737.55791	0.17669
3735.62935	0.18335
3733.70078	0.19008
3731.77222	0.19338
3729.84365	0.19536
3727.91509	0.19849
3725.98652	0.20395
3724.05796	0.21098
3722.12939	0.21777
3720.20083	0.22364
3718.27227	0.22902
3716.34370	0.23538
3714.41514	0.24316
3712.48657	0.25316
3710.55801	0.26674
3708.62944	0.28040
3706.70088	0.29101
3704.77231	0.30125
3702.84375	0.31401
3700.91519	0.33084
3698.98662	0.34882
3697.05806	0.36569
3695.12949	0.38385
3693.20093	0.40374
3691.27236	0.42611
3689.34380	0.45460
3687.41523	0.48766
3685.48667	0.51610
3683.55811	0.54116
3681.62954	0.56847
3679.70098	0.59954
3677.77241	0.63297
3675.84385	0.67296
3673.91528	0.72503
3671.98672	0.76749
3670.05815	0.80553
3668.12959	0.85616
3666.20103	0.90204
3664.27246	0.94079
3662.34390	0.98308
3660.41533	1.02987
3658.48677	1.07687
3656.55820	1.12666
3654.62964	1.18116
3652.70107	1.22722
3650.77251	1.26865
3648.84395	1.32551
3646.91538	1.39184
3644.98682	1.43888
3643.05825	1.47525
3641.12969	1.51391
3639.20112	1.55755
3637.27256	1.60152
3635.34399	1.64425
3633.41543	1.68769
3631.48687	1.72950
3629.55830	1.77270
3627.62974	1.82650
3625.70117	1.87341
3623.77261	1.90545
3621.84404	1.93863
3619.91548	1.97751
3617.98691	2.02251
3616.05835	2.06476
3614.12979	2.10072
3612.20122	2.13867
3610.27266	2.17770
3608.34409	2.21876
3606.41553	2.26264
3604.48696	2.30161
3602.55840	2.33559
3600.62983	2.37336
3598.70127	2.41454
3596.77271	2.45420
3594.84414	2.49440
3592.91558	2.53525
3590.98701	2.57387
3589.05845	2.61193
3587.12988	2.65712
3585.20132	2.70384
3583.27275	2.74296
3581.34419	2.78044
3579.41562	2.82114
3577.48706	2.86431
3575.55850	2.90784
3573.62993	2.95091
3571.70137	2.99190
3569.77280	3.03268
3567.84424	3.07790
3565.91567	3.13120
3563.98711	3.17978
3562.05854	3.21837
3560.12998	3.25902
3558.20142	3.30454
3556.27285	3.34910
3554.34429	3.39108
3552.41572	3.43743
3550.48716	3.48798
3548.55859	3.53618
3546.63003	3.58333
3544.70146	3.63421
3542.77290	3.68302
3540.84434	3.72630
3538.91577	3.77117
3536.98721	3.82033
3535.05864	3.87260
3533.13008	3.92204
3531.20151	3.96689
3529.27295	4.01303
3527.34438	4.06388
3525.41582	4.11389
3523.48726	4.15996
3521.55869	4.20692
3519.63013	4.25259
3517.70156	4.29664
3515.77300	4.34579
3513.84443	4.40087
3511.91587	4.45442
3509.98730	4.50251
3508.05874	4.54723
3506.13018	4.59049
3504.20161	4.63459
3502.27305	4.68428
3500.34448	4.73851
3498.41592	4.78705
3496.48735	4.82762
3494.55879	4.87114
3492.63022	4.92559
3490.70166	4.98458
3488.77310	5.03950
3486.84453	5.08995
3484.91597	5.13774
3482.98740	5.18040
3481.05884	5.22055
3479.13027	5.26631
3477.20171	5.32085
3475.27314	5.38027
3473.34458	5.43599
3471.41602	5.48536
3469.48745	5.53287
3467.55889	5.57956
3465.63032	5.62317
3463.70176	5.67145
3461.77319	5.72545
3459.84463	5.77143
3457.91606	5.81533
3455.98750	5.86999
3454.05894	5.92130
3452.13037	5.96261
3450.20181	6.01319
3448.27324	6.07769
3446.34468	6.14140
3444.41611	6.19226
3442.48755	6.23639
3440.55898	6.28785
3438.63042	6.35303
3436.70186	6.40929
3434.77329	6.43235
3432.84473	6.45237
3430.91616	6.51927
3428.98760	6.62013
3427.05903	6.67962
3425.13047	6.70279
3423.20190	6.75179
3421.27334	6.80684
3419.34478	6.83213
3417.41621	6.86751
3415.48765	6.92072
3413.55908	6.96960
3411.63052	7.03857
3409.70195	7.11187
3407.77339	7.16176
3405.84482	7.19445
3403.91626	7.21569
3401.98770	7.22440
3400.05913	7.25741
3398.13057	7.34381
3396.20200	7.42624
3394.27344	7.46324
3392.34487	7.48234
3390.41631	7.51085
3388.48774	7.54101
3386.55918	7.60582
3384.63062	7.72370
3382.70205	7.81585
3380.77349	7.82021
3378.84492	7.77558
3376.91636	7.71215
3374.98779	7.64089
3373.05923	7.65776
3371.13066	7.80290
3369.20210	7.97039
3367.27354	8.01484
3365.34497	7.98955
3363.41641	8.02857
3361.48784	8.10698
3359.55928	8.15616
3357.63071	8.16632
3355.70215	8.16463
3353.77358	8.16245
3351.84502	8.17088
3349.91646	8.17937
3347.98789	8.19328
3346.05933	8.18312
3344.13076	8.15888
3342.20220	8.21970
3340.27363	8.31657
3338.34507	8.36039
3336.41650	8.35847
3334.48794	8.34886
3332.55937	8.37692
3330.63081	8.45309
3328.70225	8.45959
3326.77368	8.37841
3324.84512	8.37803
3322.91655	8.42322
3320.98799	8.38054
3319.05942	8.30209
3317.13086	8.27664
3315.20229	8.30436
3313.27373	8.36825
3311.34517	8.42768
3309.41660	8.46894
3307.48804	8.48265
3305.55947	8.45337
3303.63091	8.45088
3301.70234	8.48617
3299.77378	8.50541
3297.84521	8.50639
3295.91665	8.57432
3293.98809	8.68209
3292.05952	8.70770
3290.13096	8.66907
3288.20239	8.65562
3286.27383	8.70057
3284.34526	8.73559
3282.41670	8.70374
3280.48813	8.59525
3278.55957	8.50240
3276.63101	8.50170
3274.70244	8.53323
3272.77388	8.55093
3270.84531	8.58312
3268.91675	8.66564
3266.98818	8.72904
3265.05962	8.66988
3263.13105	8.57663
3261.20249	8.55766
3259.27393	8.55270
3257.34536	8.47985
3255.41680	8.40315
3253.48823	8.45683
3251.55967	8.59259
3249.63110	8.58832
3247.70254	8.47137
3245.77397	8.44817
3243.84541	8.54163
3241.91685	8.62428
3239.98828	8.66088
3238.05972	8.70407
3236.13115	8.77364
3234.20259	8.75297
3232.27402	8.57760
3230.34546	8.45231
3228.41689	8.47019
3226.48833	8.52264
3224.55977	8.49813
3222.63120	8.38955
3220.70264	8.29371
3218.77407	8.32758
3216.84551	8.37233
3214.91694	8.24758
3212.98838	8.17615
3211.05981	8.33362
3209.13125	8.49801
3207.20269	8.41977
3205.27412	8.21131
3203.34556	8.02402
3201.41699	7.95665
3199.48843	8.00786
3197.55986	8.02960
3195.63130	7.93245
3193.70273	7.82693
3191.77417	7.81346
3189.84561	7.84333
3187.91704	7.80712
3185.98848	7.70177
3184.05991	7.62210
3182.13135	7.59907
3180.20278	7.57692
3178.27422	7.51985
3176.34565	7.46467
3174.41709	7.41832
3172.48853	7.36024
3170.55996	7.31365
3168.63140	7.24241
3166.70283	7.11465
3164.77427	7.00326
3162.84570	6.94280
3160.91714	6.89065
3158.98857	6.81809
3157.06001	6.74668
3155.13145	6.69105
3153.20288	6.62530
3151.27432	6.54154
3149.34575	6.45717
3147.41719	6.37416
3145.48862	6.28884
3143.56006	6.20410
3141.63149	6.13356
3139.70293	6.08038
3137.77437	6.01962
3135.84580	5.94131
3133.91724	5.86067
3131.98867	5.78113
3130.06011	5.70452
3128.13154	5.63030
3126.20298	5.55541
3124.27441	5.48641
3122.34585	5.41722
3120.41729	5.34076
3118.48872	5.26419
3116.56016	5.19237
3114.63159	5.12218
3112.70303	5.05240
3110.77446	4.98659
3108.84590	4.91891
3106.91733	4.84397
3104.98877	4.76976
3103.06021	4.69930
3101.13164	4.62869
3099.20308	4.56237
3097.27451	4.49941
3095.34595	4.43184
3093.41738	4.36341
3091.48882	4.30021
3089.56025	4.23936
3087.63169	4.17504
3085.70312	4.10665
3083.77456	4.03963
3081.84600	3.97708
3079.91743	3.91680
3077.98887	3.85687
3076.06030	3.79639
3074.13174	3.73543
3072.20317	3.67652
3070.27461	3.62041
3068.34604	3.56594
3066.41748	3.51178
3064.48892	3.45603
3062.56035	3.39838
3060.63179	3.34045
3058.70322	3.28427
3056.77466	3.23068
3054.84609	3.17785
3052.91753	3.12465
3050.98896	3.07279
3049.06040	3.02225
3047.13184	2.97154
3045.20327	2.92151
3043.27471	2.87334
3041.34614	2.82621
3039.41758	2.77884
3037.48901	2.73164
3035.56045	2.68494
3033.63188	2.63794
3031.70332	2.59147
3029.77476	2.54706
3027.84619	2.50386
3025.91763	2.46048
3023.98906	2.41746
3022.06050	2.37556
3020.13193	2.33415
3018.20337	2.29246
3016.27480	2.25100
3014.34624	2.21104
3012.41768	2.17282
3010.48911	2.13502
3008.56055	2.09724
3006.63198	2.06039
3004.70342	2.02452
3002.77485	1.98954
3000.84629	1.95526
2998.91772	1.92096
2996.98916	1.88720
2995.06060	1.85459
2993.13203	1.82281
2991.20347	1.79195
2989.27490	1.76199
2987.34634	1.73263
2985.41777	1.70416
2983.48921	1.67635
2981.56064	1.64874
2979.63208	1.62160
2977.70352	1.59494
2975.77495	1.56873
2973.84639	1.54322
2971.91782	1.51816
2969.98926	1.49332
2968.06069	1.46897
2966.13213	1.44549
2964.20356	1.42267
2962.27500	1.39979
2960.34644	1.37634
2958.41787	1.35240
2956.48931	1.32846
2954.56074	1.30464
2952.63218	1.28071
2950.70361	1.25690
2948.77505	1.23355
2946.84648	1.21088
2944.91792	1.18931
2942.98936	1.16876
2941.06079	1.14876
2939.13223	1.12895
2937.20366	1.10934
2935.27510	1.09027
2933.34653	1.07173
2931.41797	1.05303
2929.48940	1.03392
2927.56084	1.01487
2925.63228	0.99658
2923.70371	0.97889
2921.77515	0.96075
2919.84658	0.94226
2917.91802	0.92433
2915.98945	0.90717
2914.06089	0.89057
2912.13232	0.87416
2910.20376	0.85799
2908.27520	0.84252
2906.34663	0.82771
2904.41807	0.81295
2902.48950	0.79825
2900.56094	0.78396
2898.63237	0.77000
2896.70381	0.75646
2894.77524	0.74344
2892.84668	0.73074
2890.91812	0.71860
2888.98955	0.70718
2887.06099	0.69604
2885.13242	0.68520
2883.20386	0.67499
2881.27529	0.66546
2879.34673	0.65623
2877.41816	0.64659
2875.48960	0.63645
2873.56104	0.62637
2871.63247	0.61648
2869.70391	0.60634
2867.77534	0.59554
2865.84678	0.58416
2863.91821	0.57265
2861.98965	0.56145
2860.06108	0.55094
2858.13252	0.54119
2856.20396	0.53185
2854.27539	0.52275
2852.34683	0.51397
2850.41826	0.50556
2848.48970	0.49716
2846.56113	0.48871
2844.63257	0.48077
2842.70400	0.47349
2840.77544	0.46667
2838.84687	0.46022
2836.91831	0.45379
2834.98975	0.44727
2833.06118	0.44102
2831.13262	0.43501
2829.20405	0.42908
2827.27549	0.42314
2825.34692	0.41714
2823.41836	0.41124
2821.48979	0.40545
2819.56123	0.39967
2817.63267	0.39398
2815.70410	0.38844
2813.77554	0.38290
2811.84697	0.37726
2809.91841	0.37179
2807.98984	0.36666
2806.06128	0.36168
2804.13271	0.35675
2802.20415	0.35170
2800.27559	0.34656
2798.34702	0.34178
2796.41846	0.33742
2794.48989	0.33308
2792.56133	0.32857
2790.63276	0.32397
2788.70420	0.31944
2786.77563	0.31512
2784.84707	0.31088
2782.91851	0.30668
2780.98994	0.30271
2779.06138	0.29895
2777.13281	0.29510
2775.20425	0.29122
2773.27568	0.28752
2771.34712	0.28395
2769.41855	0.28042
2767.48999	0.27689
2765.56143	0.27351
2763.63286	0.27024
2761.70430	0.26689
2759.77573	0.26351
2757.84717	0.26012
2755.91860	0.25683
2753.99004	0.25388
2752.06147	0.25107
2750.13291	0.24813
2748.20435	0.24540
2746.27578	0.24292
2744.34722	0.24016
2742.41865	0.23721
2740.49009	0.23451
2738.56152	0.23199
2736.63296	0.22951
2734.70439	0.22712
2732.77583	0.22477
2730.84727	0.22232
2728.91870	0.21985
2726.99014	0.21763
2725.06157	0.21565
2723.13301	0.21363
2721.20444	0.21154
2719.27588	0.20956
2717.34731	0.20760
2715.41875	0.20556
2713.49019	0.20359
2711.56162	0.20184
2709.63306	0.20012
2707.70449	0.19845
2705.77593	0.19688
2703.84736	0.19521
2701.91880	0.19358
2699.99023	0.19224
2698.06167	0.19098
2696.13311	0.18973
2694.20454	0.18849
2692.27598	0.18724
2690.34741	0.18599
2688.41885	0.18463
2686.49028	0.18324
2684.56172	0.18204
2682.63315	0.18101
2680.70459	0.17991
2678.77603	0.17873
2676.84746	0.17764
2674.91890	0.17663
2672.99033	0.17566
2671.06177	0.17473
2669.13320	0.17373
2667.20464	0.17274
2665.27607	0.17186
2663.34751	0.17106
2661.41895	0.17023
2659.49038	0.16930
2657.56182	0.16848
2655.63325	0.16783
2653.70469	0.16724
2651.77612	0.16655
2649.84756	0.16574
2647.91899	0.16503
2645.99043	0.16458
2644.06187	0.16428
2642.13330	0.16393
2640.20474	0.16330
2638.27617	0.16240
2636.34761	0.16166
2634.41904	0.16135
2632.49048	0.16128
2630.56191	0.16104
2628.63335	0.16064
2626.70479	0.16031
2624.77622	0.15999
2622.84766	0.15961
2620.91909	0.15936
2618.99053	0.15930
2617.06196	0.15918
2615.13340	0.15885
2613.20483	0.15847
2611.27627	0.15827
2609.34771	0.15830
2607.41914	0.15836
2605.49058	0.15829
2603.56201	0.15819
2601.63345	0.15814
2599.70488	0.15817
2597.77632	0.15828
2595.84775	0.15834
2593.91919	0.15837
2591.99062	0.15843
2590.06206	0.15838
2588.13350	0.15843
2586.20493	0.15874
2584.27637	0.15906
2582.34780	0.15915
2580.41924	0.15919
2578.49067	0.15942
2576.56211	0.15984
2574.63354	0.16019
2572.70498	0.16037
2570.77642	0.16058
2568.84785	0.16098
2566.91929	0.16146
2564.99072	0.16192
2563.06216	0.16236
2561.13359	0.16274
2559.20503	0.16308
2557.27646	0.16343
2555.34790	0.16393
2553.41934	0.16459
2551.49077	0.16522
2549.56221	0.16576
2547.63364	0.16629
2545.70508	0.16686
2543.77651	0.16736
2541.84795	0.16772
2539.91938	0.16815
2537.99082	0.16879
2536.06226	0.16951
2534.13369	0.17020
2532.20513	0.17099
2530.27656	0.17182
2528.34800	0.17246
2526.41943	0.17301
2524.49087	0.17362
2522.56230	0.17433
2520.63374	0.17508
2518.70518	0.17583
2516.77661	0.17656
2514.84805	0.17722
2512.91948	0.17784
2510.99092	0.17854
2509.06235	0.17927
2507.13379	0.18003
2505.20522	0.18090
2503.27666	0.18188
2501.34810	0.18284
2499.41953	0.18373
2497.49097	0.18453
2495.56240	0.18533
2493.63384	0.18615
2491.70527	0.18705
2489.77671	0.18791
2487.84814	0.18860
2485.91958	0.18929
2483.99102	0.19011
2482.06245	0.19092
2480.13389	0.19171
2478.20532	0.19270
2476.27676	0.19382
2474.34819	0.19477
2472.41963	0.19553
2470.49106	0.19634
2468.56250	0.19728
2466.63394	0.19820
2464.70537	0.19897
2462.77681	0.19972
2460.84824	0.20063
2458.91968	0.20171
2456.99111	0.20280
2455.06255	0.20371
2453.13398	0.20444
2451.20542	0.20531
2449.27686	0.20640
2447.34829	0.20744
2445.41973	0.20834
2443.49116	0.20936
2441.56260	0.21048
2439.63403	0.21152
2437.70547	0.21247
2435.77690	0.21344
2433.84834	0.21445
2431.91978	0.21558
2429.99121	0.21668
2428.06265	0.21775
2426.13408	0.21891
2424.20552	0.22005
2422.27695	0.22102
2420.34839	0.22189
2418.41982	0.22286
2416.49126	0.22409
2414.56270	0.22543
2412.63413	0.22660
2410.70557	0.22766
2408.77700	0.22885
2406.84844	0.22999
2404.91987	0.23095
2402.99131	0.23197
2401.06274	0.23334
2399.13418	0.23490
2397.20562	0.23621
2395.27705	0.23725
2393.34849	0.23830
2391.41992	0.23950
2389.49136	0.24074
2387.56279	0.24213
2385.63423	0.24385
2383.70566	0.24592
2381.77710	0.24831
2379.84854	0.25103
2377.91997	0.25411
2375.99141	0.25770
2374.06284	0.26165
2372.13428	0.26573
2370.20571	0.27034
2368.27715	0.27571
2366.34858	0.28068
2364.42002	0.28477
2362.49146	0.28875
2360.56289	0.29194
2358.63433	0.29344
2356.70576	0.29314
2354.77720	0.29128
2352.84863	0.28862
2350.92007	0.28576
2348.99150	0.28439
2347.06294	0.28559
2345.13437	0.28948
2343.20581	0.29450
2341.27725	0.29766
2339.34868	0.29876
2337.42012	0.29953
2335.49155	0.30059
2333.56299	0.30168
2331.63442	0.30278
2329.70586	0.30380
2327.77729	0.30461
2325.84873	0.30517
2323.92017	0.30558
2321.99160	0.30576
2320.06304	0.30588
2318.13447	0.30637
2316.20591	0.30704
2314.27734	0.30768
2312.34878	0.30844
2310.42021	0.30953
2308.49165	0.31079
2306.56309	0.31189
2304.63452	0.31294
2302.70596	0.31412
2300.77739	0.31542
2298.84883	0.31674
2296.92026	0.31823
2294.99170	0.31996
2293.06313	0.32178
2291.13457	0.32347
2289.20601	0.32499
2287.27744	0.32641
2285.34888	0.32788
2283.42031	0.32954
2281.49175	0.33142
2279.56318	0.33349
2277.63462	0.33572
2275.70605	0.33790
2273.77749	0.33998
2271.84893	0.34206
2269.92036	0.34412
2267.99180	0.34619
2266.06323	0.34830
2264.13467	0.35045
2262.20610	0.35263
2260.27754	0.35466
2258.34897	0.35653
2256.42041	0.35846
2254.49185	0.36047
2252.56328	0.36252
2250.63472	0.36471
2248.70615	0.36693
2246.77759	0.36904
2244.84902	0.37118
2242.92046	0.37348
2240.99189	0.37578
2239.06333	0.37793
2237.13477	0.38010
2235.20620	0.38236
2233.27764	0.38468
2231.34907	0.38691
2229.42051	0.38900
2227.49194	0.39104
2225.56338	0.39309
2223.63481	0.39523
2221.70625	0.39752
2219.77769	0.39986
2217.84912	0.40212
2215.92056	0.40434
2213.99199	0.40653
2212.06343	0.40867
2210.13486	0.41079
2208.20630	0.41288
2206.27773	0.41494
2204.34917	0.41691
2202.42061	0.41879
2200.49204	0.42087
2198.56348	0.42314
2196.63491	0.42522
2194.70635	0.42698
2192.77778	0.42873
2190.84922	0.43063
2188.92065	0.43254
2186.99209	0.43434
2185.06353	0.43604
2183.13496	0.43771
2181.20640	0.43938
2179.27783	0.44102
2177.34927	0.44256
2175.42070	0.44404
2173.49214	0.44553
2171.56357	0.44691
2169.63501	0.44828
2167.70645	0.44972
2165.77788	0.45101
2163.84932	0.45214
2161.92075	0.45328
2159.99219	0.45441
2158.06362	0.45546
2156.13506	0.45646
2154.20649	0.45729
2152.27793	0.45795
2150.34937	0.45863
2148.42080	0.45924
2146.49224	0.45971
2144.56367	0.46024
2142.63511	0.46078
2140.70654	0.46104
2138.77798	0.46110
2136.84941	0.46118
2134.92085	0.46131
2132.99229	0.46135
2131.06372	0.46124
2129.13516	0.46099
2127.20659	0.46066
2125.27803	0.46031
2123.34946	0.45983
2121.42090	0.45921
2119.49233	0.45852
2117.56377	0.45781
2115.63521	0.45713
2113.70664	0.45653
2111.77808	0.45584
2109.84951	0.45486
2107.92095	0.45361
2105.99238	0.45227
2104.06382	0.45104
2102.13525	0.44987
2100.20669	0.44860
2098.27812	0.44715
2096.34956	0.44564
2094.42100	0.44413
2092.49243	0.44250
2090.56387	0.44075
2088.63530	0.43905
2086.70674	0.43734
2084.77817	0.43539
2082.84961	0.43328
2080.92104	0.43127
2078.99248	0.42931
2077.06392	0.42719
2075.13535	0.42487
2073.20679	0.42263
2071.27822	0.42047
2069.34966	0.41826
2067.42109	0.41597
2065.49253	0.41367
2063.56396	0.41130
2061.63540	0.40884
2059.70684	0.40637
2057.77827	0.40387
2055.84971	0.40126
2053.92114	0.39862
2051.99258	0.39610
2050.06401	0.39354
2048.13545	0.39084
2046.20688	0.38809
2044.27832	0.38533
2042.34976	0.38265
2040.42119	0.38005
2038.49263	0.37730
2036.56406	0.37435
2034.63550	0.37149
2032.70693	0.36876
2030.77837	0.36602
2028.84980	0.36325
2026.92124	0.36051
2024.99268	0.35780
2023.06411	0.35509
2021.13555	0.35233
2019.20698	0.34960
2017.27842	0.34687
2015.34985	0.34409
2013.42129	0.34134
2011.49272	0.33858
2009.56416	0.33581
2007.63560	0.33308
2005.70703	0.33039
2003.77847	0.32770
2001.84990	0.32507
1999.92134	0.32256
1997.99277	0.32000
1996.06421	0.31736
1994.13564	0.31491
1992.20708	0.31263
1990.27852	0.31021
1988.34995	0.30766
1986.42139	0.30506
1984.49282	0.30246
1982.56426	0.30002
1980.63569	0.29775
1978.70713	0.29552
1976.77856	0.29327
1974.85000	0.29111
1972.92144	0.28899
1970.99287	0.28688
1969.06431	0.28488
1967.13574	0.28297
1965.20718	0.28091
1963.27861	0.27872
1961.35005	0.27671
1959.42148	0.27490
1957.49292	0.27314
1955.56436	0.27138
1953.63579	0.26969
1951.70723	0.26800
1949.77866	0.26634
1947.85010	0.26477
1945.92153	0.26337
1943.99297	0.26214
1942.06440	0.26081
1940.13584	0.25912
1938.20728	0.25742
1936.27871	0.25601
1934.35015	0.25479
1932.42158	0.25363
1930.49302	0.25248
1928.56445	0.25130
1926.63589	0.25018
1924.70732	0.24931
1922.77876	0.24855
1920.85020	0.24772
1918.92163	0.24695
1916.99307	0.24608
1915.06450	0.24489
1913.13594	0.24381
1911.20737	0.24316
1909.27881	0.24265
1907.35024	0.24199
1905.42168	0.24121
1903.49312	0.24054
1901.56455	0.24005
1899.63599	0.23962
1897.70742	0.23917
1895.77886	0.23879
1893.85029	0.23849
1891.92173	0.23827
1889.99316	0.23827
1888.06460	0.23811
1886.13604	0.23765
1884.20747	0.23724
1882.27891	0.23698
1880.35034	0.23683
1878.42178	0.23672
1876.49321	0.23670
1874.56465	0.23674
1872.63608	0.23695
1870.70752	0.23751
1868.77896	0.23843
1866.85039	0.23875
1864.92183	0.23819
1862.99326	0.23781
1861.06470	0.23803
1859.13613	0.23849
1857.20757	0.23879
1855.27900	0.23913
1853.35044	0.23959
1851.42187	0.24014
1849.49331	0.24082
1847.56475	0.24180
1845.63618	0.24298
1843.70762	0.24408
1841.77905	0.24458
1839.85049	0.24475
1837.92192	0.24539
1835.99336	0.24625
1834.06479	0.24715
1832.13623	0.24834
1830.20767	0.25013
1828.27910	0.25174
1826.35054	0.25276
1824.42197	0.25401
1822.49341	0.25513
1820.56484	0.25605
1818.63628	0.25720
1816.70771	0.25872
1814.77915	0.26038
1812.85059	0.26230
1810.92202	0.26456
1808.99346	0.26664
1807.06489	0.26841
1805.13633	0.27019
1803.20776	0.27250
1801.27920	0.27530
1799.35063	0.27820
1797.42207	0.28065
1795.49351	0.28314
1793.56494	0.28626
1791.63638	0.29000
1789.70781	0.29303
1787.77925	0.29521
1785.85068	0.29823
1783.92212	0.30202
1781.99355	0.30608
1780.06499	0.31036
1778.13643	0.31469
1776.20786	0.31884
1774.27930	0.32350
1772.35073	0.32966
1770.42217	0.33577
1768.49360	0.34064
1766.56504	0.34546
1764.63647	0.35064
1762.70791	0.35662
1760.77935	0.36418
1758.85078	0.37120
1756.92222	0.37824
1754.99365	0.38593
1753.06509	0.39311
1751.13652	0.40195
1749.20796	0.41293
1747.27939	0.42335
1745.35083	0.43240
1743.42227	0.44204
1741.49370	0.45270
1739.56514	0.46515
1737.63657	0.47757
1735.70801	0.48886
1733.77944	0.50592
1731.85088	0.52551
1729.92231	0.54054
1727.99375	0.55573
1726.06519	0.57229
1724.13662	0.59059
1722.20806	0.61056
1720.27949	0.62938
1718.35093	0.65160
1716.42236	0.68327
1714.49380	0.71282
1712.56523	0.73706
1710.63667	0.76098
1708.70811	0.78701
1706.77954	0.81664
1704.85098	0.85167
1702.92241	0.88316
1700.99385	0.91533
1699.06528	0.96265
1697.13672	1.00538
1695.20815	1.04867
1693.27959	1.09124
1691.35103	1.12667
1689.42246	1.16802
1687.49390	1.21163
1685.56533	1.25447
1683.63677	1.31913
1681.70820	1.38435
1679.77964	1.42689
1677.85107	1.46868
1675.92251	1.51713
1673.99395	1.57530
1672.06538	1.62703
1670.13682	1.67932
1668.20825	1.74611
1666.27969	1.80060
1664.35112	1.84856
1662.42256	1.91021
1660.49399	1.98034
1658.56543	2.03568
1656.63687	2.08008
1654.70830	2.12121
1652.77974	2.18169
1650.85117	2.23354
1648.92261	2.25194
1646.99404	2.27693
1645.06548	2.30126
1643.13691	2.31453
1641.20835	2.32095
1639.27979	2.32747
1637.35122	2.33162
1635.42266	2.32966
1633.49409	2.31934
1631.56553	2.30177
1629.63696	2.28085
1627.70840	2.25115
1625.77983	2.21841
1623.85127	2.17649
1621.92271	2.12276
1619.99414	2.07403
1618.06558	2.02799
1616.13701	1.96339
1614.20845	1.89635
1612.27988	1.84451
1610.35132	1.79121
1608.42275	1.73468
1606.49419	1.67980
1604.56562	1.62895
1602.63706	1.57938
1600.70850	1.53082
1598.77993	1.48653
1596.85137	1.44585
1594.92280	1.40663
1592.99424	1.36819
1591.06567	1.33283
1589.13711	1.30063
1587.20854	1.27155
1585.27998	1.24499
1583.35142	1.22016
1581.42285	1.19763
1579.49429	1.17897
1577.56572	1.16334
1575.63716	1.14485
1573.70859	1.12731
1571.78003	1.11573
1569.85146	1.10574
1567.92290	1.09591
1565.99434	1.08879
1564.06577	1.08397
1562.13721	1.08100
1560.20864	1.08142
1558.28008	1.08665
1556.35151	1.08963
1554.42295	1.09019
1552.49438	1.09153
1550.56582	1.09179
1548.63726	1.08948
1546.70869	1.08465
1544.78013	1.07718
1542.85156	1.06647
1540.92300	1.04950
1538.99443	1.02119
1537.06587	0.99842
1535.13730	0.98305
1533.20874	0.96373
1531.28018	0.94230
1529.35161	0.92618
1527.42305	0.91191
1525.49448	0.89789
1523.56592	0.88598
1521.63735	0.87456
1519.70879	0.86276
1517.78022	0.85242
1515.85166	0.84026
1513.92310	0.82718
1511.99453	0.81602
1510.06597	0.80662
1508.13740	0.79819
1506.20884	0.78434
1504.28027	0.76994
1502.35171	0.76144
1500.42314	0.75492
1498.49458	0.74856
1496.56602	0.74086
1494.63745	0.73256
1492.70889	0.72620
1490.78032	0.72125
1488.85176	0.71554
1486.92319	0.70914
1484.99463	0.70370
1483.06606	0.69974
1481.13750	0.69666
1479.20894	0.69426
1477.28037	0.69308
1475.35181	0.69308
1473.42324	0.69360
1471.49468	0.69283
1469.56611	0.69026
1467.63755	0.68760
1465.70898	0.68573
1463.78042	0.68435
1461.85186	0.68341
1459.92329	0.68359
1457.99473	0.68475
1456.06616	0.68455
1454.13760	0.68196
1452.20903	0.67932
1450.28047	0.67685
1448.35190	0.67435
1446.42334	0.67173
1444.49478	0.66923
1442.56621	0.66672
1440.63765	0.66401
1438.70908	0.66142
1436.78052	0.65837
1434.85195	0.65436
1432.92339	0.65090
1430.99482	0.64872
1429.06626	0.64757
1427.13770	0.64715
1425.20913	0.64742
1423.28057	0.64823
1421.35200	0.64910
1419.42344	0.64991
1417.49487	0.64981
1415.56631	0.64849
1413.63774	0.64760
1411.70918	0.64772
1409.78062	0.64857
1407.85205	0.64986
1405.92349	0.65166
1403.99492	0.65346
1402.06636	0.65421
1400.13779	0.65395
1398.20923	0.65270
1396.28066	0.65024
1394.35210	0.64651
1392.42354	0.64196
1390.49497	0.63760
1388.56641	0.63358
1386.63784	0.62898
1384.70928	0.62368
1382.78071	0.61863
1380.85215	0.61402
1378.92358	0.60991
1376.99502	0.60674
1375.06646	0.60468
1373.13789	0.60319
1371.20933	0.60198
1369.28076	0.60098
1367.35220	0.59969
1365.42363	0.59806
1363.49507	0.59654
1361.56650	0.59497
1359.63794	0.59319
1357.70937	0.59173
1355.78081	0.59066
1353.85225	0.58972
1351.92368	0.58882
1349.99512	0.58808
1348.06655	0.58752
1346.13799	0.58696
1344.20942	0.58628
1342.28086	0.58555
1340.35229	0.58499
1338.42373	0.58461
1336.49517	0.58415
1334.56660	0.58372
1332.63804	0.58364
1330.70947	0.58393
1328.78091	0.58436
1326.85234	0.58479
1324.92378	0.58524
1322.99521	0.58584
1321.06665	0.58659
1319.13809	0.58734
1317.20952	0.58780
1315.28096	0.58778
1313.35239	0.58738
1311.42383	0.58684
1309.49526	0.58638
1307.56670	0.58604
1305.63813	0.58574
1303.70957	0.58526
1301.78101	0.58459
1299.85244	0.58395
1297.92388	0.58315
1295.99531	0.58195
1294.06675	0.58078
1292.13818	0.57988
1290.20962	0.57882
1288.28105	0.57751
1286.35249	0.57625
1284.42393	0.57506
1282.49536	0.57376
1280.56680	0.57232
1278.63823	0.57094
1276.70967	0.56977
1274.78110	0.56878
1272.85254	0.56790
1270.92397	0.56704
1268.99541	0.56608
1267.06685	0.56505
1265.13828	0.56419
1263.20972	0.56355
1261.28115	0.56282
1259.35259	0.56194
1257.42402	0.56126
1255.49546	0.56098
1253.56689	0.56092
1251.63833	0.56093
1249.70977	0.56093
1247.78120	0.56081
1245.85264	0.56058
1243.92407	0.56020
1241.99551	0.55942
1240.06694	0.55796
1238.13838	0.55598
1236.20981	0.55386
1234.28125	0.55173
1232.35269	0.54960
1230.42412	0.54757
1228.49556	0.54571
1226.56699	0.54396
1224.63843	0.54222
1222.70986	0.54057
1220.78130	0.53908
1218.85273	0.53771
1216.92417	0.53648
1214.99561	0.53543
1213.06704	0.53455
1211.13848	0.53384
1209.20991	0.53305
1207.28135	0.53213
1205.35278	0.53126
1203.42422	0.53035
1201.49565	0.52942
1199.56709	0.52867
1197.63853	0.52802
1195.70996	0.52724
1193.78140	0.52654
1191.85283	0.52620
1189.92427	0.52615
1187.99570	0.52598
1186.06714	0.52570
1184.13857	0.52568
1182.21001	0.52594
1180.28145	0.52654
1178.35288	0.52771
1176.42432	0.52912
1174.49575	0.53017
1172.56719	0.53059
1170.63862	0.53045
1168.71006	0.52994
1166.78149	0.52935
1164.85293	0.52879
1162.92437	0.52810
1160.99580	0.52737
1159.06724	0.52668
1157.13867	0.52603
1155.21011	0.52535
1153.28154	0.52435
1151.35298	0.52277
1149.42441	0.52066
1147.49585	0.51829
1145.56729	0.51580
1143.63872	0.51338
1141.71016	0.51129
1139.78159	0.50961
1137.85303	0.50807
1135.92446	0.50661
1133.99590	0.50537
1132.06733	0.50439
1130.13877	0.50354
1128.21021	0.50255
1126.28164	0.50144
1124.35308	0.50048
1122.42451	0.49970
1120.49595	0.49891
1118.56738	0.49833
1116.63882	0.49824
1114.71025	0.49833
1112.78169	0.49844
1110.85312	0.49876
1108.92456	0.49942
1106.99600	0.50039
1105.06743	0.50158
1103.13887	0.50299
1101.21030	0.50477
1099.28174	0.50678
1097.35317	0.50909
1095.42461	0.51206
1093.49604	0.51559
1091.56748	0.51941
1089.63892	0.52372
1087.71035	0.52882
1085.78179	0.53464
1083.85322	0.54084
1081.92466	0.54705
1079.99609	0.55255
1078.06753	0.55608
1076.13896	0.55692
1074.21040	0.55511
1072.28184	0.55095
1070.35327	0.54504
1068.42471	0.53815
1066.49614	0.53107
1064.56758	0.52448
1062.63901	0.51851
1060.71045	0.51321
1058.78188	0.50873
1056.85332	0.50491
1054.92476	0.50142
1052.99619	0.49815
1051.06763	0.49509
1049.13906	0.49234
1047.21050	0.49004
1045.28193	0.48812
1043.35337	0.48643
1041.42480	0.48501
1039.49624	0.48389
1037.56768	0.48303
1035.63911	0.48255
1033.71055	0.48229
1031.78198	0.48203
1029.85342	0.48172
1027.92485	0.48141
1025.99629	0.48136
1024.06772	0.48176
1022.13916	0.48235
1020.21060	0.48281
1018.28203	0.48327
1016.35347	0.48403
1014.42490	0.48509
1012.49634	0.48626
1010.56777	0.48752
1008.63921	0.48900
1006.71064	0.49078
1004.78208	0.49276
1002.85352	0.49494
1000.92495	0.49755
998.99639	0.50071
997.06782	0.50452
995.13926	0.50879
993.21069	0.51290
991.28213	0.51633
989.35356	0.51885
987.42500	0.52050
985.49644	0.52153
983.56787	0.52230
981.63931	0.52331
979.71074	0.52465
977.78218	0.52613
975.85361	0.52818
973.92505	0.53111
971.99648	0.53451
970.06792	0.53811
968.13936	0.54188
966.21079	0.54579
964.28223	0.55015
962.35366	0.55510
960.42510	0.56034
958.49653	0.56577
956.56797	0.57154
954.63940	0.57779
952.71084	0.58449
950.78228	0.59124
948.85371	0.59774
946.92515	0.60405
944.99658	0.61033
943.06802	0.61672
941.13945	0.62329
939.21089	0.62995
937.28232	0.63651
935.35376	0.64287
933.42520	0.64848
931.49663	0.65346
929.56807	0.65908
927.63950	0.66517
925.71094	0.67124
923.78237	0.67789
921.85381	0.68504
919.92524	0.69197
917.99668	0.69834
916.06812	0.70461
914.13955	0.71137
912.21099	0.71895
910.28242	0.72775
908.35386	0.73736
906.42529	0.74684
904.49673	0.75609
902.56816	0.76528
900.63960	0.77451
898.71104	0.78396
896.78247	0.79361
894.85391	0.80365
892.92534	0.81435
890.99678	0.82495
889.06821	0.83487
887.13965	0.84594
885.21108	0.85939
883.28252	0.87333
881.35396	0.88609
879.42539	0.89731
877.49683	0.90745
875.56826	0.91814
873.63970	0.92988
871.71113	0.94131
869.78257	0.95167
867.85400	0.96201
865.92544	0.97406
863.99687	0.98800
862.06831	1.00227
860.13975	1.01439
858.21118	1.02352
856.28262	1.03310
854.35405	1.04599
852.42549	1.06080
850.49692	1.07545
848.56836	1.08874
846.63979	1.10115
844.71123	1.11430
842.78267	1.12812
840.85410	1.14159
838.92554	1.15330
836.99697	1.16339
835.06841	1.17470
833.13984	1.18825
831.21128	1.20072
829.28271	1.21178
827.35415	1.22811
825.42559	1.24738
823.49702	1.25876
821.56846	1.26576
819.63989	1.27760
817.71133	1.29507
815.78276	1.30982
813.85420	1.31239
811.92563	1.32450
809.99707	1.36731
808.06851	1.41696
806.13994	1.45167
804.21138	1.48146
802.28281	1.50303
800.35425	1.51097
798.42568	1.52208
796.49712	1.56397
794.56855	1.62983
792.63999	1.65276
790.71143	1.58103
788.78286	1.48679
786.85430	1.42503
784.92573	1.40823
782.99717	1.40445
781.06860	1.39889
779.14004	1.35469
777.21147	1.31173
775.28291	1.30369
773.35435	1.28163
771.42578	1.24834
769.49722	1.24347
767.56865	1.25730
765.64009	1.27361
763.71152	1.25846
761.78296	1.17524
759.85439	1.06979
757.92583	1.00357
755.99727	0.99833
754.06870	1.03735
752.14014	1.07497
750.21157	1.07860
748.28301	1.05565
746.35444	1.00601
744.42588	0.93682
742.49731	0.87885
740.56875	0.83126
738.64019	0.77078
736.71162	0.69354
734.78306	0.61624
732.85449	0.55185
730.92593	0.51757
728.99736	0.49553
727.06880	0.41982
725.14023	0.31936
723.21167	0.25823
721.28311	0.23077
719.35454	0.20223
717.42598	0.17538
715.49741	0.17480
713.56885	0.16677
711.64028	0.10668
709.71172	0.02754
707.78315	-0.03741
705.85459	-0.04967
703.92603	-0.00732
701.99746	0.02367
700.06890	0.07081
698.14033	0.09781
696.21177	0.02582
694.28320	-0.01891
692.35464	0.00635
690.42607	0.05809
688.49751	0.07535
686.56895	0.01137
684.64038	-0.07349
682.71182	-0.08566
680.78325	-0.02954
678.85469	0.05240
676.92612	0.11069
674.99756	0.11725
673.06899	0.08409
671.14043	0.02783
669.21187	0.03492
667.28330	0.10041
665.35474	0.07952
663.42617	-0.00047
661.49761	-0.02179
659.56904	-0.02729
657.64048	-0.00865
655.71191	0.04664
653.78335	0.08535
651.85479	0.12444
649.92622	0.17329
647.99766	0.13279
646.06909	0.03707
644.14053	-0.01131
642.21196	-0.00498
640.28340	0.02093
638.35483	0.03144
636.42627	0.04238
634.49771	0.06841
632.56914	0.09073
630.64058	0.12793
628.71201	0.19388
626.78345	0.25288
624.85488	0.29207
622.92632	0.28897
620.99775	0.23819
619.06919	0.15947
617.14062	0.09128
615.21206	0.05724
613.28350	0.02599
611.35493	0.02869
609.42637	0.09928
607.49780	0.13706
605.56924	0.11711
603.64067	0.06856
601.71211	0.00397
599.78354	-0.02669
597.85498	-0.00175
595.92642	0.03748
593.99785	0.06920
592.06929	0.07854
590.14072	0.06604
588.21216	0.06158
586.28359	0.07661
584.35503	0.06349
582.42646	0.03351
580.49790	0.07196
578.56934	0.09851
576.64077	0.03256
574.71221	-0.04399
572.78364	-0.05544
570.85508	-0.01459
568.92651	0.04954
566.99795	0.06900
565.06938	0.05611
563.14082	0.05374
561.21226	0.03398
559.28369	-0.00507
557.35513	-0.02833
555.42656	-0.01131
553.49800	0.02455
551.56943	0.03547
549.64087	0.03774
547.71230	0.03514
545.78374	0.02433
543.85518	0.02831
541.92661	0.03839
539.99805	0.03675
538.06948	0.00100
536.14092	-0.04409
534.21235	-0.03555
532.28379	0.02914
530.35522	0.10693
528.42666	0.11048
526.49810	0.03271
524.56953	-0.03280
522.64097	-0.02251
520.71240	0.00624
518.78384	0.00016
516.85527	-0.01180
514.92671	0.00394
512.99814	0.02431
511.06958	0.04127
509.14102	0.06477
507.21245	0.07562
505.28389	0.06416
503.35532	0.06394
501.42676	0.07722
499.49819	0.06954
