3997.91411	0.06892
3995.98555	0.06899
3994.05698	0.06902
3992.12842	0.06963
3990.19985	0.07064
3988.27129	0.07113
3986.34272	0.07139
3984.41416	0.07165
3982.48560	0.07152
3980.55703	0.07148
3978.62847	0.07219
3976.69990	0.07293
3974.77134	0.07269
3972.84277	0.07195
3970.91421	0.07185
3968.98564	0.07253
3967.05708	0.07312
3965.12852	0.07308
3963.19995	0.07282
3961.27139	0.07284
3959.34282	0.07286
3957.41426	0.07261
3955.48569	0.07253
3953.55713	0.07308
3951.62856	0.07404
3949.70000	0.07490
3947.77144	0.07528
3945.84287	0.07506
3943.91431	0.07470
3941.98574	0.07444
3940.05718	0.07404
3938.12861	0.07373
3936.20005	0.07370
3934.27148	0.07390
3932.34292	0.07434
3930.41436	0.07479
3928.48579	0.07474
3926.55723	0.07425
3924.62866	0.07415
3922.70010	0.07455
3920.77153	0.07470
3918.84297	0.07477
3916.91440	0.07505
3914.98584	0.07477
3913.05728	0.07357
3911.12871	0.07242
3909.20015	0.07211
3907.27158	0.07292
3905.34302	0.07495
3903.41445	0.07739
3901.48589	0.07828
3899.55732	0.07754
3897.62876	0.07598
3895.70020	0.07423
3893.77163	0.07375
3891.84307	0.07503
3889.91450	0.07602
3887.98594	0.07521
3886.05737	0.07492
3884.12881	0.07598
3882.20024	0.07656
3880.27168	0.07648
3878.34312	0.07571
3876.41455	0.07456
3874.48599	0.07468
3872.55742	0.07587
3870.62886	0.07731
3868.70029	0.07878
3866.77173	0.07899
3864.84316	0.07896
3862.91460	0.07950
3860.98604	0.07885
3859.05747	0.07771
3857.12891	0.07803
3855.20034	0.08039
3853.27178	0.08433
3851.34321	0.08515
3849.41465	0.08188
3847.48608	0.07956
3845.55752	0.07934
3843.62896	0.08094
3841.70039	0.08339
3839.77183	0.08569
3837.84326	0.08738
3835.91470	0.08770
3833.98613	0.08679
3832.05757	0.08566
3830.12900	0.08515
3828.20044	0.08572
3826.27187	0.08692
3824.34331	0.08797
3822.41475	0.08959
3820.48618	0.09263
3818.55762	0.09430
3816.62905	0.09434
3814.70049	0.09427
3812.77192	0.09318
3810.84336	0.09209
3808.91479	0.09261
3806.98623	0.09511
3805.05767	0.09794
3803.12910	0.09982
3801.20054	0.10194
3799.27197	0.10307
3797.34341	0.10276
3795.41484	0.10262
3793.48628	0.10229
3791.55771	0.10228
3789.62915	0.10317
3787.70059	0.10466
3785.77202	0.10684
3783.84346	0.10895
3781.91489	0.11023
3779.98633	0.11182
3778.05776	0.11385
3776.12920	0.11474
3774.20063	0.11548
3772.27207	0.11750
3770.34351	0.12052
3768.41494	0.12333
3766.48638	0.12488
3764.55781	0.12586
3762.62925	0.12688
3760.70068	0.12883
3758.77212	0.13252
3756.84355	0.13615
3754.91499	0.13819
3752.98643	0.14074
3751.05786	0.14594
3749.12930	0.15155
3747.20073	0.15344
3745.27217	0.15506
3743.34360	0.15962
3741.41504	0.16349
3739.48647	0.16568
3737.55791	0.16982
3735.62935	0.17766
3733.70078	0.18596
3731.77222	0.19027
3729.84365	0.19300
3727.91509	0.19655
3725.98652	0.20160
3724.05796	0.20751
3722.12939	0.21333
3720.20083	0.21896
3718.27227	0.22409
3716.34370	0.22933
3714.41514	0.23571
3712.48657	0.24536
3710.55801	0.26049
3708.62944	0.27610
3706.70088	0.28735
3704.77231	0.29778
3702.84375	0.31080
3700.91519	0.32726
3698.98662	0.34431
3697.05806	0.36067
3695.12949	0.37859
3693.20093	0.39822
3691.27236	0.42013
3689.34380	0.44755
3687.41523	0.47992
3685.48667	0.50841
3683.55811	0.53324
3681.62954	0.56057
3679.70098	0.59226
3677.77241	0.62610
3675.84385	0.66595
3673.91528	0.71762
3671.98672	0.75978
3670.05815	0.79799
3668.12959	0.84891
3666.20103	0.89501
3664.27246	0.93444
3662.34390	0.97733
3660.41533	1.02379
3658.48677	1.06968
3656.55820	1.11859
3654.62964	1.17293
3652.70107	1.21951
3650.77251	1.26141
3648.84395	1.31729
3646.91538	1.38243
3644.98682	1.43068
3643.05825	1.46880
3641.12969	1.50845
3639.20112	1.55220
3637.27256	1.59623
3635.34399	1.63953
3633.41543	1.68340
3631.48687	1.72500
3629.55830	1.76759
3627.62974	1.82153
3625.70117	1.87059
3623.77261	1.90419
3621.84404	1.93692
3619.91548	1.97532
3617.98691	2.02181
3616.05835	2.06532
3614.12979	2.10002
3612.20122	2.13609
3610.27266	2.17496
3608.34409	2.21690
3606.41553	2.26049
3604.48696	2.29941
3602.55840	2.33461
3600.62983	2.37290
3598.70127	2.41448
3596.77271	2.45601
3594.84414	2.49804
3592.91558	2.53884
3590.98701	2.57543
3589.05845	2.61084
3587.12988	2.65493
3585.20132	2.70321
3583.27275	2.74363
3581.34419	2.78077
3579.41562	2.82033
3577.48706	2.86193
3575.55850	2.90493
3573.62993	2.95059
3571.70137	2.99433
3569.77280	3.03395
3567.84424	3.07625
3565.91567	3.12784
3563.98711	3.17646
3562.05854	3.21662
3560.12998	3.25804
3558.20142	3.30436
3556.27285	3.35275
3554.34429	3.39802
3552.41572	3.44333
3550.48716	3.49125
3548.55859	3.53709
3546.63003	3.58045
3544.70146	3.62765
3542.77290	3.67915
3540.84434	3.73067
3538.91577	3.78129
3536.98721	3.82956
3535.05864	3.87592
3533.13008	3.92065
3531.20151	3.96623
3529.27295	4.01522
3527.34438	4.06522
3525.41582	4.11185
3523.48726	4.15871
3521.55869	4.20914
3519.63013	4.25739
3517.70156	4.30296
3515.77300	4.34803
3513.84443	4.39442
3511.91587	4.44376
3509.98730	4.49576
3508.05874	4.54872
3506.13018	4.59929
3504.20161	4.64597
3502.27305	4.69004
3500.34448	4.73428
3498.41592	4.78299
3496.48735	4.83784
3494.55879	4.89005
3492.63022	4.93310
3490.70166	4.97624
3488.77310	5.02691
3486.84453	5.08069
3484.91597	5.13270
3482.98740	5.18017
3481.05884	5.22690
3479.13027	5.28108
3477.20171	5.33663
3475.27314	5.38278
3473.34458	5.42380
3471.41602	5.46669
3469.48745	5.51036
3467.55889	5.56039
3465.63032	5.62204
3463.70176	5.68351
3461.77319	5.73258
3459.84463	5.77743
3457.91606	5.82692
3455.98750	5.87876
3454.05894	5.93252
3452.13037	5.98817
3450.20181	6.04279
3448.27324	6.09866
3446.34468	6.15122
3444.41611	6.18524
3442.48755	6.21984
3440.55898	6.27226
3438.63042	6.32810
3436.70186	6.38265
3434.77329	6.43999
3432.84473	6.49362
3430.91616	6.54462
3428.98760	6.60314
3427.05903	6.65775
3425.13047	6.70256
3423.20190	6.74932
3421.27334	6.80290
3419.34478	6.84624
3417.41621	6.89188
3415.48765	6.95397
3413.55908	7.00296
3411.63052	7.04885
3409.70195	7.09424
3407.77339	7.12294
3405.84482	7.15609
3403.91626	7.21079
3401.98770	7.27202
3400.05913	7.33401
3398.13057	7.38390
3396.20200	7.41050
3394.27344	7.43258
3392.34487	7.45558
3390.41631	7.50718
3388.48774	7.57958
3386.55918	7.64620
3384.63062	7.67818
3382.70205	7.67892
3380.77349	7.71117
3378.84492	7.73061
3376.91636	7.69782
3374.98779	7.68293
3373.05923	7.69991
3371.13066	7.71811
3369.20210	7.77586
3367.27354	7.86530
3365.34497	7.95301
3363.41641	8.04994
3361.48784	8.10696
3359.55928	8.08695
3357.63071	8.05124
3355.70215	8.05965
3353.77358	8.07200
3351.84502	8.06164
3349.91646	8.06322
3347.98789	8.10853
3346.05933	8.14666
3344.13076	8.14594
3342.20220	8.15723
3340.27363	8.15921
3338.34507	8.16453
3336.41650	8.19833
3334.48794	8.22853
3332.55937	8.22715
3330.63081	8.23599
3328.70225	8.28141
3326.77368	8.31581
3324.84512	8.31393
3322.91655	8.28398
3320.98799	8.27244
3319.05942	8.28034
3317.13086	8.29662
3315.20229	8.33405
3313.27373	8.34805
3311.34517	8.32687
3309.41660	8.36683
3307.48804	8.43871
3305.55947	8.40187
3303.63091	8.29286
3301.70234	8.22726
3299.77378	8.27970
3297.84521	8.36849
3295.91665	8.34676
3293.98809	8.27949
3292.05952	8.30340
3290.13096	8.39961
3288.20239	8.48769
3286.27383	8.55378
3284.34526	8.52386
3282.41670	8.39923
3280.48813	8.31344
3278.55957	8.33928
3276.63101	8.41680
3274.70244	8.47058
3272.77388	8.47464
3270.84531	8.39211
3268.91675	8.36192
3266.98818	8.48420
3265.05962	8.56153
3263.13105	8.48075
3261.20249	8.39015
3259.27393	8.36330
3257.34536	8.42782
3255.41680	8.54845
3253.48823	8.64892
3251.55967	8.65235
3249.63110	8.54303
3247.70254	8.45716
3245.77397	8.42139
3243.84541	8.40201
3241.91685	8.37834
3239.98828	8.31952
3238.05972	8.27139
3236.13115	8.27074
3234.20259	8.31767
3232.27402	8.39558
3230.34546	8.47373
3228.41689	8.50371
3226.48833	8.41190
3224.55977	8.26683
3222.63120	8.22351
3220.70264	8.27094
3218.77407	8.30073
3216.84551	8.28782
3214.91694	8.22806
3212.98838	8.13910
3211.05981	8.10681
3209.13125	8.12213
3207.20269	8.10976
3205.27412	8.10780
3203.34556	8.10912
3201.41699	8.03305
3199.48843	7.93929
3197.55986	7.90308
3195.63130	7.89126
3193.70273	7.82943
3191.77417	7.73448
3189.84561	7.69623
3187.91704	7.70889
3185.98848	7.69982
3184.05991	7.64092
3182.13135	7.56639
3180.20278	7.50507
3178.27422	7.46042
3176.34565	7.42829
3174.41709	7.36344
3172.48853	7.26767
3170.55996	7.17932
3168.63140	7.11345
3166.70283	7.06319
3164.77427	6.99540
3162.84570	6.92826
3160.91714	6.89334
3158.98857	6.86107
3157.06001	6.80244
3155.13145	6.73801
3153.20288	6.67317
3151.27432	6.59352
3149.34575	6.49812
3147.41719	6.39638
3145.48862	6.31102
3143.56006	6.24379
3141.63149	6.18453
3139.70293	6.12901
3137.77437	6.06788
3135.84580	5.99231
3133.91724	5.90950
3131.98867	5.83367
3130.06011	5.76147
3128.13154	5.68884
3126.20298	5.61884
3124.27441	5.55210
3122.34585	5.48267
3120.41729	5.40056
3118.48872	5.30999
3116.56016	5.22573
3114.63159	5.15103
3112.70303	5.08282
3110.77446	5.01878
3108.84590	4.95107
3106.91733	4.87998
3104.98877	4.81211
3103.06021	4.74438
3101.13164	4.67470
3099.20308	4.60915
3097.27451	4.54675
3095.34595	4.48099
3093.41738	4.41261
3091.48882	4.34496
3089.56025	4.27960
3087.63169	4.21586
3085.70312	4.15249
3083.77456	4.08934
3081.84600	4.02678
3079.91743	3.96535
3077.98887	3.90321
3076.06030	3.83982
3074.13174	3.77771
3072.20317	3.71718
3070.27461	3.65883
3068.34604	3.60310
3066.41748	3.54667
3064.48892	3.48841
3062.56035	3.43071
3060.63179	3.37438
3058.70322	3.31869
3056.77466	3.26402
3054.84609	3.21105
3052.91753	3.15861
3050.98896	3.10597
3049.06040	3.05407
3047.13184	3.00384
3045.20327	2.95414
3043.27471	2.90275
3041.34614	2.85121
3039.41758	2.80281
3037.48901	2.75678
3035.56045	2.71085
3033.63188	2.66484
3031.70332	2.61866
3029.77476	2.57233
3027.84619	2.52738
3025.91763	2.48435
3023.98906	2.44162
3022.06050	2.39843
3020.13193	2.35571
3018.20337	2.31412
3016.27480	2.27369
3014.34624	2.23413
3012.41768	2.19483
3010.48911	2.15567
3008.56055	2.11721
3006.63198	2.07977
3004.70342	2.04306
3002.77485	2.00701
3000.84629	1.97213
2998.91772	1.93842
2996.98916	1.90531
2995.06060	1.87272
2993.13203	1.84076
2991.20347	1.80932
2989.27490	1.77837
2987.34634	1.74789
2985.41777	1.71775
2983.48921	1.68829
2981.56064	1.65988
2979.63208	1.63225
2977.70352	1.60519
2975.77495	1.57873
2973.84639	1.55259
2971.91782	1.52646
2969.98926	1.50067
2968.06069	1.47542
2966.13213	1.45031
2964.20356	1.42534
2962.27500	1.40064
2960.34644	1.37583
2958.41787	1.35119
2956.48931	1.32724
2954.56074	1.30372
2952.63218	1.28027
2950.70361	1.25684
2948.77505	1.23375
2946.84648	1.21147
2944.91792	1.18991
2942.98936	1.16885
2941.06079	1.14784
2939.13223	1.12632
2937.20366	1.10482
2935.27510	1.08379
2933.34653	1.06280
2931.41797	1.04227
2929.48940	1.02266
2927.56084	1.00314
2925.63228	0.98351
2923.70371	0.96482
2921.77515	0.94748
2919.84658	0.93084
2917.91802	0.91458
2915.98945	0.89886
2914.06089	0.88337
2912.13232	0.86807
2910.20376	0.85315
2908.27520	0.83840
2906.34663	0.82397
2904.41807	0.81003
2902.48950	0.79637
2900.56094	0.78293
2898.63237	0.76986
2896.70381	0.75718
2894.77524	0.74491
2892.84668	0.73280
2890.91812	0.72064
2888.98955	0.70886
2887.06099	0.69769
2885.13242	0.68705
2883.20386	0.67684
2881.27529	0.66674
2879.34673	0.65674
2877.41816	0.64687
2875.48960	0.63684
2873.56104	0.62653
2871.63247	0.61598
2869.70391	0.60507
2867.77534	0.59368
2865.84678	0.58197
2863.91821	0.57033
2861.98965	0.55878
2860.06108	0.54718
2858.13252	0.53595
2856.20396	0.52571
2854.27539	0.51647
2852.34683	0.50786
2850.41826	0.49980
2848.48970	0.49212
2846.56113	0.48469
2844.63257	0.47790
2842.70400	0.47177
2840.77544	0.46575
2838.84687	0.45973
2836.91831	0.45388
2834.98975	0.44824
2833.06118	0.44255
2831.13262	0.43651
2829.20405	0.43048
2827.27549	0.42486
2825.34692	0.41932
2823.41836	0.41338
2821.48979	0.40729
2819.56123	0.40139
2817.63267	0.39554
2815.70410	0.38967
2813.77554	0.38398
2811.84697	0.37848
2809.91841	0.37310
2807.98984	0.36791
2806.06128	0.36275
2804.13271	0.35750
2802.20415	0.35238
2800.27559	0.34747
2798.34702	0.34267
2796.41846	0.33794
2794.48989	0.33313
2792.56133	0.32836
2790.63276	0.32388
2788.70420	0.31944
2786.77563	0.31493
2784.84707	0.31056
2782.91851	0.30647
2780.98994	0.30258
2779.06138	0.29868
2777.13281	0.29478
2775.20425	0.29097
2773.27568	0.28725
2771.34712	0.28361
2769.41855	0.27987
2767.48999	0.27604
2765.56143	0.27249
2763.63286	0.26919
2761.70430	0.26589
2759.77573	0.26254
2757.84717	0.25928
2755.91860	0.25620
2753.99004	0.25328
2752.06147	0.25033
2750.13291	0.24729
2748.20435	0.24435
2746.27578	0.24151
2744.34722	0.23868
2742.41865	0.23590
2740.49009	0.23325
2738.56152	0.23076
2736.63296	0.22830
2734.70439	0.22570
2732.77583	0.22305
2730.84727	0.22055
2728.91870	0.21831
2726.99014	0.21634
2725.06157	0.21432
2723.13301	0.21210
2721.20444	0.20988
2719.27588	0.20782
2717.34731	0.20589
2715.41875	0.20402
2713.49019	0.20217
2711.56162	0.20030
2709.63306	0.19849
2707.70449	0.19684
2705.77593	0.19528
2703.84736	0.19372
2701.91880	0.19219
2699.99023	0.19077
2698.06167	0.18941
2696.13311	0.18794
2694.20454	0.18633
2692.27598	0.18481
2690.34741	0.18344
2688.41885	0.18212
2686.49028	0.18090
2684.56172	0.17967
2682.63315	0.17844
2680.70459	0.17741
2678.77603	0.17636
2676.84746	0.17512
2674.91890	0.17387
2672.99033	0.17276
2671.06177	0.17185
2669.13320	0.17103
2667.20464	0.17015
2665.27607	0.16923
2663.34751	0.16826
2661.41895	0.16723
2659.49038	0.16620
2657.56182	0.16524
2655.63325	0.16441
2653.70469	0.16380
2651.77612	0.16324
2649.84756	0.16260
2647.91899	0.16196
2645.99043	0.16136
2644.06187	0.16076
2642.13330	0.16020
2640.20474	0.15969
2638.27617	0.15911
2636.34761	0.15849
2634.41904	0.15800
2632.49048	0.15766
2630.56191	0.15734
2628.63335	0.15700
2626.70479	0.15663
2624.77622	0.15617
2622.84766	0.15576
2620.91909	0.15554
2618.99053	0.15542
2617.06196	0.15522
2615.13340	0.15494
2613.20483	0.15470
2611.27627	0.15457
2609.34771	0.15447
2607.41914	0.15439
2605.49058	0.15439
2603.56201	0.15436
2601.63345	0.15440
2599.70488	0.15454
2597.77632	0.15450
2595.84775	0.15429
2593.91919	0.15426
2591.99062	0.15450
2590.06206	0.15470
2588.13350	0.15479
2586.20493	0.15490
2584.27637	0.15503
2582.34780	0.15517
2580.41924	0.15535
2578.49067	0.15565
2576.56211	0.15609
2574.63354	0.15647
2572.70498	0.15668
2570.77642	0.15692
2568.84785	0.15723
2566.91929	0.15756
2564.99072	0.15789
2563.06216	0.15829
2561.13359	0.15877
2559.20503	0.15931
2557.27646	0.15984
2555.34790	0.16027
2553.41934	0.16068
2551.49077	0.16127
2549.56221	0.16186
2547.63364	0.16232
2545.70508	0.16283
2543.77651	0.16341
2541.84795	0.16402
2539.91938	0.16472
2537.99082	0.16543
2536.06226	0.16606
2534.13369	0.16666
2532.20513	0.16734
2530.27656	0.16808
2528.34800	0.16888
2526.41943	0.16966
2524.49087	0.17031
2522.56230	0.17092
2520.63374	0.17158
2518.70518	0.17231
2516.77661	0.17306
2514.84805	0.17389
2512.91948	0.17474
2510.99092	0.17545
2509.06235	0.17609
2507.13379	0.17681
2505.20522	0.17760
2503.27666	0.17853
2501.34810	0.17949
2499.41953	0.18033
2497.49097	0.18103
2495.56240	0.18175
2493.63384	0.18260
2491.70527	0.18352
2489.77671	0.18441
2487.84814	0.18522
2485.91958	0.18596
2483.99102	0.18676
2482.06245	0.18777
2480.13389	0.18882
2478.20532	0.18974
2476.27676	0.19057
2474.34819	0.19139
2472.41963	0.19227
2470.49106	0.19322
2468.56250	0.19421
2466.63394	0.19510
2464.70537	0.19590
2462.77681	0.19674
2460.84824	0.19771
2458.91968	0.19871
2456.99111	0.19965
2455.06255	0.20059
2453.13398	0.20164
2451.20542	0.20268
2449.27686	0.20357
2447.34829	0.20443
2445.41973	0.20541
2443.49116	0.20642
2441.56260	0.20734
2439.63403	0.20835
2437.70547	0.20949
2435.77690	0.21054
2433.84834	0.21146
2431.91978	0.21240
2429.99121	0.21337
2428.06265	0.21433
2426.13408	0.21532
2424.20552	0.21644
2422.27695	0.21768
2420.34839	0.21881
2418.41982	0.21975
2416.49126	0.22076
2414.56270	0.22198
2412.63413	0.22327
2410.70557	0.22445
2408.77700	0.22553
2406.84844	0.22657
2404.91987	0.22776
2402.99131	0.22913
2401.06274	0.23043
2399.13418	0.23158
2397.20562	0.23272
2395.27705	0.23398
2393.34849	0.23535
2391.41992	0.23674
2389.49136	0.23818
2387.56279	0.24005
2385.63423	0.24288
2383.70566	0.24705
2381.77710	0.25257
2379.84854	0.25918
2377.91997	0.26673
2375.99141	0.27532
2374.06284	0.28518
2372.13428	0.29651
2370.20571	0.30900
2368.27715	0.32182
2366.34858	0.33420
2364.42002	0.34519
2362.49146	0.35366
2360.56289	0.35890
2358.63433	0.35999
2356.70576	0.35582
2354.77720	0.34715
2352.84863	0.33634
2350.92007	0.32560
2348.99150	0.31902
2347.06294	0.31971
2345.13437	0.32825
2343.20581	0.33971
2341.27725	0.34610
2339.34868	0.34731
2337.42012	0.34664
2335.49155	0.34582
2333.56299	0.34523
2331.63442	0.34504
2329.70586	0.34493
2327.77729	0.34426
2325.84873	0.34256
2323.92017	0.34003
2321.99160	0.33709
2320.06304	0.33420
2318.13447	0.33158
2316.20591	0.32911
2314.27734	0.32721
2312.34878	0.32635
2310.42021	0.32591
2308.49165	0.32504
2306.56309	0.32368
2304.63452	0.32239
2302.70596	0.32183
2300.77739	0.32202
2298.84883	0.32256
2296.92026	0.32329
2294.99170	0.32397
2293.06313	0.32446
2291.13457	0.32500
2289.20601	0.32575
2287.27744	0.32652
2285.34888	0.32737
2283.42031	0.32858
2281.49175	0.33039
2279.56318	0.33278
2277.63462	0.33532
2275.70605	0.33773
2273.77749	0.33997
2271.84893	0.34202
2269.92036	0.34393
2267.99180	0.34590
2266.06323	0.34797
2264.13467	0.34994
2262.20610	0.35178
2260.27754	0.35360
2258.34897	0.35547
2256.42041	0.35738
2254.49185	0.35927
2252.56328	0.36115
2250.63472	0.36320
2248.70615	0.36537
2246.77759	0.36743
2244.84902	0.36935
2242.92046	0.37128
2240.99189	0.37338
2239.06333	0.37565
2237.13477	0.37799
2235.20620	0.38027
2233.27764	0.38248
2231.34907	0.38477
2229.42051	0.38715
2227.49194	0.38945
2225.56338	0.39157
2223.63481	0.39362
2221.70625	0.39573
2219.77769	0.39792
2217.84912	0.40009
2215.92056	0.40219
2213.99199	0.40436
2212.06343	0.40666
2210.13486	0.40889
2208.20630	0.41089
2206.27773	0.41280
2204.34917	0.41482
2202.42061	0.41697
2200.49204	0.41911
2198.56348	0.42119
2196.63491	0.42323
2194.70635	0.42522
2192.77778	0.42717
2190.84922	0.42906
2188.92065	0.43083
2186.99209	0.43257
2185.06353	0.43431
2183.13496	0.43599
2181.20640	0.43763
2179.27783	0.43924
2177.34927	0.44087
2175.42070	0.44255
2173.49214	0.44413
2171.56357	0.44548
2169.63501	0.44676
2167.70645	0.44813
2165.77788	0.44952
2163.84932	0.45074
2161.92075	0.45178
2159.99219	0.45279
2158.06362	0.45377
2156.13506	0.45473
2154.20649	0.45569
2152.27793	0.45651
2150.34937	0.45714
2148.42080	0.45779
2146.49224	0.45847
2144.56367	0.45905
2142.63511	0.45946
2140.70654	0.45971
2138.77798	0.45993
2136.84941	0.46005
2134.92085	0.45996
2132.99229	0.45981
2131.06372	0.45970
2129.13516	0.45950
2127.20659	0.45920
2125.27803	0.45883
2123.34946	0.45833
2121.42090	0.45776
2119.49233	0.45726
2117.56377	0.45670
2115.63521	0.45594
2113.70664	0.45507
2111.77808	0.45411
2109.84951	0.45304
2107.92095	0.45189
2105.99238	0.45075
2104.06382	0.44962
2102.13525	0.44837
2100.20669	0.44698
2098.27812	0.44540
2096.34956	0.44374
2094.42100	0.44219
2092.49243	0.44062
2090.56387	0.43885
2088.63530	0.43701
2086.70674	0.43525
2084.77817	0.43342
2082.84961	0.43151
2080.92104	0.42964
2078.99248	0.42773
2077.06392	0.42557
2075.13535	0.42320
2073.20679	0.42079
2071.27822	0.41842
2069.34966	0.41615
2067.42109	0.41394
2065.49253	0.41171
2063.56396	0.40929
2061.63540	0.40668
2059.70684	0.40406
2057.77827	0.40145
2055.84971	0.39884
2053.92114	0.39627
2051.99258	0.39373
2050.06401	0.39119
2048.13545	0.38853
2046.20688	0.38574
2044.27832	0.38306
2042.34976	0.38045
2040.42119	0.37767
2038.49263	0.37475
2036.56406	0.37195
2034.63550	0.36927
2032.70693	0.36652
2030.77837	0.36378
2028.84980	0.36105
2026.92124	0.35823
2024.99268	0.35544
2023.06411	0.35264
2021.13555	0.34979
2019.20698	0.34709
2017.27842	0.34443
2015.34985	0.34150
2013.42129	0.33853
2011.49272	0.33571
2009.56416	0.33296
2007.63560	0.33025
2005.70703	0.32761
2003.77847	0.32498
2001.84990	0.32232
1999.92134	0.31967
1997.99277	0.31700
1996.06421	0.31439
1994.13564	0.31205
1992.20708	0.30982
1990.27852	0.30728
1988.34995	0.30459
1986.42139	0.30207
1984.49282	0.29970
1982.56426	0.29735
1980.63569	0.29498
1978.70713	0.29267
1976.77856	0.29044
1974.85000	0.28819
1972.92144	0.28591
1970.99287	0.28374
1969.06431	0.28178
1967.13574	0.27994
1965.20718	0.27788
1963.27861	0.27567
1961.35005	0.27363
1959.42148	0.27179
1957.49292	0.27011
1955.56436	0.26852
1953.63579	0.26682
1951.70723	0.26497
1949.77866	0.26324
1947.85010	0.26172
1945.92153	0.26036
1943.99297	0.25915
1942.06440	0.25780
1940.13584	0.25608
1938.20728	0.25435
1936.27871	0.25296
1934.35015	0.25169
1932.42158	0.25036
1930.49302	0.24906
1928.56445	0.24789
1926.63589	0.24687
1924.70732	0.24612
1922.77876	0.24548
1920.85020	0.24464
1918.92163	0.24378
1916.99307	0.24283
1915.06450	0.24160
1913.13594	0.24052
1911.20737	0.23992
1909.27881	0.23951
1907.35024	0.23885
1905.42168	0.23792
1903.49312	0.23714
1901.56455	0.23665
1899.63599	0.23627
1897.70742	0.23597
1895.77886	0.23568
1893.85029	0.23527
1891.92173	0.23489
1889.99316	0.23486
1888.06460	0.23472
1886.13604	0.23427
1884.20747	0.23391
1882.27891	0.23367
1880.35034	0.23349
1878.42178	0.23338
1876.49321	0.23335
1874.56465	0.23335
1872.63608	0.23355
1870.70752	0.23416
1868.77896	0.23516
1866.85039	0.23551
1864.92183	0.23502
1862.99326	0.23469
1861.06470	0.23482
1859.13613	0.23517
1857.20757	0.23558
1855.27900	0.23602
1853.35044	0.23637
1851.42187	0.23686
1849.49331	0.23761
1847.56475	0.23859
1845.63618	0.23979
1843.70762	0.24097
1841.77905	0.24146
1839.85049	0.24161
1837.92192	0.24230
1835.99336	0.24323
1834.06479	0.24417
1832.13623	0.24536
1830.20767	0.24713
1828.27910	0.24874
1826.35054	0.24969
1824.42197	0.25083
1822.49341	0.25191
1820.56484	0.25290
1818.63628	0.25416
1816.70771	0.25586
1814.77915	0.25766
1812.85059	0.25963
1810.92202	0.26192
1808.99346	0.26404
1807.06489	0.26573
1805.13633	0.26737
1803.20776	0.26962
1801.27920	0.27236
1799.35063	0.27526
1797.42207	0.27779
1795.49351	0.28030
1793.56494	0.28342
1791.63638	0.28726
1789.70781	0.29037
1787.77925	0.29251
1785.85068	0.29548
1783.92212	0.29930
1781.99355	0.30345
1780.06499	0.30772
1778.13643	0.31193
1776.20786	0.31598
1774.27930	0.32067
1772.35073	0.32693
1770.42217	0.33311
1768.49360	0.33799
1766.56504	0.34281
1764.63647	0.34802
1762.70791	0.35404
1760.77935	0.36163
1758.85078	0.36874
1756.92222	0.37589
1754.99365	0.38350
1753.06509	0.39040
1751.13652	0.39899
1749.20796	0.40991
1747.27939	0.42037
1745.35083	0.42936
1743.42227	0.43889
1741.49370	0.44951
1739.56514	0.46208
1737.63657	0.47470
1735.70801	0.48609
1733.77944	0.50284
1731.85088	0.52186
1729.92231	0.53677
1727.99375	0.55214
1726.06519	0.56905
1724.13662	0.58770
1722.20806	0.60780
1720.27949	0.62672
1718.35093	0.64918
1716.42236	0.68124
1714.49380	0.71124
1712.56523	0.73578
1710.63667	0.75977
1708.70811	0.78590
1706.77954	0.81602
1704.85098	0.85169
1702.92241	0.88345
1700.99385	0.91551
1699.06528	0.96249
1697.13672	1.00516
1695.20815	1.04900
1693.27959	1.09247
1691.35103	1.12826
1689.42246	1.16955
1687.49390	1.21314
1685.56533	1.25595
1683.63677	1.32041
1681.70820	1.38578
1679.77964	1.42833
1677.85107	1.46974
1675.92251	1.51773
1673.99395	1.57568
1672.06538	1.62754
1670.13682	1.67940
1668.20825	1.74510
1666.27969	1.79856
1664.35112	1.84513
1662.42256	1.90525
1660.49399	1.97359
1658.56543	2.02664
1656.63687	2.06875
1654.70830	2.10787
1652.77974	2.16836
1650.85117	2.22398
1648.92261	2.24376
1646.99404	2.26661
1645.06548	2.28974
1643.13691	2.30601
1641.20835	2.31648
1639.27979	2.32493
1637.35122	2.32805
1635.42266	2.32364
1633.49409	2.31257
1631.56553	2.29712
1629.63696	2.27894
1627.70840	2.25026
1625.77983	2.21674
1623.85127	2.17443
1621.92271	2.12260
1619.99414	2.07658
1618.06558	2.03194
1616.13701	1.96834
1614.20845	1.90226
1612.27988	1.85068
1610.35132	1.79765
1608.42275	1.74151
1606.49419	1.68690
1604.56562	1.63653
1602.63706	1.58783
1600.70850	1.54050
1598.77993	1.49726
1596.85137	1.45658
1594.92280	1.41652
1592.99424	1.37756
1591.06567	1.34218
1589.13711	1.30956
1587.20854	1.27910
1585.27998	1.25076
1583.35142	1.22469
1581.42285	1.20128
1579.49429	1.18146
1577.56572	1.16442
1575.63716	1.14427
1573.70859	1.12556
1571.78003	1.11340
1569.85146	1.10218
1567.92290	1.09014
1565.99434	1.08128
1564.06577	1.07537
1562.13721	1.07141
1560.20864	1.07004
1558.28008	1.07136
1556.35151	1.07213
1554.42295	1.07203
1552.49438	1.07221
1550.56582	1.07127
1548.63726	1.06787
1546.70869	1.06190
1544.78013	1.05334
1542.85156	1.04220
1540.92300	1.02647
1538.99443	1.00085
1537.06587	0.97961
1535.13730	0.96504
1533.20874	0.94712
1531.28018	0.92746
1529.35161	0.91240
1527.42305	0.89880
1525.49448	0.88522
1523.56592	0.87369
1521.63735	0.86309
1519.70879	0.85217
1517.78022	0.84253
1515.85166	0.83136
1513.92310	0.81906
1511.99453	0.80824
1510.06597	0.79916
1508.13740	0.79123
1506.20884	0.77857
1504.28027	0.76546
1502.35171	0.75769
1500.42314	0.75162
1498.49458	0.74553
1496.56602	0.73838
1494.63745	0.73094
1492.70889	0.72521
1490.78032	0.72077
1488.85176	0.71585
1486.92319	0.71046
1484.99463	0.70573
1483.06606	0.70214
1481.13750	0.69951
1479.20894	0.69765
1477.28037	0.69672
1475.35181	0.69674
1473.42324	0.69711
1471.49468	0.69605
1469.56611	0.69347
1467.63755	0.69096
1465.70898	0.68904
1463.78042	0.68753
1461.85186	0.68644
1459.92329	0.68629
1457.99473	0.68715
1456.06616	0.68676
1454.13760	0.68375
1452.20903	0.68053
1450.28047	0.67761
1448.35190	0.67515
1446.42334	0.67274
1444.49478	0.67007
1442.56621	0.66741
1440.63765	0.66478
1438.70908	0.66228
1436.78052	0.65948
1434.85195	0.65599
1432.92339	0.65290
1430.99482	0.65081
1429.06626	0.64957
1427.13770	0.64900
1425.20913	0.64912
1423.28057	0.64964
1421.35200	0.64999
1419.42344	0.65022
1417.49487	0.64973
1415.56631	0.64820
1413.63774	0.64703
1411.70918	0.64673
1409.78062	0.64718
1407.85205	0.64828
1405.92349	0.64982
1403.99492	0.65108
1402.06636	0.65139
1400.13779	0.65097
1398.20923	0.64977
1396.28066	0.64759
1394.35210	0.64424
1392.42354	0.63995
1390.49497	0.63589
1388.56641	0.63218
1386.63784	0.62781
1384.70928	0.62282
1382.78071	0.61809
1380.85215	0.61380
1378.92358	0.61024
1376.99502	0.60781
1375.06646	0.60623
1373.13789	0.60485
1371.20933	0.60372
1369.28076	0.60282
1367.35220	0.60159
1365.42363	0.60007
1363.49507	0.59879
1361.56650	0.59746
1359.63794	0.59584
1357.70937	0.59444
1355.78081	0.59330
1353.85225	0.59212
1351.92368	0.59102
1349.99512	0.59026
1348.06655	0.58960
1346.13799	0.58870
1344.20942	0.58771
1342.28086	0.58697
1340.35229	0.58658
1338.42373	0.58607
1336.49517	0.58522
1334.56660	0.58447
1332.63804	0.58403
1330.70947	0.58383
1328.78091	0.58397
1326.85234	0.58444
1324.92378	0.58510
1322.99521	0.58586
1321.06665	0.58658
1319.13809	0.58709
1317.20952	0.58719
1315.28096	0.58687
1313.35239	0.58631
1311.42383	0.58566
1309.49526	0.58501
1307.56670	0.58446
1305.63813	0.58402
1303.70957	0.58348
1301.78101	0.58276
1299.85244	0.58191
1297.92388	0.58089
1295.99531	0.57970
1294.06675	0.57845
1292.13818	0.57729
1290.20962	0.57620
1288.28105	0.57508
1286.35249	0.57387
1284.42393	0.57262
1282.49536	0.57140
1280.56680	0.57015
1278.63823	0.56891
1276.70967	0.56781
1274.78110	0.56682
1272.85254	0.56588
1270.92397	0.56506
1268.99541	0.56440
1267.06685	0.56376
1265.13828	0.56296
1263.20972	0.56205
1261.28115	0.56129
1259.35259	0.56071
1257.42402	0.56013
1255.49546	0.55974
1253.56689	0.55970
1251.63833	0.55981
1249.70977	0.55992
1247.78120	0.55985
1245.85264	0.55945
1243.92407	0.55877
1241.99551	0.55788
1240.06694	0.55668
1238.13838	0.55510
1236.20981	0.55320
1234.28125	0.55116
1232.35269	0.54918
1230.42412	0.54737
1228.49556	0.54560
1226.56699	0.54367
1224.63843	0.54181
1222.70986	0.54026
1220.78130	0.53884
1218.85273	0.53747
1216.92417	0.53631
1214.99561	0.53529
1213.06704	0.53430
1211.13848	0.53346
1209.20991	0.53291
1207.28135	0.53238
1205.35278	0.53157
1203.42422	0.53059
1201.49565	0.52962
1199.56709	0.52872
1197.63853	0.52785
1195.70996	0.52708
1193.78140	0.52658
1191.85283	0.52632
1189.92427	0.52596
1187.99570	0.52553
1186.06714	0.52526
1184.13857	0.52523
1182.21001	0.52564
1180.28145	0.52659
1178.35288	0.52782
1176.42432	0.52899
1174.49575	0.53006
1172.56719	0.53095
1170.63862	0.53137
1168.71006	0.53153
1166.78149	0.53186
1164.85293	0.53223
1162.92437	0.53231
1160.99580	0.53214
1159.06724	0.53194
1157.13867	0.53166
1155.21011	0.53088
1153.28154	0.52949
1151.35298	0.52775
1149.42441	0.52573
1147.49585	0.52333
1145.56729	0.52065
1143.63872	0.51785
1141.71016	0.51508
1139.78159	0.51275
1137.85303	0.51119
1135.92446	0.51022
1133.99590	0.50949
1132.06733	0.50884
1130.13877	0.50827
1128.21021	0.50765
1126.28164	0.50691
1124.35308	0.50614
1122.42451	0.50550
1120.49595	0.50519
1118.56738	0.50518
1116.63882	0.50541
1114.71025	0.50597
1112.78169	0.50665
1110.85312	0.50734
1108.92456	0.50829
1106.99600	0.50923
1105.06743	0.50993
1103.13887	0.51099
1101.21030	0.51260
1099.28174	0.51446
1097.35317	0.51674
1095.42461	0.51962
1093.49604	0.52313
1091.56748	0.52749
1089.63892	0.53296
1087.71035	0.53972
1085.78179	0.54757
1083.85322	0.55576
1081.92466	0.56307
1079.99609	0.56840
1078.06753	0.57140
1076.13896	0.57194
1074.21040	0.56973
1072.28184	0.56494
1070.35327	0.55833
1068.42471	0.55102
1066.49614	0.54404
1064.56758	0.53760
1062.63901	0.53174
1060.71045	0.52670
1058.78188	0.52234
1056.85332	0.51825
1054.92476	0.51434
1052.99619	0.51080
1051.06763	0.50785
1049.13906	0.50565
1047.21050	0.50419
1045.28193	0.50303
1043.35337	0.50194
1041.42480	0.50111
1039.49624	0.50068
1037.56768	0.50052
1035.63911	0.50036
1033.71055	0.50010
1031.78198	0.49958
1029.85342	0.49864
1027.92485	0.49751
1025.99629	0.49647
1024.06772	0.49569
1022.13916	0.49531
1020.21060	0.49526
1018.28203	0.49538
1016.35347	0.49574
1014.42490	0.49629
1012.49634	0.49667
1010.56777	0.49670
1008.63921	0.49691
1006.71064	0.49791
1004.78208	0.49947
1002.85352	0.50133
1000.92495	0.50378
998.99639	0.50704
997.06782	0.51100
995.13926	0.51531
993.21069	0.51942
991.28213	0.52271
989.35356	0.52493
987.42500	0.52619
985.49644	0.52663
983.56787	0.52672
981.63931	0.52707
979.71074	0.52781
977.78218	0.52902
975.85361	0.53095
973.92505	0.53350
971.99648	0.53651
970.06792	0.53987
968.13936	0.54346
966.21079	0.54740
964.28223	0.55195
962.35366	0.55701
960.42510	0.56203
958.49653	0.56699
956.56797	0.57251
954.63940	0.57874
952.71084	0.58531
950.78228	0.59187
948.85371	0.59822
946.92515	0.60467
944.99658	0.61145
943.06802	0.61791
941.13945	0.62379
939.21089	0.62964
937.28232	0.63553
935.35376	0.64117
933.42520	0.64672
931.49663	0.65247
929.56807	0.65847
927.63950	0.66462
925.71094	0.67037
923.78237	0.67604
921.85381	0.68284
919.92524	0.69032
917.99668	0.69740
916.06812	0.70466
914.13955	0.71278
912.21099	0.72067
910.28242	0.72813
908.35386	0.73666
906.42529	0.74643
904.49673	0.75643
902.56816	0.76628
900.63960	0.77568
898.71104	0.78442
896.78247	0.79354
894.85391	0.80385
892.92534	0.81416
890.99678	0.82428
889.06821	0.83570
887.13965	0.84813
885.21108	0.85991
883.28252	0.87064
881.35396	0.88173
879.42539	0.89434
877.49683	0.90607
875.56826	0.91483
873.63970	0.92394
871.71113	0.93651
869.78257	0.94978
867.85400	0.96088
865.92544	0.97141
863.99687	0.98315
862.06831	0.99549
860.13975	1.00786
858.21118	1.02056
856.28262	1.03335
854.35405	1.04615
852.42549	1.05847
850.49692	1.06943
848.56836	1.07989
846.63979	1.09232
844.71123	1.10637
842.78267	1.11788
840.85410	1.12711
838.92554	1.13860
836.99697	1.15351
835.06841	1.16786
833.13984	1.17914
831.21128	1.19159
829.28271	1.20577
827.35415	1.21774
825.42559	1.22909
823.49702	1.24201
821.56846	1.25230
819.63989	1.25796
817.71133	1.26756
815.78276	1.28560
813.85420	1.30222
811.92563	1.31594
809.99707	1.32893
808.06851	1.33026
806.13994	1.33621
804.21138	1.37140
802.28281	1.42002
800.35425	1.45157
798.42568	1.46239
796.49712	1.45385
794.56855	1.43886
792.63999	1.43477
790.71143	1.45847
788.78286	1.53823
786.85430	1.63959
784.92573	1.58953
782.99717	1.49869
781.06860	1.50928
779.14004	1.57934
777.21147	1.56943
775.28291	1.53822
773.35435	1.47761
771.42578	1.37704
769.49722	1.36745
767.56865	1.43747
765.64009	1.44117
763.71152	1.39609
761.78296	1.36160
759.85439	1.23915
757.92583	1.14318
755.99727	1.15359
754.06870	1.17685
752.14014	1.10781
750.21157	1.02818
748.28301	1.00097
746.35444	1.00603
744.42588	1.00875
742.49731	0.98727
740.56875	0.93118
738.64019	0.86398
736.71162	0.80620
734.78306	0.73566
732.85449	0.63023
730.92593	0.50574
728.99736	0.41193
727.06880	0.34035
725.14023	0.18823
723.21167	0.02558
721.28311	-0.10173
719.35454	-0.21815
717.42598	-0.35144
715.49741	-0.65467
713.56885	-0.61825
711.64028	-0.35077
709.71172	-0.21824
707.78315	-0.05137
705.85459	0.12752
703.92603	0.22892
701.99746	0.25748
700.06890	0.26611
698.14033	0.26098
696.21177	0.23744
694.28320	0.24055
692.35464	0.29716
690.42607	0.30599
688.49751	0.28085
686.56895	0.29789
684.64038	0.26955
682.71182	0.19214
680.78325	0.15664
678.85469	0.21641
676.92612	0.43595
674.99756	0.51075
673.06899	0.31448
671.14043	0.20612
669.21187	0.18170
667.28330	0.22846
665.35474	0.35137
663.42617	0.44932
661.49761	0.38480
659.56904	0.28984
657.64048	0.31753
655.71191	0.40584
653.78335	0.39171
651.85479	0.34010
649.92622	0.32379
647.99766	0.31246
646.06909	0.33178
644.14053	0.38104
642.21196	0.37888
640.28340	0.36298
638.35483	0.35283
636.42627	0.31227
634.49771	0.23016
632.56914	0.15044
630.64058	0.15344
628.71201	0.24378
626.78345	0.32060
624.85488	0.34114
622.92632	0.34802
620.99775	0.31531
619.06919	0.28118
617.14062	0.25948
615.21206	0.22645
613.28350	0.21398
611.35493	0.20423
609.42637	0.14144
607.49780	0.07770
605.56924	0.08899
603.64067	0.13758
601.71211	0.16340
599.78354	0.17749
597.85498	0.20433
595.92642	0.27263
593.99785	0.35410
592.06929	0.35208
590.14072	0.31157
588.21216	0.26968
586.28359	0.20902
584.35503	0.14115
582.42646	0.12003
580.49790	0.16159
578.56934	0.24192
576.64077	0.29326
574.71221	0.26478
572.78364	0.19444
570.85508	0.15844
568.92651	0.17333
566.99795	0.20800
565.06938	0.24552
563.14082	0.25206
561.21226	0.22412
559.28369	0.23652
557.35513	0.29576
555.42656	0.28651
553.49800	0.20821
551.56943	0.19962
549.64087	0.24393
547.71230	0.25673
545.78374	0.25835
543.85518	0.27063
541.92661	0.20245
539.99805	0.09329
538.06948	0.06884
536.14092	0.13456
534.21235	0.21072
532.28379	0.21927
530.35522	0.18193
528.42666	0.18006
526.49810	0.23229
524.56953	0.26551
522.64097	0.23289
520.71240	0.21309
518.78384	0.24891
516.85527	0.29620
514.92671	0.28496
512.99814	0.23080
511.06958	0.22369
509.14102	0.28661
507.21245	0.33036
505.28389	0.25134
503.35532	0.15440
501.42676	0.12083
499.49819	0.14466
