3997.91411	0.06380
3995.98555	0.06417
3994.05698	0.06433
3992.12842	0.06458
3990.19985	0.06501
3988.27129	0.06554
3986.34272	0.06611
3984.41416	0.06629
3982.48560	0.06605
3980.55703	0.06599
3978.62847	0.06615
3976.69990	0.06650
3974.77134	0.06718
3972.84277	0.06759
3970.91421	0.06732
3968.98564	0.06684
3967.05708	0.06673
3965.12852	0.06702
3963.19995	0.06758
3961.27139	0.06837
3959.34282	0.06895
3957.41426	0.06892
3955.48569	0.06865
3953.55713	0.06864
3951.62856	0.06903
3949.70000	0.06954
3947.77144	0.06977
3945.84287	0.06965
3943.91431	0.06977
3941.98574	0.07010
3940.05718	0.06986
3938.12861	0.06942
3936.20005	0.06920
3934.27148	0.06928
3932.34292	0.06970
3930.41436	0.06985
3928.48579	0.06937
3926.55723	0.06876
3924.62866	0.06872
3922.70010	0.06910
3920.77153	0.06938
3918.84297	0.06977
3916.91440	0.07032
3914.98584	0.07009
3913.05728	0.06890
3911.12871	0.06784
3909.20015	0.06765
3907.27158	0.06848
3905.34302	0.07039
3903.41445	0.07287
3901.48589	0.07437
3899.55732	0.07374
3897.62876	0.07149
3895.70020	0.06961
3893.77163	0.06944
3891.84307	0.07035
3889.91450	0.07075
3887.98594	0.07035
3886.05737	0.07074
3884.12881	0.07209
3882.20024	0.07294
3880.27168	0.07285
3878.34312	0.07171
3876.41455	0.07064
3874.48599	0.07111
3872.55742	0.07293
3870.62886	0.07497
3868.70029	0.07571
3866.77173	0.07453
3864.84316	0.07399
3862.91460	0.07472
3860.98604	0.07444
3859.05747	0.07361
3857.12891	0.07416
3855.20034	0.07633
3853.27178	0.07978
3851.34321	0.08129
3849.41465	0.07875
3847.48608	0.07657
3845.55752	0.07674
3843.62896	0.07858
3841.70039	0.08089
3839.77183	0.08321
3837.84326	0.08463
3835.91470	0.08387
3833.98613	0.08262
3832.05757	0.08235
3830.12900	0.08233
3828.20044	0.08247
3826.27187	0.08319
3824.34331	0.08422
3822.41475	0.08620
3820.48618	0.08961
3818.55762	0.09129
3816.62905	0.09078
3814.70049	0.08997
3812.77192	0.08882
3810.84336	0.08822
3808.91479	0.08909
3806.98623	0.09150
3805.05767	0.09412
3803.12910	0.09641
3801.20054	0.09951
3799.27197	0.10117
3797.34341	0.10045
3795.41484	0.09985
3793.48628	0.09948
3791.55771	0.09939
3789.62915	0.09996
3787.70059	0.10144
3785.77202	0.10388
3783.84346	0.10603
3781.91489	0.10713
3779.98633	0.10841
3778.05776	0.11009
3776.12920	0.11110
3774.20063	0.11196
3772.27207	0.11358
3770.34351	0.11621
3768.41494	0.11916
3766.48638	0.12130
3764.55781	0.12325
3762.62925	0.12501
3760.70068	0.12679
3758.77212	0.12954
3756.84355	0.13236
3754.91499	0.13462
3752.98643	0.13808
3751.05786	0.14397
3749.12930	0.14973
3747.20073	0.15207
3745.27217	0.15379
3743.34360	0.15726
3741.41504	0.16066
3739.48647	0.16339
3737.55791	0.16779
3735.62935	0.17522
3733.70078	0.18286
3731.77222	0.18674
3729.84365	0.18915
3727.91509	0.19272
3725.98652	0.19837
3724.05796	0.20514
3722.12939	0.21131
3720.20083	0.21659
3718.27227	0.22130
3716.34370	0.22678
3714.41514	0.23405
3712.48657	0.24454
3710.55801	0.25928
3708.62944	0.27341
3706.70088	0.28394
3704.77231	0.29456
3702.84375	0.30780
3700.91519	0.32455
3698.98662	0.34236
3697.05806	0.35936
3695.12949	0.37768
3693.20093	0.39763
3691.27236	0.41973
3689.34380	0.44752
3687.41523	0.47999
3685.48667	0.50821
3683.55811	0.53321
3681.62954	0.56092
3679.70098	0.59262
3677.77241	0.62602
3675.84385	0.66525
3673.91528	0.71698
3671.98672	0.76006
3670.05815	0.79908
3668.12959	0.85071
3666.20103	0.89729
3664.27246	0.93685
3662.34390	0.97979
3660.41533	1.02624
3658.48677	1.07187
3656.55820	1.12026
3654.62964	1.17460
3652.70107	1.22130
3650.77251	1.26256
3648.84395	1.31796
3646.91538	1.38343
3644.98682	1.43178
3643.05825	1.46989
3641.12969	1.50951
3639.20112	1.55329
3637.27256	1.59716
3635.34399	1.63978
3633.41543	1.68285
3631.48687	1.72394
3629.55830	1.76598
3627.62974	1.81937
3625.70117	1.86788
3623.77261	1.90098
3621.84404	1.93329
3619.91548	1.97035
3617.98691	2.01467
3616.05835	2.05747
3614.12979	2.09360
3612.20122	2.13164
3610.27266	2.17035
3608.34409	2.20954
3606.41553	2.25066
3604.48696	2.28865
3602.55840	2.32333
3600.62983	2.36091
3598.70127	2.40131
3596.77271	2.44126
3594.84414	2.48190
3592.91558	2.52247
3590.98701	2.55994
3589.05845	2.59581
3587.12988	2.63887
3585.20132	2.68606
3583.27275	2.72711
3581.34419	2.76533
3579.41562	2.80536
3577.48706	2.84691
3575.55850	2.88830
3573.62993	2.93042
3571.70137	2.97271
3569.77280	3.01432
3567.84424	3.05723
3565.91567	3.10652
3563.98711	3.15457
3562.05854	3.19606
3560.12998	3.23735
3558.20142	3.28065
3556.27285	3.32624
3554.34429	3.37187
3552.41572	3.41825
3550.48716	3.46606
3548.55859	3.51300
3546.63003	3.55951
3544.70146	3.60716
3542.77290	3.65414
3540.84434	3.69922
3538.91577	3.74242
3536.98721	3.78582
3535.05864	3.83247
3533.13008	3.87855
3531.20151	3.92312
3529.27295	3.96991
3527.34438	4.02064
3525.41582	4.07040
3523.48726	4.11745
3521.55869	4.16558
3519.63013	4.21414
3517.70156	4.26565
3515.77300	4.32035
3513.84443	4.37170
3511.91587	4.41615
3509.98730	4.45961
3508.05874	4.50744
3506.13018	4.55791
3504.20161	4.60750
3502.27305	4.65700
3500.34448	4.70878
3498.41592	4.75532
3496.48735	4.79162
3494.55879	4.82627
3492.63022	4.87110
3490.70166	4.92654
3488.77310	4.98292
3486.84453	5.03037
3484.91597	5.06976
3482.98740	5.11303
3481.05884	5.16594
3479.13027	5.22242
3477.20171	5.27557
3475.27314	5.32424
3473.34458	5.37252
3471.41602	5.42168
3469.48745	5.46700
3467.55889	5.50854
3465.63032	5.55054
3463.70176	5.59522
3461.77319	5.64285
3459.84463	5.69352
3457.91606	5.74276
3455.98750	5.79076
3454.05894	5.84588
3452.13037	5.90463
3450.20181	5.95020
3448.27324	5.98259
3446.34468	6.02607
3444.41611	6.08753
3442.48755	6.15047
3440.55898	6.20445
3438.63042	6.25882
3436.70186	6.31910
3434.77329	6.37260
3432.84473	6.41135
3430.91616	6.44923
3428.98760	6.50297
3427.05903	6.56203
3425.13047	6.60568
3423.20190	6.62707
3421.27334	6.66066
3419.34478	6.71220
3417.41621	6.76168
3415.48765	6.81441
3413.55908	6.84488
3411.63052	6.86119
3409.70195	6.89796
3407.77339	6.94630
3405.84482	6.97899
3403.91626	7.01237
3401.98770	7.06630
3400.05913	7.10933
3398.13057	7.14073
3396.20200	7.18687
3394.27344	7.24134
3392.34487	7.30057
3390.41631	7.36247
3388.48774	7.39737
3386.55918	7.42680
3384.63062	7.47348
3382.70205	7.51651
3380.77349	7.54170
3378.84492	7.56621
3376.91636	7.62544
3374.98779	7.68607
3373.05923	7.68671
3371.13066	7.66089
3369.20210	7.67291
3367.27354	7.68907
3365.34497	7.72330
3363.41641	7.79032
3361.48784	7.81991
3359.55928	7.81811
3357.63071	7.81113
3355.70215	7.82628
3353.77358	7.85207
3351.84502	7.84255
3349.91646	7.81641
3347.98789	7.87122
3346.05933	8.00518
3344.13076	8.05460
3342.20220	7.99017
3340.27363	7.91455
3338.34507	7.90469
3336.41650	7.95143
3334.48794	7.96172
3332.55937	7.93156
3330.63081	7.93101
3328.70225	7.92635
3326.77368	7.89068
3324.84512	7.88659
3322.91655	7.92732
3320.98799	7.95685
3319.05942	7.96249
3317.13086	7.95787
3315.20229	7.89218
3313.27373	7.82901
3311.34517	7.86144
3309.41660	7.93624
3307.48804	7.91820
3305.55947	7.80420
3303.63091	7.74605
3301.70234	7.77975
3299.77378	7.83735
3297.84521	7.85963
3295.91665	7.86524
3293.98809	7.88248
3292.05952	7.90600
3290.13096	7.97041
3288.20239	8.10399
3286.27383	8.22215
3284.34526	8.19011
3282.41670	8.10627
3280.48813	8.08697
3278.55957	8.08237
3276.63101	8.05010
3274.70244	8.03329
3272.77388	8.01848
3270.84531	7.97291
3268.91675	7.99050
3266.98818	8.04377
3265.05962	8.02919
3263.13105	8.01867
3261.20249	8.03466
3259.27393	8.00705
3257.34536	7.94330
3255.41680	7.89217
3253.48823	7.92323
3251.55967	8.01091
3249.63110	8.03124
3247.70254	8.01614
3245.77397	8.04080
3243.84541	8.03799
3241.91685	7.91614
3239.98828	7.76428
3238.05972	7.74931
3236.13115	7.87227
3234.20259	7.96623
3232.27402	7.94649
3230.34546	7.91640
3228.41689	7.94262
3226.48833	7.93913
3224.55977	7.88579
3222.63120	7.88842
3220.70264	7.93790
3218.77407	7.97157
3216.84551	7.94811
3214.91694	7.90969
3212.98838	7.92187
3211.05981	7.90733
3209.13125	7.84637
3207.20269	7.80146
3205.27412	7.77425
3203.34556	7.73484
3201.41699	7.65901
3199.48843	7.58385
3197.55986	7.55119
3195.63130	7.55202
3193.70273	7.56691
3191.77417	7.57076
3189.84561	7.54504
3187.91704	7.50906
3185.98848	7.48349
3184.05991	7.42433
3182.13135	7.30413
3180.20278	7.21019
3178.27422	7.19276
3176.34565	7.19544
3174.41709	7.16032
3172.48853	7.10541
3170.55996	7.06254
3168.63140	7.00988
3166.70283	6.93423
3164.77427	6.86247
3162.84570	6.81500
3160.91714	6.77478
3158.98857	6.71021
3157.06001	6.61732
3155.13145	6.51608
3153.20288	6.44085
3151.27432	6.40581
3149.34575	6.38309
3147.41719	6.34009
3145.48862	6.26346
3143.56006	6.17191
3141.63149	6.09488
3139.70293	6.02624
3137.77437	5.95826
3135.84580	5.89831
3133.91724	5.83110
3131.98867	5.74921
3130.06011	5.67256
3128.13154	5.60582
3126.20298	5.53830
3124.27441	5.46263
3122.34585	5.38422
3120.41729	5.31167
3118.48872	5.24005
3116.56016	5.17028
3114.63159	5.10697
3112.70303	5.04512
3110.77446	4.97578
3108.84590	4.89602
3106.91733	4.81672
3104.98877	4.74466
3103.06021	4.67511
3101.13164	4.60563
3099.20308	4.53884
3097.27451	4.47402
3095.34595	4.40589
3093.41738	4.33500
3091.48882	4.26857
3089.56025	4.20692
3087.63169	4.14280
3085.70312	4.07542
3083.77456	4.01045
3081.84600	3.94810
3079.91743	3.88396
3077.98887	3.81856
3076.06030	3.75506
3074.13174	3.69502
3072.20317	3.63775
3070.27461	3.58015
3068.34604	3.52170
3066.41748	3.46214
3064.48892	3.40128
3062.56035	3.34324
3060.63179	3.28970
3058.70322	3.23660
3056.77466	3.18131
3054.84609	3.12526
3052.91753	3.06965
3050.98896	3.01544
3049.06040	2.96361
3047.13184	2.91347
3045.20327	2.86423
3043.27471	2.81570
3041.34614	2.76709
3039.41758	2.71845
3037.48901	2.67137
3035.56045	2.62629
3033.63188	2.58146
3031.70332	2.53579
3029.77476	2.48991
3027.84619	2.44520
3025.91763	2.40229
3023.98906	2.35978
3022.06050	2.31707
3020.13193	2.27529
3018.20337	2.23451
3016.27480	2.19445
3014.34624	2.15537
3012.41768	2.11703
3010.48911	2.07903
3008.56055	2.04151
3006.63198	2.00480
3004.70342	1.96879
3002.77485	1.93313
3000.84629	1.89772
2998.91772	1.86261
2996.98916	1.82817
2995.06060	1.79480
2993.13203	1.76195
2991.20347	1.72936
2989.27490	1.69755
2987.34634	1.66653
2985.41777	1.63585
2983.48921	1.60575
2981.56064	1.57620
2979.63208	1.54633
2977.70352	1.51653
2975.77495	1.48775
2973.84639	1.45979
2971.91782	1.43197
2969.98926	1.40413
2968.06069	1.37706
2966.13213	1.35155
2964.20356	1.32707
2962.27500	1.30239
2960.34644	1.27713
2958.41787	1.25226
2956.48931	1.22877
2954.56074	1.20636
2952.63218	1.18399
2950.70361	1.16127
2948.77505	1.13843
2946.84648	1.11604
2944.91792	1.09463
2942.98936	1.07410
2941.06079	1.05393
2939.13223	1.03364
2937.20366	1.01380
2935.27510	0.99520
2933.34653	0.97736
2931.41797	0.95977
2929.48940	0.94257
2927.56084	0.92554
2925.63228	0.90837
2923.70371	0.89128
2921.77515	0.87431
2919.84658	0.85748
2917.91802	0.84102
2915.98945	0.82498
2914.06089	0.80941
2912.13232	0.79444
2910.20376	0.77985
2908.27520	0.76549
2906.34663	0.75164
2904.41807	0.73837
2902.48950	0.72539
2900.56094	0.71235
2898.63237	0.69935
2896.70381	0.68705
2894.77524	0.67546
2892.84668	0.66388
2890.91812	0.65208
2888.98955	0.64028
2887.06099	0.62866
2885.13242	0.61750
2883.20386	0.60695
2881.27529	0.59667
2879.34673	0.58620
2877.41816	0.57550
2875.48960	0.56509
2873.56104	0.55536
2871.63247	0.54602
2869.70391	0.53666
2867.77534	0.52715
2865.84678	0.51752
2863.91821	0.50807
2861.98965	0.49916
2860.06108	0.49071
2858.13252	0.48231
2856.20396	0.47387
2854.27539	0.46577
2852.34683	0.45820
2850.41826	0.45079
2848.48970	0.44322
2846.56113	0.43569
2844.63257	0.42866
2842.70400	0.42207
2840.77544	0.41576
2838.84687	0.40990
2836.91831	0.40420
2834.98975	0.39822
2833.06118	0.39228
2831.13262	0.38660
2829.20405	0.38096
2827.27549	0.37538
2825.34692	0.37004
2823.41836	0.36484
2821.48979	0.35943
2819.56123	0.35375
2817.63267	0.34806
2815.70410	0.34268
2813.77554	0.33754
2811.84697	0.33234
2809.91841	0.32721
2807.98984	0.32240
2806.06128	0.31778
2804.13271	0.31323
2802.20415	0.30867
2800.27559	0.30397
2798.34702	0.29932
2796.41846	0.29499
2794.48989	0.29096
2792.56133	0.28702
2790.63276	0.28292
2788.70420	0.27875
2786.77563	0.27482
2784.84707	0.27112
2782.91851	0.26740
2780.98994	0.26373
2779.06138	0.26023
2777.13281	0.25679
2775.20425	0.25336
2773.27568	0.25003
2771.34712	0.24681
2769.41855	0.24374
2767.48999	0.24069
2765.56143	0.23759
2763.63286	0.23455
2761.70430	0.23152
2759.77573	0.22850
2757.84717	0.22559
2755.91860	0.22274
2753.99004	0.21995
2752.06147	0.21730
2750.13291	0.21476
2748.20435	0.21233
2746.27578	0.21002
2744.34722	0.20759
2742.41865	0.20507
2740.49009	0.20275
2738.56152	0.20049
2736.63296	0.19815
2734.70439	0.19592
2732.77583	0.19376
2730.84727	0.19163
2728.91870	0.18959
2726.99014	0.18759
2725.06157	0.18565
2723.13301	0.18385
2721.20444	0.18210
2719.27588	0.18041
2717.34731	0.17879
2715.41875	0.17715
2713.49019	0.17544
2711.56162	0.17371
2709.63306	0.17198
2707.70449	0.17037
2705.77593	0.16893
2703.84736	0.16753
2701.91880	0.16615
2699.99023	0.16481
2698.06167	0.16350
2696.13311	0.16232
2694.20454	0.16120
2692.27598	0.15999
2690.34741	0.15871
2688.41885	0.15750
2686.49028	0.15637
2684.56172	0.15534
2682.63315	0.15436
2680.70459	0.15337
2678.77603	0.15237
2676.84746	0.15144
2674.91890	0.15059
2672.99033	0.14961
2671.06177	0.14848
2669.13320	0.14742
2667.20464	0.14667
2665.27607	0.14615
2663.34751	0.14563
2661.41895	0.14496
2659.49038	0.14418
2657.56182	0.14352
2655.63325	0.14306
2653.70469	0.14267
2651.77612	0.14209
2649.84756	0.14130
2647.91899	0.14067
2645.99043	0.14040
2644.06187	0.14016
2642.13330	0.13970
2640.20474	0.13909
2638.27617	0.13850
2636.34761	0.13810
2634.41904	0.13785
2632.49048	0.13761
2630.56191	0.13746
2628.63335	0.13744
2626.70479	0.13740
2624.77622	0.13723
2622.84766	0.13709
2620.91909	0.13711
2618.99053	0.13704
2617.06196	0.13677
2615.13340	0.13657
2613.20483	0.13654
2611.27627	0.13656
2609.34771	0.13663
2607.41914	0.13674
2605.49058	0.13675
2603.56201	0.13671
2601.63345	0.13675
2599.70488	0.13699
2597.77632	0.13741
2595.84775	0.13774
2593.91919	0.13798
2591.99062	0.13824
2590.06206	0.13834
2588.13350	0.13842
2586.20493	0.13873
2584.27637	0.13905
2582.34780	0.13921
2580.41924	0.13941
2578.49067	0.13993
2576.56211	0.14062
2574.63354	0.14113
2572.70498	0.14141
2570.77642	0.14168
2568.84785	0.14199
2566.91929	0.14243
2564.99072	0.14309
2563.06216	0.14382
2561.13359	0.14435
2559.20503	0.14469
2557.27646	0.14507
2555.34790	0.14565
2553.41934	0.14637
2551.49077	0.14707
2549.56221	0.14764
2547.63364	0.14824
2545.70508	0.14898
2543.77651	0.14966
2541.84795	0.15025
2539.91938	0.15094
2537.99082	0.15175
2536.06226	0.15257
2534.13369	0.15335
2532.20513	0.15414
2530.27656	0.15493
2528.34800	0.15567
2526.41943	0.15642
2524.49087	0.15727
2522.56230	0.15821
2520.63374	0.15913
2518.70518	0.16003
2516.77661	0.16084
2514.84805	0.16140
2512.91948	0.16200
2510.99092	0.16294
2509.06235	0.16404
2507.13379	0.16495
2505.20522	0.16578
2503.27666	0.16667
2501.34810	0.16753
2499.41953	0.16839
2497.49097	0.16942
2495.56240	0.17050
2493.63384	0.17139
2491.70527	0.17220
2489.77671	0.17311
2487.84814	0.17408
2485.91958	0.17511
2483.99102	0.17603
2482.06245	0.17679
2480.13389	0.17764
2478.20532	0.17883
2476.27676	0.18012
2474.34819	0.18108
2472.41963	0.18179
2470.49106	0.18264
2468.56250	0.18374
2466.63394	0.18491
2464.70537	0.18591
2462.77681	0.18680
2460.84824	0.18775
2458.91968	0.18871
2456.99111	0.18969
2455.06255	0.19071
2453.13398	0.19173
2451.20542	0.19286
2449.27686	0.19406
2447.34829	0.19519
2445.41973	0.19617
2443.49116	0.19713
2441.56260	0.19815
2439.63403	0.19914
2437.70547	0.20013
2435.77690	0.20130
2433.84834	0.20253
2431.91978	0.20366
2429.99121	0.20480
2428.06265	0.20597
2426.13408	0.20712
2424.20552	0.20828
2422.27695	0.20945
2420.34839	0.21060
2418.41982	0.21177
2416.49126	0.21298
2414.56270	0.21419
2412.63413	0.21531
2410.70557	0.21641
2408.77700	0.21768
2406.84844	0.21904
2404.91987	0.22029
2402.99131	0.22150
2401.06274	0.22280
2399.13418	0.22408
2397.20562	0.22527
2395.27705	0.22639
2393.34849	0.22750
2391.41992	0.22873
2389.49136	0.23025
2387.56279	0.23221
2385.63423	0.23489
2383.70566	0.23869
2381.77710	0.24372
2379.84854	0.24978
2377.91997	0.25666
2375.99141	0.26430
2374.06284	0.27291
2372.13428	0.28268
2370.20571	0.29356
2368.27715	0.30488
2366.34858	0.31567
2364.42002	0.32536
2362.49146	0.33306
2360.56289	0.33800
2358.63433	0.33950
2356.70576	0.33598
2354.77720	0.32792
2352.84863	0.31810
2350.92007	0.30880
2348.99150	0.30353
2347.06294	0.30479
2345.13437	0.31297
2343.20581	0.32368
2341.27725	0.32932
2339.34868	0.32993
2337.42012	0.32940
2335.49155	0.32954
2333.56299	0.33011
2331.63442	0.33029
2329.70586	0.32963
2327.77729	0.32842
2325.84873	0.32690
2323.92017	0.32542
2321.99160	0.32383
2320.06304	0.32164
2318.13447	0.31928
2316.20591	0.31740
2314.27734	0.31625
2312.34878	0.31575
2310.42021	0.31557
2308.49165	0.31520
2306.56309	0.31449
2304.63452	0.31383
2302.70596	0.31378
2300.77739	0.31428
2298.84883	0.31486
2296.92026	0.31551
2294.99170	0.31642
2293.06313	0.31741
2291.13457	0.31831
2289.20601	0.31925
2287.27744	0.32019
2285.34888	0.32112
2283.42031	0.32240
2281.49175	0.32423
2279.56318	0.32649
2277.63462	0.32895
2275.70605	0.33131
2273.77749	0.33341
2271.84893	0.33535
2269.92036	0.33729
2267.99180	0.33935
2266.06323	0.34151
2264.13467	0.34362
2262.20610	0.34571
2260.27754	0.34778
2258.34897	0.34985
2256.42041	0.35190
2254.49185	0.35390
2252.56328	0.35580
2250.63472	0.35758
2248.70615	0.35951
2246.77759	0.36162
2244.84902	0.36374
2242.92046	0.36596
2240.99189	0.36832
2239.06333	0.37069
2237.13477	0.37287
2235.20620	0.37485
2233.27764	0.37701
2231.34907	0.37940
2229.42051	0.38174
2227.49194	0.38391
2225.56338	0.38606
2223.63481	0.38830
2221.70625	0.39055
2219.77769	0.39276
2217.84912	0.39494
2215.92056	0.39708
2213.99199	0.39922
2212.06343	0.40142
2210.13486	0.40363
2208.20630	0.40574
2206.27773	0.40780
2204.34917	0.40982
2202.42061	0.41187
2200.49204	0.41412
2198.56348	0.41638
2196.63491	0.41835
2194.70635	0.42012
2192.77778	0.42198
2190.84922	0.42400
2188.92065	0.42603
2186.99209	0.42784
2185.06353	0.42948
2183.13496	0.43108
2181.20640	0.43270
2179.27783	0.43441
2177.34927	0.43614
2175.42070	0.43772
2173.49214	0.43912
2171.56357	0.44047
2169.63501	0.44194
2167.70645	0.44341
2165.77788	0.44473
2163.84932	0.44595
2161.92075	0.44712
2159.99219	0.44825
2158.06362	0.44934
2156.13506	0.45036
2154.20649	0.45115
2152.27793	0.45180
2150.34937	0.45251
2148.42080	0.45315
2146.49224	0.45363
2144.56367	0.45415
2142.63511	0.45474
2140.70654	0.45519
2138.77798	0.45540
2136.84941	0.45548
2134.92085	0.45554
2132.99229	0.45552
2131.06372	0.45538
2129.13516	0.45519
2127.20659	0.45499
2125.27803	0.45468
2123.34946	0.45419
2121.42090	0.45358
2119.49233	0.45292
2117.56377	0.45224
2115.63521	0.45158
2113.70664	0.45085
2111.77808	0.45000
2109.84951	0.44906
2107.92095	0.44799
2105.99238	0.44677
2104.06382	0.44558
2102.13525	0.44437
2100.20669	0.44296
2098.27812	0.44142
2096.34956	0.43999
2094.42100	0.43859
2092.49243	0.43694
2090.56387	0.43506
2088.63530	0.43318
2086.70674	0.43140
2084.77817	0.42957
2082.84961	0.42754
2080.92104	0.42542
2078.99248	0.42346
2077.06392	0.42153
2075.13535	0.41938
2073.20679	0.41710
2071.27822	0.41492
2069.34966	0.41279
2067.42109	0.41058
2065.49253	0.40821
2063.56396	0.40566
2061.63540	0.40315
2059.70684	0.40076
2057.77827	0.39835
2055.84971	0.39581
2053.92114	0.39308
2051.99258	0.39033
2050.06401	0.38771
2048.13545	0.38519
2046.20688	0.38265
2044.27832	0.38002
2042.34976	0.37737
2040.42119	0.37471
2038.49263	0.37189
2036.56406	0.36900
2034.63550	0.36626
2032.70693	0.36363
2030.77837	0.36089
2028.84980	0.35801
2026.92124	0.35513
2024.99268	0.35230
2023.06411	0.34952
2021.13555	0.34681
2019.20698	0.34423
2017.27842	0.34167
2015.34985	0.33890
2013.42129	0.33596
2011.49272	0.33302
2009.56416	0.33023
2007.63560	0.32759
2005.70703	0.32495
2003.77847	0.32229
2001.84990	0.31969
1999.92134	0.31713
1997.99277	0.31458
1996.06421	0.31204
1994.13564	0.30963
1992.20708	0.30725
1990.27852	0.30467
1988.34995	0.30207
1986.42139	0.29955
1984.49282	0.29704
1982.56426	0.29459
1980.63569	0.29222
1978.70713	0.28986
1976.77856	0.28755
1974.85000	0.28539
1972.92144	0.28333
1970.99287	0.28130
1969.06431	0.27933
1967.13574	0.27732
1965.20718	0.27517
1963.27861	0.27306
1961.35005	0.27112
1959.42148	0.26929
1957.49292	0.26756
1955.56436	0.26583
1953.63579	0.26405
1951.70723	0.26229
1949.77866	0.26066
1947.85010	0.25914
1945.92153	0.25771
1943.99297	0.25649
1942.06440	0.25529
1940.13584	0.25372
1938.20728	0.25200
1936.27871	0.25048
1934.35015	0.24918
1932.42158	0.24802
1930.49302	0.24693
1928.56445	0.24582
1926.63589	0.24470
1924.70732	0.24383
1922.77876	0.24304
1920.85020	0.24214
1918.92163	0.24133
1916.99307	0.24043
1915.06450	0.23926
1913.13594	0.23824
1911.20737	0.23760
1909.27881	0.23704
1907.35024	0.23634
1905.42168	0.23555
1903.49312	0.23485
1901.56455	0.23429
1899.63599	0.23380
1897.70742	0.23346
1895.77886	0.23324
1893.85029	0.23290
1891.92173	0.23252
1889.99316	0.23241
1888.06460	0.23223
1886.13604	0.23185
1884.20747	0.23146
1882.27891	0.23114
1880.35034	0.23102
1878.42178	0.23097
1876.49321	0.23094
1874.56465	0.23105
1872.63608	0.23149
1870.70752	0.23227
1868.77896	0.23320
1866.85039	0.23344
1864.92183	0.23292
1862.99326	0.23255
1861.06470	0.23266
1859.13613	0.23306
1857.20757	0.23348
1855.27900	0.23392
1853.35044	0.23436
1851.42187	0.23489
1849.49331	0.23565
1847.56475	0.23665
1845.63618	0.23783
1843.70762	0.23891
1841.77905	0.23935
1839.85049	0.23954
1837.92192	0.24030
1835.99336	0.24128
1834.06479	0.24218
1832.13623	0.24330
1830.20767	0.24502
1828.27910	0.24659
1826.35054	0.24765
1824.42197	0.24899
1822.49341	0.25010
1820.56484	0.25100
1818.63628	0.25217
1816.70771	0.25371
1814.77915	0.25540
1812.85059	0.25743
1810.92202	0.25979
1808.99346	0.26192
1807.06489	0.26372
1805.13633	0.26553
1803.20776	0.26784
1801.27920	0.27064
1799.35063	0.27352
1797.42207	0.27594
1795.49351	0.27843
1793.56494	0.28155
1791.63638	0.28530
1789.70781	0.28842
1787.77925	0.29069
1785.85068	0.29371
1783.92212	0.29749
1781.99355	0.30165
1780.06499	0.30602
1778.13643	0.31032
1776.20786	0.31445
1774.27930	0.31921
1772.35073	0.32549
1770.42217	0.33159
1768.49360	0.33652
1766.56504	0.34154
1764.63647	0.34691
1762.70791	0.35296
1760.77935	0.36045
1758.85078	0.36747
1756.92222	0.37463
1754.99365	0.38245
1753.06509	0.38975
1751.13652	0.39863
1749.20796	0.40955
1747.27939	0.42003
1745.35083	0.42919
1743.42227	0.43881
1741.49370	0.44947
1739.56514	0.46194
1737.63657	0.47425
1735.70801	0.48532
1733.77944	0.50223
1731.85088	0.52213
1729.92231	0.53760
1727.99375	0.55304
1726.06519	0.56977
1724.13662	0.58838
1722.20806	0.60873
1720.27949	0.62804
1718.35093	0.65075
1716.42236	0.68258
1714.49380	0.71203
1712.56523	0.73619
1710.63667	0.75991
1708.70811	0.78557
1706.77954	0.81479
1704.85098	0.84928
1702.92241	0.87998
1700.99385	0.91039
1699.06528	0.95438
1697.13672	0.99429
1695.20815	1.03476
1693.27959	1.07403
1691.35103	1.10600
1689.42246	1.14261
1687.49390	1.18054
1685.56533	1.21679
1683.63677	1.27082
1681.70820	1.32634
1679.77964	1.36334
1677.85107	1.39888
1675.92251	1.43926
1673.99395	1.48818
1672.06538	1.53161
1670.13682	1.57359
1668.20825	1.62551
1666.27969	1.66675
1664.35112	1.70157
1662.42256	1.74456
1660.49399	1.79187
1658.56543	1.82881
1656.63687	1.85935
1654.70830	1.88784
1652.77974	1.93500
1650.85117	1.98692
1648.92261	2.01205
1646.99404	2.04094
1645.06548	2.07166
1643.13691	2.09139
1641.20835	2.10481
1639.27979	2.11848
1637.35122	2.12787
1635.42266	2.12880
1633.49409	2.12370
1631.56553	2.11485
1629.63696	2.10245
1627.70840	2.08002
1625.77983	2.05323
1623.85127	2.01979
1621.92271	1.97789
1619.99414	1.93908
1618.06558	1.90028
1616.13701	1.84482
1614.20845	1.78720
1612.27988	1.74231
1610.35132	1.69573
1608.42275	1.64525
1606.49419	1.59444
1604.56562	1.54654
1602.63706	1.50024
1600.70850	1.45520
1598.77993	1.41342
1596.85137	1.37351
1594.92280	1.33468
1592.99424	1.29758
1591.06567	1.26341
1589.13711	1.23054
1587.20854	1.19906
1585.27998	1.16956
1583.35142	1.14159
1581.42285	1.11533
1579.49429	1.09232
1577.56572	1.07137
1575.63716	1.04570
1573.70859	1.02221
1571.78003	1.00620
1569.85146	0.98904
1567.92290	0.96926
1565.99434	0.95305
1564.06577	0.93880
1562.13721	0.92665
1560.20864	0.91642
1558.28008	0.89870
1556.35151	0.88113
1554.42295	0.86969
1552.49438	0.85854
1550.56582	0.84791
1548.63726	0.83766
1546.70869	0.82893
1544.78013	0.82147
1542.85156	0.81434
1540.92300	0.80632
1538.99443	0.79413
1537.06587	0.78414
1535.13730	0.77784
1533.20874	0.77073
1531.28018	0.76278
1529.35161	0.75671
1527.42305	0.75132
1525.49448	0.74575
1523.56592	0.74070
1521.63735	0.73529
1519.70879	0.72871
1517.78022	0.72286
1515.85166	0.71696
1513.92310	0.71117
1511.99453	0.70678
1510.06597	0.70369
1508.13740	0.70125
1506.20884	0.69604
1504.28027	0.68994
1502.35171	0.68629
1500.42314	0.68333
1498.49458	0.68034
1496.56602	0.67684
1494.63745	0.67296
1492.70889	0.66992
1490.78032	0.66782
1488.85176	0.66529
1486.92319	0.66169
1484.99463	0.65804
1483.06606	0.65483
1481.13750	0.65187
1479.20894	0.64919
1477.28037	0.64684
1475.35181	0.64458
1473.42324	0.64234
1471.49468	0.63885
1469.56611	0.63471
1467.63755	0.63173
1465.70898	0.62962
1463.78042	0.62742
1461.85186	0.62532
1459.92329	0.62410
1457.99473	0.62319
1456.06616	0.62046
1454.13760	0.61669
1452.20903	0.61397
1450.28047	0.61199
1448.35190	0.61029
1446.42334	0.60844
1444.49478	0.60664
1442.56621	0.60526
1440.63765	0.60416
1438.70908	0.60319
1436.78052	0.60204
1434.85195	0.60041
1432.92339	0.59876
1430.99482	0.59729
1429.06626	0.59562
1427.13770	0.59390
1425.20913	0.59254
1423.28057	0.59127
1421.35200	0.58998
1419.42344	0.58887
1417.49487	0.58744
1415.56631	0.58541
1413.63774	0.58353
1411.70918	0.58200
1409.78062	0.58052
1407.85205	0.57913
1405.92349	0.57803
1403.99492	0.57681
1402.06636	0.57544
1400.13779	0.57442
1398.20923	0.57355
1396.28066	0.57247
1394.35210	0.57106
1392.42354	0.56938
1390.49497	0.56794
1388.56641	0.56686
1386.63784	0.56571
1384.70928	0.56418
1382.78071	0.56265
1380.85215	0.56146
1378.92358	0.56052
1376.99502	0.55980
1375.06646	0.55930
1373.13789	0.55845
1371.20933	0.55720
1369.28076	0.55609
1367.35220	0.55496
1365.42363	0.55371
1363.49507	0.55273
1361.56650	0.55190
1359.63794	0.55099
1357.70937	0.55017
1355.78081	0.54935
1353.85225	0.54842
1351.92368	0.54752
1349.99512	0.54666
1348.06655	0.54572
1346.13799	0.54470
1344.20942	0.54381
1342.28086	0.54327
1340.35229	0.54292
1338.42373	0.54211
1336.49517	0.54077
1334.56660	0.53959
1332.63804	0.53875
1330.70947	0.53803
1328.78091	0.53725
1326.85234	0.53639
1324.92378	0.53544
1322.99521	0.53451
1321.06665	0.53372
1319.13809	0.53299
1317.20952	0.53218
1315.28096	0.53137
1313.35239	0.53062
1311.42383	0.52989
1309.49526	0.52911
1307.56670	0.52827
1305.63813	0.52751
1303.70957	0.52690
1301.78101	0.52627
1299.85244	0.52557
1297.92388	0.52501
1295.99531	0.52447
1294.06675	0.52363
1292.13818	0.52263
1290.20962	0.52189
1288.28105	0.52146
1286.35249	0.52114
1284.42393	0.52073
1282.49536	0.52022
1280.56680	0.51972
1278.63823	0.51927
1276.70967	0.51895
1274.78110	0.51864
1272.85254	0.51825
1270.92397	0.51787
1268.99541	0.51748
1267.06685	0.51706
1265.13828	0.51667
1263.20972	0.51626
1261.28115	0.51567
1259.35259	0.51507
1257.42402	0.51472
1255.49546	0.51459
1253.56689	0.51444
1251.63833	0.51422
1249.70977	0.51393
1247.78120	0.51345
1245.85264	0.51300
1243.92407	0.51285
1241.99551	0.51272
1240.06694	0.51225
1238.13838	0.51162
1236.20981	0.51109
1234.28125	0.51062
1232.35269	0.51007
1230.42412	0.50951
1228.49556	0.50901
1226.56699	0.50853
1224.63843	0.50806
1222.70986	0.50754
1220.78130	0.50694
1218.85273	0.50621
1216.92417	0.50544
1214.99561	0.50482
1213.06704	0.50437
1211.13848	0.50391
1209.20991	0.50330
1207.28135	0.50260
1205.35278	0.50201
1203.42422	0.50154
1201.49565	0.50104
1199.56709	0.50060
1197.63853	0.50037
1195.70996	0.50006
1193.78140	0.49952
1191.85283	0.49892
1189.92427	0.49835
1187.99570	0.49789
1186.06714	0.49767
1184.13857	0.49759
1182.21001	0.49751
1180.28145	0.49748
1178.35288	0.49756
1176.42432	0.49778
1174.49575	0.49816
1172.56719	0.49862
1170.63862	0.49908
1168.71006	0.49945
1166.78149	0.49967
1164.85293	0.49979
1162.92437	0.49981
1160.99580	0.49969
1159.06724	0.49942
1157.13867	0.49896
1155.21011	0.49825
1153.28154	0.49726
1151.35298	0.49586
1149.42441	0.49409
1147.49585	0.49217
1145.56729	0.49013
1143.63872	0.48786
1141.71016	0.48551
1139.78159	0.48326
1137.85303	0.48110
1135.92446	0.47903
1133.99590	0.47713
1132.06733	0.47526
1130.13877	0.47332
1128.21021	0.47155
1126.28164	0.47015
1124.35308	0.46894
1122.42451	0.46784
1120.49595	0.46694
1118.56738	0.46644
1116.63882	0.46630
1114.71025	0.46622
1112.78169	0.46616
1110.85312	0.46649
1108.92456	0.46721
1106.99600	0.46786
1105.06743	0.46861
1103.13887	0.47010
1101.21030	0.47226
1099.28174	0.47479
1097.35317	0.47764
1095.42461	0.48065
1093.49604	0.48387
1091.56748	0.48767
1089.63892	0.49223
1087.71035	0.49755
1085.78179	0.50365
1083.85322	0.51014
1081.92466	0.51642
1079.99609	0.52207
1078.06753	0.52613
1076.13896	0.52749
1074.21040	0.52615
1072.28184	0.52247
1070.35327	0.51688
1068.42471	0.51031
1066.49614	0.50371
1064.56758	0.49760
1062.63901	0.49222
1060.71045	0.48739
1058.78188	0.48290
1056.85332	0.47884
1054.92476	0.47536
1052.99619	0.47238
1051.06763	0.46977
1049.13906	0.46757
1047.21050	0.46580
1045.28193	0.46423
1043.35337	0.46293
1041.42480	0.46218
1039.49624	0.46171
1037.56768	0.46120
1035.63911	0.46083
1033.71055	0.46069
1031.78198	0.46062
1029.85342	0.46080
1027.92485	0.46154
1025.99629	0.46242
1024.06772	0.46293
1022.13916	0.46336
1020.21060	0.46429
1018.28203	0.46546
1016.35347	0.46651
1014.42490	0.46762
1012.49634	0.46881
1010.56777	0.47008
1008.63921	0.47166
1006.71064	0.47379
1004.78208	0.47635
1002.85352	0.47897
1000.92495	0.48157
998.99639	0.48443
997.06782	0.48771
995.13926	0.49135
993.21069	0.49516
991.28213	0.49860
989.35356	0.50116
987.42500	0.50281
985.49644	0.50386
983.56787	0.50494
981.63931	0.50646
979.71074	0.50825
977.78218	0.51030
975.85361	0.51293
973.92505	0.51602
971.99648	0.51930
970.06792	0.52299
968.13936	0.52717
966.21079	0.53144
964.28223	0.53582
962.35366	0.54072
960.42510	0.54595
958.49653	0.55124
956.56797	0.55692
954.63940	0.56324
952.71084	0.56963
950.78228	0.57567
948.85371	0.58169
946.92515	0.58791
944.99658	0.59411
943.06802	0.59991
941.13945	0.60544
939.21089	0.61122
937.28232	0.61740
935.35376	0.62366
933.42520	0.62970
931.49663	0.63542
929.56807	0.64091
927.63950	0.64644
925.71094	0.65197
923.78237	0.65795
921.85381	0.66486
919.92524	0.67181
917.99668	0.67828
916.06812	0.68485
914.13955	0.69202
912.21099	0.70007
910.28242	0.70906
908.35386	0.71848
906.42529	0.72699
904.49673	0.73465
902.56816	0.74263
900.63960	0.75116
898.71104	0.76084
896.78247	0.77131
894.85391	0.78110
892.92534	0.79146
890.99678	0.80320
889.06821	0.81381
887.13965	0.82293
885.21108	0.83332
883.28252	0.84537
881.35396	0.85725
879.42539	0.86855
877.49683	0.87962
875.56826	0.89045
873.63970	0.90169
871.71113	0.91355
869.78257	0.92514
867.85400	0.93633
865.92544	0.94673
863.99687	0.95678
862.06831	0.96887
860.13975	0.98265
858.21118	0.99493
856.28262	1.00379
854.35405	1.01219
852.42549	1.02376
850.49692	1.03653
848.56836	1.04865
846.63979	1.06127
844.71123	1.07336
842.78267	1.08316
840.85410	1.09228
838.92554	1.10237
836.99697	1.11386
835.06841	1.12489
833.13984	1.13118
831.21128	1.13329
829.28271	1.13585
827.35415	1.14122
825.42559	1.15157
823.49702	1.16756
821.56846	1.18320
819.63989	1.19518
817.71133	1.20241
815.78276	1.20365
813.85420	1.20639
811.92563	1.21447
809.99707	1.22327
808.06851	1.23271
806.13994	1.24332
804.21138	1.25302
802.28281	1.26761
800.35425	1.28035
798.42568	1.27009
796.49712	1.25500
794.56855	1.26575
792.63999	1.27982
790.71143	1.26033
788.78286	1.23199
786.85430	1.22793
784.92573	1.23680
782.99717	1.22755
781.06860	1.21296
779.14004	1.20468
777.21147	1.18171
775.28291	1.16854
773.35435	1.21752
771.42578	1.29737
769.49722	1.27336
767.56865	1.23177
765.64009	1.21205
763.71152	1.17317
761.78296	1.11386
759.85439	1.03563
757.92583	0.98470
755.99727	0.96461
754.06870	0.89635
752.14014	0.84339
750.21157	0.84049
748.28301	0.83750
746.35444	0.81041
744.42588	0.78014
742.49731	0.72229
740.56875	0.66791
738.64019	0.67750
736.71162	0.68201
734.78306	0.57811
732.85449	0.45234
730.92593	0.38528
728.99736	0.35917
727.06880	0.31333
725.14023	0.27183
723.21167	0.23435
721.28311	0.15048
719.35454	0.07999
717.42598	0.05174
715.49741	0.00922
713.56885	-0.02565
711.64028	-0.00556
709.71172	0.02795
707.78315	-0.00102
705.85459	-0.05841
703.92603	-0.06554
701.99746	-0.06260
700.06890	-0.04308
698.14033	-0.02176
696.21177	-0.03590
694.28320	-0.03025
692.35464	0.00366
690.42607	0.00958
688.49751	-0.03361
686.56895	-0.06819
684.64038	-0.04500
682.71182	0.01983
680.78325	0.06565
678.85469	0.09780
676.92612	0.11815
674.99756	0.08498
673.06899	-0.01176
671.14043	-0.10302
669.21187	-0.09885
667.28330	-0.04633
665.35474	-0.05962
663.42617	-0.10248
661.49761	-0.09722
659.56904	-0.08710
657.64048	-0.06841
655.71191	-0.02874
653.78335	-0.00073
651.85479	0.02124
649.92622	0.02605
647.99766	0.00225
646.06909	-0.01920
644.14053	-0.02326
642.21196	-0.02979
640.28340	-0.04457
638.35483	-0.05719
636.42627	-0.06423
634.49771	-0.04563
632.56914	-0.00906
630.64058	0.01422
628.71201	0.03129
626.78345	0.03977
624.85488	0.02368
622.92632	0.01354
620.99775	0.01887
619.06919	0.03076
617.14062	0.05195
615.21206	0.06209
613.28350	0.02168
611.35493	-0.01672
609.42637	0.00898
607.49780	0.03646
605.56924	0.04490
603.64067	0.00545
601.71211	-0.05959
599.78354	-0.05502
597.85498	-0.00560
595.92642	0.01449
593.99785	0.01059
592.06929	0.01480
590.14072	0.03151
588.21216	0.05263
586.28359	0.04533
584.35503	-0.01858
582.42646	-0.07413
580.49790	-0.04419
578.56934	0.00864
576.64077	0.00018
574.71221	-0.02396
572.78364	-0.01951
570.85508	-0.03418
568.92651	-0.03313
566.99795	0.00236
565.06938	0.05124
563.14082	0.09434
561.21226	0.09593
559.28369	0.05611
557.35513	0.00580
555.42656	-0.02703
553.49800	-0.02649
551.56943	0.00095
549.64087	0.02004
547.71230	0.00565
545.78374	-0.00950
543.85518	0.00524
541.92661	-0.00593
539.99805	-0.04466
538.06948	-0.04236
536.14092	-0.00381
534.21235	-0.01574
532.28379	-0.03287
530.35522	-0.00639
528.42666	-0.00936
526.49810	-0.06898
524.56953	-0.10545
522.64097	-0.07916
520.71240	-0.03259
518.78384	0.01787
516.85527	0.05755
514.92671	0.04698
512.99814	0.01460
511.06958	0.00645
509.14102	0.03137
507.21245	0.04872
505.28389	0.03298
503.35532	0.03211
501.42676	0.03976
499.49819	-0.00277
