3997.91411	0.07115
3995.98555	0.07145
3994.05698	0.07142
3992.12842	0.07184
3990.19985	0.07288
3988.27129	0.07362
3986.34272	0.07375
3984.41416	0.07375
3982.48560	0.07366
3980.55703	0.07356
3978.62847	0.07386
3976.69990	0.07440
3974.77134	0.07468
3972.84277	0.07465
3970.91421	0.07454
3968.98564	0.07456
3967.05708	0.07482
3965.12852	0.07519
3963.19995	0.07541
3961.27139	0.07550
3959.34282	0.07561
3957.41426	0.07560
3955.48569	0.07570
3953.55713	0.07624
3951.62856	0.07707
3949.70000	0.07791
3947.77144	0.07821
3945.84287	0.07773
3943.91431	0.07725
3941.98574	0.07703
3940.05718	0.07649
3938.12861	0.07591
3936.20005	0.07590
3934.27148	0.07648
3932.34292	0.07748
3930.41436	0.07813
3928.48579	0.07784
3926.55723	0.07753
3924.62866	0.07782
3922.70010	0.07766
3920.77153	0.07696
3918.84297	0.07693
3916.91440	0.07749
3914.98584	0.07741
3913.05728	0.07648
3911.12871	0.07564
3909.20015	0.07539
3907.27158	0.07626
3905.34302	0.07874
3903.41445	0.08184
3901.48589	0.08310
3899.55732	0.08186
3897.62876	0.07924
3895.70020	0.07691
3893.77163	0.07671
3891.84307	0.07871
3889.91450	0.07990
3887.98594	0.07883
3886.05737	0.07870
3884.12881	0.08005
3882.20024	0.08065
3880.27168	0.08073
3878.34312	0.07997
3876.41455	0.07868
3874.48599	0.07908
3872.55742	0.08105
3870.62886	0.08303
3868.70029	0.08401
3866.77173	0.08326
3864.84316	0.08293
3862.91460	0.08357
3860.98604	0.08266
3859.05747	0.08130
3857.12891	0.08204
3855.20034	0.08541
3853.27178	0.09087
3851.34321	0.09220
3849.41465	0.08737
3847.48608	0.08349
3845.55752	0.08249
3843.62896	0.08403
3841.70039	0.08692
3839.77183	0.08981
3837.84326	0.09203
3835.91470	0.09247
3833.98613	0.09145
3832.05757	0.09042
3830.12900	0.08956
3828.20044	0.08929
3826.27187	0.09022
3824.34331	0.09172
3822.41475	0.09419
3820.48618	0.09838
3818.55762	0.10031
3816.62905	0.09951
3814.70049	0.09851
3812.77192	0.09679
3810.84336	0.09532
3808.91479	0.09568
3806.98623	0.09844
3805.05767	0.10167
3803.12910	0.10400
3801.20054	0.10689
3799.27197	0.10852
3797.34341	0.10822
3795.41484	0.10782
3793.48628	0.10681
3791.55771	0.10607
3789.62915	0.10661
3787.70059	0.10798
3785.77202	0.10990
3783.84346	0.11175
3781.91489	0.11320
3779.98633	0.11542
3778.05776	0.11784
3776.12920	0.11831
3774.20063	0.11852
3772.27207	0.12040
3770.34351	0.12364
3768.41494	0.12677
3766.48638	0.12861
3764.55781	0.12986
3762.62925	0.13087
3760.70068	0.13284
3758.77212	0.13666
3756.84355	0.14017
3754.91499	0.14229
3752.98643	0.14564
3751.05786	0.15209
3749.12930	0.15821
3747.20073	0.15972
3745.27217	0.16135
3743.34360	0.16596
3741.41504	0.16940
3739.48647	0.17142
3737.55791	0.17574
3735.62935	0.18394
3733.70078	0.19288
3731.77222	0.19763
3729.84365	0.20012
3727.91509	0.20341
3725.98652	0.20870
3724.05796	0.21505
3722.12939	0.22081
3720.20083	0.22586
3718.27227	0.23042
3716.34370	0.23529
3714.41514	0.24154
3712.48657	0.25179
3710.55801	0.26794
3708.62944	0.28340
3706.70088	0.29355
3704.77231	0.30325
3702.84375	0.31612
3700.91519	0.33281
3698.98662	0.35004
3697.05806	0.36644
3695.12949	0.38472
3693.20093	0.40484
3691.27236	0.42724
3689.34380	0.45563
3687.41523	0.48857
3685.48667	0.51647
3683.55811	0.54058
3681.62954	0.56743
3679.70098	0.59916
3677.77241	0.63399
3675.84385	0.67522
3673.91528	0.72702
3671.98672	0.76830
3670.05815	0.80642
3668.12959	0.85742
3666.20103	0.90253
3664.27246	0.94102
3662.34390	0.98389
3660.41533	1.03102
3658.48677	1.07790
3656.55820	1.12740
3654.62964	1.18147
3652.70107	1.22798
3650.77251	1.27135
3648.84395	1.32979
3646.91538	1.39493
3644.98682	1.44074
3643.05825	1.47727
3641.12969	1.51644
3639.20112	1.56039
3637.27256	1.60488
3635.34399	1.64881
3633.41543	1.69376
3631.48687	1.73662
3629.55830	1.78070
3627.62974	1.83573
3625.70117	1.88324
3623.77261	1.91513
3621.84404	1.94779
3619.91548	1.98613
3617.98691	2.03106
3616.05835	2.07329
3614.12979	2.10934
3612.20122	2.14786
3610.27266	2.18581
3608.34409	2.22362
3606.41553	2.26575
3604.48696	2.30657
3602.55840	2.34288
3600.62983	2.38105
3598.70127	2.42244
3596.77271	2.46314
3594.84414	2.50391
3592.91558	2.54531
3590.98701	2.58333
3589.05845	2.61814
3587.12988	2.66044
3585.20132	2.70805
3583.27275	2.74893
3581.34419	2.78657
3579.41562	2.82664
3577.48706	2.86993
3575.55850	2.91454
3573.62993	2.95851
3571.70137	2.99914
3569.77280	3.03865
3567.84424	3.08229
3565.91567	3.13343
3563.98711	3.18305
3562.05854	3.22569
3560.12998	3.26608
3558.20142	3.30780
3556.27285	3.35304
3554.34429	3.39932
3552.41572	3.44605
3550.48716	3.49244
3548.55859	3.53830
3546.63003	3.58650
3544.70146	3.63791
3542.77290	3.68741
3540.84434	3.73216
3538.91577	3.77598
3536.98721	3.82137
3535.05864	3.87027
3533.13008	3.92184
3531.20151	3.97382
3529.27295	4.02462
3527.34438	4.07436
3525.41582	4.12034
3523.48726	4.16179
3521.55869	4.20576
3519.63013	4.25512
3517.70156	4.30770
3515.77300	4.35958
3513.84443	4.40948
3511.91587	4.45859
3509.98730	4.50719
3508.05874	4.55574
3506.13018	4.60351
3504.20161	4.64857
3502.27305	4.69384
3500.34448	4.74432
3498.41592	4.79638
3496.48735	4.84619
3494.55879	4.89654
3492.63022	4.95002
3490.70166	5.00507
3488.77310	5.05929
3486.84453	5.11049
3484.91597	5.16017
3482.98740	5.21156
3481.05884	5.25856
3479.13027	5.29625
3477.20171	5.33669
3475.27314	5.38730
3473.34458	5.43920
3471.41602	5.48394
3469.48745	5.52886
3467.55889	5.59097
3465.63032	5.66397
3463.70176	5.72390
3461.77319	5.77015
3459.84463	5.81591
3457.91606	5.86072
3455.98750	5.90594
3454.05894	5.95035
3452.13037	5.99264
3450.20181	6.04679
3448.27324	6.11201
3446.34468	6.17152
3444.41611	6.21480
3442.48755	6.25734
3440.55898	6.31672
3438.63042	6.38629
3436.70186	6.44622
3434.77329	6.48269
3432.84473	6.49772
3430.91616	6.51308
3428.98760	6.56643
3427.05903	6.65633
3425.13047	6.73496
3423.20190	6.77339
3421.27334	6.81009
3419.34478	6.87842
3417.41621	6.94860
3415.48765	6.98875
3413.55908	7.01463
3411.63052	7.05727
3409.70195	7.11404
3407.77339	7.18104
3405.84482	7.24317
3403.91626	7.28763
3401.98770	7.32266
3400.05913	7.37232
3398.13057	7.44853
3396.20200	7.51219
3394.27344	7.55100
3392.34487	7.57366
3390.41631	7.58320
3388.48774	7.59909
3386.55918	7.65431
3384.63062	7.74022
3382.70205	7.80480
3380.77349	7.83165
3378.84492	7.86282
3376.91636	7.91423
3374.98779	7.95186
3373.05923	7.98093
3371.13066	7.99476
3369.20210	8.00108
3367.27354	8.01511
3365.34497	8.03046
3363.41641	8.03545
3361.48784	8.02417
3359.55928	8.02092
3357.63071	8.03024
3355.70215	8.05110
3353.77358	8.06944
3351.84502	8.08037
3349.91646	8.09723
3347.98789	8.15510
3346.05933	8.25814
3344.13076	8.40179
3342.20220	8.55991
3340.27363	8.57486
3338.34507	8.43329
3336.41650	8.30631
3334.48794	8.31282
3332.55937	8.42372
3330.63081	8.54156
3328.70225	8.58797
3326.77368	8.54376
3324.84512	8.46354
3322.91655	8.37759
3320.98799	8.32170
3319.05942	8.31636
3317.13086	8.37683
3315.20229	8.46042
3313.27373	8.49657
3311.34517	8.50823
3309.41660	8.52924
3307.48804	8.51794
3305.55947	8.49222
3303.63091	8.52521
3301.70234	8.53964
3299.77378	8.48868
3297.84521	8.43363
3295.91665	8.40107
3293.98809	8.42120
3292.05952	8.49769
3290.13096	8.53703
3288.20239	8.52009
3286.27383	8.50074
3284.34526	8.45840
3282.41670	8.45124
3280.48813	8.49962
3278.55957	8.52747
3276.63101	8.51845
3274.70244	8.50645
3272.77388	8.51579
3270.84531	8.56293
3268.91675	8.61961
3266.98818	8.60543
3265.05962	8.58445
3263.13105	8.66919
3261.20249	8.77931
3259.27393	8.80488
3257.34536	8.79892
3255.41680	8.74647
3253.48823	8.64513
3251.55967	8.57409
3249.63110	8.53656
3247.70254	8.55955
3245.77397	8.62219
3243.84541	8.63303
3241.91685	8.62089
3239.98828	8.61097
3238.05972	8.56472
3236.13115	8.51958
3234.20259	8.45937
3232.27402	8.35220
3230.34546	8.28074
3228.41689	8.33437
3226.48833	8.49690
3224.55977	8.60769
3222.63120	8.59626
3220.70264	8.54425
3218.77407	8.48745
3216.84551	8.42802
3214.91694	8.35050
3212.98838	8.28941
3211.05981	8.28026
3209.13125	8.27668
3207.20269	8.28676
3205.27412	8.31178
3203.34556	8.26392
3201.41699	8.18438
3199.48843	8.13515
3197.55986	8.09350
3195.63130	8.04765
3193.70273	8.00057
3191.77417	7.97753
3189.84561	7.96478
3187.91704	7.90077
3185.98848	7.80635
3184.05991	7.76534
3182.13135	7.76952
3180.20278	7.72676
3178.27422	7.60125
3176.34565	7.45889
3174.41709	7.37622
3172.48853	7.35367
3170.55996	7.31506
3168.63140	7.22801
3166.70283	7.15378
3164.77427	7.10994
3162.84570	7.05274
3160.91714	6.96635
3158.98857	6.86695
3157.06001	6.77884
3155.13145	6.71174
3153.20288	6.65375
3151.27432	6.60509
3149.34575	6.55680
3147.41719	6.48603
3145.48862	6.39879
3143.56006	6.31075
3141.63149	6.22917
3139.70293	6.15665
3137.77437	6.08698
3135.84580	6.00926
3133.91724	5.92795
3131.98867	5.85691
3130.06011	5.79502
3128.13154	5.72851
3126.20298	5.64951
3124.27441	5.56984
3122.34585	5.50004
3120.41729	5.42757
3118.48872	5.34372
3116.56016	5.26359
3114.63159	5.19487
3112.70303	5.12916
3110.77446	5.06070
3108.84590	4.98727
3106.91733	4.91081
3104.98877	4.83675
3103.06021	4.76663
3101.13164	4.69683
3099.20308	4.62920
3097.27451	4.56391
3095.34595	4.49338
3093.41738	4.41883
3091.48882	4.34767
3089.56025	4.28099
3087.63169	4.21597
3085.70312	4.15294
3083.77456	4.09192
3081.84600	4.02861
3079.91743	3.96187
3077.98887	3.89587
3076.06030	3.83308
3074.13174	3.77294
3072.20317	3.71431
3070.27461	3.65497
3068.34604	3.59427
3066.41748	3.53367
3064.48892	3.47334
3062.56035	3.41407
3060.63179	3.35692
3058.70322	3.30122
3056.77466	3.24709
3054.84609	3.19428
3052.91753	3.14124
3050.98896	3.08749
3049.06040	3.03362
3047.13184	2.98126
3045.20327	2.93102
3043.27471	2.88150
3041.34614	2.83185
3039.41758	2.78253
3037.48901	2.73401
3035.56045	2.68637
3033.63188	2.63947
3031.70332	2.59265
3029.77476	2.54605
3027.84619	2.50078
3025.91763	2.45715
3023.98906	2.41474
3022.06050	2.37262
3020.13193	2.33036
3018.20337	2.28879
3016.27480	2.24779
3014.34624	2.20669
3012.41768	2.16630
3010.48911	2.12743
3008.56055	2.08970
3006.63198	2.05281
3004.70342	2.01639
3002.77485	1.97992
3000.84629	1.94367
2998.91772	1.90833
2996.98916	1.87420
2995.06060	1.84090
2993.13203	1.80797
2991.20347	1.77553
2989.27490	1.74348
2987.34634	1.71167
2985.41777	1.68057
2983.48921	1.65035
2981.56064	1.62047
2979.63208	1.59078
2977.70352	1.56150
2975.77495	1.53285
2973.84639	1.50486
2971.91782	1.47706
2969.98926	1.44893
2968.06069	1.42086
2966.13213	1.39382
2964.20356	1.36792
2962.27500	1.34259
2960.34644	1.31774
2958.41787	1.29350
2956.48931	1.26947
2954.56074	1.24561
2952.63218	1.22277
2950.70361	1.20080
2948.77505	1.17860
2946.84648	1.15659
2944.91792	1.13545
2942.98936	1.11431
2941.06079	1.09266
2939.13223	1.07088
2937.20366	1.04964
2935.27510	1.02942
2933.34653	1.00955
2931.41797	0.98927
2929.48940	0.96917
2927.56084	0.95019
2925.63228	0.93231
2923.70371	0.91501
2921.77515	0.89863
2919.84658	0.88336
2917.91802	0.86822
2915.98945	0.85330
2914.06089	0.83931
2912.13232	0.82568
2910.20376	0.81175
2908.27520	0.79772
2906.34663	0.78416
2904.41807	0.77080
2902.48950	0.75744
2900.56094	0.74474
2898.63237	0.73269
2896.70381	0.72079
2894.77524	0.70915
2892.84668	0.69763
2890.91812	0.68579
2888.98955	0.67407
2887.06099	0.66297
2885.13242	0.65220
2883.20386	0.64162
2881.27529	0.63121
2879.34673	0.62062
2877.41816	0.60970
2875.48960	0.59873
2873.56104	0.58809
2871.63247	0.57795
2869.70391	0.56807
2867.77534	0.55809
2865.84678	0.54792
2863.91821	0.53770
2861.98965	0.52739
2860.06108	0.51703
2858.13252	0.50691
2856.20396	0.49731
2854.27539	0.48846
2852.34683	0.48036
2850.41826	0.47289
2848.48970	0.46592
2846.56113	0.45932
2844.63257	0.45304
2842.70400	0.44697
2840.77544	0.44108
2838.84687	0.43554
2836.91831	0.43008
2834.98975	0.42452
2833.06118	0.41903
2831.13262	0.41339
2829.20405	0.40751
2827.27549	0.40168
2825.34692	0.39593
2823.41836	0.39003
2821.48979	0.38397
2819.56123	0.37800
2817.63267	0.37237
2815.70410	0.36703
2813.77554	0.36174
2811.84697	0.35644
2809.91841	0.35126
2807.98984	0.34626
2806.06128	0.34134
2804.13271	0.33652
2802.20415	0.33180
2800.27559	0.32711
2798.34702	0.32239
2796.41846	0.31764
2794.48989	0.31297
2792.56133	0.30852
2790.63276	0.30426
2788.70420	0.30015
2786.77563	0.29613
2784.84707	0.29213
2782.91851	0.28823
2780.98994	0.28444
2779.06138	0.28069
2777.13281	0.27701
2775.20425	0.27343
2773.27568	0.26990
2771.34712	0.26643
2769.41855	0.26291
2767.48999	0.25939
2765.56143	0.25608
2763.63286	0.25303
2761.70430	0.25014
2759.77573	0.24728
2757.84717	0.24427
2755.91860	0.24121
2753.99004	0.23831
2752.06147	0.23557
2750.13291	0.23279
2748.20435	0.22987
2746.27578	0.22704
2744.34722	0.22456
2742.41865	0.22227
2740.49009	0.21992
2738.56152	0.21753
2736.63296	0.21515
2734.70439	0.21266
2732.77583	0.21016
2730.84727	0.20787
2728.91870	0.20583
2726.99014	0.20389
2725.06157	0.20198
2723.13301	0.20011
2721.20444	0.19820
2719.27588	0.19622
2717.34731	0.19433
2715.41875	0.19261
2713.49019	0.19089
2711.56162	0.18914
2709.63306	0.18754
2707.70449	0.18612
2705.77593	0.18466
2703.84736	0.18310
2701.91880	0.18150
2699.99023	0.18000
2698.06167	0.17868
2696.13311	0.17740
2694.20454	0.17592
2692.27598	0.17435
2690.34741	0.17291
2688.41885	0.17163
2686.49028	0.17042
2684.56172	0.16925
2682.63315	0.16808
2680.70459	0.16700
2678.77603	0.16604
2676.84746	0.16503
2674.91890	0.16389
2672.99033	0.16271
2671.06177	0.16163
2669.13320	0.16075
2667.20464	0.15999
2665.27607	0.15932
2663.34751	0.15863
2661.41895	0.15780
2659.49038	0.15689
2657.56182	0.15602
2655.63325	0.15521
2653.70469	0.15455
2651.77612	0.15403
2649.84756	0.15359
2647.91899	0.15310
2645.99043	0.15239
2644.06187	0.15172
2642.13330	0.15129
2640.20474	0.15095
2638.27617	0.15054
2636.34761	0.15012
2634.41904	0.14976
2632.49048	0.14943
2630.56191	0.14899
2628.63335	0.14852
2626.70479	0.14827
2624.77622	0.14817
2622.84766	0.14804
2620.91909	0.14780
2618.99053	0.14750
2617.06196	0.14724
2615.13340	0.14709
2613.20483	0.14704
2611.27627	0.14690
2609.34771	0.14668
2607.41914	0.14664
2605.49058	0.14681
2603.56201	0.14705
2601.63345	0.14727
2599.70488	0.14740
2597.77632	0.14738
2595.84775	0.14738
2593.91919	0.14758
2591.99062	0.14787
2590.06206	0.14801
2588.13350	0.14819
2586.20493	0.14855
2584.27637	0.14887
2582.34780	0.14904
2580.41924	0.14924
2578.49067	0.14964
2576.56211	0.15015
2574.63354	0.15054
2572.70498	0.15086
2570.77642	0.15120
2568.84785	0.15154
2566.91929	0.15187
2564.99072	0.15219
2563.06216	0.15260
2561.13359	0.15308
2559.20503	0.15362
2557.27646	0.15428
2555.34790	0.15503
2553.41934	0.15576
2551.49077	0.15640
2549.56221	0.15690
2547.63364	0.15741
2545.70508	0.15801
2543.77651	0.15862
2541.84795	0.15927
2539.91938	0.16005
2537.99082	0.16089
2536.06226	0.16164
2534.13369	0.16233
2532.20513	0.16307
2530.27656	0.16381
2528.34800	0.16456
2526.41943	0.16539
2524.49087	0.16616
2522.56230	0.16686
2520.63374	0.16756
2518.70518	0.16825
2516.77661	0.16903
2514.84805	0.17004
2512.91948	0.17107
2510.99092	0.17183
2509.06235	0.17238
2507.13379	0.17294
2505.20522	0.17362
2503.27666	0.17458
2501.34810	0.17573
2499.41953	0.17680
2497.49097	0.17769
2495.56240	0.17851
2493.63384	0.17939
2491.70527	0.18029
2489.77671	0.18116
2487.84814	0.18206
2485.91958	0.18300
2483.99102	0.18392
2482.06245	0.18487
2480.13389	0.18585
2478.20532	0.18683
2476.27676	0.18776
2474.34819	0.18867
2472.41963	0.18958
2470.49106	0.19051
2468.56250	0.19152
2466.63394	0.19255
2464.70537	0.19347
2462.77681	0.19436
2460.84824	0.19539
2458.91968	0.19655
2456.99111	0.19761
2455.06255	0.19847
2453.13398	0.19941
2451.20542	0.20058
2449.27686	0.20168
2447.34829	0.20258
2445.41973	0.20354
2443.49116	0.20467
2441.56260	0.20570
2439.63403	0.20666
2437.70547	0.20777
2435.77690	0.20895
2433.84834	0.21003
2431.91978	0.21106
2429.99121	0.21213
2428.06265	0.21314
2426.13408	0.21410
2424.20552	0.21510
2422.27695	0.21627
2420.34839	0.21756
2418.41982	0.21882
2416.49126	0.21992
2414.56270	0.22097
2412.63413	0.22215
2410.70557	0.22341
2408.77700	0.22463
2406.84844	0.22584
2404.91987	0.22704
2402.99131	0.22830
2401.06274	0.22962
2399.13418	0.23087
2397.20562	0.23209
2395.27705	0.23327
2393.34849	0.23445
2391.41992	0.23584
2389.49136	0.23751
2387.56279	0.23958
2385.63423	0.24260
2383.70566	0.24721
2381.77710	0.25356
2379.84854	0.26126
2377.91997	0.26997
2375.99141	0.27979
2374.06284	0.29132
2372.13428	0.30480
2370.20571	0.31957
2368.27715	0.33448
2366.34858	0.34852
2364.42002	0.36040
2362.49146	0.36902
2360.56289	0.37501
2358.63433	0.37718
2356.70576	0.37204
2354.77720	0.36119
2352.84863	0.34859
2350.92007	0.33581
2348.99150	0.32755
2347.06294	0.32808
2345.13437	0.33807
2343.20581	0.35127
2341.27725	0.35813
2339.34868	0.35905
2337.42012	0.35822
2335.49155	0.35741
2333.56299	0.35694
2331.63442	0.35690
2329.70586	0.35643
2327.77729	0.35511
2325.84873	0.35292
2323.92017	0.34984
2321.99160	0.34622
2320.06304	0.34212
2318.13447	0.33786
2316.20591	0.33446
2314.27734	0.33246
2312.34878	0.33144
2310.42021	0.33054
2308.49165	0.32916
2306.56309	0.32738
2304.63452	0.32577
2302.70596	0.32502
2300.77739	0.32510
2298.84883	0.32530
2296.92026	0.32548
2294.99170	0.32584
2293.06313	0.32619
2291.13457	0.32650
2289.20601	0.32700
2287.27744	0.32764
2285.34888	0.32832
2283.42031	0.32936
2281.49175	0.33112
2279.56318	0.33346
2277.63462	0.33594
2275.70605	0.33840
2273.77749	0.34081
2271.84893	0.34311
2269.92036	0.34517
2267.99180	0.34705
2266.06323	0.34893
2264.13467	0.35089
2262.20610	0.35281
2260.27754	0.35465
2258.34897	0.35653
2256.42041	0.35840
2254.49185	0.36027
2252.56328	0.36226
2250.63472	0.36429
2248.70615	0.36627
2246.77759	0.36832
2244.84902	0.37042
2242.92046	0.37245
2240.99189	0.37447
2239.06333	0.37670
2237.13477	0.37915
2235.20620	0.38155
2233.27764	0.38369
2231.34907	0.38572
2229.42051	0.38786
2227.49194	0.39015
2225.56338	0.39242
2223.63481	0.39457
2221.70625	0.39673
2219.77769	0.39888
2217.84912	0.40092
2215.92056	0.40310
2213.99199	0.40552
2212.06343	0.40787
2210.13486	0.41004
2208.20630	0.41210
2206.27773	0.41411
2204.34917	0.41621
2202.42061	0.41840
2200.49204	0.42047
2198.56348	0.42243
2196.63491	0.42445
2194.70635	0.42650
2192.77778	0.42844
2190.84922	0.43024
2188.92065	0.43201
2186.99209	0.43388
2185.06353	0.43577
2183.13496	0.43754
2181.20640	0.43924
2179.27783	0.44093
2177.34927	0.44256
2175.42070	0.44412
2173.49214	0.44556
2171.56357	0.44688
2169.63501	0.44831
2167.70645	0.44980
2165.77788	0.45110
2163.84932	0.45229
2161.92075	0.45338
2159.99219	0.45435
2158.06362	0.45536
2156.13506	0.45638
2154.20649	0.45730
2152.27793	0.45816
2150.34937	0.45890
2148.42080	0.45958
2146.49224	0.46022
2144.56367	0.46069
2142.63511	0.46102
2140.70654	0.46134
2138.77798	0.46160
2136.84941	0.46178
2134.92085	0.46175
2132.99229	0.46153
2131.06372	0.46138
2129.13516	0.46131
2127.20659	0.46111
2125.27803	0.46070
2123.34946	0.46023
2121.42090	0.45987
2119.49233	0.45950
2117.56377	0.45888
2115.63521	0.45804
2113.70664	0.45708
2111.77808	0.45601
2109.84951	0.45490
2107.92095	0.45382
2105.99238	0.45270
2104.06382	0.45153
2102.13525	0.45033
2100.20669	0.44901
2098.27812	0.44748
2096.34956	0.44587
2094.42100	0.44430
2092.49243	0.44269
2090.56387	0.44095
2088.63530	0.43909
2086.70674	0.43724
2084.77817	0.43542
2082.84961	0.43364
2080.92104	0.43180
2078.99248	0.42974
2077.06392	0.42746
2075.13535	0.42514
2073.20679	0.42288
2071.27822	0.42058
2069.34966	0.41828
2067.42109	0.41607
2065.49253	0.41384
2063.56396	0.41139
2061.63540	0.40873
2059.70684	0.40602
2057.77827	0.40335
2055.84971	0.40078
2053.92114	0.39824
2051.99258	0.39565
2050.06401	0.39307
2048.13545	0.39056
2046.20688	0.38801
2044.27832	0.38540
2042.34976	0.38270
2040.42119	0.37992
2038.49263	0.37708
2036.56406	0.37425
2034.63550	0.37148
2032.70693	0.36870
2030.77837	0.36586
2028.84980	0.36303
2026.92124	0.36029
2024.99268	0.35754
2023.06411	0.35472
2021.13555	0.35194
2019.20698	0.34926
2017.27842	0.34651
2015.34985	0.34355
2013.42129	0.34057
2011.49272	0.33773
2009.56416	0.33502
2007.63560	0.33236
2005.70703	0.32966
2003.77847	0.32695
2001.84990	0.32431
1999.92134	0.32174
1997.99277	0.31910
1996.06421	0.31647
1994.13564	0.31417
1992.20708	0.31201
1990.27852	0.30939
1988.34995	0.30649
1986.42139	0.30379
1984.49282	0.30128
1982.56426	0.29887
1980.63569	0.29656
1978.70713	0.29430
1976.77856	0.29203
1974.85000	0.28979
1972.92144	0.28764
1970.99287	0.28561
1969.06431	0.28373
1967.13574	0.28186
1965.20718	0.27969
1963.27861	0.27741
1961.35005	0.27536
1959.42148	0.27350
1957.49292	0.27179
1955.56436	0.27015
1953.63579	0.26842
1951.70723	0.26654
1949.77866	0.26474
1947.85010	0.26317
1945.92153	0.26188
1943.99297	0.26083
1942.06440	0.25958
1940.13584	0.25777
1938.20728	0.25591
1936.27871	0.25448
1934.35015	0.25322
1932.42158	0.25191
1930.49302	0.25062
1928.56445	0.24944
1926.63589	0.24844
1924.70732	0.24771
1922.77876	0.24710
1920.85020	0.24635
1918.92163	0.24559
1916.99307	0.24461
1915.06450	0.24324
1913.13594	0.24212
1911.20737	0.24162
1909.27881	0.24127
1907.35024	0.24060
1905.42168	0.23969
1903.49312	0.23888
1901.56455	0.23820
1899.63599	0.23765
1897.70742	0.23730
1895.77886	0.23712
1893.85029	0.23683
1891.92173	0.23647
1889.99316	0.23647
1888.06460	0.23633
1886.13604	0.23580
1884.20747	0.23535
1882.27891	0.23506
1880.35034	0.23491
1878.42178	0.23487
1876.49321	0.23485
1874.56465	0.23487
1872.63608	0.23516
1870.70752	0.23601
1868.77896	0.23730
1866.85039	0.23764
1864.92183	0.23689
1862.99326	0.23638
1861.06470	0.23641
1859.13613	0.23673
1857.20757	0.23710
1855.27900	0.23748
1853.35044	0.23783
1851.42187	0.23840
1849.49331	0.23934
1847.56475	0.24051
1845.63618	0.24187
1843.70762	0.24319
1841.77905	0.24355
1839.85049	0.24338
1837.92192	0.24390
1835.99336	0.24485
1834.06479	0.24579
1832.13623	0.24705
1830.20767	0.24910
1828.27910	0.25087
1826.35054	0.25174
1824.42197	0.25273
1822.49341	0.25362
1820.56484	0.25447
1818.63628	0.25571
1816.70771	0.25740
1814.77915	0.25927
1812.85059	0.26144
1810.92202	0.26386
1808.99346	0.26587
1807.06489	0.26748
1805.13633	0.26925
1803.20776	0.27168
1801.27920	0.27461
1799.35063	0.27763
1797.42207	0.28011
1795.49351	0.28258
1793.56494	0.28586
1791.63638	0.28989
1789.70781	0.29287
1787.77925	0.29481
1785.85068	0.29773
1783.92212	0.30158
1781.99355	0.30578
1780.06499	0.31013
1778.13643	0.31439
1776.20786	0.31864
1774.27930	0.32382
1772.35073	0.33062
1770.42217	0.33678
1768.49360	0.34120
1766.56504	0.34564
1764.63647	0.35075
1762.70791	0.35693
1760.77935	0.36472
1758.85078	0.37185
1756.92222	0.37895
1754.99365	0.38656
1753.06509	0.39376
1751.13652	0.40295
1749.20796	0.41425
1747.27939	0.42453
1745.35083	0.43333
1743.42227	0.44286
1741.49370	0.45362
1739.56514	0.46633
1737.63657	0.47899
1735.70801	0.49050
1733.77944	0.50768
1731.85088	0.52698
1729.92231	0.54173
1727.99375	0.55681
1726.06519	0.57358
1724.13662	0.59253
1722.20806	0.61315
1720.27949	0.63258
1718.35093	0.65579
1716.42236	0.68838
1714.49380	0.71802
1712.56523	0.74205
1710.63667	0.76565
1708.70811	0.79148
1706.77954	0.82137
1704.85098	0.85681
1702.92241	0.88853
1700.99385	0.92058
1699.06528	0.96663
1697.13672	1.00747
1695.20815	1.04842
1693.27959	1.08837
1691.35103	1.12128
1689.42246	1.15932
1687.49390	1.19902
1685.56533	1.23792
1683.63677	1.29620
1681.70820	1.35452
1679.77964	1.39238
1677.85107	1.42921
1675.92251	1.47199
1673.99395	1.52375
1672.06538	1.56902
1670.13682	1.61308
1668.20825	1.66900
1666.27969	1.71446
1664.35112	1.75308
1662.42256	1.79995
1660.49399	1.85058
1658.56543	1.88956
1656.63687	1.92217
1654.70830	1.95523
1652.77974	2.01024
1650.85117	2.06136
1648.92261	2.08120
1646.99404	2.10829
1645.06548	2.13935
1643.13691	2.15869
1641.20835	2.17054
1639.27979	2.18222
1637.35122	2.19135
1635.42266	2.19480
1633.49409	2.19077
1631.56553	2.18033
1629.63696	2.16637
1627.70840	2.14374
1625.77983	2.11704
1623.85127	2.08089
1621.92271	2.03402
1619.99414	1.99114
1618.06558	1.95043
1616.13701	1.89418
1614.20845	1.83464
1612.27988	1.78744
1610.35132	1.73896
1608.42275	1.68691
1606.49419	1.63539
1604.56562	1.58788
1602.63706	1.54176
1600.70850	1.49610
1598.77993	1.45398
1596.85137	1.41410
1594.92280	1.37436
1592.99424	1.33530
1591.06567	1.29961
1589.13711	1.26625
1587.20854	1.23450
1585.27998	1.20425
1583.35142	1.17541
1581.42285	1.14889
1579.49429	1.12618
1577.56572	1.10584
1575.63716	1.08065
1573.70859	1.05691
1571.78003	1.04076
1569.85146	1.02424
1567.92290	1.00502
1565.99434	0.98895
1564.06577	0.97566
1562.13721	0.96530
1560.20864	0.95769
1558.28008	0.94375
1556.35151	0.92757
1554.42295	0.91668
1552.49438	0.90673
1550.56582	0.89731
1548.63726	0.88771
1546.70869	0.87909
1544.78013	0.87179
1542.85156	0.86489
1540.92300	0.85634
1538.99443	0.84117
1537.06587	0.82780
1535.13730	0.81961
1533.20874	0.81094
1531.28018	0.80104
1529.35161	0.79322
1527.42305	0.78653
1525.49448	0.78003
1523.56592	0.77443
1521.63735	0.76885
1519.70879	0.76178
1517.78022	0.75496
1515.85166	0.74774
1513.92310	0.74028
1511.99453	0.73447
1510.06597	0.73062
1508.13740	0.72833
1506.20884	0.72297
1504.28027	0.71458
1502.35171	0.70902
1500.42314	0.70540
1498.49458	0.70252
1496.56602	0.69893
1494.63745	0.69447
1492.70889	0.69102
1490.78032	0.68904
1488.85176	0.68669
1486.92319	0.68272
1484.99463	0.67879
1483.06606	0.67600
1481.13750	0.67392
1479.20894	0.67202
1477.28037	0.67061
1475.35181	0.66985
1473.42324	0.66906
1471.49468	0.66605
1469.56611	0.66170
1467.63755	0.65863
1465.70898	0.65676
1463.78042	0.65466
1461.85186	0.65244
1459.92329	0.65144
1457.99473	0.65121
1456.06616	0.64871
1454.13760	0.64448
1452.20903	0.64143
1450.28047	0.63927
1448.35190	0.63742
1446.42334	0.63520
1444.49478	0.63268
1442.56621	0.63043
1440.63765	0.62861
1438.70908	0.62750
1436.78052	0.62680
1434.85195	0.62517
1432.92339	0.62298
1430.99482	0.62128
1429.06626	0.61967
1427.13770	0.61794
1425.20913	0.61655
1423.28057	0.61529
1421.35200	0.61408
1419.42344	0.61328
1417.49487	0.61206
1415.56631	0.60981
1413.63774	0.60763
1411.70918	0.60590
1409.78062	0.60450
1407.85205	0.60342
1405.92349	0.60269
1403.99492	0.60174
1402.06636	0.60037
1400.13779	0.59930
1398.20923	0.59850
1396.28066	0.59730
1394.35210	0.59540
1392.42354	0.59299
1390.49497	0.59092
1388.56641	0.58957
1386.63784	0.58814
1384.70928	0.58598
1382.78071	0.58391
1380.85215	0.58249
1378.92358	0.58153
1376.99502	0.58094
1375.06646	0.58063
1373.13789	0.57992
1371.20933	0.57875
1369.28076	0.57775
1367.35220	0.57683
1365.42363	0.57591
1363.49507	0.57519
1361.56650	0.57419
1359.63794	0.57261
1357.70937	0.57121
1355.78081	0.57012
1353.85225	0.56894
1351.92368	0.56771
1349.99512	0.56676
1348.06655	0.56600
1346.13799	0.56507
1344.20942	0.56403
1342.28086	0.56327
1340.35229	0.56282
1338.42373	0.56195
1336.49517	0.56052
1334.56660	0.55918
1332.63804	0.55815
1330.70947	0.55733
1328.78091	0.55665
1326.85234	0.55597
1324.92378	0.55534
1322.99521	0.55488
1321.06665	0.55447
1319.13809	0.55386
1317.20952	0.55300
1315.28096	0.55218
1313.35239	0.55139
1311.42383	0.55041
1309.49526	0.54937
1307.56670	0.54846
1305.63813	0.54756
1303.70957	0.54658
1301.78101	0.54569
1299.85244	0.54494
1297.92388	0.54426
1295.99531	0.54356
1294.06675	0.54287
1292.13818	0.54223
1290.20962	0.54160
1288.28105	0.54090
1286.35249	0.54017
1284.42393	0.53955
1282.49536	0.53901
1280.56680	0.53838
1278.63823	0.53766
1276.70967	0.53694
1274.78110	0.53630
1272.85254	0.53580
1270.92397	0.53535
1268.99541	0.53482
1267.06685	0.53434
1265.13828	0.53404
1263.20972	0.53374
1261.28115	0.53329
1259.35259	0.53276
1257.42402	0.53232
1255.49546	0.53207
1253.56689	0.53186
1251.63833	0.53166
1249.70977	0.53150
1247.78120	0.53128
1245.85264	0.53097
1243.92407	0.53055
1241.99551	0.52995
1240.06694	0.52926
1238.13838	0.52850
1236.20981	0.52772
1234.28125	0.52692
1232.35269	0.52605
1230.42412	0.52519
1228.49556	0.52440
1226.56699	0.52361
1224.63843	0.52279
1222.70986	0.52196
1220.78130	0.52112
1218.85273	0.52024
1216.92417	0.51936
1214.99561	0.51862
1213.06704	0.51794
1211.13848	0.51724
1209.20991	0.51665
1207.28135	0.51621
1205.35278	0.51562
1203.42422	0.51489
1201.49565	0.51424
1199.56709	0.51364
1197.63853	0.51298
1195.70996	0.51236
1193.78140	0.51182
1191.85283	0.51123
1189.92427	0.51062
1187.99570	0.51022
1186.06714	0.51002
1184.13857	0.50994
1182.21001	0.51006
1180.28145	0.51035
1178.35288	0.51079
1176.42432	0.51149
1174.49575	0.51237
1172.56719	0.51313
1170.63862	0.51374
1168.71006	0.51463
1166.78149	0.51582
1164.85293	0.51683
1162.92437	0.51743
1160.99580	0.51776
1159.06724	0.51808
1157.13867	0.51818
1155.21011	0.51759
1153.28154	0.51643
1151.35298	0.51500
1149.42441	0.51316
1147.49585	0.51092
1145.56729	0.50851
1143.63872	0.50596
1141.71016	0.50332
1139.78159	0.50079
1137.85303	0.49860
1135.92446	0.49682
1133.99590	0.49535
1132.06733	0.49413
1130.13877	0.49316
1128.21021	0.49223
1126.28164	0.49129
1124.35308	0.49041
1122.42451	0.48974
1120.49595	0.48948
1118.56738	0.48970
1116.63882	0.49029
1114.71025	0.49102
1112.78169	0.49185
1110.85312	0.49277
1108.92456	0.49358
1106.99600	0.49424
1105.06743	0.49504
1103.13887	0.49628
1101.21030	0.49781
1099.28174	0.49932
1097.35317	0.50110
1095.42461	0.50363
1093.49604	0.50721
1091.56748	0.51204
1089.63892	0.51816
1087.71035	0.52556
1085.78179	0.53398
1083.85322	0.54275
1081.92466	0.55062
1079.99609	0.55651
1078.06753	0.55992
1076.13896	0.56058
1074.21040	0.55815
1072.28184	0.55293
1070.35327	0.54610
1068.42471	0.53904
1066.49614	0.53255
1064.56758	0.52662
1062.63901	0.52105
1060.71045	0.51611
1058.78188	0.51192
1056.85332	0.50802
1054.92476	0.50435
1052.99619	0.50137
1051.06763	0.49918
1049.13906	0.49763
1047.21050	0.49672
1045.28193	0.49630
1043.35337	0.49618
1041.42480	0.49632
1039.49624	0.49661
1037.56768	0.49703
1035.63911	0.49744
1033.71055	0.49733
1031.78198	0.49663
1029.85342	0.49568
1027.92485	0.49454
1025.99629	0.49333
1024.06772	0.49234
1022.13916	0.49166
1020.21060	0.49132
1018.28203	0.49129
1016.35347	0.49157
1014.42490	0.49203
1012.49634	0.49238
1010.56777	0.49260
1008.63921	0.49296
1006.71064	0.49356
1004.78208	0.49459
1002.85352	0.49642
1000.92495	0.49905
998.99639	0.50222
997.06782	0.50597
995.13926	0.51025
993.21069	0.51426
991.28213	0.51697
989.35356	0.51841
987.42500	0.51926
985.49644	0.51979
983.56787	0.52016
981.63931	0.52064
979.71074	0.52141
977.78218	0.52284
975.85361	0.52525
973.92505	0.52831
971.99648	0.53137
970.06792	0.53440
968.13936	0.53794
966.21079	0.54213
964.28223	0.54678
962.35366	0.55173
960.42510	0.55697
958.49653	0.56259
956.56797	0.56833
954.63940	0.57399
952.71084	0.57987
950.78228	0.58629
948.85371	0.59301
946.92515	0.59954
944.99658	0.60594
943.06802	0.61237
941.13945	0.61863
939.21089	0.62476
937.28232	0.63082
935.35376	0.63621
933.42520	0.64102
931.49663	0.64625
929.56807	0.65232
927.63950	0.65885
925.71094	0.66537
923.78237	0.67174
921.85381	0.67829
919.92524	0.68550
917.99668	0.69339
916.06812	0.70138
914.13955	0.70915
912.21099	0.71656
910.28242	0.72421
908.35386	0.73290
906.42529	0.74195
904.49673	0.75112
902.56816	0.76110
900.63960	0.77123
898.71104	0.78096
896.78247	0.79087
894.85391	0.80109
892.92534	0.81125
890.99678	0.82124
889.06821	0.83185
887.13965	0.84346
885.21108	0.85487
883.28252	0.86554
881.35396	0.87583
879.42539	0.88650
877.49683	0.89790
875.56826	0.90937
873.63970	0.92012
871.71113	0.93100
869.78257	0.94416
867.85400	0.95839
865.92544	0.97054
863.99687	0.98079
862.06831	0.99233
860.13975	1.00666
858.21118	1.02109
856.28262	1.03332
854.35405	1.04406
852.42549	1.05475
850.49692	1.06679
848.56836	1.07879
846.63979	1.08785
844.71123	1.09561
842.78267	1.10649
840.85410	1.12161
838.92554	1.13612
836.99697	1.14615
835.06841	1.15509
833.13984	1.16659
831.21128	1.18084
829.28271	1.19843
827.35415	1.21653
825.42559	1.22928
823.49702	1.24137
821.56846	1.26245
819.63989	1.28446
817.71133	1.28827
815.78276	1.28574
813.85420	1.30203
811.92563	1.33024
809.99707	1.35159
808.06851	1.36905
806.13994	1.40127
804.21138	1.44572
802.28281	1.46662
800.35425	1.44903
798.42568	1.43131
796.49712	1.44700
794.56855	1.48725
792.63999	1.54848
790.71143	1.65633
788.78286	1.78889
786.85430	1.91227
784.92573	2.11254
782.99717	2.06019
781.06860	1.74374
779.14004	1.60705
777.21147	1.61256
775.28291	1.65019
773.35435	1.72879
771.42578	1.78404
769.49722	1.62706
767.56865	1.58914
765.64009	1.76670
763.71152	1.92939
761.78296	1.76911
759.85439	1.50951
757.92583	1.30174
755.99727	1.22080
754.06870	1.27495
752.14014	1.49102
750.21157	1.54991
748.28301	1.20262
746.35444	1.00315
744.42588	0.90066
742.49731	0.84063
740.56875	0.87225
738.64019	0.97477
736.71162	0.93095
734.78306	0.80621
732.85449	0.73476
730.92593	0.63801
728.99736	0.50221
727.06880	0.41154
725.14023	0.37610
723.21167	0.32039
721.28311	0.18131
719.35454	-0.02846
717.42598	-0.27059
715.49741	-0.62146
713.56885	-0.55247
711.64028	-0.25478
709.71172	-0.13923
707.78315	-0.05776
705.85459	-0.00750
703.92603	0.01440
701.99746	0.02581
700.06890	0.07745
698.14033	0.21796
696.21177	0.36669
694.28320	0.30950
692.35464	0.18368
690.42607	0.17714
688.49751	0.24603
686.56895	0.30989
684.64038	0.33076
682.71182	0.35204
680.78325	0.41680
678.85469	0.56663
676.92612	0.67378
674.99756	0.46397
673.06899	0.32831
671.14043	0.27784
669.21187	0.21380
667.28330	0.17566
665.35474	0.22249
663.42617	0.26669
661.49761	0.27485
659.56904	0.29470
657.64048	0.28336
655.71191	0.22712
653.78335	0.21185
651.85479	0.25387
649.92622	0.24807
647.99766	0.19442
646.06909	0.15599
644.14053	0.14278
642.21196	0.16795
640.28340	0.19744
638.35483	0.20184
636.42627	0.19140
634.49771	0.19198
632.56914	0.21951
630.64058	0.23822
628.71201	0.17614
626.78345	0.13176
624.85488	0.19441
622.92632	0.28403
620.99775	0.31671
619.06919	0.34542
617.14062	0.37620
615.21206	0.35114
613.28350	0.28583
611.35493	0.20629
609.42637	0.11890
607.49780	0.04852
605.56924	0.04842
603.64067	0.11812
601.71211	0.18075
599.78354	0.20808
597.85498	0.21385
595.92642	0.19298
593.99785	0.17526
592.06929	0.20486
590.14072	0.27094
588.21216	0.31020
586.28359	0.24724
584.35503	0.17329
582.42646	0.17432
580.49790	0.19737
578.56934	0.23337
576.64077	0.28144
574.71221	0.31365
572.78364	0.28426
570.85508	0.20517
568.92651	0.18655
566.99795	0.21609
565.06938	0.23126
563.14082	0.24935
561.21226	0.22731
559.28369	0.16836
557.35513	0.14554
555.42656	0.13021
553.49800	0.12121
551.56943	0.19329
549.64087	0.30647
547.71230	0.28723
545.78374	0.21552
543.85518	0.19190
541.92661	0.18417
539.99805	0.17051
538.06948	0.14926
536.14092	0.16231
534.21235	0.21666
532.28379	0.23340
530.35522	0.18571
528.42666	0.16037
526.49810	0.18087
524.56953	0.22064
522.64097	0.28382
520.71240	0.33098
518.78384	0.29518
516.85527	0.28833
514.92671	0.28691
512.99814	0.24678
511.06958	0.25653
509.14102	0.28958
507.21245	0.26238
505.28389	0.21368
503.35532	0.17903
501.42676	0.16913
499.49819	0.18508
