3997.91411	0.08298
3995.98555	0.08337
3994.05698	0.08416
3992.12842	0.08508
3990.19985	0.08578
3988.27129	0.08619
3986.34272	0.08643
3984.41416	0.08664
3982.48560	0.08674
3980.55703	0.08667
3978.62847	0.08644
3976.69990	0.08617
3974.77134	0.08640
3972.84277	0.08716
3970.91421	0.08755
3968.98564	0.08730
3967.05708	0.08680
3965.12852	0.08641
3963.19995	0.08663
3961.27139	0.08729
3959.34282	0.08771
3957.41426	0.08766
3955.48569	0.08726
3953.55713	0.08706
3951.62856	0.08737
3949.70000	0.08784
3947.77144	0.08813
3945.84287	0.08823
3943.91431	0.08853
3941.98574	0.08892
3940.05718	0.08868
3938.12861	0.08827
3936.20005	0.08825
3934.27148	0.08845
3932.34292	0.08886
3930.41436	0.08896
3928.48579	0.08814
3926.55723	0.08724
3924.62866	0.08736
3922.70010	0.08793
3920.77153	0.08794
3918.84297	0.08769
3916.91440	0.08745
3914.98584	0.08728
3913.05728	0.08726
3911.12871	0.08714
3909.20015	0.08700
3907.27158	0.08723
3905.34302	0.08803
3903.41445	0.08914
3901.48589	0.08976
3899.55732	0.08949
3897.62876	0.08830
3895.70020	0.08687
3893.77163	0.08610
3891.84307	0.08620
3889.91450	0.08647
3887.98594	0.08640
3886.05737	0.08695
3884.12881	0.08808
3882.20024	0.08808
3880.27168	0.08750
3878.34312	0.08741
3876.41455	0.08764
3874.48599	0.08845
3872.55742	0.08952
3870.62886	0.09020
3868.70029	0.09083
3866.77173	0.09106
3864.84316	0.09120
3862.91460	0.09157
3860.98604	0.09124
3859.05747	0.09058
3857.12891	0.09059
3855.20034	0.09149
3853.27178	0.09372
3851.34321	0.09577
3849.41465	0.09493
3847.48608	0.09338
3845.55752	0.09263
3843.62896	0.09315
3841.70039	0.09473
3839.77183	0.09633
3837.84326	0.09746
3835.91470	0.09786
3833.98613	0.09764
3832.05757	0.09734
3830.12900	0.09736
3828.20044	0.09779
3826.27187	0.09848
3824.34331	0.09947
3822.41475	0.10120
3820.48618	0.10375
3818.55762	0.10501
3816.62905	0.10502
3814.70049	0.10536
3812.77192	0.10525
3810.84336	0.10491
3808.91479	0.10541
3806.98623	0.10731
3805.05767	0.10961
3803.12910	0.11103
3801.20054	0.11287
3799.27197	0.11433
3797.34341	0.11430
3795.41484	0.11480
3793.48628	0.11574
3791.55771	0.11632
3789.62915	0.11708
3787.70059	0.11828
3785.77202	0.11978
3783.84346	0.12136
3781.91489	0.12272
3779.98633	0.12413
3778.05776	0.12593
3776.12920	0.12750
3774.20063	0.12887
3772.27207	0.13049
3770.34351	0.13275
3768.41494	0.13540
3766.48638	0.13713
3764.55781	0.13829
3762.62925	0.13987
3760.70068	0.14209
3758.77212	0.14506
3756.84355	0.14812
3754.91499	0.15042
3752.98643	0.15286
3751.05786	0.15682
3749.12930	0.16083
3747.20073	0.16235
3745.27217	0.16403
3743.34360	0.16798
3741.41504	0.17138
3739.48647	0.17331
3737.55791	0.17596
3735.62935	0.18053
3733.70078	0.18636
3731.77222	0.19097
3729.84365	0.19427
3727.91509	0.19783
3725.98652	0.20302
3724.05796	0.20963
3722.12939	0.21627
3720.20083	0.22291
3718.27227	0.22988
3716.34370	0.23721
3714.41514	0.24474
3712.48657	0.25364
3710.55801	0.26608
3708.62944	0.27971
3706.70088	0.29102
3704.77231	0.30149
3702.84375	0.31378
3700.91519	0.33034
3698.98662	0.34894
3697.05806	0.36659
3695.12949	0.38486
3693.20093	0.40402
3691.27236	0.42521
3689.34380	0.45305
3687.41523	0.48694
3685.48667	0.51609
3683.55811	0.54093
3681.62954	0.56835
3679.70098	0.60024
3677.77241	0.63409
3675.84385	0.67367
3673.91528	0.72542
3671.98672	0.76754
3670.05815	0.80473
3668.12959	0.85525
3666.20103	0.90241
3664.27246	0.94265
3662.34390	0.98566
3660.41533	1.03205
3658.48677	1.07788
3656.55820	1.12639
3654.62964	1.17992
3652.70107	1.22518
3650.77251	1.26550
3648.84395	1.32062
3646.91538	1.38603
3644.98682	1.43466
3643.05825	1.47336
3641.12969	1.51330
3639.20112	1.55705
3637.27256	1.60151
3635.34399	1.64512
3633.41543	1.68836
3631.48687	1.72880
3629.55830	1.76968
3627.62974	1.82200
3625.70117	1.87088
3623.77261	1.90487
3621.84404	1.93831
3619.91548	1.97677
3617.98691	2.02103
3616.05835	2.06259
3614.12979	2.09850
3612.20122	2.13732
3610.27266	2.17677
3608.34409	2.21651
3606.41553	2.25954
3604.48696	2.29964
3602.55840	2.33463
3600.62983	2.37212
3598.70127	2.41306
3596.77271	2.45306
3594.84414	2.49396
3592.91558	2.53716
3590.98701	2.57739
3589.05845	2.61278
3587.12988	2.65478
3585.20132	2.70362
3583.27275	2.74614
3581.34419	2.78435
3579.41562	2.82394
3577.48706	2.86596
3575.55850	2.90950
3573.62993	2.95294
3571.70137	2.99403
3569.77280	3.03449
3567.84424	3.07952
3565.91567	3.13365
3563.98711	3.18309
3562.05854	3.22182
3560.12998	3.26055
3558.20142	3.30371
3556.27285	3.35066
3554.34429	3.39784
3552.41572	3.44576
3550.48716	3.49410
3548.55859	3.53929
3546.63003	3.58260
3544.70146	3.63131
3542.77290	3.68372
3540.84434	3.73027
3538.91577	3.77311
3536.98721	3.81930
3535.05864	3.86974
3533.13008	3.91863
3531.20151	3.96523
3529.27295	4.01316
3527.34438	4.06405
3525.41582	4.11231
3523.48726	4.15699
3521.55869	4.20910
3519.63013	4.26619
3517.70156	4.31484
3515.77300	4.35481
3513.84443	4.39843
3511.91587	4.45024
3509.98730	4.50476
3508.05874	4.55736
3506.13018	4.60676
3504.20161	4.65435
3502.27305	4.70288
3500.34448	4.74867
3498.41592	4.78914
3496.48735	4.83278
3494.55879	4.88074
3492.63022	4.92605
3490.70166	4.96820
3488.77310	5.01511
3486.84453	5.07211
3484.91597	5.12997
3482.98740	5.18013
3481.05884	5.22857
3479.13027	5.27953
3477.20171	5.32957
3475.27314	5.37652
3473.34458	5.42321
3471.41602	5.47291
3469.48745	5.51875
3467.55889	5.55741
3465.63032	5.60203
3463.70176	5.66349
3461.77319	5.73072
3459.84463	5.78572
3457.91606	5.82606
3455.98750	5.86448
3454.05894	5.91599
3452.13037	5.97743
3450.20181	6.02908
3448.27324	6.06903
3446.34468	6.12143
3444.41611	6.19596
3442.48755	6.26832
3440.55898	6.31869
3438.63042	6.36061
3436.70186	6.40139
3434.77329	6.43658
3432.84473	6.46308
3430.91616	6.48417
3428.98760	6.53094
3427.05903	6.61491
3425.13047	6.70377
3423.20190	6.75963
3421.27334	6.79385
3419.34478	6.84279
3417.41621	6.91342
3415.48765	6.96842
3413.55908	6.99747
3411.63052	7.04183
3409.70195	7.07923
3407.77339	7.10492
3405.84482	7.14303
3403.91626	7.15728
3401.98770	7.18157
3400.05913	7.29567
3398.13057	7.43178
3396.20200	7.49835
3394.27344	7.52792
3392.34487	7.53043
3390.41631	7.54484
3388.48774	7.62029
3386.55918	7.71401
3384.63062	7.74621
3382.70205	7.74697
3380.77349	7.77457
3378.84492	7.79672
3376.91636	7.80374
3374.98779	7.81357
3373.05923	7.84251
3371.13066	7.89853
3369.20210	7.97636
3367.27354	8.00680
3365.34497	7.98300
3363.41641	7.98847
3361.48784	8.03574
3359.55928	8.09061
3357.63071	8.10380
3355.70215	8.08091
3353.77358	8.03810
3351.84502	7.99762
3349.91646	7.98515
3347.98789	7.99980
3346.05933	8.02021
3344.13076	8.00416
3342.20220	7.99590
3340.27363	8.09323
3338.34507	8.24161
3336.41650	8.27532
3334.48794	8.20275
3332.55937	8.12277
3330.63081	8.12015
3328.70225	8.17349
3326.77368	8.19014
3324.84512	8.18292
3322.91655	8.23343
3320.98799	8.37228
3319.05942	8.47428
3317.13086	8.45854
3315.20229	8.37049
3313.27373	8.29613
3311.34517	8.27964
3309.41660	8.28655
3307.48804	8.31641
3305.55947	8.36464
3303.63091	8.40275
3301.70234	8.40702
3299.77378	8.36068
3297.84521	8.26835
3295.91665	8.21618
3293.98809	8.21937
3292.05952	8.22442
3290.13096	8.23708
3288.20239	8.25462
3286.27383	8.27991
3284.34526	8.29628
3282.41670	8.31057
3280.48813	8.34513
3278.55957	8.37360
3276.63101	8.36660
3274.70244	8.39680
3272.77388	8.56062
3270.84531	8.73618
3268.91675	8.76256
3266.98818	8.66533
3265.05962	8.54488
3263.13105	8.50820
3261.20249	8.51905
3259.27393	8.52607
3257.34536	8.58582
3255.41680	8.57765
3253.48823	8.42468
3251.55967	8.33785
3249.63110	8.37412
3247.70254	8.43095
3245.77397	8.48504
3243.84541	8.50867
3241.91685	8.41606
3239.98828	8.31225
3238.05972	8.30183
3236.13115	8.30107
3234.20259	8.31342
3232.27402	8.37439
3230.34546	8.38883
3228.41689	8.41054
3226.48833	8.51286
3224.55977	8.54056
3222.63120	8.48209
3220.70264	8.44721
3218.77407	8.39201
3216.84551	8.35056
3214.91694	8.34489
3212.98838	8.27505
3211.05981	8.17177
3209.13125	8.09486
3207.20269	8.05675
3205.27412	8.08187
3203.34556	8.09935
3201.41699	8.00895
3199.48843	7.89733
3197.55986	7.86487
3195.63130	7.84036
3193.70273	7.80213
3191.77417	7.78149
3189.84561	7.69848
3187.91704	7.57454
3185.98848	7.53688
3184.05991	7.57585
3182.13135	7.57737
3180.20278	7.50243
3178.27422	7.39755
3176.34565	7.32164
3174.41709	7.27335
3172.48853	7.21605
3170.55996	7.15583
3168.63140	7.10790
3166.70283	7.06431
3164.77427	7.02019
3162.84570	6.97267
3160.91714	6.90358
3158.98857	6.81678
3157.06001	6.71589
3155.13145	6.61047
3153.20288	6.53590
3151.27432	6.49042
3149.34575	6.44472
3147.41719	6.36847
3145.48862	6.26291
3143.56006	6.17889
3141.63149	6.13101
3139.70293	6.08411
3137.77437	6.01281
3135.84580	5.92547
3133.91724	5.85554
3131.98867	5.80165
3130.06011	5.73408
3128.13154	5.65355
3126.20298	5.56944
3124.27441	5.48537
3122.34585	5.41054
3120.41729	5.34706
3118.48872	5.28508
3116.56016	5.21763
3114.63159	5.14497
3112.70303	5.07120
3110.77446	4.99968
3108.84590	4.92860
3106.91733	4.85712
3104.98877	4.78958
3103.06021	4.72718
3101.13164	4.65912
3099.20308	4.58368
3097.27451	4.51508
3095.34595	4.45407
3093.41738	4.38848
3091.48882	4.31669
3089.56025	4.24537
3087.63169	4.17811
3085.70312	4.11645
3083.77456	4.05707
3081.84600	3.99627
3079.91743	3.93658
3077.98887	3.87757
3076.06030	3.81537
3074.13174	3.75206
3072.20317	3.69300
3070.27461	3.63924
3068.34604	3.58496
3066.41748	3.52558
3064.48892	3.46568
3062.56035	3.40999
3060.63179	3.35734
3058.70322	3.30504
3056.77466	3.25067
3054.84609	3.19463
3052.91753	3.14041
3050.98896	3.08956
3049.06040	3.03994
3047.13184	2.98951
3045.20327	2.93819
3043.27471	2.88685
3041.34614	2.83694
3039.41758	2.78911
3037.48901	2.74246
3035.56045	2.69641
3033.63188	2.65090
3031.70332	2.60544
3029.77476	2.55986
3027.84619	2.51478
3025.91763	2.47083
3023.98906	2.42803
3022.06050	2.38624
3020.13193	2.34476
3018.20337	2.30300
3016.27480	2.26210
3014.34624	2.22333
3012.41768	2.18559
3010.48911	2.14720
3008.56055	2.10888
3006.63198	2.07184
3004.70342	2.03578
3002.77485	2.00021
3000.84629	1.96545
2998.91772	1.93197
2996.98916	1.89964
2995.06060	1.86754
2993.13203	1.83555
2991.20347	1.80458
2989.27490	1.77427
2987.34634	1.74394
2985.41777	1.71418
2983.48921	1.68552
2981.56064	1.65799
2979.63208	1.63153
2977.70352	1.60526
2975.77495	1.57856
2973.84639	1.55250
2971.91782	1.52757
2969.98926	1.50291
2968.06069	1.47823
2966.13213	1.45391
2964.20356	1.43022
2962.27500	1.40670
2960.34644	1.38284
2958.41787	1.35913
2956.48931	1.33587
2954.56074	1.31233
2952.63218	1.28839
2950.70361	1.26480
2948.77505	1.24215
2946.84648	1.22065
2944.91792	1.20012
2942.98936	1.18000
2941.06079	1.15985
2939.13223	1.13978
2937.20366	1.12017
2935.27510	1.10107
2933.34653	1.08209
2931.41797	1.06281
2929.48940	1.04356
2927.56084	1.02486
2925.63228	1.00677
2923.70371	0.98921
2921.77515	0.97159
2919.84658	0.95391
2917.91802	0.93669
2915.98945	0.91975
2914.06089	0.90334
2912.13232	0.88748
2910.20376	0.87150
2908.27520	0.85558
2906.34663	0.84042
2904.41807	0.82583
2902.48950	0.81148
2900.56094	0.79764
2898.63237	0.78441
2896.70381	0.77146
2894.77524	0.75874
2892.84668	0.74647
2890.91812	0.73451
2888.98955	0.72272
2887.06099	0.71142
2885.13242	0.70088
2883.20386	0.69087
2881.27529	0.68081
2879.34673	0.67068
2877.41816	0.66077
2875.48960	0.65095
2873.56104	0.64106
2871.63247	0.63091
2869.70391	0.62006
2867.77534	0.60862
2865.84678	0.59716
2863.91821	0.58608
2861.98965	0.57536
2860.06108	0.56491
2858.13252	0.55476
2856.20396	0.54484
2854.27539	0.53504
2852.34683	0.52560
2850.41826	0.51698
2848.48970	0.50910
2846.56113	0.50133
2844.63257	0.49346
2842.70400	0.48594
2840.77544	0.47913
2838.84687	0.47286
2836.91831	0.46668
2834.98975	0.46044
2833.06118	0.45429
2831.13262	0.44827
2829.20405	0.44220
2827.27549	0.43600
2825.34692	0.42979
2823.41836	0.42374
2821.48979	0.41785
2819.56123	0.41197
2817.63267	0.40603
2815.70410	0.40023
2813.77554	0.39475
2811.84697	0.38948
2809.91841	0.38415
2807.98984	0.37868
2806.06128	0.37323
2804.13271	0.36805
2802.20415	0.36315
2800.27559	0.35830
2798.34702	0.35354
2796.41846	0.34895
2794.48989	0.34433
2792.56133	0.33966
2790.63276	0.33501
2788.70420	0.33046
2786.77563	0.32608
2784.84707	0.32173
2782.91851	0.31731
2780.98994	0.31309
2779.06138	0.30912
2777.13281	0.30524
2775.20425	0.30139
2773.27568	0.29750
2771.34712	0.29364
2769.41855	0.29000
2767.48999	0.28654
2765.56143	0.28317
2763.63286	0.27981
2761.70430	0.27646
2759.77573	0.27322
2757.84717	0.27002
2755.91860	0.26680
2753.99004	0.26367
2752.06147	0.26067
2750.13291	0.25776
2748.20435	0.25499
2746.27578	0.25229
2744.34722	0.24959
2742.41865	0.24681
2740.49009	0.24400
2738.56152	0.24134
2736.63296	0.23887
2734.70439	0.23646
2732.77583	0.23409
2730.84727	0.23179
2728.91870	0.22955
2726.99014	0.22733
2725.06157	0.22512
2723.13301	0.22291
2721.20444	0.22082
2719.27588	0.21884
2717.34731	0.21682
2715.41875	0.21481
2713.49019	0.21303
2711.56162	0.21136
2709.63306	0.20958
2707.70449	0.20779
2705.77593	0.20618
2703.84736	0.20469
2701.91880	0.20318
2699.99023	0.20156
2698.06167	0.19986
2696.13311	0.19827
2694.20454	0.19690
2692.27598	0.19565
2690.34741	0.19435
2688.41885	0.19294
2686.49028	0.19145
2684.56172	0.19008
2682.63315	0.18880
2680.70459	0.18756
2678.77603	0.18643
2676.84746	0.18531
2674.91890	0.18425
2672.99033	0.18326
2671.06177	0.18226
2669.13320	0.18127
2667.20464	0.18032
2665.27607	0.17933
2663.34751	0.17819
2661.41895	0.17716
2659.49038	0.17641
2657.56182	0.17565
2655.63325	0.17470
2653.70469	0.17378
2651.77612	0.17308
2649.84756	0.17243
2647.91899	0.17168
2645.99043	0.17093
2644.06187	0.17037
2642.13330	0.16993
2640.20474	0.16948
2638.27617	0.16897
2636.34761	0.16837
2634.41904	0.16776
2632.49048	0.16724
2630.56191	0.16678
2628.63335	0.16638
2626.70479	0.16607
2624.77622	0.16580
2622.84766	0.16555
2620.91909	0.16531
2618.99053	0.16508
2617.06196	0.16485
2615.13340	0.16453
2613.20483	0.16421
2611.27627	0.16402
2609.34771	0.16386
2607.41914	0.16369
2605.49058	0.16361
2603.56201	0.16352
2601.63345	0.16338
2599.70488	0.16326
2597.77632	0.16326
2595.84775	0.16340
2593.91919	0.16350
2591.99062	0.16348
2590.06206	0.16343
2588.13350	0.16353
2586.20493	0.16378
2584.27637	0.16403
2582.34780	0.16413
2580.41924	0.16424
2578.49067	0.16459
2576.56211	0.16505
2574.63354	0.16540
2572.70498	0.16579
2570.77642	0.16624
2568.84785	0.16644
2566.91929	0.16650
2564.99072	0.16670
2563.06216	0.16700
2561.13359	0.16739
2559.20503	0.16789
2557.27646	0.16842
2555.34790	0.16889
2553.41934	0.16936
2551.49077	0.16992
2549.56221	0.17051
2547.63364	0.17112
2545.70508	0.17172
2543.77651	0.17224
2541.84795	0.17276
2539.91938	0.17335
2537.99082	0.17400
2536.06226	0.17472
2534.13369	0.17536
2532.20513	0.17585
2530.27656	0.17636
2528.34800	0.17697
2526.41943	0.17765
2524.49087	0.17842
2522.56230	0.17918
2520.63374	0.17983
2518.70518	0.18043
2516.77661	0.18113
2514.84805	0.18193
2512.91948	0.18274
2510.99092	0.18354
2509.06235	0.18433
2507.13379	0.18512
2505.20522	0.18589
2503.27666	0.18676
2501.34810	0.18771
2499.41953	0.18851
2497.49097	0.18917
2495.56240	0.18978
2493.63384	0.19035
2491.70527	0.19098
2489.77671	0.19185
2487.84814	0.19287
2485.91958	0.19381
2483.99102	0.19462
2482.06245	0.19538
2480.13389	0.19611
2478.20532	0.19687
2476.27676	0.19769
2474.34819	0.19856
2472.41963	0.19945
2470.49106	0.20027
2468.56250	0.20112
2466.63394	0.20208
2464.70537	0.20302
2462.77681	0.20393
2460.84824	0.20498
2458.91968	0.20609
2456.99111	0.20709
2455.06255	0.20790
2453.13398	0.20860
2451.20542	0.20933
2449.27686	0.21019
2447.34829	0.21128
2445.41973	0.21239
2443.49116	0.21329
2441.56260	0.21419
2439.63403	0.21524
2437.70547	0.21633
2435.77690	0.21728
2433.84834	0.21814
2431.91978	0.21908
2429.99121	0.22014
2428.06265	0.22124
2426.13408	0.22229
2424.20552	0.22329
2422.27695	0.22438
2420.34839	0.22554
2418.41982	0.22663
2416.49126	0.22773
2414.56270	0.22895
2412.63413	0.23009
2410.70557	0.23110
2408.77700	0.23220
2406.84844	0.23336
2404.91987	0.23452
2402.99131	0.23579
2401.06274	0.23709
2399.13418	0.23826
2397.20562	0.23941
2395.27705	0.24063
2393.34849	0.24181
2391.41992	0.24295
2389.49136	0.24407
2387.56279	0.24526
2385.63423	0.24652
2383.70566	0.24756
2381.77710	0.24837
2379.84854	0.24935
2377.91997	0.25035
2375.99141	0.25106
2374.06284	0.25187
2372.13428	0.25314
2370.20571	0.25461
2368.27715	0.25588
2366.34858	0.25690
2364.42002	0.25843
2362.49146	0.26081
2360.56289	0.26217
2358.63433	0.26272
2356.70576	0.26479
2354.77720	0.26735
2352.84863	0.26915
2350.92007	0.27046
2348.99150	0.27135
2347.06294	0.27201
2345.13437	0.27305
2343.20581	0.27469
2341.27725	0.27621
2339.34868	0.27746
2337.42012	0.27892
2335.49155	0.28068
2333.56299	0.28240
2331.63442	0.28437
2329.70586	0.28655
2327.77729	0.28848
2325.84873	0.29024
2323.92017	0.29194
2321.99160	0.29363
2320.06304	0.29541
2318.13447	0.29720
2316.20591	0.29898
2314.27734	0.30086
2312.34878	0.30280
2310.42021	0.30476
2308.49165	0.30677
2306.56309	0.30873
2304.63452	0.31061
2302.70596	0.31249
2300.77739	0.31440
2298.84883	0.31632
2296.92026	0.31821
2294.99170	0.32008
2293.06313	0.32199
2291.13457	0.32392
2289.20601	0.32588
2287.27744	0.32783
2285.34888	0.32979
2283.42031	0.33182
2281.49175	0.33389
2279.56318	0.33592
2277.63462	0.33795
2275.70605	0.34001
2273.77749	0.34196
2271.84893	0.34381
2269.92036	0.34591
2267.99180	0.34833
2266.06323	0.35074
2264.13467	0.35285
2262.20610	0.35477
2260.27754	0.35679
2258.34897	0.35891
2256.42041	0.36105
2254.49185	0.36325
2252.56328	0.36553
2250.63472	0.36785
2248.70615	0.37006
2246.77759	0.37207
2244.84902	0.37399
2242.92046	0.37615
2240.99189	0.37862
2239.06333	0.38106
2237.13477	0.38323
2235.20620	0.38519
2233.27764	0.38721
2231.34907	0.38943
2229.42051	0.39179
2227.49194	0.39414
2225.56338	0.39641
2223.63481	0.39863
2221.70625	0.40085
2219.77769	0.40310
2217.84912	0.40533
2215.92056	0.40743
2213.99199	0.40947
2212.06343	0.41159
2210.13486	0.41375
2208.20630	0.41598
2206.27773	0.41822
2204.34917	0.42035
2202.42061	0.42227
2200.49204	0.42412
2198.56348	0.42603
2196.63491	0.42802
2194.70635	0.43006
2192.77778	0.43205
2190.84922	0.43395
2188.92065	0.43571
2186.99209	0.43736
2185.06353	0.43900
2183.13496	0.44072
2181.20640	0.44252
2179.27783	0.44423
2177.34927	0.44572
2175.42070	0.44715
2173.49214	0.44869
2171.56357	0.45025
2169.63501	0.45167
2167.70645	0.45289
2165.77788	0.45404
2163.84932	0.45527
2161.92075	0.45648
2159.99219	0.45756
2158.06362	0.45860
2156.13506	0.45955
2154.20649	0.46032
2152.27793	0.46099
2150.34937	0.46155
2148.42080	0.46205
2146.49224	0.46264
2144.56367	0.46327
2142.63511	0.46375
2140.70654	0.46402
2138.77798	0.46412
2136.84941	0.46418
2134.92085	0.46425
2132.99229	0.46427
2131.06372	0.46418
2129.13516	0.46400
2127.20659	0.46377
2125.27803	0.46347
2123.34946	0.46302
2121.42090	0.46243
2119.49233	0.46178
2117.56377	0.46105
2115.63521	0.46015
2113.70664	0.45925
2111.77808	0.45850
2109.84951	0.45768
2107.92095	0.45674
2105.99238	0.45573
2104.06382	0.45457
2102.13525	0.45321
2100.20669	0.45169
2098.27812	0.45004
2096.34956	0.44839
2094.42100	0.44682
2092.49243	0.44530
2090.56387	0.44371
2088.63530	0.44195
2086.70674	0.44016
2084.77817	0.43838
2082.84961	0.43646
2080.92104	0.43434
2078.99248	0.43218
2077.06392	0.43001
2075.13535	0.42780
2073.20679	0.42559
2071.27822	0.42341
2069.34966	0.42121
2067.42109	0.41890
2065.49253	0.41657
2063.56396	0.41415
2061.63540	0.41168
2059.70684	0.40919
2057.77827	0.40662
2055.84971	0.40398
2053.92114	0.40132
2051.99258	0.39865
2050.06401	0.39603
2048.13545	0.39347
2046.20688	0.39085
2044.27832	0.38818
2042.34976	0.38547
2040.42119	0.38265
2038.49263	0.37979
2036.56406	0.37703
2034.63550	0.37439
2032.70693	0.37168
2030.77837	0.36888
2028.84980	0.36607
2026.92124	0.36327
2024.99268	0.36053
2023.06411	0.35789
2021.13555	0.35521
2019.20698	0.35241
2017.27842	0.34956
2015.34985	0.34670
2013.42129	0.34391
2011.49272	0.34125
2009.56416	0.33863
2007.63560	0.33588
2005.70703	0.33313
2003.77847	0.33046
2001.84990	0.32780
1999.92134	0.32518
1997.99277	0.32261
1996.06421	0.32002
1994.13564	0.31757
1992.20708	0.31524
1990.27852	0.31281
1988.34995	0.31033
1986.42139	0.30786
1984.49282	0.30538
1982.56426	0.30293
1980.63569	0.30053
1978.70713	0.29817
1976.77856	0.29582
1974.85000	0.29364
1972.92144	0.29164
1970.99287	0.28964
1969.06431	0.28763
1967.13574	0.28565
1965.20718	0.28366
1963.27861	0.28169
1961.35005	0.27974
1959.42148	0.27772
1957.49292	0.27584
1955.56436	0.27418
1953.63579	0.27250
1951.70723	0.27075
1949.77866	0.26911
1947.85010	0.26757
1945.92153	0.26608
1943.99297	0.26470
1942.06440	0.26324
1940.13584	0.26154
1938.20728	0.25995
1936.27871	0.25871
1934.35015	0.25756
1932.42158	0.25635
1930.49302	0.25509
1928.56445	0.25382
1926.63589	0.25266
1924.70732	0.25183
1922.77876	0.25113
1920.85020	0.25030
1918.92163	0.24951
1916.99307	0.24868
1915.06450	0.24762
1913.13594	0.24659
1911.20737	0.24585
1909.27881	0.24523
1907.35024	0.24455
1905.42168	0.24389
1903.49312	0.24333
1901.56455	0.24272
1899.63599	0.24211
1897.70742	0.24166
1895.77886	0.24128
1893.85029	0.24095
1891.92173	0.24068
1889.99316	0.24058
1888.06460	0.24046
1886.13604	0.24022
1884.20747	0.23994
1882.27891	0.23966
1880.35034	0.23943
1878.42178	0.23934
1876.49321	0.23935
1874.56465	0.23925
1872.63608	0.23921
1870.70752	0.23953
1868.77896	0.24029
1866.85039	0.24075
1864.92183	0.24058
1862.99326	0.24041
1861.06470	0.24049
1859.13613	0.24080
1857.20757	0.24124
1855.27900	0.24178
1853.35044	0.24223
1851.42187	0.24270
1849.49331	0.24331
1847.56475	0.24412
1845.63618	0.24504
1843.70762	0.24603
1841.77905	0.24675
1839.85049	0.24712
1837.92192	0.24779
1835.99336	0.24868
1834.06479	0.24956
1832.13623	0.25052
1830.20767	0.25200
1828.27910	0.25359
1826.35054	0.25463
1824.42197	0.25577
1822.49341	0.25704
1820.56484	0.25825
1818.63628	0.25948
1816.70771	0.26103
1814.77915	0.26272
1812.85059	0.26455
1810.92202	0.26660
1808.99346	0.26861
1807.06489	0.27052
1805.13633	0.27251
1803.20776	0.27483
1801.27920	0.27736
1799.35063	0.28005
1797.42207	0.28248
1795.49351	0.28489
1793.56494	0.28777
1791.63638	0.29142
1789.70781	0.29482
1787.77925	0.29738
1785.85068	0.30049
1783.92212	0.30422
1781.99355	0.30819
1780.06499	0.31234
1778.13643	0.31659
1776.20786	0.32060
1774.27930	0.32488
1772.35073	0.33072
1770.42217	0.33709
1768.49360	0.34239
1766.56504	0.34747
1764.63647	0.35277
1762.70791	0.35860
1760.77935	0.36593
1758.85078	0.37298
1756.92222	0.38011
1754.99365	0.38777
1753.06509	0.39471
1751.13652	0.40302
1749.20796	0.41353
1747.27939	0.42399
1745.35083	0.43320
1743.42227	0.44275
1741.49370	0.45322
1739.56514	0.46563
1737.63657	0.47809
1735.70801	0.48912
1733.77944	0.50570
1731.85088	0.52521
1729.92231	0.54051
1727.99375	0.55603
1726.06519	0.57292
1724.13662	0.59139
1722.20806	0.61137
1720.27949	0.63025
1718.35093	0.65251
1716.42236	0.68390
1714.49380	0.71321
1712.56523	0.73776
1710.63667	0.76207
1708.70811	0.78818
1706.77954	0.81766
1704.85098	0.85254
1702.92241	0.88383
1700.99385	0.91549
1699.06528	0.96238
1697.13672	1.00543
1695.20815	1.04934
1693.27959	1.09252
1691.35103	1.12794
1689.42246	1.16884
1687.49390	1.21238
1685.56533	1.25512
1683.63677	1.31922
1681.70820	1.38508
1679.77964	1.42843
1677.85107	1.47008
1675.92251	1.51823
1673.99395	1.57692
1672.06538	1.62895
1670.13682	1.68045
1668.20825	1.74678
1666.27969	1.80157
1664.35112	1.84842
1662.42256	1.90619
1660.49399	1.97174
1658.56543	2.02542
1656.63687	2.06990
1654.70830	2.10967
1652.77974	2.16684
1650.85117	2.22036
1648.92261	2.24024
1646.99404	2.26364
1645.06548	2.28867
1643.13691	2.30470
1641.20835	2.31415
1639.27979	2.32348
1637.35122	2.32807
1635.42266	2.32560
1633.49409	2.31770
1631.56553	2.30343
1629.63696	2.28419
1627.70840	2.25367
1625.77983	2.21935
1623.85127	2.17729
1621.92271	2.12563
1619.99414	2.07910
1618.06558	2.03349
1616.13701	1.96925
1614.20845	1.90426
1612.27988	1.85442
1610.35132	1.80279
1608.42275	1.74779
1606.49419	1.69393
1604.56562	1.64399
1602.63706	1.59587
1600.70850	1.54902
1598.77993	1.50579
1596.85137	1.46520
1594.92280	1.42594
1592.99424	1.38835
1591.06567	1.35436
1589.13711	1.32247
1587.20854	1.29210
1585.27998	1.26380
1583.35142	1.23764
1581.42285	1.21374
1579.49429	1.19344
1577.56572	1.17596
1575.63716	1.15566
1573.70859	1.13762
1571.78003	1.12587
1569.85146	1.11425
1567.92290	1.10170
1565.99434	1.09248
1564.06577	1.08603
1562.13721	1.08175
1560.20864	1.08042
1558.28008	1.08167
1556.35151	1.08194
1554.42295	1.08100
1552.49438	1.08021
1550.56582	1.07833
1548.63726	1.07415
1546.70869	1.06779
1544.78013	1.05895
1542.85156	1.04711
1540.92300	1.02955
1538.99443	1.00254
1537.06587	0.98213
1535.13730	0.96789
1533.20874	0.94956
1531.28018	0.93016
1529.35161	0.91568
1527.42305	0.90197
1525.49448	0.88813
1523.56592	0.87691
1521.63735	0.86656
1519.70879	0.85518
1517.78022	0.84482
1515.85166	0.83338
1513.92310	0.82157
1511.99453	0.81131
1510.06597	0.80223
1508.13740	0.79360
1506.20884	0.78049
1504.28027	0.76834
1502.35171	0.76120
1500.42314	0.75515
1498.49458	0.74878
1496.56602	0.74143
1494.63745	0.73434
1492.70889	0.72912
1490.78032	0.72496
1488.85176	0.72016
1486.92319	0.71512
1484.99463	0.71106
1483.06606	0.70816
1481.13750	0.70605
1479.20894	0.70470
1477.28037	0.70419
1475.35181	0.70426
1473.42324	0.70481
1471.49468	0.70475
1469.56611	0.70321
1467.63755	0.70121
1465.70898	0.69955
1463.78042	0.69820
1461.85186	0.69716
1459.92329	0.69685
1457.99473	0.69739
1456.06616	0.69703
1454.13760	0.69430
1452.20903	0.69117
1450.28047	0.68801
1448.35190	0.68479
1446.42334	0.68159
1444.49478	0.67865
1442.56621	0.67599
1440.63765	0.67339
1438.70908	0.67084
1436.78052	0.66778
1434.85195	0.66408
1432.92339	0.66096
1430.99482	0.65881
1429.06626	0.65754
1427.13770	0.65703
1425.20913	0.65715
1423.28057	0.65771
1421.35200	0.65822
1419.42344	0.65856
1417.49487	0.65835
1415.56631	0.65724
1413.63774	0.65604
1411.70918	0.65538
1409.78062	0.65545
1407.85205	0.65622
1405.92349	0.65747
1403.99492	0.65847
1402.06636	0.65850
1400.13779	0.65784
1398.20923	0.65648
1396.28066	0.65413
1394.35210	0.65055
1392.42354	0.64625
1390.49497	0.64220
1388.56641	0.63838
1386.63784	0.63431
1384.70928	0.63000
1382.78071	0.62574
1380.85215	0.62162
1378.92358	0.61801
1376.99502	0.61529
1375.06646	0.61350
1373.13789	0.61237
1371.20933	0.61159
1369.28076	0.61088
1367.35220	0.60997
1365.42363	0.60881
1363.49507	0.60746
1361.56650	0.60579
1359.63794	0.60399
1357.70937	0.60247
1355.78081	0.60113
1353.85225	0.59985
1351.92368	0.59875
1349.99512	0.59796
1348.06655	0.59735
1346.13799	0.59656
1344.20942	0.59558
1342.28086	0.59460
1340.35229	0.59374
1338.42373	0.59288
1336.49517	0.59199
1334.56660	0.59131
1332.63804	0.59108
1330.70947	0.59128
1328.78091	0.59167
1326.85234	0.59206
1324.92378	0.59248
1322.99521	0.59301
1321.06665	0.59356
1319.13809	0.59402
1317.20952	0.59430
1315.28096	0.59425
1313.35239	0.59387
1311.42383	0.59319
1309.49526	0.59233
1307.56670	0.59150
1305.63813	0.59073
1303.70957	0.58996
1301.78101	0.58913
1299.85244	0.58822
1297.92388	0.58730
1295.99531	0.58620
1294.06675	0.58481
1292.13818	0.58347
1290.20962	0.58234
1288.28105	0.58123
1286.35249	0.58001
1284.42393	0.57868
1282.49536	0.57734
1280.56680	0.57605
1278.63823	0.57472
1276.70967	0.57341
1274.78110	0.57232
1272.85254	0.57148
1270.92397	0.57086
1268.99541	0.57030
1267.06685	0.56964
1265.13828	0.56878
1263.20972	0.56775
1261.28115	0.56686
1259.35259	0.56613
1257.42402	0.56550
1255.49546	0.56512
1253.56689	0.56487
1251.63833	0.56473
1249.70977	0.56472
1247.78120	0.56457
1245.85264	0.56408
1243.92407	0.56333
1241.99551	0.56245
1240.06694	0.56133
1238.13838	0.55977
1236.20981	0.55786
1234.28125	0.55582
1232.35269	0.55377
1230.42412	0.55174
1228.49556	0.54972
1226.56699	0.54781
1224.63843	0.54608
1222.70986	0.54442
1220.78130	0.54284
1218.85273	0.54139
1216.92417	0.54012
1214.99561	0.53906
1213.06704	0.53816
1211.13848	0.53747
1209.20991	0.53700
1207.28135	0.53652
1205.35278	0.53579
1203.42422	0.53481
1201.49565	0.53372
1199.56709	0.53271
1197.63853	0.53184
1195.70996	0.53109
1193.78140	0.53053
1191.85283	0.52994
1189.92427	0.52931
1187.99570	0.52895
1186.06714	0.52893
1184.13857	0.52909
1182.21001	0.52942
1180.28145	0.53010
1178.35288	0.53118
1176.42432	0.53253
1174.49575	0.53391
1172.56719	0.53503
1170.63862	0.53579
1168.71006	0.53631
1166.78149	0.53672
1164.85293	0.53718
1162.92437	0.53774
1160.99580	0.53817
1159.06724	0.53828
1157.13867	0.53805
1155.21011	0.53743
1153.28154	0.53634
1151.35298	0.53472
1149.42441	0.53266
1147.49585	0.53019
1145.56729	0.52733
1143.63872	0.52447
1141.71016	0.52199
1139.78159	0.52000
1137.85303	0.51863
1135.92446	0.51789
1133.99590	0.51764
1132.06733	0.51774
1130.13877	0.51793
1128.21021	0.51789
1126.28164	0.51754
1124.35308	0.51702
1122.42451	0.51658
1120.49595	0.51655
1118.56738	0.51692
1116.63882	0.51739
1114.71025	0.51785
1112.78169	0.51836
1110.85312	0.51904
1108.92456	0.51988
1106.99600	0.52085
1105.06743	0.52186
1103.13887	0.52268
1101.21030	0.52334
1099.28174	0.52421
1097.35317	0.52585
1095.42461	0.52855
1093.49604	0.53223
1091.56748	0.53705
1089.63892	0.54326
1087.71035	0.55059
1085.78179	0.55872
1083.85322	0.56741
1081.92466	0.57549
1079.99609	0.58130
1078.06753	0.58416
1076.13896	0.58392
1074.21040	0.58051
1072.28184	0.57467
1070.35327	0.56767
1068.42471	0.56039
1066.49614	0.55338
1064.56758	0.54701
1062.63901	0.54148
1060.71045	0.53685
1058.78188	0.53291
1056.85332	0.52923
1054.92476	0.52563
1052.99619	0.52241
1051.06763	0.52020
1049.13906	0.51899
1047.21050	0.51822
1045.28193	0.51791
1043.35337	0.51821
1041.42480	0.51865
1039.49624	0.51896
1037.56768	0.51910
1035.63911	0.51889
1033.71055	0.51825
1031.78198	0.51731
1029.85342	0.51602
1027.92485	0.51415
1025.99629	0.51187
1024.06772	0.50985
1022.13916	0.50848
1020.21060	0.50763
1018.28203	0.50703
1016.35347	0.50649
1014.42490	0.50617
1012.49634	0.50600
1010.56777	0.50560
1008.63921	0.50515
1006.71064	0.50522
1004.78208	0.50599
1002.85352	0.50750
1000.92495	0.50989
998.99639	0.51318
997.06782	0.51724
995.13926	0.52184
993.21069	0.52634
991.28213	0.52984
989.35356	0.53173
987.42500	0.53197
985.49644	0.53122
983.56787	0.53067
981.63931	0.53088
979.71074	0.53164
977.78218	0.53302
975.85361	0.53504
973.92505	0.53748
971.99648	0.54032
970.06792	0.54345
968.13936	0.54685
966.21079	0.55083
964.28223	0.55538
962.35366	0.56021
960.42510	0.56528
958.49653	0.57056
956.56797	0.57595
954.63940	0.58175
952.71084	0.58826
950.78228	0.59495
948.85371	0.60111
946.92515	0.60703
944.99658	0.61322
943.06802	0.61969
941.13945	0.62620
939.21089	0.63236
937.28232	0.63830
935.35376	0.64440
933.42520	0.65039
931.49663	0.65618
929.56807	0.66199
927.63950	0.66794
925.71094	0.67401
923.78237	0.68018
921.85381	0.68668
919.92524	0.69349
917.99668	0.70023
916.06812	0.70704
914.13955	0.71468
912.21099	0.72316
910.28242	0.73220
908.35386	0.74170
906.42529	0.75082
904.49673	0.75947
902.56816	0.76856
900.63960	0.77799
898.71104	0.78751
896.78247	0.79739
894.85391	0.80712
892.92534	0.81696
890.99678	0.82727
889.06821	0.83705
887.13965	0.84712
885.21108	0.85893
883.28252	0.87149
881.35396	0.88254
879.42539	0.89254
877.49683	0.90451
875.56826	0.91787
873.63970	0.92997
871.71113	0.94205
869.78257	0.95506
867.85400	0.96677
865.92544	0.97676
863.99687	0.98698
862.06831	0.99891
860.13975	1.01139
858.21118	1.02203
856.28262	1.03209
854.35405	1.04467
852.42549	1.05852
850.49692	1.07019
848.56836	1.07954
846.63979	1.08942
844.71123	1.10164
842.78267	1.11395
840.85410	1.12405
838.92554	1.13318
836.99697	1.14415
835.06841	1.15765
833.13984	1.17180
831.21128	1.18709
829.28271	1.20358
827.35415	1.21702
825.42559	1.22598
823.49702	1.23664
821.56846	1.24689
819.63989	1.25074
817.71133	1.26149
815.78276	1.28595
813.85420	1.30488
811.92563	1.31304
809.99707	1.33390
808.06851	1.36610
806.13994	1.38237
804.21138	1.38645
802.28281	1.39326
800.35425	1.39889
798.42568	1.40519
796.49712	1.41706
794.56855	1.42840
792.63999	1.45474
790.71143	1.53881
788.78286	1.65563
786.85430	1.68836
784.92573	1.65394
782.99717	1.64119
781.06860	1.60241
779.14004	1.58905
777.21147	1.59290
775.28291	1.54804
773.35435	1.51187
771.42578	1.57136
769.49722	1.75284
767.56865	2.06053
765.64009	1.89819
763.71152	1.57908
761.78296	1.55430
759.85439	1.76834
757.92583	1.76286
755.99727	1.45485
754.06870	1.34857
752.14014	1.36825
750.21157	1.35630
748.28301	1.30261
746.35444	1.19505
744.42588	1.08106
742.49731	1.00026
740.56875	0.89571
738.64019	0.81281
736.71162	0.82702
734.78306	0.89863
732.85449	0.93265
730.92593	1.02256
728.99736	1.12635
727.06880	0.86069
725.14023	0.58328
723.21167	0.44948
721.28311	0.39552
719.35454	0.33765
717.42598	0.25461
715.49741	0.19416
713.56885	0.19141
711.64028	0.25663
709.71172	0.32795
707.78315	0.31599
705.85459	0.26953
703.92603	0.24359
701.99746	0.25110
700.06890	0.27244
698.14033	0.28750
696.21177	0.38782
694.28320	0.85476
692.35464	4.15413
690.42607	0.64495
688.49751	0.21113
686.56895	0.05815
684.64038	0.07272
682.71182	0.21113
680.78325	0.32231
678.85469	0.24348
676.92612	0.17505
674.99756	0.18143
673.06899	0.16074
671.14043	0.13435
669.21187	0.21817
667.28330	0.35749
665.35474	0.35432
663.42617	0.23206
661.49761	0.12480
659.56904	0.09341
657.64048	0.16549
655.71191	0.23263
653.78335	0.23388
651.85479	0.21040
649.92622	0.16655
647.99766	0.19760
646.06909	0.32045
644.14053	0.37651
642.21196	0.34398
640.28340	0.34576
638.35483	0.33624
636.42627	0.23628
634.49771	0.05675
632.56914	-0.03262
630.64058	-0.01086
628.71201	0.01164
626.78345	0.03527
624.85488	0.13295
622.92632	0.21348
620.99775	0.28882
619.06919	0.44196
617.14062	0.64352
615.21206	0.58116
613.28350	0.35404
611.35493	0.17606
609.42637	0.10312
607.49780	0.08200
605.56924	0.08864
603.64067	0.14232
601.71211	0.20004
599.78354	0.21475
597.85498	0.20593
595.92642	0.23514
593.99785	0.33695
592.06929	0.45034
590.14072	0.55276
588.21216	0.54598
586.28359	0.38291
584.35503	0.28869
582.42646	0.23864
580.49790	0.18282
578.56934	0.14824
576.64077	0.16569
574.71221	0.19401
572.78364	0.21795
570.85508	0.23269
568.92651	0.24060
566.99795	0.26999
565.06938	0.34550
563.14082	0.45284
561.21226	0.31069
559.28369	0.11908
557.35513	0.01575
555.42656	0.01676
553.49800	0.13637
551.56943	0.31144
549.64087	0.48296
547.71230	0.35749
545.78374	0.23733
543.85518	0.28088
541.92661	0.36734
539.99805	0.29620
538.06948	0.19353
536.14092	0.15522
534.21235	0.20188
532.28379	0.26208
530.35522	0.30420
528.42666	0.35264
526.49810	0.32059
524.56953	0.25432
522.64097	0.23376
520.71240	0.20911
518.78384	0.18252
516.85527	0.18840
514.92671	0.17626
512.99814	0.16693
511.06958	0.19842
509.14102	0.21076
507.21245	0.21150
505.28389	0.21372
503.35532	0.16009
501.42676	0.10103
499.49819	0.12639
